Data from Ofra_PP_Phys_0GT1H_Reflection_2.txt Node
Date: Sat Jul 24 20:05:55 EDT 2021
User: USUARIO
Spectrometer: FLMT01687
Trigger mode: 0
Integration Time (sec): 1.100000E0
Scans to average: 2
Electric dark correction enabled: true
Nonlinearity correction enabled: false
Boxcar width: 2
XAxis mode: Wavelengths
Number of Pixels in Spectrum: 3648
>>>>>Begin Spectral Data<<<<<
179.494	620.03
179.716	784.04
179.937	1385.38
180.158	1182.59
180.38	556.41
180.601	-311.57
180.823	218.68
181.044	-955.04
181.265	130.47
181.486	85.26
181.708	-136.83
181.929	-3733.33
182.15	917.27
182.372	106.97
182.593	-23733.33
182.814	96.41
183.035	158.35
183.257	125.69
183.478	53.19
183.699	101.83
183.92	-13.22
184.141	25.61
184.363	-41.11
184.584	43.25
184.805	14.91
185.026	50.08
185.247	36.1
185.468	17.33
185.689	-18.61
185.91	-2.21
186.132	-25.75
186.353	-14.32
186.574	29.92
186.795	38.74
187.016	-23.07
187.237	-4.03
187.458	-21.83
187.679	-36.25
187.9	12.66
188.121	50.85
188.342	52.5
188.563	70.05
188.784	69.55
189.005	85.53
189.226	78.33
189.447	63.17
189.667	55.84
189.888	19.18
190.109	-4.74
190.33	-28.8
190.551	-48.95
190.772	-52.53
190.993	-60.85
191.214	-62.79
191.434	-45.91
191.655	-4.6
191.876	-37.37
192.097	-16.3
192.318	-2.27
192.538	-9.93
192.759	-11.63
192.98	-6.33
193.201	1.53
193.421	-34.07
193.642	-7.5
193.863	-8.04
194.083	-8.93
194.304	-13.73
194.525	10.26
194.745	0.38
194.966	-28.2
195.187	-38.33
195.407	-52.75
195.628	-99.72
195.848	-106.86
196.069	-123.94
196.29	-101.75
196.51	-128.24
196.731	-125.89
196.951	-85.06
197.172	-76.86
197.392	-69.41
197.613	-35.63
197.833	-29.13
198.054	-60.53
198.274	-43.99
198.495	-100.37
198.715	-48.31
198.936	-76.56
199.156	-41.81
199.377	-48.74
199.597	-35.15
199.817	-56.91
200.038	-15.17
200.258	3.12
200.479	33.9
200.699	42.79
200.919	35.68
201.14	2.18
201.36	-9.69
201.58	-8.64
201.801	-0.88
202.021	-22.16
202.241	3.07
202.461	-10.54
202.682	-42.16
202.902	-25.58
203.122	-8.91
203.342	7.22
203.563	32.37
203.783	67.24
204.003	-8.95
204.223	-84.48
204.443	-19.05
204.663	-45.77
204.884	-64.15
205.104	-23.33
205.324	40.93
205.544	13.37
205.764	19.03
205.984	37.19
206.204	65.25
206.424	54.57
206.644	48.7
206.864	58.14
207.084	67.95
207.304	47.43
207.525	-15.82
207.745	-2.66
207.964	-33.01
208.184	-44.69
208.404	-29.79
208.624	-3.44
208.844	-6.45
209.064	-33.32
209.284	-29.57
209.504	-31.28
209.724	-17.25
209.944	-12.29
210.164	20.32
210.384	40.09
210.604	48.37
210.823	0.14
211.043	-44.74
211.263	-60.24
211.483	-92.31
211.703	-94.53
211.922	-59.42
212.142	2.49
212.362	25.43
212.582	17.5
212.801	13.15
213.021	-8.86
213.241	-18.17
213.461	-41.23
213.68	-55.59
213.9	-50.54
214.12	-42.46
214.339	-53.62
214.559	-64.18
214.779	-14.86
214.998	5.06
215.218	-7.68
215.438	-11.33
215.657	3.71
215.877	-13.04
216.096	-20.16
216.316	12.01
216.535	5.9
216.755	9.2
216.974	4.98
217.194	6.27
217.413	-8.89
217.633	-0.82
217.852	-42.09
218.072	-50.65
218.291	-63.22
218.511	-45.54
218.73	-98.17
218.95	-87.8
219.169	-80.02
219.389	-102.1
219.608	-102.9
219.827	-29.13
220.047	4.2
220.266	3.18
220.485	3.5
220.705	3.4
220.924	-47.26
221.143	-48.5
221.363	-90.57
221.582	-42.05
221.801	-36.75
222.021	-1.07
222.24	4.49
222.459	40.95
222.678	24.46
222.897	9.87
223.117	3
223.336	-5.04
223.555	12.04
223.774	35.98
223.993	54.28
224.213	72.49
224.432	48.57
224.651	63.25
224.87	50.18
225.089	68.95
225.308	55.65
225.527	79.66
225.746	67.83
225.965	40.57
226.184	8.81
226.404	13.07
226.623	-0.58
226.842	-0.32
227.061	35.79
227.28	46.56
227.499	64.68
227.718	86.87
227.936	74.5
228.155	62.32
228.374	28.06
228.593	9.05
228.812	-3.54
229.031	5.08
229.25	-12.79
229.469	26.37
229.688	24.27
229.907	25.05
230.125	42.06
230.344	52.67
230.563	51.95
230.782	81.66
231.001	47.74
231.22	54.15
231.438	60.36
231.657	28.15
231.876	5.92
232.095	24.62
232.313	16.95
232.532	15.52
232.751	15.11
232.969	19.46
233.188	10.7
233.407	-6.13
233.625	-16.47
233.844	-6.28
234.063	-25.6
234.281	36.35
234.5	58.26
234.719	72.71
234.937	72.56
235.156	66.45
235.374	52.99
235.593	63.45
235.811	58.86
236.03	62.35
236.249	57.6
236.467	73.41
236.686	39.63
236.904	49.91
237.123	-3.44
237.341	0.64
237.559	-36.78
237.778	-27.38
237.996	-45.34
238.215	-11.07
238.433	-4.99
238.652	12.24
238.87	-24.1
239.088	-12.87
239.307	-15.79
239.525	-19
239.743	-48.44
239.962	-8.94
240.18	-30.18
240.398	-69.26
240.617	-86.45
240.835	-46.1
241.053	-98.71
241.271	-59.16
241.49	-1.47
241.708	-16.66
241.926	-42.43
242.144	-0.23
242.363	-19.53
242.581	-27.42
242.799	5.98
243.017	21.16
243.235	-9.55
243.453	28.03
243.672	-0.33
243.89	1.19
244.108	19.47
244.326	42.08
244.544	30.77
244.762	24.8
244.98	28.36
245.198	26.34
245.416	7.52
245.634	4.83
245.852	24.6
246.07	30.68
246.288	10.88
246.506	15
246.724	29.28
246.942	29.01
247.16	33.17
247.378	42.17
247.596	48.55
247.814	43.9
248.032	12.39
248.25	0.98
248.468	-0.52
248.685	16.95
248.903	9.83
249.121	23.29
249.339	-3.75
249.557	-18.85
249.775	-33.95
249.992	-69.73
250.21	-73.39
250.428	-33.04
250.646	-18.64
250.863	-17.68
251.081	-2.75
251.299	15.1
251.517	6.84
251.734	-6.19
251.952	-22.43
252.17	3.46
252.387	18.93
252.605	5
252.823	10.41
253.04	30.14
253.258	27.01
253.475	25.17
253.693	57.72
253.911	86.43
254.128	67.42
254.346	60.31
254.563	46.33
254.781	20.98
254.998	6.41
255.216	3.51
255.433	3.21
255.651	22.45
255.868	31.47
256.086	38.37
256.303	38.96
256.521	28.13
256.738	10.54
256.956	-3.64
257.173	-2.85
257.39	-5.12
257.608	11.75
257.825	31
258.043	51.43
258.26	39.16
258.477	41.85
258.695	40.98
258.912	5.34
259.129	-9.4
259.346	-35.83
259.564	-49.15
259.781	-37.64
259.998	-28.16
260.216	8.73
260.433	36.99
260.65	45.38
260.867	48.63
261.084	46.51
261.302	27.27
261.519	23.03
261.736	8.27
261.953	4.49
262.17	11.56
262.387	8.79
262.604	12.6
262.822	19.04
263.039	5.61
263.256	-13.18
263.473	3.38
263.69	-36.09
263.907	-16.83
264.124	2.48
264.341	33.55
264.558	2.7
264.775	29.73
264.992	34.74
265.209	37.32
265.426	31.33
265.643	46.6
265.86	42.56
266.077	41.73
266.294	44.6
266.51	37.65
266.727	23.33
266.944	44.32
267.161	24.69
267.378	16.68
267.595	20.88
267.812	-8.87
268.028	-20.11
268.245	-9.1
268.462	-13.68
268.679	-15.63
268.896	32.54
269.112	15.48
269.329	21.36
269.546	44.21
269.763	44.68
269.979	35.1
270.196	23
270.413	10.35
270.629	-13.3
270.846	-18.71
271.063	8.64
271.279	12.59
271.496	-16.13
271.712	-21.4
271.929	-21.61
272.146	-32
272.362	-27.72
272.579	24.46
272.795	25.54
273.012	24.84
273.228	17.93
273.445	5.49
273.661	-40.21
273.878	-82.6
274.094	-71.3
274.311	-72.92
274.527	-46.98
274.744	-13.08
274.96	31.74
275.177	27.94
275.393	32.79
275.609	42.96
275.826	45.4
276.042	40.89
276.259	52.51
276.475	32.48
276.691	23.34
276.908	19.97
277.124	49.92
277.34	37.77
277.557	51.77
277.773	51.91
277.989	48.48
278.205	24.27
278.422	32.5
278.638	36.2
278.854	30.9
279.07	32.27
279.286	12.5
279.503	-5.15
279.719	-9.48
279.935	-20.91
280.151	-26.59
280.367	-3.3
280.583	7.86
280.799	11.74
281.016	21.59
281.232	24.63
281.448	31.04
281.664	39.48
281.88	27.07
282.096	31.31
282.312	40.38
282.528	44.67
282.744	40.25
282.96	48.54
283.176	47.08
283.392	26.69
283.608	17
283.824	7.73
284.04	6.1
284.256	21.93
284.471	28.41
284.687	23
284.903	25.23
285.119	39.31
285.335	5.14
285.551	23.67
285.767	22.73
285.982	10.86
286.198	0.12
286.414	32.43
286.63	22.8
286.846	23.29
287.061	4.23
287.277	9.01
287.493	-0.18
287.709	0.54
287.924	-7.2
288.14	29.84
288.356	36.38
288.571	50.67
288.787	45.56
289.003	59.81
289.218	47.48
289.434	-2.86
289.65	6.31
289.865	11.4
290.081	16.92
290.296	20.85
290.512	31.48
290.727	27.79
290.943	12.46
291.159	-5.63
291.374	-7.53
291.59	-27.69
291.805	-35.08
292.021	-10.69
292.236	-17.04
292.451	-16.36
292.667	8.81
292.882	13.7
293.098	22.29
293.313	25.32
293.529	19.63
293.744	-7.95
293.959	-25.87
294.175	-17.93
294.39	12.24
294.605	30.91
294.821	53.28
295.036	44.62
295.251	40.38
295.467	29.8
295.682	22.36
295.897	5.08
296.112	7.61
296.328	11.47
296.543	-1.52
296.758	-15.7
296.973	10.48
297.188	27.91
297.404	3.84
297.619	12.41
297.834	17.87
298.049	7.41
298.264	-11.49
298.479	21.09
298.694	21.96
298.909	37.52
299.125	40.9
299.34	60.76
299.555	42.99
299.77	40.68
299.985	-3.91
300.2	-30.34
300.415	-59.32
300.63	-42.54
300.845	-35.9
301.06	-44.92
301.275	-29.94
301.49	-30.01
301.704	-39.44
301.919	-78.57
302.134	-53.72
302.349	-14.95
302.564	-22.09
302.779	-15.34
302.994	45.24
303.209	43.48
303.423	32.44
303.638	47.7
303.853	22.79
304.068	-44.96
304.283	-35.97
304.497	-32.78
304.712	-18.4
304.927	4.19
305.142	9.81
305.356	20.62
305.571	28.03
305.786	12.8
306	4.77
306.215	25.05
306.43	-1.32
306.644	21.96
306.859	28.44
307.074	14.47
307.288	-23.76
307.503	-17.7
307.717	-40.64
307.932	-39.45
308.147	-41.36
308.361	-1.7
308.576	-6
308.79	-46.33
309.005	-29.97
309.219	-14.61
309.434	-24.83
309.648	-44.2
309.863	-11.92
310.077	-21.22
310.292	-15.54
310.506	-5.7
310.72	44.26
310.935	54.89
311.149	56.81
311.364	56.45
311.578	46.94
311.792	35.67
312.007	27.73
312.221	-0.54
312.435	13.63
312.649	-1.39
312.864	16.06
313.078	16.61
313.292	64.64
313.507	51.93
313.721	59.29
313.935	46.98
314.149	56.82
314.363	32.57
314.578	15.49
314.792	5.36
315.006	20.46
315.22	14.38
315.434	9.01
315.648	12.72
315.862	7.51
316.077	6.97
316.291	3.63
316.505	11.33
316.719	21.21
316.933	-1.85
317.147	8.86
317.361	-20.9
317.575	-11.38
317.789	-17.02
318.003	-9.58
318.217	-9.32
318.431	17.79
318.645	21.33
318.859	20.83
319.073	41.01
319.287	27.83
319.5	7.56
319.714	-20.74
319.928	-27.56
320.142	-40.16
320.356	-9.91
320.57	10.21
320.784	9.56
320.997	18.76
321.211	16.55
321.425	-11.44
321.639	-46.64
321.853	-27.18
322.066	-29.31
322.28	-40.19
322.494	-12.59
322.707	41.54
322.921	28.15
323.135	39.9
323.349	51.09
323.562	31.85
323.776	-3.5
323.989	-2.22
324.203	-22.62
324.417	-17.06
324.63	-36.01
324.844	-45.13
325.057	-35.67
325.271	-40.07
325.485	-53.15
325.698	-12.58
325.912	12.34
326.125	-4.91
326.339	19.05
326.552	29.56
326.766	33.22
326.979	33.26
327.193	58.41
327.406	40.9
327.619	43.67
327.833	43.68
328.046	31.15
328.26	18.41
328.473	19.08
328.686	-1.32
328.9	4.14
329.113	9.82
329.326	-5.76
329.54	9.91
329.753	5.85
329.966	-2.46
330.179	26.01
330.393	48.47
330.606	35.36
330.819	54.03
331.032	62.1
331.246	50.07
331.459	53.35
331.672	45.81
331.885	26.61
332.098	-8.08
332.311	0.92
332.525	-18.26
332.738	-1.74
332.951	19.56
333.164	36.01
333.377	40.07
333.59	66.07
333.803	47.7
334.016	34.03
334.229	27.01
334.442	26.93
334.655	26.8
334.868	40.5
335.081	35.54
335.294	35.81
335.507	49.04
335.72	45.8
335.933	31.95
336.146	36.31
336.359	43.57
336.572	11.57
336.785	-9.75
336.997	-1.74
337.21	13.86
337.423	9.37
337.636	15.65
337.849	23.58
338.062	22.18
338.274	19.82
338.487	14.01
338.7	15.99
338.913	8.82
339.125	-0.79
339.338	4.99
339.551	10.41
339.763	20.5
339.976	31.62
340.189	46.49
340.402	32.94
340.614	35.57
340.827	26.22
341.039	4.41
341.252	-20.32
341.465	-19.98
341.677	-45.28
341.89	-71.21
342.102	-35.36
342.315	-22
342.527	-15.82
342.74	1.56
342.952	35.42
343.165	24.98
343.377	34.69
343.59	18.49
343.802	40.58
344.015	38.74
344.227	44.43
344.44	29.2
344.652	32.27
344.864	14.57
345.077	3.54
345.289	1.8
345.502	17.33
345.714	9.61
345.926	5.63
346.139	9.84
346.351	8.05
346.563	-3.24
346.775	11.97
346.988	7.7
347.2	-10.74
347.412	-22.08
347.624	-10.62
347.837	-11.15
348.049	7.93
348.261	25.77
348.473	23.59
348.685	-1.34
348.897	-9.12
349.11	-24.51
349.322	-36.68
349.534	0.09
349.746	26.2
349.958	35.57
350.17	37.76
350.382	46
350.594	34.75
350.806	30.25
351.018	14.76
351.23	18.92
351.442	13.28
351.654	22.44
351.866	20.32
352.078	36.47
352.29	27.06
352.502	45.95
352.714	47.23
352.926	45.61
353.138	32.49
353.35	19.51
353.561	-0.75
353.773	-16.16
353.985	-10.15
354.197	1.25
354.409	6.34
354.621	20.6
354.832	30.08
355.044	21.25
355.256	14.59
355.468	26.03
355.679	8.75
355.891	12.35
356.103	7.62
356.314	10.3
356.526	16.34
356.738	46.1
356.949	38.08
357.161	40.65
357.373	34.83
357.584	31.93
357.796	14.77
358.008	-0.42
358.219	18.07
358.431	26.95
358.642	24.15
358.854	33.12
359.065	46.68
359.277	28.19
359.488	14.15
359.7	-0.31
359.911	-13.91
360.123	-7.61
360.334	-9.13
360.546	-10.39
360.757	-4.61
360.969	5.16
361.18	0.84
361.391	-3.71
361.603	3.86
361.814	23.25
362.025	-0.18
362.237	-2.62
362.448	7.69
362.659	12.81
362.871	0.39
363.082	12.35
363.293	25.96
363.504	27.59
363.716	24.36
363.927	37.97
364.138	27.01
364.349	0.5
364.56	-9.4
364.772	-22.85
364.983	-21.15
365.194	-32.87
365.405	-23.09
365.616	-27.3
365.827	-17.21
366.038	-18.16
366.25	12.38
366.461	-7.4
366.672	25.72
366.883	36.97
367.094	30.6
367.305	5.04
367.516	34.15
367.727	8.61
367.938	-7.88
368.149	-9.45
368.36	10.57
368.571	2.6
368.781	0.34
368.992	-9.39
369.203	5.42
369.414	-6.01
369.625	-9.21
369.836	-6.82
370.047	-11.36
370.258	-11.71
370.468	-22.62
370.679	-54.68
370.89	-46.81
371.101	-16.64
371.312	-42.87
371.522	-27.82
371.733	-0.77
371.944	9.12
372.155	13.52
372.365	1.96
372.576	11.84
372.787	5.81
372.997	-1.42
373.208	-10.58
373.419	9.95
373.629	-12.04
373.84	-6.03
374.05	-29.33
374.261	-9.76
374.472	-23.99
374.682	-3.15
374.893	-7.41
375.103	26.79
375.314	18.06
375.524	29.74
375.735	40.24
375.945	42.8
376.156	16.6
376.366	26.33
376.577	24.99
376.787	18.07
376.997	28.6
377.208	37.77
377.418	13.31
377.629	25.53
377.839	12.03
378.049	2.26
378.26	9.92
378.47	28.01
378.68	21.21
378.89	29.53
379.101	38.94
379.311	22.09
379.521	1.07
379.732	-2.03
379.942	-26.43
380.152	-28.17
380.362	-14.38
380.572	-3.22
380.783	8.07
380.993	25.82
381.203	27.88
381.413	22.86
381.623	21.92
381.833	15.96
382.043	-2.39
382.253	-0.98
382.463	5.96
382.674	5.64
382.884	-5.93
383.094	4.94
383.304	0.12
383.514	0.12
383.724	6.36
383.934	-0.16
384.144	-4.58
384.353	6.22
384.563	11.31
384.773	10.21
384.983	23.22
385.193	26.87
385.403	10.53
385.613	8.84
385.823	7.99
386.033	10.32
386.242	10.12
386.452	21.2
386.662	15.92
386.872	16.84
387.082	13.05
387.291	2.26
387.501	1.37
387.711	4.25
387.921	-6.68
388.13	-2.39
388.34	11.23
388.55	6.57
388.759	4.99
388.969	15.26
389.179	12.1
389.388	9.17
389.598	8.36
389.807	7.34
390.017	7.25
390.227	6.81
390.436	4.11
390.646	11.64
390.855	13.33
391.065	14.28
391.274	11.49
391.484	9.66
391.693	7.68
391.903	9.45
392.112	9.7
392.322	13.82
392.531	18.92
392.74	18.2
392.95	14.03
393.159	11.94
393.369	13.4
393.578	11.27
393.787	9.8
393.997	12.54
394.206	13.1
394.415	11.87
394.625	10.89
394.834	10.05
395.043	9.59
395.252	10.01
395.462	10.82
395.671	11.91
395.88	13.71
396.089	13.8
396.298	13.66
396.508	12.64
396.717	12.93
396.926	12.38
397.135	12.7
397.344	12.39
397.553	12.97
397.762	13.34
397.971	13.23
398.181	13.11
398.39	12.39
398.599	11.8
398.808	11.15
399.017	11.57
399.226	11.47
399.435	12.33
399.644	12.51
399.853	12.23
400.062	11.74
400.27	11.82
400.479	11.51
400.688	11.11
400.897	11.65
401.106	11.65
401.315	11.23
401.524	11.09
401.733	11.36
401.941	11.4
402.15	11.47
402.359	11.58
402.568	11.74
402.777	11.49
402.985	11.31
403.194	11.35
403.403	11.36
403.612	11.09
403.82	11.12
404.029	11.12
404.238	10.72
404.446	10.8
404.655	10.66
404.864	10.8
405.072	10.59
405.281	10.76
405.489	10.41
405.698	10.6
405.906	10.5
406.115	10.4
406.324	10.23
406.532	10.35
406.741	10.37
406.949	10.14
407.158	10.19
407.366	10.33
407.574	10.34
407.783	10.18
407.991	10.27
408.2	10.15
408.408	9.96
408.617	9.79
408.825	9.64
409.033	9.71
409.242	9.91
409.45	9.89
409.658	9.84
409.867	9.99
410.075	9.74
410.283	9.53
410.491	9.56
410.7	9.36
410.908	9.37
411.116	9.37
411.324	9.29
411.533	9.31
411.741	9.49
411.949	9.4
412.157	9.34
412.365	9.42
412.573	9.33
412.781	9.33
412.99	9.18
413.198	9.38
413.406	9.31
413.614	9.3
413.822	9.29
414.03	9.23
414.238	8.95
414.446	9.04
414.654	8.84
414.862	8.83
415.07	8.82
415.278	8.99
415.486	8.62
415.694	8.75
415.902	8.64
416.109	8.5
416.317	8.56
416.525	8.47
416.733	8.56
416.941	8.64
417.149	8.8
417.357	8.74
417.564	8.97
417.772	8.72
417.98	8.66
418.188	8.55
418.395	8.45
418.603	8.57
418.811	8.45
419.019	8.26
419.226	8.51
419.434	8.52
419.642	8.26
419.849	8.46
420.057	8.64
420.265	8.44
420.472	8.23
420.68	8.44
420.887	8.28
421.095	8.27
421.302	8.23
421.51	8.36
421.717	8.38
421.925	8.53
422.132	8.48
422.34	8.33
422.547	8.15
422.755	7.98
422.962	7.98
423.17	7.99
423.377	8.16
423.585	8.42
423.792	8.44
423.999	8.46
424.207	8.32
424.414	8.24
424.621	8.16
424.829	8.1
425.036	8.05
425.243	8.1
425.451	7.96
425.658	7.84
425.865	7.87
426.072	7.89
426.28	7.88
426.487	7.94
426.694	8.01
426.901	7.99
427.108	7.8
427.315	7.81
427.523	8.07
427.73	8.24
427.937	8.04
428.144	8.08
428.351	8.06
428.558	7.88
428.765	7.74
428.972	7.78
429.179	7.82
429.386	8.1
429.593	8.12
429.8	7.95
430.007	8.1
430.214	8.09
430.421	7.91
430.628	7.82
430.835	7.83
431.042	7.99
431.249	8.05
431.456	8.3
431.662	8.59
431.869	8.63
432.076	8.54
432.283	8.56
432.49	8.14
432.697	7.96
432.903	7.84
433.11	7.87
433.317	7.86
433.524	8.1
433.73	8.07
433.937	8.39
434.144	8.3
434.35	8.28
434.557	8.17
434.764	8.2
434.97	8.05
435.177	8.03
435.384	7.8
435.59	7.92
435.797	8.02
436.003	8.02
436.21	8.06
436.416	8.27
436.623	8.16
436.829	8.1
437.036	8.06
437.242	7.9
437.449	7.8
437.655	7.78
437.862	7.8
438.068	7.86
438.275	8.04
438.481	8.27
438.687	8.28
438.894	8.24
439.1	8.27
439.307	8.24
439.513	8.11
439.719	8.22
439.926	8.19
440.132	8.19
440.338	8.14
440.544	8.18
440.751	8.14
440.957	8.29
441.163	8.05
441.369	8.08
441.575	7.95
441.782	7.88
441.988	7.68
442.194	7.84
442.4	7.94
442.606	8.07
442.812	8.15
443.018	8.14
443.224	8.25
443.431	8.21
443.637	8.23
443.843	8.09
444.049	8.27
444.255	8.17
444.461	8.23
444.667	8.11
444.873	8.26
445.079	8.28
445.284	8.3
445.49	8.13
445.696	8.02
445.902	8.01
446.108	7.95
446.314	7.85
446.52	7.95
446.726	8.23
446.931	8.12
447.137	8.13
447.343	8.27
447.549	8.18
447.755	8.1
447.96	8.29
448.166	8.2
448.372	8.27
448.578	8.29
448.783	8.26
448.989	8.22
449.195	8.44
449.4	8.3
449.606	8.32
449.812	8.32
450.017	8.42
450.223	8.36
450.428	8.26
450.634	8.4
450.84	8.45
451.045	8.32
451.251	8.24
451.456	8.52
451.662	8.43
451.867	8.5
452.073	8.5
452.278	8.61
452.483	8.63
452.689	8.72
452.894	8.8
453.1	8.86
453.305	8.74
453.51	8.74
453.716	8.58
453.921	8.65
454.127	8.69
454.332	8.74
454.537	8.66
454.742	8.79
454.948	8.76
455.153	8.75
455.358	8.89
455.563	8.97
455.769	8.99
455.974	8.83
456.179	8.74
456.384	8.61
456.589	8.57
456.795	8.43
457	8.47
457.205	8.59
457.41	8.52
457.615	8.57
457.82	8.78
458.025	8.93
458.23	8.86
458.435	9.02
458.64	8.8
458.845	8.77
459.05	8.64
459.255	8.6
459.46	8.63
459.665	8.88
459.87	8.92
460.075	8.84
460.28	9
460.485	9.07
460.69	9.06
460.895	8.87
461.099	8.93
461.304	9
461.509	9.04
461.714	8.92
461.919	9.21
462.123	9.19
462.328	9.25
462.533	9.01
462.738	9.17
462.942	9.05
463.147	9.34
463.352	9.27
463.556	9.45
463.761	9.41
463.966	9.49
464.17	9.53
464.375	9.52
464.58	9.51
464.784	9.47
464.989	9.33
465.193	9.23
465.398	9.21
465.602	9.44
465.807	9.47
466.011	9.67
466.216	9.69
466.42	9.78
466.625	9.67
466.829	9.85
467.034	9.92
467.238	10.02
467.443	10.09
467.647	9.94
467.851	9.92
468.056	9.91
468.26	9.83
468.464	9.74
468.669	9.9
468.873	9.91
469.077	9.97
469.282	10.04
469.486	10.19
469.69	10.22
469.894	10.28
470.099	10.31
470.303	10.38
470.507	10.22
470.711	10.17
470.915	10.14
471.119	10.13
471.324	10.07
471.528	10.17
471.732	10.33
471.936	10.38
472.14	10.47
472.344	10.54
472.548	10.62
472.752	10.62
472.956	10.69
473.16	10.58
473.364	10.54
473.568	10.59
473.772	10.56
473.976	10.61
474.18	10.69
474.384	10.71
474.588	10.64
474.792	10.61
474.995	10.54
475.199	10.59
475.403	10.72
475.607	10.74
475.811	10.84
476.015	10.91
476.218	10.91
476.422	10.76
476.626	10.85
476.83	10.97
477.033	10.92
477.237	10.81
477.441	10.96
477.644	10.84
477.848	10.78
478.052	10.8
478.255	10.89
478.459	10.9
478.663	11.12
478.866	11.19
479.07	11.25
479.273	11.39
479.477	11.39
479.681	11.31
479.884	11.25
480.088	11.17
480.291	11.15
480.495	11.12
480.698	11.08
480.901	11.2
481.105	11.36
481.308	11.3
481.512	11.28
481.715	11.37
481.919	11.37
482.122	11.31
482.325	11.39
482.529	11.47
482.732	11.45
482.935	11.41
483.138	11.39
483.342	11.47
483.545	11.61
483.748	11.73
483.952	11.74
484.155	11.91
484.358	11.92
484.561	11.73
484.764	11.8
484.967	11.84
485.171	11.8
485.374	11.7
485.577	11.85
485.78	11.73
485.983	11.83
486.186	11.84
486.389	11.94
486.592	11.95
486.795	12.02
486.998	11.9
487.201	11.94
487.404	11.94
487.607	12.01
487.81	12.08
488.013	12.26
488.216	12.32
488.419	12.38
488.622	12.23
488.825	12.2
489.028	12.12
489.231	12.08
489.433	11.92
489.636	12.04
489.839	12.01
490.042	12.02
490.245	12.02
490.447	12.22
490.65	12.21
490.853	12.39
491.056	12.48
491.258	12.49
491.461	12.48
491.664	12.55
491.866	12.37
492.069	12.41
492.272	12.48
492.474	12.57
492.677	12.57
492.879	12.8
493.082	12.92
493.285	13.06
493.487	12.94
493.69	12.9
493.892	12.76
494.095	12.73
494.297	12.67
494.5	12.96
494.702	13.13
494.905	13.31
495.107	13.34
495.309	13.39
495.512	13.32
495.714	13.45
495.917	13.47
496.119	13.57
496.321	13.68
496.524	13.83
496.726	13.87
496.928	14
497.13	13.99
497.333	13.99
497.535	14.01
497.737	13.94
497.939	13.85
498.142	14.01
498.344	13.96
498.546	13.84
498.748	13.94
498.95	14.05
499.152	13.95
499.355	14.17
499.557	14.35
499.759	14.54
499.961	14.59
500.163	14.77
500.365	14.74
500.567	14.79
500.769	14.63
500.971	14.8
501.173	14.72
501.375	14.83
501.577	14.8
501.779	14.98
501.981	14.94
502.183	15.08
502.385	15.08
502.587	15.17
502.788	15.28
502.99	15.4
503.192	15.43
503.394	15.47
503.596	15.45
503.798	15.56
503.999	15.6
504.201	15.68
504.403	15.83
504.605	15.97
504.806	15.9
505.008	15.85
505.21	15.93
505.411	16.01
505.613	16.03
505.815	16.21
506.016	16.4
506.218	16.47
506.42	16.42
506.621	16.57
506.823	16.65
507.024	16.64
507.226	16.77
507.427	16.86
507.629	16.89
507.83	16.8
508.032	16.86
508.233	16.9
508.435	17.01
508.636	17.12
508.838	17.19
509.039	17.27
509.24	17.27
509.442	17.36
509.643	17.27
509.845	17.41
510.046	17.44
510.247	17.46
510.448	17.48
510.65	17.7
510.851	17.83
511.052	17.93
511.254	17.94
511.455	18.04
511.656	18.02
511.857	18.01
512.058	18.04
512.26	18.19
512.461	18.17
512.662	18.32
512.863	18.22
513.064	18.2
513.265	18.32
513.466	18.44
513.667	18.4
513.868	18.67
514.069	18.9
514.27	18.94
514.471	18.95
514.672	19.07
514.873	19.05
515.074	19.02
515.275	18.91
515.476	18.95
515.677	19.01
515.878	19.13
516.079	19.15
516.28	19.32
516.481	19.53
516.682	19.51
516.882	19.44
517.083	19.56
517.284	19.52
517.485	19.46
517.686	19.51
517.886	19.49
518.087	19.57
518.288	19.81
518.488	19.77
518.689	19.82
518.89	19.87
519.091	19.83
519.291	19.68
519.492	19.73
519.692	19.78
519.893	19.94
520.094	19.97
520.294	19.96
520.495	19.93
520.695	19.96
520.896	19.94
521.096	19.98
521.297	20.15
521.497	20.27
521.698	20.29
521.898	20.24
522.099	20.24
522.299	20.32
522.499	20.35
522.7	20.41
522.9	20.53
523.101	20.64
523.301	20.54
523.501	20.54
523.702	20.57
523.902	20.63
524.102	20.71
524.302	20.8
524.503	20.89
524.703	20.94
524.903	20.84
525.103	20.78
525.304	20.78
525.504	20.84
525.704	20.81
525.904	20.85
526.104	20.86
526.304	20.9
526.504	20.92
526.705	20.98
526.905	21.15
527.105	21.22
527.305	21.26
527.505	21.22
527.705	21.18
527.905	21.06
528.105	21.01
528.305	20.99
528.505	20.99
528.705	21.19
528.905	21.24
529.105	21.32
529.304	21.43
529.504	21.6
529.704	21.52
529.904	21.55
530.104	21.61
530.304	21.71
530.503	21.7
530.703	21.67
530.903	21.76
531.103	21.77
531.303	21.59
531.502	21.56
531.702	21.65
531.902	21.63
532.101	21.52
532.301	21.61
532.501	21.65
532.7	21.7
532.9	21.7
533.1	21.81
533.299	21.87
533.499	21.92
533.698	21.82
533.898	21.87
534.097	21.89
534.297	21.9
534.496	21.87
534.696	22.02
534.895	22.12
535.095	22.22
535.294	22.3
535.494	22.35
535.693	22.31
535.892	22.37
536.092	22.32
536.291	22.33
536.491	22.28
536.69	22.41
536.889	22.27
537.088	22.28
537.288	22.37
537.487	22.51
537.686	22.46
537.886	22.6
538.085	22.71
538.284	22.67
538.483	22.66
538.682	22.74
538.882	22.78
539.081	22.83
539.28	22.82
539.479	22.82
539.678	22.83
539.877	22.9
540.076	23
540.275	23.12
540.474	23.22
540.673	23.28
540.872	23.32
541.071	23.28
541.27	23.29
541.469	23.34
541.668	23.4
541.867	23.41
542.066	23.48
542.265	23.63
542.464	23.63
542.663	23.76
542.862	24.01
543.06	24.05
543.259	23.98
543.458	24.03
543.657	23.91
543.856	23.84
544.054	23.87
544.253	23.92
544.452	23.95
544.651	24
544.849	23.93
545.048	24.01
545.247	24.03
545.445	24.19
545.644	24.34
545.843	24.37
546.041	24.35
546.24	24.49
546.438	24.48
546.637	24.48
546.836	24.65
547.034	24.82
547.233	24.86
547.431	24.9
547.63	24.97
547.828	24.95
548.027	25
548.225	24.96
548.423	25.03
548.622	25.13
548.82	25.23
549.019	25.24
549.217	25.43
549.415	25.47
549.614	25.48
549.812	25.56
550.01	25.6
550.209	25.66
550.407	25.79
550.605	25.86
550.803	25.94
551.002	26
551.2	26.01
551.398	26.1
551.596	26.16
551.794	26.21
551.993	26.38
552.191	26.39
552.389	26.33
552.587	26.43
552.785	26.54
552.983	26.59
553.181	26.81
553.379	27.05
553.577	27.09
553.775	27.13
553.973	27.18
554.171	27.31
554.369	27.27
554.567	27.33
554.765	27.44
554.963	27.52
555.161	27.44
555.359	27.61
555.557	27.73
555.755	27.83
555.952	27.96
556.15	28.07
556.348	28.13
556.546	28.21
556.744	28.22
556.941	28.22
557.139	28.31
557.337	28.35
557.535	28.44
557.732	28.65
557.93	28.83
558.128	28.99
558.325	29.11
558.523	29.14
558.721	29.1
558.918	28.97
559.116	28.91
559.313	28.86
559.511	29.03
559.708	29.14
559.906	29.36
560.104	29.57
560.301	29.93
560.498	30.01
560.696	30.04
560.893	30.18
561.091	30.31
561.288	30.18
561.486	30.25
561.683	30.43
561.88	30.47
562.078	30.48
562.275	30.54
562.473	30.7
562.67	30.81
562.867	30.87
563.064	31.04
563.262	31.16
563.459	31.29
563.656	31.36
563.853	31.41
564.051	31.36
564.248	31.52
564.445	31.53
564.642	31.65
564.839	31.81
565.036	32.06
565.234	32.14
565.431	32.18
565.628	32.22
565.825	32.31
566.022	32.28
566.219	32.34
566.416	32.34
566.613	32.38
566.81	32.4
567.007	32.43
567.204	32.3
567.401	32.31
567.598	32.41
567.795	32.33
567.991	32.37
568.188	32.58
568.385	32.72
568.582	32.77
568.779	32.95
568.976	33.02
569.172	33.18
569.369	33.18
569.566	33.24
569.763	33.27
569.96	33.36
570.156	33.17
570.353	33.14
570.55	33.07
570.746	33.13
570.943	33.04
571.14	33.14
571.336	33.29
571.533	33.28
571.729	33.26
571.926	33.19
572.123	33.19
572.319	33.1
572.516	33.05
572.712	33.14
572.909	33.38
573.105	33.46
573.302	33.54
573.498	33.68
573.695	33.54
573.891	33.54
574.087	33.51
574.284	33.35
574.48	33.25
574.677	33.3
574.873	33.2
575.069	33.19
575.266	33.31
575.462	33.29
575.658	33.38
575.854	33.44
576.051	33.45
576.247	33.36
576.443	33.32
576.639	33.2
576.835	33.14
577.032	33.05
577.228	33.14
577.424	33.2
577.62	33.04
577.816	32.98
578.012	33.02
578.208	33
578.404	33.11
578.6	33.18
578.796	33.26
578.993	33.14
579.189	33.01
579.384	32.77
579.58	32.72
579.776	32.67
579.972	32.6
580.168	32.54
580.364	32.48
580.56	32.52
580.756	32.39
580.952	32.34
581.148	32.3
581.343	32.42
581.539	32.3
581.735	32.26
581.931	32.42
582.127	32.42
582.322	32.28
582.518	32.29
582.714	32.26
582.909	32.02
583.105	32.04
583.301	31.98
583.496	31.98
583.692	31.92
583.888	31.94
584.083	31.78
584.279	31.9
584.474	31.85
584.67	31.82
584.866	31.78
585.061	31.84
585.257	31.86
585.452	31.68
585.648	31.54
585.843	31.51
586.039	31.44
586.234	31.26
586.429	31.21
586.625	31.36
586.82	31.29
587.015	31.22
587.211	31.15
587.406	31.26
587.601	31.12
587.797	31.05
587.992	31.08
588.187	31.2
588.383	31.22
588.578	31.25
588.773	31.4
588.968	31.45
589.163	31.38
589.359	31.28
589.554	31.16
589.749	31.22
589.944	31.18
590.139	31.19
590.334	31.22
590.529	31.35
590.724	31.22
590.919	31.17
591.114	31.11
591.309	31.21
591.504	31.27
591.699	31.14
591.894	31.18
592.089	31.23
592.284	31.15
592.479	31.13
592.674	31.17
592.869	31.13
593.064	31.16
593.259	31.17
593.454	31.15
593.648	31.14
593.843	31.26
594.038	31.17
594.233	31.08
594.428	31.14
594.622	31.15
594.817	31.11
595.012	31.15
595.206	31.25
595.401	31.23
595.596	31.31
595.79	31.39
595.985	31.44
596.18	31.54
596.374	31.54
596.569	31.55
596.763	31.43
596.958	31.33
597.153	31.29
597.347	31.21
597.542	31.46
597.736	31.46
597.931	31.53
598.125	31.56
598.319	31.78
598.514	31.57
598.708	31.56
598.903	31.59
599.097	31.49
599.291	31.37
599.486	31.26
599.68	31.36
599.874	31.41
600.069	31.36
600.263	31.31
600.457	31.41
600.651	31.45
600.846	31.32
601.04	31.42
601.234	31.34
601.428	31.32
601.622	31.27
601.817	31.24
602.011	31.18
602.205	31.34
602.399	31.2
602.593	31.13
602.787	31.06
602.981	31.13
603.175	31
603.369	30.89
603.563	30.89
603.757	31.02
603.951	30.91
604.145	30.85
604.339	30.9
604.533	30.77
604.727	30.6
604.921	30.45
605.115	30.34
605.309	30.36
605.502	30.3
605.696	30.25
605.89	30.15
606.084	30.19
606.278	30.07
606.471	30.01
606.665	29.87
606.859	29.77
607.053	29.63
607.246	29.51
607.44	29.46
607.634	29.39
607.827	29.39
608.021	29.27
608.214	29.18
608.408	29.02
608.602	29.01
608.795	28.94
608.989	28.92
609.182	28.79
609.376	28.72
609.569	28.7
609.763	28.5
609.956	28.41
610.15	28.38
610.343	28.19
610.537	27.93
610.73	27.97
610.923	27.78
611.117	27.58
611.31	27.49
611.504	27.43
611.697	27.21
611.89	27.11
612.083	27.04
612.277	26.94
612.47	26.88
612.663	26.78
612.856	26.63
613.05	26.61
613.243	26.46
613.436	26.21
613.629	26.1
613.822	25.99
614.015	25.84
614.209	25.79
614.402	25.83
614.595	25.8
614.788	25.83
614.981	25.8
615.174	25.61
615.367	25.34
615.56	25.16
615.753	24.96
615.946	24.72
616.139	24.81
616.332	24.91
616.525	24.88
616.718	24.91
616.911	24.96
617.103	24.89
617.296	24.75
617.489	24.6
617.682	24.45
617.875	24.45
618.067	24.46
618.26	24.36
618.453	24.41
618.646	24.38
618.838	24.26
619.031	24.04
619.224	23.95
619.417	23.77
619.609	23.72
619.802	23.6
619.994	23.58
620.187	23.53
620.38	23.48
620.572	23.35
620.765	23.31
620.957	23.17
621.15	23.05
621.342	22.99
621.535	22.92
621.727	22.87
621.92	22.85
622.112	22.84
622.305	22.83
622.497	22.75
622.69	22.59
622.882	22.55
623.074	22.52
623.267	22.42
623.459	22.34
623.651	22.3
623.844	22.33
624.036	22.19
624.228	22.2
624.42	22.2
624.613	22.22
624.805	22.03
624.997	22.02
625.189	21.94
625.381	21.98
625.574	21.92
625.766	21.81
625.958	21.85
626.15	21.85
626.342	21.78
626.534	21.8
626.726	21.8
626.918	21.75
627.11	21.68
627.302	21.54
627.494	21.44
627.686	21.46
627.878	21.31
628.07	21.18
628.262	21.14
628.454	21.13
628.646	21.03
628.838	21.09
629.029	21.02
629.221	21.04
629.413	20.88
629.605	20.87
629.797	20.68
629.989	20.81
630.18	20.72
630.372	20.8
630.564	20.81
630.755	20.89
630.947	20.86
631.139	20.8
631.33	20.74
631.522	20.78
631.714	20.76
631.905	20.64
632.097	20.7
632.289	20.65
632.48	20.56
632.672	20.48
632.863	20.31
633.055	20.2
633.246	20.25
633.438	20.11
633.629	20.09
633.821	20.22
634.012	20.29
634.203	20.15
634.395	20.18
634.586	20.18
634.777	20.08
634.969	20
635.16	20.07
635.351	20.11
635.543	20.07
635.734	20.06
635.925	19.96
636.117	19.97
636.308	19.89
636.499	19.86
636.69	19.83
636.881	19.95
637.073	19.96
637.264	19.92
637.455	19.98
637.646	20.08
637.837	20.02
638.028	19.88
638.219	19.99
638.41	19.88
638.601	19.81
638.792	19.86
638.983	19.84
639.174	19.66
639.365	19.69
639.556	19.69
639.747	19.63
639.938	19.75
640.129	19.8
640.32	19.75
640.511	19.7
640.701	19.66
640.892	19.6
641.083	19.56
641.274	19.59
641.465	19.66
641.655	19.63
641.846	19.58
642.037	19.52
642.228	19.49
642.418	19.43
642.609	19.39
642.8	19.42
642.99	19.41
643.181	19.47
643.372	19.47
643.562	19.53
643.753	19.45
643.943	19.48
644.134	19.34
644.324	19.28
644.515	19.12
644.705	19.2
644.896	19.28
645.086	19.3
645.277	19.24
645.467	19.31
645.658	19.16
645.848	19.11
646.038	19.22
646.229	19.24
646.419	19.27
646.61	19.27
646.8	19.24
646.99	19.19
647.18	19.27
647.371	19.27
647.561	19.16
647.751	19.22
647.941	19.14
648.132	19.03
648.322	19.07
648.512	19.14
648.702	19.01
648.892	18.97
649.082	19.03
649.272	18.82
649.462	18.71
649.653	18.65
649.843	18.58
650.033	18.53
650.223	18.6
650.413	18.64
650.603	18.64
650.793	18.62
650.983	18.52
651.172	18.41
651.362	18.41
651.552	18.28
651.742	18.2
651.932	18.15
652.122	18.15
652.312	18.04
652.502	18.03
652.691	18.05
652.881	18
653.071	17.96
653.261	17.73
653.45	17.59
653.64	17.49
653.83	17.41
654.019	17.37
654.209	17.57
654.399	17.65
654.588	17.55
654.778	17.43
654.968	17.3
655.157	17.13
655.347	16.91
655.536	16.64
655.726	16.55
655.915	16.32
656.105	16.13
656.294	16
656.484	15.82
656.673	15.61
656.863	15.61
657.052	15.5
657.241	15.3
657.431	15.27
657.62	15.02
657.809	14.8
657.999	14.6
658.188	14.47
658.377	14.31
658.567	14.26
658.756	14.08
658.945	13.88
659.134	13.79
659.324	13.61
659.513	13.51
659.702	13.23
659.891	13.19
660.08	13
660.269	12.89
660.458	12.86
660.648	12.95
660.837	12.75
661.026	12.62
661.215	12.54
661.404	12.1
661.593	12.07
661.782	11.87
661.971	11.94
662.16	11.85
662.349	11.94
662.538	11.63
662.726	11.76
662.915	11.59
663.104	11.41
663.293	11.3
663.482	11.3
663.671	11.13
663.86	10.89
664.048	10.8
664.237	10.83
664.426	10.65
664.615	10.53
664.803	10.62
664.992	10.62
665.181	10.45
665.369	10.37
665.558	10.34
665.747	10.14
665.935	10.14
666.124	10.11
666.312	10.22
666.501	10.12
666.69	10.06
666.878	9.97
667.067	9.86
667.255	9.79
667.444	10
667.632	10.07
667.82	10.1
668.009	10.15
668.197	10.14
668.386	10.01
668.574	10.09
668.762	10.01
668.951	10
669.139	9.92
669.327	9.81
669.516	9.76
669.704	9.86
669.892	9.95
670.08	10.06
670.269	10.05
670.457	10.06
670.645	9.94
670.833	9.86
671.021	9.79
671.21	9.92
671.398	10
671.586	10
671.774	10.06
671.962	10.12
672.15	9.97
672.338	9.82
672.526	9.96
672.714	9.84
672.902	9.86
673.09	10.18
673.278	10.46
673.466	10.51
673.654	10.83
673.842	10.8
674.03	10.79
674.218	10.65
674.405	10.71
674.593	10.68
674.781	10.97
674.969	10.88
675.157	11.07
675.344	11.12
675.532	11.17
675.72	11.2
675.908	11.43
676.095	11.38
676.283	11.56
676.471	11.81
676.658	11.94
676.846	12
677.033	12.17
677.221	12.09
677.409	12.04
677.596	12.09
677.784	12.27
677.971	12.41
678.159	12.7
678.346	12.91
678.534	12.93
678.721	13.09
678.909	13.17
679.096	13.18
679.283	13.29
679.471	13.52
679.658	13.61
679.846	13.81
680.033	14.13
680.22	14.29
680.408	14.34
680.595	14.49
680.782	14.53
680.969	14.63
681.157	14.59
681.344	14.73
681.531	14.75
681.718	14.89
681.905	15
682.093	15.18
682.28	15.34
682.467	15.63
682.654	15.79
682.841	15.83
683.028	16.15
683.215	16.53
683.402	16.56
683.589	17.03
683.776	17.35
683.963	17.4
684.15	17.55
684.337	17.76
684.524	17.76
684.711	17.92
684.898	18.12
685.085	18.34
685.271	18.82
685.458	19.23
685.645	19.5
685.832	19.92
686.019	20.18
686.205	20.48
686.392	20.7
686.579	21.16
686.766	21.57
686.952	21.89
687.139	22.35
687.326	22.56
687.512	22.88
687.699	23.21
687.886	23.55
688.072	23.56
688.259	24.18
688.445	24.6
688.632	24.75
688.818	25.3
689.005	25.73
689.191	26.09
689.378	26.7
689.564	27.51
689.751	27.86
689.937	28.56
690.124	29.04
690.31	29.21
690.496	29.45
690.683	30.13
690.869	30.75
691.055	31.27
691.242	32.03
691.428	32.58
691.614	33.22
691.8	33.67
691.987	34.2
692.173	34.76
692.359	35.45
692.545	35.83
692.731	36.06
692.918	36.77
693.104	37.17
693.29	37.77
693.476	38.25
693.662	39.23
693.848	39.76
694.034	40.44
694.22	40.99
694.406	41.95
694.592	42.32
694.778	42.83
694.964	43.29
695.15	43.84
695.336	44.21
695.522	45.05
695.708	45.73
695.894	46.43
696.08	47.16
696.265	47.74
696.451	48.19
696.637	48.86
696.823	49.42
697.009	50.03
697.194	50.55
697.38	51.02
697.566	51.4
697.751	51.79
697.937	52.54
698.123	53.06
698.308	54
698.494	54.55
698.68	55.25
698.865	55.38
699.051	56.32
699.236	56.76
699.422	57.17
699.607	57.69
699.793	58.29
699.978	58.27
700.164	58.55
700.349	59.56
700.535	60.22
700.72	60.55
700.906	61.41
701.091	62.12
701.276	62.45
701.462	63.1
701.647	64.3
701.832	64.75
702.018	65.28
702.203	65.71
702.388	66.03
702.573	66.13
702.759	66.66
702.944	66.79
703.129	67.21
703.314	67.51
703.499	67.83
703.684	68.47
703.87	69.37
704.055	70.13
704.24	70.65
704.425	71.25
704.61	71.35
704.795	71.31
704.98	70.97
705.165	71.48
705.35	71.61
705.535	71.85
705.72	72.39
705.905	73.12
706.09	73.72
706.275	74.06
706.459	74.25
706.644	74.67
706.829	75.12
707.014	74.92
707.199	75.47
707.384	76.1
707.568	76.16
707.753	76.87
707.938	77.46
708.123	77.4
708.307	77.37
708.492	77.77
708.677	77.01
708.861	77.02
709.046	77.45
709.231	77.99
709.415	78.31
709.6	79.51
709.784	79.37
709.969	79.73
710.153	79.68
710.338	80.21
710.522	80.06
710.707	81.07
710.891	81.18
711.076	81.89
711.26	81.29
711.445	81.43
711.629	81.65
711.813	82.02
711.998	82.12
712.182	82.53
712.366	83.1
712.551	83.58
712.735	83.22
712.919	83.7
713.103	84.2
713.288	84.1
713.472	83.69
713.656	84.73
713.84	84.96
714.024	85.04
714.208	85.7
714.393	86.52
714.577	86.47
714.761	86.02
714.945	86.26
715.129	85.77
715.313	85.69
715.497	85.47
715.681	86.05
715.865	86.49
716.049	87.45
716.233	87.5
716.417	88.06
716.601	88.34
716.785	88.44
716.968	88.24
717.152	88.23
717.336	88.35
717.52	88.09
717.704	88.41
717.888	88.95
718.071	89.2
718.255	89.56
718.439	90.25
718.622	90.58
718.806	90.26
718.99	89.57
719.174	89.82
719.357	89.93
719.541	89.57
719.724	90.07
719.908	91.53
720.092	92.12
720.275	92.29
720.459	93.47
720.642	93.21
720.826	93.05
721.009	92.24
721.193	91.41
721.376	90.68
721.559	91.57
721.743	91.81
721.926	92.24
722.11	92.48
722.293	92.81
722.476	91.76
722.66	91.69
722.843	92.04
723.026	92.45
723.21	92.26
723.393	93.15
723.576	93.55
723.759	92.71
723.942	93.1
724.126	93.28
724.309	93.52
724.492	93.37
724.675	94.29
724.858	94.63
725.041	95.12
725.224	94.97
725.407	94.67
725.59	94.67
725.774	94.5
725.957	93.85
726.14	93.92
726.322	94.73
726.505	94.46
726.688	94.72
726.871	94.73
727.054	95.14
727.237	95.39
727.42	96.16
727.603	96.52
727.786	97.16
727.968	96.82
728.151	96.27
728.334	95.99
728.517	95.76
728.699	96.06
728.882	95.91
729.065	96.81
729.248	97.5
729.43	98.01
729.613	99.06
729.796	99.34
729.978	98.08
730.161	97.81
730.343	98.6
730.526	97.88
730.708	98.06
730.891	99.04
731.073	98.49
731.256	97.62
731.438	97.98
731.621	98.59
731.803	99.06
731.986	100.03
732.168	100.19
732.35	100.13
732.533	100.01
732.715	99.64
732.898	99.76
733.08	100.13
733.262	100.38
733.444	100.09
733.627	99.74
733.809	99.85
733.991	99.79
734.173	99.64
734.355	100.15
734.538	100.55
734.72	99.73
734.902	100.32
735.084	99.99
735.266	100.13
735.448	100.2
735.63	100.82
735.812	100.65
735.994	101.28
736.176	100.74
736.358	101.43
736.54	102.31
736.722	101.98
736.904	101.77
737.086	101.91
737.268	102.91
737.45	103.16
737.632	103.29
737.814	103.25
737.995	103.92
738.177	102.69
738.359	101.99
738.541	102.45
738.723	102.42
738.904	102.92
739.086	103.1
739.268	103.08
739.449	102.18
739.631	102.46
739.813	102.16
739.994	102.69
740.176	103.35
740.358	103.72
740.539	104.32
740.721	103.65
740.902	104.36
741.084	104.28
741.265	103.77
741.447	104.64
741.628	104.61
741.81	102.29
741.991	102.82
742.172	104.33
742.354	103.96
742.535	105.18
742.717	108.07
742.898	105.95
743.079	106.37
743.261	105.59
743.442	104.91
743.623	103.46
743.804	105.07
743.986	105.07
744.167	103.44
744.348	104.14
744.529	105.03
744.71	104.64
744.891	104.11
745.073	105.55
745.254	105.39
745.435	105.08
745.616	103.64
745.797	103.09
745.978	103.68
746.159	102.57
746.34	101.89
746.521	103.49
746.702	103.22
746.883	102.75
747.064	101.1
747.245	100.15
747.426	100.25
747.606	100.6
747.787	101.27
747.968	102.84
748.149	105.08
748.33	105.76
748.51	104.72
748.691	103.47
748.872	105.6
749.053	104.75
749.233	103.74
749.414	105.28
749.595	105.66
749.775	104.31
749.956	102.93
750.137	101.98
750.317	101.7
750.498	102.89
750.678	102.4
750.859	103.41
751.04	104.37
751.22	103.64
751.4	102.33
751.581	102.02
751.761	102.6
751.942	103.08
752.122	104.55
752.303	103.91
752.483	105.05
752.663	104.02
752.844	104.78
753.024	104.06
753.204	104.61
753.385	103.28
753.565	101.91
753.745	101.54
753.925	101.54
754.106	102.58
754.286	102.71
754.466	103.47
754.646	103.54
754.826	103.02
755.006	101.16
755.187	102.58
755.367	104.33
755.547	103.55
755.727	104.34
755.907	103.18
756.087	103.81
756.267	101.97
756.447	102.4
756.627	101.93
756.807	105.27
756.987	104.27
757.167	105.55
757.346	104.58
757.526	103.05
757.706	102.07
757.886	101.51
758.066	102.58
758.246	104.26
758.425	105.51
758.605	104.32
758.785	104.4
758.965	102.79
759.144	99.41
759.324	100.14
759.504	101.43
759.683	101.32
759.863	99.32
760.043	101.82
760.222	101.12
760.402	99.19
760.581	99.62
760.761	101.73
760.94	98.43
761.12	97.51
761.299	100.12
761.479	99.15
761.658	98.52
761.838	100.56
762.017	100.92
762.197	100.51
762.376	100.95
762.555	101.05
762.735	102.59
762.914	101.65
763.093	102.76
763.273	100.59
763.452	101.13
763.631	98.94
763.81	97.68
763.99	94.63
764.169	96.42
764.348	93.46
764.527	94.53
764.706	97.88
764.885	99.76
765.064	99.16
765.243	100.88
765.423	101.51
765.602	101.21
765.781	98.92
765.96	97.18
766.139	98.85
766.318	98.58
766.497	99.4
766.676	101.04
766.854	104.67
767.033	103.59
767.212	103.62
767.391	101.48
767.57	102.78
767.749	101.27
767.928	101.45
768.106	98.13
768.285	97.01
768.464	96.71
768.643	97.83
768.821	98.66
769	100.59
769.179	101.92
769.357	97.53
769.536	94.67
769.715	95.73
769.893	95.51
770.072	94
770.25	94.8
770.429	95.79
770.607	93.21
770.786	93.86
770.964	95.6
771.143	98.23
771.321	100.03
771.5	102.99
771.678	101.07
771.857	99.79
772.035	99.43
772.213	96.21
772.392	90.34
772.57	93.35
772.748	95.33
772.927	91.9
773.105	92.79
773.283	97.98
773.461	96.96
773.64	93.88
773.818	93.25
773.996	96.58
774.174	95.79
774.352	93.27
774.531	95.11
774.709	98.66
774.887	96.68
775.065	94.2
775.243	95.04
775.421	96.82
775.599	98.34
775.777	96.59
775.955	93.03
776.133	92.72
776.311	90.04
776.489	87.09
776.667	88.41
776.844	92.21
777.022	90.44
777.2	90.17
777.378	90.92
777.556	91.55
777.734	91.69
777.911	95.23
778.089	95.5
778.267	96.34
778.445	93.54
778.622	92.42
778.8	92.05
778.978	95.13
779.155	94.19
779.333	95.2
779.511	92.09
779.688	92.64
779.866	85.28
780.043	83.34
780.221	81.93
780.398	82.95
780.576	83.06
780.753	88.63
780.931	89.56
781.108	91.74
781.286	94.35
781.463	91.2
781.64	88.58
781.818	91.6
781.995	90.54
782.172	89.02
782.35	90.75
782.527	89.86
782.704	85.9
782.882	87.16
783.059	89.58
783.236	91
783.413	93.72
783.59	94.77
783.768	89.66
783.945	88.09
784.122	87.97
784.299	87.04
784.476	87.4
784.653	92.99
784.83	91.35
785.007	84.12
785.184	85.48
785.361	85.64
785.538	85.32
785.715	87.14
785.892	93.13
786.069	93.7
786.246	93.27
786.423	90.17
786.6	88.74
786.776	89.83
786.953	88.53
787.13	88.56
787.307	89.51
787.484	90.7
787.66	87.08
787.837	82.79
788.014	83.96
788.191	80.96
788.367	81.89
788.544	83.17
788.721	85.99
788.897	85.14
789.074	92.16
789.25	88.52
789.427	92.27
789.603	89.51
789.78	92.2
789.956	80.65
790.133	82.8
790.309	77.11
790.486	82.98
790.662	78.68
790.839	81.52
791.015	83.08
791.192	79.75
791.368	76.03
791.544	73.61
791.721	82.25
791.897	81.28
792.073	84.72
792.249	85.43
792.426	89.75
792.602	85.98
792.778	81.37
792.954	81.27
793.13	77.01
793.307	73.4
793.483	65.63
793.659	66.82
793.835	68.86
794.011	71.86
794.187	66.66
794.363	66.61
794.539	70
794.715	65.38
794.891	63.89
795.067	65.57
795.243	76.49
795.419	78.35
795.595	83.07
795.771	85.03
795.947	93.21
796.122	80.86
796.298	82.01
796.474	81.84
796.65	80.23
796.826	74.83
797.001	83.21
797.177	77.53
797.353	78.77
797.529	85.47
797.704	81.74
797.88	74.99
798.056	70.79
798.231	68.38
798.407	66.07
798.582	71.8
798.758	80.27
798.934	89.61
799.109	87.33
799.285	82.29
799.46	89.36
799.636	88.74
799.811	86.87
799.986	91.51
800.162	100.77
800.337	95.66
800.513	91.79
800.688	87.69
800.863	92.47
801.039	84.31
801.214	76.39
801.389	78.05
801.565	80.19
801.74	73.8
801.915	75
802.09	85.35
802.265	90.44
802.441	87.24
802.616	84.28
802.791	82.82
802.966	77.7
803.141	75.03
803.316	68.47
803.491	70.79
803.666	74.22
803.841	73.72
804.016	69
804.191	78.84
804.366	76.6
804.541	76.24
804.716	68.43
804.891	65.28
805.066	65.88
805.241	67.91
805.416	62.76
805.591	67.3
805.765	69.94
805.94	67.27
806.115	66.64
806.29	63.37
806.464	72.97
806.639	69.45
806.814	56.38
806.989	48.66
807.163	56.69
807.338	46.75
807.512	50.81
807.687	53.81
807.862	60.46
808.036	65.31
808.211	65.65
808.385	72.68
808.56	84.7
808.734	81.12
808.909	83.19
809.083	84.4
809.258	82.85
809.432	82.86
809.606	70.77
809.781	66.92
809.955	68.35
810.13	65.48
810.304	54.69
810.478	59.48
810.652	60.34
810.827	66.45
811.001	75.37
811.175	73.97
811.349	76.53
811.524	71.95
811.698	58.69
811.872	48.41
812.046	54.66
812.22	56.75
812.394	51.11
812.568	52.89
812.742	57.28
812.916	57.48
813.09	59.62
813.264	65.22
813.438	70
813.612	64.94
813.786	43.11
813.96	51.41
814.134	60.82
814.308	64.81
814.482	65.97
814.656	82.84
814.83	80.91
815.003	75.47
815.177	67.15
815.351	64.62
815.525	72.41
815.698	69.09
815.872	52.85
816.046	50.58
816.219	53.11
816.393	55.98
816.567	53.48
816.74	60.52
816.914	73.94
817.088	74.28
817.261	75.34
817.435	71.62
817.608	68.03
817.782	59.9
817.955	54.74
818.129	31.91
818.302	43.19
818.475	60.75
818.649	60.31
818.822	50.59
818.996	67.9
819.169	67.72
819.342	53.99
819.516	55.51
819.689	76.49
819.862	61.84
820.035	47.63
820.209	38.19
820.382	41.19
820.555	34.65
820.728	33.95
820.901	33.48
821.075	47.48
821.248	60.07
821.421	52.77
821.594	53.75
821.767	77.27
821.94	106.06
822.113	66.55
822.286	75.05
822.459	100.93
822.632	88.13
822.805	65.97
822.978	79.67
823.151	78.68
823.324	43.84
823.496	12.39
823.669	16.08
823.842	31.01
824.015	14.54
824.188	12.73
824.361	15.78
824.533	0.69
824.706	1.55
824.879	3.85
825.051	44.59
825.224	59.39
825.397	63.26
825.569	52.6
825.742	63.07
825.915	55.73
826.087	44.83
826.26	38.48
826.432	39.5
826.605	47.32
826.777	48.67
826.95	43.19
827.122	42.6
827.295	39.36
827.467	22.58
827.64	-6.41
827.812	-5.38
827.984	3.93
828.157	2.1
828.329	3.65
828.501	19.65
828.674	39.57
828.846	35.26
829.018	44.35
829.19	43.03
829.363	49.7
829.535	44.48
829.707	50.73
829.879	32.46
830.051	15.8
830.223	21.13
830.395	-2.71
830.568	-8.12
830.74	12.08
830.912	35.17
831.084	25.29
831.256	33.08
831.428	16.85
831.6	1.52
831.772	-19.24
831.943	-17.54
832.115	2.16
832.287	39.04
832.459	35.58
832.631	36.73
832.803	51.45
832.975	46.37
833.146	35.35
833.318	39.42
833.49	59.15
833.662	56.44
833.833	38.27
834.005	32.2
834.177	44.49
834.348	18.08
834.52	-16.97
834.692	3.11
834.863	-6.89
835.035	-18.69
835.206	-4.57
835.378	28.29
835.549	5.62
835.721	15.15
835.892	2.04
836.064	2.95
836.235	3.29
836.407	39.44
836.578	24.79
836.749	42.66
836.921	44.77
837.092	34.41
837.264	-10.98
837.435	-23.63
837.606	-1.15
837.777	29.56
837.949	34.39
838.12	36.65
838.291	47.16
838.462	33.57
838.633	6
838.805	-13.84
838.976	3.73
839.147	10.62
839.318	-12.55
839.489	-10.33
839.66	16.75
839.831	29.1
840.002	12.46
840.173	-2.87
840.344	-7.63
840.515	-11.18
840.686	-39.41
840.857	-57.15
841.028	-38.86
841.199	-8.11
841.369	-1.96
841.54	-9.84
841.711	28.77
841.882	40.62
842.053	20.71
842.223	-10.36
842.394	19.83
842.565	18.59
842.736	20.81
842.906	8.57
843.077	44.67
843.248	56.99
843.418	37.01
843.589	16.18
843.759	61.03
843.93	57.38
844.101	41.42
844.271	61.48
844.442	85.84
844.612	71.78
844.783	49.93
844.953	22.54
845.123	44.78
845.294	28.53
845.464	5.45
845.635	17.64
845.805	51.77
845.975	45.05
846.146	17.75
846.316	21.24
846.486	39.39
846.656	27.27
846.827	-14.25
846.997	9.2
847.167	25.78
847.337	0.49
847.507	-2.12
847.677	-3.21
847.848	9.38
848.018	9.88
848.188	13.42
848.358	6.83
848.528	22.79
848.698	8.96
848.868	-20.86
849.038	-27.69
849.208	1.78
849.378	18.38
849.548	-13.34
849.718	6.46
849.887	21.52
850.057	-63.61
850.227	-95.16
850.397	-49.09
850.567	-27.12
850.737	-11.18
850.906	-14.17
851.076	-35.14
851.246	-39.8
851.415	-29.09
851.585	-26.93
851.755	-12.05
851.924	19.37
852.094	35.49
852.264	14.07
852.433	-23.83
852.603	0.1
852.772	-9.03
852.942	-31.17
853.111	-54.1
853.281	26.45
853.45	15.31
853.62	-7.22
853.789	-49.29
853.959	22.21
854.128	-28.34
854.297	-57.15
854.467	-70.45
854.636	-22.56
854.805	-43.54
854.975	-49.72
855.144	-31.75
855.313	22.16
855.482	1.84
855.652	-23.86
855.821	-9.98
855.99	21.03
856.159	24.03
856.328	26.79
856.497	30.56
856.667	35.27
856.836	-16.28
857.005	-59.86
857.174	-135.48
857.343	-136.69
857.512	-101.26
857.681	-138.29
857.85	-141.76
858.019	-88.56
858.188	-89.53
858.356	-123.15
858.525	-123.15
858.694	-103.86
858.863	-80.61
859.032	-77.78
859.201	-53.55
859.369	1.1
859.538	3.54
859.707	-44.39
859.876	-71.79
860.044	-55.82
860.213	-44.21
860.382	-50.05
860.55	-10.81
860.719	25.99
860.888	24.89
861.056	-5.94
861.225	-12.85
861.393	22.07
861.562	61.26
861.73	29.22
861.899	33.9
862.067	-1.21
862.236	14.68
862.404	-52.92
862.572	-85.22
862.741	-50.19
862.909	-30.96
863.078	-65.47
863.246	-63.46
863.414	-36.16
863.582	-65.31
863.751	-62.71
863.919	-72.67
864.087	-16.08
864.255	-7.2
864.424	-48.57
864.592	-33.89
864.76	6.41
864.928	-44.9
865.096	-52.21
865.264	-33.73
865.432	-28.76
865.6	-47.89
865.768	-74.13
865.936	-139.07
866.104	-83.26
866.272	-59.57
866.44	-80.23
866.608	-47.74
866.776	-46.83
866.944	-139.06
867.112	-230.95
867.28	-380.31
867.448	-886.92
867.615	-273.39
867.783	-30.29
867.951	-82.93
868.119	0.23
868.286	12.64
868.454	-39.33
868.622	-109.53
868.789	-66.16
868.957	-39.67
869.125	-65.98
869.292	-64.29
869.46	-28.23
869.627	0.57
869.795	-54.35
869.963	-21.79
870.13	16.97
870.298	8.92
870.465	-67.52
870.632	-68.12
870.8	-70.75
870.967	-70.91
871.135	-134.51
871.302	-52.77
871.469	15.06
871.637	5.44
871.804	9.92
871.971	-9.54
872.139	2.72
872.306	14.21
872.473	-19.82
872.64	-75.51
872.807	-37.82
872.975	-24.48
873.142	-68.76
873.309	-63.82
873.476	65.78
873.643	48.28
873.81	14.13
873.977	19.06
874.144	31.96
874.311	-13.18
874.478	-69.43
874.645	-105.74
874.812	-362.94
874.979	20190.48
875.146	-559.92
875.313	-179.6
875.48	-98.05
875.647	-77.35
875.813	-96.81
875.98	-123.75
876.147	-169.46
876.314	-188.84
876.481	-217.75
876.647	-250.89
876.814	-120.56
876.981	-96.11
877.147	-152.53
877.314	-166.4
877.481	-76.52
877.647	-63.36
877.814	-134.58
877.98	-126.32
878.147	-75.31
878.314	-53.13
878.48	-148.64
878.647	-119.93
878.813	-2.26
878.979	29.37
879.146	1.48
879.312	23.29
879.479	32.01
879.645	8.68
879.811	-59.95
879.978	-42.14
880.144	-16.97
880.31	-41.69
880.477	-111.52
880.643	-122.14
880.809	-90.41
880.975	-54.83
881.142	-80.91
881.308	-46.77
881.474	16.05
881.64	8.17
881.806	-36.93
881.972	-2.16
882.138	-1.36
882.304	-10.7
882.47	-72.49
882.636	-125.73
882.802	-117.75
882.968	-43.86
883.134	-106.44
883.3	-113.28
883.466	58.31
883.632	53.69
883.798	-27.3
883.964	-16.98
884.129	-35.19
884.295	-73.62
884.461	-74.25
884.627	-103.4
884.793	-92.1
884.958	-35.15
885.124	-86.02
885.29	-112.32
885.455	-52.15
885.621	-23.09
885.787	-187.14
885.952	-65.49
886.118	-41.17
886.283	-64.63
886.449	-134.94
886.614	-78.08
886.78	-97.79
886.945	-162.64
887.111	-248.83
887.276	-223.41
887.442	-459.76
887.607	-217.92
887.773	-277.59
887.938	-151.78
888.103	-56.28
888.269	3.89
888.434	-21.2
888.599	-11.21
888.764	33.31
888.93	28.36
889.095	-9.93
889.26	-50.64
889.425	-12.23
889.59	-4.56
889.756	-56.39
889.921	-39.02
890.086	-29.21
890.251	-31.65
890.416	-105.8
890.581	-101.89
890.746	-92.35
890.911	-58.42
891.076	-94.48
891.241	-118.26
891.406	-118.15
891.571	-30.21
891.736	-59
891.901	-96.72
892.065	-56.06
892.23	-28.87
892.395	-140.43
892.56	-185.19
892.725	-57.07
892.889	-38.61
893.054	-163.41
893.219	-140.65
893.384	-117.78
893.548	-182.22
893.713	-236.17
893.878	-172.18
