Data from Ofra_PP_Phys_6GT17_Reflection_1.txt Node
Date: Sat Jul 24 20:11:10 EDT 2021
User: USUARIO
Spectrometer: FLMT01687
Trigger mode: 0
Integration Time (sec): 1.100000E0
Scans to average: 2
Electric dark correction enabled: true
Nonlinearity correction enabled: false
Boxcar width: 2
XAxis mode: Wavelengths
Number of Pixels in Spectrum: 3648
>>>>>Begin Spectral Data<<<<<
179.494	647.6
179.716	845.09
179.937	1495.98
180.158	1246.04
180.38	574.65
180.601	-657.17
180.823	85.26
181.044	-213.18
181.265	-5.23
181.486	-24.85
181.708	-197.53
181.929	-4177.33
182.15	877.51
182.372	14.79
182.593	21166.67
182.814	645.64
183.035	235.91
183.257	158.23
183.478	59.61
183.699	70.83
183.92	12.56
184.141	44.24
184.363	-18.76
184.584	60.24
184.805	54.43
185.026	89.98
185.247	93.63
185.468	63.17
185.689	41.25
185.91	42.65
186.132	25.64
186.353	12.53
186.574	48.42
186.795	77.39
187.016	31.96
187.237	36.94
187.458	54.74
187.679	130.15
187.9	90.37
188.121	137.21
188.342	164.02
188.563	157.92
188.784	144.31
189.005	163.53
189.226	142.66
189.447	115.63
189.667	107.9
189.888	44.03
190.109	1.81
190.33	-22.68
190.551	-45.1
190.772	-69.28
190.993	-71.08
191.214	-52.19
191.434	-61.58
191.655	14.9
191.876	10.59
192.097	18.56
192.318	21.93
192.538	1.63
192.759	-38.01
192.98	-33.91
193.201	-19.27
193.421	-53.89
193.642	-3.32
193.863	4.65
194.083	-4.2
194.304	7.22
194.525	24.6
194.745	12.13
194.966	-27.11
195.187	-44.41
195.407	-113.66
195.628	-131.91
195.848	-129.99
196.069	-132.05
196.29	-130.16
196.51	-155.34
196.731	-153.79
196.951	-91.16
197.172	-68.99
197.392	-55.67
197.613	-20.26
197.833	-30.65
198.054	-82.31
198.274	-59.94
198.495	-122.6
198.715	-88.85
198.936	-100.23
199.156	-52.2
199.377	-73.03
199.597	-44.97
199.817	-53.96
200.038	10.48
200.258	28.9
200.479	54.92
200.699	62.88
200.919	42.63
201.14	-19.82
201.36	-37.91
201.58	-31.48
201.801	-36.53
202.021	-28.37
202.241	24.66
202.461	22.35
202.682	-20.31
202.902	6.86
203.122	-28.84
203.342	-16.05
203.563	24.67
203.783	63.33
204.003	-20.01
204.223	-35.17
204.443	41.49
204.663	18.88
204.884	-13.77
205.104	36.95
205.324	72.8
205.544	35.32
205.764	30.66
205.984	33.37
206.204	47.66
206.424	64.07
206.644	30.44
206.864	53.72
207.084	60.33
207.304	65.83
207.525	8.81
207.745	28.69
207.964	13.49
208.184	-19.26
208.404	-31.26
208.624	-27.4
208.844	-13.13
209.064	-57.5
209.284	-38.91
209.504	-23.37
209.724	13.58
209.944	-3
210.164	40.53
210.384	46.92
210.604	51.94
210.823	-9.93
211.043	-45.66
211.263	-38.57
211.483	-56.37
211.703	-78.77
211.922	-31.49
212.142	44.31
212.362	46.56
212.582	33.09
212.801	35.89
213.021	3.8
213.241	-8.67
213.461	-44.77
213.68	-66.04
213.9	-62.06
214.12	-27.94
214.339	-53.57
214.559	-38.75
214.779	8.04
214.998	12.71
215.218	-30.67
215.438	-26.49
215.657	-23.76
215.877	2.1
216.096	8.25
216.316	66.32
216.535	65
216.755	53.65
216.974	26.46
217.194	34.22
217.413	-2.27
217.633	-3.98
217.852	-56.89
218.072	-51.62
218.291	-82.33
218.511	-37.5
218.73	-98.94
218.95	-82.94
219.169	-86.53
219.389	-105.02
219.608	-136.01
219.827	-68.07
220.047	-51.87
220.266	-55.87
220.485	-50.33
220.705	-9.5
220.924	-40.55
221.143	3.65
221.363	-34.72
221.582	1.1
221.801	-22.29
222.021	24.97
222.24	14.31
222.459	65.98
222.678	61.88
222.897	49.65
223.117	27.85
223.336	23.84
223.555	30.06
223.774	47.57
223.993	62.65
224.213	87.75
224.432	57.03
224.651	80.27
224.87	58.22
225.089	70.9
225.308	65.94
225.527	85.73
225.746	74.11
225.965	56.76
226.184	38.72
226.404	40.94
226.623	19.93
226.842	22.84
227.061	73.32
227.28	101.27
227.499	113.37
227.718	150.49
227.936	130.92
228.155	116
228.374	39.32
228.593	15.05
228.812	1.27
229.031	7.69
229.25	-16.87
229.469	39.97
229.688	41.91
229.907	47.75
230.125	71.24
230.344	86.07
230.563	83.1
230.782	116.13
231.001	61.23
231.22	71.51
231.438	77.55
231.657	56.42
231.876	25.15
232.095	64.13
232.313	54.38
232.532	39.84
232.751	39.04
232.969	36.17
233.188	35.89
233.407	28.37
233.625	15.07
233.844	17.77
234.063	29.48
234.281	47.49
234.5	61.19
234.719	88.76
234.937	76.55
235.156	65.4
235.374	63.81
235.593	69
235.811	65.85
236.03	67.71
236.249	63.44
236.467	71.34
236.686	38.86
236.904	36.62
237.123	-41
237.341	-33.89
237.559	-60.6
237.778	-40.83
237.996	-56.87
238.215	-3.48
238.433	-7.49
238.652	23.55
238.87	-27.46
239.088	5.03
239.307	21.3
239.525	20.73
239.743	-25.57
239.962	3.66
240.18	-31.81
240.398	-88.99
240.617	-108.56
240.835	-58.89
241.053	-74.81
241.271	-10.61
241.49	31.66
241.708	29.72
241.926	35.72
242.144	44.04
242.363	7.54
242.581	-1.62
242.799	28.14
243.017	13.38
243.235	-27.49
243.453	4.32
243.672	-10.5
243.89	-8.82
244.108	8.86
244.326	36.67
244.544	22.55
244.762	12.41
244.98	17.95
245.198	16.46
245.416	-12.47
245.634	-11.87
245.852	18.67
246.07	21.98
246.288	19.97
246.506	16.82
246.724	38.04
246.942	26.01
247.16	23.25
247.378	29.34
247.596	54.66
247.814	47.12
248.032	8.03
248.25	-4.73
248.468	-18.67
248.685	-10.31
248.903	1.2
249.121	20.35
249.339	0.6
249.557	0.39
249.775	-18.49
249.992	-100.57
250.21	-113.07
250.428	-66.49
250.646	-52.58
250.863	-51.34
251.081	-17.42
251.299	17.28
251.517	18.27
251.734	8.82
251.952	10
252.17	13.75
252.387	23.29
252.605	-7.39
252.823	2.52
253.04	23.19
253.258	42.33
253.475	27.55
253.693	74.23
253.911	92.61
254.128	71.18
254.346	60.62
254.563	49.13
254.781	12.33
254.998	-11.36
255.216	-13.33
255.433	-6.14
255.651	27.96
255.868	52.43
256.086	76.25
256.303	73.45
256.521	72.14
256.738	38.91
256.956	13.97
257.173	13.39
257.39	0.73
257.608	0.5
257.825	20.11
258.043	36.35
258.26	30.44
258.477	55.89
258.695	54.92
258.912	-1.32
259.129	-4.13
259.346	-36.92
259.564	-66.3
259.781	-29.88
259.998	0.85
260.216	28.03
260.433	62.92
260.65	58.17
260.867	54.58
261.084	37.46
261.302	31.16
261.519	37.94
261.736	16.76
261.953	3.12
262.17	26.83
262.387	8.04
262.604	-19.25
262.822	-17.69
263.039	-23.08
263.256	-50.88
263.473	-37.15
263.69	-65.92
263.907	-27.69
264.124	4.05
264.341	36.24
264.558	24.33
264.775	42.45
264.992	66.25
265.209	50.75
265.426	51.5
265.643	64.05
265.86	67.11
266.077	56.15
266.294	56.7
266.51	43.9
266.727	24.4
266.944	46.27
267.161	30.28
267.378	35.47
267.595	36.22
267.812	6.16
268.028	-9.71
268.245	2.79
268.462	-14.8
268.679	-5.8
268.896	50.97
269.112	47.74
269.329	28.06
269.546	41.35
269.763	42.85
269.979	37.43
270.196	21.19
270.413	24.5
270.629	-4.48
270.846	-16.91
271.063	-4.79
271.279	-15.89
271.496	-52.23
271.712	-34.31
271.929	-25.21
272.146	-37.68
272.362	-20.3
272.579	45.16
272.795	48.63
273.012	64.94
273.228	75.32
273.445	53.21
273.661	-0.19
273.878	-75.42
274.094	-102.7
274.311	-128.15
274.527	-69.57
274.744	-36.66
274.96	38.38
275.177	52.4
275.393	57.56
275.609	61.4
275.826	66.9
276.042	53.66
276.259	48.3
276.475	40.72
276.691	29.48
276.908	12.4
277.124	36.78
277.34	34.63
277.557	32.74
277.773	36.86
277.989	39.94
278.205	27.67
278.422	43.43
278.638	62.62
278.854	64.57
279.07	55.76
279.286	24.25
279.503	6.06
279.719	-13.84
279.935	-33.33
280.151	-29.65
280.367	12.45
280.583	23.3
280.799	17.73
281.016	21.3
281.232	23.93
281.448	23.98
281.664	38.43
281.88	41.75
282.096	41.71
282.312	51.59
282.528	58.94
282.744	55.77
282.96	54.69
283.176	69.25
283.392	60.19
283.608	50.45
283.824	38.02
284.04	37.16
284.256	42.47
284.471	38.68
284.687	31.22
284.903	37.4
285.119	58.76
285.335	27.67
285.551	45.85
285.767	37.53
285.982	17.75
286.198	6.93
286.414	42.77
286.63	35.9
286.846	64.6
287.061	40.31
287.277	49.69
287.493	40.27
287.709	41.05
287.924	29.25
288.14	62.49
288.356	82.46
288.571	97.15
288.787	86.36
289.003	76.93
289.218	64.19
289.434	-16.32
289.65	-11.03
289.865	4.4
290.081	24.46
290.296	27.58
290.512	32.65
290.727	31.26
290.943	19.27
291.159	-10.63
291.374	-19.23
291.59	-33.97
291.805	-55.83
292.021	-37.2
292.236	-26.52
292.451	-8.1
292.667	11.71
292.882	30.29
293.098	48.96
293.313	29.04
293.529	7.35
293.744	-23.1
293.959	-42.94
294.175	-49.99
294.39	-12.99
294.605	13.73
294.821	43.29
295.036	35.97
295.251	44.68
295.467	34.67
295.682	24.6
295.897	7.32
296.112	-6.55
296.328	-13.55
296.543	-29.17
296.758	-39.45
296.973	-4.61
297.188	47.42
297.404	27.28
297.619	47.09
297.834	43.65
298.049	29.9
298.264	3.3
298.479	37.07
298.694	36.9
298.909	54.45
299.125	59.77
299.34	71.36
299.555	44.36
299.77	54.67
299.985	-9.29
300.2	-28.06
300.415	-67.79
300.63	-44.97
300.845	-48.68
301.06	-37.25
301.275	-34.29
301.49	-2.35
301.704	1.21
301.919	-41.41
302.134	-31.18
302.349	16.49
302.564	-19.1
302.779	6.75
302.994	65
303.209	68.63
303.423	59.9
303.638	97.99
303.853	57.1
304.068	20.32
304.283	19.39
304.497	18.12
304.712	27.73
304.927	35.79
305.142	32.4
305.356	39.83
305.571	40.28
305.786	28.41
306	25.68
306.215	43.46
306.43	15.31
306.644	40.19
306.859	49.49
307.074	24.95
307.288	-0.62
307.503	14.43
307.717	-18.34
307.932	-5.69
308.147	-0.91
308.361	22.84
308.576	12.95
308.79	-40.55
309.005	-36.06
309.219	-5.87
309.434	-2.61
309.648	-21.48
309.863	23.72
310.077	17.65
310.292	7.06
310.506	-3.06
310.72	37.34
310.935	52.49
311.149	30.54
311.364	37.33
311.578	60.22
311.792	42.91
312.007	25.22
312.221	-3.88
312.435	15.85
312.649	-27.84
312.864	27.89
313.078	28.01
313.292	92.29
313.507	77.1
313.721	73.27
313.935	64.09
314.149	85.28
314.363	67.05
314.578	41.48
314.792	36.68
315.006	28.52
315.22	20.87
315.434	21.77
315.648	31.97
315.862	30.39
316.077	34.41
316.291	43.22
316.505	29.05
316.719	43.27
316.933	4.46
317.147	21.86
317.361	-25.62
317.575	-10.85
317.789	-25.13
318.003	-8.18
318.217	-4.58
318.431	27.18
318.645	37.41
318.859	26.68
319.073	61.24
319.287	31
319.5	-8.7
319.714	-45.33
319.928	-38.42
320.142	-60.33
320.356	12.94
320.57	49.46
320.784	56.42
320.997	71.89
321.211	63.85
321.425	8.35
321.639	-28.51
321.853	13.3
322.066	1.62
322.28	-5.24
322.494	19.73
322.707	69.95
322.921	32.35
323.135	29.84
323.349	39.1
323.562	26.36
323.776	-6.78
323.989	4.31
324.203	-8.51
324.417	-5.83
324.63	-41.36
324.844	-59.5
325.057	-61.37
325.271	-68.57
325.485	-76.05
325.698	-8.46
325.912	34.1
326.125	29.07
326.339	58.5
326.552	67.16
326.766	72.3
326.979	63.07
327.193	77.79
327.406	63.53
327.619	61.83
327.833	58.5
328.046	47.45
328.26	25.49
328.473	16.92
328.686	2.79
328.9	10.54
329.113	11.87
329.326	7.27
329.54	7.86
329.753	1.83
329.966	-11.56
330.179	17.64
330.393	35.57
330.606	42.45
330.819	61.31
331.032	70.69
331.246	77.15
331.459	99.02
331.672	66.55
331.885	48.06
332.098	22.28
332.311	22.06
332.525	1.57
332.738	19.67
332.951	36.56
333.164	53.75
333.377	54.74
333.59	67.29
333.803	57.04
334.016	54.36
334.229	40.63
334.442	43.04
334.655	61.27
334.868	74.17
335.081	54.86
335.294	43.43
335.507	45.34
335.72	40.71
335.933	24.64
336.146	36.46
336.359	58.01
336.572	20.21
336.785	1.14
336.997	6.66
337.21	19.27
337.423	16.03
337.636	35.99
337.849	43.02
338.062	46.18
338.274	57.76
338.487	32.88
338.7	29.65
338.913	10.3
339.125	-3.38
339.338	-11.26
339.551	11.54
339.763	27.02
339.976	45.28
340.189	57.19
340.402	63.11
340.614	47.36
340.827	24.48
341.039	4.92
341.252	-18.59
341.465	-41.4
341.677	-55.2
341.89	-82.26
342.102	-53.66
342.315	-37.04
342.527	-39.67
342.74	-20.83
342.952	24.14
343.165	13.09
343.377	35.89
343.59	30.87
343.802	56.97
344.015	71.93
344.227	98.64
344.44	72.69
344.652	64.49
344.864	52.15
345.077	66.3
345.289	46.28
345.502	56.9
345.714	55.27
345.926	50.3
346.139	20.25
346.351	19.18
346.563	12.1
346.775	20.43
346.988	10.77
347.2	12.25
347.412	-9.58
347.624	-14.2
347.837	1.89
348.049	29
348.261	44.61
348.473	46.87
348.685	20.1
348.897	-8.19
349.11	-22.83
349.322	-32.57
349.534	1.85
349.746	26.56
349.958	42.93
350.17	35.53
350.382	43.14
350.594	37.48
350.806	44.86
351.018	35.06
351.23	34.05
351.442	19.16
351.654	13.62
351.866	6.56
352.078	20.5
352.29	19.6
352.502	48.34
352.714	67.82
352.926	66.54
353.138	60.42
353.35	38.51
353.561	20.69
353.773	-7.37
353.985	1.77
354.197	-4.57
354.409	7.63
354.621	15.71
354.832	27.49
355.044	6.64
355.256	5.96
355.468	10.93
355.679	-4.23
355.891	-6.7
356.103	-10.79
356.314	-17.12
356.526	-3.5
356.738	29.21
356.949	42.33
357.161	51.84
357.373	50.61
357.584	39.26
357.796	20.65
358.008	-4.69
358.219	19.91
358.431	25.44
358.642	31.48
358.854	42.8
359.065	47.15
359.277	18.31
359.488	4.78
359.7	-8.27
359.911	-26.83
360.123	-21.25
360.334	-27.76
360.546	-31.17
360.757	-27.04
360.969	-17.97
361.18	-10.5
361.391	5.8
361.603	11
361.814	28.04
362.025	10.04
362.237	5.13
362.448	13.58
362.659	33.28
362.871	23.74
363.082	40.33
363.293	50.95
363.504	45.7
363.716	32.52
363.927	35.43
364.138	12.01
364.349	-22.49
364.56	-29.91
364.772	-55.39
364.983	-31.36
365.194	-35.33
365.405	-3.83
365.616	-0.16
365.827	22.81
366.038	-0.77
366.25	23.74
366.461	-2.8
366.672	26.9
366.883	38.8
367.094	40.09
367.305	13.95
367.516	33.99
367.727	17
367.938	-5.78
368.149	-22.17
368.36	-3.49
368.571	-7.73
368.781	-17.21
368.992	-26.03
369.203	9.18
369.414	-5.79
369.625	-5.66
369.836	-10.38
370.047	-3.82
370.258	-24.58
370.468	-17.3
370.679	-55.47
370.89	-39.34
371.101	-0.55
371.312	-31.62
371.522	-19.66
371.733	-0.01
371.944	7.83
372.155	8.13
372.365	6.33
372.576	8.18
372.787	5.2
372.997	-6.77
373.208	-11.21
373.419	20.52
373.629	1.72
373.84	5.44
374.05	-10.85
374.261	2.37
374.472	-30.74
374.682	1.72
374.893	-0.12
375.103	39.31
375.314	20.21
375.524	35.73
375.735	28.19
375.945	30.08
376.156	-0.1
376.366	8.59
376.577	21.51
376.787	17.34
376.997	39.39
377.208	47.3
377.418	20.37
377.629	22.8
377.839	12.91
378.049	-3.65
378.26	9.15
378.47	39.43
378.68	26.45
378.89	35.29
379.101	32.67
379.311	-0.2
379.521	-33.27
379.732	-23.75
379.942	-54.12
380.152	-47.26
380.362	-20.64
380.572	-8.74
380.783	10.91
380.993	32.23
381.203	41.14
381.413	34.48
381.623	36.93
381.833	27.33
382.043	8.76
382.253	-0.86
382.463	10.54
382.674	13.14
382.884	-4.55
383.094	3.36
383.304	7.89
383.514	6.45
383.724	12.76
383.934	3.86
384.144	-7.04
384.353	-4.96
384.563	2.34
384.773	1.88
384.983	12.05
385.193	23.59
385.403	8.59
385.613	-0.36
385.823	-6.47
386.033	4.65
386.242	-5.98
386.452	7.87
386.662	-0.11
386.872	5.79
387.082	3.86
387.291	-0.93
387.501	-0.77
387.711	10.08
387.921	-1.38
388.13	-0.87
388.34	14.23
388.55	12.96
388.759	13.32
388.969	19.88
389.179	14.15
389.388	14.39
389.598	12.33
389.807	8.06
390.017	8.67
390.227	9.62
390.436	3.81
390.646	9.89
390.855	14.5
391.065	15.68
391.274	12.16
391.484	9.76
391.693	10.43
391.903	9.35
392.112	10.35
392.322	14.67
392.531	19.82
392.74	17.42
392.95	10.88
393.159	9.42
393.369	9.99
393.578	7.14
393.787	5.41
393.997	11.38
394.206	10.78
394.415	10.72
394.625	10.75
394.834	9.35
395.043	7.36
395.252	8.77
395.462	10.21
395.671	11.16
395.88	13.54
396.089	14.64
396.298	13.25
396.508	12.08
396.717	12.15
396.926	11.96
397.135	12.03
397.344	11.97
397.553	12.29
397.762	13.06
397.971	12.39
398.181	12.24
398.39	10.89
398.599	10.35
398.808	9.62
399.017	10.53
399.226	10.76
399.435	12.37
399.644	12.59
399.853	12.43
400.062	11.97
400.27	11.66
400.479	11.23
400.688	10.24
400.897	10.59
401.106	10.35
401.315	9.72
401.524	9.46
401.733	10.14
401.941	10.21
402.15	10.41
402.359	10.58
402.568	11.14
402.777	11.14
402.985	10.94
403.194	10.91
403.403	11.1
403.612	10.61
403.82	10.7
404.029	10.66
404.238	10.12
404.446	10.1
404.655	9.81
404.864	9.56
405.072	9.37
405.281	9.95
405.489	9.7
405.698	9.77
405.906	9.57
406.115	9.54
406.324	9.21
406.532	9.26
406.741	9.59
406.949	9.57
407.158	9.56
407.366	9.7
407.574	9.88
407.783	9.71
407.991	9.68
408.2	9.84
408.408	9.62
408.617	9.48
408.825	9.32
409.033	9.58
409.242	9.55
409.45	9.73
409.658	9.49
409.867	9.68
410.075	9.4
410.283	9.12
410.491	8.87
410.7	8.67
410.908	8.63
411.116	8.67
411.324	8.71
411.533	8.97
411.741	9.22
411.949	9.26
412.157	9.07
412.365	9.23
412.573	9
412.781	9.12
412.99	8.92
413.198	9.19
413.406	8.98
413.614	8.98
413.822	8.76
414.03	8.76
414.238	8.46
414.446	8.55
414.654	8.33
414.862	8.42
415.07	8.51
415.278	8.92
415.486	8.59
415.694	8.83
415.902	8.71
416.109	8.46
416.317	8.34
416.525	8.2
416.733	8.09
416.941	8.21
417.149	8.35
417.357	8.25
417.564	8.61
417.772	8.69
417.98	8.65
418.188	8.53
418.395	8.36
418.603	8.42
418.811	8.15
419.019	7.89
419.226	8.2
419.434	8.49
419.642	8.33
419.849	8.5
420.057	8.82
420.265	8.65
420.472	8.31
420.68	8.49
420.887	8.43
421.095	8.38
421.302	8.31
421.51	8.5
421.717	8.47
421.925	8.58
422.132	8.43
422.34	8.17
422.547	8.08
422.755	8.03
422.962	7.91
423.17	8.04
423.377	8.2
423.585	8.29
423.792	8.2
423.999	8.23
424.207	8.06
424.414	8.17
424.621	8.1
424.829	8.04
425.036	7.96
425.243	7.96
425.451	7.84
425.658	7.61
425.865	7.76
426.072	7.74
426.28	7.86
426.487	7.59
426.694	7.99
426.901	7.94
427.108	7.88
427.315	7.83
427.523	8.32
427.73	8.2
427.937	7.87
428.144	7.73
428.351	7.83
428.558	7.76
428.765	7.63
428.972	7.77
429.179	7.99
429.386	8.16
429.593	7.94
429.8	7.74
430.007	7.92
430.214	8.01
430.421	7.85
430.628	7.84
430.835	7.74
431.042	7.91
431.249	7.88
431.456	7.96
431.662	8.21
431.869	8.44
432.076	8.35
432.283	8.28
432.49	7.98
432.697	7.93
432.903	7.74
433.11	7.6
433.317	7.8
433.524	8.03
433.73	7.8
433.937	8.24
434.144	8.26
434.35	8.25
434.557	8.25
434.764	8.32
434.97	8.12
435.177	8.31
435.384	7.85
435.59	7.83
435.797	7.95
436.003	8.03
436.21	7.93
436.416	8.18
436.623	8.09
436.829	8.08
437.036	8.04
437.242	7.88
437.449	7.96
437.655	7.95
437.862	7.97
438.068	8.03
438.275	8.16
438.481	8.18
438.687	8.17
438.894	8.1
439.1	7.95
439.307	8.07
439.513	7.96
439.719	8.08
439.926	8.17
440.132	8.22
440.338	8.08
440.544	8.29
440.751	8.19
440.957	8.19
441.163	7.9
441.369	7.94
441.575	7.7
441.782	7.61
441.988	7.35
442.194	7.57
442.4	7.49
442.606	7.67
442.812	7.83
443.018	8.08
443.224	8.17
443.431	8.32
443.637	8.2
443.843	8.06
444.049	8.09
444.255	7.95
444.461	7.87
444.667	7.72
444.873	7.86
445.079	7.84
445.284	7.9
445.49	7.72
445.696	7.64
445.902	7.63
446.108	7.57
446.314	7.41
446.52	7.62
446.726	8.02
446.931	7.91
447.137	7.96
447.343	8.14
447.549	7.9
447.755	7.77
447.96	7.83
448.166	7.72
448.372	7.83
448.578	7.92
448.783	7.84
448.989	7.87
449.195	8.08
449.4	7.91
449.606	7.91
449.812	7.91
450.017	7.98
450.223	7.85
450.428	7.72
450.634	7.87
450.84	7.94
451.045	7.74
451.251	7.68
451.456	7.94
451.662	8.08
451.867	8.06
452.073	8.05
452.278	8.09
452.483	8.14
452.689	8.06
452.894	8.19
453.1	8.3
453.305	8.12
453.51	7.97
453.716	7.7
453.921	7.64
454.127	7.64
454.332	7.64
454.537	7.63
454.742	7.82
454.948	7.8
455.153	7.69
455.358	7.86
455.563	8.02
455.769	7.96
455.974	7.8
456.179	7.78
456.384	7.68
456.589	7.59
456.795	7.43
457	7.46
457.205	7.65
457.41	7.61
457.615	7.58
457.82	7.77
458.025	7.91
458.23	7.69
458.435	7.79
458.64	7.52
458.845	7.62
459.05	7.48
459.255	7.44
459.46	7.4
459.665	7.61
459.87	7.58
460.075	7.38
460.28	7.52
460.485	7.63
460.69	7.74
460.895	7.43
461.099	7.48
461.304	7.61
461.509	7.64
461.714	7.37
461.919	7.58
462.123	7.66
462.328	7.7
462.533	7.36
462.738	7.56
462.942	7.42
463.147	7.53
463.352	7.51
463.556	7.55
463.761	7.6
463.966	7.84
464.17	7.88
464.375	7.68
464.58	7.69
464.784	7.6
464.989	7.34
465.193	7.24
465.398	7.27
465.602	7.6
465.807	7.56
466.011	7.7
466.216	7.83
466.42	7.93
466.625	7.83
466.829	7.94
467.034	7.99
467.238	7.97
467.443	7.92
467.647	7.7
467.851	7.65
468.056	7.62
468.26	7.57
468.464	7.52
468.669	7.74
468.873	7.85
469.077	7.84
469.282	7.76
469.486	7.84
469.69	7.82
469.894	7.79
470.099	7.86
470.303	8.06
470.507	7.9
470.711	7.76
470.915	7.68
471.119	7.63
471.324	7.53
471.528	7.48
471.732	7.6
471.936	7.62
472.14	7.71
472.344	7.72
472.548	7.88
472.752	7.9
472.956	8.02
473.16	7.85
473.364	7.78
473.568	7.83
473.772	7.81
473.976	7.81
474.18	7.81
474.384	7.8
474.588	7.66
474.792	7.59
474.995	7.56
475.199	7.7
475.403	7.86
475.607	8.01
475.811	8.07
476.015	8.08
476.218	8.04
476.422	7.96
476.626	8.01
476.83	8.18
477.033	8.03
477.237	7.88
477.441	7.91
477.644	7.83
477.848	7.71
478.052	7.59
478.255	7.68
478.459	7.72
478.663	7.95
478.866	7.97
479.07	8.17
479.273	8.31
479.477	8.3
479.681	8.14
479.884	8.11
480.088	7.98
480.291	7.87
480.495	7.81
480.698	7.78
480.901	7.87
481.105	8.13
481.308	8.14
481.512	8.1
481.715	8.15
481.919	8.15
482.122	7.99
482.325	8
482.529	8.07
482.732	8.04
482.935	7.88
483.138	7.93
483.342	8.03
483.545	8.23
483.748	8.3
483.952	8.38
484.155	8.51
484.358	8.46
484.561	8.25
484.764	8.27
484.967	8.36
485.171	8.38
485.374	8.19
485.577	8.37
485.78	8.42
485.983	8.48
486.186	8.37
486.389	8.44
486.592	8.39
486.795	8.39
486.998	8.33
487.201	8.47
487.404	8.64
487.607	8.73
487.81	8.76
488.013	8.81
488.216	8.76
488.419	8.84
488.622	8.6
488.825	8.51
489.028	8.53
489.231	8.51
489.433	8.35
489.636	8.5
489.839	8.42
490.042	8.31
490.245	8.29
490.447	8.46
490.65	8.49
490.853	8.71
491.056	8.82
491.258	8.85
491.461	8.88
491.664	8.96
491.866	8.79
492.069	8.88
492.272	9.02
492.474	9.07
492.677	9.13
492.879	9.36
493.082	9.38
493.285	9.52
493.487	9.41
493.69	9.32
493.892	9.18
494.095	9.2
494.297	9.15
494.5	9.46
494.702	9.68
494.905	9.91
495.107	10
495.309	10.09
495.512	10.01
495.714	10.04
495.917	10.13
496.119	10.2
496.321	10.33
496.524	10.46
496.726	10.5
496.928	10.5
497.13	10.52
497.333	10.51
497.535	10.49
497.737	10.5
497.939	10.47
498.142	10.62
498.344	10.54
498.546	10.56
498.748	10.65
498.95	10.81
499.152	10.75
499.355	10.9
499.557	11.02
499.759	11.15
499.961	11.21
500.163	11.32
500.365	11.36
500.567	11.34
500.769	11.25
500.971	11.26
501.173	11.14
501.375	11.16
501.577	11.14
501.779	11.2
501.981	11.25
502.183	11.35
502.385	11.33
502.587	11.28
502.788	11.33
502.99	11.28
503.192	11.33
503.394	11.33
503.596	11.45
503.798	11.49
503.999	11.51
504.201	11.51
504.403	11.64
504.605	11.7
504.806	11.6
505.008	11.55
505.21	11.65
505.411	11.63
505.613	11.5
505.815	11.57
506.016	11.69
506.218	11.64
506.42	11.48
506.621	11.5
506.823	11.53
507.024	11.5
507.226	11.44
507.427	11.42
507.629	11.52
507.83	11.54
508.032	11.35
508.233	11.4
508.435	11.48
508.636	11.52
508.838	11.34
509.039	11.38
509.24	11.47
509.442	11.47
509.643	11.3
509.845	11.4
510.046	11.52
510.247	11.36
510.448	11.35
510.65	11.46
510.851	11.51
511.052	11.51
511.254	11.49
511.455	11.62
511.656	11.59
511.857	11.62
512.058	11.56
512.26	11.59
512.461	11.5
512.662	11.48
512.863	11.28
513.064	11.26
513.265	11.31
513.466	11.34
513.667	11.29
513.868	11.5
514.069	11.56
514.27	11.6
514.471	11.52
514.672	11.63
514.873	11.62
515.074	11.69
515.275	11.59
515.476	11.67
515.677	11.65
515.878	11.68
516.079	11.57
516.28	11.65
516.481	11.73
516.682	11.83
516.882	11.73
517.083	11.85
517.284	11.76
517.485	11.64
517.686	11.57
517.886	11.55
518.087	11.48
518.288	11.61
518.488	11.56
518.689	11.56
518.89	11.49
519.091	11.46
519.291	11.39
519.492	11.47
519.692	11.52
519.893	11.72
520.094	11.81
520.294	11.81
520.495	11.78
520.695	11.85
520.896	11.77
521.096	11.78
521.297	11.88
521.497	11.97
521.698	11.83
521.898	11.8
522.099	11.75
522.299	11.75
522.499	11.7
522.7	11.76
522.9	11.82
523.101	11.91
523.301	11.89
523.501	11.86
523.702	11.85
523.902	11.99
524.102	12.06
524.302	12.01
524.503	12.13
524.703	12.19
524.903	12.09
525.103	11.98
525.304	12.05
525.504	12.07
525.704	12.07
525.904	12.05
526.104	12.04
526.304	12.08
526.504	12.07
526.705	12.1
526.905	12.18
527.105	12.29
527.305	12.31
527.505	12.24
527.705	12.24
527.905	12.28
528.105	12.19
528.305	12.11
528.505	12.16
528.705	12.26
528.905	12.17
529.105	12.23
529.304	12.34
529.504	12.43
529.704	12.31
529.904	12.37
530.104	12.44
530.304	12.48
530.503	12.43
530.703	12.43
530.903	12.47
531.103	12.53
531.303	12.44
531.502	12.53
531.702	12.63
531.902	12.68
532.101	12.57
532.301	12.59
532.501	12.64
532.7	12.67
532.9	12.62
533.1	12.69
533.299	12.69
533.499	12.7
533.698	12.58
533.898	12.64
534.097	12.66
534.297	12.78
534.496	12.8
534.696	12.93
534.895	13.03
535.095	13.11
535.294	13.02
535.494	12.96
535.693	12.95
535.892	13.02
536.092	12.95
536.291	13.04
536.491	13.13
536.69	13.26
536.889	13.01
537.088	13.01
537.288	13.08
537.487	13.15
537.686	13.04
537.886	13.21
538.085	13.27
538.284	13.28
538.483	13.19
538.682	13.36
538.882	13.45
539.081	13.59
539.28	13.54
539.479	13.6
539.678	13.63
539.877	13.71
540.076	13.7
540.275	13.81
540.474	13.92
540.673	13.92
540.872	13.86
541.071	13.86
541.27	13.81
541.469	13.82
541.668	13.84
541.867	13.87
542.066	13.96
542.265	14.14
542.464	14.14
542.663	14.28
542.862	14.47
543.06	14.53
543.259	14.53
543.458	14.66
543.657	14.58
543.856	14.57
544.054	14.54
544.253	14.44
544.452	14.29
544.651	14.38
544.849	14.33
545.048	14.41
545.247	14.52
545.445	14.7
545.644	14.69
545.843	14.68
546.041	14.76
546.24	14.89
546.438	14.96
546.637	15.02
546.836	15.28
547.034	15.34
547.233	15.43
547.431	15.44
547.63	15.59
547.828	15.46
548.027	15.54
548.225	15.43
548.423	15.6
548.622	15.64
548.82	15.7
549.019	15.71
549.217	15.94
549.415	15.93
549.614	15.97
549.812	16.05
550.01	16.06
550.209	16.04
550.407	16.15
550.605	16.19
550.803	16.33
551.002	16.41
551.2	16.44
551.398	16.57
551.596	16.71
551.794	16.83
551.993	17.01
552.191	17.11
552.389	17.09
552.587	17.11
552.785	17.11
552.983	17.12
553.181	17.29
553.379	17.43
553.577	17.52
553.775	17.67
553.973	17.75
554.171	17.84
554.369	17.84
554.567	17.84
554.765	17.9
554.963	18.04
555.161	18.04
555.359	18.22
555.557	18.44
555.755	18.52
555.952	18.66
556.15	18.75
556.348	18.84
556.546	18.99
556.744	19.04
556.941	19.14
557.139	19.26
557.337	19.29
557.535	19.29
557.732	19.44
557.93	19.51
558.128	19.74
558.325	19.9
558.523	20
558.721	20.22
558.918	20.21
559.116	20.13
559.313	20.13
559.511	20.32
559.708	20.31
559.906	20.46
560.104	20.66
560.301	20.91
560.498	20.94
560.696	21.04
560.893	21.23
561.091	21.32
561.288	21.52
561.486	21.66
561.683	21.84
561.88	21.96
562.078	22.09
562.275	22
562.473	22.06
562.67	22.25
562.867	22.36
563.064	22.51
563.262	22.67
563.459	22.83
563.656	22.88
563.853	22.99
564.051	22.97
564.248	23.2
564.445	23.32
564.642	23.38
564.839	23.46
565.036	23.8
565.234	24
565.431	24.06
565.628	24.26
565.825	24.39
566.022	24.44
566.219	24.41
566.416	24.49
566.613	24.56
566.81	24.66
567.007	24.61
567.204	24.61
567.401	24.72
567.598	24.76
567.795	24.75
567.991	24.86
568.188	25.1
568.385	25.24
568.582	25.48
568.779	25.67
568.976	25.85
569.172	25.98
569.369	26.07
569.566	26.09
569.763	26.21
569.96	26.4
570.156	26.4
570.353	26.42
570.55	26.44
570.746	26.56
570.943	26.45
571.14	26.51
571.336	26.69
571.533	26.86
571.729	26.91
571.926	27.03
572.123	27.17
572.319	27.21
572.516	27.15
572.712	27.13
572.909	27.34
573.105	27.46
573.302	27.55
573.498	27.69
573.695	27.7
573.891	27.66
574.087	27.63
574.284	27.57
574.48	27.49
574.677	27.65
574.873	27.7
575.069	27.8
575.266	27.96
575.462	28.03
575.658	28.12
575.854	28.24
576.051	28.25
576.247	28.29
576.443	28.37
576.639	28.33
576.835	28.28
577.032	28.31
577.228	28.28
577.424	28.34
577.62	28.24
577.816	28.21
578.012	28.16
578.208	28.17
578.404	28.23
578.6	28.3
578.796	28.43
578.993	28.46
579.189	28.45
579.384	28.37
579.58	28.34
579.776	28.36
579.972	28.24
580.168	28.15
580.364	28.12
580.56	28.32
580.756	28.27
580.952	28.26
581.148	28.37
581.343	28.43
581.539	28.23
581.735	28.19
581.931	28.33
582.127	28.4
582.322	28.39
582.518	28.56
582.714	28.54
582.909	28.42
583.105	28.28
583.301	28.13
583.496	28.14
583.692	28.03
583.888	28.01
584.083	28.14
584.279	28.36
584.474	28.25
584.67	28.41
584.866	28.48
585.061	28.36
585.257	28.33
585.452	28.28
585.648	28.09
585.843	28.08
586.039	27.97
586.234	27.9
586.429	27.83
586.625	27.96
586.82	27.86
587.015	27.92
587.211	27.84
587.406	27.91
587.601	27.89
587.797	27.83
587.992	27.78
588.187	27.95
588.383	28
588.578	27.97
588.773	28.11
588.968	28.22
589.163	28.21
589.359	28.1
589.554	28.06
589.749	28.18
589.944	28.19
590.139	28.2
590.334	28.25
590.529	28.43
590.724	28.41
590.919	28.43
591.114	28.4
591.309	28.61
591.504	28.64
591.699	28.47
591.894	28.5
592.089	28.44
592.284	28.32
592.479	28.31
592.674	28.38
592.869	28.46
593.064	28.64
593.259	28.75
593.454	28.81
593.648	28.93
593.843	28.99
594.038	28.93
594.233	28.89
594.428	28.86
594.622	28.88
594.817	28.89
595.012	29.05
595.206	29.12
595.401	29.31
595.596	29.47
595.79	29.5
595.985	29.61
596.18	29.73
596.374	29.7
596.569	29.67
596.763	29.72
596.958	29.61
597.153	29.65
597.347	29.72
597.542	29.97
597.736	30
597.931	30.14
598.125	30.28
598.319	30.45
598.514	30.36
598.708	30.37
598.903	30.37
599.097	30.38
599.291	30.27
599.486	30.28
599.68	30.36
599.874	30.51
600.069	30.46
600.263	30.49
600.457	30.49
600.651	30.54
600.846	30.33
601.04	30.4
601.234	30.33
601.428	30.42
601.622	30.48
601.817	30.65
602.011	30.57
602.205	30.77
602.399	30.72
602.593	30.68
602.787	30.63
602.981	30.7
603.175	30.74
603.369	30.58
603.563	30.65
603.757	30.77
603.951	30.71
604.145	30.63
604.339	30.84
604.533	30.67
604.727	30.47
604.921	30.5
605.115	30.41
605.309	30.32
605.502	30.32
605.696	30.27
605.89	30.17
606.084	30.16
606.278	30.03
606.471	29.98
606.665	29.86
606.859	29.78
607.053	29.7
607.246	29.82
607.44	29.79
607.634	29.84
607.827	29.88
608.021	29.68
608.214	29.53
608.408	29.45
608.602	29.4
608.795	29.22
608.989	29.34
609.182	29.16
609.376	29.15
609.569	29.09
609.763	29.06
609.956	28.92
610.15	28.93
610.343	28.77
610.537	28.61
610.73	28.61
610.923	28.46
611.117	28.34
611.31	28.29
611.504	28.32
611.697	28.18
611.89	28.03
612.083	27.96
612.277	27.88
612.47	27.75
612.663	27.51
612.856	27.45
613.05	27.39
613.243	27.27
613.436	27.06
613.629	27.13
613.822	27.17
614.015	27.02
614.209	26.83
614.402	26.95
614.595	26.87
614.788	26.73
614.981	26.75
615.174	26.66
615.367	26.43
615.56	26.19
615.753	26.16
615.946	25.97
616.139	26.02
616.332	26.06
616.525	26.15
616.718	26.1
616.911	26.11
617.103	26.21
617.296	26.19
617.489	26.13
617.682	26.09
617.875	26.13
618.067	25.96
618.26	25.69
618.453	25.77
618.646	25.7
618.838	25.51
619.031	25.54
619.224	25.59
619.417	25.41
619.609	25.44
619.802	25.41
619.994	25.31
620.187	25.34
620.38	25.28
620.572	25.2
620.765	25.2
620.957	25.08
621.15	24.86
621.342	24.87
621.535	24.87
621.727	24.85
621.92	24.78
622.112	24.87
622.305	24.93
622.497	24.78
622.69	24.68
622.882	24.65
623.074	24.66
623.267	24.49
623.459	24.43
623.651	24.33
623.844	24.34
624.036	24.3
624.228	24.28
624.42	24.29
624.613	24.36
624.805	24.45
624.997	24.36
625.189	24.36
625.381	24.4
625.574	24.35
625.766	24.1
625.958	24.07
626.15	24.12
626.342	24.02
626.534	23.98
626.726	24.13
626.918	24.2
627.11	24.06
627.302	23.95
627.494	23.89
627.686	23.81
627.878	23.66
628.07	23.58
628.262	23.63
628.454	23.65
628.646	23.65
628.838	23.69
629.029	23.6
629.221	23.58
629.413	23.49
629.605	23.5
629.797	23.28
629.989	23.41
630.18	23.39
630.372	23.33
630.564	23.19
630.755	23.38
630.947	23.31
631.139	23.17
631.33	23.11
631.522	23.15
631.714	22.99
631.905	22.88
632.097	22.89
632.289	22.93
632.48	22.82
632.672	22.79
632.863	22.64
633.055	22.64
633.246	22.66
633.438	22.47
633.629	22.4
633.821	22.51
634.012	22.48
634.203	22.32
634.395	22.44
634.586	22.51
634.777	22.39
634.969	22.25
635.16	22.35
635.351	22.33
635.543	22.22
635.734	22.24
635.925	22.26
636.117	22.18
636.308	22.07
636.499	22.04
636.69	21.85
636.881	21.8
637.073	21.88
637.264	21.85
637.455	21.78
637.646	21.94
637.837	22.04
638.028	21.77
638.219	21.86
638.41	21.87
638.601	21.84
638.792	21.8
638.983	21.73
639.174	21.46
639.365	21.5
639.556	21.41
639.747	21.26
639.938	21.44
640.129	21.51
640.32	21.3
640.511	21.27
640.701	21.38
640.892	21.26
641.083	21.31
641.274	21.37
641.465	21.35
641.655	21.22
641.846	21.11
642.037	21.05
642.228	20.91
642.418	20.99
642.609	20.77
642.8	20.76
642.99	20.64
643.181	20.81
643.372	20.68
643.562	20.77
643.753	20.74
643.943	20.72
644.134	20.56
644.324	20.47
644.515	20.38
644.705	20.4
644.896	20.45
645.086	20.42
645.277	20.42
645.467	20.43
645.658	20.26
645.848	20.21
646.038	20.23
646.229	20.23
646.419	20.1
646.61	20.1
646.8	20.01
646.99	20.02
647.18	19.98
647.371	20.08
647.561	19.95
647.751	19.9
647.941	19.75
648.132	19.67
648.322	19.73
648.512	19.86
648.702	19.9
648.892	19.89
649.082	19.91
649.272	19.66
649.462	19.56
649.653	19.44
649.843	19.38
650.033	19.34
650.223	19.34
650.413	19.4
650.603	19.36
650.793	19.3
650.983	19.16
651.172	19.1
651.362	18.92
651.552	18.89
651.742	18.75
651.932	18.81
652.122	18.81
652.312	18.87
652.502	18.89
652.691	18.91
652.881	18.81
653.071	18.72
653.261	18.46
653.45	18.29
653.64	18.28
653.83	18.15
654.019	18.2
654.209	18.31
654.399	18.42
654.588	18.4
654.778	18.39
654.968	18.14
655.157	18.01
655.347	17.75
655.536	17.59
655.726	17.47
655.915	17.29
656.105	17.16
656.294	16.99
656.484	16.63
656.673	16.35
656.863	16.35
657.052	16.13
657.241	15.99
657.431	15.89
657.62	15.69
657.809	15.44
657.999	15.25
658.188	14.99
658.377	14.93
658.567	14.82
658.756	14.63
658.945	14.42
659.134	14.26
659.324	14.05
659.513	13.94
659.702	13.65
659.891	13.66
660.08	13.57
660.269	13.31
660.458	13.2
660.648	13.25
660.837	12.93
661.026	12.85
661.215	12.74
661.404	12.41
661.593	12.33
661.782	12.08
661.971	11.92
662.16	11.94
662.349	11.92
662.538	11.58
662.726	11.76
662.915	11.62
663.104	11.28
663.293	11.22
663.482	11.23
663.671	11.01
663.86	10.71
664.048	10.65
664.237	10.55
664.426	10.36
664.615	10.26
664.803	10.35
664.992	10.4
665.181	10.26
665.369	10.08
665.558	10.03
665.747	9.88
665.935	9.86
666.124	9.75
666.312	9.79
666.501	9.63
666.69	9.45
666.878	9.29
667.067	9.22
667.255	9.27
667.444	9.52
667.632	9.68
667.82	9.74
668.009	9.83
668.197	9.75
668.386	9.57
668.574	9.68
668.762	9.59
668.951	9.41
669.139	9.38
669.327	9.15
669.516	9.08
669.704	9.15
669.892	9.29
670.08	9.37
670.269	9.44
670.457	9.38
670.645	9.17
670.833	9.16
671.021	9.11
671.21	9.11
671.398	9.21
671.586	9.25
671.774	9.2
671.962	9.17
672.15	9.09
672.338	8.97
672.526	9.03
672.714	8.92
672.902	8.93
673.09	9.16
673.278	9.35
673.466	9.4
673.654	9.81
673.842	9.82
674.03	9.92
674.218	9.88
674.405	9.87
674.593	9.75
674.781	10.02
674.969	9.98
675.157	10.12
675.344	10.18
675.532	10.09
675.72	10.13
675.908	10.21
676.095	9.96
676.283	10.2
676.471	10.46
676.658	10.46
676.846	10.49
677.033	10.79
677.221	10.71
677.409	10.64
677.596	10.59
677.784	10.66
677.971	10.7
678.159	10.88
678.346	11.09
678.534	11.16
678.721	11.45
678.909	11.49
679.096	11.5
679.283	11.71
679.471	11.87
679.658	11.89
679.846	12.19
680.033	12.53
680.22	12.39
680.408	12.67
680.595	12.8
680.782	12.8
680.969	12.81
681.157	12.88
681.344	12.81
681.531	12.86
681.718	12.87
681.905	13.09
682.093	13.41
682.28	13.73
682.467	14.02
682.654	14.27
682.841	14.2
683.028	14.54
683.215	14.7
683.402	14.66
683.589	15.01
683.776	15.37
683.963	15.47
684.15	15.83
684.337	16.04
684.524	16.07
684.711	16.27
684.898	16.3
685.085	16.35
685.271	16.84
685.458	17.39
685.645	17.53
685.832	18.02
686.019	18.36
686.205	18.61
686.392	18.69
686.579	19.03
686.766	19.38
686.952	19.75
687.139	20.25
687.326	20.53
687.512	21.12
687.699	21.29
687.886	21.56
688.072	21.58
688.259	22.24
688.445	22.56
688.632	22.78
688.818	23.68
689.005	24.23
689.191	24.63
689.378	25.25
689.564	26.24
689.751	26.22
689.937	26.8
690.124	27.12
690.31	27.5
690.496	27.68
690.683	28.53
690.869	29.16
691.055	29.84
691.242	30.74
691.428	31.52
691.614	32.15
691.8	32.78
691.987	33.21
692.173	33.55
692.359	34.23
692.545	34.81
692.731	35.09
692.918	35.85
693.104	36.32
693.29	36.92
693.476	37.36
693.662	38.27
693.848	38.8
694.034	39.6
694.22	40.11
694.406	40.88
694.592	41.44
694.778	41.9
694.964	42.23
695.15	42.57
695.336	42.87
695.522	43.35
695.708	43.91
695.894	44.52
696.08	44.96
696.265	45.48
696.451	45.85
696.637	46.71
696.823	46.98
697.009	47.87
697.194	48.55
697.38	49.12
697.566	49.34
697.751	49.95
697.937	50.39
698.123	50.72
698.308	51.54
698.494	52.02
698.68	52.66
698.865	52.97
699.051	53.74
699.236	53.96
699.422	54.47
699.607	54.58
699.793	55.22
699.978	55.16
700.164	55.39
700.349	56.14
700.535	56.66
700.72	56.66
700.906	57.49
701.091	58.23
701.276	58.29
701.462	59.24
701.647	60.57
701.832	60.57
702.018	60.88
702.203	61.42
702.388	61.29
702.573	60.81
702.759	61.46
702.944	61.24
703.129	61.24
703.314	61.8
703.499	62.37
703.684	62.73
703.87	63.58
704.055	64.41
704.24	64.46
704.425	64.47
704.61	64.58
704.795	64.59
704.98	64.3
705.165	64.4
705.35	64.74
705.535	64.6
705.72	65.33
705.905	65.63
706.09	66.29
706.275	66.22
706.459	66.36
706.644	66.13
706.829	66.75
707.014	66.7
707.199	67.22
707.384	67.96
707.568	68.06
707.753	68.51
707.938	69.07
708.123	69.06
708.307	68.92
708.492	69.07
708.677	68.07
708.861	67.58
709.046	67.54
709.231	67.9
709.415	68.31
709.6	69.05
709.784	68.86
709.969	69.63
710.153	69.33
710.338	69.49
710.522	69.35
710.707	70.34
710.891	69.85
711.076	70.39
711.26	69.67
711.445	70.26
711.629	70.12
711.813	70.75
711.998	71.05
712.182	71.3
712.366	71.41
712.551	71.61
712.735	70.96
712.919	70.82
713.103	71.52
713.288	71.11
713.472	71.24
713.656	72.49
713.84	73.06
714.024	72.93
714.208	73.2
714.393	73.3
714.577	73.01
714.761	72.79
714.945	73.13
715.129	72.66
715.313	72.5
715.497	72.47
715.681	72.87
715.865	72.91
716.049	73.63
716.233	74.02
716.417	74.08
716.601	74.08
716.785	73.81
716.968	74.48
717.152	74.75
717.336	74.63
717.52	74.22
717.704	75.06
717.888	75.18
718.071	74.79
718.255	75.49
718.439	75.68
718.622	75.69
718.806	75.23
718.99	74.99
719.174	74.67
719.357	75.26
719.541	74.94
719.724	75.34
719.908	76.84
720.092	77.29
720.275	77.53
720.459	78.22
720.642	77.71
720.826	77.05
721.009	76.69
721.193	75.3
721.376	74.75
721.559	76.04
721.743	76.17
721.926	76.5
722.11	76.5
722.293	76.37
722.476	74.45
722.66	74.42
722.843	74.47
723.026	75.11
723.21	75.4
723.393	77.33
723.576	77.39
723.759	76.63
723.942	77.12
724.126	77.28
724.309	76.74
724.492	76.79
724.675	78.04
724.858	78.42
725.041	79.05
725.224	79.06
725.407	78.57
725.59	77.81
725.774	77
725.957	76.31
726.14	76.12
726.322	76.72
726.505	76.78
726.688	77.65
726.871	77.38
727.054	78.17
727.237	78.24
727.42	79.26
727.603	79.58
727.786	80.24
727.968	80.68
728.151	80.38
728.334	79.82
728.517	79.7
728.699	80.11
728.882	78.74
729.065	79.43
729.248	80.17
729.43	80.53
729.613	81.32
729.796	82.71
729.978	81.83
730.161	80.71
730.343	81.1
730.526	81
730.708	80.39
730.891	81.23
731.073	81.51
731.256	80.22
731.438	80.35
731.621	80.55
731.803	81.82
731.986	82.43
732.168	83.26
732.35	83.2
732.533	83.34
732.715	82.19
732.898	83.26
733.08	83.19
733.262	82.55
733.444	82.01
733.627	81.52
733.809	81.31
733.991	82.29
734.173	82.78
734.355	84.02
734.538	84.84
734.72	83.76
734.902	83.7
735.084	82.95
735.266	83.2
735.448	83.16
735.63	83.39
735.812	82.74
735.994	84.41
736.176	83.97
736.358	84.01
736.54	85.63
736.722	85.91
736.904	85.2
737.086	84.66
737.268	85.9
737.45	85.78
737.632	85.8
737.814	84.9
737.995	85.8
738.177	85.52
738.359	83.95
738.541	84.35
738.723	84.85
738.904	84.55
739.086	84.8
739.268	85.19
739.449	84.56
739.631	85.55
739.813	85.92
739.994	86.04
740.176	86.95
740.358	87.16
740.539	87.68
740.721	87.57
740.902	88.16
741.084	88.21
741.265	88.13
741.447	87.96
741.628	88.27
741.81	86.33
741.991	86.29
742.172	87.7
742.354	88.23
742.535	88.25
742.717	90.88
742.898	90.56
743.079	91.55
743.261	90.47
743.442	89.97
743.623	87.72
743.804	88.69
743.986	88.07
744.167	86.45
744.348	87.02
744.529	88
744.71	87.25
744.891	86.48
745.073	87.75
745.254	87.95
745.435	87.91
745.616	86.35
745.797	85.3
745.978	85.22
746.159	84.91
746.34	83.66
746.521	85.14
746.702	85.79
746.883	85.82
747.064	83.23
747.245	82.96
747.426	83.35
747.606	83.74
747.787	84.26
747.968	86.53
748.149	89.24
748.33	89.37
748.51	88.53
748.691	86.41
748.872	88.07
749.053	85.58
749.233	84.79
749.414	84.62
749.595	87.26
749.775	84.91
749.956	83.71
750.137	82.49
750.317	83.43
750.498	84.07
750.678	84.08
750.859	85.26
751.04	87.04
751.22	86.22
751.4	83.82
751.581	83.85
751.761	85.57
751.942	86.33
752.122	87.09
752.303	86.83
752.483	87.19
752.663	86.98
752.844	86.8
753.024	87.13
753.204	87.68
753.385	86.98
753.565	85.05
753.745	84.28
753.925	84.36
754.106	86.01
754.286	87.07
754.466	86.48
754.646	88.05
754.826	87.9
755.006	85.18
755.187	85.68
755.367	87.45
755.547	87.4
755.727	87.26
755.907	86.79
756.087	88.02
756.267	87.29
756.447	86.1
756.627	84.65
756.807	87.4
756.987	85.75
757.167	87.83
757.346	86.86
757.526	85.64
757.706	85.49
757.886	85.02
758.066	85.22
758.246	87.95
758.425	91.21
758.605	89.7
758.785	89.64
758.965	88.26
759.144	83.78
759.324	82.5
759.504	84.39
759.683	83.05
759.863	81.48
760.043	83.32
760.222	83.18
760.402	81.63
760.581	85.17
760.761	87.43
760.94	84.52
761.12	84.42
761.299	86.45
761.479	84.58
761.658	82.7
761.838	84.47
762.017	85.58
762.197	83.56
762.376	84.07
762.555	86.02
762.735	88.37
762.914	85.07
763.093	86.86
763.273	84.36
763.452	83.99
763.631	81.05
763.81	80.18
763.99	78.43
764.169	80.15
764.348	76.53
764.527	77.71
764.706	82.24
764.885	83.63
765.064	82.17
765.243	83.95
765.423	83.25
765.602	82.34
765.781	79.43
765.96	77.22
766.139	77.56
766.318	78.88
766.497	77.91
766.676	80.55
766.854	84.45
767.033	83.99
767.212	83.51
767.391	82.61
767.57	83.42
767.749	82.96
767.928	84.27
768.106	81.21
768.285	80.65
768.464	80.42
768.643	81.03
768.821	81.11
769	84.48
769.179	85.31
769.357	79.41
769.536	75.95
769.715	77.71
769.893	79.06
770.072	78.99
770.25	79.11
770.429	80.9
770.607	79.68
770.786	77.26
770.964	78
771.143	82.44
771.321	85.6
771.5	85.3
771.678	83.86
771.857	80.98
772.035	82.73
772.213	79.72
772.392	74.68
772.57	78.39
772.748	82.14
772.927	77.35
773.105	77.15
773.283	83.47
773.461	82.85
773.64	80.87
773.818	80.25
773.996	82.55
774.174	81.59
774.352	76.75
774.531	76.75
774.709	80.76
774.887	78.43
775.065	74.86
775.243	77.28
775.421	79.23
775.599	81.47
775.777	79.56
775.955	77.25
776.133	76.96
776.311	73.41
776.489	67.88
776.667	69.56
776.844	75.24
777.022	72.29
777.2	72.36
777.378	72.76
777.556	75.66
777.734	74.85
777.911	78.19
778.089	80.34
778.267	84.3
778.445	78.64
778.622	74.82
778.8	75.45
778.978	77.2
779.155	74.93
779.333	76.56
779.511	75.11
779.688	76.55
779.866	69.07
780.043	65.79
780.221	66.91
780.398	66.18
780.576	66.23
780.753	72.85
780.931	73.91
781.108	71.96
781.286	78.15
781.463	70.9
781.64	67.44
781.818	72.87
781.995	76.18
782.172	74.55
782.35	77.94
782.527	80.68
782.704	76.96
782.882	77.6
783.059	76.36
783.236	79.05
783.413	77.61
783.59	76.91
783.768	70.71
783.945	70.07
784.122	72.04
784.299	71.34
784.476	71.35
784.653	76.11
784.83	73.53
785.007	64.04
785.184	66.54
785.361	68.21
785.538	70.63
785.715	74.16
785.892	79.32
786.069	80.03
786.246	80.73
786.423	74.18
786.6	72.65
786.776	75.24
786.953	73.1
787.13	71.32
787.307	73.16
787.484	78.84
787.66	77.44
787.837	73.78
788.014	74.05
788.191	70.04
788.367	63.91
788.544	66.01
788.721	67.5
788.897	69.06
789.074	74.43
789.25	72.25
789.427	71.36
789.603	69.76
789.78	72.26
789.956	61.04
790.133	64.02
790.309	59.9
790.486	65.2
790.662	60.93
790.839	69.06
791.015	72.43
791.192	70.25
791.368	70.82
791.544	66.36
791.721	71.15
791.897	68.01
792.073	70.84
792.249	65.9
792.426	69.5
792.602	66.48
792.778	61.99
792.954	61.14
793.13	57.56
793.307	56.47
793.483	50.38
793.659	50.43
793.835	49.86
794.011	55.1
794.187	48.89
794.363	47.6
794.539	54.34
794.715	51.09
794.891	45.45
795.067	47.55
795.243	59.54
795.419	60.21
795.595	61.55
795.771	69.98
795.947	76.32
796.122	60.83
796.298	62.21
796.474	69.11
796.65	65.22
796.826	62.07
797.001	73.85
797.177	62.4
797.353	67.96
797.529	72.35
797.704	66.21
797.88	58.44
798.056	59.74
798.231	46.53
798.407	49.42
798.582	55.6
798.758	66.8
798.934	79.65
799.109	82.73
799.285	70.71
799.46	77.66
799.636	73.73
799.811	66.71
799.986	70.87
800.162	82.74
800.337	78.68
800.513	72.66
800.688	73.53
800.863	77.3
801.039	67.92
801.214	60.76
801.389	66.84
801.565	66.69
801.74	58.88
801.915	61.64
802.09	68.1
802.265	68.22
802.441	69.69
802.616	70.31
802.791	73.05
802.966	74.23
803.141	73.64
803.316	59.17
803.491	60.46
803.666	60.36
803.841	56.38
804.016	51.93
804.191	63.69
804.366	59.14
804.541	59.06
804.716	47.09
804.891	41.29
805.066	47.47
805.241	54.93
805.416	51.63
805.591	54.38
805.765	61.22
805.94	62.57
806.115	58.51
806.29	53.59
806.464	66.86
806.639	59.24
806.814	41.88
806.989	27.5
807.163	38.71
807.338	31.54
807.512	38.34
807.687	37.44
807.862	57.84
808.036	59.1
808.211	56.7
808.385	67.49
808.56	82.47
808.734	78.41
808.909	76.48
809.083	72.17
809.258	66.43
809.432	66.43
809.606	46.81
809.781	49.99
809.955	65.52
810.13	64.65
810.304	49.41
810.478	55.42
810.652	67.35
810.827	70.73
811.001	72.04
811.175	71.7
811.349	76.49
811.524	57.58
811.698	39.87
811.872	37.8
812.046	45.42
812.22	51.46
812.394	47.13
812.568	51.67
812.742	53.08
812.916	44.61
813.09	38.52
813.264	40.31
813.438	44.92
813.612	38.71
813.786	29.61
813.96	36.46
814.134	48.83
814.308	55.68
814.482	63.02
814.656	82.03
814.83	90.89
815.003	90.47
815.177	79.64
815.351	71.85
815.525	79.48
815.698	66.34
815.872	48.18
816.046	43.41
816.219	48.31
816.393	41.91
816.567	51.4
816.74	53.83
816.914	69.92
817.088	68.6
817.261	59.53
817.435	41.85
817.608	35.65
817.782	22.12
817.955	19.93
818.129	8.68
818.302	21.1
818.475	47.25
818.649	50.24
818.822	30
818.996	63.17
819.169	67.04
819.342	52.43
819.516	59.12
819.689	89.31
819.862	66.79
820.035	49.27
820.209	34.04
820.382	36.8
820.555	35.85
820.728	29.79
820.901	33.05
821.075	53.41
821.248	64.6
821.421	57.28
821.594	50.11
821.767	75.12
821.94	98.03
822.113	54.61
822.286	47.16
822.459	78.49
822.632	67.89
822.805	44.31
822.978	54.96
823.151	60.91
823.324	19.01
823.496	-20.36
823.669	5.21
823.842	11.35
824.015	-8.58
824.188	-10.88
824.361	-11.59
824.533	-38.11
824.706	-21.53
824.879	-9.55
825.051	40.12
825.224	48.8
825.397	55.86
825.569	37.23
825.742	45.76
825.915	46.43
826.087	43.61
826.26	31.32
826.432	35.57
826.605	45.45
826.777	40.2
826.95	31.67
827.122	30.2
827.295	42.35
827.467	32.87
827.64	-2.17
827.812	-5.45
827.984	10.85
828.157	-0.4
828.329	-20.93
828.501	-10.45
828.674	11.61
828.846	6.56
829.018	15.24
829.19	23.92
829.363	44
829.535	35.13
829.707	40.87
829.879	8.5
830.051	-5.71
830.223	4.11
830.395	-21.47
830.568	-38.65
830.74	-11.56
830.912	29.78
831.084	-0.12
831.256	-1.68
831.428	-11.02
831.6	-17.97
831.772	-56.83
831.943	-49.38
832.115	-21.67
832.287	18.8
832.459	2.33
832.631	14.48
832.803	38.73
832.975	41.19
833.146	37.76
833.318	50.93
833.49	58.48
833.662	45.2
833.833	21.73
834.005	21.91
834.177	41.79
834.348	24.51
834.52	0.42
834.692	18.91
834.863	2.16
835.035	-17.92
835.206	-16.06
835.378	5.75
835.549	-18.87
835.721	5.05
835.892	-18.19
836.064	-11.69
836.235	0.97
836.407	47.39
836.578	20.12
836.749	51.42
836.921	47.56
837.092	23.07
837.264	-42.98
837.435	-64.52
837.606	-50.81
837.777	-8.19
837.949	21.56
838.12	13.35
838.291	25.25
838.462	13.71
838.633	-6.67
838.805	-28.69
838.976	7.64
839.147	14.04
839.318	-26.37
839.489	-54.35
839.66	-34.4
839.831	-42.27
840.002	-66.53
840.173	-67.65
840.344	-52.28
840.515	-43.35
840.686	-63.27
840.857	-76.6
841.028	-85.21
841.199	-69.08
841.369	-91.71
841.54	-154.66
841.711	-72.66
841.882	-34.31
842.053	-44.03
842.223	-75.51
842.394	-11.27
842.565	-7.68
842.736	9.59
842.906	5.86
843.077	25.7
843.248	42.03
843.418	29.17
843.589	3.2
843.759	43.46
843.93	60.14
844.101	39.75
844.271	37.98
844.442	81.59
844.612	96.53
844.783	71.27
844.953	45.7
845.123	82.68
845.294	44.53
845.464	2.41
845.635	19.85
845.805	57.43
845.975	51.74
846.146	19.71
846.316	3.49
846.486	18.7
846.656	7.66
846.827	-38.06
846.997	-15.98
847.167	20.57
847.337	-16.18
847.507	-22.58
847.677	-17.77
847.848	15.08
848.018	11.87
848.188	27.14
848.358	7.85
848.528	31.27
848.698	6.31
848.868	-19.36
849.038	-33.5
849.208	-3.3
849.378	2.19
849.548	-43.48
849.718	-18.86
849.887	14.01
850.057	-76.47
850.227	-124.58
850.397	-94.7
850.567	-97.14
850.737	-94.87
850.906	-102.74
851.076	-112.83
851.246	-125.81
851.415	-87.28
851.585	-53.04
851.755	-34.32
851.924	18.24
852.094	39.63
852.264	19.46
852.433	-24.89
852.603	1.54
852.772	-8.79
852.942	-48.24
853.111	-74.98
853.281	9.71
853.45	19.67
853.62	-30.6
853.789	-80.1
853.959	-10.63
854.128	-70.57
854.297	-142.34
854.467	-133.06
854.636	-58.94
854.805	-57.3
854.975	-80.58
855.144	-53.76
855.313	18.17
855.482	-4.26
855.652	-62.45
855.821	-25.62
855.99	39.25
856.159	46.72
856.328	29.85
856.497	33.78
856.667	53.03
856.836	30.96
857.005	-68.55
857.174	-127.73
857.343	-113.67
857.512	-58.75
857.681	-166.9
857.85	-152.47
858.019	-95.38
858.188	-79.22
858.356	-134.66
858.525	-139.86
858.694	-108.85
858.863	-93.72
859.032	-132.1
859.201	-114.41
859.369	-48.46
859.538	-24.25
859.707	-61.75
859.876	-39.04
860.044	-5.48
860.213	-12.16
860.382	-48.84
860.55	-18.3
860.719	33.21
860.888	24.69
861.056	-8.94
861.225	-39.32
861.393	8.64
861.562	42.93
861.73	11
861.899	12.33
862.067	-3.08
862.236	4.9
862.404	-72.53
862.572	-111.34
862.741	-61.95
862.909	-58.47
863.078	-86.38
863.246	-92.2
863.414	-57.47
863.582	-118.72
863.751	-90.24
863.919	-104.68
864.087	-5.69
864.255	-4.59
864.424	-41.3
864.592	-16.55
864.76	16.57
864.928	5.68
865.096	-5.21
865.264	10.37
865.432	-8.12
865.6	23.56
865.768	-97.82
865.936	-183.46
866.104	-107.39
866.272	-79.41
866.44	-135.83
866.608	-130.45
866.776	-151.99
866.944	-277.81
867.112	-454.24
867.28	-684.3
867.448	-1155.99
867.615	-453.51
867.783	-111.25
867.951	-103.78
868.119	20.65
868.286	-4.73
868.454	-53.13
868.622	-156.16
868.789	-153.35
868.957	-108.37
869.125	-130.95
869.292	-132.88
869.46	-80.01
869.627	-29.06
869.795	-97.81
869.963	-76.77
870.13	-3.38
870.298	29.58
870.465	-51.82
870.632	-44.13
870.8	-33.44
870.967	-87.08
871.135	-222.95
871.302	-137.75
871.469	-79.08
871.637	-68.93
871.804	-65.76
871.971	-59.9
872.139	-39.86
872.306	-8.89
872.473	-36.79
872.64	-75.21
872.807	-12.41
872.975	-9.96
873.142	-104.89
873.309	-79.95
873.476	68.05
873.643	83.87
873.81	56.28
873.977	44.2
874.144	68.1
874.311	44.6
874.478	-83.11
874.645	-144.88
874.812	-351.26
874.979	20176.19
875.146	-695.43
875.313	-179.93
875.48	-48.24
875.647	-32.9
875.813	-85.89
875.98	-96.99
876.147	-152.01
876.314	-128.64
876.481	-218.66
876.647	-236.34
876.814	-145.93
876.981	-73.29
877.147	-235.97
877.314	-274.3
877.481	-131.05
877.647	-25.91
877.814	-149.41
877.98	-119.99
878.147	27.6
878.314	32
878.48	-78.97
878.647	-94.08
878.813	38.43
878.979	25.02
879.146	-12.87
879.312	10.55
879.479	25.35
879.645	-0.02
879.811	-91.41
879.978	-106.65
880.144	-86.21
880.31	-117.14
880.477	-240.41
880.643	-196.55
880.809	-139.43
880.975	-79.74
881.142	-104.61
881.308	-55.54
881.474	-6.04
881.64	-0.97
881.806	-55.41
881.972	-13.53
882.138	6.83
882.304	18.07
882.47	-74.89
882.636	-158.79
882.802	-147.15
882.968	-62.61
883.134	-165.35
883.3	-183.86
883.466	60.29
883.632	101.42
883.798	-31.97
883.964	-41.82
884.129	-38.61
884.295	-76.67
884.461	-111.6
884.627	-140.77
884.793	-89.79
884.958	-39.73
885.124	-108.71
885.29	-140.44
885.455	-63.07
885.621	-70.77
885.787	-292.45
885.952	-123.24
886.118	-109.18
886.283	-118.42
886.449	-181.65
886.614	-111.59
886.78	-104.04
886.945	-86.4
887.111	-295.58
887.276	-279.88
887.442	-600.65
887.607	-456.85
887.773	-550.16
887.938	-352.53
888.103	-222.8
888.269	-95.28
888.434	-58
888.599	-36.25
888.764	38.37
888.93	60.08
889.095	8.17
889.26	-52.46
889.425	12.13
889.59	15.44
889.756	-30.7
889.921	-0.52
890.086	54.29
890.251	37.67
890.416	-58.28
890.581	-70.24
890.746	-23.09
890.911	-2.23
891.076	-68.84
891.241	-92.86
891.406	-62.6
891.571	-9.03
891.736	-65.19
891.901	-111.79
892.065	-57.41
892.23	-40.98
892.395	-160.84
892.56	-209.25
892.725	-20.53
892.889	0.52
893.054	-113.91
893.219	-164.48
893.384	-177.9
893.548	-298.33
893.713	-399.24
893.878	-346.69
