Data from Ofra_PP_Phys_2CX12O_Reflection_3.txt Node
Date: Sat Jul 24 20:07:03 EDT 2021
User: USUARIO
Spectrometer: FLMT01687
Trigger mode: 0
Integration Time (sec): 1.100000E0
Scans to average: 2
Electric dark correction enabled: true
Nonlinearity correction enabled: false
Boxcar width: 2
XAxis mode: Wavelengths
Number of Pixels in Spectrum: 3648
>>>>>Begin Spectral Data<<<<<
179.494	620.03
179.716	816.14
179.937	1421.04
180.158	1270.32
180.38	693.43
180.601	-742.66
180.823	56.21
181.044	737.98
181.265	28.96
181.486	91.14
181.708	-11.06
181.929	-1349.33
182.15	59.44
182.372	-83.37
182.593	32266.67
182.814	4.1
183.035	90.26
183.257	73.8
183.478	4.65
183.699	15.93
183.92	-10.42
184.141	13.12
184.363	-29.79
184.584	37.41
184.805	28.71
185.026	52.84
185.247	59.28
185.468	36.72
185.689	33.82
185.91	50.79
186.132	56.9
186.353	33.1
186.574	71.82
186.795	60.38
187.016	6.66
187.237	12.47
187.458	12.33
187.679	-69.19
187.9	7.02
188.121	40.27
188.342	43.79
188.563	61.09
188.784	98.05
189.005	94.54
189.226	101.26
189.447	96.91
189.667	83.97
189.888	49.2
190.109	39.55
190.33	7.01
190.551	-20.88
190.772	-29.1
190.993	-37.75
191.214	-47.11
191.434	-63.09
191.655	-5.28
191.876	-2.68
192.097	1.42
192.318	13.95
192.538	5.06
192.759	-9.16
192.98	-10
193.201	4.51
193.421	-34.82
193.642	-8.33
193.863	-10.76
194.083	-34.88
194.304	-34
194.525	-10.03
194.745	-7.87
194.966	-38.17
195.187	-46.99
195.407	-85.54
195.628	-102.51
195.848	-111.33
196.069	-120.01
196.29	-98.66
196.51	-154.4
196.731	-156.36
196.951	-137.46
197.172	-108.35
197.392	-72.19
197.613	-27.06
197.833	-21.47
198.054	-31.62
198.274	-9
198.495	-48.53
198.715	4.58
198.936	-19.14
199.156	-10.7
199.377	-46.75
199.597	-35.69
199.817	-74.25
200.038	-16.52
200.258	-0.39
200.479	54.64
200.699	61.75
200.919	62.18
201.14	-1.18
201.36	-11.65
201.58	-23.21
201.801	-30.66
202.021	-31.45
202.241	19.04
202.461	-4.57
202.682	-20.62
202.902	22.6
203.122	17.18
203.342	12.22
203.563	22.03
203.783	37.29
204.003	-52.85
204.223	-166.29
204.443	-86.88
204.663	-44.54
204.884	-74.55
205.104	-1.63
205.324	62.55
205.544	55.65
205.764	35.08
205.984	75.53
206.204	60.21
206.424	57.08
206.644	29.7
206.864	48.24
207.084	16.99
207.304	47.43
207.525	-7.24
207.745	9.21
207.964	-4.8
208.184	12.61
208.404	-11.14
208.624	-1.48
208.844	-5.41
209.064	-36.22
209.284	-47.65
209.504	-48.52
209.724	-30.61
209.944	-59.88
210.164	-9.1
210.384	27.02
210.604	39.95
210.823	-20.1
211.043	-28.37
211.263	-23.73
211.483	-58.12
211.703	-66.13
211.922	-22.41
212.142	33.87
212.362	41.82
212.582	26.81
212.801	29.47
213.021	13.5
213.241	-1.91
213.461	-43.17
213.68	-51.57
213.9	-71.69
214.12	-81.89
214.339	-103.7
214.559	-85.77
214.779	-70.74
214.998	-24.08
215.218	-21.34
215.438	-0.74
215.657	-13.58
215.877	-4.79
216.096	-0.55
216.316	32.22
216.535	18.53
216.755	36.29
216.974	30.56
217.194	18.54
217.413	-17.72
217.633	-12.16
217.852	-73.92
218.072	-86.41
218.291	-109.16
218.511	-60.28
218.73	-108.43
218.95	-91.87
219.169	-73.48
219.389	-89.04
219.608	-108.85
219.827	-50.03
220.047	-35.56
220.266	-32.92
220.485	-22.08
220.705	1.03
220.924	-32.64
221.143	15.76
221.363	-33.9
221.582	7.93
221.801	9.3
222.021	46.28
222.24	24.93
222.459	74.52
222.678	51.02
222.897	11.29
223.117	-16.96
223.336	-16.85
223.555	2.14
223.774	33.32
223.993	75.89
224.213	162.69
224.432	111.15
224.651	129.47
224.87	90.02
225.089	81.11
225.308	54.87
225.527	79.39
225.746	52.53
225.965	36.94
226.184	16.19
226.404	32.88
226.623	2.75
226.842	7.44
227.061	43.21
227.28	55.65
227.499	48.9
227.718	73.99
227.936	68.11
228.155	44.37
228.374	12.29
228.593	11.18
228.812	-6.29
229.031	14.15
229.25	-2.47
229.469	28.24
229.688	39.34
229.907	52.61
230.125	52.95
230.344	58.64
230.563	46.77
230.782	52.15
231.001	-1.15
231.22	-10.42
231.438	-19.35
231.657	11.19
231.876	0.65
232.095	41.33
232.313	41.66
232.532	37.53
232.751	32.16
232.969	28.91
233.188	23.35
233.407	11.8
233.625	4.25
233.844	-16.24
234.063	-43.68
234.281	-18.79
234.5	-0.56
234.719	12.34
234.937	35.52
235.156	55.98
235.374	49.01
235.593	64.75
235.811	58.03
236.03	57.04
236.249	34.23
236.467	26.61
236.686	-3.73
236.904	9.33
237.123	-53.29
237.341	-35.14
237.559	-43.31
237.778	-32.05
237.996	-45.84
238.215	-6.98
238.433	-10.09
238.652	16.92
238.87	-17.89
239.088	5.56
239.307	20.91
239.525	10.73
239.743	-30.75
239.962	3.06
240.18	-23.18
240.398	-54.43
240.617	-63.43
240.835	-18.88
241.053	-50.81
241.271	-16.33
241.49	9.44
241.708	14.9
241.926	12.06
242.144	19.45
242.363	7.65
242.581	-14.01
242.799	2.77
243.017	-18
243.235	-16.42
243.453	1.45
243.672	8.21
243.89	31.57
244.108	46.63
244.326	53.48
244.544	44.33
244.762	29.46
244.98	10.4
245.198	12.58
245.416	-11.16
245.634	-18.32
245.852	17.13
246.07	8.9
246.288	0.13
246.506	12.02
246.724	41.69
246.942	30.82
247.16	51.34
247.378	62.68
247.596	72.06
247.814	51.33
248.032	11.48
248.25	-3.88
248.468	-12.18
248.685	0.73
248.903	2.02
249.121	18.06
249.339	-15.81
249.557	-14.81
249.775	-19.03
249.992	-82.25
250.21	-90.6
250.428	-45.42
250.646	-47.29
250.863	-45.98
251.081	-16.68
251.299	19.65
251.517	6.39
251.734	12.97
251.952	1.9
252.17	25.18
252.387	28.74
252.605	20.13
252.823	16.6
253.04	38.56
253.258	33.82
253.475	32.65
253.693	55.67
253.911	73.29
254.128	60.4
254.346	63.16
254.563	37.61
254.781	20.83
254.998	11.57
255.216	1.73
255.433	-8.55
255.651	18.05
255.868	26.05
256.086	23.52
256.303	30.13
256.521	33.25
256.738	12.18
256.956	-7.73
257.173	10.73
257.39	9.86
257.608	8.54
257.825	16.79
258.043	36.03
258.26	28.18
258.477	28.38
258.695	34.28
258.912	7.13
259.129	-7.34
259.346	-38.72
259.564	-41.71
259.781	-27.01
259.998	-10.52
260.216	19.35
260.433	41.42
260.65	29.24
260.867	31.03
261.084	21.2
261.302	17.78
261.519	22.62
261.736	12.91
261.953	2.77
262.17	22.15
262.387	14.11
262.604	0.63
262.822	5.18
263.039	2.56
263.256	-19.82
263.473	-9.05
263.69	-20.06
263.907	7.66
264.124	27.17
264.341	64.7
264.558	54.5
264.775	56.71
264.992	52.06
265.209	29.14
265.426	3.84
265.643	1.31
265.86	2.51
266.077	21.61
266.294	5.27
266.51	16.9
266.727	6.97
266.944	22.33
267.161	-11.28
267.378	9.94
267.595	11.97
267.812	-13.46
268.028	-13.86
268.245	4.15
268.462	-6.68
268.679	-4.66
268.896	36.55
269.112	28.36
269.329	27.89
269.546	39.07
269.763	35.02
269.979	27.16
270.196	7.99
270.413	-0.35
270.629	-16.99
270.846	-13.6
271.063	2.56
271.279	-9.9
271.496	-29.06
271.712	-19.76
271.929	-17.96
272.146	-23.1
272.362	-0.98
272.579	47.36
272.795	48.45
273.012	59.3
273.228	49.36
273.445	34.48
273.661	-8.5
273.878	-87.75
274.094	-97.65
274.311	-110.86
274.527	-66.97
274.744	-39.1
274.96	34.79
275.177	42.22
275.393	42.05
275.609	33.03
275.826	37.49
276.042	23.39
276.259	26.45
276.475	17.41
276.691	26.17
276.908	6.62
277.124	27.01
277.34	20.77
277.557	27.48
277.773	19.91
277.989	29.95
278.205	31.66
278.422	24.8
278.638	31.57
278.854	37.22
279.07	26.98
279.286	-15.94
279.503	-22.38
279.719	-29.56
279.935	-36.59
280.151	-39.56
280.367	-2.62
280.583	11.28
280.799	13.35
281.016	15.43
281.232	20.82
281.448	22.53
281.664	18.56
281.88	17.95
282.096	6.95
282.312	26.56
282.528	28.43
282.744	45.54
282.96	50.71
283.176	61.22
283.392	46.85
283.608	47.39
283.824	28.09
284.04	25.42
284.256	50.21
284.471	39.15
284.687	31.45
284.903	36.12
285.119	54.27
285.335	6.77
285.551	26.04
285.767	23.69
285.982	16.23
286.198	0.29
286.414	19.47
286.63	8.28
286.846	21.65
287.061	4.23
287.277	5.76
287.493	15.18
287.709	19.68
287.924	14.78
288.14	48.39
288.356	49.07
288.571	48.14
288.787	32.9
289.003	41.99
289.218	18.66
289.434	-20.88
289.65	4.24
289.865	17.74
290.081	5.52
290.296	11.02
290.512	19.75
290.727	10.89
290.943	-0.88
291.159	2.76
291.374	6.82
291.59	-13.13
291.805	-19.89
292.021	0.23
292.236	-11.86
292.451	-9.96
292.667	7.26
292.882	21.42
293.098	23.77
293.313	14.96
293.529	2.23
293.744	-14.94
293.959	-32.37
294.175	-33.32
294.39	5.62
294.605	25.12
294.821	53.28
295.036	45.46
295.251	54.2
295.467	26.03
295.682	24.22
295.897	1.47
296.112	4.73
296.328	-0.3
296.543	-1.03
296.758	-10.59
296.973	25.46
297.188	61.28
297.404	33.71
297.619	42.82
297.834	34.22
298.049	22.54
298.264	-8.31
298.479	29.52
298.694	36.99
298.909	62.11
299.125	63.25
299.34	74.34
299.555	47.13
299.77	35.48
299.985	-30.87
300.2	-43.93
300.415	-78.73
300.63	-54.56
300.845	-47.62
301.06	-36.53
301.275	-29.77
301.49	-9.01
301.704	-10.06
301.919	-25.81
302.134	-12.98
302.349	13.04
302.564	-5.95
302.779	7.45
302.994	43.39
303.209	48.33
303.423	29.65
303.638	54.45
303.853	16.91
304.068	-42.75
304.283	-35.58
304.497	-18.92
304.712	-9.44
304.927	11.12
305.142	13.02
305.356	20.25
305.571	26.27
305.786	14.67
306	6.11
306.215	29.57
306.43	9.53
306.644	17.2
306.859	23.04
307.074	24.51
307.288	-4.73
307.503	-9.36
307.717	-28.83
307.932	-27.34
308.147	-37.43
308.361	-0.05
308.576	3.36
308.79	-27.02
309.005	-4.34
309.219	4.09
309.434	3.06
309.648	-17.06
309.863	15.39
310.077	-2.59
310.292	-8.66
310.506	-28.4
310.72	12.04
310.935	27.85
311.149	23.24
311.364	30.53
311.578	54.92
311.792	34.92
312.007	37.79
312.221	15.75
312.435	17.41
312.649	-26.19
312.864	-9.6
313.078	-27.92
313.292	14.58
313.507	10.38
313.721	21.06
313.935	20.44
314.149	37.06
314.363	9.7
314.578	-8.06
314.792	-10.54
315.006	11.04
315.22	11.73
315.434	18.17
315.648	34.89
315.862	30.8
316.077	18.45
316.291	15.64
316.505	23.63
316.719	40.65
316.933	10.15
317.147	29.76
317.361	-5
317.575	-17.04
317.789	-27.66
318.003	-15.02
318.217	-8.91
318.431	22.53
318.645	42.81
318.859	30.89
319.073	52.58
319.287	32.6
319.5	-2.08
319.714	-41.57
319.928	-40.63
320.142	-50.34
320.356	-6.23
320.57	30.46
320.784	39.42
320.997	43.09
321.211	41.24
321.425	7.02
321.639	-33.37
321.853	-22.91
322.066	-18.62
322.28	-38.04
322.494	-24.65
322.707	22.53
322.921	10.14
323.135	5.53
323.349	15.45
323.562	-5.71
323.776	-34.98
323.989	-31.16
324.203	-39.04
324.417	-28.12
324.63	-41.11
324.844	-63.43
325.057	-68.31
325.271	-71.14
325.485	-58.88
325.698	-2.53
325.912	31.57
326.125	30.66
326.339	42.22
326.552	43.63
326.766	31.34
326.979	19.39
327.193	45.84
327.406	36.38
327.619	29.26
327.833	30.29
328.046	23.53
328.26	3.03
328.473	-6.25
328.686	-24.42
328.9	-10.71
329.113	-10.66
329.326	-26.98
329.54	-9.86
329.753	0.86
329.966	-18.38
330.179	8.52
330.393	27.78
330.606	18.59
330.819	39.73
331.032	42.31
331.246	40.1
331.459	52.15
331.672	41.13
331.885	15.12
332.098	-4.48
332.311	3.34
332.525	-10.25
332.738	5.76
332.951	14.53
333.164	27.53
333.377	32.61
333.59	37.97
333.803	31.43
334.016	30.78
334.229	34.36
334.442	37.99
334.655	48.64
334.868	53.66
335.081	48.44
335.294	38.99
335.507	42.4
335.72	43.97
335.933	32.95
336.146	34.28
336.359	47.63
336.572	16.93
336.785	3.15
336.997	9.77
337.21	22.71
337.423	19.42
337.636	35.2
337.849	39.1
338.062	33.84
338.274	35.92
338.487	22.62
338.7	23.06
338.913	2.6
339.125	-1.17
339.338	-3.63
339.551	0.1
339.763	18.95
339.976	51.5
340.189	56.15
340.402	52.05
340.614	41.89
340.827	15.22
341.039	-4.01
341.252	-20.98
341.465	-28.5
341.677	-32.77
341.89	-60.74
342.102	-55.99
342.315	-45.42
342.527	-56.78
342.74	-37.43
342.952	17.93
343.165	28.26
343.377	50.91
343.59	49.13
343.802	59.54
344.015	53.76
344.227	55.32
344.44	33.02
344.652	25.7
344.864	18.34
345.077	25.43
345.289	18.55
345.502	35.87
345.714	34.3
345.926	37.99
346.139	21.87
346.351	22.47
346.563	18.59
346.775	37.12
346.988	14.42
347.2	13.15
347.412	-5.22
347.624	-11.25
347.837	-8.99
348.049	23.33
348.261	36.26
348.473	43.14
348.685	18.19
348.897	0.1
349.11	-27.3
349.322	-17.47
349.534	3.54
349.746	31.85
349.958	34.88
350.17	33.57
350.382	26.56
350.594	24.05
350.806	11.68
351.018	9.05
351.23	8.34
351.442	0.98
351.654	-7.69
351.866	-7.66
352.078	-4.28
352.29	-6.88
352.502	9.86
352.714	37.94
352.926	32.54
353.138	39.75
353.35	24.87
353.561	18.3
353.773	-7.39
353.985	2.52
354.197	-3.2
354.409	14.5
354.621	11.34
354.832	17.82
355.044	7.02
355.256	0.89
355.468	-6.89
355.679	-14.49
355.891	-3.63
356.103	-9.74
356.314	-9.03
356.526	13.57
356.738	34.02
356.949	28.61
357.161	34.45
357.373	36.62
357.584	22.9
357.796	12.86
358.008	6.28
358.219	18.85
358.431	21.18
358.642	37.36
358.854	45.86
359.065	42.22
359.277	24.79
359.488	23.26
359.7	1.64
359.911	-17.15
360.123	-10.2
360.334	-5.98
360.546	-15.62
360.757	-20.78
360.969	-1.87
361.18	12.98
361.391	7.54
361.603	3.57
361.814	31.88
362.025	6.57
362.237	-2.21
362.448	7.31
362.659	22.89
362.871	12.05
363.082	20.79
363.293	27.29
363.504	19.59
363.716	15.1
363.927	21.35
364.138	10.84
364.349	-28.46
364.56	-21.86
364.772	-49.81
364.983	-44.95
365.194	-55.33
365.405	-25.41
365.616	-25.86
365.827	-3.36
366.038	-9.64
366.25	15.97
366.461	-7.91
366.672	6.38
366.883	22.61
367.094	21.49
367.305	2.41
367.516	24.69
367.727	14.06
367.938	-7.41
368.149	-15.63
368.36	2.37
368.571	-1.17
368.781	-10.42
368.992	-16.88
369.203	10.27
369.414	-7.17
369.625	-22.03
369.836	-20.2
370.047	-17.33
370.258	-32.01
370.468	-29
370.679	-51.66
370.89	-46.59
371.101	-17.94
371.312	-37.38
371.522	-31.88
371.733	0.08
371.944	8.76
372.155	-1.77
372.365	-4.6
372.576	8.97
372.787	-5.51
372.997	-9.3
373.208	-7.44
373.419	9.75
373.629	-12.52
373.84	-3.19
374.05	-16.5
374.261	-5.33
374.472	-19.72
374.682	5.14
374.893	-8.79
375.103	8.4
375.314	-0.93
375.524	-2.69
375.735	1.72
375.945	20.26
376.156	2.77
376.366	5.83
376.577	14.23
376.787	10.88
376.997	19.88
377.208	34.91
377.418	18.01
377.629	28.28
377.839	14.77
378.049	3.79
378.26	12.31
378.47	29.19
378.68	22.22
378.89	29.88
379.101	26.44
379.311	9.01
379.521	-11.69
379.732	-9.61
379.942	-34.57
380.152	-18.97
380.362	-10.07
380.572	-2.88
380.783	11.79
380.993	26.72
381.203	27.64
381.413	25.29
381.623	26.24
381.833	6.09
382.043	-7.95
382.253	-13.5
382.463	-6.82
382.674	0.05
382.884	-8.96
383.094	5.9
383.304	4.13
383.514	0.25
383.724	-1.55
383.934	-8.17
384.144	-19.64
384.353	-17.73
384.563	-9.47
384.773	-7.36
384.983	6.37
385.193	13.21
385.403	4.02
385.613	4.17
385.823	4.61
386.033	8.62
386.242	3.34
386.452	12.15
386.662	1.87
386.872	5.3
387.082	5.16
387.291	-1.37
387.501	6.17
387.711	10.6
387.921	-1.44
388.13	-0.92
388.34	11.35
388.55	4.98
388.759	8.19
388.969	14.84
389.179	14.04
389.388	11.1
389.598	11.01
389.807	6.83
390.017	6.18
390.227	4.53
390.436	2.37
390.646	6.36
390.855	7.91
391.065	10.97
391.274	8.03
391.484	5.53
391.693	5.39
391.903	5.95
392.112	6.24
392.322	10.4
392.531	15.49
392.74	13.19
392.95	9.9
393.159	7.57
393.369	7.74
393.578	4.13
393.787	3.7
393.997	7.31
394.206	7.72
394.415	8.38
394.625	9.83
394.834	7.86
395.043	6.19
395.252	7.35
395.462	6.95
395.671	7.67
395.88	10.4
396.089	11.62
396.298	10.2
396.508	9.47
396.717	9.21
396.926	8.59
397.135	8.27
397.344	8.14
397.553	8.77
397.762	9.15
397.971	8.85
398.181	8.91
398.39	8.33
398.599	7.59
398.808	7.02
399.017	7.53
399.226	7.22
399.435	8.2
399.644	8.33
399.853	8.26
400.062	7.74
400.27	7.9
400.479	7.42
400.688	6.99
400.897	7.22
401.106	7.17
401.315	6.67
401.524	6.88
401.733	7.36
401.941	7.63
402.15	7.7
402.359	7.88
402.568	7.97
402.777	7.77
402.985	7.37
403.194	7.53
403.403	7.53
403.612	7.28
403.82	7.26
404.029	7.45
404.238	7.1
404.446	7.08
404.655	6.79
404.864	6.84
405.072	6.52
405.281	6.75
405.489	6.61
405.698	6.64
405.906	6.58
406.115	6.64
406.324	6.34
406.532	6.33
406.741	6.57
406.949	6.41
407.158	6.42
407.366	6.54
407.574	6.71
407.783	6.67
407.991	6.74
408.2	6.67
408.408	6.57
408.617	6.35
408.825	6.12
409.033	6.21
409.242	6.26
409.45	6.34
409.658	6.35
409.867	6.56
410.075	6.39
410.283	6.3
410.491	6.15
410.7	5.95
410.908	5.89
411.116	5.97
411.324	6.05
411.533	6.18
411.741	6.27
411.949	6.38
412.157	6.2
412.365	6.31
412.573	6.21
412.781	6.28
412.99	6.01
413.198	6.19
413.406	6.03
413.614	6.08
413.822	6.1
414.03	6.15
414.238	5.91
414.446	6.02
414.654	5.79
414.862	5.84
415.07	5.92
415.278	6.19
415.486	5.68
415.694	5.94
415.902	5.91
416.109	5.74
416.317	5.62
416.525	5.6
416.733	5.55
416.941	5.55
417.149	5.62
417.357	5.6
417.564	5.92
417.772	5.83
417.98	5.85
418.188	5.79
418.395	5.68
418.603	5.74
418.811	5.51
419.019	5.24
419.226	5.45
419.434	5.66
419.642	5.51
419.849	5.67
420.057	6
420.265	5.87
420.472	5.62
420.68	5.75
420.887	5.6
421.095	5.52
421.302	5.38
421.51	5.69
421.717	5.66
421.925	5.76
422.132	5.51
422.34	5.37
422.547	5.04
422.755	5.05
422.962	5.16
423.17	5.22
423.377	5.3
423.585	5.38
423.792	5.25
423.999	5.24
424.207	5.24
424.414	5.37
424.621	5.35
424.829	5.27
425.036	5.27
425.243	5.22
425.451	5.1
425.658	4.92
425.865	5.01
426.072	4.9
426.28	5.02
426.487	4.83
426.694	5.09
426.901	5.16
427.108	5.14
427.315	5.08
427.523	5.46
427.73	5.47
427.937	5.11
428.144	4.98
428.351	5.06
428.558	4.9
428.765	4.68
428.972	4.77
429.179	4.99
429.386	5.09
429.593	5.05
429.8	5.06
430.007	5.25
430.214	5.34
430.421	5.16
430.628	5.09
430.835	5.02
431.042	5.21
431.249	5.11
431.456	5.25
431.662	5.48
431.869	5.62
432.076	5.45
432.283	5.41
432.49	5.17
432.697	5.09
432.903	4.87
433.11	4.86
433.317	4.87
433.524	5.08
433.73	4.95
433.937	5.32
434.144	5.24
434.35	5.27
434.557	5.15
434.764	5.18
434.97	5.05
435.177	5.15
435.384	4.89
435.59	5.07
435.797	5.2
436.003	5.11
436.21	5.05
436.416	5.1
436.623	4.91
436.829	4.93
437.036	5.08
437.242	5.11
437.449	5.2
437.655	5.25
437.862	5.27
438.068	5.28
438.275	5.27
438.481	5.44
438.687	5.39
438.894	5.3
439.1	5.11
439.307	5.18
439.513	5.04
439.719	5.14
439.926	5.04
440.132	5.15
440.338	5.09
440.544	5.13
440.751	4.94
440.957	5.16
441.163	4.89
441.369	4.94
441.575	4.83
441.782	4.85
441.988	4.62
442.194	4.81
442.4	4.78
442.606	4.98
442.812	5.13
443.018	5.24
443.224	5.36
443.431	5.49
443.637	5.41
443.843	5.23
444.049	5.24
444.255	5.17
444.461	5.07
444.667	4.9
444.873	4.98
445.079	5.08
445.284	5.09
445.49	4.96
445.696	4.92
445.902	5
446.108	4.93
446.314	4.87
446.52	5.07
446.726	5.39
446.931	5.33
447.137	5.34
447.343	5.47
447.549	5.2
447.755	5.04
447.96	5.06
448.166	4.94
448.372	4.88
448.578	4.96
448.783	4.97
448.989	5
449.195	5.21
449.4	5.17
449.606	5.2
449.812	5.1
450.017	5.16
450.223	5.06
450.428	4.89
450.634	5.03
450.84	5.19
451.045	5.1
451.251	5.03
451.456	5.19
451.662	5.19
451.867	5.17
452.073	5.12
452.278	5.14
452.483	5.33
452.689	5.29
452.894	5.42
453.1	5.57
453.305	5.45
453.51	5.25
453.716	5.15
453.921	5.03
454.127	4.93
454.332	4.95
454.537	4.97
454.742	5.08
454.948	5.13
455.153	5.06
455.358	5.21
455.563	5.41
455.769	5.34
455.974	5.18
456.179	5.23
456.384	5.11
456.589	4.98
456.795	4.84
457	4.87
457.205	4.97
457.41	4.98
457.615	4.91
457.82	5.1
458.025	5.18
458.23	4.89
458.435	5.07
458.64	4.92
458.845	4.89
459.05	4.76
459.255	4.81
459.46	4.7
459.665	4.77
459.87	4.76
460.075	4.67
460.28	4.79
460.485	4.88
460.69	4.99
460.895	4.83
461.099	4.86
461.304	4.96
461.509	4.9
461.714	4.72
461.919	4.94
462.123	4.91
462.328	4.86
462.533	4.59
462.738	4.77
462.942	4.52
463.147	4.64
463.352	4.66
463.556	4.75
463.761	4.72
463.966	4.97
464.17	5.06
464.375	4.98
464.58	4.95
464.784	4.93
464.989	4.77
465.193	4.74
465.398	4.71
465.602	5
465.807	4.98
466.011	5.08
466.216	5.03
466.42	5.09
466.625	5
466.829	5.08
467.034	5.09
467.238	5.21
467.443	5.23
467.647	5.04
467.851	5.02
468.056	5.08
468.26	4.9
468.464	4.76
468.669	4.99
468.873	5.04
469.077	5.03
469.282	5.1
469.486	5.31
469.69	5.27
469.894	5.18
470.099	5.25
470.303	5.27
470.507	5.04
470.711	4.98
470.915	4.91
471.119	4.82
471.324	4.8
471.528	4.82
471.732	4.97
471.936	5.02
472.14	5.2
472.344	5.26
472.548	5.44
472.752	5.41
472.956	5.51
473.16	5.33
473.364	5.21
473.568	5.25
473.772	5.18
473.976	5.22
474.18	5.17
474.384	5.25
474.588	5.1
474.792	5.02
474.995	4.99
475.199	5.12
475.403	5.21
475.607	5.24
475.811	5.32
476.015	5.39
476.218	5.35
476.422	5.23
476.626	5.32
476.83	5.42
477.033	5.29
477.237	5.18
477.441	5.21
477.644	5.08
477.848	5.02
478.052	4.88
478.255	4.9
478.459	4.93
478.663	5.13
478.866	5.1
479.07	5.25
479.273	5.49
479.477	5.56
479.681	5.46
479.884	5.5
480.088	5.48
480.291	5.41
480.495	5.26
480.698	5.32
480.901	5.39
481.105	5.54
481.308	5.47
481.512	5.48
481.715	5.5
481.919	5.52
482.122	5.44
482.325	5.48
482.529	5.56
482.732	5.51
482.935	5.38
483.138	5.35
483.342	5.43
483.545	5.54
483.748	5.59
483.952	5.63
484.155	5.76
484.358	5.74
484.561	5.64
484.764	5.71
484.967	5.76
485.171	5.77
485.374	5.62
485.577	5.73
485.78	5.63
485.983	5.69
486.186	5.61
486.389	5.67
486.592	5.63
486.795	5.74
486.998	5.71
487.201	5.88
487.404	6.02
487.607	6.13
487.81	6.17
488.013	6.23
488.216	6.17
488.419	6.19
488.622	5.99
488.825	5.91
489.028	5.92
489.231	5.9
489.433	5.8
489.636	5.9
489.839	5.9
490.042	5.8
490.245	5.75
490.447	5.86
490.65	5.91
490.853	6.12
491.056	6.28
491.258	6.34
491.461	6.41
491.664	6.45
491.866	6.23
492.069	6.24
492.272	6.29
492.474	6.3
492.677	6.37
492.879	6.63
493.082	6.71
493.285	6.92
493.487	6.78
493.69	6.7
493.892	6.58
494.095	6.6
494.297	6.47
494.5	6.76
494.702	6.9
494.905	7.04
495.107	7.06
495.309	7.18
495.512	7.15
495.714	7.26
495.917	7.29
496.119	7.36
496.321	7.45
496.524	7.56
496.726	7.62
496.928	7.74
497.13	7.79
497.333	7.84
497.535	7.91
497.737	7.84
497.939	7.8
498.142	7.92
498.344	7.87
498.546	7.77
498.748	7.91
498.95	8.01
499.152	7.92
499.355	8.05
499.557	8.14
499.759	8.24
499.961	8.23
500.163	8.32
500.365	8.28
500.567	8.31
500.769	8.19
500.971	8.29
501.173	8.19
501.375	8.34
501.577	8.42
501.779	8.51
501.981	8.53
502.183	8.57
502.385	8.52
502.587	8.43
502.788	8.53
502.99	8.58
503.192	8.69
503.394	8.67
503.596	8.72
503.798	8.78
503.999	8.8
504.201	8.9
504.403	8.99
504.605	9.06
504.806	8.99
505.008	8.9
505.21	8.84
505.411	8.86
505.613	8.82
505.815	8.89
506.016	9.05
506.218	9.12
506.42	9
506.621	9.05
506.823	9.07
507.024	8.98
507.226	8.91
507.427	8.97
507.629	9.02
507.83	8.94
508.032	8.87
508.233	9.07
508.435	9.17
508.636	9.19
508.838	9.15
509.039	9.23
509.24	9.15
509.442	9.1
509.643	9.01
509.845	9.14
510.046	9.16
510.247	9.12
510.448	9.12
510.65	9.22
510.851	9.29
511.052	9.34
511.254	9.24
511.455	9.31
511.656	9.3
511.857	9.29
512.058	9.3
512.26	9.42
512.461	9.31
512.662	9.34
512.863	9.21
513.064	9.2
513.265	9.21
513.466	9.31
513.667	9.28
513.868	9.41
514.069	9.5
514.27	9.6
514.471	9.56
514.672	9.57
514.873	9.62
515.074	9.59
515.275	9.48
515.476	9.49
515.677	9.59
515.878	9.59
516.079	9.52
516.28	9.6
516.481	9.73
516.682	9.68
516.882	9.64
517.083	9.76
517.284	9.58
517.485	9.52
517.686	9.48
517.886	9.45
518.087	9.42
518.288	9.61
518.488	9.58
518.689	9.61
518.89	9.65
519.091	9.67
519.291	9.62
519.492	9.64
519.692	9.67
519.893	9.82
520.094	9.84
520.294	9.8
520.495	9.87
520.695	9.97
520.896	9.88
521.096	9.94
521.297	10.07
521.497	10.13
521.698	10.04
521.898	10.04
522.099	10.02
522.299	10.07
522.499	9.99
522.7	10.03
522.9	10.07
523.101	10.12
523.301	10.08
523.501	10.14
523.702	10.15
523.902	10.21
524.102	10.29
524.302	10.28
524.503	10.34
524.703	10.37
524.903	10.32
525.103	10.2
525.304	10.29
525.504	10.29
525.704	10.32
525.904	10.35
526.104	10.45
526.304	10.48
526.504	10.54
526.705	10.57
526.905	10.62
527.105	10.63
527.305	10.61
527.505	10.49
527.705	10.49
527.905	10.52
528.105	10.47
528.305	10.43
528.505	10.5
528.705	10.61
528.905	10.54
529.105	10.63
529.304	10.77
529.504	10.92
529.704	10.85
529.904	10.93
530.104	10.93
530.304	10.94
530.503	10.83
530.703	10.84
530.903	10.82
531.103	10.93
531.303	10.86
531.502	10.9
531.702	10.97
531.902	11.03
532.101	10.92
532.301	10.96
532.501	10.99
532.7	11.08
532.9	11.06
533.1	11.15
533.299	11.13
533.499	11.21
533.698	11.09
533.898	11.16
534.097	11.2
534.297	11.3
534.496	11.33
534.696	11.45
534.895	11.54
535.095	11.55
535.294	11.59
535.494	11.5
535.693	11.47
535.892	11.5
536.092	11.52
536.291	11.54
536.491	11.59
536.69	11.69
536.889	11.56
537.088	11.53
537.288	11.58
537.487	11.73
537.686	11.72
537.886	11.87
538.085	11.94
538.284	11.93
538.483	11.83
538.682	11.9
538.882	11.94
539.081	12.04
539.28	12.01
539.479	12.1
539.678	12.1
539.877	12.14
540.076	12.09
540.275	12.23
540.474	12.3
540.673	12.4
540.872	12.4
541.071	12.44
541.27	12.42
541.469	12.43
541.668	12.42
541.867	12.44
542.066	12.51
542.265	12.63
542.464	12.63
542.663	12.74
542.862	12.99
543.06	13.08
543.259	13.07
543.458	13.16
543.657	13.1
543.856	13.09
544.054	13.08
544.253	13.06
544.452	13.02
544.651	13.07
544.849	12.99
545.048	13.05
545.247	13.15
545.445	13.29
545.644	13.39
545.843	13.44
546.041	13.52
546.24	13.61
546.438	13.64
546.637	13.69
546.836	13.85
547.034	13.92
547.233	13.96
547.431	14.01
547.63	14.14
547.828	14.04
548.027	14.11
548.225	14.1
548.423	14.17
548.622	14.19
548.82	14.28
549.019	14.24
549.217	14.43
549.415	14.56
549.614	14.58
549.812	14.57
550.01	14.61
550.209	14.7
550.407	14.74
550.605	14.84
550.803	15.03
551.002	15.23
551.2	15.19
551.398	15.34
551.596	15.47
551.794	15.64
551.993	15.74
552.191	15.75
552.389	15.79
552.587	15.87
552.785	15.88
552.983	15.97
553.181	16.18
553.379	16.26
553.577	16.24
553.775	16.43
553.973	16.47
554.171	16.64
554.369	16.67
554.567	16.78
554.765	16.8
554.963	16.94
555.161	16.81
555.359	16.97
555.557	17.13
555.755	17.33
555.952	17.47
556.15	17.72
556.348	17.87
556.546	18
556.744	17.99
556.941	18
557.139	18.06
557.337	18.11
557.535	18.21
557.732	18.32
557.93	18.5
558.128	18.67
558.325	18.71
558.523	18.75
558.721	18.89
558.918	18.89
559.116	18.93
559.313	19
559.511	19.21
559.708	19.26
559.906	19.41
560.104	19.53
560.301	19.77
560.498	19.83
560.696	19.9
560.893	20.04
561.091	20.15
561.288	20.22
561.486	20.39
561.683	20.54
561.88	20.73
562.078	20.88
562.275	20.93
562.473	20.95
562.67	21.19
562.867	21.26
563.064	21.43
563.262	21.55
563.459	21.83
563.656	21.95
563.853	22.07
564.051	22.07
564.248	22.24
564.445	22.23
564.642	22.24
564.839	22.34
565.036	22.66
565.234	22.85
565.431	22.96
565.628	23.11
565.825	23.21
566.022	23.18
566.219	23.24
566.416	23.36
566.613	23.38
566.81	23.51
567.007	23.53
567.204	23.51
567.401	23.48
567.598	23.6
567.795	23.54
567.991	23.69
568.188	23.92
568.385	24.1
568.582	24.21
568.779	24.32
568.976	24.55
569.172	24.63
569.369	24.69
569.566	24.77
569.763	24.95
569.96	24.9
570.156	24.88
570.353	24.88
570.55	24.98
570.746	25.09
570.943	25.1
571.14	25.14
571.336	25.25
571.533	25.32
571.729	25.31
571.926	25.4
572.123	25.43
572.319	25.53
572.516	25.44
572.712	25.4
572.909	25.58
573.105	25.69
573.302	25.68
573.498	25.83
573.695	25.79
573.891	25.77
574.087	25.81
574.284	25.77
574.48	25.78
574.677	25.85
574.873	25.84
575.069	25.96
575.266	26.08
575.462	26.08
575.658	26.12
575.854	26.22
576.051	26.18
576.247	26.16
576.443	26.19
576.639	26.28
576.835	26.2
577.032	26.08
577.228	26.19
577.424	26.2
577.62	26.12
577.816	26.14
578.012	26.31
578.208	26.25
578.404	26.23
578.6	26.27
578.796	26.27
578.993	26.11
579.189	26.1
579.384	26.08
579.58	26
579.776	26.08
579.972	26.01
580.168	25.89
580.364	25.88
580.56	25.95
580.756	25.84
580.952	25.85
581.148	25.91
581.343	25.94
581.539	25.9
581.735	25.88
581.931	25.92
582.127	25.85
582.322	25.67
582.518	25.78
582.714	25.77
582.909	25.73
583.105	25.73
583.301	25.8
583.496	25.76
583.692	25.54
583.888	25.51
584.083	25.54
584.279	25.56
584.474	25.44
584.67	25.54
584.866	25.56
585.061	25.54
585.257	25.57
585.452	25.44
585.648	25.41
585.843	25.37
586.039	25.24
586.234	25.13
586.429	25.14
586.625	25.26
586.82	25.14
587.015	25.19
587.211	25.15
587.406	25.18
587.601	25.05
587.797	25.07
587.992	24.95
588.187	25.06
588.383	25.1
588.578	25.17
588.773	25.2
588.968	25.36
589.163	25.31
589.359	25.17
589.554	25.09
589.749	25.16
589.944	25.19
590.139	25.18
590.334	25.28
590.529	25.32
590.724	25.38
590.919	25.41
591.114	25.41
591.309	25.46
591.504	25.51
591.699	25.35
591.894	25.33
592.089	25.3
592.284	25.36
592.479	25.36
592.674	25.37
592.869	25.39
593.064	25.56
593.259	25.55
593.454	25.58
593.648	25.65
593.843	25.76
594.038	25.73
594.233	25.69
594.428	25.76
594.622	25.85
594.817	25.72
595.012	25.85
595.206	25.92
595.401	26.02
595.596	26.1
595.79	26.22
595.985	26.18
596.18	26.37
596.374	26.4
596.569	26.45
596.763	26.4
596.958	26.44
597.153	26.43
597.347	26.49
597.542	26.61
597.736	26.78
597.931	26.91
598.125	27.01
598.319	27.08
598.514	27.06
598.708	27.04
598.903	26.99
599.097	26.92
599.291	26.88
599.486	26.88
599.68	26.92
599.874	27.05
600.069	27.03
600.263	27.03
600.457	27
600.651	27.1
600.846	27
601.04	27.16
601.234	27.07
601.428	27.22
601.622	27.26
601.817	27.4
602.011	27.33
602.205	27.58
602.399	27.5
602.593	27.4
602.787	27.31
602.981	27.36
603.175	27.3
603.369	27.27
603.563	27.35
603.757	27.46
603.951	27.42
604.145	27.37
604.339	27.44
604.533	27.33
604.727	27.24
604.921	27.28
605.115	27.26
605.309	27.25
605.502	27.16
605.696	27.1
605.89	26.91
606.084	26.89
606.278	26.73
606.471	26.78
606.665	26.75
606.859	26.74
607.053	26.72
607.246	26.79
607.44	26.75
607.634	26.65
607.827	26.64
608.021	26.4
608.214	26.23
608.408	26.16
608.602	26.19
608.795	26.06
608.989	26.2
609.182	26.08
609.376	26.02
609.569	25.85
609.763	25.77
609.956	25.6
610.15	25.65
610.343	25.56
610.537	25.51
610.73	25.53
610.923	25.54
611.117	25.38
611.31	25.27
611.504	25.21
611.697	25.13
611.89	24.97
612.083	24.97
612.277	24.93
612.47	24.81
612.663	24.67
612.856	24.57
613.05	24.46
613.243	24.26
613.436	24.2
613.629	24.12
613.822	24.09
614.015	24.04
614.209	23.96
614.402	23.97
614.595	23.94
614.788	23.87
614.981	23.81
615.174	23.75
615.367	23.56
615.56	23.46
615.753	23.3
615.946	23.14
616.139	23.26
616.332	23.35
616.525	23.23
616.718	23.22
616.911	23.19
617.103	23.02
617.296	22.96
617.489	22.92
617.682	22.84
617.875	22.83
618.067	22.8
618.26	22.51
618.453	22.55
618.646	22.61
618.838	22.58
619.031	22.52
619.224	22.59
619.417	22.51
619.609	22.46
619.802	22.4
619.994	22.47
620.187	22.51
620.38	22.37
620.572	22.22
620.765	22.13
620.957	21.97
621.15	21.83
621.342	21.84
621.535	21.95
621.727	22.01
621.92	21.91
622.112	21.91
622.305	21.94
622.497	21.79
622.69	21.64
622.882	21.66
623.074	21.64
623.267	21.51
623.459	21.42
623.651	21.39
623.844	21.39
624.036	21.44
624.228	21.48
624.42	21.49
624.613	21.61
624.805	21.55
624.997	21.35
625.189	21.33
625.381	21.33
625.574	21.22
625.766	21.07
625.958	21.18
626.15	21.18
626.342	21.13
626.534	21.13
626.726	21.15
626.918	21.13
627.11	21.12
627.302	21.01
627.494	20.99
627.686	20.97
627.878	20.82
628.07	20.59
628.262	20.61
628.454	20.52
628.646	20.5
628.838	20.55
629.029	20.6
629.221	20.63
629.413	20.49
629.605	20.43
629.797	20.34
629.989	20.36
630.18	20.26
630.372	20.36
630.564	20.26
630.755	20.21
630.947	20.17
631.139	20.07
631.33	19.96
631.522	20.07
631.714	20.09
631.905	19.99
632.097	19.9
632.289	19.85
632.48	19.73
632.672	19.56
632.863	19.38
633.055	19.41
633.246	19.34
633.438	19.25
633.629	19.25
633.821	19.28
634.012	19.29
634.203	19.18
634.395	19.12
634.586	19.17
634.777	19.1
634.969	18.96
635.16	18.99
635.351	19.03
635.543	18.84
635.734	18.89
635.925	18.9
636.117	18.86
636.308	18.67
636.499	18.67
636.69	18.52
636.881	18.44
637.073	18.43
637.264	18.46
637.455	18.45
637.646	18.52
637.837	18.57
638.028	18.49
638.219	18.5
638.41	18.41
638.601	18.31
638.792	18.26
638.983	18.17
639.174	18.01
639.365	17.97
639.556	17.93
639.747	17.82
639.938	17.84
640.129	17.91
640.32	17.89
640.511	17.81
640.701	17.78
640.892	17.66
641.083	17.56
641.274	17.47
641.465	17.48
641.655	17.4
641.846	17.32
642.037	17.21
642.228	17.15
642.418	17.15
642.609	17.09
642.8	17.11
642.99	17.12
643.181	17.23
643.372	17.21
643.562	17.15
643.753	17.08
643.943	16.94
644.134	16.82
644.324	16.69
644.515	16.65
644.705	16.74
644.896	16.84
645.086	16.74
645.277	16.67
645.467	16.69
645.658	16.47
645.848	16.36
646.038	16.37
646.229	16.36
646.419	16.17
646.61	16.13
646.8	16.05
646.99	16
647.18	15.97
647.371	16.09
647.561	16.02
647.751	15.98
647.941	15.88
648.132	15.76
648.322	15.7
648.512	15.68
648.702	15.68
648.892	15.56
649.082	15.58
649.272	15.4
649.462	15.27
649.653	15.17
649.843	15.27
650.033	15.18
650.223	15.19
650.413	15.21
650.603	15.19
650.793	15.08
650.983	14.97
651.172	14.88
651.362	14.95
651.552	14.89
651.742	14.74
651.932	14.73
652.122	14.75
652.312	14.64
652.502	14.59
652.691	14.59
652.881	14.56
653.071	14.53
653.261	14.28
653.45	14.14
653.64	14.18
653.83	14.13
654.019	14.13
654.209	14.31
654.399	14.43
654.588	14.32
654.778	14.23
654.968	14.04
655.157	14
655.347	13.84
655.536	13.65
655.726	13.62
655.915	13.49
656.105	13.34
656.294	13.2
656.484	13.07
656.673	12.89
656.863	12.88
657.052	12.7
657.241	12.52
657.431	12.38
657.62	12.18
657.809	11.96
657.999	11.81
658.188	11.68
658.377	11.63
658.567	11.57
658.756	11.54
658.945	11.33
659.134	11.26
659.324	11.13
659.513	11.08
659.702	10.72
659.891	10.67
660.08	10.51
660.269	10.41
660.458	10.28
660.648	10.33
660.837	10.22
661.026	10.08
661.215	9.94
661.404	9.66
661.593	9.58
661.782	9.29
661.971	9.31
662.16	9.29
662.349	9.34
662.538	9.15
662.726	9.29
662.915	9.2
663.104	8.92
663.293	8.75
663.482	8.82
663.671	8.68
663.86	8.41
664.048	8.37
664.237	8.36
664.426	8.04
664.615	8.01
664.803	8.06
664.992	8.07
665.181	8.03
665.369	7.92
665.558	7.81
665.747	7.66
665.935	7.66
666.124	7.58
666.312	7.77
666.501	7.73
666.69	7.65
666.878	7.55
667.067	7.46
667.255	7.39
667.444	7.53
667.632	7.66
667.82	7.73
668.009	7.75
668.197	7.64
668.386	7.54
668.574	7.64
668.762	7.55
668.951	7.55
669.139	7.55
669.327	7.41
669.516	7.43
669.704	7.52
669.892	7.61
670.08	7.75
670.269	7.8
670.457	7.8
670.645	7.71
670.833	7.75
671.021	7.79
671.21	7.89
671.398	7.89
671.586	7.94
671.774	7.93
671.962	7.85
672.15	7.77
672.338	7.65
672.526	7.79
672.714	7.66
672.902	7.72
673.09	7.93
673.278	8.21
673.466	8.24
673.654	8.59
673.842	8.56
674.03	8.64
674.218	8.55
674.405	8.52
674.593	8.42
674.781	8.72
674.969	8.62
675.157	8.85
675.344	9
675.532	8.99
675.72	8.95
675.908	9.2
676.095	9.01
676.283	9.09
676.471	9.42
676.658	9.55
676.846	9.49
677.033	9.83
677.221	9.74
677.409	9.63
677.596	9.66
677.784	9.77
677.971	9.74
678.159	9.93
678.346	10.05
678.534	10
678.721	10.2
678.909	10.19
679.096	10.31
679.283	10.37
679.471	10.61
679.658	10.74
679.846	10.96
680.033	11.16
680.22	11.28
680.408	11.38
680.595	11.46
680.782	11.53
680.969	11.64
681.157	11.58
681.344	11.67
681.531	11.7
681.718	11.76
681.905	11.93
682.093	12.17
682.28	12.47
682.467	12.75
682.654	12.93
682.841	12.83
683.028	13.24
683.215	13.44
683.402	13.35
683.589	13.62
683.776	13.95
683.963	14.05
684.15	14.3
684.337	14.47
684.524	14.52
684.711	14.7
684.898	14.78
685.085	14.76
685.271	15.29
685.458	15.79
685.645	16.09
685.832	16.5
686.019	16.81
686.205	17.04
686.392	17.29
686.579	17.58
686.766	18.06
686.952	18.46
687.139	19
687.326	19.15
687.512	19.5
687.699	19.68
687.886	20.02
688.072	20.21
688.259	20.81
688.445	21.31
688.632	21.5
688.818	22.06
689.005	22.4
689.191	22.92
689.378	23.59
689.564	24.36
689.751	24.63
689.937	25.44
690.124	25.83
690.31	26.24
690.496	26.62
690.683	27.62
690.869	28.22
691.055	28.7
691.242	29.28
691.428	29.97
691.614	30.55
691.8	31.09
691.987	31.73
692.173	32.51
692.359	33.38
692.545	33.99
692.731	34.16
692.918	34.98
693.104	35.45
693.29	36.13
693.476	36.55
693.662	37.7
693.848	38.24
694.034	38.99
694.22	39.62
694.406	40.48
694.592	40.91
694.778	41.44
694.964	41.86
695.15	42.14
695.336	42.56
695.522	43.37
695.708	44.15
695.894	44.84
696.08	45.64
696.265	46.35
696.451	46.75
696.637	47.38
696.823	48
697.009	48.7
697.194	49.22
697.38	49.7
697.566	50.21
697.751	50.66
697.937	51.18
698.123	51.74
698.308	52.73
698.494	53.32
698.68	53.91
698.865	54.15
699.051	54.97
699.236	55.37
699.422	55.92
699.607	56.27
699.793	57.04
699.978	57
700.164	57.02
700.349	57.84
700.535	58.41
700.72	58.42
700.906	59.18
701.091	59.83
701.276	59.9
701.462	60.66
701.647	61.65
701.832	62.23
702.018	62.79
702.203	63.18
702.388	63.15
702.573	63.3
702.759	63.81
702.944	63.93
703.129	64.32
703.314	64.93
703.499	65.69
703.684	66.15
703.87	66.84
704.055	67.37
704.24	67.91
704.425	67.82
704.61	67.77
704.795	67.68
704.98	67.54
705.165	67.24
705.35	67.49
705.535	67.69
705.72	68.45
705.905	69.11
706.09	69.76
706.275	70
706.459	70.05
706.644	70.08
706.829	70.26
707.014	70.18
707.199	70.59
707.384	71.2
707.568	71.45
707.753	72.18
707.938	72.87
708.123	72.83
708.307	72.69
708.492	72.69
708.677	71.67
708.861	71.27
709.046	71.39
709.231	72.06
709.415	72.51
709.6	73.6
709.784	73.9
709.969	74.41
710.153	74.35
710.338	74.56
710.522	74.05
710.707	74.45
710.891	74.08
711.076	74.45
711.26	74.03
711.445	74.37
711.629	74.45
711.813	75.05
711.998	75.04
712.182	75.17
712.366	75.71
712.551	76.3
712.735	75.94
712.919	76.27
713.103	76.86
713.288	76.62
713.472	76.21
713.656	76.87
713.84	77.1
714.024	77.19
714.208	77.66
714.393	78.17
714.577	78.5
714.761	77.88
714.945	78.29
715.129	77.87
715.313	77.71
715.497	77.23
715.681	77.66
715.865	77.73
716.049	78.27
716.233	78.34
716.417	78.66
716.601	78.91
716.785	78.71
716.968	78.67
717.152	79.16
717.336	79.43
717.52	79.3
717.704	79.93
717.888	80.79
718.071	80.23
718.255	80.49
718.439	80.79
718.622	80.71
718.806	79.83
718.99	79.95
719.174	80
719.357	79.99
719.541	79.57
719.724	80.01
719.908	80.84
720.092	81.72
720.275	82.09
720.459	83.08
720.642	82.71
720.826	82.58
721.009	81.47
721.193	80.83
721.376	80.43
721.559	81.67
721.743	81.58
721.926	81.88
722.11	81.68
722.293	81.82
722.476	80.54
722.66	80.61
722.843	80.6
723.026	81.21
723.21	81.27
723.393	82.46
723.576	82.55
723.759	82.09
723.942	82.8
724.126	82.9
724.309	82.66
724.492	83.2
724.675	84.36
724.858	83.93
725.041	84.37
725.224	84.81
725.407	84.27
725.59	84.16
725.774	84.34
725.957	83.66
726.14	83.1
726.322	83.51
726.505	83.21
726.688	83.32
726.871	83.4
727.054	84.55
727.237	84.69
727.42	85.15
727.603	85.82
727.786	85.92
727.968	85.48
728.151	85.14
728.334	85.03
728.517	84.71
728.699	85.24
728.882	84.5
729.065	85.44
729.248	86.35
729.43	87.07
729.613	88.06
729.796	89.07
729.978	88.14
730.161	87.13
730.343	87.19
730.526	86.73
730.708	86.29
730.891	87.31
731.073	87.74
731.256	86.68
731.438	86.43
731.621	86.84
731.803	87.11
731.986	87.55
732.168	88.12
732.35	88.23
732.533	88.16
732.715	87.74
732.898	88.07
733.08	88.73
733.262	88.98
733.444	89.1
733.627	88.71
733.809	88.87
733.991	89.09
734.173	89.57
734.355	90.08
734.538	90.44
734.72	89.76
734.902	89.75
735.084	89.14
735.266	89.88
735.448	90.2
735.63	90.56
735.812	90.69
735.994	91.14
736.176	90.51
736.358	90.77
736.54	91.57
736.722	91.33
736.904	91.19
737.086	90.45
737.268	91.59
737.45	91.58
737.632	91.16
737.814	90.78
737.995	92.19
738.177	91.45
738.359	90.71
738.541	91.66
738.723	92.73
738.904	92.91
739.086	92.77
739.268	93.01
739.449	92.47
739.631	92.68
739.813	92.51
739.994	92.98
740.176	93.39
740.358	93.5
740.539	93.81
740.721	93.88
740.902	95.12
741.084	95.09
741.265	94.88
741.447	95.29
741.628	94.68
741.81	91.94
741.991	92.15
742.172	92.9
742.354	92.75
742.535	93.64
742.717	95.68
742.898	94.81
743.079	96.1
743.261	95.71
743.442	94.7
743.623	93.68
743.804	94.86
743.986	94.08
744.167	92.38
744.348	93.65
744.529	94.95
744.71	94
744.891	93.87
745.073	94.76
745.254	94.46
745.435	93.87
745.616	93.26
745.797	92.91
745.978	93.09
746.159	92.71
746.34	91.88
746.521	93.67
746.702	94.11
746.883	94.42
747.064	92.46
747.245	92.49
747.426	91.84
747.606	91.12
747.787	90.63
747.968	92.25
748.149	93.03
748.33	93.54
748.51	93.09
748.691	91.75
748.872	92.72
749.053	92.02
749.233	91.17
749.414	91.75
749.595	93.5
749.775	92.42
749.956	91.11
750.137	89.72
750.317	89.99
750.498	91.69
750.678	91.38
750.859	92.73
751.04	95.29
751.22	94.47
751.4	92.18
751.581	92.56
751.761	93.13
751.942	92.78
752.122	94.07
752.303	93.2
752.483	93.5
752.663	93.45
752.844	93.84
753.024	93.73
753.204	94.88
753.385	94.37
753.565	93.33
753.745	92.13
753.925	91.74
754.106	92.31
754.286	93.19
754.466	92.9
754.646	94.81
754.826	95.1
755.006	93.81
755.187	94.58
755.367	96.32
755.547	95.9
755.727	95.12
755.907	94.61
756.087	95.66
756.267	94.43
756.447	94.58
756.627	94.88
756.807	97.19
756.987	95.03
757.167	96.22
757.346	94.77
757.526	93.43
757.706	92.92
757.886	92.55
758.066	93.42
758.246	95.97
758.425	98.45
758.605	97.72
758.785	99.33
758.965	98.05
759.144	92.81
759.324	91.65
759.504	91.21
759.683	89.39
759.863	88.08
760.043	90.25
760.222	90.18
760.402	89.24
760.581	90.85
760.761	92.69
760.94	90.64
761.12	90.71
761.299	93.96
761.479	92.36
761.658	90.58
761.838	92.08
762.017	92.45
762.197	90.68
762.376	91.25
762.555	92.87
762.735	94.11
762.914	91.03
763.093	92.65
763.273	90.68
763.452	89.95
763.631	87.98
763.81	88.45
763.99	85.96
764.169	88.11
764.348	86.66
764.527	88.4
764.706	91.88
764.885	93.32
765.064	90.94
765.243	91.38
765.423	89.89
765.602	89.83
765.781	87.83
765.96	87.44
766.139	88.07
766.318	89.01
766.497	88.61
766.676	90.56
766.854	94.46
767.033	94.12
767.212	93.65
767.391	91.2
767.57	91.6
767.749	90.71
767.928	92.41
768.106	89.42
768.285	89.08
768.464	88.39
768.643	87.69
768.821	85.84
769	88.93
769.179	90
769.357	86.27
769.536	84.1
769.715	86.41
769.893	86.5
770.072	85.98
770.25	86.21
770.429	86.99
770.607	84.89
770.786	85.01
770.964	85.9
771.143	90.18
771.321	91.68
771.5	93.16
771.678	91.25
771.857	89.36
772.035	88.28
772.213	85.68
772.392	81.57
772.57	85.31
772.748	86.75
772.927	83.79
773.105	85.61
773.283	89.66
773.461	89.24
773.64	88.38
773.818	87.72
773.996	88.74
774.174	88.28
774.352	84
774.531	84.65
774.709	87.86
774.887	86.9
775.065	84.66
775.243	86.23
775.421	87.39
775.599	90.72
775.777	86.8
775.955	84.72
776.133	84.1
776.311	81.63
776.489	75.6
776.667	79.13
776.844	82.87
777.022	81.76
777.2	81.72
777.378	84.12
777.556	85.1
777.734	85.53
777.911	89.37
778.089	89.7
778.267	93.05
778.445	88.75
778.622	87.13
778.8	85.24
778.978	89.19
779.155	85.71
779.333	87.77
779.511	83.5
779.688	83.98
779.866	74.75
780.043	72.75
780.221	72.38
780.398	73.46
780.576	74.71
780.753	81.17
780.931	81.43
781.108	82.31
781.286	87.33
781.463	81.92
781.64	80.36
781.818	83.36
781.995	82.17
782.172	80.4
782.35	84.96
782.527	86.42
782.704	82.18
782.882	85.43
783.059	83.88
783.236	83.59
783.413	82.72
783.59	84.05
783.768	77.95
783.945	77.86
784.122	78.55
784.299	78.61
784.476	79.74
784.653	84
784.83	83.44
785.007	76.31
785.184	77.32
785.361	76.95
785.538	81.54
785.715	80.92
785.892	86.48
786.069	88.42
786.246	88.45
786.423	80.17
786.6	80.51
786.776	80.51
786.953	78.45
787.13	80.69
787.307	82.71
787.484	85.17
787.66	82.77
787.837	78.13
788.014	76.02
788.191	74.48
788.367	73.03
788.544	76.42
788.721	77.29
788.897	76.7
789.074	79.52
789.25	77.76
789.427	78.86
789.603	79.77
789.78	82.96
789.956	71.78
790.133	72.6
790.309	69.41
790.486	70.54
790.662	68.38
790.839	76.31
791.015	80.36
791.192	77.02
791.368	78.26
791.544	71.95
791.721	74.41
791.897	70.69
792.073	71.72
792.249	68.52
792.426	73.05
792.602	74.86
792.778	72.43
792.954	73.9
793.13	70.69
793.307	70.49
793.483	59.41
793.659	60.23
793.835	59.72
794.011	63.26
794.187	58.4
794.363	59.84
794.539	64.81
794.715	60.62
794.891	61.71
795.067	64.8
795.243	76.49
795.419	72.94
795.595	77
795.771	78.15
795.947	82.73
796.122	69.06
796.298	70.39
796.474	73.46
796.65	69.24
796.826	66.6
797.001	75.65
797.177	70.8
797.353	70.85
797.529	77.29
797.704	72.62
797.88	68.54
798.056	65.48
798.231	62.98
798.407	62.42
798.582	67.45
798.758	73.89
798.934	85.41
799.109	84.74
799.285	76.51
799.46	83.88
799.636	79.49
799.811	77.57
799.986	78.49
800.162	89.99
800.337	83.11
800.513	83.87
800.688	78.05
800.863	82
801.039	73.21
801.214	68.18
801.389	69.88
801.565	73.77
801.74	69.77
801.915	71.59
802.09	80.17
802.265	82.28
802.441	81.09
802.616	81.46
802.791	84.12
802.966	78.75
803.141	72.65
803.316	62.49
803.491	65.85
803.666	64.2
803.841	65.36
804.016	66.09
804.191	77.1
804.366	70.9
804.541	69.56
804.716	58.58
804.891	53.33
805.066	52.54
805.241	58.6
805.416	62.46
805.591	66
805.765	73.14
805.94	77.19
806.115	73.75
806.29	66.23
806.464	76.4
806.639	74.46
806.814	55.65
806.989	39.63
807.163	47.72
807.338	35.27
807.512	33.22
807.687	33.97
807.862	51.88
808.036	53.96
808.211	62.2
808.385	68.95
808.56	81.62
808.734	80.1
808.909	79.01
809.083	74.33
809.258	73.6
809.432	74.57
809.606	56.57
809.781	52.83
809.955	59.34
810.13	55.82
810.304	45.26
810.478	54.22
810.652	63.9
810.827	69.93
811.001	71.97
811.175	72.35
811.349	75.23
811.524	63.98
811.698	48.63
811.872	47.46
812.046	59.66
812.22	61.03
812.394	58.05
812.568	61.47
812.742	64.55
812.916	49
813.09	42.74
813.264	48.03
813.438	53.03
813.612	41.21
813.786	31.13
813.96	44.78
814.134	54.15
814.308	61.2
814.482	68.15
814.656	84.35
814.83	89.1
815.003	80.08
815.177	68.71
815.351	63.88
815.525	69.39
815.698	59.58
815.872	46.08
816.046	43.97
816.219	52.83
816.393	51.92
816.567	53.14
816.74	59.55
816.914	68.1
817.088	66.07
817.261	60.17
817.435	55.18
817.608	52.44
817.782	43.37
817.955	39.69
818.129	29.57
818.302	41.17
818.475	60.82
818.649	62.33
818.822	49.12
818.996	66
819.169	58.64
819.342	41.61
819.516	46.29
819.689	64.04
819.862	60.05
820.035	46.86
820.209	39.84
820.382	40.13
820.555	38.08
820.728	26.65
820.901	28.55
821.075	45.85
821.248	56.87
821.421	52.39
821.594	47.82
821.767	70.26
821.94	86.98
822.113	57.77
822.286	53.65
822.459	83.86
822.632	75.51
822.805	60.13
822.978	64.22
823.151	72.25
823.324	39.95
823.496	11.76
823.669	20.27
823.842	28.2
824.015	13.26
824.188	7.68
824.361	4.68
824.533	-13.32
824.706	-3.96
824.879	2.79
825.051	49.21
825.224	54.81
825.397	53.66
825.569	44.04
825.742	50
825.915	49.83
826.087	53.6
826.26	46.86
826.432	55.9
826.605	66.16
826.777	44.54
826.95	25.4
827.122	26.29
827.295	29.04
827.467	9.12
827.64	2.43
827.812	7.99
827.984	17.91
828.157	15.07
828.329	3.46
828.501	2.36
828.674	16.21
828.846	10.36
829.018	10.17
829.19	27.61
829.363	49.94
829.535	47.1
829.707	62.6
829.879	36
830.051	14.91
830.223	10.78
830.395	-2.59
830.568	-13.09
830.74	1.43
830.912	39.5
831.084	26.82
831.256	14.79
831.428	-6.55
831.6	-10.3
831.772	-42.51
831.943	-36.7
832.115	-10.35
832.287	34.78
832.459	29.16
832.631	44.65
832.803	59.15
832.975	53.76
833.146	40.5
833.318	44.32
833.49	51
833.662	46.36
833.833	37.7
834.005	37.77
834.177	63.21
834.348	52.87
834.52	23.76
834.692	30.12
834.863	20.78
835.035	-2.1
835.206	-7.64
835.378	21.61
835.549	4.35
835.721	25.14
835.892	9.48
836.064	28.95
836.235	37.39
836.407	71.9
836.578	32.59
836.749	44.8
836.921	33.43
837.092	3.38
837.264	-55.23
837.435	-57.07
837.606	-41.57
837.777	-8.6
837.949	21.71
838.12	19.26
838.291	27.9
838.462	31.16
838.633	7.6
838.805	-8.88
838.976	14.66
839.147	13.88
839.318	-28.7
839.489	-54.22
839.66	-29.73
839.831	-24.52
840.002	-22.29
840.173	-10.66
840.344	5.75
840.515	-1.72
840.686	-33.01
840.857	-52.28
841.028	-51.7
841.199	-24.88
841.369	-41.8
841.54	-59.4
841.711	-9.93
841.882	-2.18
842.053	-13.45
842.223	-28.22
842.394	17.63
842.565	21.14
842.736	36.72
842.906	35.95
843.077	61.87
843.248	65.71
843.418	48.08
843.589	22.25
843.759	56.13
843.93	58.38
844.101	38.58
844.271	56.86
844.442	89.1
844.612	92.63
844.783	62.1
844.953	40.27
845.123	53.58
845.294	50.3
845.464	23.72
845.635	35.2
845.805	73.31
845.975	71.82
846.146	31.84
846.316	3.32
846.486	16.63
846.656	5.55
846.827	-44.97
846.997	-27.86
847.167	34.07
847.337	0.31
847.507	-14.58
847.677	-11.71
847.848	1.52
848.018	-3.64
848.188	24.78
848.358	18.63
848.528	36.08
848.698	14.66
848.868	-29.51
849.038	-56.94
849.208	-32.5
849.378	-10.67
849.548	-32.25
849.718	22.84
849.887	49.59
850.057	-24.48
850.227	-72.25
850.397	-36.42
850.567	-47.58
850.737	-32.23
850.906	-52.39
851.076	-85.6
851.246	-111.21
851.415	-63.21
851.585	-48.96
851.755	-15.55
851.924	30.08
852.094	40.31
852.264	13.29
852.433	-29.31
852.603	-16.5
852.772	-10.75
852.942	-29.51
853.111	-52.52
853.281	27.4
853.45	27.13
853.62	-12.12
853.789	-51.23
853.959	4.81
854.128	-38.97
854.297	-101.71
854.467	-102.45
854.636	-48.79
854.805	-55.73
854.975	-66.05
855.144	-34.57
855.313	19.02
855.482	16.48
855.652	-8.77
855.821	-8.95
855.99	28.35
856.159	-7.04
856.328	-21.81
856.497	-26.1
856.667	-10.76
856.836	-21.31
857.005	-63.23
857.174	-129.84
857.343	-135.32
857.512	-112.67
857.681	-157.07
857.85	-119.9
858.019	-94.06
858.188	-79.05
858.356	-105.47
858.525	-102.99
858.694	-91.37
858.863	-58.97
859.032	-84.88
859.201	-63.71
859.369	-17.95
859.538	0.53
859.707	-47.11
859.876	-34.05
860.044	-26.14
860.213	-23.2
860.382	-34.69
860.55	-0.81
860.719	53.33
860.888	59.82
861.056	-4
861.225	-54.76
861.393	0.9
861.562	29.12
861.73	0.67
861.899	27.34
862.067	6.06
862.236	2.48
862.404	-74.09
862.572	-105.79
862.741	-58.92
862.909	-55.33
863.078	-82.1
863.246	-70.7
863.414	-50.26
863.582	-166.64
863.751	-130.44
863.919	-128.36
864.087	-52.58
864.255	-42.17
864.424	-59.76
864.592	-32.94
864.76	0.74
864.928	-3.35
865.096	-8.73
865.264	-12.2
865.432	-4.24
865.6	30.62
865.768	-68.65
865.936	-153.76
866.104	-74.68
866.272	-105.83
866.44	-142.1
866.608	-121.81
866.776	-159.36
866.944	-236.84
867.112	-349.06
867.28	-584.7
867.448	-1081.4
867.615	-365.97
867.783	-72.51
867.951	-62.88
868.119	51.77
868.286	10.15
868.454	-29.13
868.622	-89.02
868.789	-115.67
868.957	-57.36
869.125	-78.85
869.292	-69.51
869.46	-44.16
869.627	0.42
869.795	-44.64
869.963	-16.73
870.13	15.92
870.298	38.76
870.465	-14.25
870.632	-30.74
870.8	-8.7
870.967	-4.7
871.135	-85.15
871.302	-29.82
871.469	35.9
871.637	8.71
871.804	0.79
871.971	-2.27
872.139	-5.9
872.306	25.21
872.473	20.28
872.64	-25.54
872.807	28.13
872.975	51.37
873.142	-54.27
873.309	-85.47
873.476	53.29
873.643	34.15
873.81	15.36
873.977	47.03
874.144	52.24
874.311	12.74
874.478	-59.04
874.645	-104.65
874.812	-427.36
874.979	22990.48
875.146	-549.95
875.313	-142.41
875.48	-47.87
875.647	-13.91
875.813	-52.64
875.98	-81.64
876.147	-117
876.314	-117.26
876.481	-182.8
876.647	-207.96
876.814	-106.46
876.981	-87.89
877.147	-181.06
877.314	-208.74
877.481	-114.68
877.647	-98.25
877.814	-175.86
877.98	-144.96
878.147	-32.16
878.314	18.56
878.48	-42.07
878.647	-49.69
878.813	30.24
878.979	38.18
879.146	7.68
879.312	32.44
879.479	50.85
879.645	42.08
879.811	-55.79
879.978	-62.86
880.144	-62.56
880.31	-110.11
880.477	-196.87
880.643	-151.21
880.809	-119.6
880.975	-59.04
881.142	-100.76
881.308	-78.57
881.474	-31.15
881.64	2.62
881.806	-43.8
881.972	-1.59
882.138	22.61
882.304	37.91
882.47	-50.84
882.636	-105.42
882.802	-105.95
882.968	-51.02
883.134	-190.57
883.3	-271.29
883.466	-35.19
883.632	9.16
883.798	-63.66
883.964	-22.51
884.129	-29.77
884.295	-69.93
884.461	-111.65
884.627	-165.89
884.793	-113.81
884.958	-47.29
885.124	-90.18
885.29	-94.38
885.455	-29.03
885.621	-48.98
885.787	-255.81
885.952	-141.24
886.118	-120.9
886.283	-125.6
886.449	-165.03
886.614	-95.26
886.78	-107.49
886.945	-104.82
887.111	-225.9
887.276	-246.91
887.442	-432.87
887.607	-243.73
887.773	-330.92
887.938	-185.46
888.103	-65.12
888.269	-20.43
888.434	-2.76
888.599	-4.34
888.764	43.99
888.93	43.87
889.095	12.04
889.26	-36.06
889.425	28.19
889.59	30.83
889.756	-9.59
889.921	-4.79
890.086	29.31
890.251	8.08
890.416	-56.33
890.581	-66.32
890.746	-63.14
890.911	-25.64
891.076	-85.26
891.241	-119.27
891.406	-114.86
891.571	-33.03
891.736	-84.82
891.901	-107.46
892.065	-76.33
892.23	-42.01
892.395	-131.7
892.56	-154.68
892.725	-21.59
892.889	-4.4
893.054	-100.75
893.219	-114.11
893.384	-110.26
893.548	-193.21
893.713	-251.2
893.878	-211.39
