Data from Ofra_PP_Phys_2HS27C_Reflection_2.txt Node
Date: Sat Jul 24 20:03:28 EDT 2021
User: USUARIO
Spectrometer: FLMT01687
Trigger mode: 0
Integration Time (sec): 1.100000E0
Scans to average: 2
Electric dark correction enabled: true
Nonlinearity correction enabled: false
Boxcar width: 2
XAxis mode: Wavelengths
Number of Pixels in Spectrum: 3648
>>>>>Begin Spectral Data<<<<<
179.494	475.86
179.716	568.6
179.937	939.2
180.158	776.41
180.38	347.27
180.601	-311.74
180.823	66.41
181.044	180.62
181.265	12.54
181.486	-15.93
181.708	-49.64
181.929	-854.67
182.15	136.95
182.372	-30.88
182.593	39833.33
182.814	834.36
183.035	159.06
183.257	129.55
183.478	65.53
183.699	149.04
183.92	113.69
184.141	109.97
184.363	36.13
184.584	87.19
184.805	44.06
185.026	50.53
185.247	50.36
185.468	31.52
185.689	23.58
185.91	29.92
186.132	27.71
186.353	13.73
186.574	44.71
186.795	53.45
187.016	22.88
187.237	43.6
187.458	50.98
187.679	84.49
187.9	49.38
188.121	80.61
188.342	48.12
188.563	54.21
188.784	57.32
189.005	49.19
189.226	58.13
189.447	62.72
189.667	70.26
189.888	53.68
190.109	44.61
190.33	18.13
190.551	-11.85
190.772	-38.66
190.993	-63.88
191.214	-53.99
191.434	-49.65
191.655	-5.29
191.876	8.95
192.097	3.11
192.318	6.01
192.538	-10.31
192.759	-11.65
192.98	-18.87
193.201	6.09
193.421	-5.14
193.642	23.87
193.863	20.73
194.083	15.5
194.304	12.51
194.525	24.21
194.745	8.62
194.966	-29.24
195.187	-51.48
195.407	-84.05
195.628	-88.88
195.848	-69.12
196.069	-61.88
196.29	-36.88
196.51	-81.37
196.731	-88.37
196.951	-67.18
197.172	-37.58
197.392	-37.89
197.613	4.85
197.833	10.52
198.054	-17.08
198.274	-15.65
198.495	-41
198.715	-21.16
198.936	-45.66
199.156	-10.12
199.377	-13.05
199.597	1.57
199.817	9.05
200.038	48.91
200.258	62.41
200.479	60.8
200.699	68.84
200.919	50.53
201.14	20.29
201.36	1.08
201.58	3.61
201.801	18.07
202.021	19.66
202.241	42.97
202.461	35.37
202.682	23.94
202.902	17.74
203.122	29.16
203.342	21.36
203.563	56.57
203.783	71.2
204.003	26.4
204.223	-85.03
204.443	-24.84
204.663	-50.33
204.884	-72.9
205.104	-33.44
205.324	40.3
205.544	25.49
205.764	20.43
205.984	50.1
206.204	64.78
206.424	71.2
206.644	81.11
206.864	83.81
207.084	66.5
207.304	67.45
207.525	26.85
207.745	36.61
207.964	34.56
208.184	41.24
208.404	6.82
208.624	3.48
208.844	-9.05
209.064	-40.67
209.284	-32.31
209.504	-9.04
209.724	10.87
209.944	23.37
210.164	64.57
210.384	55.31
210.604	50.46
210.823	4.25
211.043	-17.22
211.263	-17.63
211.483	-41.76
211.703	-52.14
211.922	0.1
212.142	50.27
212.362	47.72
212.582	52.05
212.801	61.15
213.021	30.2
213.241	21.94
213.461	-0.36
213.68	-26.75
213.9	-27.41
214.12	-18.96
214.339	-40.2
214.559	-9
214.779	6.34
214.998	15.72
215.218	3.24
215.438	1.01
215.657	-27.96
215.877	10.27
216.096	8.88
216.316	36.37
216.535	51.37
216.755	58.39
216.974	45.85
217.194	58.9
217.413	58.41
217.633	43
217.852	8.19
218.072	-5.57
218.291	-43.64
218.511	-40.84
218.73	-73.56
218.95	-69.12
219.169	-53.86
219.389	-61.89
219.608	-63.14
219.827	-16.1
220.047	13.84
220.266	3.51
220.485	6.03
220.705	22.72
220.924	-18.03
221.143	-22.27
221.363	-50.17
221.582	-18.84
221.801	-23.48
222.021	12.41
222.24	26.84
222.459	60.77
222.678	49.2
222.897	35.19
223.117	35.52
223.336	42.43
223.555	43.76
223.774	64.37
223.993	73.73
224.213	87.04
224.432	54.74
224.651	73.58
224.87	64.64
225.089	80.84
225.308	66.16
225.527	85.82
225.746	76.28
225.965	58.37
226.184	36.86
226.404	50.07
226.623	27.86
226.842	31.77
227.061	53.36
227.28	60.33
227.499	70.56
227.718	82.35
227.936	66.63
228.155	58.55
228.374	39.26
228.593	27.71
228.812	22.81
229.031	29.71
229.25	15.24
229.469	38.05
229.688	30.23
229.907	30.86
230.125	37.04
230.344	51.62
230.563	44.59
230.782	51.5
231.001	25.91
231.22	19.87
231.438	2.04
231.657	4.53
231.876	12.07
232.095	36.54
232.313	40.53
232.532	40.6
232.751	39.14
232.969	29.14
233.188	26.46
233.407	18.34
233.625	22.48
233.844	31.76
234.063	29.66
234.281	64.39
234.5	71.87
234.719	70.66
234.937	52.27
235.156	54.86
235.374	40.05
235.593	60.04
235.811	61.33
236.03	68.51
236.249	63.38
236.467	71.48
236.686	37.57
236.904	32.8
237.123	-28.38
237.341	-10.59
237.559	-30.07
237.778	-29.99
237.996	-44.68
238.215	6.07
238.433	-9.93
238.652	4.43
238.87	-12.9
239.088	-1.63
239.307	-7.06
239.525	2.71
239.743	-22.9
239.962	12.08
240.18	13.48
240.398	-4.84
240.617	-23.77
240.835	7.12
241.053	-23.49
241.271	-1.33
241.49	23.68
241.708	30.02
241.926	23.74
242.144	37.72
242.363	24.1
242.581	36.94
242.799	60.76
243.017	56.38
243.235	35.19
243.453	50.5
243.672	14.77
243.89	20.87
244.108	36.14
244.326	49.33
244.544	36.06
244.762	34.11
244.98	30.27
245.198	26.96
245.416	18.78
245.634	17.8
245.852	34.86
246.07	17.21
246.288	22.74
246.506	31.82
246.724	49.45
246.942	43.04
247.16	59.54
247.378	60.19
247.596	70.6
247.814	65
248.032	33.31
248.25	27.95
248.468	33.36
248.685	38.14
248.903	33.25
249.121	57.09
249.339	33.64
249.557	18.9
249.775	-29.7
249.992	-71.97
250.21	-78.32
250.428	-47.41
250.646	-36.33
250.863	-17.33
251.081	12.59
251.299	34.66
251.517	35.31
251.734	27.02
251.952	17.32
252.17	20.72
252.387	29.87
252.605	13.35
252.823	15.22
253.04	29.65
253.258	27.33
253.475	4.14
253.693	20.52
253.911	35.24
254.128	36.57
254.346	53.11
254.563	49.08
254.781	46.41
254.998	36.58
255.216	34.71
255.433	24.97
255.651	46.48
255.868	53.27
256.086	54.35
256.303	54.56
256.521	41.12
256.738	30.26
256.956	14.6
257.173	16.3
257.39	14.52
257.608	13.4
257.825	15.73
258.043	15.91
258.26	5.96
258.477	4.98
258.695	0.25
258.912	-18.85
259.129	-7.04
259.346	-17.72
259.564	-19.04
259.781	-5.6
259.998	0.94
260.216	23.92
260.433	55.09
260.65	42.61
260.867	44.08
261.084	36.85
261.302	26.29
261.519	33.45
261.736	29.54
261.953	35.5
262.17	45.5
262.387	39.54
262.604	20.66
262.822	24.26
263.039	7.05
263.256	-8.33
263.473	-2.36
263.69	-34.72
263.907	-17.68
264.124	2.97
264.341	24.56
264.558	9.94
264.775	16.6
264.992	31.57
265.209	32.51
265.426	27.15
265.643	29.93
265.86	46.87
266.077	28.35
266.294	21.87
266.51	21.26
266.727	27.34
266.944	45.58
267.161	40.32
267.378	44.87
267.595	53.98
267.812	21.79
268.028	0.42
268.245	18.78
268.462	2.64
268.679	-9.66
268.896	25
269.112	21.91
269.329	15.11
269.546	32.21
269.763	38.85
269.979	33.72
270.196	32.89
270.413	37.37
270.629	23.96
270.846	17.95
271.063	27.18
271.279	19.64
271.496	-11.01
271.712	-3.54
271.929	-0.57
272.146	11.38
272.362	15.6
272.579	50.87
272.795	54.52
273.012	59.83
273.228	47.89
273.445	40.01
273.661	27.16
273.878	-33.53
274.094	-24.61
274.311	-35.43
274.527	-12.12
274.744	-18.74
274.96	18.87
275.177	19.93
275.393	22.65
275.609	28.99
275.826	41.04
276.042	48.55
276.259	44.62
276.475	40.67
276.691	37.03
276.908	28.19
277.124	59.28
277.34	65.89
277.557	51.61
277.773	53.73
277.989	58.11
278.205	36.09
278.422	21.44
278.638	30.63
278.854	33.41
279.07	22.68
279.286	-6.19
279.503	-8.74
279.719	-6.3
279.935	-27.64
280.151	-42.08
280.367	-5.47
280.583	1.26
280.799	1.81
281.016	21.58
281.232	38.49
281.448	38.83
281.664	47.62
281.88	39.39
282.096	20.94
282.312	23.75
282.528	31.41
282.744	30.79
282.96	41.9
283.176	42.07
283.392	36.28
283.608	32.26
283.824	32.32
284.04	35.5
284.256	59.58
284.471	64.85
284.687	53.07
284.903	58.75
285.119	64.62
285.335	33.9
285.551	36
285.767	35.39
285.982	31.95
286.198	14.85
286.414	36.85
286.63	27.14
286.846	40.21
287.061	21.62
287.277	25.14
287.493	29.18
287.709	34.16
287.924	35.11
288.14	49
288.356	45.77
288.571	39.45
288.787	26.8
289.003	36.77
289.218	33.8
289.434	31.65
289.65	37.26
289.865	45.03
290.081	33.61
290.296	33.91
290.512	27.38
290.727	34.5
290.943	26.22
291.159	13.71
291.374	20.79
291.59	13.32
291.805	-5.34
292.021	2.43
292.236	5.41
292.451	4.9
292.667	28.71
292.882	30.98
293.098	30.49
293.313	29.67
293.529	17.61
293.744	-7.66
293.959	-16.38
294.175	-15.6
294.39	-10.41
294.605	-5.27
294.821	21.94
295.036	21.08
295.251	23.61
295.467	29.19
295.682	16.75
295.897	1.7
296.112	0.06
296.328	13.99
296.543	11.32
296.758	20.53
296.973	30.94
297.188	61.89
297.404	30.98
297.619	26.25
297.834	32.08
298.049	26.07
298.264	-5.01
298.479	17.19
298.694	21.83
298.909	20.37
299.125	25.94
299.34	44.77
299.555	27.21
299.77	39.53
299.985	15.51
300.2	1.99
300.415	-24.08
300.63	-9.62
300.845	-7.64
301.06	-10.29
301.275	-20.84
301.49	-16.8
301.704	-12.73
301.919	-45.34
302.134	-30.59
302.349	27.56
302.564	15.46
302.779	16.7
302.994	56.88
303.209	55.4
303.423	23.07
303.638	51.95
303.853	40.59
304.068	-3.63
304.283	3.02
304.497	14.83
304.712	8.75
304.927	14.32
305.142	20.68
305.356	34.47
305.571	34.82
305.786	33.6
306	28.45
306.215	31.34
306.43	2.37
306.644	20.32
306.859	19.44
307.074	23.82
307.288	3.41
307.503	14.53
307.717	0.54
307.932	11.89
308.147	-1.33
308.361	19.17
308.576	13.25
308.79	-27.04
309.005	-13.64
309.219	13.71
309.434	26.26
309.648	19.51
309.863	48.69
310.077	40.48
310.292	27.25
310.506	6.22
310.72	38.91
310.935	35.86
311.149	28.52
311.364	25.2
311.578	41.81
311.792	22.6
312.007	31.71
312.221	16.7
312.435	32.53
312.649	16.77
312.864	48.58
313.078	32.48
313.292	59.14
313.507	50.78
313.721	47.19
313.935	28.34
314.149	50.07
314.363	47.24
314.578	32.45
314.792	20.72
315.006	26.56
315.22	10.45
315.434	2.21
315.648	-0.73
315.862	15.66
316.077	5.66
316.291	20.62
316.505	34.34
316.719	54.21
316.933	12.11
317.147	31.85
317.361	11.94
317.575	13.84
317.789	-4.56
318.003	9.77
318.217	15.45
318.431	35.72
318.645	43.91
318.859	43.27
319.073	56.47
319.287	34.87
319.5	14.61
319.714	-7.36
319.928	-16.4
320.142	-28.14
320.356	8.18
320.57	29.3
320.784	14.94
320.997	27.18
321.211	23.58
321.425	-0.49
321.639	-45.9
321.853	-22.26
322.066	-27.99
322.28	-27.44
322.494	-13.23
322.707	44.94
322.921	37.53
323.135	48.79
323.349	51.23
323.562	39.85
323.776	12.65
323.989	11.74
324.203	-0.79
324.417	4.9
324.63	-14.78
324.844	-31.17
325.057	-31.48
325.271	-31.98
325.485	-29.89
325.698	2.42
325.912	36.17
326.125	37.76
326.339	51.87
326.552	56.63
326.766	70.06
326.979	52.7
327.193	50.35
327.406	44.21
327.619	45.05
327.833	30.39
328.046	20.26
328.26	12.12
328.473	-2.73
328.686	-14.63
328.9	-2.14
329.113	8.92
329.326	15.93
329.54	29.66
329.753	27.08
329.966	18.83
330.179	28.96
330.393	36.51
330.606	30.56
330.819	48.32
331.032	49.71
331.246	51.55
331.459	46.78
331.672	39.27
331.885	24.33
332.098	2.43
332.311	-2.94
332.525	-11.95
332.738	-7.78
332.951	-4.13
333.164	9.81
333.377	22.16
333.59	35.13
333.803	33.03
334.016	36.53
334.229	36.72
334.442	37.39
334.655	43.02
334.868	50.06
335.081	47.13
335.294	37.27
335.507	37.97
335.72	37.62
335.933	27.09
336.146	30.92
336.359	47.62
336.572	26.41
336.785	12.97
336.997	20.75
337.21	26.29
337.423	21.55
337.636	27.74
337.849	27.28
338.062	28.33
338.274	27.47
338.487	23.15
338.7	15.85
338.913	14.75
339.125	3.32
339.338	11.2
339.551	10.87
339.763	40.72
339.976	56.6
340.189	56.39
340.402	50.34
340.614	49.72
340.827	35.21
341.039	17.51
341.252	11.2
341.465	6.17
341.677	-8.81
341.89	-36.26
342.102	-19.93
342.315	-10.31
342.527	-22.82
342.74	-16.18
342.952	26.43
343.165	21.23
343.377	32.88
343.59	33.74
343.802	56.37
344.015	48.24
344.227	57.14
344.44	42.75
344.652	33.18
344.864	33.41
345.077	32.44
345.289	36.86
345.502	46.42
345.714	44.06
345.926	30.4
346.139	24.75
346.351	7.84
346.563	2.35
346.775	16.42
346.988	21.26
347.2	23.98
347.412	23.33
347.624	9.24
347.837	7.8
348.049	5.44
348.261	19.36
348.473	18.43
348.685	15.16
348.897	12.73
349.11	-1.22
349.322	-26.6
349.534	-0.59
349.746	12.57
349.958	17.06
350.17	27.02
350.382	42.25
350.594	43.97
350.806	40.71
351.018	38.75
351.23	44.26
351.442	33.65
351.654	35.82
351.866	39.62
352.078	24.7
352.29	8.97
352.502	17.43
352.714	23.09
352.926	19.19
353.138	26.47
353.35	19.27
353.561	12.14
353.773	-4.91
353.985	1.84
354.197	7.9
354.409	16.58
354.621	21.94
354.832	27.56
355.044	19.27
355.256	13.34
355.468	12.66
355.679	13.56
355.891	19.89
356.103	18.99
356.314	15.83
356.526	34.64
356.738	45.77
356.949	42.29
357.161	52.36
357.373	55.3
357.584	47.1
357.796	31.6
358.008	26.27
358.219	35.28
358.431	31.01
358.642	24.28
358.854	43.62
359.065	38.29
359.277	21.67
359.488	19.71
359.7	3.58
359.911	-15.07
360.123	-9.2
360.334	-10.59
360.546	-9.4
360.757	11.55
360.969	13.48
361.18	28.38
361.391	19.16
361.603	16.46
361.814	22.52
362.025	12.64
362.237	4.27
362.448	13.16
362.659	27.13
362.871	27.1
363.082	32.62
363.293	40.99
363.504	50.82
363.716	45.93
363.927	46.15
364.138	37.77
364.349	13.46
364.56	12.22
364.772	-8.03
364.983	-7.88
365.194	-15.51
365.405	-11.75
365.616	-34.05
365.827	-21.79
366.038	-27.45
366.25	-1.16
366.461	-0.81
366.672	18.25
366.883	31.16
367.094	30.59
367.305	10.02
367.516	21.46
367.727	10.3
367.938	-3.26
368.149	-4.61
368.36	7.01
368.571	6.02
368.781	9.44
368.992	4.27
369.203	24.38
369.414	23.29
369.625	23.06
369.836	13.15
370.047	4.49
370.258	-14.75
370.468	-8.15
370.679	-32.32
370.89	-15.94
371.101	15.05
371.312	3.29
371.522	-6.61
371.733	17.81
371.944	18.4
372.155	20.41
372.365	12.74
372.576	26.26
372.787	18.22
372.997	9.51
373.208	1.54
373.419	19.63
373.629	1.02
373.84	7.36
374.05	-4.91
374.261	13.9
374.472	5.53
374.682	22.3
374.893	4.79
375.103	28.51
375.314	8.55
375.524	14.21
375.735	14.31
375.945	29.27
376.156	11.85
376.366	21.79
376.577	23.23
376.787	25.25
376.997	23.55
377.208	35.77
377.418	21.44
377.629	28.6
377.839	15.19
378.049	15.82
378.26	18.43
378.47	28.08
378.68	23.22
378.89	31.61
379.101	33.56
379.311	19.26
379.521	8.5
379.732	4.75
379.942	-11.15
380.152	-4.23
380.362	2.4
380.572	9.87
380.783	15.94
380.993	32.65
381.203	31.84
381.413	35.75
381.623	26.48
381.833	28.68
382.043	10.52
382.253	9.26
382.463	14.62
382.674	20.42
382.884	6.03
383.094	6.45
383.304	3.71
383.514	-4.47
383.724	-6.85
383.934	-7.4
384.144	-6.12
384.353	-3.22
384.563	6.75
384.773	8.7
384.983	13.99
385.193	18.42
385.403	7.75
385.613	5.6
385.823	4.36
386.033	7.25
386.242	3.13
386.452	11.68
386.662	5.44
386.872	9.48
387.082	11.99
387.291	8.95
387.501	10.91
387.711	10.02
387.921	-0.8
388.13	-1.83
388.34	4.99
388.55	-0.1
388.759	4.39
388.969	14.62
389.179	12.57
389.388	12.38
389.598	12.14
389.807	11.39
390.017	9.93
390.227	9.93
390.436	6.59
390.646	9.46
390.855	10.8
391.065	10.24
391.274	6.99
391.484	6.08
391.693	5.91
391.903	3.74
392.112	2.75
392.322	5.94
392.531	8.96
392.74	6.92
392.95	4.82
393.159	5.3
393.369	6.56
393.578	4.54
393.787	4.2
393.997	8
394.206	7.1
394.415	7.19
394.625	7.16
394.834	7.12
395.043	4.77
395.252	5.81
395.462	5.83
395.671	7.28
395.88	9.25
396.089	10.45
396.298	9.93
396.508	9.17
396.717	8.87
396.926	7.75
397.135	7.4
397.344	7.51
397.553	7.41
397.762	7.26
397.971	7.42
398.181	7.06
398.39	5.42
398.599	4.82
398.808	4.54
399.017	4.75
399.226	5.02
399.435	6.46
399.644	6.69
399.853	6.34
400.062	5.7
400.27	5.54
400.479	5.22
400.688	4.94
400.897	5.28
401.106	5.25
401.315	5.01
401.524	4.95
401.733	5.2
401.941	5.35
402.15	5.42
402.359	5.49
402.568	5.51
402.777	5.41
402.985	5.23
403.194	5.35
403.403	5.17
403.612	5.15
403.82	5.33
404.029	5.26
404.238	5.11
404.446	5.3
404.655	5.02
404.864	4.94
405.072	4.95
405.281	5.04
405.489	4.84
405.698	4.91
405.906	4.76
406.115	4.61
406.324	4.41
406.532	4.47
406.741	4.75
406.949	4.64
407.158	4.68
407.366	4.84
407.574	4.98
407.783	4.83
407.991	4.99
408.2	4.91
408.408	4.81
408.617	4.68
408.825	4.52
409.033	4.54
409.242	4.6
409.45	4.59
409.658	4.57
409.867	4.6
410.075	4.53
410.283	4.39
410.491	4.37
410.7	4.32
410.908	4.25
411.116	4.19
411.324	4.26
411.533	4.29
411.741	4.35
411.949	4.45
412.157	4.3
412.365	4.4
412.573	4.21
412.781	4.03
412.99	3.93
413.198	4.14
413.406	4.05
413.614	4.26
413.822	4.4
414.03	4.41
414.238	4.27
414.446	4.39
414.654	4.06
414.862	4.02
415.07	3.99
415.278	4.22
415.486	3.84
415.694	4.12
415.902	4.13
416.109	4.05
416.317	3.97
416.525	3.83
416.733	3.88
416.941	3.98
417.149	4.14
417.357	4.1
417.564	4.41
417.772	4.25
417.98	4.18
418.188	4
418.395	3.85
418.603	3.95
418.811	3.9
419.019	3.78
419.226	4.09
419.434	4.26
419.642	4.07
419.849	4.03
420.057	4.19
420.265	4.04
420.472	3.94
420.68	4.1
420.887	4.1
421.095	4.12
421.302	3.96
421.51	4.01
421.717	3.96
421.925	3.97
422.132	3.91
422.34	3.94
422.547	3.92
422.755	4.01
422.962	3.99
423.17	3.84
423.377	3.89
423.585	3.93
423.792	3.77
423.999	3.83
424.207	3.87
424.414	3.8
424.621	3.76
424.829	3.71
425.036	3.82
425.243	3.69
425.451	3.66
425.658	3.56
425.865	3.45
426.072	3.43
426.28	3.38
426.487	3.3
426.694	3.42
426.901	3.61
427.108	3.57
427.315	3.68
427.523	4
427.73	3.87
427.937	3.65
428.144	3.57
428.351	3.6
428.558	3.47
428.765	3.41
428.972	3.4
429.179	3.4
429.386	3.46
429.593	3.41
429.8	3.37
430.007	3.62
430.214	3.7
430.421	3.66
430.628	3.61
430.835	3.65
431.042	3.66
431.249	3.61
431.456	3.83
431.662	3.95
431.869	3.96
432.076	3.91
432.283	3.74
432.49	3.41
432.697	3.38
432.903	3.26
433.11	3.28
433.317	3.5
433.524	3.66
433.73	3.57
433.937	3.73
434.144	3.65
434.35	3.53
434.557	3.44
434.764	3.44
434.97	3.45
435.177	3.51
435.384	3.44
435.59	3.57
435.797	3.64
436.003	3.63
436.21	3.55
436.416	3.66
436.623	3.49
436.829	3.47
437.036	3.46
437.242	3.4
437.449	3.25
437.655	3.26
437.862	3.28
438.068	3.37
438.275	3.45
438.481	3.65
438.687	3.63
438.894	3.59
439.1	3.55
439.307	3.59
439.513	3.45
439.719	3.6
439.926	3.6
440.132	3.56
440.338	3.52
440.544	3.57
440.751	3.49
440.957	3.62
441.163	3.44
441.369	3.56
441.575	3.47
441.782	3.44
441.988	3.21
442.194	3.4
442.4	3.3
442.606	3.44
442.812	3.55
443.018	3.62
443.224	3.65
443.431	3.71
443.637	3.63
443.843	3.56
444.049	3.63
444.255	3.57
444.461	3.5
444.667	3.42
444.873	3.37
445.079	3.32
445.284	3.35
445.49	3.33
445.696	3.26
445.902	3.27
446.108	3.28
446.314	3.18
446.52	3.25
446.726	3.56
446.931	3.52
447.137	3.49
447.343	3.69
447.549	3.48
447.755	3.34
447.96	3.43
448.166	3.39
448.372	3.39
448.578	3.47
448.783	3.52
448.989	3.57
449.195	3.74
449.4	3.65
449.606	3.69
449.812	3.54
450.017	3.59
450.223	3.55
450.428	3.36
450.634	3.44
450.84	3.54
451.045	3.41
451.251	3.28
451.456	3.53
451.662	3.53
451.867	3.55
452.073	3.48
452.278	3.61
452.483	3.58
452.689	3.56
452.894	3.64
453.1	3.81
453.305	3.64
453.51	3.55
453.716	3.44
453.921	3.39
454.127	3.34
454.332	3.39
454.537	3.42
454.742	3.52
454.948	3.52
455.153	3.44
455.358	3.45
455.563	3.48
455.769	3.5
455.974	3.43
456.179	3.46
456.384	3.35
456.589	3.37
456.795	3.27
457	3.23
457.205	3.26
457.41	3.35
457.615	3.35
457.82	3.45
458.025	3.54
458.23	3.46
458.435	3.55
458.64	3.38
458.845	3.4
459.05	3.28
459.255	3.29
459.46	3.22
459.665	3.34
459.87	3.28
460.075	3.23
460.28	3.26
460.485	3.34
460.69	3.26
460.895	3.1
461.099	3.16
461.304	3.26
461.509	3.21
461.714	3.23
461.919	3.44
462.123	3.41
462.328	3.41
462.533	3.27
462.738	3.3
462.942	3.16
463.147	3.3
463.352	3.22
463.556	3.3
463.761	3.27
463.966	3.35
464.17	3.39
464.375	3.36
464.58	3.31
464.784	3.36
464.989	3.27
465.193	3.21
465.398	3.22
465.602	3.35
465.807	3.28
466.011	3.34
466.216	3.39
466.42	3.45
466.625	3.46
466.829	3.53
467.034	3.59
467.238	3.61
467.443	3.51
467.647	3.39
467.851	3.43
468.056	3.48
468.26	3.35
468.464	3.34
468.669	3.48
468.873	3.45
469.077	3.41
469.282	3.42
469.486	3.59
469.69	3.54
469.894	3.54
470.099	3.58
470.303	3.63
470.507	3.54
470.711	3.51
470.915	3.47
471.119	3.42
471.324	3.42
471.528	3.37
471.732	3.46
471.936	3.55
472.14	3.65
472.344	3.67
472.548	3.8
472.752	3.78
472.956	3.83
473.16	3.69
473.364	3.65
473.568	3.65
473.772	3.67
473.976	3.69
474.18	3.72
474.384	3.65
474.588	3.53
474.792	3.38
474.995	3.26
475.199	3.33
475.403	3.45
475.607	3.5
475.811	3.57
476.015	3.72
476.218	3.63
476.422	3.59
476.626	3.71
476.83	3.86
477.033	3.74
477.237	3.72
477.441	3.77
477.644	3.69
477.848	3.63
478.052	3.53
478.255	3.54
478.459	3.55
478.663	3.68
478.866	3.67
479.07	3.79
479.273	3.98
479.477	3.95
479.681	3.87
479.884	3.86
480.088	3.82
480.291	3.73
480.495	3.69
480.698	3.74
480.901	3.8
481.105	3.85
481.308	3.8
481.512	3.79
481.715	3.77
481.919	3.74
482.122	3.76
482.325	3.82
482.529	3.87
482.732	3.86
482.935	3.73
483.138	3.69
483.342	3.74
483.545	3.86
483.748	3.85
483.952	3.94
484.155	4.13
484.358	4.17
484.561	4.07
484.764	4.12
484.967	4.11
485.171	4
485.374	3.89
485.577	3.91
485.78	3.92
485.983	3.95
486.186	3.84
486.389	3.87
486.592	3.9
486.795	3.86
486.998	3.86
487.201	4
487.404	4.08
487.607	4.17
487.81	4.22
488.013	4.23
488.216	4.23
488.419	4.3
488.622	4.09
488.825	4.09
489.028	4.14
489.231	4.17
489.433	4
489.636	4.06
489.839	3.95
490.042	3.93
490.245	3.82
490.447	3.97
490.65	4.04
490.853	4.25
491.056	4.24
491.258	4.32
491.461	4.32
491.664	4.36
491.866	4.22
492.069	4.25
492.272	4.33
492.474	4.36
492.677	4.35
492.879	4.48
493.082	4.58
493.285	4.66
493.487	4.61
493.69	4.57
493.892	4.47
494.095	4.47
494.297	4.41
494.5	4.56
494.702	4.68
494.905	4.84
495.107	4.87
495.309	4.89
495.512	4.87
495.714	4.92
495.917	4.91
496.119	4.92
496.321	5.04
496.524	5.11
496.726	5.16
496.928	5.19
497.13	5.25
497.333	5.23
497.535	5.26
497.737	5.19
497.939	5.21
498.142	5.3
498.344	5.19
498.546	5.16
498.748	5.28
498.95	5.29
499.152	5.17
499.355	5.3
499.557	5.35
499.759	5.34
499.961	5.35
500.163	5.45
500.365	5.46
500.567	5.41
500.769	5.37
500.971	5.46
501.173	5.39
501.375	5.39
501.577	5.42
501.779	5.52
501.981	5.47
502.183	5.6
502.385	5.59
502.587	5.59
502.788	5.57
502.99	5.65
503.192	5.66
503.394	5.69
503.596	5.67
503.798	5.75
503.999	5.75
504.201	5.72
504.403	5.77
504.605	5.9
504.806	5.8
505.008	5.75
505.21	5.76
505.411	5.8
505.613	5.69
505.815	5.74
506.016	5.85
506.218	5.91
506.42	5.78
506.621	5.85
506.823	5.94
507.024	5.84
507.226	5.78
507.427	5.81
507.629	5.89
507.83	5.79
508.032	5.78
508.233	5.86
508.435	5.9
508.636	5.86
508.838	5.85
509.039	5.93
509.24	5.94
509.442	5.97
509.643	5.94
509.845	6.01
510.046	6.01
510.247	5.98
510.448	6.01
510.65	6.05
510.851	6.1
511.052	6.14
511.254	6.09
511.455	6.14
511.656	6.17
511.857	6.19
512.058	6.17
512.26	6.24
512.461	6.14
512.662	6.22
512.863	6.13
513.064	6.11
513.265	6.13
513.466	6.22
513.667	6.14
513.868	6.22
514.069	6.26
514.27	6.28
514.471	6.21
514.672	6.28
514.873	6.27
515.074	6.28
515.275	6.24
515.476	6.31
515.677	6.28
515.878	6.32
516.079	6.3
516.28	6.38
516.481	6.46
516.682	6.46
516.882	6.47
517.083	6.55
517.284	6.44
517.485	6.38
517.686	6.41
517.886	6.36
518.087	6.39
518.288	6.51
518.488	6.49
518.689	6.47
518.89	6.45
519.091	6.45
519.291	6.38
519.492	6.46
519.692	6.51
519.893	6.64
520.094	6.63
520.294	6.62
520.495	6.58
520.695	6.64
520.896	6.6
521.096	6.59
521.297	6.71
521.497	6.8
521.698	6.74
521.898	6.71
522.099	6.79
522.299	6.78
522.499	6.74
522.7	6.77
522.9	6.83
523.101	6.83
523.301	6.84
523.501	6.84
523.702	6.86
523.902	6.94
524.102	7
524.302	7.07
524.503	7.15
524.703	7.18
524.903	7.11
525.103	7.02
525.304	7.03
525.504	7.01
525.704	7.04
525.904	7.05
526.104	7.13
526.304	7.13
526.504	7.14
526.705	7.15
526.905	7.26
527.105	7.27
527.305	7.31
527.505	7.28
527.705	7.29
527.905	7.29
528.105	7.32
528.305	7.24
528.505	7.31
528.705	7.35
528.905	7.29
529.105	7.29
529.304	7.4
529.504	7.44
529.704	7.43
529.904	7.47
530.104	7.49
530.304	7.6
530.503	7.58
530.703	7.58
530.903	7.6
531.103	7.63
531.303	7.5
531.502	7.56
531.702	7.64
531.902	7.71
532.101	7.69
532.301	7.69
532.501	7.65
532.7	7.69
532.9	7.68
533.1	7.78
533.299	7.84
533.499	7.92
533.698	7.87
533.898	7.89
534.097	7.86
534.297	7.93
534.496	7.91
534.696	7.97
534.895	8.03
535.095	8.12
535.294	8.1
535.494	8.09
535.693	8.09
535.892	8.18
536.092	8.15
536.291	8.18
536.491	8.25
536.69	8.35
536.889	8.21
537.088	8.22
537.288	8.26
537.487	8.34
537.686	8.29
537.886	8.44
538.085	8.5
538.284	8.55
538.483	8.5
538.682	8.59
538.882	8.62
539.081	8.68
539.28	8.67
539.479	8.72
539.678	8.7
539.877	8.76
540.076	8.73
540.275	8.81
540.474	8.82
540.673	8.9
540.872	8.93
541.071	9
541.27	9.01
541.469	9.12
541.668	9.2
541.867	9.19
542.066	9.24
542.265	9.34
542.464	9.31
542.663	9.35
542.862	9.49
543.06	9.57
543.259	9.57
543.458	9.7
543.657	9.71
543.856	9.7
544.054	9.74
544.253	9.75
544.452	9.67
544.651	9.7
544.849	9.69
545.048	9.72
545.247	9.74
545.445	9.92
545.644	9.97
545.843	10.01
546.041	10.05
546.24	10.19
546.438	10.24
546.637	10.29
546.836	10.5
547.034	10.62
547.233	10.66
547.431	10.7
547.63	10.86
547.828	10.78
548.027	10.87
548.225	10.85
548.423	10.99
548.622	10.98
548.82	10.99
549.019	10.99
549.217	11.14
549.415	11.15
549.614	11.18
549.812	11.28
550.01	11.3
550.209	11.36
550.407	11.44
550.605	11.59
550.803	11.68
551.002	11.78
551.2	11.83
551.398	12.03
551.596	12.05
551.794	12.24
551.993	12.38
552.191	12.39
552.389	12.34
552.587	12.43
552.785	12.47
552.983	12.56
553.181	12.74
553.379	12.88
553.577	12.9
553.775	13
553.973	13.03
554.171	13.14
554.369	13.17
554.567	13.33
554.765	13.42
554.963	13.61
555.161	13.68
555.359	13.84
555.557	13.92
555.755	14.06
555.952	14.11
556.15	14.18
556.348	14.28
556.546	14.45
556.744	14.47
556.941	14.55
557.139	14.72
557.337	14.86
557.535	15
557.732	15.14
557.93	15.3
558.128	15.51
558.325	15.53
558.523	15.52
558.721	15.7
558.918	15.72
559.116	15.7
559.313	15.77
559.511	15.93
559.708	15.95
559.906	16.15
560.104	16.34
560.301	16.56
560.498	16.73
560.696	16.82
560.893	16.97
561.091	17.09
561.288	17.16
561.486	17.27
561.683	17.49
561.88	17.63
562.078	17.73
562.275	17.84
562.473	17.95
562.67	18.15
562.867	18.24
563.064	18.41
563.262	18.52
563.459	18.68
563.656	18.78
563.853	18.83
564.051	18.87
564.248	19.11
564.445	19.19
564.642	19.28
564.839	19.41
565.036	19.61
565.234	19.71
565.431	19.83
565.628	19.95
565.825	20.15
566.022	20.23
566.219	20.31
566.416	20.4
566.613	20.45
566.81	20.6
567.007	20.68
567.204	20.71
567.401	20.76
567.598	20.9
567.795	20.85
567.991	20.89
568.188	21.11
568.385	21.23
568.582	21.29
568.779	21.43
568.976	21.54
569.172	21.59
569.369	21.8
569.566	21.91
569.763	22
569.96	22.2
570.156	22.21
570.353	22.21
570.55	22.23
570.746	22.38
570.943	22.31
571.14	22.4
571.336	22.4
571.533	22.49
571.729	22.46
571.926	22.52
572.123	22.62
572.319	22.75
572.516	22.82
572.712	22.84
572.909	22.99
573.105	23.07
573.302	23.12
573.498	23.23
573.695	23.26
573.891	23.29
574.087	23.27
574.284	23.21
574.48	23.07
574.677	23.11
574.873	23.11
575.069	23.23
575.266	23.39
575.462	23.56
575.658	23.69
575.854	23.81
576.051	23.85
576.247	23.8
576.443	23.81
576.639	23.82
576.835	23.74
577.032	23.64
577.228	23.63
577.424	23.58
577.62	23.51
577.816	23.47
578.012	23.5
578.208	23.43
578.404	23.51
578.6	23.57
578.796	23.62
578.993	23.58
579.189	23.62
579.384	23.52
579.58	23.4
579.776	23.43
579.972	23.45
580.168	23.44
580.364	23.41
580.56	23.49
580.756	23.42
580.952	23.34
581.148	23.37
581.343	23.44
581.539	23.36
581.735	23.39
581.931	23.51
582.127	23.46
582.322	23.34
582.518	23.44
582.714	23.35
582.909	23.11
583.105	23.14
583.301	23.14
583.496	23.08
583.692	23.05
583.888	23.09
584.083	23.02
584.279	23.08
584.474	23.02
584.67	23.01
584.866	22.99
585.061	22.96
585.257	22.86
585.452	22.85
585.648	22.77
585.843	22.83
586.039	22.82
586.234	22.85
586.429	22.81
586.625	22.83
586.82	22.69
587.015	22.7
587.211	22.64
587.406	22.64
587.601	22.67
587.797	22.65
587.992	22.57
588.187	22.67
588.383	22.67
588.578	22.71
588.773	22.83
588.968	22.89
589.163	22.78
589.359	22.69
589.554	22.64
589.749	22.74
589.944	22.76
590.139	22.79
590.334	22.86
590.529	22.95
590.724	22.87
590.919	22.87
591.114	22.92
591.309	23.03
591.504	23.1
591.699	23.03
591.894	23.12
592.089	23.03
592.284	23.04
592.479	23
592.674	23.07
592.869	23.07
593.064	23.28
593.259	23.32
593.454	23.39
593.648	23.46
593.843	23.57
594.038	23.58
594.233	23.52
594.428	23.5
594.622	23.5
594.817	23.44
595.012	23.43
595.206	23.47
595.401	23.62
595.596	23.68
595.79	23.78
595.985	23.93
596.18	24.1
596.374	24.14
596.569	24.26
596.763	24.29
596.958	24.25
597.153	24.27
597.347	24.26
597.542	24.42
597.736	24.52
597.931	24.64
598.125	24.71
598.319	24.85
598.514	24.83
598.708	24.83
598.903	24.89
599.097	24.91
599.291	24.95
599.486	24.93
599.68	24.98
599.874	25.07
600.069	25.08
600.263	24.95
600.457	25.01
600.651	25.1
600.846	25.1
601.04	25.18
601.234	25.34
601.428	25.36
601.622	25.43
601.817	25.41
602.011	25.36
602.205	25.37
602.399	25.31
602.593	25.23
602.787	25.28
602.981	25.33
603.175	25.37
603.369	25.39
603.563	25.48
603.757	25.51
603.951	25.53
604.145	25.39
604.339	25.47
604.533	25.4
604.727	25.3
604.921	25.22
605.115	25.18
605.309	25.11
605.502	25.03
605.696	24.96
605.89	24.88
606.084	25
606.278	24.87
606.471	24.8
606.665	24.74
606.859	24.7
607.053	24.57
607.246	24.58
607.44	24.52
607.634	24.46
607.827	24.41
608.021	24.31
608.214	24.18
608.408	24.1
608.602	24.02
608.795	23.91
608.989	23.95
609.182	23.88
609.376	23.86
609.569	23.8
609.763	23.66
609.956	23.49
610.15	23.45
610.343	23.3
610.537	23.17
610.73	23.21
610.923	23.08
611.117	22.95
611.31	22.83
611.504	22.76
611.697	22.57
611.89	22.47
612.083	22.3
612.277	22.29
612.47	22.1
612.663	22
612.856	21.94
613.05	21.91
613.243	21.78
613.436	21.69
613.629	21.67
613.822	21.56
614.015	21.54
614.209	21.41
614.402	21.56
614.595	21.48
614.788	21.41
614.981	21.25
615.174	21.15
615.367	20.94
615.56	20.78
615.753	20.68
615.946	20.63
616.139	20.65
616.332	20.67
616.525	20.64
616.718	20.63
616.911	20.55
617.103	20.52
617.296	20.43
617.489	20.41
617.682	20.36
617.875	20.41
618.067	20.38
618.26	20.22
618.453	20.21
618.646	20.23
618.838	20.03
619.031	19.95
619.224	19.98
619.417	19.87
619.609	19.85
619.802	19.89
619.994	19.84
620.187	19.84
620.38	19.83
620.572	19.61
620.765	19.63
620.957	19.53
621.15	19.41
621.342	19.31
621.535	19.36
621.727	19.26
621.92	19.26
622.112	19.22
622.305	19.32
622.497	19.2
622.69	19.15
622.882	19.1
623.074	19.1
623.267	19
623.459	18.97
623.651	18.86
623.844	18.74
624.036	18.7
624.228	18.64
624.42	18.65
624.613	18.72
624.805	18.76
624.997	18.71
625.189	18.68
625.381	18.72
625.574	18.73
625.766	18.66
625.958	18.69
626.15	18.75
626.342	18.68
626.534	18.62
626.726	18.58
626.918	18.52
627.11	18.36
627.302	18.28
627.494	18.22
627.686	18.26
627.878	18.18
628.07	18.13
628.262	18.06
628.454	18.03
628.646	18.02
628.838	18.06
629.029	17.99
629.221	17.98
629.413	17.84
629.605	17.72
629.797	17.54
629.989	17.59
630.18	17.59
630.372	17.63
630.564	17.59
630.755	17.61
630.947	17.54
631.139	17.4
631.33	17.29
631.522	17.25
631.714	17.22
631.905	17.13
632.097	17.14
632.289	17.18
632.48	17.19
632.672	17.09
632.863	17.02
633.055	16.95
633.246	16.92
633.438	16.83
633.629	16.85
633.821	16.91
634.012	16.92
634.203	16.76
634.395	16.73
634.586	16.8
634.777	16.74
634.969	16.66
635.16	16.78
635.351	16.81
635.543	16.67
635.734	16.67
635.925	16.63
636.117	16.6
636.308	16.49
636.499	16.51
636.69	16.4
636.881	16.41
637.073	16.4
637.264	16.35
637.455	16.29
637.646	16.42
637.837	16.46
638.028	16.39
638.219	16.48
638.41	16.4
638.601	16.24
638.792	16.16
638.983	16.12
639.174	15.92
639.365	15.89
639.556	15.87
639.747	15.82
639.938	15.78
640.129	15.85
640.32	15.82
640.511	15.82
640.701	15.73
640.892	15.78
641.083	15.82
641.274	15.88
641.465	15.87
641.655	15.88
641.846	15.73
642.037	15.58
642.228	15.47
642.418	15.37
642.609	15.2
642.8	15.23
642.99	15.17
643.181	15.18
643.372	15.16
643.562	15.19
643.753	15.12
643.943	15.09
644.134	14.97
644.324	14.88
644.515	14.86
644.705	14.91
644.896	14.95
645.086	14.97
645.277	14.92
645.467	14.89
645.658	14.68
645.848	14.6
646.038	14.51
646.229	14.48
646.419	14.48
646.61	14.47
646.8	14.38
646.99	14.41
647.18	14.4
647.371	14.4
647.561	14.31
647.751	14.35
647.941	14.3
648.132	14.25
648.322	14.15
648.512	14.26
648.702	14.26
648.892	14.2
649.082	14.23
649.272	14.07
649.462	13.93
649.653	13.75
649.843	13.69
650.033	13.66
650.223	13.72
650.413	13.7
650.603	13.73
650.793	13.64
650.983	13.52
651.172	13.41
651.362	13.27
651.552	13.17
651.742	13.05
651.932	12.98
652.122	13.04
652.312	13.09
652.502	13.1
652.691	13.13
652.881	13.14
653.071	13.05
653.261	12.82
653.45	12.61
653.64	12.57
653.83	12.41
654.019	12.34
654.209	12.44
654.399	12.51
654.588	12.42
654.778	12.42
654.968	12.29
655.157	12.18
655.347	12
655.536	11.82
655.726	11.63
655.915	11.46
656.105	11.31
656.294	11.2
656.484	11
656.673	10.89
656.863	10.93
657.052	10.86
657.241	10.8
657.431	10.83
657.62	10.62
657.809	10.35
657.999	10.1
658.188	9.85
658.377	9.76
658.567	9.69
658.756	9.65
658.945	9.46
659.134	9.29
659.324	9.01
659.513	8.92
659.702	8.62
659.891	8.6
660.08	8.54
660.269	8.53
660.458	8.5
660.648	8.49
660.837	8.41
661.026	8.24
661.215	8.15
661.404	7.78
661.593	7.77
661.782	7.56
661.971	7.51
662.16	7.42
662.349	7.42
662.538	7.17
662.726	7.2
662.915	7.17
663.104	6.92
663.293	6.83
663.482	6.9
663.671	6.77
663.86	6.64
664.048	6.59
664.237	6.63
664.426	6.37
664.615	6.33
664.803	6.32
664.992	6.39
665.181	6.31
665.369	6.21
665.558	6.22
665.747	6.1
665.935	6.1
666.124	6.09
666.312	6.29
666.501	6.13
666.69	6.08
666.878	6.02
667.067	5.93
667.255	5.83
667.444	5.96
667.632	6.11
667.82	6.05
668.009	6.08
668.197	6.1
668.386	6.05
668.574	6.08
668.762	6.17
668.951	6.21
669.139	6.19
669.327	6.18
669.516	6.19
669.704	6.2
669.892	6.24
670.08	6.28
670.269	6.3
670.457	6.29
670.645	6.28
670.833	6.34
671.021	6.34
671.21	6.39
671.398	6.44
671.586	6.43
671.774	6.43
671.962	6.51
672.15	6.51
672.338	6.42
672.526	6.64
672.714	6.53
672.902	6.53
673.09	6.73
673.278	7.02
673.466	7.01
673.654	7.4
673.842	7.44
674.03	7.61
674.218	7.64
674.405	7.65
674.593	7.62
674.781	7.86
674.969	7.62
675.157	7.78
675.344	7.84
675.532	7.77
675.72	7.83
675.908	8.11
676.095	7.97
676.283	8.12
676.471	8.32
676.658	8.38
676.846	8.37
677.033	8.54
677.221	8.52
677.409	8.54
677.596	8.57
677.784	8.63
677.971	8.73
678.159	8.95
678.346	9.04
678.534	9.01
678.721	9.25
678.909	9.21
679.096	9.2
679.283	9.29
679.471	9.51
679.658	9.6
679.846	9.83
680.033	10.13
680.22	10.18
680.408	10.32
680.595	10.33
680.782	10.41
680.969	10.41
681.157	10.5
681.344	10.52
681.531	10.63
681.718	10.67
681.905	10.77
682.093	10.81
682.28	11.07
682.467	11.2
682.654	11.33
682.841	11.38
683.028	11.75
683.215	11.88
683.402	11.86
683.589	12.08
683.776	12.35
683.963	12.37
684.15	12.63
684.337	12.8
684.524	12.98
684.711	13.09
684.898	13.18
685.085	13.2
685.271	13.66
685.458	13.88
685.645	14.14
685.832	14.67
686.019	14.83
686.205	15.01
686.392	15.17
686.579	15.47
686.766	15.64
686.952	16.19
687.139	16.63
687.326	16.95
687.512	17.24
687.699	17.62
687.886	17.78
688.072	18.03
688.259	18.63
688.445	19.01
688.632	19.28
688.818	19.87
689.005	20.23
689.191	20.69
689.378	21.37
689.564	22.05
689.751	22.41
689.937	23.07
690.124	23.43
690.31	23.93
690.496	24.36
690.683	25.09
690.869	25.65
691.055	26.34
691.242	26.9
691.428	27.48
691.614	28.21
691.8	28.8
691.987	29.43
692.173	29.93
692.359	30.73
692.545	31.24
692.731	31.71
692.918	32.3
693.104	33
693.29	33.66
693.476	34.36
693.662	35.37
693.848	36.14
694.034	36.98
694.22	37.72
694.406	38.64
694.592	39.08
694.778	39.55
694.964	40.08
695.15	40.63
695.336	41.08
695.522	41.92
695.708	42.86
695.894	43.65
696.08	44.11
696.265	44.69
696.451	45.18
696.637	45.98
696.823	46.55
697.009	47.64
697.194	48.35
697.38	49.24
697.566	49.78
697.751	50.38
697.937	50.94
698.123	51.92
698.308	52.72
698.494	53.27
698.68	54.21
698.865	54.72
699.051	55.02
699.236	55.42
699.422	56.03
699.607	56.35
699.793	56.96
699.978	57.28
700.164	57.7
700.349	58.44
700.535	59.32
700.72	59.67
700.906	60.69
701.091	61.32
701.276	61.69
701.462	62.44
701.647	63.35
701.832	63.7
702.018	64.47
702.203	65.3
702.388	65.34
702.573	65.73
702.759	66.49
702.944	66.56
703.129	66.65
703.314	67.35
703.499	68.06
703.684	68.76
703.87	69.48
704.055	70.27
704.24	70.46
704.425	70.5
704.61	70.42
704.795	70.59
704.98	70.42
705.165	71.12
705.35	71.56
705.535	71.75
705.72	72.45
705.905	73.05
706.09	73.45
706.275	73.6
706.459	73.92
706.644	74.09
706.829	74.79
707.014	74.74
707.199	75.05
707.384	75.64
707.568	76.03
707.753	76.13
707.938	76.5
708.123	76.84
708.307	76.74
708.492	76.89
708.677	76.61
708.861	76.48
709.046	76.37
709.231	76.98
709.415	76.93
709.6	77.78
709.784	78.05
709.969	78.8
710.153	78.75
710.338	79.44
710.522	79.18
710.707	80.01
710.891	79.92
711.076	80.3
711.26	79.79
711.445	80.43
711.629	80.4
711.813	81.07
711.998	81.27
712.182	81.52
712.366	81.52
712.551	81.85
712.735	81.42
712.919	81.53
713.103	81.88
713.288	81.94
713.472	81.93
713.656	82.68
713.84	83.04
714.024	83.37
714.208	83.86
714.393	84.16
714.577	84.32
714.761	84.15
714.945	84.37
715.129	83.96
715.313	83.78
715.497	83.56
715.681	83.83
715.865	83.97
716.049	84.54
716.233	85.06
716.417	85.38
716.601	85.63
716.785	85.48
716.968	85.66
717.152	85.36
717.336	85.76
717.52	85.7
717.704	86.45
717.888	86.73
718.071	86.75
718.255	86.78
718.439	86.77
718.622	87.1
718.806	86.68
718.99	86.36
719.174	86.43
719.357	86.99
719.541	86.51
719.724	87.25
719.908	88.56
720.092	89.04
720.275	89.24
720.459	90.09
720.642	89.56
720.826	89.5
721.009	89.28
721.193	88.45
721.376	87.85
721.559	88.37
721.743	88.19
721.926	88.14
722.11	87.85
722.293	87.73
722.476	86.77
722.66	86.49
722.843	86.48
723.026	86.75
723.21	87.15
723.393	88.43
723.576	89.18
723.759	88.93
723.942	89.63
724.126	89.41
724.309	89.6
724.492	89.19
724.675	90.08
724.858	90.25
725.041	91.11
725.224	90.93
725.407	91.58
725.59	91.4
725.774	91.51
725.957	90.96
726.14	91.16
726.322	91.04
726.505	90.79
726.688	91.02
726.871	90.78
727.054	91.19
727.237	91.31
727.42	91.75
727.603	91.92
727.786	92.29
727.968	92.29
728.151	91.85
728.334	91.94
728.517	92.31
728.699	93.09
728.882	92.91
729.065	93.59
729.248	93.69
729.43	93.88
729.613	94.81
729.796	94.57
729.978	93.75
730.161	93.43
730.343	93.62
730.526	92.87
730.708	93.37
730.891	94.78
731.073	94.97
731.256	94.28
731.438	94.78
731.621	94.96
731.803	95.31
731.986	95.72
732.168	96.35
732.35	96.35
732.533	96.36
732.715	95.31
732.898	95.51
733.08	95.42
733.262	94.77
733.444	94.51
733.627	95.21
733.809	95.34
733.991	95.35
734.173	96.19
734.355	96.65
734.538	96.75
734.72	96.21
734.902	97.21
735.084	96.62
735.266	97.08
735.448	97.11
735.63	97.37
735.812	97.49
735.994	97.37
736.176	97.25
736.358	97.5
736.54	99.1
736.722	98.58
736.904	98.92
737.086	98.33
737.268	99.26
737.45	98.68
737.632	98.76
737.814	98.59
737.995	99.57
738.177	98.99
738.359	98.89
738.541	99.06
738.723	99.77
738.904	99.51
739.086	99.37
739.268	99.12
739.449	98.79
739.631	98.5
739.813	98.66
739.994	99.31
740.176	99.15
740.358	99.34
740.539	100.54
740.721	100.56
740.902	101.07
741.084	101.55
741.265	101.43
741.447	101.25
741.628	101.37
741.81	99.68
741.991	100.16
742.172	101.01
742.354	100.56
742.535	100.91
742.717	102.26
742.898	101.16
743.079	101.44
743.261	100.41
743.442	99.46
743.623	99.11
743.804	100.42
743.986	100.55
744.167	100.71
744.348	102.09
744.529	102.33
744.71	101.36
744.891	100.77
745.073	100.79
745.254	100.44
745.435	99.9
745.616	99.35
745.797	98.74
745.978	99.77
746.159	99.51
746.34	99.16
746.521	99.29
746.702	100.33
746.883	99.39
747.064	97.41
747.245	97.45
747.426	98.4
747.606	97.85
747.787	99.2
747.968	100.55
748.149	101.19
748.33	101.99
748.51	101.11
748.691	98.97
748.872	100.01
749.053	99.65
749.233	98.73
749.414	99.02
749.595	101.04
749.775	100.02
749.956	99.27
750.137	98.34
750.317	99.11
750.498	99.24
750.678	99.26
750.859	100.95
751.04	102.54
751.22	101.54
751.4	99.59
751.581	99.52
751.761	98.93
751.942	98.67
752.122	99.52
752.303	99.3
752.483	100
752.663	99.71
752.844	100.93
753.024	100.82
753.204	101.63
753.385	99.47
753.565	97.97
753.745	96.3
753.925	96.91
754.106	98.57
754.286	100.94
754.466	101.3
754.646	101.25
754.826	100.61
755.006	98.25
755.187	98.99
755.367	99.84
755.547	100.59
755.727	100.43
755.907	100.88
756.087	100.77
756.267	100.07
756.447	99.94
756.627	100.02
756.807	100.66
756.987	99.93
757.167	101.62
757.346	101.33
757.526	98.96
757.706	99.56
757.886	98.79
758.066	98.23
758.246	98.98
758.425	100.82
758.605	99.87
758.785	99.5
758.965	99.89
759.144	96.53
759.324	96.54
759.504	96.36
759.683	96.42
759.863	94.04
760.043	96.76
760.222	96.63
760.402	96.15
760.581	96.41
760.761	98.09
760.94	95.51
761.12	94.49
761.299	96.37
761.479	96.56
761.658	94.71
761.838	96.05
762.017	97.45
762.197	96.48
762.376	95.59
762.555	97.89
762.735	98.04
762.914	96.04
763.093	96.42
763.273	94.53
763.452	94.41
763.631	94.08
763.81	93.97
763.99	92.12
764.169	94.74
764.348	91.91
764.527	92.07
764.706	94.36
764.885	96.89
765.064	94.88
765.243	96.81
765.423	96.81
765.602	98.22
765.781	96.25
765.96	96.78
766.139	97.65
766.318	97.47
766.497	96.06
766.676	96.77
766.854	97.13
767.033	95.57
767.212	95.3
767.391	93.19
767.57	94.13
767.749	96.01
767.928	96.73
768.106	93.49
768.285	93.95
768.464	94.26
768.643	93.84
768.821	93.7
769	96.89
769.179	97.29
769.357	93.15
769.536	90.76
769.715	93.17
769.893	92.38
770.072	91.38
770.25	91.27
770.429	92.38
770.607	89.23
770.786	90.05
770.964	91.09
771.143	94.42
771.321	95.54
771.5	95.99
771.678	95.49
771.857	93.88
772.035	93.69
772.213	92.77
772.392	88.9
772.57	89.21
772.748	91.1
772.927	88.8
773.105	87.18
773.283	91.03
773.461	92.19
773.64	89.83
773.818	87.82
773.996	90.54
774.174	91.89
774.352	88.05
774.531	90.05
774.709	92.55
774.887	91.61
775.065	88.92
775.243	89.44
775.421	91.42
775.599	94
775.777	90.77
775.955	89.85
776.133	91.87
776.311	90.18
776.489	87.39
776.667	89.46
776.844	92.89
777.022	91.05
777.2	88.74
777.378	87.99
777.556	87.13
777.734	85.3
777.911	85.94
778.089	86.83
778.267	89.45
778.445	89.54
778.622	89.01
778.8	91
778.978	93.11
779.155	92.49
779.333	94.45
779.511	90.05
779.688	87.42
779.866	80.71
780.043	77.08
780.221	76.01
780.398	77.19
780.576	78.78
780.753	85.52
780.931	88.88
781.108	88.42
781.286	92.65
781.463	88.32
781.64	87.48
781.818	89.05
781.995	90.37
782.172	90.02
782.35	94.6
782.527	92.62
782.704	90.33
782.882	91.49
783.059	90.56
783.236	91.32
783.413	92.43
783.59	92.88
783.768	87.82
783.945	89.21
784.122	87.24
784.299	87.76
784.476	88.14
784.653	90.26
784.83	87.33
785.007	84.88
785.184	86.1
785.361	86.17
785.538	89.52
785.715	89
785.892	92.98
786.069	91.78
786.246	90.76
786.423	85.73
786.6	86.47
786.776	86.61
786.953	87.23
787.13	86.69
787.307	89.4
787.484	90.94
787.66	88.42
787.837	82.92
788.014	84.35
788.191	82.04
788.367	77.7
788.544	81.06
788.721	82.99
788.897	82.43
789.074	85.42
789.25	85.74
789.427	83.07
789.603	82.5
789.78	85.72
789.956	75.91
790.133	79.4
790.309	79.96
790.486	83.62
790.662	78.8
790.839	84.83
791.015	85.54
791.192	78.71
791.368	79.66
791.544	78.55
791.721	82.87
791.897	80.45
792.073	83.58
792.249	81.06
792.426	82.7
792.602	80.85
792.778	78.37
792.954	77.97
793.13	73.82
793.307	72.64
793.483	68.21
793.659	69.7
793.835	72.58
794.011	81.26
794.187	73.58
794.363	71.6
794.539	73.95
794.715	70.17
794.891	64.25
795.067	68.38
795.243	78.5
795.419	77
795.595	77.46
795.771	76.71
795.947	84.45
796.122	74.17
796.298	76.23
796.474	81.69
796.65	81.25
796.826	76.92
797.001	83.39
797.177	78.91
797.353	78.04
797.529	81.1
797.704	76.22
797.88	74.74
798.056	72.86
798.231	71.72
798.407	73.88
798.582	79.15
798.758	80.98
798.934	88.75
799.109	85.34
799.285	79.97
799.46	85.13
799.636	84.05
799.811	81.96
799.986	88.01
800.162	100.41
800.337	95.7
800.513	92.34
800.688	86.38
800.863	85.96
801.039	73.41
801.214	69.42
801.389	73.79
801.565	80.27
801.74	79.74
801.915	82.34
802.09	92.21
802.265	96.35
802.441	92.18
802.616	88.58
802.791	88.77
802.966	82.58
803.141	79.52
803.316	74.14
803.491	76.45
803.666	74.62
803.841	71.82
804.016	66.19
804.191	74.1
804.366	77.03
804.541	80.64
804.716	73.76
804.891	71.25
805.066	67.57
805.241	64.47
805.416	65.38
805.591	71.45
805.765	78.63
805.94	83.49
806.115	83.97
806.29	75.2
806.464	77.98
806.639	70.73
806.814	59.17
806.989	49.94
807.163	58.37
807.338	53.15
807.512	54.19
807.687	55.34
807.862	60.08
808.036	60.78
808.211	62.41
808.385	62.98
808.56	68.93
808.734	68.21
808.909	68.05
809.083	62.36
809.258	73.71
809.432	78.22
809.606	65.65
809.781	63.88
809.955	75.11
810.13	70.51
810.304	64.91
810.478	74.02
810.652	79.73
810.827	79.67
811.001	78.29
811.175	75.48
811.349	77.33
811.524	67.59
811.698	59.17
811.872	60.82
812.046	62.36
812.22	61.81
812.394	59.03
812.568	62.78
812.742	63.84
812.916	61.13
813.09	66.57
813.264	83.78
813.438	83.15
813.612	78.32
813.786	73.92
813.96	74.54
814.134	70.3
814.308	68.77
814.482	70.98
814.656	82.14
814.83	86.44
815.003	83.87
815.177	84.58
815.351	82.13
815.525	86.36
815.698	74.76
815.872	63.58
816.046	60.13
816.219	63.91
816.393	63.94
816.567	67.23
816.74	74.98
816.914	86.62
817.088	81.56
817.261	75.19
817.435	72.75
817.608	60.15
817.782	49.96
817.955	45.03
818.129	34.07
818.302	42.25
818.475	66.44
818.649	65.64
818.822	63.2
818.996	76.87
819.169	75.06
819.342	62.97
819.516	61.21
819.689	71.71
819.862	67.93
820.035	50.47
820.209	42.01
820.382	50
820.555	49.18
820.728	42.04
820.901	51.47
821.075	62.92
821.248	76.99
821.421	74.92
821.594	66.38
821.767	84.29
821.94	95.55
822.113	53.13
822.286	57.92
822.459	84.18
822.632	74.7
822.805	66.65
822.978	87.9
823.151	83.32
823.324	61.88
823.496	44.66
823.669	43.19
823.842	50.1
824.015	41.23
824.188	29.24
824.361	27.83
824.533	23.32
824.706	36.74
824.879	35.63
825.051	68.54
825.224	81.49
825.397	78.87
825.569	58.78
825.742	65.37
825.915	66.25
826.087	60.3
826.26	55.03
826.432	52.67
826.605	66.36
826.777	68.82
826.95	55.77
827.122	53.76
827.295	57.24
827.467	46.3
827.64	28.55
827.812	30.04
827.984	38.01
828.157	32.58
828.329	20.3
828.501	23.78
828.674	38.73
828.846	41.7
829.018	57.55
829.19	66.28
829.363	83.83
829.535	68.1
829.707	67.07
829.879	41.66
830.051	37.45
830.223	40.29
830.395	30.11
830.568	23.27
830.74	37.54
830.912	55.52
831.084	30.98
831.256	29.37
831.428	14.71
831.6	1.18
831.772	-17.1
831.943	-11.08
832.115	12.58
832.287	47.76
832.459	52.27
832.631	50.48
832.803	63.95
832.975	49.15
833.146	33.62
833.318	44.31
833.49	52.38
833.662	43.56
833.833	41.83
834.005	43.33
834.177	50.43
834.348	38.46
834.52	21.31
834.692	32.44
834.863	32.89
835.035	21.96
835.206	28.98
835.378	46.48
835.549	32.41
835.721	28.12
835.892	22.58
836.064	32.3
836.235	27.71
836.407	55.23
836.578	56.89
836.749	71.58
836.921	55.92
837.092	52.49
837.264	18.13
837.435	-1.54
837.606	-0.99
837.777	50.45
837.949	55.58
838.12	61.26
838.291	70.84
838.462	70.5
838.633	39.02
838.805	29.12
838.976	31.53
839.147	27.04
839.318	-8.75
839.489	-26.54
839.66	-13.68
839.831	-21.97
840.002	-16.52
840.173	-6.37
840.344	3.62
840.515	12.05
840.686	7.43
840.857	7.03
841.028	18.45
841.199	38.8
841.369	22.06
841.54	30.76
841.711	59.1
841.882	51.54
842.053	31
842.223	9.91
842.394	37.64
842.565	23.39
842.736	46.47
842.906	54.13
843.077	75.25
843.248	65.52
843.418	58.29
843.589	50.8
843.759	65.76
843.93	68.11
844.101	57.73
844.271	61.76
844.442	69.25
844.612	69.06
844.783	43.02
844.953	28.09
845.123	42.27
845.294	38.24
845.464	23.87
845.635	32.24
845.805	49.64
845.975	54.65
846.146	25.45
846.316	18.94
846.486	43.76
846.656	51.4
846.827	17.86
846.997	25.55
847.167	43.84
847.337	8.56
847.507	3.27
847.677	4.26
847.848	28.23
848.018	26.79
848.188	41.52
848.358	34.51
848.528	43.74
848.698	29.99
848.868	1.84
849.038	-14.53
849.208	2.79
849.378	33.13
849.548	2.11
849.718	42.48
849.887	82.41
850.057	23.35
850.227	7.9
850.397	38.87
850.567	19.42
850.737	22.11
850.906	15.29
851.076	-32.62
851.246	-51.28
851.415	-10.1
851.585	-5.27
851.755	-5.06
851.924	39.78
852.094	30.95
852.264	21.77
852.433	0.56
852.603	24.77
852.772	14.99
852.942	21.64
853.111	6.66
853.281	52.95
853.45	51.68
853.62	36.45
853.789	4.44
853.959	55.08
854.128	15.96
854.297	-20.09
854.467	-30.1
854.636	15.53
854.805	-5.37
854.975	-7.49
855.144	6.9
855.313	52.01
855.482	34.5
855.652	5.16
855.821	5.7
855.99	30.22
856.159	20.78
856.328	2.87
856.497	17.41
856.667	24.02
856.836	18.86
857.005	-12.63
857.174	-60.59
857.343	-61.13
857.512	-8.73
857.681	-90.14
857.85	-60.3
858.019	4.49
858.188	5.71
858.356	-21.04
858.525	1.82
858.694	-5.87
858.863	-27.31
859.032	-44.17
859.201	-32.29
859.369	-7.15
859.538	10.33
859.707	-8.46
859.876	15.41
860.044	3.81
860.213	3.17
860.382	-6.51
860.55	22.08
860.719	39
860.888	43.41
861.056	43.59
861.225	23.04
861.393	34.51
861.562	47.5
861.73	17.68
861.899	16.51
862.067	4.9
862.236	12.45
862.404	-31.24
862.572	-45.9
862.741	-24.13
862.909	-27.09
863.078	-48.05
863.246	-40.69
863.414	-16.32
863.582	-21.76
863.751	-3.43
863.919	-2.34
864.087	42.29
864.255	44.23
864.424	0.79
864.592	13.6
864.76	47.26
864.928	40.35
865.096	17.22
865.264	37.5
865.432	38.08
865.6	58.21
865.768	-19.93
865.936	-59.78
866.104	-29.23
866.272	-59.09
866.44	-88.61
866.608	-61.99
866.776	-97.38
866.944	-198.4
867.112	-212.73
867.28	-377.98
867.448	-745.67
867.615	-172.6
867.783	-4.68
867.951	-52.3
868.119	6.87
868.286	-25.86
868.454	-58.71
868.622	-100.44
868.789	-80.96
868.957	-18.08
869.125	-18.86
869.292	-10.12
869.46	12.51
869.627	34.77
869.795	-10.5
869.963	9.82
870.13	14.22
870.298	22.4
870.465	-26.49
870.632	-34.75
870.8	-53.59
870.967	-22.5
871.135	-106.73
871.302	-44.02
871.469	16.76
871.637	5.74
871.804	13.73
871.971	7.17
872.139	5.73
872.306	23.07
872.473	34.15
872.64	-0.57
872.807	36.74
872.975	60.07
873.142	56.66
873.309	41.87
873.476	98.54
873.643	90.99
873.81	37.92
873.977	27.68
874.144	33.37
874.311	15.12
874.478	-23.42
874.645	-51.58
874.812	-119.91
874.979	4138.1
875.146	-172.48
875.313	-32.18
875.48	50.97
875.647	0.52
875.813	-38.84
875.98	-41.93
876.147	-74.99
876.314	-46.48
876.481	-72.03
876.647	-76.8
876.814	-37.83
876.981	-43.65
877.147	-86.84
877.314	-107.06
877.481	-38.42
877.647	-33.33
877.814	-61.1
877.98	-95.78
878.147	-51.6
878.314	-33.71
878.48	-75.99
878.647	-48.94
878.813	25.07
878.979	56.25
879.146	47.11
879.312	42.58
879.479	57.92
879.645	66.21
879.811	-5.97
879.978	-6.22
880.144	8.93
880.31	-39.21
880.477	-122.65
880.643	-98.84
880.809	-27.95
880.975	19.53
881.142	8.47
881.308	39.52
881.474	67.33
881.64	40.9
881.806	-1.96
881.972	29.81
882.138	29.02
882.304	36.76
882.47	-28.9
882.636	-62.76
882.802	-117.3
882.968	-19.38
883.134	-67.12
883.3	-45.9
883.466	52.62
883.632	114.07
883.798	21.27
883.964	-3.16
884.129	-10.93
884.295	-16.02
884.461	-52.03
884.627	-76.12
884.793	-41.25
884.958	3.44
885.124	-26.33
885.29	-35.72
885.455	5.97
885.621	26.47
885.787	-69.68
885.952	-6.83
886.118	-24.78
886.283	-30.45
886.449	-68.12
886.614	-27.08
886.78	-29.61
886.945	63.83
887.111	-67.98
887.276	-69.11
887.442	-179.74
887.607	-135.41
887.773	-174.79
887.938	-105.51
888.103	-6.81
888.269	12.52
888.434	27.68
888.599	3.69
888.764	38.52
888.93	36.31
889.095	30.82
889.26	-6.92
889.425	45.28
889.59	49.84
889.756	10.94
889.921	6.1
890.086	36.78
890.251	54.81
890.416	5.42
890.581	-3.84
890.746	27.89
890.911	45.26
891.076	-18.3
891.241	-24.44
891.406	21.72
891.571	16.49
891.736	-31.32
891.901	-79.12
892.065	-60.36
892.23	-51.23
892.395	-137.72
892.56	-178.18
892.725	-79.55
892.889	-52.64
893.054	-129.78
893.219	-104.31
893.384	-75.67
893.548	-101.54
893.713	-136.38
893.878	-90.85
