Data from Ofra_PP_Phys_2CX12B_Reflection_3.txt Node
Date: Sat Jul 24 20:07:45 EDT 2021
User: USUARIO
Spectrometer: FLMT01687
Trigger mode: 0
Integration Time (sec): 1.100000E0
Scans to average: 2
Electric dark correction enabled: true
Nonlinearity correction enabled: false
Boxcar width: 2
XAxis mode: Wavelengths
Number of Pixels in Spectrum: 3648
>>>>>Begin Spectral Data<<<<<
179.494	561.32
179.716	735.79
179.937	1261.69
180.158	1071.54
180.38	525.23
180.601	-696.37
180.823	2.06
181.044	-37.21
181.265	-6.88
181.486	22.84
181.708	-34.93
181.929	-1248
182.15	987.95
182.372	29.43
182.593	20400
182.814	1101.54
183.035	273.11
183.257	221.41
183.478	105
183.699	112.21
183.92	-22.87
184.141	6.81
184.363	-33.17
184.584	39.05
184.805	44.92
185.026	67.77
185.247	56.75
185.468	19.39
185.689	4.92
185.91	-1.95
186.132	2.43
186.353	14.46
186.574	50.55
186.795	51.09
187.016	-12.74
187.237	3.49
187.458	-13.55
187.679	-19.35
187.9	45.56
188.121	107.45
188.342	122.33
188.563	117.86
188.784	103.41
189.005	97.55
189.226	103.28
189.447	81.7
189.667	79.59
189.888	58.61
190.109	43.88
190.33	7.28
190.551	-10.32
190.772	-33.8
190.993	-54.24
191.214	-67.85
191.434	-48.1
191.655	2.94
191.876	-6.73
192.097	-10.46
192.318	12.54
192.538	-7.49
192.759	-22.72
192.98	2.81
193.201	18.11
193.421	-28.19
193.642	3.51
193.863	-8.17
194.083	-13.23
194.304	0.31
194.525	24.45
194.745	11.46
194.966	-25.56
195.187	-45.5
195.407	-81.6
195.628	-117.3
195.848	-98.44
196.069	-90.99
196.29	-64.55
196.51	-112.83
196.731	-117.63
196.951	-104.15
197.172	-85.88
197.392	-73.74
197.613	-28.45
197.833	-27.49
198.054	-70.82
198.274	-42.31
198.495	-93.05
198.715	-56.1
198.936	-58.52
199.156	-6.42
199.377	-20.75
199.597	-31.43
199.817	-56.11
200.038	-21.28
200.258	-7.3
200.479	33.76
200.699	58.37
200.919	33.6
201.14	-13.64
201.36	-34.95
201.58	-60.15
201.801	-35.7
202.021	-13.25
202.241	40.41
202.461	30.13
202.682	11.77
202.902	-1.53
203.122	-11.78
203.342	-21.24
203.563	2.82
203.783	10.6
204.003	-60.93
204.223	-147.05
204.443	-35.77
204.663	-27.95
204.884	-44.26
205.104	31.78
205.324	75.68
205.544	30.57
205.764	30.07
205.984	52.34
206.204	53.64
206.424	26.08
206.644	32.43
206.864	37.71
207.084	10.25
207.304	-16.89
207.525	-40.31
207.745	-17.7
207.964	-49.38
208.184	-38.49
208.404	-43.18
208.624	-34.68
208.844	-25.72
209.064	-53.56
209.284	-45.37
209.504	-8.07
209.724	4.77
209.944	-19.63
210.164	13.25
210.384	32.91
210.604	15.68
210.823	-22.51
211.043	-45.45
211.263	-38.76
211.483	-59.48
211.703	-74.78
211.922	-34.69
212.142	27.54
212.362	37.62
212.582	24.33
212.801	40.53
213.021	8.68
213.241	9.06
213.461	-19.69
213.68	-43.5
213.9	-47.88
214.12	-24.98
214.339	-68.29
214.559	-39.4
214.779	7.25
214.998	7.8
215.218	-9.57
215.438	-0.44
215.657	-24.03
215.877	-5.42
216.096	4.25
216.316	40.2
216.535	39.52
216.755	40.63
216.974	33.32
217.194	31.67
217.413	4.93
217.633	0.38
217.852	-59.63
218.072	-64.2
218.291	-75.56
218.511	-27.65
218.73	-92.15
218.95	-64.97
219.169	-75.72
219.389	-99.61
219.608	-129.2
219.827	-49.98
220.047	-29.61
220.266	-21.46
220.485	-13.72
220.705	29.73
220.924	-6.48
221.143	3.09
221.363	-22.84
221.582	8.92
221.801	-1.68
222.021	32.44
222.24	48.58
222.459	83.93
222.678	47.27
222.897	23.72
223.117	21.57
223.336	1.65
223.555	16.51
223.774	59.12
223.993	86.88
224.213	114.81
224.432	84.47
224.651	114.43
224.87	80.72
225.089	82.82
225.308	65.17
225.527	94.06
225.746	63.57
225.965	47.72
226.184	12.8
226.404	27.4
226.623	-7.98
226.842	-11.42
227.061	30.9
227.28	50.42
227.499	51.6
227.718	73.4
227.936	72.59
228.155	61.35
228.374	14.06
228.593	8.06
228.812	3.66
229.031	9.76
229.25	-25.46
229.469	16.6
229.688	16.56
229.907	23.27
230.125	46.82
230.344	61.54
230.563	54.45
230.782	62.36
231.001	11.27
231.22	6.59
231.438	9.28
231.657	3.5
231.876	3.52
232.095	31.99
232.313	26.47
232.532	22.81
232.751	18.07
232.969	13.62
233.188	13.46
233.407	2.81
233.625	-8.12
233.844	-3.91
234.063	2.39
234.281	50.95
234.5	50.93
234.719	65.19
234.937	56.91
235.156	50.34
235.374	39.62
235.593	48.93
235.811	46.5
236.03	62.41
236.249	46.57
236.467	48.7
236.686	28.91
236.904	24.99
237.123	-42.9
237.341	-34.59
237.559	-59.56
237.778	-51.71
237.996	-68.76
238.215	-24.71
238.433	-22.61
238.652	4.5
238.87	-39.66
239.088	-9.9
239.307	6.64
239.525	2.78
239.743	-45.22
239.962	-1.13
240.18	-29.97
240.398	-72.49
240.617	-87.59
240.835	-34.23
241.053	-63.42
241.271	-1.48
241.49	23.05
241.708	24.26
241.926	9.71
242.144	31.69
242.363	-1.51
242.581	2.68
242.799	21.54
243.017	21.02
243.235	-26.29
243.453	10.99
243.672	-9.75
243.89	3.98
244.108	20.06
244.326	50.89
244.544	35.83
244.762	14.83
244.98	14.87
245.198	9.92
245.416	-14.98
245.634	-18.82
245.852	18.12
246.07	9.61
246.288	3.02
246.506	8.04
246.724	19.23
246.942	16.22
247.16	24.76
247.378	34.66
247.596	52.69
247.814	50.32
248.032	11.98
248.25	1.47
248.468	7.62
248.685	17.93
248.903	15.1
249.121	28.58
249.339	-0.61
249.557	1.82
249.775	-18.47
249.992	-81.98
250.21	-89.91
250.428	-42.23
250.646	-53.94
250.863	-53.54
251.081	-26.96
251.299	9.34
251.517	4.35
251.734	3.44
251.952	-0.14
252.17	27.52
252.387	24.96
252.605	-2.46
252.823	-3.67
253.04	10.81
253.258	8.47
253.475	12.61
253.693	53.22
253.911	73.52
254.128	72.01
254.346	79.89
254.563	61.23
254.781	29.26
254.998	21.03
255.216	-3.93
255.433	-13.89
255.651	16.07
255.868	35.55
256.086	44.41
256.303	65.22
256.521	64.07
256.738	49.34
256.956	21.15
257.173	27.92
257.39	15.72
257.608	19.35
257.825	25.91
258.043	47.06
258.26	29.27
258.477	28.43
258.695	15.17
258.912	-28.26
259.129	-39.29
259.346	-65.46
259.564	-70.18
259.781	-46.19
259.998	-20.37
260.216	10.74
260.433	41.73
260.65	30.28
260.867	40.29
261.084	21.67
261.302	17.03
261.519	36.98
261.736	28.09
261.953	6.89
262.17	32.06
262.387	18.18
262.604	-8.61
262.822	-0.42
263.039	5.8
263.256	-13.77
263.473	5.24
263.69	-14.65
263.907	10.73
264.124	33.15
264.341	59.83
264.558	29
264.775	32.58
264.992	45.6
265.209	31.72
265.426	21.52
265.643	35.44
265.86	40.21
266.077	28.14
266.294	15.98
266.51	15.53
266.727	8.18
266.944	24.54
267.161	2.42
267.378	18.75
267.595	26.4
267.812	4.41
268.028	-7.23
268.245	6.02
268.462	-13.03
268.679	-21.95
268.896	10.2
269.112	13.71
269.329	1.28
269.546	20.28
269.763	24.53
269.979	22.01
270.196	27.39
270.413	34.16
270.629	15.86
270.846	7.81
271.063	26.51
271.279	-8.53
271.496	-39.95
271.712	-37.03
271.929	-32.49
272.146	-30.99
272.362	-10.7
272.579	37.65
272.795	50.05
273.012	68.92
273.228	43.26
273.445	32.48
273.661	-8.96
273.878	-94.8
274.094	-92.69
274.311	-85.85
274.527	-47.32
274.744	-9.11
274.96	50.74
275.177	45.27
275.393	39.35
275.609	34.66
275.826	42.41
276.042	31.83
276.259	40.14
276.475	35.36
276.691	31.73
276.908	16.61
277.124	45.47
277.34	26.38
277.557	15.99
277.773	20.27
277.989	23.73
278.205	21.5
278.422	33.56
278.638	55.07
278.854	58.74
279.07	53.06
279.286	2.23
279.503	-23.58
279.719	-28.58
279.935	-47.04
280.151	-61.78
280.367	-9.75
280.583	11.06
280.799	5.33
281.016	13.27
281.232	26.51
281.448	21.51
281.664	25.4
281.88	21.59
282.096	27.16
282.312	34.11
282.528	54.97
282.744	58.42
282.96	63.88
283.176	57.84
283.392	58.55
283.608	44.69
283.824	32.38
284.04	28.69
284.256	44.49
284.471	35.82
284.687	31.36
284.903	47.67
285.119	69.79
285.335	45.69
285.551	50.45
285.767	32.73
285.982	1.67
286.198	-21.87
286.414	4.08
286.63	1.27
286.846	26.47
287.061	-0.28
287.277	10.9
287.493	3.91
287.709	14.15
287.924	0.25
288.14	48.05
288.356	54.63
288.571	61.8
288.787	44.36
289.003	49.61
289.218	29.39
289.434	-14.16
289.65	18.58
289.865	28.96
290.081	32.76
290.296	32.95
290.512	38.63
290.727	25.86
290.943	16.1
291.159	6.26
291.374	3.62
291.59	-16.17
291.805	-32.63
292.021	-16.45
292.236	-15.99
292.451	-11.88
292.667	17.03
292.882	35.57
293.098	45.48
293.313	34.37
293.529	28.77
293.744	-0.61
293.959	-27.41
294.175	-29.75
294.39	8.42
294.605	21.12
294.821	43.16
295.036	35.56
295.251	50.57
295.467	26.69
295.682	21.46
295.897	2.33
296.112	-3.66
296.328	-24.93
296.543	-19.89
296.758	-31.14
296.973	2.08
297.188	45.73
297.404	29.23
297.619	30.8
297.834	34.48
298.049	18.43
298.264	-7.63
298.479	34.36
298.694	33.24
298.909	41.47
299.125	43.7
299.34	44.22
299.555	11.23
299.77	8.11
299.985	-66.35
300.2	-70.88
300.415	-79.52
300.63	-62.08
300.845	-66.32
301.06	-33.57
301.275	-31.41
301.49	-12.64
301.704	-14.28
301.919	-32.17
302.134	-48.97
302.349	-12.02
302.564	-34.92
302.779	-12.05
302.994	29.79
303.209	39.29
303.423	33.81
303.638	53.62
303.853	10.08
304.068	-38.25
304.283	-27.95
304.497	-27.57
304.712	-13.21
304.927	19.63
305.142	25.42
305.356	28.09
305.571	33.49
305.786	28.92
306	17.4
306.215	27.84
306.43	13.15
306.644	30.56
306.859	35.12
307.074	29.84
307.288	6.04
307.503	21.02
307.717	-6.21
307.932	-5.83
308.147	-9.12
308.361	27.95
308.576	13.87
308.79	-21.22
309.005	-9.1
309.219	2.65
309.434	0.69
309.648	-18.55
309.863	37.38
310.077	26.78
310.292	25.61
310.506	22.24
310.72	55.82
310.935	54.78
311.149	46.88
311.364	46.04
311.578	59.52
311.792	56.44
312.007	48.54
312.221	18.7
312.435	34.34
312.649	5.87
312.864	32.97
313.078	11.83
313.292	66.86
313.507	58.55
313.721	59.1
313.935	31.04
314.149	47.14
314.363	23.72
314.578	1.76
314.792	-13.46
315.006	13.88
315.22	7.85
315.434	4.17
315.648	13.57
315.862	13.05
316.077	-2.04
316.291	14.97
316.505	35.1
316.719	29.89
316.933	-5.19
317.147	11.5
317.361	-32.14
317.575	-39.14
317.789	-53.39
318.003	-35.09
318.217	-23.26
318.431	13.88
318.645	20.04
318.859	24.57
319.073	51.88
319.287	27.98
319.5	-4.48
319.714	-22.46
319.928	-27.51
320.142	-49.52
320.356	0.15
320.57	24.48
320.784	18.02
320.997	31.66
321.211	34.25
321.425	-0.72
321.639	-43.57
321.853	-5.75
322.066	-15.15
322.28	-29.53
322.494	-25.23
322.707	46.79
322.921	31.97
323.135	30.61
323.349	39.41
323.562	27.75
323.776	-8.7
323.989	-0.67
324.203	-14.66
324.417	-5.67
324.63	-14.02
324.844	-24.05
325.057	-42.26
325.271	-33.09
325.485	-39.49
325.698	7.72
325.912	25.81
326.125	20.34
326.339	33.74
326.552	32.92
326.766	21.87
326.979	17.25
327.193	36.29
327.406	25.26
327.619	30.22
327.833	38.47
328.046	16.83
328.26	-0.64
328.473	-5.97
328.686	-24.15
328.9	-19.72
329.113	-5.06
329.326	-12.04
329.54	4.18
329.753	18.66
329.966	-5.97
330.179	16.33
330.393	34.72
330.606	25.96
330.819	39.43
331.032	49.18
331.246	53.47
331.459	66.11
331.672	50.79
331.885	28.64
332.098	4.57
332.311	2.29
332.525	-19.28
332.738	-4.21
332.951	15.72
333.164	28.82
333.377	37.86
333.59	56.19
333.803	42.17
334.016	29.56
334.229	27.05
334.442	22.71
334.655	32.31
334.868	42.27
335.081	44.05
335.294	38.91
335.507	36.36
335.72	22.92
335.933	-0.37
336.146	4.07
336.359	12.86
336.572	-5.49
336.785	-8.17
336.997	13.61
337.21	25.55
337.423	18.71
337.636	30
337.849	38.53
338.062	36.51
338.274	34.4
338.487	25.27
338.7	23.35
338.913	-3.7
339.125	-8.87
339.338	-12.93
339.551	-0.62
339.763	17.46
339.976	47.99
340.189	56.44
340.402	66.53
340.614	49.66
340.827	31.23
341.039	19.13
341.252	0.79
341.465	-15.37
341.677	-22.16
341.89	-53.45
342.102	-44.63
342.315	-35.86
342.527	-35.11
342.74	-26.09
342.952	23.8
343.165	21.51
343.377	37.05
343.59	26.57
343.802	41.3
344.015	50.55
344.227	65.99
344.44	43.86
344.652	40.85
344.864	40.56
345.077	30.87
345.289	14.63
345.502	42.59
345.714	38.22
345.926	40.27
346.139	24.27
346.351	21.26
346.563	16.45
346.775	30.47
346.988	13.07
347.2	6.29
347.412	-5.62
347.624	-23.02
347.837	-16.66
348.049	0.69
348.261	29.54
348.473	33.41
348.685	8.19
348.897	1.79
349.11	-1.97
349.322	-16.93
349.534	2.26
349.746	30.89
349.958	34.1
350.17	29.32
350.382	27.24
350.594	24.2
350.806	16.45
351.018	8.51
351.23	3.09
351.442	3.93
351.654	5.62
351.866	12.74
352.078	14.5
352.29	18.76
352.502	33.56
352.714	46.15
352.926	33.83
353.138	40.66
353.35	27.12
353.561	19.4
353.773	0
353.985	5.55
354.197	-5.38
354.409	7.74
354.621	6.56
354.832	13.99
355.044	7.16
355.256	9.58
355.468	7.07
355.679	6.62
355.891	6.69
356.103	-0.48
356.314	4.56
356.526	16.62
356.738	33.62
356.949	29.67
357.161	30.66
357.373	34.65
357.584	26.99
357.796	17.92
358.008	4.43
358.219	28.65
358.431	28.96
358.642	28.88
358.854	37.74
359.065	42.8
359.277	24.92
359.488	8.82
359.7	-2.23
359.911	-27.13
360.123	-24.63
360.334	-35.02
360.546	-39.39
360.757	-32.95
360.969	-12.37
361.18	14.53
361.391	27.17
361.603	26.66
361.814	44.73
362.025	18.91
362.237	-7.3
362.448	-3.61
362.659	15.21
362.871	6.47
363.082	10.63
363.293	22.1
363.504	21.16
363.716	9.26
363.927	11
364.138	9.32
364.349	-22.05
364.56	-26.51
364.772	-38.89
364.983	-22.94
365.194	-30.58
365.405	1.85
365.616	8.17
365.827	20.46
366.038	4.41
366.25	20.99
366.461	-4.19
366.672	3.47
366.883	16.84
367.094	10.03
367.305	-12.11
367.516	11.95
367.727	3.66
367.938	-11.82
368.149	-19.5
368.36	1.82
368.571	-4.48
368.781	-5.7
368.992	-7.4
369.203	16.76
369.414	3.09
369.625	-2.12
369.836	-4.07
370.047	-4.32
370.258	-9.87
370.468	-6.92
370.679	-43.58
370.89	-34.49
371.101	-10.14
371.312	-30.18
371.522	-15.98
371.733	12.51
371.944	17.37
372.155	28.1
372.365	7.9
372.576	6.34
372.787	2.19
372.997	-11.49
373.208	-18.79
373.419	5.18
373.629	-11.14
373.84	-7.95
374.05	-13.34
374.261	-10.92
374.472	-30.84
374.682	-11.63
374.893	-24.19
375.103	10.46
375.314	-0.78
375.524	9.04
375.735	7.54
375.945	18.03
376.156	-11.7
376.366	-1.7
376.577	6.99
376.787	5.37
376.997	22.47
377.208	31.39
377.418	15.01
377.629	21.52
377.839	15.22
378.049	2.46
378.26	18.55
378.47	29.47
378.68	24.35
378.89	28.86
379.101	26.48
379.311	-0.28
379.521	-24.32
379.732	-22.15
379.942	-43.88
380.152	-32.6
380.362	-16.04
380.572	2.69
380.783	12.55
380.993	25.7
381.203	29.57
381.413	29.13
381.623	28.13
381.833	24.67
382.043	17.07
382.253	8.16
382.463	7.33
382.674	4.52
382.884	-11.8
383.094	-6.24
383.304	-1.41
383.514	0.42
383.724	4.5
383.934	-3.51
384.144	-13.06
384.353	-16.48
384.563	-11.66
384.773	-4.58
384.983	9.96
385.193	19.38
385.403	12.13
385.613	5.87
385.823	-2.25
386.033	1.19
386.242	-5.28
386.452	5.52
386.662	0.97
386.872	9.01
387.082	8.79
387.291	2.47
387.501	5.7
387.711	8.49
387.921	-6.86
388.13	-7.13
388.34	7.12
388.55	1.92
388.759	5.04
388.969	13.21
389.179	9.98
389.388	7.97
389.598	7.49
389.807	4.62
390.017	5.8
390.227	6.77
390.436	2.36
390.646	8.45
390.855	10.11
391.065	10.88
391.274	7.55
391.484	4.91
391.693	2.37
391.903	3.23
392.112	4.44
392.322	9.09
392.531	15.3
392.74	13.9
392.95	9.8
393.159	8.2
393.369	7.97
393.578	3.22
393.787	2.36
393.997	5.76
394.206	4.88
394.415	5.89
394.625	7.14
394.834	5.87
395.043	4.72
395.252	6
395.462	5.99
395.671	7.43
395.88	10.18
396.089	12.24
396.298	11.25
396.508	10.59
396.717	10.48
396.926	9.41
397.135	8.23
397.344	7.57
397.553	7.49
397.762	7.67
397.971	7.85
398.181	7.94
398.39	7.07
398.599	6.65
398.808	5.62
399.017	5.87
399.226	6.32
399.435	7.57
399.644	7.78
399.853	7.85
400.062	7.29
400.27	6.94
400.479	6.69
400.688	6.26
400.897	6.75
401.106	6.84
401.315	6.28
401.524	6.07
401.733	6.46
401.941	6.66
402.15	6.72
402.359	6.87
402.568	7.3
402.777	7.23
402.985	6.83
403.194	6.83
403.403	6.95
403.612	6.62
403.82	6.61
404.029	6.68
404.238	6.37
404.446	6.45
404.655	6.2
404.864	6.14
405.072	5.92
405.281	6.36
405.489	5.98
405.698	6.04
405.906	6
406.115	5.95
406.324	5.56
406.532	5.76
406.741	6.09
406.949	6
407.158	6.03
407.366	6.12
407.574	6.05
407.783	5.99
407.991	6.03
408.2	6.12
408.408	5.96
408.617	5.93
408.825	5.62
409.033	5.74
409.242	5.82
409.45	5.94
409.658	5.83
409.867	5.96
410.075	5.7
410.283	5.4
410.491	5.41
410.7	5.27
410.908	5.36
411.116	5.4
411.324	5.47
411.533	5.42
411.741	5.58
411.949	5.49
412.157	5.43
412.365	5.64
412.573	5.57
412.781	5.6
412.99	5.54
413.198	5.73
413.406	5.6
413.614	5.61
413.822	5.61
414.03	5.54
414.238	5.2
414.446	5.16
414.654	4.92
414.862	4.97
415.07	4.99
415.278	5.33
415.486	5.02
415.694	5.21
415.902	5.1
416.109	5
416.317	4.95
416.525	4.73
416.733	4.78
416.941	4.84
417.149	4.9
417.357	4.84
417.564	5.21
417.772	5.16
417.98	5.15
418.188	5.16
418.395	5
418.603	5.02
418.811	4.81
419.019	4.67
419.226	4.91
419.434	5.17
419.642	5.06
419.849	5.24
420.057	5.35
420.265	5.14
420.472	4.82
420.68	4.93
420.887	4.72
421.095	4.7
421.302	4.61
421.51	4.73
421.717	4.83
421.925	5.04
422.132	4.96
422.34	4.88
422.547	4.81
422.755	4.68
422.962	4.73
423.17	4.71
423.377	4.86
423.585	4.84
423.792	4.79
423.999	4.71
424.207	4.76
424.414	4.59
424.621	4.67
424.829	4.55
425.036	4.51
425.243	4.41
425.451	4.33
425.658	4.13
425.865	4.3
426.072	4.24
426.28	4.3
426.487	4.27
426.694	4.48
426.901	4.53
427.108	4.6
427.315	4.55
427.523	4.89
427.73	4.86
427.937	4.54
428.144	4.41
428.351	4.46
428.558	4.43
428.765	4.36
428.972	4.44
429.179	4.61
429.386	4.66
429.593	4.46
429.8	4.29
430.007	4.39
430.214	4.4
430.421	4.41
430.628	4.43
430.835	4.35
431.042	4.61
431.249	4.58
431.456	4.61
431.662	4.8
431.869	5.05
432.076	4.91
432.283	4.85
432.49	4.73
432.697	4.61
432.903	4.33
433.11	4.25
433.317	4.38
433.524	4.58
433.73	4.41
433.937	4.78
434.144	4.74
434.35	4.78
434.557	4.61
434.764	4.73
434.97	4.59
435.177	4.58
435.384	4.29
435.59	4.4
435.797	4.45
436.003	4.5
436.21	4.53
436.416	4.6
436.623	4.4
436.829	4.37
437.036	4.35
437.242	4.29
437.449	4.38
437.655	4.41
437.862	4.4
438.068	4.47
438.275	4.64
438.481	4.79
438.687	4.74
438.894	4.76
439.1	4.71
439.307	4.75
439.513	4.56
439.719	4.69
439.926	4.64
440.132	4.6
440.338	4.52
440.544	4.58
440.751	4.43
440.957	4.56
441.163	4.29
441.369	4.34
441.575	4.23
441.782	4.22
441.988	4.06
442.194	4.32
442.4	4.21
442.606	4.46
442.812	4.54
443.018	4.64
443.224	4.66
443.431	4.75
443.637	4.57
443.843	4.48
444.049	4.53
444.255	4.48
444.461	4.4
444.667	4.27
444.873	4.37
445.079	4.4
445.284	4.42
445.49	4.37
445.696	4.28
445.902	4.24
446.108	4.06
446.314	3.95
446.52	4.15
446.726	4.44
446.931	4.37
447.137	4.53
447.343	4.68
447.549	4.37
447.755	4.27
447.96	4.45
448.166	4.29
448.372	4.27
448.578	4.33
448.783	4.32
448.989	4.3
449.195	4.52
449.4	4.49
449.606	4.5
449.812	4.53
450.017	4.56
450.223	4.48
450.428	4.31
450.634	4.46
450.84	4.52
451.045	4.37
451.251	4.21
451.456	4.43
451.662	4.45
451.867	4.45
452.073	4.4
452.278	4.53
452.483	4.54
452.689	4.44
452.894	4.58
453.1	4.73
453.305	4.56
453.51	4.5
453.716	4.44
453.921	4.31
454.127	4.23
454.332	4.26
454.537	4.15
454.742	4.2
454.948	4.25
455.153	4.17
455.358	4.32
455.563	4.58
455.769	4.59
455.974	4.47
456.179	4.45
456.384	4.38
456.589	4.27
456.795	4.15
457	4.1
457.205	4.29
457.41	4.15
457.615	4.03
457.82	4.14
458.025	4.21
458.23	4.01
458.435	4.24
458.64	4.19
458.845	4.23
459.05	4.15
459.255	4.12
459.46	4.09
459.665	4.2
459.87	4.19
460.075	4.17
460.28	4.25
460.485	4.33
460.69	4.32
460.895	4.1
461.099	4.09
461.304	4.25
461.509	4.22
461.714	4.12
461.919	4.3
462.123	4.33
462.328	4.32
462.533	4.04
462.738	4.15
462.942	4.06
463.147	4.16
463.352	4.17
463.556	4.27
463.761	4.22
463.966	4.29
464.17	4.3
464.375	4.17
464.58	4.15
464.784	4.15
464.989	4.04
465.193	3.98
465.398	3.91
465.602	4.16
465.807	4.12
466.011	4.31
466.216	4.44
466.42	4.56
466.625	4.48
466.829	4.54
467.034	4.5
467.238	4.49
467.443	4.4
467.647	4.19
467.851	4.24
468.056	4.27
468.26	4.21
468.464	4.16
468.669	4.34
468.873	4.35
469.077	4.36
469.282	4.25
469.486	4.38
469.69	4.38
469.894	4.32
470.099	4.28
470.303	4.44
470.507	4.35
470.711	4.22
470.915	4.23
471.119	4.21
471.324	4.13
471.528	4.03
471.732	4.2
471.936	4.23
472.14	4.37
472.344	4.39
472.548	4.55
472.752	4.52
472.956	4.56
473.16	4.45
473.364	4.41
473.568	4.46
473.772	4.37
473.976	4.33
474.18	4.29
474.384	4.31
474.588	4.16
474.792	4.16
474.995	4.14
475.199	4.25
475.403	4.31
475.607	4.35
475.811	4.36
476.015	4.41
476.218	4.4
476.422	4.3
476.626	4.37
476.83	4.53
477.033	4.43
477.237	4.29
477.441	4.34
477.644	4.25
477.848	4.17
478.052	4.07
478.255	4.08
478.459	4.13
478.663	4.32
478.866	4.37
479.07	4.48
479.273	4.62
479.477	4.56
479.681	4.49
479.884	4.45
480.088	4.39
480.291	4.34
480.495	4.33
480.698	4.29
480.901	4.34
481.105	4.47
481.308	4.45
481.512	4.42
481.715	4.51
481.919	4.52
482.122	4.48
482.325	4.51
482.529	4.63
482.732	4.55
482.935	4.37
483.138	4.31
483.342	4.37
483.545	4.38
483.748	4.44
483.952	4.58
484.155	4.75
484.358	4.75
484.561	4.71
484.764	4.8
484.967	4.88
485.171	4.91
485.374	4.82
485.577	4.85
485.78	4.77
485.983	4.72
486.186	4.58
486.389	4.53
486.592	4.5
486.795	4.55
486.998	4.55
487.201	4.64
487.404	4.85
487.607	5.01
487.81	5.01
488.013	5.04
488.216	5.06
488.419	5.09
488.622	4.84
488.825	4.77
489.028	4.76
489.231	4.69
489.433	4.49
489.636	4.6
489.839	4.53
490.042	4.48
490.245	4.45
490.447	4.57
490.65	4.57
490.853	4.73
491.056	4.79
491.258	4.84
491.461	4.9
491.664	4.94
491.866	4.79
492.069	4.89
492.272	4.93
492.474	4.96
492.677	5.04
492.879	5.23
493.082	5.3
493.285	5.46
493.487	5.38
493.69	5.31
493.892	5.19
494.095	5.14
494.297	5.03
494.5	5.22
494.702	5.31
494.905	5.5
495.107	5.55
495.309	5.6
495.512	5.53
495.714	5.62
495.917	5.65
496.119	5.64
496.321	5.74
496.524	5.85
496.726	5.86
496.928	5.86
497.13	5.86
497.333	5.82
497.535	5.9
497.737	5.82
497.939	5.82
498.142	6
498.344	5.96
498.546	5.85
498.748	5.97
498.95	5.97
499.152	5.81
499.355	5.9
499.557	5.98
499.759	6.04
499.961	6.12
500.163	6.21
500.365	6.28
500.567	6.22
500.769	6.13
500.971	6.14
501.173	6.07
501.375	6.1
501.577	6.17
501.779	6.26
501.981	6.3
502.183	6.35
502.385	6.32
502.587	6.27
502.788	6.28
502.99	6.34
503.192	6.36
503.394	6.36
503.596	6.37
503.798	6.51
503.999	6.52
504.201	6.58
504.403	6.64
504.605	6.75
504.806	6.63
505.008	6.54
505.21	6.57
505.411	6.6
505.613	6.51
505.815	6.57
506.016	6.72
506.218	6.77
506.42	6.66
506.621	6.69
506.823	6.72
507.024	6.68
507.226	6.63
507.427	6.62
507.629	6.72
507.83	6.71
508.032	6.6
508.233	6.68
508.435	6.76
508.636	6.77
508.838	6.66
509.039	6.74
509.24	6.73
509.442	6.72
509.643	6.6
509.845	6.76
510.046	6.71
510.247	6.63
510.448	6.64
510.65	6.76
510.851	6.77
511.052	6.87
511.254	6.84
511.455	6.95
511.656	6.97
511.857	6.96
512.058	6.9
512.26	6.95
512.461	6.91
512.662	6.94
512.863	6.77
513.064	6.75
513.265	6.8
513.466	6.8
513.667	6.75
513.868	6.94
514.069	7.09
514.27	7.14
514.471	7.04
514.672	7.08
514.873	7.06
515.074	7.03
515.275	6.92
515.476	7.05
515.677	7.11
515.878	7.19
516.079	7.09
516.28	7.2
516.481	7.25
516.682	7.24
516.882	7.14
517.083	7.22
517.284	7.06
517.485	7.01
517.686	6.95
517.886	6.96
518.087	7.02
518.288	7.22
518.488	7.13
518.689	7.18
518.89	7.15
519.091	7.09
519.291	7.01
519.492	7.12
519.692	7.18
519.893	7.35
520.094	7.38
520.294	7.33
520.495	7.3
520.695	7.28
520.896	7.22
521.096	7.23
521.297	7.33
521.497	7.41
521.698	7.3
521.898	7.31
522.099	7.32
522.299	7.34
522.499	7.35
522.7	7.45
522.9	7.43
523.101	7.52
523.301	7.51
523.501	7.49
523.702	7.51
523.902	7.62
524.102	7.66
524.302	7.69
524.503	7.74
524.703	7.77
524.903	7.72
525.103	7.59
525.304	7.65
525.504	7.69
525.704	7.65
525.904	7.68
526.104	7.68
526.304	7.61
526.504	7.58
526.705	7.64
526.905	7.67
527.105	7.77
527.305	7.81
527.505	7.77
527.705	7.78
527.905	7.82
528.105	7.79
528.305	7.73
528.505	7.8
528.705	7.89
528.905	7.79
529.105	7.78
529.304	7.9
529.504	7.98
529.704	7.88
529.904	7.94
530.104	8.04
530.304	8.08
530.503	8
530.703	7.97
530.903	8.01
531.103	8.02
531.303	7.94
531.502	8
531.702	8.11
531.902	8.14
532.101	8.05
532.301	8.06
532.501	8.1
532.7	8.07
532.9	7.98
533.1	8.02
533.299	8.02
533.499	8.01
533.698	7.98
533.898	8.05
534.097	8.09
534.297	8.15
534.496	8.12
534.696	8.23
534.895	8.38
535.095	8.43
535.294	8.44
535.494	8.37
535.693	8.31
535.892	8.26
536.092	8.25
536.291	8.21
536.491	8.31
536.69	8.41
536.889	8.31
537.088	8.25
537.288	8.38
537.487	8.49
537.686	8.42
537.886	8.55
538.085	8.64
538.284	8.66
538.483	8.56
538.682	8.64
538.882	8.66
539.081	8.77
539.28	8.7
539.479	8.78
539.678	8.78
539.877	8.85
540.076	8.84
540.275	8.91
540.474	8.97
540.673	9.02
540.872	8.93
541.071	8.95
541.27	8.97
541.469	8.99
541.668	8.96
541.867	8.99
542.066	9.04
542.265	9.15
542.464	9.13
542.663	9.25
542.862	9.48
543.06	9.5
543.259	9.47
543.458	9.63
543.657	9.62
543.856	9.61
544.054	9.62
544.253	9.6
544.452	9.49
544.651	9.53
544.849	9.49
545.048	9.54
545.247	9.59
545.445	9.7
545.644	9.7
545.843	9.65
546.041	9.67
546.24	9.78
546.438	9.8
546.637	9.84
546.836	10.03
547.034	10.11
547.233	10.15
547.431	10.19
547.63	10.25
547.828	10.21
548.027	10.25
548.225	10.17
548.423	10.28
548.622	10.34
548.82	10.36
549.019	10.37
549.217	10.54
549.415	10.54
549.614	10.64
549.812	10.71
550.01	10.74
550.209	10.72
550.407	10.8
550.605	10.84
550.803	10.9
551.002	11
551.2	11.01
551.398	11.15
551.596	11.14
551.794	11.24
551.993	11.32
552.191	11.36
552.389	11.4
552.587	11.49
552.785	11.53
552.983	11.59
553.181	11.79
553.379	11.84
553.577	11.86
553.775	12.02
553.973	12.07
554.171	12.22
554.369	12.18
554.567	12.21
554.765	12.17
554.963	12.32
555.161	12.19
555.359	12.45
555.557	12.59
555.755	12.7
555.952	12.77
556.15	12.91
556.348	12.91
556.546	13.06
556.744	13.06
556.941	13.1
557.139	13.24
557.337	13.28
557.535	13.28
557.732	13.42
557.93	13.61
558.128	13.66
558.325	13.74
558.523	13.8
558.721	13.93
558.918	13.87
559.116	13.9
559.313	13.95
559.511	14.12
559.708	14.14
559.906	14.17
560.104	14.29
560.301	14.5
560.498	14.52
560.696	14.64
560.893	14.83
561.091	14.95
561.288	14.96
561.486	15.07
561.683	15.15
561.88	15.21
562.078	15.31
562.275	15.34
562.473	15.42
562.67	15.59
562.867	15.66
563.064	15.74
563.262	15.83
563.459	15.95
563.656	16
563.853	16.1
564.051	16.07
564.248	16.22
564.445	16.36
564.642	16.46
564.839	16.57
565.036	16.89
565.234	17.08
565.431	17.1
565.628	17.16
565.825	17.23
566.022	17.19
566.219	17.14
566.416	17.19
566.613	17.25
566.81	17.28
567.007	17.29
567.204	17.29
567.401	17.36
567.598	17.43
567.795	17.44
567.991	17.53
568.188	17.69
568.385	17.74
568.582	17.85
568.779	18
568.976	18.15
569.172	18.26
569.369	18.32
569.566	18.28
569.763	18.32
569.96	18.32
570.156	18.25
570.353	18.21
570.55	18.35
570.746	18.48
570.943	18.51
571.14	18.63
571.336	18.83
571.533	18.88
571.729	18.89
571.926	18.89
572.123	18.9
572.319	18.91
572.516	18.89
572.712	18.84
572.909	19
573.105	19.08
573.302	19.13
573.498	19.24
573.695	19.2
573.891	19.27
574.087	19.34
574.284	19.17
574.48	19.08
574.677	19.18
574.873	19.12
575.069	19.15
575.266	19.39
575.462	19.42
575.658	19.51
575.854	19.6
576.051	19.56
576.247	19.47
576.443	19.49
576.639	19.42
576.835	19.31
577.032	19.25
577.228	19.27
577.424	19.26
577.62	19.26
577.816	19.27
578.012	19.27
578.208	19.3
578.404	19.4
578.6	19.47
578.796	19.53
578.993	19.5
579.189	19.49
579.384	19.42
579.58	19.26
579.776	19.21
579.972	19.17
580.168	19.14
580.364	19.09
580.56	19.18
580.756	19.15
580.952	19.1
581.148	19.04
581.343	19.03
581.539	18.97
581.735	18.9
581.931	19.03
582.127	19.08
582.322	19
582.518	19.1
582.714	19.06
582.909	18.89
583.105	18.83
583.301	18.82
583.496	18.71
583.692	18.6
583.888	18.6
584.083	18.61
584.279	18.74
584.474	18.67
584.67	18.77
584.866	18.85
585.061	18.78
585.257	18.78
585.452	18.81
585.648	18.7
585.843	18.61
586.039	18.6
586.234	18.47
586.429	18.39
586.625	18.5
586.82	18.49
587.015	18.42
587.211	18.3
587.406	18.4
587.601	18.3
587.797	18.24
587.992	18.24
588.187	18.36
588.383	18.33
588.578	18.37
588.773	18.37
588.968	18.4
589.163	18.38
589.359	18.21
589.554	18.21
589.749	18.41
589.944	18.46
590.139	18.42
590.334	18.47
590.529	18.58
590.724	18.46
590.919	18.51
591.114	18.54
591.309	18.71
591.504	18.6
591.699	18.48
591.894	18.48
592.089	18.47
592.284	18.39
592.479	18.42
592.674	18.46
592.869	18.4
593.064	18.51
593.259	18.5
593.454	18.58
593.648	18.67
593.843	18.79
594.038	18.73
594.233	18.72
594.428	18.69
594.622	18.75
594.817	18.78
595.012	18.83
595.206	18.92
595.401	19.05
595.596	19.03
595.79	19.04
595.985	19.17
596.18	19.23
596.374	19.17
596.569	19.15
596.763	19.02
596.958	19.02
597.153	19.04
597.347	19.08
597.542	19.27
597.736	19.43
597.931	19.45
598.125	19.67
598.319	19.85
598.514	19.83
598.708	19.87
598.903	19.83
599.097	19.79
599.291	19.74
599.486	19.77
599.68	19.7
599.874	19.81
600.069	19.73
600.263	19.74
600.457	19.72
600.651	19.87
600.846	19.82
601.04	19.88
601.234	19.77
601.428	19.82
601.622	19.81
601.817	19.92
602.011	19.94
602.205	20.15
602.399	20.11
602.593	20.07
602.787	20.11
602.981	20.13
603.175	20.06
603.369	20
603.563	20.05
603.757	20.07
603.951	20.05
604.145	20.06
604.339	20.18
604.533	20.05
604.727	19.92
604.921	19.84
605.115	19.74
605.309	19.65
605.502	19.74
605.696	19.71
605.89	19.67
606.084	19.72
606.278	19.63
606.471	19.5
606.665	19.39
606.859	19.31
607.053	19.19
607.246	19.29
607.44	19.25
607.634	19.22
607.827	19.21
608.021	19.11
608.214	18.96
608.408	18.95
608.602	19.04
608.795	18.97
608.989	18.97
609.182	18.89
609.376	18.82
609.569	18.75
609.763	18.61
609.956	18.57
610.15	18.55
610.343	18.39
610.537	18.19
610.73	18.22
610.923	18.08
611.117	17.99
611.31	17.9
611.504	17.99
611.697	17.88
611.89	17.85
612.083	17.77
612.277	17.83
612.47	17.68
612.663	17.61
612.856	17.52
613.05	17.46
613.243	17.36
613.436	17.21
613.629	17.15
613.822	17.15
614.015	17.11
614.209	17.01
614.402	17.07
614.595	17.01
614.788	16.94
614.981	16.83
615.174	16.7
615.367	16.57
615.56	16.41
615.753	16.35
615.946	16.21
616.139	16.33
616.332	16.42
616.525	16.48
616.718	16.42
616.911	16.48
617.103	16.42
617.296	16.23
617.489	16.16
617.682	16.14
617.875	16.06
618.067	15.98
618.26	15.88
618.453	15.9
618.646	15.89
618.838	15.9
619.031	15.89
619.224	15.92
619.417	15.78
619.609	15.73
619.802	15.66
619.994	15.67
620.187	15.68
620.38	15.68
620.572	15.58
620.765	15.53
620.957	15.37
621.15	15.24
621.342	15.2
621.535	15.31
621.727	15.28
621.92	15.29
622.112	15.35
622.305	15.41
622.497	15.24
622.69	15.21
622.882	15.1
623.074	15.06
623.267	14.97
623.459	14.87
623.651	14.83
623.844	14.86
624.036	14.78
624.228	14.74
624.42	14.8
624.613	14.87
624.805	14.85
624.997	14.83
625.189	14.85
625.381	14.91
625.574	14.87
625.766	14.81
625.958	14.8
626.15	14.8
626.342	14.62
626.534	14.56
626.726	14.59
626.918	14.61
627.11	14.54
627.302	14.52
627.494	14.43
627.686	14.36
627.878	14.24
628.07	14.17
628.262	14.18
628.454	14.28
628.646	14.28
628.838	14.31
629.029	14.21
629.221	14.22
629.413	14.05
629.605	13.94
629.797	13.84
629.989	13.92
630.18	13.81
630.372	13.85
630.564	13.89
630.755	13.9
630.947	13.86
631.139	13.82
631.33	13.75
631.522	13.8
631.714	13.77
631.905	13.69
632.097	13.68
632.289	13.68
632.48	13.58
632.672	13.46
632.863	13.33
633.055	13.28
633.246	13.28
633.438	13.17
633.629	13.15
633.821	13.17
634.012	13.16
634.203	13
634.395	13.04
634.586	13.12
634.777	13.07
634.969	13.03
635.16	13.13
635.351	13.09
635.543	13.02
635.734	13.09
635.925	13.04
636.117	13.05
636.308	12.95
636.499	12.83
636.69	12.68
636.881	12.68
637.073	12.59
637.264	12.56
637.455	12.61
637.646	12.67
637.837	12.76
638.028	12.68
638.219	12.72
638.41	12.67
638.601	12.56
638.792	12.44
638.983	12.28
639.174	12.11
639.365	12.06
639.556	12.12
639.747	11.99
639.938	12.12
640.129	12.22
640.32	12.14
640.511	12.01
640.701	12.06
640.892	11.94
641.083	11.87
641.274	11.86
641.465	11.88
641.655	11.79
641.846	11.75
642.037	11.77
642.228	11.73
642.418	11.69
642.609	11.61
642.8	11.64
642.99	11.43
643.181	11.48
643.372	11.52
643.562	11.58
643.753	11.49
643.943	11.57
644.134	11.41
644.324	11.28
644.515	11.19
644.705	11.2
644.896	11.23
645.086	11.24
645.277	11.14
645.467	11.15
645.658	11.05
645.848	10.94
646.038	10.94
646.229	11
646.419	10.95
646.61	10.88
646.8	10.83
646.99	10.7
647.18	10.71
647.371	10.72
647.561	10.66
647.751	10.67
647.941	10.65
648.132	10.56
648.322	10.54
648.512	10.63
648.702	10.55
648.892	10.55
649.082	10.57
649.272	10.4
649.462	10.24
649.653	10.16
649.843	10.12
650.033	10.07
650.223	10.13
650.413	10.2
650.603	10.27
650.793	10.25
650.983	10.12
651.172	10
651.362	9.95
651.552	9.81
651.742	9.63
651.932	9.64
652.122	9.71
652.312	9.7
652.502	9.76
652.691	9.81
652.881	9.76
653.071	9.68
653.261	9.46
653.45	9.38
653.64	9.44
653.83	9.42
654.019	9.45
654.209	9.58
654.399	9.63
654.588	9.49
654.778	9.43
654.968	9.29
655.157	9.31
655.347	9.21
655.536	9.15
655.726	9.12
655.915	9
656.105	8.85
656.294	8.77
656.484	8.58
656.673	8.44
656.863	8.48
657.052	8.35
657.241	8.22
657.431	8.17
657.62	8.05
657.809	7.89
657.999	7.83
658.188	7.66
658.377	7.63
658.567	7.6
658.756	7.6
658.945	7.43
659.134	7.36
659.324	7.25
659.513	7.19
659.702	6.86
659.891	6.88
660.08	6.84
660.269	6.84
660.458	6.83
660.648	6.98
660.837	6.79
661.026	6.7
661.215	6.55
661.404	6.32
661.593	6.33
661.782	6.23
661.971	6.25
662.16	6.23
662.349	6.32
662.538	6.07
662.726	6.22
662.915	6.18
663.104	5.97
663.293	5.88
663.482	5.99
663.671	5.85
663.86	5.63
664.048	5.58
664.237	5.59
664.426	5.34
664.615	5.39
664.803	5.56
664.992	5.72
665.181	5.61
665.369	5.64
665.558	5.5
665.747	5.29
665.935	5.31
666.124	5.3
666.312	5.38
666.501	5.36
666.69	5.32
666.878	5.26
667.067	5.19
667.255	5.23
667.444	5.49
667.632	5.59
667.82	5.62
668.009	5.62
668.197	5.64
668.386	5.55
668.574	5.75
668.762	5.77
668.951	5.74
669.139	5.64
669.327	5.55
669.516	5.44
669.704	5.45
669.892	5.59
670.08	5.71
670.269	5.71
670.457	5.72
670.645	5.69
670.833	5.75
671.021	5.74
671.21	5.84
671.398	5.97
671.586	6.03
671.774	6.01
671.962	5.98
672.15	5.82
672.338	5.63
672.526	5.69
672.714	5.54
672.902	5.57
673.09	5.87
673.278	6.15
673.466	6.18
673.654	6.58
673.842	6.72
674.03	6.79
674.218	6.69
674.405	6.64
674.593	6.56
674.781	6.69
674.969	6.57
675.157	6.82
675.344	6.98
675.532	6.89
675.72	6.91
675.908	7.12
676.095	6.93
676.283	7.01
676.471	7.3
676.658	7.38
676.846	7.24
677.033	7.44
677.221	7.39
677.409	7.34
677.596	7.34
677.784	7.46
677.971	7.58
678.159	7.74
678.346	7.97
678.534	8.01
678.721	8.31
678.909	8.22
679.096	8.24
679.283	8.23
679.471	8.32
679.658	8.35
679.846	8.64
680.033	8.86
680.22	8.87
680.408	9.02
680.595	9.18
680.782	9.09
680.969	9.11
681.157	8.97
681.344	8.95
681.531	8.81
681.718	8.87
681.905	8.95
682.093	9.23
682.28	9.43
682.467	9.7
682.654	9.85
682.841	9.81
683.028	10
683.215	10.2
683.402	10.1
683.589	10.38
683.776	10.62
683.963	10.71
684.15	10.74
684.337	10.82
684.524	10.69
684.711	10.77
684.898	10.76
685.085	10.79
685.271	11.14
685.458	11.55
685.645	11.77
685.832	12.08
686.019	12.24
686.205	12.44
686.392	12.53
686.579	12.83
686.766	13.12
686.952	13.52
687.139	13.9
687.326	13.96
687.512	14.3
687.699	14.5
687.886	14.73
688.072	14.83
688.259	15.47
688.445	15.73
688.632	15.95
688.818	16.39
689.005	16.61
689.191	16.96
689.378	17.31
689.564	17.98
689.751	18.11
689.937	18.86
690.124	19.08
690.31	19.42
690.496	19.7
690.683	20.48
690.869	20.81
691.055	21.44
691.242	22.2
691.428	22.88
691.614	23.37
691.8	23.92
691.987	24.34
692.173	24.79
692.359	25.27
692.545	25.77
692.731	25.91
692.918	26.71
693.104	27.05
693.29	27.6
693.476	28.13
693.662	29.22
693.848	29.44
694.034	30.18
694.22	30.71
694.406	31.53
694.592	32.04
694.778	32.64
694.964	33.06
695.15	33.6
695.336	33.94
695.522	34.53
695.708	35.31
695.894	36.1
696.08	36.77
696.265	37.36
696.451	37.88
696.637	38.73
696.823	39.18
697.009	40.11
697.194	40.89
697.38	41.59
697.566	42.07
697.751	42.67
697.937	43.11
698.123	43.7
698.308	44.45
698.494	44.85
698.68	45.59
698.865	45.79
699.051	46.38
699.236	46.93
699.422	47.53
699.607	47.83
699.793	48.75
699.978	49.06
700.164	49.4
700.349	50.43
700.535	51.4
700.72	51.67
700.906	52.61
701.091	53.38
701.276	53.52
701.462	54.17
701.647	55.26
701.832	55.59
702.018	56.06
702.203	56.96
702.388	57.22
702.573	57.51
702.759	58.33
702.944	58.67
703.129	58.8
703.314	59.49
703.499	60.01
703.684	60.51
703.87	61.42
704.055	62.2
704.24	62.76
704.425	63.12
704.61	63.36
704.795	63.46
704.98	63.34
705.165	63.41
705.35	63.75
705.535	63.9
705.72	64.67
705.905	65.3
706.09	65.9
706.275	66.27
706.459	66.49
706.644	66.43
706.829	67.16
707.014	67.48
707.199	67.92
707.384	68.89
707.568	69.25
707.753	69.79
707.938	70.36
708.123	70.78
708.307	70.65
708.492	70.87
708.677	70.19
708.861	69.8
709.046	69.44
709.231	70.18
709.415	70.61
709.6	71.61
709.784	71.86
709.969	72.76
710.153	72.64
710.338	73.15
710.522	72.66
710.707	73.58
710.891	73.52
711.076	73.97
711.26	73.49
711.445	74.06
711.629	74.1
711.813	74.47
711.998	74.58
712.182	74.75
712.366	75.27
712.551	75.73
712.735	75.26
712.919	75.67
713.103	75.99
713.288	75.85
713.472	75.85
713.656	76.82
713.84	77.02
714.024	77.21
714.208	77.54
714.393	77.68
714.577	77.83
714.761	77.65
714.945	78.07
715.129	77.97
715.313	77.75
715.497	77.76
715.681	78.26
715.865	78.46
716.049	79.11
716.233	79.46
716.417	79.72
716.601	79.72
716.785	79.73
716.968	79.84
717.152	79.97
717.336	79.97
717.52	80.16
717.704	80.92
717.888	81.16
718.071	81.25
718.255	81.52
718.439	81.49
718.622	81.6
718.806	81.52
718.99	81.4
719.174	81.77
719.357	82.02
719.541	81.31
719.724	81.67
719.908	82.74
720.092	83.01
720.275	83.11
720.459	84.48
720.642	84.38
720.826	84.1
721.009	83.96
721.193	83.62
721.376	83.21
721.559	84.05
721.743	84.6
721.926	84.62
722.11	84.36
722.293	83.83
722.476	82.59
722.66	82.01
722.843	81.98
723.026	82.41
723.21	82.47
723.393	83.58
723.576	83.66
723.759	83.17
723.942	83.63
724.126	83.9
724.309	83.79
724.492	84.29
724.675	85.24
724.858	85.57
725.041	86.65
725.224	86.61
725.407	86.25
725.59	85.88
725.774	85.73
725.957	84.79
726.14	84.87
726.322	85.56
726.505	85.93
726.688	86.57
726.871	86.47
727.054	87.12
727.237	86.86
727.42	87.35
727.603	87.26
727.786	87.24
727.968	86.9
728.151	86.95
728.334	86.5
728.517	86.76
728.699	87.51
728.882	87.56
729.065	88.02
729.248	88.49
729.43	88.62
729.613	89.41
729.796	89.54
729.978	88.85
730.161	88.74
730.343	89.21
730.526	89.37
730.708	89.28
730.891	90.09
731.073	89.82
731.256	88.96
731.438	88.63
731.621	88.93
731.803	89.35
731.986	89.89
732.168	90.75
732.35	90.68
732.533	90.88
732.715	90.7
732.898	91.76
733.08	91.29
733.262	91.66
733.444	91.03
733.627	90.57
733.809	90.04
733.991	90.8
734.173	91.11
734.355	92.67
734.538	93.28
734.72	92.8
734.902	93.02
735.084	92.23
735.266	91.96
735.448	91.66
735.63	92.01
735.812	92.13
735.994	92.91
736.176	92.56
736.358	92.45
736.54	93.33
736.722	93.27
736.904	93.36
737.086	93.05
737.268	94.74
737.45	95.03
737.632	94.06
737.814	93.4
737.995	94.44
738.177	93.37
738.359	92.55
738.541	93.34
738.723	94.07
738.904	94.15
739.086	94.27
739.268	94.5
739.449	93.9
739.631	93.73
739.813	93.57
739.994	94.47
740.176	94.6
740.358	94.93
740.539	96.04
740.721	95.5
740.902	96.22
741.084	96.5
741.265	96.74
741.447	97.11
741.628	97.73
741.81	94.93
741.991	95.22
742.172	95.93
742.354	95.74
742.535	95.43
742.717	97.7
742.898	96.49
743.079	96.56
743.261	96.08
743.442	95.84
743.623	95.55
743.804	97
743.986	97.18
744.167	95.65
744.348	96.6
744.529	97.17
744.71	95.36
744.891	95.28
745.073	95.85
745.254	95.85
745.435	95.09
745.616	94.91
745.797	94.13
745.978	94.18
746.159	93.49
746.34	93.43
746.521	94.68
746.702	95.01
746.883	95.88
747.064	93.95
747.245	93.14
747.426	92.16
747.606	92.61
747.787	92.34
747.968	93.45
748.149	94.43
748.33	95.67
748.51	93.95
748.691	92.56
748.872	94.89
749.053	94.74
749.233	94.44
749.414	94.96
749.595	95.38
749.775	93.12
749.956	91.28
750.137	90.7
750.317	91.39
750.498	92.72
750.678	93.05
750.859	94.9
751.04	95.43
751.22	95.22
751.4	93.55
751.581	93.88
751.761	94.49
751.942	95.9
752.122	95.82
752.303	95.38
752.483	95.5
752.663	94.49
752.844	94.04
753.024	94.77
753.204	95.47
753.385	95.95
753.565	94.91
753.745	94.58
753.925	95.38
754.106	96.52
754.286	96.12
754.466	96.2
754.646	96.15
754.826	95.05
755.006	93.4
755.187	94.09
755.367	95.79
755.547	95.53
755.727	95.88
755.907	95.43
756.087	96.81
756.267	94.88
756.447	95.06
756.627	94.22
756.807	96.43
756.987	94.43
757.167	96.89
757.346	95.35
757.526	93.38
757.706	93.12
757.886	92.9
758.066	91.54
758.246	94.33
758.425	96.66
758.605	95.78
758.785	95.6
758.965	96.13
759.144	91.78
759.324	91.65
759.504	92.83
759.683	92.64
759.863	90.69
760.043	93.56
760.222	92.51
760.402	90.67
760.581	91.7
760.761	94.05
760.94	90.47
761.12	90.39
761.299	92.82
761.479	91.3
761.658	88.32
761.838	90.25
762.017	91.51
762.197	89.39
762.376	89.79
762.555	91.51
762.735	92.59
762.914	89.57
763.093	91.22
763.273	89.81
763.452	91.22
763.631	90.2
763.81	89.92
763.99	88.79
764.169	90.97
764.348	87.14
764.527	86.47
764.706	90.28
764.885	92.1
765.064	90.24
765.243	91.31
765.423	91.8
765.602	92.03
765.781	88.34
765.96	86.86
766.139	87.56
766.318	89.46
766.497	88.72
766.676	91.13
766.854	92.37
767.033	92.4
767.212	90.1
767.391	87.53
767.57	86.78
767.749	88.44
767.928	89.9
768.106	88.46
768.285	88.25
768.464	89.49
768.643	88.18
768.821	86.86
769	89.16
769.179	90.63
769.357	85.92
769.536	83.42
769.715	84.81
769.893	84.87
770.072	83.09
770.25	82.84
770.429	84.66
770.607	83.94
770.786	84.16
770.964	86.15
771.143	90.12
771.321	92.41
771.5	92.96
771.678	90.46
771.857	89.03
772.035	89.34
772.213	87.74
772.392	82.89
772.57	86.69
772.748	88.73
772.927	84.2
773.105	85.23
773.283	89.56
773.461	89.4
773.64	86.88
773.818	85.35
773.996	85.12
774.174	85.06
774.352	79.96
774.531	80.6
774.709	86.55
774.887	85.66
775.065	82.84
775.243	84.94
775.421	86.79
775.599	87.24
775.777	84.34
775.955	82.57
776.133	83.17
776.311	80.24
776.489	76.58
776.667	80.26
776.844	84.82
777.022	82.88
777.2	82.42
777.378	82.37
777.556	81.15
777.734	80.83
777.911	81.6
778.089	81.07
778.267	85.53
778.445	82.81
778.622	80.48
778.8	81.85
778.978	86.36
779.155	82.46
779.333	84.42
779.511	80.59
779.688	81.4
779.866	74.51
780.043	72.08
780.221	73.93
780.398	76.35
780.576	75.1
780.753	80.5
780.931	81.73
781.108	80.02
781.286	83.62
781.463	80.22
781.64	79.48
781.818	85.32
781.995	87.48
782.172	86.13
782.35	90.16
782.527	90.68
782.704	87.09
782.882	87.64
783.059	86.86
783.236	85.82
783.413	85.94
783.59	84.15
783.768	77.69
783.945	77.75
784.122	80.23
784.299	77.73
784.476	78.31
784.653	82.52
784.83	82.07
785.007	73.89
785.184	74.89
785.361	73.34
785.538	76.77
785.715	76.69
785.892	82.71
786.069	84.64
786.246	87.16
786.423	81.19
786.6	81.17
786.776	82.82
786.953	81.59
787.13	81.31
787.307	82.38
787.484	83.91
787.66	78.94
787.837	72.66
788.014	71.73
788.191	70.23
788.367	66.64
788.544	70.82
788.721	76.04
788.897	77.59
789.074	83.28
789.25	82.98
789.427	83.41
789.603	81.35
789.78	84.55
789.956	72.1
790.133	71.85
790.309	69.09
790.486	72.31
790.662	69.21
790.839	74.71
791.015	81.18
791.192	78.85
791.368	79.21
791.544	73.34
791.721	79.96
791.897	74.5
792.073	73.97
792.249	70.54
792.426	74.93
792.602	71.1
792.778	68.03
792.954	67.91
793.13	66.03
793.307	64.72
793.483	57.48
793.659	58.18
793.835	60.16
794.011	62.8
794.187	57.8
794.363	55.97
794.539	61.69
794.715	56.93
794.891	55.84
795.067	57.25
795.243	69.1
795.419	70.52
795.595	73.46
795.771	77.05
795.947	83.58
796.122	72.66
796.298	71.45
796.474	75.5
796.65	74.2
796.826	71.87
797.001	81.71
797.177	73.95
797.353	76.84
797.529	81.75
797.704	77.95
797.88	70.19
798.056	68.58
798.231	64.78
798.407	61.87
798.582	62.13
798.758	70.1
798.934	82.64
799.109	77.6
799.285	73.56
799.46	84.52
799.636	78.71
799.811	73.4
799.986	78.16
800.162	80.59
800.337	73.12
800.513	72.7
800.688	72.96
800.863	75.47
801.039	67.92
801.214	66.87
801.389	72.78
801.565	77.09
801.74	73.91
801.915	80.53
802.09	84.62
802.265	84.27
802.441	78.63
802.616	72.92
802.791	74.47
802.966	71.56
803.141	67.56
803.316	59.33
803.491	64.24
803.666	62.52
803.841	59.69
804.016	58.42
804.191	65.53
804.366	65.13
804.541	63
804.716	55.51
804.891	49.23
805.066	52.98
805.241	56.85
805.416	57.38
805.591	62.28
805.765	71.03
805.94	73.99
806.115	72.53
806.29	66.53
806.464	74.87
806.639	70.24
806.814	55.15
806.989	43.95
807.163	53.45
807.338	48.53
807.512	51.15
807.687	49.06
807.862	56.94
808.036	58.34
808.211	58.93
808.385	65.09
808.56	75.49
808.734	74.52
808.909	73.68
809.083	69.42
809.258	69.05
809.432	74.47
809.606	62.57
809.781	63.66
809.955	74.9
810.13	73.35
810.304	58.48
810.478	64.24
810.652	66.34
810.827	70.19
811.001	65.78
811.175	66.46
811.349	70.87
811.524	66.75
811.698	50.24
811.872	54.8
812.046	61.81
812.22	60.69
812.394	53.4
812.568	59.94
812.742	63.61
812.916	58.96
813.09	57.29
813.264	68.94
813.438	72.8
813.612	60.34
813.786	44.94
813.96	51.35
814.134	52.7
814.308	58.42
814.482	63.03
814.656	75.64
814.83	83.96
815.003	78.93
815.177	63.7
815.351	58.16
815.525	73.58
815.698	63.58
815.872	47.47
816.046	42.26
816.219	45.11
816.393	46.54
816.567	55.52
816.74	64.69
816.914	80.16
817.088	86.91
817.261	73.7
817.435	56.75
817.608	52.79
817.782	43.7
817.955	41.24
818.129	24.45
818.302	37.77
818.475	57.71
818.649	63
818.822	48.12
818.996	69.23
819.169	65.59
819.342	46.84
819.516	45.77
819.689	61.42
819.862	54.16
820.035	43.57
820.209	34.22
820.382	43.9
820.555	46.15
820.728	37.27
820.901	35.66
821.075	50.47
821.248	54.5
821.421	43.83
821.594	35.3
821.767	55.77
821.94	79.47
822.113	40.43
822.286	46.49
822.459	74.76
822.632	68.07
822.805	53.21
822.978	67.57
823.151	67.34
823.324	38.15
823.496	-3.14
823.669	-0.79
823.842	6.73
824.015	-3.25
824.188	-5.91
824.361	8.28
824.533	2.49
824.706	20.89
824.879	26.73
825.051	73.7
825.224	72.83
825.397	69.52
825.569	50.53
825.742	53.94
825.915	51.74
826.087	52.56
826.26	35.02
826.432	36
826.605	39.46
826.777	31.95
826.95	21.55
827.122	41.27
827.295	48.18
827.467	45.35
827.64	16.97
827.812	17.09
827.984	18.03
828.157	2.13
828.329	-9.69
828.501	2.28
828.674	11.62
828.846	15.98
829.018	38.95
829.19	44.27
829.363	59.74
829.535	60.55
829.707	70.56
829.879	39.11
830.051	33.58
830.223	28.7
830.395	4.29
830.568	-9.43
830.74	-1.02
830.912	26
831.084	9.98
831.256	5.26
831.428	-11.76
831.6	-10.38
831.772	-47.56
831.943	-42.8
832.115	-7.18
832.287	27.96
832.459	22.07
832.631	37.5
832.803	61.83
832.975	42.65
833.146	36.18
833.318	43.65
833.49	47.19
833.662	29.43
833.833	25.77
834.005	26.67
834.177	36.09
834.348	16.93
834.52	-13.77
834.692	-0.82
834.863	-1.4
835.035	-4.4
835.206	3.8
835.378	38.12
835.549	19.57
835.721	17.01
835.892	-3.87
836.064	11.85
836.235	20.11
836.407	65.78
836.578	49.71
836.749	64.29
836.921	46.54
837.092	12.79
837.264	-51.71
837.435	-68.89
837.606	-50.61
837.777	-8.72
837.949	21.2
838.12	21.89
838.291	48.48
838.462	44.63
838.633	24.28
838.805	3.75
838.976	24.29
839.147	18.19
839.318	-18.13
839.489	-40.23
839.66	-17.38
839.831	-14.16
840.002	-27.65
840.173	-22.54
840.344	-10.56
840.515	-8.8
840.686	-32.64
840.857	-42.86
841.028	-48.33
841.199	-15.32
841.369	-50.68
841.54	-46.31
841.711	7.21
841.882	21.07
842.053	-9.13
842.223	-17.55
842.394	-0.29
842.565	-8.57
842.736	7.05
842.906	14.88
843.077	40.74
843.248	60.36
843.418	52.66
843.589	32.84
843.759	64.29
843.93	71.46
844.101	42.46
844.271	40.82
844.442	73.45
844.612	69.69
844.783	29.64
844.953	16.86
845.123	50.31
845.294	24.52
845.464	-2.59
845.635	14.74
845.805	41.39
845.975	37.26
846.146	11.87
846.316	-2.69
846.486	13.99
846.656	14.6
846.827	-35.68
846.997	-21.29
847.167	17.58
847.337	2.94
847.507	-2.91
847.677	3.3
847.848	27.03
848.018	25.89
848.188	33.51
848.358	20.32
848.528	30.66
848.698	16.45
848.868	-9.97
849.038	-26.82
849.208	8.62
849.378	29.29
849.548	-7.37
849.718	0.27
849.887	41.54
850.057	-61.1
850.227	-90.48
850.397	-57.14
850.567	-39.04
850.737	-38.87
850.906	-40.36
851.076	-60.79
851.246	-60.76
851.415	-32.91
851.585	-5.55
851.755	11.25
851.924	51.4
852.094	57.06
852.264	29.53
852.433	-9.23
852.603	7.3
852.772	-6.87
852.942	-27.06
853.111	-37.82
853.281	8.39
853.45	13.5
853.62	-15.03
853.789	-61.31
853.959	-14.43
854.128	-43.87
854.297	-99.22
854.467	-97.74
854.636	-44.35
854.805	-37.99
854.975	-55.53
855.144	-30.74
855.313	22.01
855.482	6.79
855.652	-37.28
855.821	-20.86
855.99	20.58
856.159	10.19
856.328	13.31
856.497	19.21
856.667	24.42
856.836	-5.58
857.005	-74.6
857.174	-143.4
857.343	-131.5
857.512	-63.2
857.681	-125.78
857.85	-103.05
858.019	-56.16
858.188	-51.76
858.356	-109.98
858.525	-106.1
858.694	-82.4
858.863	-81.43
859.032	-90.43
859.201	-69.5
859.369	-6.82
859.538	6.01
859.707	-17.86
859.876	-35.84
860.044	-21.5
860.213	-37.36
860.382	-39.2
860.55	-26.33
860.719	18.66
860.888	30.09
861.056	26.33
861.225	-2.62
861.393	75.98
861.562	76.26
861.73	33.31
861.899	35.5
862.067	4.6
862.236	2.85
862.404	-46.76
862.572	-68.92
862.741	-51.67
862.909	-41.32
863.078	-58.38
863.246	-72.23
863.414	-45.7
863.582	-101.68
863.751	-78.72
863.919	-91.98
864.087	-20.48
864.255	-22.33
864.424	-49.55
864.592	-42.19
864.76	-8.3
864.928	1.36
865.096	-17.09
865.264	-5.44
865.432	-3.01
865.6	-12.72
865.768	-118.2
865.936	-176.29
866.104	-103.26
866.272	-113.01
866.44	-105.8
866.608	-99.06
866.776	-120.96
866.944	-224.19
867.112	-345.21
867.28	-556.49
867.448	-1065.19
867.615	-407.12
867.783	-81.81
867.951	-88.73
868.119	14.37
868.286	13.84
868.454	-38.72
868.622	-78.25
868.789	-50.38
868.957	-10.67
869.125	-59.57
869.292	-44.76
869.46	-30.02
869.627	-0.62
869.795	-73.53
869.963	-43.86
870.13	1.89
870.298	34.81
870.465	-21.01
870.632	-39.88
870.8	-53.14
870.967	-71.11
871.135	-206.86
871.302	-123.21
871.469	-8.25
871.637	3.27
871.804	9.73
871.971	17.17
872.139	10.72
872.306	35.12
872.473	21.32
872.64	-25.22
872.807	27.65
872.975	33.71
873.142	-77.79
873.309	-69.09
873.476	45.28
873.643	44.62
873.81	36.5
873.977	41.34
874.144	40.75
874.311	19.24
874.478	-89.54
874.645	-150.58
874.812	-476.88
874.979	29428.57
875.146	-767.6
875.313	-189.84
875.48	-60.12
875.647	-36.81
875.813	-56.01
875.98	-75.32
876.147	-161.23
876.314	-171.48
876.481	-222.59
876.647	-263.99
876.814	-152.03
876.981	-88.15
877.147	-155.92
877.314	-157.35
877.481	-52.78
877.647	9.02
877.814	-49.53
877.98	-50.18
878.147	24.73
878.314	40.04
878.48	-35.67
878.647	-62.05
878.813	-10.83
878.979	20.17
879.146	-4.21
879.312	7.92
879.479	33.38
879.645	49.26
879.811	-43.25
879.978	-29.86
880.144	-1.87
880.31	-11.33
880.477	-91.48
880.643	-92.12
880.809	-61.46
880.975	-28.63
881.142	-85
881.308	-56.53
881.474	-2.89
881.64	-10.53
881.806	-68.51
881.972	-12.95
882.138	-4.28
882.304	20.58
882.47	-57.54
882.636	-92.02
882.802	-117.59
882.968	-42.22
883.134	-139.24
883.3	-144.13
883.466	32.8
883.632	69.7
883.798	-64.91
883.964	-63.94
884.129	-72.85
884.295	-105.61
884.461	-121.56
884.627	-154.26
884.793	-101.07
884.958	-18.53
885.124	-92.95
885.29	-112.49
885.455	-58.84
885.621	-93.71
885.787	-372.39
885.952	-161.91
886.118	-115.31
886.283	-90.86
886.449	-102.14
886.614	-56.84
886.78	-51.44
886.945	-22.18
887.111	-188.54
887.276	-211.48
887.442	-463.87
887.607	-326.02
887.773	-392.38
887.938	-261.05
888.103	-140.11
888.269	-37.64
888.434	-13.89
888.599	-20.84
888.764	26.8
888.93	26.06
889.095	-5.77
889.26	-39.74
889.425	13.39
889.59	38.66
889.756	-7.27
889.921	3.97
890.086	28.51
890.251	27.76
890.416	-52.23
890.581	-36.04
890.746	6.92
890.911	45.07
891.076	-8.17
891.241	-10.8
891.406	34.02
891.571	21.67
891.736	-48.52
891.901	-84.51
892.065	-56.82
892.23	-33.71
892.395	-135.43
892.56	-180.39
892.725	-73.56
892.889	-52.79
893.054	-191.23
893.219	-184.11
893.384	-178.48
893.548	-235.35
893.713	-300.98
893.878	-242.02
