Data from Ofra_PP_Phys_2CX12S_Reflection_3.txt Node
Date: Sat Jul 24 20:04:29 EDT 2021
User: USUARIO
Spectrometer: FLMT01687
Trigger mode: 0
Integration Time (sec): 1.100000E0
Scans to average: 2
Electric dark correction enabled: true
Nonlinearity correction enabled: false
Boxcar width: 2
XAxis mode: Wavelengths
Number of Pixels in Spectrum: 3648
>>>>>Begin Spectral Data<<<<<
179.494	563.92
179.716	713.33
179.937	1255.82
180.158	1091.3
180.38	497.18
180.601	-640.24
180.823	24.76
181.044	706.2
181.265	13.84
181.486	-3.21
181.708	-6.84
181.929	-1006.67
182.15	173.09
182.372	-21.23
182.593	24833.33
182.814	277.44
183.035	119.99
183.257	134.09
183.478	76.47
183.699	142.33
183.92	118.59
184.141	142.32
184.363	84.33
184.584	119.32
184.805	74.3
185.026	83.26
185.247	79.94
185.468	51.66
185.689	39.96
185.91	37.04
186.132	14.61
186.353	14.05
186.574	59.03
186.795	66.5
187.016	28.5
187.237	71.14
187.458	70.6
187.679	89.98
187.9	83.55
188.121	133.36
188.342	118.63
188.563	114.19
188.784	111.77
189.005	111.88
189.226	103.1
189.447	87.23
189.667	76.09
189.888	56.1
190.109	32.11
190.33	12.56
190.551	0.2
190.772	7.48
190.993	-12.53
191.214	-9.29
191.434	-24.03
191.655	34.61
191.876	23.06
192.097	29.06
192.318	35.98
192.538	30.17
192.759	5.8
192.98	-0.85
193.201	9.19
193.421	3.29
193.642	29.96
193.863	28.8
194.083	30.15
194.304	32.23
194.525	34.94
194.745	43.34
194.966	23.02
195.187	26.82
195.407	9.18
195.628	-20.14
195.848	9.24
196.069	-0.68
196.29	0.37
196.51	-14.92
196.731	-18.39
196.951	-47.82
197.172	-17.94
197.392	-21.55
197.613	-1.99
197.833	-9.02
198.054	-15.43
198.274	-4.55
198.495	-43.92
198.715	-23.64
198.936	-22.06
199.156	-3.8
199.377	-14.55
199.597	6.59
199.817	13.02
200.038	24.53
200.258	22.81
200.479	50.76
200.699	54.3
200.919	49.34
201.14	29.35
201.36	21.57
201.58	23.85
201.801	22.66
202.021	29.3
202.241	82.29
202.461	76.09
202.682	51.12
202.902	72.93
203.122	54.73
203.342	47.7
203.563	79.03
203.783	99.43
204.003	60.96
204.223	24.63
204.443	67.87
204.663	60.05
204.884	30.54
205.104	57.78
205.324	100.58
205.544	73.3
205.764	65.02
205.984	87.04
206.204	89.19
206.424	57.53
206.644	58.67
206.864	36.08
207.084	2.87
207.304	20.93
207.525	-2.6
207.745	9.73
207.964	30.59
208.184	18.83
208.404	4.55
208.624	17.8
208.844	13.13
209.064	-12.61
209.284	1.55
209.504	15.95
209.724	35.08
209.944	40.17
210.164	59.4
210.384	69.23
210.604	59.94
210.823	20.25
211.043	10.03
211.263	8.99
211.483	-23.58
211.703	-37.66
211.922	-3.2
212.142	25.73
212.362	43.55
212.582	41.22
212.801	43.26
213.021	12.38
213.241	15.07
213.461	-13.86
213.68	-31.3
213.9	-22.73
214.12	7.37
214.339	-24.26
214.559	-9.78
214.779	37.36
214.998	27.52
215.218	7.82
215.438	26.49
215.657	22
215.877	32.31
216.096	41.37
216.316	72.29
216.535	71.7
216.755	80.77
216.974	69.89
217.194	72.65
217.413	57.69
217.633	48.01
217.852	-2.53
218.072	-10.14
218.291	-31.34
218.511	-13.91
218.73	-60.73
218.95	-47.74
219.169	-41.03
219.389	-55.54
219.608	-79.88
219.827	-16.49
220.047	-3.09
220.266	-0.33
220.485	9.16
220.705	51.45
220.924	10.01
221.143	38.8
221.363	-9.65
221.582	32.16
221.801	11.62
222.021	47.17
222.24	42.83
222.459	91.77
222.678	63.95
222.897	55.16
223.117	41.54
223.336	42.78
223.555	41.65
223.774	70.14
223.993	92.84
224.213	159.78
224.432	102.4
224.651	112.59
224.87	79.54
225.089	79.5
225.308	41.82
225.527	69.52
225.746	58.09
225.965	52.86
226.184	44.49
226.404	67.33
226.623	32.71
226.842	33.33
227.061	55.9
227.28	65.38
227.499	65.92
227.718	101.42
227.936	100.46
228.155	91.41
228.374	43.72
228.593	28.66
228.812	9.72
229.031	27.06
229.25	12.23
229.469	42.03
229.688	52.23
229.907	58.03
230.125	46.98
230.344	56.1
230.563	53.74
230.782	61.42
231.001	11.65
231.22	14.7
231.438	4.54
231.657	-0.91
231.876	-10.54
232.095	28.51
232.313	33.23
232.532	39.19
232.751	53.93
232.969	56.19
233.188	65.98
233.407	58.18
233.625	53.39
233.844	52.48
234.063	39.62
234.281	63.53
234.5	63.38
234.719	74.85
234.937	63.75
235.156	68.18
235.374	39.96
235.593	54.93
235.811	55.12
236.03	57.62
236.249	49.65
236.467	60.58
236.686	51.93
236.904	50.93
237.123	-6.45
237.341	14.57
237.559	6.14
237.778	2.78
237.996	-23.8
238.215	27.09
238.433	2.56
238.652	27.91
238.87	1.82
239.088	41.74
239.307	31.99
239.525	48.52
239.743	0.16
239.962	24.44
240.18	-20.83
240.398	-37.7
240.617	-41.72
240.835	-5.81
241.053	-27.32
241.271	19.71
241.49	22.54
241.708	28.65
241.926	16.79
242.144	25.26
242.363	16.62
242.581	21.47
242.799	25.33
243.017	27.84
243.235	16.12
243.453	37.34
243.672	14.16
243.89	21.6
244.108	32.5
244.326	34.54
244.544	30.24
244.762	28.39
244.98	20.48
245.198	19.85
245.416	20.04
245.634	33.9
245.852	51.95
246.07	47.86
246.288	51.12
246.506	50.22
246.724	53.06
246.942	41.89
247.16	50
247.378	47.05
247.596	53.36
247.814	49.13
248.032	25.34
248.25	24.63
248.468	25.2
248.685	47.11
248.903	52.42
249.121	83.71
249.339	69.31
249.557	66.85
249.775	38.62
249.992	-32.29
250.21	-53.85
250.428	-15.82
250.646	-19.64
250.863	-10.53
251.081	22.97
251.299	51
251.517	41.38
251.734	49.99
251.952	28.1
252.17	30.1
252.387	31.47
252.605	10.46
252.823	7.01
253.04	22.26
253.258	21.1
253.475	17.76
253.693	39.12
253.911	51.7
254.128	46.83
254.346	61.59
254.563	45.63
254.781	48.47
254.998	40.38
255.216	35.28
255.433	25.03
255.651	50.95
255.868	59.64
256.086	63.7
256.303	68.76
256.521	85.77
256.738	69.64
256.956	45.05
257.173	56.6
257.39	55.79
257.608	40.38
257.825	46.57
258.043	65.75
258.26	55.16
258.477	40.41
258.695	36.58
258.912	-4.72
259.129	-5.53
259.346	-23.73
259.564	9.05
259.781	28.86
259.998	45.48
260.216	57.53
260.433	85.62
260.65	66.32
260.867	66.15
261.084	55.66
261.302	60.92
261.519	57.02
261.736	50.47
261.953	39.18
262.17	49.63
262.387	29.61
262.604	10.37
262.822	13.59
263.039	6.11
263.256	5.2
263.473	16.54
263.69	-4.73
263.907	8.23
264.124	19.97
264.341	50.87
264.558	33.85
264.775	37.17
264.992	37.43
265.209	45.55
265.426	20.84
265.643	36.82
265.86	54
266.077	56.3
266.294	53.6
266.51	66.8
266.727	49.86
266.944	64.06
267.161	45.66
267.378	50.74
267.595	44.53
267.812	30.16
268.028	16.13
268.245	33.73
268.462	10.71
268.679	-7.96
268.896	32.78
269.112	19.18
269.329	9.65
269.546	26.48
269.763	47.7
269.979	41.59
270.196	47.52
270.413	53.34
270.629	40.21
270.846	28.55
271.063	38.55
271.279	31.32
271.496	13.77
271.712	31.02
271.929	26.37
272.146	23.69
272.362	20.85
272.579	55.28
272.795	46.81
273.012	58.11
273.228	47.48
273.445	40.09
273.661	9.84
273.878	-28.48
274.094	-36.88
274.311	-38.57
274.527	-11
274.744	15.41
274.96	35.02
275.177	38.71
275.393	33.29
275.609	38.42
275.826	33.2
276.042	33.72
276.259	46.21
276.475	35.67
276.691	32.34
276.908	19.1
277.124	55.55
277.34	43.72
277.557	58.91
277.773	69.8
277.989	81.6
278.205	65.98
278.422	74.69
278.638	80.23
278.854	68.39
279.07	69.51
279.286	35.56
279.503	23.04
279.719	17.29
279.935	15.69
280.151	7.68
280.367	22.09
280.583	25.3
280.799	22.34
281.016	26.65
281.232	36.79
281.448	47.63
281.664	57.46
281.88	53.72
282.096	41.03
282.312	44.85
282.528	51.42
282.744	54.78
282.96	53.44
283.176	64.99
283.392	48.55
283.608	32.05
283.824	18.82
284.04	20.8
284.256	32.84
284.471	38.08
284.687	39.18
284.903	46.8
285.119	64.29
285.335	45.97
285.551	62.17
285.767	55.69
285.982	44.99
286.198	29.17
286.414	28.24
286.63	14.71
286.846	34.7
287.061	13.96
287.277	16.72
287.493	26.55
287.709	23.09
287.924	16.46
288.14	51.8
288.356	59.57
288.571	71.95
288.787	72.33
289.003	73.83
289.218	63.84
289.434	18.25
289.65	23.07
289.865	19.59
290.081	27.46
290.296	28.16
290.512	36.02
290.727	33.71
290.943	32.2
291.159	17.79
291.374	20.35
291.59	20.59
291.805	12.01
292.021	17.99
292.236	24.93
292.451	25.72
292.667	29.87
292.882	34.11
293.098	53.43
293.313	41.06
293.529	27.58
293.744	10.19
293.959	-5.85
294.175	-16.84
294.39	3.6
294.605	17.08
294.821	28.69
295.036	25.35
295.251	40.73
295.467	30.47
295.682	36.06
295.897	33.06
296.112	36.25
296.328	30.25
296.543	28.06
296.758	3.53
296.973	33.23
297.188	51.77
297.404	27.3
297.619	31.32
297.834	36.17
298.049	19.54
298.264	7.77
298.479	33.85
298.694	39.73
298.909	54.22
299.125	62.05
299.34	57.93
299.555	52.4
299.77	60.38
299.985	23.47
300.2	-14.61
300.415	-20.93
300.63	-10.2
300.845	-18.19
301.06	-9.3
301.275	11.16
301.49	18.68
301.704	11.85
301.919	-1.48
302.134	-2.65
302.349	33.93
302.564	17.24
302.779	37.65
302.994	65.42
303.209	75.24
303.423	59.76
303.638	87.36
303.853	59.15
304.068	22.13
304.283	7.97
304.497	11.37
304.712	13.66
304.927	13.87
305.142	29.33
305.356	33.79
305.571	43.57
305.786	39.27
306	39.22
306.215	50.06
306.43	27.33
306.644	33.15
306.859	30.01
307.074	23.61
307.288	-1.65
307.503	21.35
307.717	3.34
307.932	19.18
308.147	24.51
308.361	52.46
308.576	49
308.79	22.72
309.005	24.17
309.219	34.4
309.434	21.84
309.648	2.08
309.863	29.92
310.077	21.56
310.292	1.35
310.506	-14.02
310.72	24.44
310.935	37.35
311.149	24.51
311.364	40.9
311.578	60.53
311.792	38.29
312.007	39.61
312.221	24.36
312.435	35.08
312.649	8.53
312.864	38.95
313.078	22.75
313.292	53.24
313.507	55.85
313.721	51.2
313.935	47.35
314.149	64.96
314.363	54.65
314.578	23.88
314.792	11.9
315.006	21.41
315.22	4.69
315.434	2.75
315.648	4.04
315.862	17.36
316.077	10.75
316.291	30.69
316.505	25.95
316.719	50.45
316.933	20.97
317.147	31.28
317.361	3.9
317.575	11.5
317.789	2.34
318.003	11.81
318.217	10.67
318.431	33.97
318.645	43.85
318.859	40.25
319.073	56.84
319.287	43.71
319.5	22.42
319.714	-3.51
319.928	-4.76
320.142	-15.41
320.356	17.24
320.57	39.36
320.784	38.68
320.997	41.91
321.211	41.43
321.425	14.44
321.639	-29.24
321.853	3.3
322.066	6.25
322.28	-13.06
322.494	15.99
322.707	74.13
322.921	53.13
323.135	61.23
323.349	82.74
323.562	51.1
323.776	23.48
323.989	34.28
324.203	3.53
324.417	3.84
324.63	-1.55
324.844	-20.15
325.057	-20.85
325.271	-18.39
325.485	-18.5
325.698	5.99
325.912	41.1
326.125	19.85
326.339	41.59
326.552	44.49
326.766	53.27
326.979	43.65
327.193	75.55
327.406	72.33
327.619	61.04
327.833	62.48
328.046	51.51
328.26	29.23
328.473	9.87
328.686	-1.86
328.9	-4.51
329.113	3.8
329.326	4.45
329.54	29.74
329.753	40.29
329.966	39.64
330.179	43.23
330.393	59.35
330.606	44.74
330.819	57.31
331.032	64.57
331.246	68.82
331.459	56.35
331.672	48.7
331.885	28.8
332.098	3.89
332.311	4.59
332.525	-2.62
332.738	1.37
332.951	10.91
333.164	25.47
333.377	35.45
333.59	49.89
333.803	43.68
334.016	45.23
334.229	44.76
334.442	42.33
334.655	53.41
334.868	63.55
335.081	61.92
335.294	58.25
335.507	69.14
335.72	59.87
335.933	46.2
336.146	45.09
336.359	51.74
336.572	28.72
336.785	20.18
336.997	29.84
337.21	40.47
337.423	33.69
337.636	35.91
337.849	39.74
338.062	35.75
338.274	34.67
338.487	20.92
338.7	27.78
338.913	17.47
339.125	13.26
339.338	13.42
339.551	14.69
339.763	17.16
339.976	38.21
340.189	41.53
340.402	36.29
340.614	39.87
340.827	34.08
341.039	22.15
341.252	24.87
341.465	23.14
341.677	13.43
341.89	-26.17
342.102	-25.36
342.315	-27.5
342.527	-36.23
342.74	-28.86
342.952	14.59
343.165	14.51
343.377	24.46
343.59	27.27
343.802	50
344.015	51.43
344.227	64.16
344.44	60.86
344.652	64.9
344.864	58.81
345.077	62.24
345.289	53.69
345.502	51.87
345.714	48.23
345.926	38.78
346.139	32.41
346.351	29.88
346.563	29.6
346.775	32.84
346.988	30.97
347.2	25.16
347.412	19.76
347.624	14.52
347.837	18.16
348.049	31.64
348.261	44.87
348.473	44.65
348.685	25.58
348.897	11.62
349.11	12.16
349.322	10.43
349.534	20.19
349.746	40.75
349.958	64.14
350.17	51.02
350.382	47.65
350.594	52.92
350.806	49.12
351.018	26.92
351.23	38.92
351.442	34.81
351.654	31.7
351.866	22.87
352.078	33.38
352.29	19.29
352.502	33.75
352.714	46.81
352.926	56.53
353.138	48.68
353.35	41.09
353.561	39.88
353.773	23.49
353.985	30.33
354.197	21.41
354.409	27.3
354.621	15.82
354.832	22.4
355.044	21.29
355.256	22.87
355.468	23.87
355.679	30.36
355.891	28.5
356.103	17.97
356.314	18.35
356.526	26.99
356.738	45.93
356.949	47.6
357.161	39.46
357.373	39.49
357.584	34.88
357.796	28.32
358.008	16.08
358.219	42.29
358.431	60.05
358.642	54.33
358.854	53.58
359.065	58.05
359.277	38.04
359.488	19.18
359.7	9.75
359.911	-9.7
360.123	-8.69
360.334	-14.77
360.546	-9.84
360.757	-2.33
360.969	9.12
361.18	9.74
361.391	17.07
361.603	14.93
361.814	33.53
362.025	28.18
362.237	41
362.448	53.86
362.659	62.64
362.871	60.97
363.082	57.12
363.293	60.48
363.504	45.06
363.716	35.37
363.927	33.74
364.138	30.26
364.349	0.77
364.56	-1.99
364.772	-19.9
364.983	-21.59
365.194	-22.9
365.405	-0.8
365.616	4.17
365.827	11.82
366.038	26.33
366.25	29.84
366.461	10.29
366.672	25.55
366.883	33.02
367.094	21.16
367.305	5.09
367.516	17.74
367.727	6.02
367.938	-5.29
368.149	-1.8
368.36	9.86
368.571	7.21
368.781	4.79
368.992	2.72
369.203	22.73
369.414	14.37
369.625	4.45
369.836	0.78
370.047	1.24
370.258	-14.35
370.468	-9.61
370.679	-27.6
370.89	-12.16
371.101	5.51
371.312	-11.08
371.522	-3.4
371.733	16.29
371.944	24.13
372.155	29.47
372.365	20.14
372.576	22.42
372.787	18.18
372.997	6.31
373.208	6.95
373.419	24.57
373.629	9.13
373.84	19.18
374.05	5.74
374.261	18.81
374.472	5.7
374.682	24.89
374.893	15.79
375.103	33.33
375.314	10.51
375.524	18.83
375.735	24.9
375.945	24.41
376.156	17.32
376.366	32.51
376.577	39.74
376.787	36.86
376.997	45.81
377.208	50.52
377.418	29.61
377.629	31.39
377.839	23.87
378.049	15.95
378.26	17.04
378.47	31.42
378.68	27.93
378.89	28.87
379.101	32.13
379.311	19.68
379.521	8.85
379.732	5.1
379.942	-7.36
380.152	-1.54
380.362	9.76
380.572	9.07
380.783	19.39
380.993	30.76
381.203	27.28
381.413	26.14
381.623	28.73
381.833	22.21
382.043	8.31
382.253	13.95
382.463	19.66
382.674	19.39
382.884	7.26
383.094	15.38
383.304	13.82
383.514	13.41
383.724	14.23
383.934	10.47
384.144	2.08
384.353	3.06
384.563	6.58
384.773	6.66
384.983	15.62
385.193	18.14
385.403	5.38
385.613	2.46
385.823	3.86
386.033	5.57
386.242	8.54
386.452	18
386.662	13.23
386.872	15.45
387.082	17.99
387.291	6.55
387.501	6.28
387.711	7.42
387.921	-2.69
388.13	-1.51
388.34	11.08
388.55	9.49
388.759	12.31
388.969	15.86
389.179	13.41
389.388	10.17
389.598	8.1
389.807	5.22
390.017	8.18
390.227	7.72
390.436	6.74
390.646	13.79
390.855	14.36
391.065	14.36
391.274	9.74
391.484	7.69
391.693	6.37
391.903	7.15
392.112	8.71
392.322	11.75
392.531	16.23
392.74	15.24
392.95	12.12
393.159	9.76
393.369	11.08
393.578	6.24
393.787	5.18
393.997	7.64
394.206	7.5
394.415	7.98
394.625	9.46
394.834	7.62
395.043	6.13
395.252	6.96
395.462	6.55
395.671	7.03
395.88	8.76
396.089	9.77
396.298	9.03
396.508	8.91
396.717	8.87
396.926	8.18
397.135	7.79
397.344	7.59
397.553	7.39
397.762	7.87
397.971	7.99
398.181	7.73
398.39	6.99
398.599	6.63
398.808	5.95
399.017	6.43
399.226	7.12
399.435	8.16
399.644	8.42
399.853	8.16
400.062	7.81
400.27	7.52
400.479	7.07
400.688	6.74
400.897	7.12
401.106	6.86
401.315	6.4
401.524	6.21
401.733	6.39
401.941	6.61
402.15	6.58
402.359	6.8
402.568	7.12
402.777	7.15
402.985	6.6
403.194	6.73
403.403	6.56
403.612	6.3
403.82	6.3
404.029	6.6
404.238	6.46
404.446	6.56
404.655	6.29
404.864	6.27
405.072	6.14
405.281	6.31
405.489	6.11
405.698	6.22
405.906	6.04
406.115	5.82
406.324	5.56
406.532	5.61
406.741	5.79
406.949	5.68
407.158	5.75
407.366	5.86
407.574	6.06
407.783	5.97
407.991	6.06
408.2	6.18
408.408	6.11
408.617	5.94
408.825	5.77
409.033	5.84
409.242	5.77
409.45	5.77
409.658	5.66
409.867	5.87
410.075	5.71
410.283	5.67
410.491	5.63
410.7	5.62
410.908	5.5
411.116	5.56
411.324	5.55
411.533	5.49
411.741	5.53
411.949	5.57
412.157	5.42
412.365	5.47
412.573	5.41
412.781	5.47
412.99	5.41
413.198	5.59
413.406	5.49
413.614	5.6
413.822	5.62
414.03	5.67
414.238	5.48
414.446	5.64
414.654	5.45
414.862	5.31
415.07	5.25
415.278	5.46
415.486	5.04
415.694	5.29
415.902	5.31
416.109	5.2
416.317	5.21
416.525	5.19
416.733	5.17
416.941	5.21
417.149	5.23
417.357	5.22
417.564	5.38
417.772	5.16
417.98	5.04
418.188	5.08
418.395	4.92
418.603	5.08
418.811	5.13
419.019	5.01
419.226	5.11
419.434	5.37
419.642	5.21
419.849	5.18
420.057	5.46
420.265	5.44
420.472	5.19
420.68	5.26
420.887	5.05
421.095	4.98
421.302	4.74
421.51	4.77
421.717	4.7
421.925	4.97
422.132	4.95
422.34	4.95
422.547	4.86
422.755	4.96
422.962	4.97
423.17	4.93
423.377	5.11
423.585	5.23
423.792	5.12
423.999	5.17
424.207	5.15
424.414	5.07
424.621	5.02
424.829	5.15
425.036	5.09
425.243	5.04
425.451	5.01
425.658	4.95
425.865	4.77
426.072	4.76
426.28	4.76
426.487	4.67
426.694	4.81
426.901	4.83
427.108	4.72
427.315	4.86
427.523	5.05
427.73	4.97
427.937	4.8
428.144	4.71
428.351	4.58
428.558	4.53
428.765	4.48
428.972	4.61
429.179	4.81
429.386	4.92
429.593	4.88
429.8	4.77
430.007	4.95
430.214	5.01
430.421	5.01
430.628	5
430.835	4.97
431.042	4.92
431.249	4.8
431.456	4.88
431.662	4.97
431.869	5.13
432.076	5.08
432.283	5.15
432.49	4.94
432.697	4.79
432.903	4.57
433.11	4.57
433.317	4.64
433.524	4.8
433.73	4.7
433.937	4.97
434.144	4.93
434.35	4.89
434.557	4.7
434.764	4.84
434.97	4.82
435.177	4.92
435.384	4.7
435.59	4.9
435.797	4.88
436.003	4.83
436.21	4.82
436.416	4.89
436.623	4.76
436.829	4.86
437.036	4.88
437.242	4.87
437.449	4.94
437.655	4.88
437.862	4.8
438.068	4.79
438.275	4.91
438.481	4.94
438.687	4.93
438.894	4.94
439.1	4.87
439.307	4.83
439.513	4.74
439.719	4.86
439.926	4.92
440.132	4.92
440.338	4.76
440.544	4.85
440.751	4.78
440.957	4.77
441.163	4.62
441.369	4.72
441.575	4.61
441.782	4.55
441.988	4.45
442.194	4.58
442.4	4.52
442.606	4.72
442.812	4.81
443.018	4.82
443.224	4.92
443.431	4.97
443.637	4.76
443.843	4.69
444.049	4.75
444.255	4.66
444.461	4.62
444.667	4.65
444.873	4.67
445.079	4.76
445.284	4.77
445.49	4.65
445.696	4.53
445.902	4.52
446.108	4.4
446.314	4.31
446.52	4.55
446.726	4.72
446.931	4.71
447.137	4.73
447.343	4.77
447.549	4.49
447.755	4.48
447.96	4.54
448.166	4.49
448.372	4.64
448.578	4.7
448.783	4.69
448.989	4.78
449.195	4.91
449.4	4.78
449.606	4.84
449.812	4.78
450.017	4.8
450.223	4.69
450.428	4.6
450.634	4.65
450.84	4.72
451.045	4.58
451.251	4.55
451.456	4.69
451.662	4.78
451.867	4.83
452.073	4.78
452.278	4.83
452.483	4.88
452.689	4.79
452.894	4.88
453.1	5
453.305	4.92
453.51	4.85
453.716	4.84
453.921	4.79
454.127	4.74
454.332	4.71
454.537	4.69
454.742	4.71
454.948	4.74
455.153	4.72
455.358	4.87
455.563	5
455.769	5.02
455.974	4.89
456.179	4.92
456.384	4.83
456.589	4.73
456.795	4.58
457	4.53
457.205	4.53
457.41	4.56
457.615	4.59
457.82	4.69
458.025	4.82
458.23	4.73
458.435	4.8
458.64	4.62
458.845	4.7
459.05	4.6
459.255	4.57
459.46	4.49
459.665	4.61
459.87	4.48
460.075	4.47
460.28	4.59
460.485	4.69
460.69	4.7
460.895	4.59
461.099	4.54
461.304	4.62
461.509	4.61
461.714	4.51
461.919	4.56
462.123	4.6
462.328	4.63
462.533	4.4
462.738	4.5
462.942	4.46
463.147	4.57
463.352	4.53
463.556	4.67
463.761	4.66
463.966	4.83
464.17	4.81
464.375	4.74
464.58	4.68
464.784	4.72
464.989	4.6
465.193	4.58
465.398	4.58
465.602	4.79
465.807	4.71
466.011	4.76
466.216	4.81
466.42	4.82
466.625	4.78
466.829	4.94
467.034	5.05
467.238	5.09
467.443	5.05
467.647	4.92
467.851	4.9
468.056	4.87
468.26	4.73
468.464	4.73
468.669	4.86
468.873	4.88
469.077	4.87
469.282	4.84
469.486	4.95
469.69	4.91
469.894	4.8
470.099	4.79
470.303	4.92
470.507	4.84
470.711	4.77
470.915	4.76
471.119	4.77
471.324	4.7
471.528	4.65
471.732	4.72
471.936	4.76
472.14	4.84
472.344	4.86
472.548	4.99
472.752	4.95
472.956	4.96
473.16	4.83
473.364	4.82
473.568	4.8
473.772	4.82
473.976	4.86
474.18	4.87
474.384	4.84
474.588	4.78
474.792	4.73
474.995	4.69
475.199	4.73
475.403	4.79
475.607	4.8
475.811	4.83
476.015	4.93
476.218	4.87
476.422	4.84
476.626	4.91
476.83	5
477.033	4.91
477.237	4.85
477.441	4.84
477.644	4.8
477.848	4.72
478.052	4.59
478.255	4.6
478.459	4.64
478.663	4.74
478.866	4.78
479.07	4.93
479.273	5.05
479.477	5.1
479.681	4.99
479.884	4.95
480.088	4.9
480.291	4.9
480.495	4.78
480.698	4.79
480.901	4.85
481.105	4.95
481.308	4.86
481.512	4.87
481.715	4.89
481.919	4.87
482.122	4.82
482.325	4.88
482.529	4.92
482.732	4.87
482.935	4.78
483.138	4.73
483.342	4.75
483.545	4.83
483.748	4.92
483.952	5.02
484.155	5.17
484.358	5.17
484.561	5.1
484.764	5.11
484.967	5.13
485.171	5.14
485.374	5.04
485.577	5.06
485.78	5.03
485.983	4.99
486.186	4.86
486.389	4.9
486.592	4.93
486.795	4.96
486.998	4.96
487.201	5.08
487.404	5.11
487.607	5.14
487.81	5.16
488.013	5.17
488.216	5.17
488.419	5.29
488.622	5.19
488.825	5.16
489.028	5.14
489.231	5.09
489.433	4.9
489.636	4.91
489.839	4.77
490.042	4.73
490.245	4.69
490.447	4.8
490.65	4.84
490.853	5.01
491.056	5.1
491.258	5.17
491.461	5.15
491.664	5.17
491.866	5.02
492.069	4.99
492.272	4.99
492.474	5.03
492.677	5
492.879	5.1
493.082	5.19
493.285	5.26
493.487	5.19
493.69	5.15
493.892	5.04
494.095	4.96
494.297	4.88
494.5	5.07
494.702	5.16
494.905	5.3
495.107	5.3
495.309	5.35
495.512	5.18
495.714	5.21
495.917	5.23
496.119	5.23
496.321	5.29
496.524	5.4
496.726	5.45
496.928	5.46
497.13	5.47
497.333	5.44
497.535	5.45
497.737	5.37
497.939	5.32
498.142	5.39
498.344	5.33
498.546	5.3
498.748	5.34
498.95	5.41
499.152	5.4
499.355	5.47
499.557	5.55
499.759	5.6
499.961	5.6
500.163	5.61
500.365	5.6
500.567	5.53
500.769	5.42
500.971	5.51
501.173	5.43
501.375	5.52
501.577	5.5
501.779	5.59
501.981	5.52
502.183	5.64
502.385	5.52
502.587	5.52
502.788	5.57
502.99	5.62
503.192	5.62
503.394	5.68
503.596	5.73
503.798	5.79
503.999	5.79
504.201	5.78
504.403	5.81
504.605	5.86
504.806	5.79
505.008	5.74
505.21	5.76
505.411	5.77
505.613	5.68
505.815	5.75
506.016	5.85
506.218	5.85
506.42	5.73
506.621	5.77
506.823	5.78
507.024	5.76
507.226	5.75
507.427	5.84
507.629	5.94
507.83	5.92
508.032	5.83
508.233	5.91
508.435	5.97
508.636	5.99
508.838	5.92
509.039	5.99
509.24	6.04
509.442	6.05
509.643	5.91
509.845	6.02
510.046	6.05
510.247	5.97
510.448	5.93
510.65	6.1
510.851	6.12
511.052	6.15
511.254	6.14
511.455	6.17
511.656	6.1
511.857	6.08
512.058	6.06
512.26	6.16
512.461	6.13
512.662	6.17
512.863	6.07
513.064	6.03
513.265	6
513.466	6.04
513.667	6.02
513.868	6.19
514.069	6.31
514.27	6.43
514.471	6.38
514.672	6.45
514.873	6.46
515.074	6.44
515.275	6.28
515.476	6.37
515.677	6.41
515.878	6.45
516.079	6.37
516.28	6.5
516.481	6.55
516.682	6.53
516.882	6.49
517.083	6.62
517.284	6.54
517.485	6.48
517.686	6.46
517.886	6.43
518.087	6.41
518.288	6.53
518.488	6.49
518.689	6.54
518.89	6.49
519.091	6.49
519.291	6.43
519.492	6.53
519.692	6.53
519.893	6.63
520.094	6.67
520.294	6.62
520.495	6.57
520.695	6.58
520.896	6.59
521.096	6.58
521.297	6.7
521.497	6.8
521.698	6.78
521.898	6.78
522.099	6.86
522.299	6.87
522.499	6.84
522.7	6.89
522.9	6.88
523.101	6.86
523.301	6.87
523.501	6.87
523.702	6.87
523.902	6.97
524.102	7.02
524.302	7.05
524.503	7.08
524.703	7.11
524.903	7.02
525.103	6.98
525.304	7.01
525.504	7.05
525.704	7.03
525.904	7.08
526.104	7.09
526.304	7.09
526.504	7.06
526.705	7.07
526.905	7.16
527.105	7.22
527.305	7.22
527.505	7.16
527.705	7.14
527.905	7.1
528.105	7.04
528.305	6.99
528.505	7.06
528.705	7.17
528.905	7.15
529.105	7.17
529.304	7.24
529.504	7.31
529.704	7.23
529.904	7.27
530.104	7.33
530.304	7.43
530.503	7.41
530.703	7.43
530.903	7.41
531.103	7.43
531.303	7.31
531.502	7.35
531.702	7.4
531.902	7.43
532.101	7.39
532.301	7.39
532.501	7.35
532.7	7.42
532.9	7.43
533.1	7.48
533.299	7.53
533.499	7.59
533.698	7.48
533.898	7.49
534.097	7.49
534.297	7.56
534.496	7.58
534.696	7.64
534.895	7.74
535.095	7.76
535.294	7.75
535.494	7.68
535.693	7.68
535.892	7.69
536.092	7.67
536.291	7.72
536.491	7.84
536.69	7.94
536.889	7.79
537.088	7.79
537.288	7.86
537.487	7.87
537.686	7.81
537.886	7.99
538.085	8.01
538.284	8
538.483	8.01
538.682	8.14
538.882	8.13
539.081	8.24
539.28	8.21
539.479	8.18
539.678	8.15
539.877	8.24
540.076	8.2
540.275	8.3
540.474	8.39
540.673	8.43
540.872	8.39
541.071	8.45
541.27	8.42
541.469	8.49
541.668	8.54
541.867	8.59
542.066	8.61
542.265	8.7
542.464	8.66
542.663	8.73
542.862	8.83
543.06	8.89
543.259	8.89
543.458	8.99
543.657	8.97
543.856	8.97
544.054	8.99
544.253	8.95
544.452	8.88
544.651	8.89
544.849	8.87
545.048	8.93
545.247	9
545.445	9.11
545.644	9.19
545.843	9.19
546.041	9.18
546.24	9.29
546.438	9.35
546.637	9.4
546.836	9.54
547.034	9.64
547.233	9.72
547.431	9.74
547.63	9.82
547.828	9.82
548.027	9.9
548.225	9.9
548.423	9.97
548.622	10.02
548.82	10
549.019	10.03
549.217	10.08
549.415	10.15
549.614	10.23
549.812	10.33
550.01	10.33
550.209	10.46
550.407	10.47
550.605	10.56
550.803	10.68
551.002	10.77
551.2	10.76
551.398	10.92
551.596	10.96
551.794	11.02
551.993	11.16
552.191	11.25
552.389	11.29
552.587	11.41
552.785	11.44
552.983	11.51
553.181	11.65
553.379	11.7
553.577	11.63
553.775	11.72
553.973	11.79
554.171	11.88
554.369	11.91
554.567	11.97
554.765	12.07
554.963	12.15
555.161	12.14
555.359	12.31
555.557	12.49
555.755	12.6
555.952	12.7
556.15	12.76
556.348	12.81
556.546	12.88
556.744	12.92
556.941	13.01
557.139	13.14
557.337	13.25
557.535	13.33
557.732	13.44
557.93	13.61
558.128	13.8
558.325	13.87
558.523	13.96
558.721	14.1
558.918	14.07
559.116	14.03
559.313	14.09
559.511	14.22
559.708	14.29
559.906	14.43
560.104	14.55
560.301	14.8
560.498	14.9
560.696	14.98
560.893	15.13
561.091	15.27
561.288	15.25
561.486	15.34
561.683	15.4
561.88	15.47
562.078	15.55
562.275	15.61
562.473	15.77
562.67	16
562.867	16.14
563.064	16.32
563.262	16.46
563.459	16.58
563.656	16.66
563.853	16.78
564.051	16.78
564.248	16.98
564.445	17.09
564.642	17.18
564.839	17.26
565.036	17.48
565.234	17.6
565.431	17.66
565.628	17.73
565.825	17.84
566.022	17.91
566.219	17.98
566.416	18.04
566.613	18.15
566.81	18.25
567.007	18.28
567.204	18.31
567.401	18.35
567.598	18.48
567.795	18.44
567.991	18.54
568.188	18.69
568.385	18.85
568.582	18.94
568.779	19.13
568.976	19.28
569.172	19.45
569.369	19.51
569.566	19.54
569.763	19.58
569.96	19.57
570.156	19.44
570.353	19.5
570.55	19.57
570.746	19.74
570.943	19.74
571.14	19.81
571.336	19.88
571.533	19.91
571.729	19.9
571.926	20
572.123	20.11
572.319	20.15
572.516	20.2
572.712	20.23
572.909	20.37
573.105	20.49
573.302	20.52
573.498	20.56
573.695	20.56
573.891	20.58
574.087	20.62
574.284	20.6
574.48	20.63
574.677	20.69
574.873	20.67
575.069	20.68
575.266	20.78
575.462	20.72
575.658	20.76
575.854	20.92
576.051	20.97
576.247	21.02
576.443	21.07
576.639	21.13
576.835	20.95
577.032	20.87
577.228	20.91
577.424	21.01
577.62	20.93
577.816	21.01
578.012	21.05
578.208	21.02
578.404	21.02
578.6	21.09
578.796	21.08
578.993	21.03
579.189	21.03
579.384	20.98
579.58	20.89
579.776	20.94
579.972	20.93
580.168	20.88
580.364	20.89
580.56	20.92
580.756	20.88
580.952	20.8
581.148	20.78
581.343	20.79
581.539	20.68
581.735	20.65
581.931	20.74
582.127	20.68
582.322	20.55
582.518	20.66
582.714	20.58
582.909	20.39
583.105	20.47
583.301	20.47
583.496	20.45
583.692	20.4
583.888	20.5
584.083	20.49
584.279	20.62
584.474	20.56
584.67	20.67
584.866	20.63
585.061	20.61
585.257	20.64
585.452	20.57
585.648	20.45
585.843	20.45
586.039	20.31
586.234	20.18
586.429	20.19
586.625	20.33
586.82	20.23
587.015	20.29
587.211	20.25
587.406	20.26
587.601	20.12
587.797	20.09
587.992	20
588.187	20.05
588.383	20.03
588.578	20.11
588.773	20.17
588.968	20.32
589.163	20.24
589.359	20.21
589.554	20.13
589.749	20.31
589.944	20.2
590.139	20.22
590.334	20.22
590.529	20.31
590.724	20.21
590.919	20.28
591.114	20.35
591.309	20.48
591.504	20.48
591.699	20.45
591.894	20.43
592.089	20.37
592.284	20.41
592.479	20.38
592.674	20.39
592.869	20.48
593.064	20.61
593.259	20.59
593.454	20.72
593.648	20.78
593.843	20.78
594.038	20.81
594.233	20.78
594.428	20.8
594.622	20.91
594.817	20.99
595.012	21
595.206	21.09
595.401	21.18
595.596	21.15
595.79	21.26
595.985	21.42
596.18	21.47
596.374	21.53
596.569	21.61
596.763	21.49
596.958	21.41
597.153	21.57
597.347	21.56
597.542	21.76
597.736	21.89
597.931	21.95
598.125	21.98
598.319	22.12
598.514	22.12
598.708	22.18
598.903	22.25
599.097	22.29
599.291	22.23
599.486	22.12
599.68	22.08
599.874	22.14
600.069	22.12
600.263	22.16
600.457	22.25
600.651	22.44
600.846	22.37
601.04	22.4
601.234	22.36
601.428	22.48
601.622	22.45
601.817	22.63
602.011	22.63
602.205	22.76
602.399	22.72
602.593	22.65
602.787	22.63
602.981	22.72
603.175	22.65
603.369	22.58
603.563	22.71
603.757	22.67
603.951	22.67
604.145	22.73
604.339	22.81
604.533	22.61
604.727	22.58
604.921	22.51
605.115	22.45
605.309	22.42
605.502	22.5
605.696	22.42
605.89	22.31
606.084	22.26
606.278	22.18
606.471	22.13
606.665	22.06
606.859	22.02
607.053	21.94
607.246	21.91
607.44	21.84
607.634	21.88
607.827	21.87
608.021	21.78
608.214	21.7
608.408	21.62
608.602	21.54
608.795	21.45
608.989	21.42
609.182	21.37
609.376	21.27
609.569	21.21
609.763	21.11
609.956	21.02
610.15	20.9
610.343	20.88
610.537	20.76
610.73	20.76
610.923	20.61
611.117	20.54
611.31	20.42
611.504	20.37
611.697	20.21
611.89	20.21
612.083	20.11
612.277	20.01
612.47	19.93
612.663	19.78
612.856	19.74
613.05	19.74
613.243	19.68
613.436	19.54
613.629	19.49
613.822	19.4
614.015	19.34
614.209	19.17
614.402	19.17
614.595	19.2
614.788	19.09
614.981	18.99
615.174	18.91
615.367	18.81
615.56	18.69
615.753	18.68
615.946	18.62
616.139	18.65
616.332	18.74
616.525	18.71
616.718	18.64
616.911	18.58
617.103	18.66
617.296	18.55
617.489	18.43
617.682	18.36
617.875	18.37
618.067	18.31
618.26	18.11
618.453	18.04
618.646	18.01
618.838	17.89
619.031	17.81
619.224	17.87
619.417	17.84
619.609	17.82
619.802	17.77
619.994	17.72
620.187	17.68
620.38	17.7
620.572	17.61
620.765	17.66
620.957	17.57
621.15	17.35
621.342	17.32
621.535	17.44
621.727	17.36
621.92	17.31
622.112	17.43
622.305	17.42
622.497	17.16
622.69	17.12
622.882	17.13
623.074	17.1
623.267	17.05
623.459	17.1
623.651	16.98
623.844	16.93
624.036	16.87
624.228	16.8
624.42	16.82
624.613	16.92
624.805	16.89
624.997	16.84
625.189	16.89
625.381	16.88
625.574	16.87
625.766	16.81
625.958	16.83
626.15	16.74
626.342	16.7
626.534	16.58
626.726	16.58
626.918	16.6
627.11	16.53
627.302	16.38
627.494	16.37
627.686	16.29
627.878	16.18
628.07	16.16
628.262	16.21
628.454	16.17
628.646	16.19
628.838	16.13
629.029	16.05
629.221	16
629.413	15.9
629.605	15.79
629.797	15.68
629.989	15.71
630.18	15.68
630.372	15.67
630.564	15.71
630.755	15.79
630.947	15.78
631.139	15.63
631.33	15.56
631.522	15.54
631.714	15.46
631.905	15.32
632.097	15.31
632.289	15.34
632.48	15.26
632.672	15.14
632.863	15.06
633.055	15.08
633.246	14.98
633.438	14.94
633.629	14.96
633.821	14.96
634.012	14.91
634.203	14.83
634.395	14.79
634.586	14.87
634.777	14.83
634.969	14.74
635.16	14.81
635.351	14.81
635.543	14.68
635.734	14.69
635.925	14.7
636.117	14.73
636.308	14.63
636.499	14.6
636.69	14.49
636.881	14.41
637.073	14.29
637.264	14.31
637.455	14.25
637.646	14.35
637.837	14.39
638.028	14.29
638.219	14.26
638.41	14.15
638.601	14.07
638.792	14.05
638.983	13.95
639.174	13.87
639.365	13.91
639.556	13.88
639.747	13.83
639.938	13.96
640.129	13.96
640.32	13.86
640.511	13.82
640.701	13.88
640.892	13.8
641.083	13.79
641.274	13.78
641.465	13.78
641.655	13.6
641.846	13.51
642.037	13.47
642.228	13.5
642.418	13.42
642.609	13.35
642.8	13.31
642.99	13.22
643.181	13.2
643.372	13.21
643.562	13.25
643.753	13.19
643.943	13.16
644.134	13.11
644.324	13.07
644.515	13.01
644.705	13.08
644.896	13.1
645.086	13.04
645.277	12.97
645.467	12.98
645.658	12.86
645.848	12.76
646.038	12.7
646.229	12.69
646.419	12.49
646.61	12.5
646.8	12.47
646.99	12.43
647.18	12.35
647.371	12.48
647.561	12.34
647.751	12.25
647.941	12.24
648.132	12.28
648.322	12.28
648.512	12.35
648.702	12.39
648.892	12.37
649.082	12.35
649.272	12.19
649.462	12.11
649.653	12.02
649.843	11.99
650.033	11.88
650.223	11.89
650.413	11.91
650.603	11.96
650.793	11.88
650.983	11.83
651.172	11.72
651.362	11.7
651.552	11.58
651.742	11.48
651.932	11.5
652.122	11.54
652.312	11.55
652.502	11.56
652.691	11.59
652.881	11.46
653.071	11.44
653.261	11.24
653.45	11.15
653.64	11.17
653.83	11.18
654.019	11.13
654.209	11.28
654.399	11.35
654.588	11.24
654.778	11.14
654.968	11.05
655.157	10.95
655.347	10.77
655.536	10.59
655.726	10.53
655.915	10.38
656.105	10.25
656.294	10.13
656.484	10
656.673	9.88
656.863	9.84
657.052	9.71
657.241	9.63
657.431	9.56
657.62	9.4
657.809	9.17
657.999	8.99
658.188	8.79
658.377	8.76
658.567	8.66
658.756	8.69
658.945	8.56
659.134	8.49
659.324	8.37
659.513	8.38
659.702	8.07
659.891	8.1
660.08	8.05
660.269	8.01
660.458	7.95
660.648	8.06
660.837	7.92
661.026	7.83
661.215	7.73
661.404	7.43
661.593	7.41
661.782	7.21
661.971	7.17
662.16	7.05
662.349	7.12
662.538	6.95
662.726	7.07
662.915	6.98
663.104	6.85
663.293	6.78
663.482	6.74
663.671	6.62
663.86	6.46
664.048	6.44
664.237	6.44
664.426	6.34
664.615	6.25
664.803	6.35
664.992	6.35
665.181	6.2
665.369	6.06
665.558	6.08
665.747	5.96
665.935	6.02
666.124	6.1
666.312	6.33
666.501	6.29
666.69	6.25
666.878	6.16
667.067	6.05
667.255	6
667.444	6.14
667.632	6.23
667.82	6.3
668.009	6.34
668.197	6.28
668.386	6.17
668.574	6.25
668.762	6.21
668.951	6.24
669.139	6.24
669.327	6.23
669.516	6.27
669.704	6.31
669.892	6.43
670.08	6.57
670.269	6.51
670.457	6.46
670.645	6.43
670.833	6.44
671.021	6.45
671.21	6.58
671.398	6.71
671.586	6.78
671.774	6.75
671.962	6.7
672.15	6.67
672.338	6.58
672.526	6.66
672.714	6.57
672.902	6.59
673.09	6.76
673.278	6.99
673.466	7
673.654	7.35
673.842	7.45
674.03	7.54
674.218	7.45
674.405	7.48
674.593	7.39
674.781	7.64
674.969	7.55
675.157	7.74
675.344	7.82
675.532	7.86
675.72	7.81
675.908	8.03
676.095	7.91
676.283	8
676.471	8.21
676.658	8.25
676.846	8.25
677.033	8.39
677.221	8.26
677.409	8.19
677.596	8.2
677.784	8.26
677.971	8.42
678.159	8.7
678.346	8.77
678.534	8.87
678.721	9.14
678.909	9.07
679.096	9.15
679.283	9.3
679.471	9.49
679.658	9.37
679.846	9.58
680.033	9.74
680.22	9.73
680.408	9.71
680.595	9.88
680.782	9.87
680.969	9.87
681.157	9.95
681.344	10.05
681.531	9.98
681.718	10
681.905	10.26
682.093	10.4
682.28	10.67
682.467	10.85
682.654	11.04
682.841	10.98
683.028	11.2
683.215	11.31
683.402	11.3
683.589	11.51
683.776	11.63
683.963	11.7
684.15	11.87
684.337	12.04
684.524	12.14
684.711	12.25
684.898	12.26
685.085	12.33
685.271	12.84
685.458	13.07
685.645	13.27
685.832	13.66
686.019	13.89
686.205	13.96
686.392	14.17
686.579	14.48
686.766	14.74
686.952	15.02
687.139	15.35
687.326	15.59
687.512	15.9
687.699	16.09
687.886	16.3
688.072	16.53
688.259	17.03
688.445	17.47
688.632	17.85
688.818	18.48
689.005	18.91
689.191	19.29
689.378	19.84
689.564	20.54
689.751	20.79
689.937	21.5
690.124	21.91
690.31	22.2
690.496	22.69
690.683	23.55
690.869	24.06
691.055	24.8
691.242	25.63
691.428	26.12
691.614	26.59
691.8	27.11
691.987	27.75
692.173	28.2
692.359	28.85
692.545	29.58
692.731	30
692.918	30.76
693.104	31.35
693.29	32.19
693.476	32.74
693.662	33.79
693.848	34.28
694.034	35.04
694.22	35.39
694.406	36.14
694.592	36.75
694.778	37.12
694.964	37.7
695.15	38.48
695.336	39.08
695.522	39.91
695.708	41
695.894	41.75
696.08	42.71
696.265	43.31
696.451	43.77
696.637	44.57
696.823	45.38
697.009	46.02
697.194	46.97
697.38	47.59
697.566	47.88
697.751	48.52
697.937	48.97
698.123	49.55
698.308	50.6
698.494	51.35
698.68	52.02
698.865	52.56
699.051	53.19
699.236	53.52
699.422	54.37
699.607	54.76
699.793	55.8
699.978	56.15
700.164	56.5
700.349	57.32
700.535	58.32
700.72	58.48
700.906	59.52
701.091	60.67
701.276	60.98
701.462	61.69
701.647	62.69
701.832	63.1
702.018	63.51
702.203	64.19
702.388	64.44
702.573	64.75
702.759	65.15
702.944	65.27
703.129	65.59
703.314	66.02
703.499	66.78
703.684	67.71
703.87	68.58
704.055	69.33
704.24	70.03
704.425	70.26
704.61	70.3
704.795	70.64
704.98	70.54
705.165	70.8
705.35	71.11
705.535	71.32
705.72	71.88
705.905	72.27
706.09	72.95
706.275	73.07
706.459	73.62
706.644	73.75
706.829	74.6
707.014	74.6
707.199	75.18
707.384	75.86
707.568	76.2
707.753	76.8
707.938	77.35
708.123	77.79
708.307	77.77
708.492	78.02
708.677	77.43
708.861	77.35
709.046	77.35
709.231	77.82
709.415	78.25
709.6	79.15
709.784	79.19
709.969	79.99
710.153	80.02
710.338	80.3
710.522	80.06
710.707	80.57
710.891	80.09
711.076	80.56
711.26	80.25
711.445	80.53
711.629	80.72
711.813	81.23
711.998	81.53
712.182	81.94
712.366	82.65
712.551	83.28
712.735	83.18
712.919	83.23
713.103	83.6
713.288	83.5
713.472	83.45
713.656	84.24
713.84	84.61
714.024	84.92
714.208	85.05
714.393	85.37
714.577	85.42
714.761	85
714.945	85.15
715.129	85.05
715.313	84.9
715.497	84.83
715.681	85.1
715.865	85.33
716.049	85.86
716.233	86.22
716.417	86.54
716.601	87.16
716.785	87.09
716.968	87.11
717.152	87.02
717.336	87.25
717.52	86.83
717.704	87.39
717.888	88.01
718.071	87.9
718.255	87.87
718.439	87.99
718.622	87.76
718.806	87.38
718.99	87.73
719.174	88.03
719.357	88.74
719.541	88.88
719.724	89.37
719.908	89.88
720.092	90.36
720.275	90.3
720.459	90.91
720.642	90.43
720.826	90.4
721.009	89.71
721.193	88.94
721.376	88.23
721.559	89.03
721.743	89.49
721.926	90.33
722.11	90.53
722.293	90.83
722.476	89.91
722.66	89.53
722.843	89.04
723.026	89.32
723.21	89.57
723.393	90.75
723.576	90.9
723.759	90.75
723.942	91.56
724.126	91.68
724.309	91.16
724.492	91.14
724.675	92.33
724.858	92.37
725.041	92.45
725.224	92.71
725.407	92.46
725.59	92.11
725.774	91.79
725.957	91.4
726.14	91.71
726.322	92.23
726.505	91.96
726.688	92.33
726.871	92.48
727.054	92.71
727.237	93.05
727.42	93.38
727.603	93.59
727.786	93.7
727.968	93.62
728.151	93.37
728.334	93.16
728.517	93.37
728.699	93.85
728.882	93.81
729.065	94.47
729.248	95.24
729.43	95.22
729.613	96.06
729.796	96.46
729.978	95.57
730.161	95.02
730.343	95.6
730.526	95.23
730.708	95.72
730.891	96.64
731.073	96.95
731.256	96.49
731.438	97.05
731.621	96.51
731.803	96.89
731.986	97.28
732.168	97.94
732.35	98.36
732.533	98.66
732.715	98.29
732.898	98.32
733.08	97.81
733.262	97.25
733.444	97.14
733.627	97.01
733.809	97.51
733.991	97.96
734.173	97.97
734.355	98.58
734.538	98.96
734.72	97.68
734.902	97.68
735.084	97.57
735.266	97.57
735.448	97.85
735.63	98.1
735.812	98.46
735.994	98.91
736.176	98.72
736.358	98.75
736.54	99.97
736.722	99.82
736.904	99.6
737.086	99.22
737.268	100.37
737.45	100.18
737.632	100.29
737.814	100.31
737.995	101.51
738.177	101.22
738.359	100.78
738.541	100.88
738.723	101.16
738.904	100.8
739.086	100.28
739.268	101.12
739.449	100.95
739.631	100.62
739.813	101.05
739.994	101.27
740.176	100.62
740.358	100.45
740.539	101.77
740.721	101.71
740.902	102.19
741.084	103.32
741.265	103.17
741.447	103.03
741.628	103.07
741.81	102.15
741.991	102.52
742.172	103.69
742.354	103.5
742.535	102.57
742.717	104.46
742.898	102.76
743.079	103.43
743.261	103.95
743.442	104.19
743.623	102.51
743.804	104.34
743.986	103.94
744.167	101.37
744.348	102.72
744.529	104.1
744.71	102.6
744.891	102.1
745.073	103.48
745.254	103.05
745.435	102.17
745.616	101.96
745.797	101.48
745.978	102.17
746.159	101.48
746.34	100.93
746.521	101.53
746.702	102.18
746.883	101.54
747.064	100.46
747.245	100.04
747.426	100.45
747.606	99.4
747.787	100.25
747.968	100.94
748.149	101.59
748.33	101.85
748.51	100.5
748.691	98.44
748.872	99.98
749.053	99.57
749.233	98.82
749.414	100.16
749.595	101.19
749.775	100.13
749.956	99.23
750.137	98.8
750.317	99.05
750.498	99.96
750.678	99.01
750.859	100.06
751.04	101.36
751.22	100.89
751.4	99.31
751.581	99.68
751.761	100.22
751.942	98.89
752.122	99.73
752.303	99.18
752.483	99.62
752.663	99.49
752.844	99.98
753.024	100.51
753.204	101.41
753.385	101.28
753.565	99.42
753.745	99.21
753.925	98.94
754.106	100.19
754.286	100.78
754.466	101.83
754.646	102.5
754.826	101.87
755.006	99.91
755.187	100.93
755.367	102.02
755.547	101.64
755.727	102.57
755.907	103.41
756.087	103.54
756.267	101.6
756.447	101.87
756.627	101.91
756.807	102.36
756.987	100.45
757.167	101.47
757.346	99.81
757.526	97.83
757.706	97.41
757.886	97.13
758.066	97.28
758.246	99.2
758.425	100.45
758.605	99.71
758.785	100.57
758.965	100.6
759.144	98.24
759.324	97.39
759.504	99.26
759.683	98.38
759.863	97.52
760.043	99.64
760.222	100.02
760.402	97.71
760.581	99.36
760.761	99.62
760.94	96.61
761.12	95.87
761.299	98.31
761.479	96.56
761.658	96.25
761.838	98.42
762.017	100.08
762.197	98.18
762.376	98.62
762.555	98.85
762.735	99.58
762.914	96.32
763.093	97.49
763.273	95.92
763.452	97.96
763.631	95.97
763.81	95.86
763.99	93.58
764.169	95.2
764.348	91.62
764.527	92.71
764.706	95.63
764.885	97.72
765.064	96.73
765.243	98.25
765.423	97.66
765.602	98.07
765.781	96.72
765.96	95.28
766.139	95.82
766.318	97.04
766.497	97.47
766.676	98.41
766.854	101.42
767.033	102.9
767.212	101.85
767.391	99.78
767.57	100.31
767.749	101.17
767.928	100.16
768.106	98.61
768.285	97.41
768.464	98.18
768.643	95.88
768.821	95.67
769	96.86
769.179	98.24
769.357	94.01
769.536	92.29
769.715	93.19
769.893	93.47
770.072	92.81
770.25	92.56
770.429	93.86
770.607	93.06
770.786	93.7
770.964	93.32
771.143	97.63
771.321	99.31
771.5	98.44
771.678	96.82
771.857	95.63
772.035	95.72
772.213	94.81
772.392	92.51
772.57	93.62
772.748	96.24
772.927	90.72
773.105	89.59
773.283	94.33
773.461	95.29
773.64	93.55
773.818	94.54
773.996	95.86
774.174	94.47
774.352	91.1
774.531	91.93
774.709	95.18
774.887	94.61
775.065	90.8
775.243	91.36
775.421	92.91
775.599	94.26
775.777	90.91
775.955	91.16
776.133	91.26
776.311	89.55
776.489	84.34
776.667	87.52
776.844	89.4
777.022	87.73
777.2	87.09
777.378	87.52
777.556	87.02
777.734	86.54
777.911	88.64
778.089	87.94
778.267	91.91
778.445	90.29
778.622	90.49
778.8	91.27
778.978	95.66
779.155	93.25
779.333	94.71
779.511	89.69
779.688	89.51
779.866	82.07
780.043	80.84
780.221	79.64
780.398	81.23
780.576	81.04
780.753	87.14
780.931	85.58
781.108	85.32
781.286	89.36
781.463	85.51
781.64	82.63
781.818	89.19
781.995	88.82
782.172	87.57
782.35	92.19
782.527	90.62
782.704	85.28
782.882	88.71
783.059	89.05
783.236	87.98
783.413	89.73
783.59	89.96
783.768	84.02
783.945	83.09
784.122	84.47
784.299	85.88
784.476	85.8
784.653	90.68
784.83	91.02
785.007	84.55
785.184	84.12
785.361	86
785.538	86.62
785.715	84.7
785.892	90.73
786.069	91.03
786.246	89.71
786.423	84.96
786.6	86.04
786.776	84.27
786.953	85.33
787.13	85.24
787.307	88.03
787.484	88.99
787.66	88.9
787.837	84.51
788.014	86.45
788.191	86.09
788.367	83.79
788.544	86.21
788.721	88.45
788.897	86.59
789.074	89.39
789.25	89.41
789.427	89.46
789.603	86.54
789.78	90.53
789.956	78.81
790.133	80.14
790.309	78.46
790.486	84.24
790.662	82.05
790.839	89.55
791.015	92.37
791.192	87.58
791.368	84.19
791.544	78.48
791.721	81.39
791.897	79.73
792.073	81.57
792.249	80.75
792.426	87.86
792.602	87.46
792.778	82.2
792.954	81.79
793.13	79.24
793.307	74.7
793.483	67.97
793.659	71.21
793.835	72.96
794.011	78.87
794.187	73.66
794.363	71.81
794.539	73.77
794.715	70.65
794.891	68.18
795.067	70.75
795.243	81.89
795.419	80
795.595	79.11
795.771	80.87
795.947	86.85
796.122	78.91
796.298	83.07
796.474	88.62
796.65	84.61
796.826	83.38
797.001	88.55
797.177	81.18
797.353	83.81
797.529	88.75
797.704	82.75
797.88	81.05
798.056	79.48
798.231	75.31
798.407	77.35
798.582	81.66
798.758	82.98
798.934	90.96
799.109	87.31
799.285	79.34
799.46	86.57
799.636	84.4
799.811	81.86
799.986	89.71
800.162	98.89
800.337	92.88
800.513	91.22
800.688	89.54
800.863	91.82
801.039	82.19
801.214	76.23
801.389	80.48
801.565	84.69
801.74	77.86
801.915	82.55
802.09	92.38
802.265	97.42
802.441	95.73
802.616	95.04
802.791	92.57
802.966	85.98
803.141	79.97
803.316	70.33
803.491	72.38
803.666	68.53
803.841	66.84
804.016	62.53
804.191	73.93
804.366	72.84
804.541	78.23
804.716	72.77
804.891	69.54
805.066	66.17
805.241	68.13
805.416	69.84
805.591	71.84
805.765	79.77
805.94	80.44
806.115	77.33
806.29	70.54
806.464	80.66
806.639	80.26
806.814	69.51
806.989	57.98
807.163	63.73
807.338	57.87
807.512	56.37
807.687	55.1
807.862	70.67
808.036	75.38
808.211	73.05
808.385	76.07
808.56	85.25
808.734	77.69
808.909	77.76
809.083	75.78
809.258	78.74
809.432	84.59
809.606	68.36
809.781	65.06
809.955	72.67
810.13	71.2
810.304	59.46
810.478	70.24
810.652	77.47
810.827	77.93
811.001	79.46
811.175	76.23
811.349	82.13
811.524	69.45
811.698	57.13
811.872	48.5
812.046	61.47
812.22	60.76
812.394	64.35
812.568	71.08
812.742	76.25
812.916	68.55
813.09	72.13
813.264	76.86
813.438	78.52
813.612	71.96
813.786	55.9
813.96	62.35
814.134	66.26
814.308	71.39
814.482	72.86
814.656	93.18
814.83	97.11
815.003	92.75
815.177	82.77
815.351	81.88
815.525	84.02
815.698	72.03
815.872	59.51
816.046	57.94
816.219	64.01
816.393	64.69
816.567	73.54
816.74	81.79
816.914	98.11
817.088	96.64
817.261	86.85
817.435	72.62
817.608	71.15
817.782	58.54
817.955	54.47
818.129	44.41
818.302	57.55
818.475	62.98
818.649	67.48
818.822	62.65
818.996	77.42
819.169	75.86
819.342	70.5
819.516	71.71
819.689	84.89
819.862	87.97
820.035	74.4
820.209	59.42
820.382	58.96
820.555	59.16
820.728	44.75
820.901	47.58
821.075	61.92
821.248	75.04
821.421	68.66
821.594	66.17
821.767	90.97
821.94	114.98
822.113	76.44
822.286	71.1
822.459	86.22
822.632	72.17
822.805	61.52
822.978	76.86
823.151	74.87
823.324	56.97
823.496	37.18
823.669	33.83
823.842	37.29
824.015	32.91
824.188	24.06
824.361	31.26
824.533	28.87
824.706	40.83
824.879	44.4
825.051	80.4
825.224	79.88
825.397	79.41
825.569	66.93
825.742	80.26
825.915	80.74
826.087	73.09
826.26	61.97
826.432	57.12
826.605	63.99
826.777	64.27
826.95	71.16
827.122	72.51
827.295	80.12
827.467	69.31
827.64	40.43
827.812	27.41
827.984	35.5
828.157	31.17
828.329	15.61
828.501	29.27
828.674	49.82
828.846	44.85
829.018	45.64
829.19	52.25
829.363	62.55
829.535	55.69
829.707	58.57
829.879	48.58
830.051	54.62
830.223	54.82
830.395	35.5
830.568	24.56
830.74	29.9
830.912	36.73
831.084	19.52
831.256	18.78
831.428	11.27
831.6	7.6
831.772	-8.01
831.943	-1.33
832.115	20.98
832.287	55.3
832.459	62.26
832.631	71.12
832.803	81.93
832.975	84.11
833.146	70.27
833.318	61.59
833.49	64.56
833.662	51.32
833.833	29.81
834.005	21.23
834.177	35.48
834.348	27.87
834.52	23.39
834.692	41.15
834.863	52.56
835.035	45.22
835.206	41.17
835.378	57.48
835.549	52.05
835.721	55.97
835.892	44.71
836.064	53.44
836.235	66.65
836.407	96.88
836.578	70.04
836.749	83.9
836.921	80.56
837.092	52.25
837.264	-1.62
837.435	-3.64
837.606	0.56
837.777	25.09
837.949	41.28
838.12	32.37
838.291	51.65
838.462	51.43
838.633	39.21
838.805	24.22
838.976	41.67
839.147	28.36
839.318	0.62
839.489	-18.79
839.66	-7.92
839.831	6.45
840.002	17.95
840.173	7.14
840.344	10.05
840.515	27.74
840.686	0.64
840.857	-2.01
841.028	14.77
841.199	24.82
841.369	4.97
841.54	0.02
841.711	23.34
841.882	30.88
842.053	14.73
842.223	1.95
842.394	33.63
842.565	19.85
842.736	32.58
842.906	37.68
843.077	50.17
843.248	54.09
843.418	55.19
843.589	46.24
843.759	78.24
843.93	80.79
844.101	61.07
844.271	62.28
844.442	85.31
844.612	76.27
844.783	56.08
844.953	34.96
845.123	66.1
845.294	40.49
845.464	30.75
845.635	41.41
845.805	82.66
845.975	70.4
846.146	47.18
846.316	34.1
846.486	47.89
846.656	34.46
846.827	-1.87
846.997	19.34
847.167	40.95
847.337	11.22
847.507	18.29
847.677	33.25
847.848	60.05
848.018	70.99
848.188	90.34
848.358	61.14
848.528	67.12
848.698	58.85
848.868	15.4
849.038	8.79
849.208	50.09
849.378	67.47
849.548	41.03
849.718	107.33
849.887	146.55
850.057	74.37
850.227	41.54
850.397	30.38
850.567	15.54
850.737	22.92
850.906	-11.09
851.076	-35.44
851.246	-45.01
851.415	-16.55
851.585	-26.14
851.755	4.26
851.924	37.85
852.094	61.75
852.264	38.69
852.433	19.1
852.603	39.9
852.772	46.94
852.942	19.34
853.111	11.72
853.281	56.48
853.45	54.02
853.62	23.96
853.789	-3.22
853.959	33.76
854.128	21.27
854.297	-19.73
854.467	-19.62
854.636	19.59
854.805	22.57
854.975	4.59
855.144	5.48
855.313	38.42
855.482	33.33
855.652	-5.24
855.821	3.94
855.99	37.94
856.159	45.02
856.328	29.89
856.497	56.68
856.667	69.64
856.836	69.25
857.005	9.82
857.174	-32.19
857.343	-50.36
857.512	-17.09
857.681	-78.62
857.85	-46.53
858.019	-16.49
858.188	-5.56
858.356	-33.37
858.525	-29.69
858.694	-17.04
858.863	-14.26
859.032	-40.15
859.201	-36.88
859.369	-5.86
859.538	16.64
859.707	-6.31
859.876	7.32
860.044	6.69
860.213	18.23
860.382	-7.32
860.55	3.19
860.719	30.44
860.888	59.93
861.056	24.43
861.225	25.48
861.393	111.31
861.562	93.23
861.73	30.33
861.899	40.15
862.067	12.27
862.236	13.16
862.404	-33.36
862.572	-38.6
862.741	-7.96
862.909	-3.69
863.078	-22.06
863.246	-27.36
863.414	8.13
863.582	-10.95
863.751	0.53
863.919	-9.18
864.087	36.1
864.255	20.52
864.424	-9.62
864.592	2.3
864.76	45.95
864.928	61.94
865.096	44.37
865.264	57.16
865.432	57.86
865.6	63.95
865.768	-31.66
865.936	-96.92
866.104	-67.82
866.272	-68.81
866.44	-109.49
866.608	-97.87
866.776	-116.71
866.944	-192.41
867.112	-292.19
867.28	-397.54
867.448	-680.48
867.615	-123.34
867.783	15.11
867.951	-4.99
868.119	100.29
868.286	87.22
868.454	40.31
868.622	28.52
868.789	68.66
868.957	50.83
869.125	14.64
869.292	12.06
869.46	23.49
869.627	39.06
869.795	-22.82
869.963	1.28
870.13	24.85
870.298	48.33
870.465	-0.71
870.632	-7.71
870.8	1.94
870.967	-3.65
871.135	-94.38
871.302	-28.66
871.469	100.36
871.637	47.05
871.804	43.36
871.971	38.76
872.139	50.34
872.306	53.27
872.473	57.52
872.64	42.92
872.807	82.1
872.975	74.97
873.142	3.84
873.309	0.87
873.476	49.36
873.643	46.22
873.81	41.79
873.977	58.42
874.144	61.65
874.311	74.84
874.478	25.01
874.645	-22.85
874.812	-117.32
874.979	9023.81
875.146	-246.63
875.313	-69.15
875.48	33.33
875.647	26.32
875.813	-19.47
875.98	-37.34
876.147	-71.33
876.314	-82.26
876.481	-140.45
876.647	-125.94
876.814	-66.49
876.981	-25.82
877.147	-60.08
877.314	-31.54
877.481	20.4
877.647	66.82
877.814	19.57
877.98	-42.02
878.147	64.04
878.314	94.22
878.48	33.93
878.647	30.47
878.813	84.25
878.979	71.44
879.146	62.07
879.312	78.23
879.479	86.54
879.645	103.28
879.811	46.94
879.978	45.42
880.144	34.06
880.31	21.02
880.477	-70.02
880.643	-74.07
880.809	-77.91
880.975	-10.08
881.142	-25.21
881.308	1.03
881.474	35.42
881.64	49.23
881.806	4.6
881.972	20.2
882.138	14.36
882.304	35.52
882.47	-31.22
882.636	-84.11
882.802	-91.96
882.968	17
883.134	-65.4
883.3	-70.69
883.466	68.65
883.632	69.73
883.798	-42.79
883.964	-59.49
884.129	-45.73
884.295	-87.7
884.461	-88.09
884.627	-101.88
884.793	-59
884.958	-13.22
885.124	-54.66
885.29	-43.28
885.455	-4.88
885.621	52.54
885.787	-21.89
885.952	39.16
886.118	13.72
886.283	40.54
886.449	-21.14
886.614	-22.98
886.78	-13.02
886.945	87.99
887.111	-102.89
887.276	-120.65
887.442	-183.66
887.607	-89.39
887.773	-175.17
887.938	-125.06
888.103	-27.37
888.269	13.35
888.434	16.86
888.599	11.15
888.764	70.66
888.93	58.82
889.095	33.15
889.26	12.48
889.425	49.87
889.59	58.31
889.756	47.77
889.921	41.43
890.086	33.03
890.251	35.67
890.416	-32.37
890.581	-35.32
890.746	-24.56
890.911	17.68
891.076	-32.15
891.241	-42.84
891.406	-3.8
891.571	35.77
891.736	-1.44
891.901	-2.45
892.065	43.42
892.23	30.2
892.395	-30.56
892.56	-44.57
892.725	44.29
892.889	41.23
893.054	-33.99
893.219	-29.78
893.384	-21.04
893.548	-73.43
893.713	-110.57
893.878	-67.88
