Data from Ofra_PP_Phys_2CX12S_Reflection_2.txt Node
Date: Sat Jul 24 20:04:16 EDT 2021
User: USUARIO
Spectrometer: FLMT01687
Trigger mode: 0
Integration Time (sec): 1.100000E0
Scans to average: 2
Electric dark correction enabled: true
Nonlinearity correction enabled: false
Boxcar width: 2
XAxis mode: Wavelengths
Number of Pixels in Spectrum: 3648
>>>>>Begin Spectral Data<<<<<
179.494	561.87
179.716	665.44
179.937	1191.97
180.158	965.71
180.38	469.74
180.601	-337.13
180.823	-13.02
181.044	229.46
181.265	-33.26
181.486	25.67
181.708	-65.79
181.929	-586.67
182.15	-20.88
182.372	-26.05
182.593	17733.33
182.814	100.51
183.035	131.01
183.257	70.63
183.478	25.17
183.699	34
183.92	-24.58
184.141	10.34
184.363	-21.72
184.584	54.21
184.805	30.21
185.026	56.62
185.247	50.13
185.468	28.97
185.689	19.37
185.91	44.1
186.132	45.73
186.353	50.89
186.574	86.95
186.795	94
187.016	45.06
187.237	51.91
187.458	28.32
187.679	26.84
187.9	64.26
188.121	118.67
188.342	137.69
188.563	128.5
188.784	120.37
189.005	116.99
189.226	91.39
189.447	85.8
189.667	75.03
189.888	47.88
190.109	24.65
190.33	4.32
190.551	-14.79
190.772	-28.75
190.993	-29.8
191.214	-20
191.434	-15.08
191.655	12.96
191.876	22.87
192.097	7.33
192.318	3.38
192.538	-13.46
192.759	-26.36
192.98	-16.98
193.201	-11.38
193.421	-19.05
193.642	11.22
193.863	15.23
194.083	12.78
194.304	24.57
194.525	48.45
194.745	32.86
194.966	13.89
195.187	-3.54
195.407	-28.47
195.628	-86.48
195.848	-45.4
196.069	-62.33
196.29	-22.89
196.51	-72.95
196.731	-73.93
196.951	-83.21
197.172	-68.62
197.392	-83.17
197.613	-37.33
197.833	-30.18
198.054	-37.21
198.274	-28.97
198.495	-71.3
198.715	-37.59
198.936	-58.71
199.156	-12.18
199.377	-26.67
199.597	-2.13
199.817	-17.5
200.038	27.83
200.258	-0.78
200.479	45.96
200.699	41.64
200.919	42.08
201.14	7.72
201.36	8.06
201.58	12.8
201.801	32.3
202.021	44.7
202.241	65.17
202.461	63.93
202.682	33.9
202.902	18.19
203.122	-11.5
203.342	5.28
203.563	22.42
203.783	36.93
204.003	-7.1
204.223	-25.93
204.443	27.27
204.663	28.5
204.884	-13.3
205.104	14.16
205.324	63.3
205.544	45.82
205.764	25.06
205.984	55.65
206.204	65.86
206.424	36.24
206.644	9.94
206.864	36.38
207.084	6.64
207.304	19.85
207.525	3.9
207.745	13.67
207.964	4.21
208.184	7.29
208.404	-7.84
208.624	0.59
208.844	-0.98
209.064	-35.42
209.284	-34.4
209.504	-24.37
209.724	-33.07
209.944	-33.51
210.164	20.76
210.384	49.93
210.604	40.34
210.823	22.58
211.043	-12.07
211.263	-5.85
211.483	-36.77
211.703	-38.55
211.922	-14.78
212.142	49.31
212.362	44.19
212.582	43.78
212.801	45.74
213.021	26.88
213.241	12.17
213.461	6.91
213.68	-12.6
213.9	-21.48
214.12	-11.19
214.339	-17.49
214.559	-19.51
214.779	22.66
214.998	41.73
215.218	18.03
215.438	21.7
215.657	5.96
215.877	5.26
216.096	-7.48
216.316	32.36
216.535	10.65
216.755	27.32
216.974	18.43
217.194	27.78
217.413	18.74
217.633	30.11
217.852	-23.27
218.072	-39.55
218.291	-50.66
218.511	-36.18
218.73	-78.74
218.95	-51.21
219.169	-43.46
219.389	-64.55
219.608	-73.89
219.827	-19.59
220.047	-2.4
220.266	1.93
220.485	10.56
220.705	22.5
220.924	-6.42
221.143	5.85
221.363	-26.94
221.582	0.06
221.801	7.18
222.021	35.73
222.24	20.85
222.459	46.99
222.678	25.96
222.897	3.11
223.117	2.76
223.336	24.65
223.555	32.71
223.774	55.63
223.993	86.49
224.213	110.05
224.432	60.88
224.651	83.26
224.87	66.64
225.089	74.92
225.308	69.37
225.527	97.86
225.746	84.27
225.965	70.27
226.184	51.1
226.404	47.55
226.623	29.42
226.842	29.56
227.061	56.62
227.28	62.64
227.499	60.65
227.718	70.72
227.936	62.32
228.155	42.64
228.374	14.13
228.593	-2.26
228.812	-4.15
229.031	13.58
229.25	6.42
229.469	27.33
229.688	34.96
229.907	25.62
230.125	41.71
230.344	50.03
230.563	37.64
230.782	50.19
231.001	9.69
231.22	-4.45
231.438	-23
231.657	5.04
231.876	0.23
232.095	43.51
232.313	32.95
232.532	33.59
232.751	27.74
232.969	28.01
233.188	23.98
233.407	27.81
233.625	21.27
233.844	19.98
234.063	1.95
234.281	24.94
234.5	38.33
234.719	53.1
234.937	54.91
235.156	60.7
235.374	52.94
235.593	60.65
235.811	52.52
236.03	59.38
236.249	42.02
236.467	48.56
236.686	19.61
236.904	26.55
237.123	-26.52
237.341	-4.69
237.559	-25.63
237.778	-12.39
237.996	-28.29
238.215	8.08
238.433	8.05
238.652	13.74
238.87	-21.17
239.088	-10.8
239.307	3.38
239.525	-4.68
239.743	-22.79
239.962	3.01
240.18	-12.58
240.398	-36.55
240.617	-46.31
240.835	-19.46
241.053	-37.32
241.271	8.21
241.49	28.39
241.708	43.11
241.926	52.36
242.144	49.69
242.363	26.02
242.581	10.79
242.799	22.74
243.017	9.14
243.235	-14.13
243.453	24.37
243.672	20.07
243.89	10.97
244.108	30.77
244.326	66.14
244.544	43.99
244.762	40
244.98	51.13
245.198	57.31
245.416	38.42
245.634	40.72
245.852	43.03
246.07	29.54
246.288	14.4
246.506	7.2
246.724	13.82
246.942	18.56
247.16	17.74
247.378	24.32
247.596	32.79
247.814	29.91
248.032	-2.53
248.25	7.72
248.468	6.11
248.685	22.66
248.903	22.79
249.121	42.1
249.339	14.99
249.557	5.92
249.775	-25.97
249.992	-49.81
250.21	-65.06
250.428	-33.59
250.646	-34.84
250.863	-27.28
251.081	-12.47
251.299	14.81
251.517	6.94
251.734	10.82
251.952	0.88
252.17	9.49
252.387	21.69
252.605	4.1
252.823	11.06
253.04	21.19
253.258	29.11
253.475	15.16
253.693	29.74
253.911	24.45
254.128	33.51
254.346	28.94
254.563	9.54
254.781	3.56
254.998	6.75
255.216	2.2
255.433	-2.34
255.651	19.8
255.868	32.82
256.086	27.04
256.303	21.25
256.521	11.5
256.738	-7.98
256.956	-11.71
257.173	3.97
257.39	7.92
257.608	19.14
257.825	30.56
258.043	34.7
258.26	26.18
258.477	23.71
258.695	13.31
258.912	-6.97
259.129	-4.7
259.346	-17.28
259.564	-15.36
259.781	-6.36
259.998	-4.83
260.216	13.01
260.433	40.43
260.65	29.32
260.867	34.28
261.084	25.63
261.302	17.57
261.519	7.83
261.736	1.14
261.953	-15.62
262.17	8.61
262.387	4.33
262.604	-8.3
262.822	-5.89
263.039	-6.05
263.256	-21.17
263.473	-17.78
263.69	-27.64
263.907	-7.16
264.124	26.78
264.341	44.23
264.558	20.95
264.775	25.56
264.992	34.87
265.209	14.43
265.426	11.85
265.643	39.28
265.86	38.98
266.077	38.25
266.294	41.42
266.51	35.06
266.727	22.37
266.944	34.3
267.161	20.81
267.378	28.78
267.595	28.17
267.812	15.22
268.028	14.19
268.245	36.59
268.462	20.48
268.679	34.18
268.896	51.54
269.112	44.66
269.329	31.1
269.546	44.56
269.763	45.5
269.979	44.07
270.196	31.46
270.413	36.74
270.629	19.46
270.846	13.44
271.063	24.1
271.279	15.04
271.496	-19.67
271.712	-7.05
271.929	-19.67
272.146	-16.79
272.362	-24.83
272.579	27.45
272.795	19.84
273.012	39.93
273.228	27.6
273.445	27.93
273.661	-1.84
273.878	-56.54
274.094	-55.73
274.311	-66.92
274.527	-23.19
274.744	-12.5
274.96	54.52
275.177	48.46
275.393	55.46
275.609	53.27
275.826	59.31
276.042	40.41
276.259	42.16
276.475	44.21
276.691	42.66
276.908	28.61
277.124	54.03
277.34	47.89
277.557	29.73
277.773	23.97
277.989	27.61
278.205	18.99
278.422	28.67
278.638	40.93
278.854	44.58
279.07	44.81
279.286	18.03
279.503	5.29
279.719	-3.15
279.935	-8.35
280.151	-20
280.367	17.25
280.583	17.17
280.799	16.29
281.016	22.7
281.232	35.48
281.448	33.6
281.664	47.99
281.88	45.27
282.096	37.85
282.312	27.39
282.528	21.55
282.744	15.15
282.96	26.44
283.176	33.61
283.392	32.41
283.608	32.22
283.824	32.43
284.04	31.22
284.256	47.35
284.471	52.71
284.687	50.22
284.903	54.72
285.119	67.48
285.335	37.28
285.551	33.27
285.767	31.98
285.982	18.57
286.198	-2.37
286.414	6.27
286.63	4.41
286.846	18.96
287.061	4.46
287.277	1.75
287.493	4.76
287.709	8.62
287.924	1.42
288.14	32.78
288.356	43.27
288.571	40.22
288.787	26.92
289.003	22.33
289.218	-13.04
289.434	-39.82
289.65	-4.24
289.865	5.7
290.081	15.84
290.296	21.71
290.512	14.9
290.727	15.15
290.943	4.38
291.159	-5.44
291.374	-8.07
291.59	-11.12
291.805	-23.62
292.021	-0.92
292.236	-2.11
292.451	3.31
292.667	21.05
292.882	20.53
293.098	30.86
293.313	21.73
293.529	14.5
293.744	-10.43
293.959	-20.22
294.175	-29.12
294.39	-16.8
294.605	-6.9
294.821	8.82
295.036	3.13
295.251	10.34
295.467	14.98
295.682	17.3
295.897	3.06
296.112	-5.95
296.328	-7.8
296.543	-13.3
296.758	-30.13
296.973	4.5
297.188	43.93
297.404	17.37
297.619	21.73
297.834	33.06
298.049	26.89
298.264	5.38
298.479	42.7
298.694	51.86
298.909	58.79
299.125	61.08
299.34	75.62
299.555	54.71
299.77	51.82
299.985	2.68
300.2	-31.43
300.415	-61.76
300.63	-48.85
300.845	-46.83
301.06	-41.61
301.275	-18.01
301.49	-1.1
301.704	-9.11
301.919	-24.16
302.134	-25.3
302.349	-2.81
302.564	-5.54
302.779	23.13
302.994	57.51
303.209	57.36
303.423	54.38
303.638	51.37
303.853	22.23
304.068	-24.69
304.283	-1.88
304.497	1.82
304.712	19.87
304.927	30.2
305.142	29.24
305.356	40.5
305.571	51.66
305.786	49.53
306	38.99
306.215	55.86
306.43	22.13
306.644	30.33
306.859	26.18
307.074	29.89
307.288	11.22
307.503	28.93
307.717	4.14
307.932	14.77
308.147	19.55
308.361	39.51
308.576	20.23
308.79	-17.75
309.005	-24.09
309.219	-35.27
309.434	-24.54
309.648	-21.58
309.863	13.38
310.077	4.92
310.292	12.29
310.506	-3.43
310.72	29.83
310.935	41.92
311.149	44.66
311.364	60.42
311.578	60.28
311.792	43.28
312.007	39.65
312.221	11.98
312.435	11.11
312.649	5.93
312.864	8.4
313.078	-3.68
313.292	15.52
313.507	10.62
313.721	16.85
313.935	9.99
314.149	26.24
314.363	27.58
314.578	15.43
314.792	-0.99
315.006	20.04
315.22	11.43
315.434	6.11
315.648	13.88
315.862	9.1
316.077	-0.49
316.291	3.02
316.505	21.09
316.719	18.03
316.933	-0.3
317.147	5.4
317.361	-14.07
317.575	-4.64
317.789	-3.44
318.003	5.65
318.217	23.72
318.431	42.01
318.645	47.64
318.859	43.88
319.073	59.7
319.287	32.89
319.5	8.47
319.714	-23.9
319.928	-27.87
320.142	-42.83
320.356	10.21
320.57	21.83
320.784	31.48
320.997	36.82
321.211	36.15
321.425	-0.24
321.639	-20.3
321.853	-4.22
322.066	-4.56
322.28	-14.71
322.494	2.72
322.707	37.48
322.921	21.58
323.135	15.43
323.349	44.96
323.562	30.97
323.776	12.2
323.989	16.69
324.203	11.63
324.417	-3.5
324.63	-21.9
324.844	-38.7
325.057	-39.91
325.271	-38.44
325.485	-48.12
325.698	-7.53
325.912	18.09
326.125	11.02
326.339	23.21
326.552	38.41
326.766	38.47
326.979	48.77
327.193	67.82
327.406	51.09
327.619	47
327.833	40.97
328.046	28.42
328.26	21.32
328.473	23.3
328.686	5.52
328.9	7.93
329.113	15.21
329.326	10.83
329.54	29.14
329.753	30.92
329.966	35.91
330.179	39.64
330.393	49.53
330.606	28.26
330.819	52.42
331.032	54.77
331.246	54.76
331.459	49.43
331.672	45.28
331.885	20.75
332.098	-3.69
332.311	0.16
332.525	-11.45
332.738	4.59
332.951	16.91
333.164	32.73
333.377	39.29
333.59	52.2
333.803	35.36
334.016	30.86
334.229	22.73
334.442	26
334.655	41.76
334.868	44.18
335.081	44.36
335.294	39.32
335.507	32.68
335.72	24.67
335.933	19.71
336.146	19.29
336.359	34.02
336.572	17.02
336.785	3.75
336.997	2.79
337.21	14.16
337.423	0.25
337.636	11.16
337.849	22.05
338.062	22.47
338.274	20.17
338.487	25.63
338.7	27.56
338.913	18.29
339.125	16.16
339.338	13.93
339.551	15.83
339.763	23.38
339.976	30.01
340.189	39.05
340.402	40.87
340.614	37.06
340.827	23.7
341.039	6.3
341.252	-7.41
341.465	-18.97
341.677	-28.45
341.89	-61.1
342.102	-46.72
342.315	-33.17
342.527	-31.32
342.74	-19.45
342.952	26.29
343.165	35.58
343.377	41.34
343.59	35.23
343.802	54.99
344.015	52.72
344.227	59.87
344.44	53.65
344.652	51.54
344.864	49.96
345.077	59.34
345.289	52.02
345.502	59.65
345.714	56.73
345.926	47.67
346.139	34.8
346.351	24.51
346.563	11.81
346.775	20.36
346.988	14.38
347.2	14.04
347.412	3.7
347.624	5.57
347.837	12.24
348.049	15.86
348.261	15.23
348.473	22.49
348.685	6.8
348.897	-9.02
349.11	-11.6
349.322	-10.04
349.534	0.31
349.746	15.2
349.958	16.22
350.17	10.99
350.382	12
350.594	8.93
350.806	12.88
351.018	18.1
351.23	25.39
351.442	25.76
351.654	28.26
351.866	21.72
352.078	13.58
352.29	1.93
352.502	17.74
352.714	42.78
352.926	40.47
353.138	50.71
353.35	46.01
353.561	36.71
353.773	14.1
353.985	24.7
354.197	15.01
354.409	12.27
354.621	14.69
354.832	23.48
355.044	11.87
355.256	10.43
355.468	10.42
355.679	0.52
355.891	6.73
356.103	4.23
356.314	6.69
356.526	29.67
356.738	42.33
356.949	34.05
357.161	39.71
357.373	40.15
357.584	35.25
357.796	34.92
358.008	26.11
358.219	33.58
358.431	33.79
358.642	30.02
358.854	32.58
359.065	30.53
359.277	17.95
359.488	11.73
359.7	-6.1
359.911	-19.79
360.123	-17.58
360.334	-17.77
360.546	-21.15
360.757	-9.09
360.969	-7.38
361.18	-1.85
361.391	-2.86
361.603	-5.31
361.814	25.51
362.025	12.74
362.237	20.74
362.448	23.85
362.659	38.26
362.871	24.21
363.082	31.94
363.293	33.7
363.504	28.65
363.716	18.9
363.927	10.06
364.138	8.12
364.349	-19.53
364.56	-15.72
364.772	-26
364.983	-12.97
365.194	-15.2
365.405	5.48
365.616	7.94
365.827	12.96
366.038	5.53
366.25	15.37
366.461	-0.08
366.672	8.45
366.883	21.63
367.094	21.46
367.305	11.16
367.516	33.3
367.727	36.58
367.938	20.93
368.149	12.59
368.36	16.84
368.571	5.65
368.781	-1.81
368.992	-4.93
369.203	15.43
369.414	9.87
369.625	9.52
369.836	6.43
370.047	6.31
370.258	-2.66
370.468	-0.18
370.679	-26.53
370.89	-19.46
371.101	-6
371.312	-25.13
371.522	-16.86
371.733	-0.08
371.944	4.98
372.155	15.82
372.365	5.71
372.576	7.4
372.787	10.71
372.997	1.98
373.208	2.81
373.419	20.47
373.629	3.78
373.84	7.44
374.05	5.9
374.261	4.79
374.472	0.47
374.682	16.39
374.893	5.45
375.103	18.42
375.314	9.87
375.524	12.59
375.735	13.15
375.945	19.05
376.156	4.58
376.366	16.85
376.577	16.86
376.787	20.52
376.997	24.21
377.208	25.8
377.418	0.87
377.629	15.48
377.839	6.1
378.049	4.52
378.26	13.32
378.47	29.5
378.68	17.15
378.89	20.89
379.101	24.75
379.311	11.7
379.521	2.04
379.732	3.23
379.942	-13.71
380.152	-15.45
380.362	-2.13
380.572	0.45
380.783	3.89
380.993	15.03
381.203	19.21
381.413	17.56
381.623	20.36
381.833	24.71
382.043	16.16
382.253	18.15
382.463	23.26
382.674	21.06
382.884	12.07
383.094	20.6
383.304	14.61
383.514	8.36
383.724	8.08
383.934	-2.22
384.144	-10.76
384.353	-6.49
384.563	-0.89
384.773	5.86
384.983	17.98
385.193	22.07
385.403	10.58
385.613	10.56
385.823	1.44
386.033	4.62
386.242	1.78
386.452	8.14
386.662	2.26
386.872	9.86
387.082	9.21
387.291	3.7
387.501	2.84
387.711	1.86
387.921	-11.06
388.13	-6.9
388.34	5.45
388.55	5.33
388.759	9.19
388.969	16.01
389.179	12.53
389.388	8.9
389.598	6.19
389.807	7.18
390.017	7.44
390.227	4.71
390.436	1.67
390.646	8.13
390.855	8.55
391.065	8.89
391.274	8.59
391.484	7.21
391.693	5.08
391.903	3.7
392.112	4.47
392.322	6.51
392.531	11.18
392.74	10.79
392.95	6.33
393.159	5.12
393.369	6.15
393.578	2.7
393.787	1.09
393.997	5.96
394.206	5.42
394.415	5.77
394.625	5.9
394.834	5.4
395.043	3.07
395.252	4.09
395.462	4.03
395.671	5.38
395.88	7.59
396.089	8.8
396.298	8.08
396.508	7.41
396.717	7.25
396.926	5.69
397.135	5.48
397.344	5.3
397.553	5.03
397.762	5.05
397.971	5.68
398.181	5.32
398.39	4.42
398.599	4.61
398.808	3.86
399.017	3.98
399.226	4.08
399.435	5.05
399.644	5.07
399.853	5.23
400.062	4.79
400.27	4.84
400.479	4.85
400.688	4.22
400.897	4.48
401.106	4.6
401.315	4.19
401.524	3.9
401.733	4.2
401.941	4.44
402.15	4.3
402.359	4.44
402.568	4.49
402.777	4.42
402.985	4.07
403.194	4.25
403.403	4.21
403.612	4.11
403.82	4.17
404.029	4.22
404.238	3.98
404.446	4.06
404.655	3.88
404.864	3.81
405.072	3.69
405.281	3.82
405.489	3.62
405.698	3.63
405.906	3.62
406.115	3.44
406.324	3.28
406.532	3.4
406.741	3.56
406.949	3.38
407.158	3.5
407.366	3.58
407.574	3.65
407.783	3.57
407.991	3.6
408.2	3.74
408.408	3.65
408.617	3.51
408.825	3.35
409.033	3.52
409.242	3.51
409.45	3.51
409.658	3.44
409.867	3.61
410.075	3.47
410.283	3.22
410.491	3.31
410.7	3.26
410.908	3.34
411.116	3.33
411.324	3.3
411.533	3.29
411.741	3.32
411.949	3.21
412.157	3.13
412.365	3.31
412.573	3.2
412.781	3.23
412.99	3.19
413.198	3.39
413.406	3.34
413.614	3.41
413.822	3.37
414.03	3.44
414.238	3.25
414.446	3.38
414.654	3.13
414.862	3.05
415.07	3.04
415.278	3.19
415.486	2.73
415.694	2.9
415.902	3.01
416.109	2.89
416.317	2.85
416.525	2.92
416.733	3.06
416.941	3.16
417.149	3.17
417.357	3.16
417.564	3.46
417.772	3.3
417.98	3.26
418.188	3.34
418.395	3.2
418.603	3.28
418.811	3.19
419.019	2.97
419.226	3
419.434	3.18
419.642	2.93
419.849	2.96
420.057	3.16
420.265	3.25
420.472	3.08
420.68	3.27
420.887	3.3
421.095	3.21
421.302	3.03
421.51	3.16
421.717	3.08
421.925	3.09
422.132	3.02
422.34	2.81
422.547	2.66
422.755	2.64
422.962	2.58
423.17	2.57
423.377	2.83
423.585	2.93
423.792	2.88
423.999	2.98
424.207	2.99
424.414	2.87
424.621	2.99
424.829	3.07
425.036	2.98
425.243	2.94
425.451	2.94
425.658	2.83
425.865	2.61
426.072	2.71
426.28	2.75
426.487	2.68
426.694	2.63
426.901	2.84
427.108	2.8
427.315	2.79
427.523	2.94
427.73	2.94
427.937	2.6
428.144	2.49
428.351	2.55
428.558	2.47
428.765	2.45
428.972	2.56
429.179	2.7
429.386	2.74
429.593	2.78
429.8	2.67
430.007	2.89
430.214	2.93
430.421	2.89
430.628	2.77
430.835	2.65
431.042	2.69
431.249	2.62
431.456	2.78
431.662	2.93
431.869	3.16
432.076	3.06
432.283	3.04
432.49	2.85
432.697	2.71
432.903	2.47
433.11	2.55
433.317	2.6
433.524	2.65
433.73	2.69
433.937	3
434.144	2.89
434.35	2.88
434.557	2.81
434.764	2.74
434.97	2.65
435.177	2.7
435.384	2.52
435.59	2.66
435.797	2.91
436.003	2.88
436.21	2.8
436.416	2.86
436.623	2.71
436.829	2.53
437.036	2.57
437.242	2.52
437.449	2.6
437.655	2.58
437.862	2.63
438.068	2.59
438.275	2.7
438.481	2.77
438.687	2.81
438.894	2.81
439.1	2.88
439.307	2.92
439.513	2.77
439.719	2.8
439.926	2.75
440.132	2.7
440.338	2.68
440.544	2.8
440.751	2.72
440.957	2.81
441.163	2.65
441.369	2.64
441.575	2.45
441.782	2.41
441.988	2.3
442.194	2.4
442.4	2.36
442.606	2.58
442.812	2.7
443.018	2.73
443.224	2.83
443.431	2.89
443.637	2.81
443.843	2.67
444.049	2.77
444.255	2.69
444.461	2.66
444.667	2.61
444.873	2.69
445.079	2.67
445.284	2.69
445.49	2.58
445.696	2.47
445.902	2.39
446.108	2.27
446.314	2.16
446.52	2.35
446.726	2.57
446.931	2.58
447.137	2.68
447.343	2.86
447.549	2.65
447.755	2.63
447.96	2.76
448.166	2.64
448.372	2.65
448.578	2.66
448.783	2.59
448.989	2.63
449.195	2.83
449.4	2.77
449.606	2.82
449.812	2.75
450.017	2.76
450.223	2.67
450.428	2.55
450.634	2.58
450.84	2.67
451.045	2.55
451.251	2.43
451.456	2.61
451.662	2.64
451.867	2.62
452.073	2.52
452.278	2.62
452.483	2.66
452.689	2.69
452.894	2.8
453.1	2.95
453.305	2.83
453.51	2.64
453.716	2.51
453.921	2.44
454.127	2.52
454.332	2.53
454.537	2.51
454.742	2.64
454.948	2.67
455.153	2.49
455.358	2.52
455.563	2.68
455.769	2.63
455.974	2.52
456.179	2.52
456.384	2.48
456.589	2.42
456.795	2.35
457	2.38
457.205	2.48
457.41	2.44
457.615	2.37
457.82	2.49
458.025	2.54
458.23	2.38
458.435	2.48
458.64	2.34
458.845	2.37
459.05	2.29
459.255	2.27
459.46	2.24
459.665	2.35
459.87	2.23
460.075	2.18
460.28	2.31
460.485	2.39
460.69	2.4
460.895	2.28
461.099	2.18
461.304	2.28
461.509	2.26
461.714	2.11
461.919	2.25
462.123	2.32
462.328	2.32
462.533	2.09
462.738	2.23
462.942	2.08
463.147	2.19
463.352	2.08
463.556	2.2
463.761	2.3
463.966	2.43
464.17	2.47
464.375	2.42
464.58	2.43
464.784	2.35
464.989	2.21
465.193	2.19
465.398	2.14
465.602	2.31
465.807	2.22
466.011	2.39
466.216	2.44
466.42	2.53
466.625	2.42
466.829	2.59
467.034	2.56
467.238	2.53
467.443	2.49
467.647	2.42
467.851	2.38
468.056	2.48
468.26	2.43
468.464	2.4
468.669	2.44
468.873	2.38
469.077	2.29
469.282	2.28
469.486	2.39
469.69	2.45
469.894	2.5
470.099	2.61
470.303	2.62
470.507	2.47
470.711	2.42
470.915	2.37
471.119	2.32
471.324	2.29
471.528	2.25
471.732	2.32
471.936	2.39
472.14	2.46
472.344	2.49
472.548	2.62
472.752	2.6
472.956	2.58
473.16	2.5
473.364	2.45
473.568	2.53
473.772	2.53
473.976	2.57
474.18	2.55
474.384	2.54
474.588	2.43
474.792	2.33
474.995	2.31
475.199	2.36
475.403	2.48
475.607	2.5
475.811	2.55
476.015	2.58
476.218	2.55
476.422	2.46
476.626	2.51
476.83	2.61
477.033	2.55
477.237	2.46
477.441	2.46
477.644	2.38
477.848	2.27
478.052	2.13
478.255	2.19
478.459	2.31
478.663	2.47
478.866	2.54
479.07	2.67
479.273	2.8
479.477	2.73
479.681	2.61
479.884	2.6
480.088	2.56
480.291	2.51
480.495	2.5
480.698	2.56
480.901	2.64
481.105	2.75
481.308	2.68
481.512	2.66
481.715	2.69
481.919	2.64
482.122	2.56
482.325	2.63
482.529	2.68
482.732	2.68
482.935	2.64
483.138	2.65
483.342	2.69
483.545	2.85
483.748	2.9
483.952	2.97
484.155	3.12
484.358	3.13
484.561	2.95
484.764	2.98
484.967	2.93
485.171	2.99
485.374	2.91
485.577	3.07
485.78	3.08
485.983	3.11
486.186	3.01
486.389	3.08
486.592	3.1
486.795	3.12
486.998	3.16
487.201	3.23
487.404	3.3
487.607	3.4
487.81	3.44
488.013	3.57
488.216	3.61
488.419	3.7
488.622	3.55
488.825	3.6
489.028	3.58
489.231	3.59
489.433	3.52
489.636	3.66
489.839	3.59
490.042	3.61
490.245	3.68
490.447	3.87
490.65	3.91
490.853	4.13
491.056	4.2
491.258	4.26
491.461	4.32
491.664	4.45
491.866	4.36
492.069	4.47
492.272	4.57
492.474	4.66
492.677	4.71
492.879	4.95
493.082	5.12
493.285	5.37
493.487	5.34
493.69	5.32
493.892	5.25
494.095	5.3
494.297	5.27
494.5	5.5
494.702	5.72
494.905	5.97
495.107	6.05
495.309	6.19
495.512	6.3
495.714	6.42
495.917	6.53
496.119	6.68
496.321	6.8
496.524	6.94
496.726	7.07
496.928	7.19
497.13	7.27
497.333	7.39
497.535	7.51
497.737	7.52
497.939	7.56
498.142	7.8
498.344	7.81
498.546	7.79
498.748	7.96
498.95	8.06
499.152	7.95
499.355	8.13
499.557	8.24
499.759	8.3
499.961	8.35
500.163	8.51
500.365	8.54
500.567	8.57
500.769	8.58
500.971	8.7
501.173	8.61
501.375	8.7
501.577	8.68
501.779	8.75
501.981	8.76
502.183	8.91
502.385	8.9
502.587	8.91
502.788	8.95
502.99	9
503.192	9.01
503.394	8.89
503.596	8.98
503.798	9.01
503.999	9.01
504.201	9
504.403	9.11
504.605	9.11
504.806	9.01
505.008	8.88
505.21	8.86
505.411	8.83
505.613	8.74
505.815	8.79
506.016	8.81
506.218	8.81
506.42	8.71
506.621	8.66
506.823	8.67
507.024	8.66
507.226	8.59
507.427	8.53
507.629	8.55
507.83	8.44
508.032	8.26
508.233	8.25
508.435	8.33
508.636	8.27
508.838	8.15
509.039	8.13
509.24	8.08
509.442	7.97
509.643	7.93
509.845	7.98
510.046	7.97
510.247	7.88
510.448	7.9
510.65	7.83
510.851	7.84
511.052	7.89
511.254	7.8
511.455	7.71
511.656	7.73
511.857	7.67
512.058	7.57
512.26	7.61
512.461	7.56
512.662	7.54
512.863	7.42
513.064	7.38
513.265	7.31
513.466	7.32
513.667	7.24
513.868	7.35
514.069	7.39
514.27	7.37
514.471	7.29
514.672	7.31
514.873	7.24
515.074	7.18
515.275	7.15
515.476	7.17
515.677	7.17
515.878	7.13
516.079	7.08
516.28	7.16
516.481	7.15
516.682	7.12
516.882	7.16
517.083	7.25
517.284	7.13
517.485	7.08
517.686	7.04
517.886	6.97
518.087	6.94
518.288	7.01
518.488	6.96
518.689	6.94
518.89	6.88
519.091	6.82
519.291	6.72
519.492	6.8
519.692	6.84
519.893	6.93
520.094	6.95
520.294	6.9
520.495	6.83
520.695	6.83
520.896	6.79
521.096	6.77
521.297	6.86
521.497	6.89
521.698	6.82
521.898	6.78
522.099	6.84
522.299	6.86
522.499	6.82
522.7	6.86
522.9	6.88
523.101	6.87
523.301	6.81
523.501	6.84
523.702	6.84
523.902	6.87
524.102	6.86
524.302	6.87
524.503	6.83
524.703	6.84
524.903	6.8
525.103	6.78
525.304	6.79
525.504	6.89
525.704	6.92
525.904	6.95
526.104	6.92
526.304	6.94
526.504	6.93
526.705	6.86
526.905	6.9
527.105	7
527.305	6.98
527.505	6.88
527.705	6.91
527.905	6.84
528.105	6.79
528.305	6.7
528.505	6.79
528.705	6.86
528.905	6.82
529.105	6.85
529.304	6.98
529.504	7
529.704	6.97
529.904	7.08
530.104	7.07
530.304	7.08
530.503	7.01
530.703	6.98
530.903	6.93
531.103	6.99
531.303	6.95
531.502	7
531.702	7.06
531.902	7.08
532.101	7.01
532.301	7.01
532.501	7
532.7	7.02
532.9	7.01
533.1	7.07
533.299	7.08
533.499	7.11
533.698	7.06
533.898	7.1
534.097	7.13
534.297	7.19
534.496	7.23
534.696	7.31
534.895	7.4
535.095	7.44
535.294	7.44
535.494	7.33
535.693	7.32
535.892	7.3
536.092	7.25
536.291	7.27
536.491	7.34
536.69	7.42
536.889	7.31
537.088	7.29
537.288	7.32
537.487	7.44
537.686	7.42
537.886	7.54
538.085	7.6
538.284	7.61
538.483	7.54
538.682	7.59
538.882	7.58
539.081	7.65
539.28	7.6
539.479	7.59
539.678	7.55
539.877	7.59
540.076	7.57
540.275	7.66
540.474	7.72
540.673	7.76
540.872	7.77
541.071	7.77
541.27	7.77
541.469	7.8
541.668	7.79
541.867	7.81
542.066	7.83
542.265	7.91
542.464	7.85
542.663	7.89
542.862	7.94
543.06	7.91
543.259	7.83
543.458	7.9
543.657	7.86
543.856	7.9
544.054	7.95
544.253	7.98
544.452	7.96
544.651	8
544.849	7.94
545.048	7.98
545.247	8.03
545.445	8.15
545.644	8.18
545.843	8.18
546.041	8.19
546.24	8.27
546.438	8.29
546.637	8.32
546.836	8.49
547.034	8.58
547.233	8.64
547.431	8.69
547.63	8.76
547.828	8.69
548.027	8.69
548.225	8.66
548.423	8.72
548.622	8.77
548.82	8.74
549.019	8.83
549.217	8.92
549.415	8.96
549.614	9
549.812	9.12
550.01	9.09
550.209	9.07
550.407	9.12
550.605	9.17
550.803	9.24
551.002	9.27
551.2	9.29
551.398	9.43
551.596	9.5
551.794	9.57
551.993	9.68
552.191	9.78
552.389	9.72
552.587	9.7
552.785	9.71
552.983	9.75
553.181	9.87
553.379	9.96
553.577	10.03
553.775	10.12
553.973	10.18
554.171	10.27
554.369	10.29
554.567	10.31
554.765	10.33
554.963	10.42
555.161	10.3
555.359	10.46
555.557	10.55
555.755	10.67
555.952	10.7
556.15	10.84
556.348	10.86
556.546	11.03
556.744	11.05
556.941	11.11
557.139	11.2
557.337	11.24
557.535	11.26
557.732	11.39
557.93	11.48
558.128	11.59
558.325	11.7
558.523	11.74
558.721	11.87
558.918	11.9
559.116	11.96
559.313	11.89
559.511	12.02
559.708	12
559.906	12.14
560.104	12.24
560.301	12.48
560.498	12.53
560.696	12.62
560.893	12.7
561.091	12.79
561.288	12.84
561.486	12.95
561.683	13.03
561.88	13.08
562.078	13.06
562.275	13.07
562.473	13.2
562.67	13.4
562.867	13.49
563.064	13.71
563.262	13.79
563.459	13.83
563.656	13.79
563.853	13.87
564.051	13.83
564.248	13.97
564.445	14.14
564.642	14.28
564.839	14.37
565.036	14.59
565.234	14.75
565.431	14.74
565.628	14.87
565.825	14.92
566.022	15.02
566.219	15.03
566.416	15.04
566.613	15.06
566.81	15.25
567.007	15.2
567.204	15.22
567.401	15.35
567.598	15.38
567.795	15.29
567.991	15.38
568.188	15.61
568.385	15.67
568.582	15.83
568.779	15.85
568.976	16.02
569.172	16.05
569.369	16.13
569.566	16.11
569.763	16.29
569.96	16.3
570.156	16.2
570.353	16.22
570.55	16.32
570.746	16.45
570.943	16.48
571.14	16.59
571.336	16.61
571.533	16.62
571.729	16.66
571.926	16.67
572.123	16.71
572.319	16.84
572.516	16.9
572.712	16.89
572.909	17.02
573.105	17.1
573.302	17.1
573.498	17.09
573.695	17
573.891	16.97
574.087	16.96
574.284	16.93
574.48	16.92
574.677	16.97
574.873	17.02
575.069	17.11
575.266	17.19
575.462	17.28
575.658	17.34
575.854	17.4
576.051	17.36
576.247	17.29
576.443	17.21
576.639	17.23
576.835	17.15
577.032	17.2
577.228	17.26
577.424	17.35
577.62	17.3
577.816	17.29
578.012	17.23
578.208	17.25
578.404	17.34
578.6	17.37
578.796	17.38
578.993	17.34
579.189	17.31
579.384	17.11
579.58	17.11
579.776	17.13
579.972	17.13
580.168	17.1
580.364	17.13
580.56	17.15
580.756	17.11
580.952	17.06
581.148	17.06
581.343	17.16
581.539	17.06
581.735	17.07
581.931	17.12
582.127	17.13
582.322	16.97
582.518	17.04
582.714	17.04
582.909	16.9
583.105	16.89
583.301	16.88
583.496	16.85
583.692	16.74
583.888	16.83
584.083	16.78
584.279	16.86
584.474	16.83
584.67	16.86
584.866	16.81
585.061	16.78
585.257	16.78
585.452	16.77
585.648	16.73
585.843	16.75
586.039	16.73
586.234	16.65
586.429	16.59
586.625	16.62
586.82	16.52
587.015	16.53
587.211	16.51
587.406	16.54
587.601	16.47
587.797	16.44
587.992	16.38
588.187	16.47
588.383	16.5
588.578	16.56
588.773	16.59
588.968	16.67
589.163	16.59
589.359	16.53
589.554	16.5
589.749	16.64
589.944	16.64
590.139	16.69
590.334	16.64
590.529	16.67
590.724	16.61
590.919	16.67
591.114	16.61
591.309	16.72
591.504	16.79
591.699	16.75
591.894	16.68
592.089	16.67
592.284	16.64
592.479	16.61
592.674	16.59
592.869	16.64
593.064	16.77
593.259	16.86
593.454	16.91
593.648	16.89
593.843	16.88
594.038	16.84
594.233	16.76
594.428	16.82
594.622	16.93
594.817	17.08
595.012	17.15
595.206	17.17
595.401	17.21
595.596	17.28
595.79	17.28
595.985	17.36
596.18	17.44
596.374	17.53
596.569	17.51
596.763	17.4
596.958	17.31
597.153	17.44
597.347	17.35
597.542	17.56
597.736	17.76
597.931	17.88
598.125	17.92
598.319	18.05
598.514	17.98
598.708	17.87
598.903	17.96
599.097	17.98
599.291	18
599.486	18
599.68	18.13
599.874	18.27
600.069	18.24
600.263	18.21
600.457	18.28
600.651	18.37
600.846	18.23
601.04	18.27
601.234	18.23
601.428	18.3
601.622	18.22
601.817	18.33
602.011	18.3
602.205	18.36
602.399	18.27
602.593	18.29
602.787	18.26
602.981	18.35
603.175	18.41
603.369	18.38
603.563	18.54
603.757	18.56
603.951	18.55
604.145	18.53
604.339	18.66
604.533	18.42
604.727	18.38
604.921	18.31
605.115	18.22
605.309	18.06
605.502	18.18
605.696	18.09
605.89	18.02
606.084	18.03
606.278	18.04
606.471	17.95
606.665	17.89
606.859	17.84
607.053	17.79
607.246	17.74
607.44	17.65
607.634	17.66
607.827	17.66
608.021	17.62
608.214	17.59
608.408	17.54
608.602	17.52
608.795	17.46
608.989	17.52
609.182	17.47
609.376	17.43
609.569	17.32
609.763	17.26
609.956	17.09
610.15	17.03
610.343	16.94
610.537	16.86
610.73	16.86
610.923	16.82
611.117	16.8
611.31	16.75
611.504	16.76
611.697	16.63
611.89	16.59
612.083	16.55
612.277	16.51
612.47	16.46
612.663	16.38
612.856	16.23
613.05	16.11
613.243	15.99
613.436	15.82
613.629	15.82
613.822	15.75
614.015	15.7
614.209	15.65
614.402	15.66
614.595	15.58
614.788	15.55
614.981	15.44
615.174	15.35
615.367	15.21
615.56	15.07
615.753	14.99
615.946	14.93
616.139	14.96
616.332	15.06
616.525	15.06
616.718	15.1
616.911	15.11
617.103	15.16
617.296	15.06
617.489	15.05
617.682	15.06
617.875	15.01
618.067	14.87
618.26	14.71
618.453	14.73
618.646	14.59
618.838	14.49
619.031	14.38
619.224	14.4
619.417	14.24
619.609	14.19
619.802	14.21
619.994	14.28
620.187	14.26
620.38	14.23
620.572	14.18
620.765	14.15
620.957	14.08
621.15	13.96
621.342	14
621.535	14.09
621.727	14.02
621.92	14
622.112	14.05
622.305	13.97
622.497	13.85
622.69	13.79
622.882	13.75
623.074	13.69
623.267	13.72
623.459	13.6
623.651	13.56
623.844	13.61
624.036	13.65
624.228	13.61
624.42	13.65
624.613	13.68
624.805	13.6
624.997	13.49
625.189	13.43
625.381	13.49
625.574	13.46
625.766	13.38
625.958	13.47
626.15	13.45
626.342	13.36
626.534	13.32
626.726	13.32
626.918	13.3
627.11	13.3
627.302	13.28
627.494	13.23
627.686	13.23
627.878	13.14
628.07	13.07
628.262	12.99
628.454	13
628.646	13
628.838	12.98
629.029	12.91
629.221	12.92
629.413	12.86
629.605	12.75
629.797	12.61
629.989	12.67
630.18	12.61
630.372	12.58
630.564	12.54
630.755	12.58
630.947	12.54
631.139	12.47
631.33	12.34
631.522	12.42
631.714	12.37
631.905	12.27
632.097	12.3
632.289	12.28
632.48	12.14
632.672	12.04
632.863	11.97
633.055	11.94
633.246	12.04
633.438	11.98
633.629	11.98
633.821	11.96
634.012	11.85
634.203	11.72
634.395	11.76
634.586	11.85
634.777	11.8
634.969	11.77
635.16	11.76
635.351	11.68
635.543	11.59
635.734	11.55
635.925	11.5
636.117	11.53
636.308	11.45
636.499	11.31
636.69	11.3
636.881	11.26
637.073	11.24
637.264	11.21
637.455	11.32
637.646	11.32
637.837	11.33
638.028	11.24
638.219	11.28
638.41	11.17
638.601	11.11
638.792	11.1
638.983	10.99
639.174	10.85
639.365	10.78
639.556	10.75
639.747	10.66
639.938	10.71
640.129	10.74
640.32	10.66
640.511	10.66
640.701	10.64
640.892	10.6
641.083	10.55
641.274	10.56
641.465	10.49
641.655	10.44
641.846	10.3
642.037	10.26
642.228	10.29
642.418	10.3
642.609	10.2
642.8	10.24
642.99	10.17
643.181	10.09
643.372	10.01
643.562	10.05
643.753	10.03
643.943	9.99
644.134	9.91
644.324	9.87
644.515	9.74
644.705	9.76
644.896	9.81
645.086	9.77
645.277	9.75
645.467	9.77
645.658	9.66
645.848	9.63
646.038	9.67
646.229	9.64
646.419	9.55
646.61	9.47
646.8	9.37
646.99	9.34
647.18	9.29
647.371	9.35
647.561	9.25
647.751	9.26
647.941	9.19
648.132	9.15
648.322	9.13
648.512	9.29
648.702	9.19
648.892	9.21
649.082	9.26
649.272	9.11
649.462	8.93
649.653	8.89
649.843	8.82
650.033	8.76
650.223	8.75
650.413	8.74
650.603	8.72
650.793	8.64
650.983	8.51
651.172	8.45
651.362	8.47
651.552	8.42
651.742	8.4
651.932	8.45
652.122	8.53
652.312	8.55
652.502	8.58
652.691	8.63
652.881	8.59
653.071	8.56
653.261	8.38
653.45	8.26
653.64	8.22
653.83	8.18
654.019	8.16
654.209	8.34
654.399	8.44
654.588	8.39
654.778	8.33
654.968	8.19
655.157	8.12
655.347	8
655.536	7.86
655.726	7.81
655.915	7.78
656.105	7.64
656.294	7.58
656.484	7.44
656.673	7.35
656.863	7.3
657.052	7.17
657.241	7.01
657.431	6.96
657.62	6.8
657.809	6.71
657.999	6.58
658.188	6.5
658.377	6.52
658.567	6.5
658.756	6.41
658.945	6.35
659.134	6.28
659.324	6.15
659.513	6.13
659.702	5.92
659.891	5.89
660.08	5.77
660.269	5.66
660.458	5.62
660.648	5.73
660.837	5.65
661.026	5.61
661.215	5.61
661.404	5.34
661.593	5.22
661.782	5
661.971	5.02
662.16	4.95
662.349	5.01
662.538	4.95
662.726	5.13
662.915	5.1
663.104	4.95
663.293	4.87
663.482	4.87
663.671	4.74
663.86	4.53
664.048	4.43
664.237	4.4
664.426	4.3
664.615	4.34
664.803	4.42
664.992	4.56
665.181	4.56
665.369	4.45
665.558	4.4
665.747	4.26
665.935	4.29
666.124	4.25
666.312	4.33
666.501	4.25
666.69	4.19
666.878	4.14
667.067	4.06
667.255	4.14
667.444	4.33
667.632	4.51
667.82	4.49
668.009	4.48
668.197	4.43
668.386	4.37
668.574	4.39
668.762	4.41
668.951	4.44
669.139	4.35
669.327	4.18
669.516	4.18
669.704	4.27
669.892	4.33
670.08	4.45
670.269	4.51
670.457	4.46
670.645	4.37
670.833	4.43
671.021	4.41
671.21	4.51
671.398	4.62
671.586	4.63
671.774	4.68
671.962	4.66
672.15	4.56
672.338	4.49
672.526	4.58
672.714	4.47
672.902	4.51
673.09	4.7
673.278	4.85
673.466	4.84
673.654	5.12
673.842	5.12
674.03	5.16
674.218	5.08
674.405	5.08
674.593	5.01
674.781	5.15
674.969	5.13
675.157	5.39
675.344	5.41
675.532	5.44
675.72	5.52
675.908	5.7
676.095	5.51
676.283	5.7
676.471	5.93
676.658	5.97
676.846	5.88
677.033	6.1
677.221	5.99
677.409	5.8
677.596	5.85
677.784	6
677.971	6.04
678.159	6.27
678.346	6.43
678.534	6.37
678.721	6.5
678.909	6.43
679.096	6.34
679.283	6.5
679.471	6.74
679.658	6.73
679.846	6.99
680.033	7.17
680.22	7.12
680.408	7.2
680.595	7.36
680.782	7.26
680.969	7.3
681.157	7.25
681.344	7.19
681.531	7.13
681.718	7.2
681.905	7.32
682.093	7.46
682.28	7.62
682.467	7.83
682.654	7.98
682.841	7.95
683.028	8.23
683.215	8.34
683.402	8.19
683.589	8.37
683.776	8.53
683.963	8.55
684.15	8.79
684.337	8.94
684.524	8.98
684.711	9.18
684.898	9.22
685.085	9.21
685.271	9.64
685.458	9.95
685.645	10.03
685.832	10.29
686.019	10.52
686.205	10.64
686.392	10.75
686.579	11
686.766	11.34
686.952	11.52
687.139	11.92
687.326	12.05
687.512	12.53
687.699	12.77
687.886	13.18
688.072	13.27
688.259	13.86
688.445	14.05
688.632	14.3
688.818	14.75
689.005	15.1
689.191	15.39
689.378	15.95
689.564	16.41
689.751	16.57
689.937	17.19
690.124	17.62
690.31	17.91
690.496	18.46
690.683	19.13
690.869	19.55
691.055	19.99
691.242	20.61
691.428	21.08
691.614	21.64
691.8	22.19
691.987	22.7
692.173	23.38
692.359	24.15
692.545	24.83
692.731	25.13
692.918	25.77
693.104	26.14
693.29	26.67
693.476	27
693.662	28.01
693.848	28.79
694.034	29.42
694.22	30.08
694.406	31.07
694.592	31.77
694.778	32.41
694.964	33.03
695.15	33.68
695.336	34.19
695.522	35.17
695.708	35.93
695.894	36.77
696.08	37.42
696.265	38.09
696.451	38.39
696.637	39.02
696.823	39.8
697.009	40.64
697.194	41.44
697.38	42.2
697.566	42.81
697.751	43.27
697.937	43.94
698.123	44.45
698.308	45.19
698.494	45.99
698.68	46.96
698.865	47.48
699.051	48.35
699.236	49.11
699.422	49.56
699.607	49.9
699.793	50.62
699.978	51.03
700.164	51.22
700.349	52.16
700.535	53.09
700.72	53.52
700.906	54.45
701.091	55.28
701.276	55.78
701.462	56.53
701.647	57.61
701.832	58.04
702.018	58.63
702.203	59.09
702.388	59.34
702.573	59.47
702.759	59.99
702.944	60.29
703.129	60.91
703.314	61.45
703.499	62.13
703.684	62.99
703.87	63.98
704.055	64.53
704.24	65.03
704.425	65.52
704.61	65.52
704.795	65.61
704.98	65.67
705.165	66.03
705.35	66.28
705.535	66.78
705.72	67.39
705.905	68.09
706.09	68.61
706.275	68.8
706.459	69.22
706.644	69.46
706.829	70.1
707.014	70.15
707.199	70.74
707.384	71.17
707.568	71.35
707.753	71.91
707.938	72.74
708.123	73.12
708.307	73.07
708.492	73.21
708.677	72.62
708.861	72.27
709.046	72.18
709.231	73.02
709.415	73.47
709.6	74.36
709.784	74.69
709.969	75.5
710.153	75.22
710.338	75.87
710.522	75.5
710.707	76.16
710.891	75.84
711.076	76.52
711.26	76.31
711.445	76.87
711.629	77.01
711.813	77.69
711.998	77.67
712.182	77.67
712.366	77.85
712.551	78.04
712.735	77.56
712.919	77.77
713.103	78.12
713.288	78.13
713.472	78.49
713.656	79.37
713.84	79.95
714.024	80.39
714.208	81.1
714.393	81.43
714.577	81.63
714.761	81.17
714.945	81.49
715.129	81.25
715.313	80.92
715.497	80.85
715.681	81.45
715.865	81.55
716.049	82.21
716.233	82.74
716.417	82.88
716.601	83.04
716.785	83.05
716.968	82.84
717.152	83.09
717.336	83.43
717.52	83.29
717.704	84.09
717.888	84.97
718.071	84.69
718.255	84.73
718.439	84.98
718.622	84.92
718.806	84.24
718.99	84.01
719.174	84.69
719.357	84.95
719.541	84.68
719.724	85.16
719.908	86.11
720.092	86.31
720.275	86.49
720.459	87.27
720.642	86.8
720.826	86.82
721.009	86.79
721.193	86.06
721.376	85.19
721.559	86.4
721.743	86.37
721.926	86
722.11	86.17
722.293	86.3
722.476	85.06
722.66	85.35
722.843	85.81
723.026	86.43
723.21	86.64
723.393	87.39
723.576	87.15
723.759	86.53
723.942	86.76
724.126	87.1
724.309	87.43
724.492	87.9
724.675	88.78
724.858	89.24
725.041	90.06
725.224	90.11
725.407	90.27
725.59	90.24
725.774	90.01
725.957	88.88
726.14	89.54
726.322	89.1
726.505	88.91
726.688	89.06
726.871	89.56
727.054	89.51
727.237	89.92
727.42	90.47
727.603	90.93
727.786	90.85
727.968	91.14
728.151	90.85
728.334	90.3
728.517	90.36
728.699	91.05
728.882	90.23
729.065	90.97
729.248	92.04
729.43	92.3
729.613	93.29
729.796	93.94
729.978	93.24
730.161	92.26
730.343	92.1
730.526	91.74
730.708	91.36
730.891	92.33
731.073	92.55
731.256	92.39
731.438	92.34
731.621	92.45
731.803	93.4
731.986	94.16
732.168	94.38
732.35	94.35
732.533	94.88
732.715	93.69
732.898	94.16
733.08	94.49
733.262	94.48
733.444	94.54
733.627	94.64
733.809	94.73
733.991	95.1
734.173	96.08
734.355	96.45
734.538	96.84
734.72	96.18
734.902	95.9
735.084	94.81
735.266	94.9
735.448	94.94
735.63	95.66
735.812	96.32
735.994	96.91
736.176	96.66
736.358	97.14
736.54	97.61
736.722	97.36
736.904	97.29
737.086	96.66
737.268	97.29
737.45	97.43
737.632	97.65
737.814	97.02
737.995	98.26
738.177	97.76
738.359	97.17
738.541	96.89
738.723	97.77
738.904	97.8
739.086	97.82
739.268	97.71
739.449	96.89
739.631	96.86
739.813	97.22
739.994	98.07
740.176	98.76
740.358	100.11
740.539	100.81
740.721	100.67
740.902	101.19
741.084	100.96
741.265	100.98
741.447	101.23
741.628	100.95
741.81	98.98
741.991	99
742.172	98.97
742.354	98.7
742.535	98.8
742.717	100.43
742.898	99.5
743.079	100.95
743.261	100.23
743.442	99.58
743.623	99.25
743.804	101.29
743.986	100.55
744.167	100.26
744.348	101.85
744.529	101.62
744.71	100.45
744.891	99.91
745.073	100.84
745.254	100.25
745.435	100.97
745.616	100.06
745.797	99.92
745.978	99.6
746.159	99.02
746.34	97.94
746.521	98.64
746.702	98.42
746.883	97.74
747.064	95.99
747.245	95.13
747.426	94.83
747.606	95.41
747.787	96.37
747.968	97.28
748.149	98.66
748.33	100.22
748.51	99.01
748.691	98.11
748.872	100.73
749.053	99.93
749.233	98.78
749.414	99.35
749.595	99.5
749.775	97.43
749.956	96.41
750.137	94.76
750.317	94.73
750.498	95.88
750.678	95.79
750.859	97.93
751.04	100.1
751.22	100.04
751.4	98.83
751.581	100.05
751.761	99.25
751.942	99.2
752.122	99.49
752.303	98.57
752.483	97.81
752.663	97.09
752.844	97.4
753.024	98
753.204	99.68
753.385	99.49
753.565	98.42
753.745	97.71
753.925	97.81
754.106	97.87
754.286	98.26
754.466	98.8
754.646	99.93
754.826	98.93
755.006	96.99
755.187	97.36
755.367	99.81
755.547	99.37
755.727	100.6
755.907	101.24
756.087	102.07
756.267	100.5
756.447	100.19
756.627	99.14
756.807	100.92
756.987	99.53
757.167	101.04
757.346	99.79
757.526	98.92
757.706	98.6
757.886	98.39
758.066	97.98
758.246	99.68
758.425	100.94
758.605	99.34
758.785	100.27
758.965	99.02
759.144	96.01
759.324	96.02
759.504	96.85
759.683	95.51
759.863	94.73
760.043	96.82
760.222	96.57
760.402	95.12
760.581	95.91
760.761	96.8
760.94	94.7
761.12	94.26
761.299	97.38
761.479	97.35
761.658	95.7
761.838	97.61
762.017	97.83
762.197	95.91
762.376	95.73
762.555	97.57
762.735	97.94
762.914	95.6
763.093	97.73
763.273	95.81
763.452	96.56
763.631	94.81
763.81	95.69
763.99	93.79
764.169	95.44
764.348	92.28
764.527	92.9
764.706	94.11
764.885	95.14
765.064	93.64
765.243	93.99
765.423	94.06
765.602	95.17
765.781	92.92
765.96	92.13
766.139	93.89
766.318	94.31
766.497	94.09
766.676	96.09
766.854	98.92
767.033	98.9
767.212	98.7
767.391	96.67
767.57	96.47
767.749	97.12
767.928	97.34
768.106	94.85
768.285	95.04
768.464	95.94
768.643	94.56
768.821	94.11
769	96.86
769.179	98.23
769.357	92.49
769.536	90.82
769.715	91.84
769.893	91.62
770.072	90.05
770.25	91.8
770.429	92.73
770.607	90.7
770.786	90.96
770.964	90.87
771.143	92.65
771.321	95.48
771.5	95.67
771.678	94.12
771.857	92.21
772.035	92.86
772.213	90.2
772.392	87.02
772.57	87.1
772.748	89.38
772.927	86.43
773.105	86.34
773.283	91.04
773.461	93.55
773.64	92.57
773.818	92.27
773.996	93.47
774.174	92.5
774.352	89.22
774.531	91.12
774.709	95.08
774.887	93.73
775.065	91.49
775.243	90.83
775.421	91.56
775.599	92.53
775.777	90.86
775.955	90.68
776.133	92.71
776.311	90.26
776.489	85.94
776.667	88.01
776.844	89.93
777.022	88.18
777.2	87.26
777.378	88.09
777.556	89.35
777.734	89.56
777.911	90.61
778.089	89.27
778.267	91.02
778.445	87.83
778.622	86.37
778.8	86.07
778.978	89.2
779.155	88.08
779.333	89.08
779.511	87.33
779.688	88.58
779.866	84
780.043	82.93
780.221	81.85
780.398	81.46
780.576	80.76
780.753	85.04
780.931	85.19
781.108	87.06
781.286	89.28
781.463	86.61
781.64	85
781.818	88.21
781.995	88.72
782.172	89.23
782.35	92.02
782.527	92.35
782.704	89.16
782.882	90.81
783.059	91.29
783.236	91.81
783.413	91.87
783.59	93.44
783.768	87.05
783.945	86.08
784.122	87.53
784.299	86.54
784.476	85.2
784.653	89.08
784.83	88.42
785.007	81.33
785.184	83.27
785.361	85.25
785.538	85.73
785.715	83.88
785.892	89.14
786.069	88.65
786.246	88
786.423	83.85
786.6	85.31
786.776	86.86
786.953	87.09
787.13	85.27
787.307	88.01
787.484	91.77
787.66	87.99
787.837	85.53
788.014	87.74
788.191	84.85
788.367	81.69
788.544	83.36
788.721	83.68
788.897	82.51
789.074	85.5
789.25	83.05
789.427	84.48
789.603	84.7
789.78	86.6
789.956	80.64
790.133	83.79
790.309	80.38
790.486	83.34
790.662	79.88
790.839	83.78
791.015	82.1
791.192	79.05
791.368	79.83
791.544	78.73
791.721	85.57
791.897	85.46
792.073	89.72
792.249	85.2
792.426	87.14
792.602	83.26
792.778	80.27
792.954	78.47
793.13	76.78
793.307	73.72
793.483	67.91
793.659	69.86
793.835	71.52
794.011	77.47
794.187	71.28
794.363	69.26
794.539	70.97
794.715	68.71
794.891	64.08
795.067	69.18
795.243	76.11
795.419	77.5
795.595	77.73
795.771	80.23
795.947	82.54
796.122	75.23
796.298	75.28
796.474	78.32
796.65	77.62
796.826	78.59
797.001	85.69
797.177	78.97
797.353	80.2
797.529	82.62
797.704	76.89
797.88	75.22
798.056	75.97
798.231	73.73
798.407	74.34
798.582	80.99
798.758	85.97
798.934	93.37
799.109	89.54
799.285	83.9
799.46	88.93
799.636	85.49
799.811	84.06
799.986	88.46
800.162	96.26
800.337	90.96
800.513	86.51
800.688	81.96
800.863	85.37
801.039	76.82
801.214	72.27
801.389	73.44
801.565	76.46
801.74	72.26
801.915	73.81
802.09	76.47
802.265	84.73
802.441	83.12
802.616	80.33
802.791	85.83
802.966	83.52
803.141	78.43
803.316	69.69
803.491	72.61
803.666	68.45
803.841	67.63
804.016	65.64
804.191	73.56
804.366	72.76
804.541	73.06
804.716	64.95
804.891	60.51
805.066	63.59
805.241	60.72
805.416	63.65
805.591	68.74
805.765	71.4
805.94	75.89
806.115	79.56
806.29	75.28
806.464	81.97
806.639	83.08
806.814	68.02
806.989	57.77
807.163	58.85
807.338	53.45
807.512	52.78
807.687	52.64
807.862	61.78
808.036	60.22
808.211	63.09
808.385	65.47
808.56	73.99
808.734	67.13
808.909	74.33
809.083	72.36
809.258	77.9
809.432	85.84
809.606	81.83
809.781	78.5
809.955	87.25
810.13	85.25
810.304	71.83
810.478	75.65
810.652	78
810.827	75.45
811.001	74.87
811.175	76.12
811.349	76.86
811.524	64.94
811.698	54.16
811.872	53.8
812.046	58.67
812.22	61.01
812.394	67.13
812.568	69.54
812.742	68.17
812.916	61.6
813.09	62.09
813.264	68.97
813.438	69.54
813.612	68.36
813.786	63.11
813.96	65.64
814.134	66.28
814.308	65.34
814.482	64.7
814.656	74.08
814.83	80.51
815.003	77.13
815.177	77.83
815.351	80.57
815.525	93.89
815.698	82.83
815.872	68.02
816.046	68.67
816.219	62.91
816.393	60.01
816.567	65.94
816.74	70.74
816.914	77.8
817.088	88.53
817.261	80.98
817.435	72.48
817.608	72.96
817.782	66.94
817.955	58.07
818.129	49.49
818.302	62.86
818.475	72.11
818.649	70.52
818.822	57.09
818.996	68.24
819.169	61.39
819.342	48.68
819.516	53.14
819.689	73.65
819.862	69.52
820.035	65.48
820.209	57.53
820.382	63.58
820.555	62.44
820.728	53.13
820.901	59.25
821.075	84.17
821.248	89.89
821.421	78.14
821.594	69.06
821.767	89
821.94	98.99
822.113	71.06
822.286	79.39
822.459	107.06
822.632	83.03
822.805	62.56
822.978	73.57
823.151	67.47
823.324	42.73
823.496	15.74
823.669	24.89
823.842	23.65
824.015	6.93
824.188	11.24
824.361	16.98
824.533	-0.38
824.706	21.77
824.879	37.72
825.051	56.59
825.224	66.39
825.397	76.87
825.569	56.85
825.742	63.75
825.915	66.82
826.087	58.38
826.26	51.02
826.432	53.5
826.605	54.23
826.777	51.18
826.95	56.52
827.122	57.49
827.295	59.3
827.467	53.66
827.64	29.76
827.812	21.04
827.984	25.62
828.157	28.49
828.329	23.19
828.501	35.61
828.674	53.52
828.846	61.48
829.018	67.87
829.19	71.03
829.363	80.99
829.535	71.75
829.707	79.83
829.879	47.78
830.051	42.49
830.223	44.14
830.395	28.92
830.568	12.16
830.74	25.96
830.912	47.69
831.084	31.17
831.256	33.04
831.428	24.31
831.6	15.99
831.772	-8.32
831.943	-0.63
832.115	26.22
832.287	45.66
832.459	46.52
832.631	53.13
832.803	66.21
832.975	52.39
833.146	55.64
833.318	61.62
833.49	62.72
833.662	52.68
833.833	52.27
834.005	47.94
834.177	60.82
834.348	40.7
834.52	21.42
834.692	17.87
834.863	14.35
835.035	2.1
835.206	27.36
835.378	41.27
835.549	34.5
835.721	37.82
835.892	29.84
836.064	18.46
836.235	48.37
836.407	75.11
836.578	58.84
836.749	69.09
836.921	78.03
837.092	39.35
837.264	-12.5
837.435	-19.49
837.606	-15.23
837.777	0.79
837.949	29.59
838.12	23.23
838.291	42.53
838.462	53.88
838.633	44.66
838.805	28.12
838.976	52.03
839.147	50.59
839.318	14.07
839.489	-11.26
839.66	-0.13
839.831	20.23
840.002	15.94
840.173	18.29
840.344	31.21
840.515	33.76
840.686	-3.38
840.857	-24.11
841.028	-10.01
841.199	25.37
841.369	12.57
841.54	26.63
841.711	60
841.882	52.81
842.053	22.72
842.223	8.42
842.394	24.75
842.565	34.32
842.736	43.88
842.906	51.51
843.077	74.12
843.248	77.16
843.418	46.85
843.589	39.15
843.759	67.25
843.93	68.79
844.101	65.08
844.271	77.96
844.442	94.98
844.612	82.73
844.783	53.08
844.953	28.74
845.123	39.08
845.294	30.81
845.464	9.92
845.635	27.85
845.805	55.66
845.975	52.84
846.146	21.55
846.316	23.35
846.486	26.86
846.656	12.42
846.827	-16.46
846.997	-3.29
847.167	0.59
847.337	-4.53
847.507	-5.77
847.677	-4.02
847.848	19.23
848.018	26.59
848.188	22.79
848.358	25.62
848.528	38.07
848.698	10.65
848.868	-10.65
849.038	-4.82
849.208	22.85
849.378	24.94
849.548	14.32
849.718	28.21
849.887	49.78
850.057	-24.88
850.227	-41.99
850.397	-23.83
850.567	-13.56
850.737	20.2
850.906	8.83
851.076	-31.11
851.246	-19.63
851.415	1.79
851.585	-27.53
851.755	-17.27
851.924	41.08
852.094	58.81
852.264	41.73
852.433	23.2
852.603	47.55
852.772	43.94
852.942	9.08
853.111	-17.71
853.281	46.8
853.45	37.76
853.62	11.42
853.789	-5.54
853.959	50.36
854.128	2.34
854.297	-28.34
854.467	-29.27
854.636	-10.34
854.805	-31.42
854.975	-29.98
855.144	-11.44
855.313	32.19
855.482	24.9
855.652	30.04
855.821	19.89
855.99	47.75
856.159	20.47
856.328	16.93
856.497	3.49
856.667	13.01
856.836	-4.37
857.005	-30.94
857.174	-69.55
857.343	-38.79
857.512	8.29
857.681	-54.09
857.85	-46.46
858.019	-28.12
858.188	-32.72
858.356	-65.61
858.525	-71.23
858.694	-64.78
858.863	-39.19
859.032	-60.28
859.201	-47.57
859.369	-9.56
859.538	3.27
859.707	-26.15
859.876	-37.96
860.044	-38.96
860.213	-20.7
860.382	-34.54
860.55	-3.09
860.719	48.9
860.888	79.61
861.056	51.24
861.225	27.44
861.393	59.34
861.562	60.87
861.73	4.09
861.899	29.2
862.067	24.19
862.236	15.26
862.404	-46.03
862.572	-60.92
862.741	-33.68
862.909	-30.85
863.078	-45.37
863.246	-29.26
863.414	6.26
863.582	-23.97
863.751	-18.32
863.919	-23.78
864.087	16.29
864.255	21.48
864.424	1.26
864.592	11.84
864.76	37.7
864.928	23.72
865.096	1.8
865.264	2.8
865.432	22.29
865.6	41.38
865.768	-6.3
865.936	-48.13
866.104	-4.35
866.272	-40.3
866.44	-73.83
866.608	-62.07
866.776	-78.34
866.944	-141.83
867.112	-219.58
867.28	-340.65
867.448	-708.66
867.615	-327.2
867.783	-75.65
867.951	-88.33
868.119	-37.74
868.286	-25.1
868.454	-44.39
868.622	-86.86
868.789	-55.88
868.957	-13.94
869.125	-40.52
869.292	-35.66
869.46	-25.94
869.627	-2.45
869.795	-55.31
869.963	-40.2
870.13	-4.35
870.298	-3.47
870.465	-45.61
870.632	-59.48
870.8	-102.36
870.967	-109.94
871.135	-156.19
871.302	-78.2
871.469	1.45
871.637	24.93
871.804	43.43
871.971	15.26
872.139	16.15
872.306	35.95
872.473	35.47
872.64	-19.01
872.807	26.01
872.975	10.94
873.142	-50.21
873.309	-46.9
873.476	37.89
873.643	30.58
873.81	48.98
873.977	56.42
874.144	50.14
874.311	58.61
874.478	15.25
874.645	-51.37
874.812	-256.28
874.979	8266.67
875.146	-287.44
875.313	-82.88
875.48	21.04
875.647	41.19
875.813	-24.59
875.98	-29.55
876.147	-44.23
876.314	-50.78
876.481	-122.89
876.647	-142.69
876.814	-69.78
876.981	-45.32
877.147	-96.65
877.314	-114.8
877.481	-41.76
877.647	-3.41
877.814	-26.02
877.98	-74.39
878.147	20.04
878.314	39.4
878.48	-30.62
878.647	-49.04
878.813	38.82
878.979	35.79
879.146	8.49
879.312	38.06
879.479	59.55
879.645	46.73
879.811	-17.27
879.978	14.72
880.144	25.71
880.31	21.97
880.477	-58.05
880.643	-21.97
880.809	-2.98
880.975	17.22
881.142	-35.93
881.308	1.85
881.474	27.53
881.64	12.89
881.806	-47.41
881.972	4.06
882.138	31.32
882.304	37.61
882.47	-6.39
882.636	-27.22
882.802	-83.97
882.968	-59.06
883.134	-112.01
883.3	-133.33
883.466	61.58
883.632	107
883.798	25.94
883.964	12.27
884.129	18.07
884.295	-32.55
884.461	-68.09
884.627	-74.22
884.793	-22.54
884.958	10.88
885.124	-22.23
885.29	-13.5
885.455	20.16
885.621	11.06
885.787	-148.44
885.952	-58.55
886.118	-58.4
886.283	-74.21
886.449	-106.84
886.614	-55.7
886.78	-33.05
886.945	24.03
887.111	-120.59
887.276	-142.41
887.442	-287.58
887.607	-297.35
887.773	-405.08
887.938	-329.42
888.103	-180.63
888.269	-96.48
888.434	-57.09
888.599	-23.13
888.764	38.01
888.93	41
889.095	13.09
889.26	1.72
889.425	42.74
889.59	87.53
889.756	69.67
889.921	63.57
890.086	77.52
890.251	68.18
890.416	-6.19
890.581	-23.09
890.746	3.59
890.911	48.33
891.076	-9.4
891.241	-44.44
891.406	-12.99
891.571	16.98
891.736	-36.16
891.901	-61.3
892.065	-12.18
892.23	8.69
892.395	-62.16
892.56	-103.49
892.725	10.2
892.889	32.14
893.054	-61.83
893.219	-55.26
893.384	-31.8
893.548	-99.35
893.713	-165.47
893.878	-120.26
