Data from Ofra_PP_Phys_0GT15_Reflection_3.txt Node
Date: Sat Jul 24 20:01:02 EDT 2021
User: USUARIO
Spectrometer: FLMT01687
Trigger mode: 0
Integration Time (sec): 1.100000E0
Scans to average: 2
Electric dark correction enabled: true
Nonlinearity correction enabled: false
Boxcar width: 2
XAxis mode: Wavelengths
Number of Pixels in Spectrum: 3648
>>>>>Begin Spectral Data<<<<<
179.494	290.95
179.716	403.16
179.937	683.13
180.158	646.21
180.38	337.94
180.601	-409.84
180.823	11.57
181.044	593.02
181.265	-16.13
181.486	-19.41
181.708	-53.71
181.929	-1068
182.15	413.25
182.372	-63.68
182.593	53300
182.814	432.31
183.035	175.05
183.257	143.24
183.478	51.15
183.699	74.77
183.92	43.52
184.141	30.75
184.363	0.1
184.584	48.35
184.805	25.33
185.026	43.73
185.247	30.09
185.468	19.6
185.689	11.78
185.91	27.91
186.132	11.68
186.353	22.81
186.574	35.22
186.795	37.53
187.016	12.05
187.237	22.84
187.458	31.12
187.679	64.97
187.9	77.22
188.121	110.86
188.342	124.28
188.563	89.98
188.784	78.63
189.005	64.21
189.226	60.22
189.447	50.98
189.667	67.24
189.888	59.91
190.109	45.35
190.33	25.34
190.551	12.9
190.772	15.6
190.993	1.07
191.214	-4.1
191.434	-10.81
191.655	19.73
191.876	-7.44
192.097	2.4
192.318	7.05
192.538	6.26
192.759	0.67
192.98	13.44
193.201	15.87
193.421	15.17
193.642	26.07
193.863	8.8
194.083	3.73
194.304	22.04
194.525	36.8
194.745	25.27
194.966	9.01
195.187	2.86
195.407	-54.05
195.628	-69.43
195.848	-26.39
196.069	22.21
196.29	47.12
196.51	48.68
196.731	37.64
196.951	32.95
197.172	-1.76
197.392	1.68
197.613	9.17
197.833	20.47
198.054	0.72
198.274	9.43
198.495	4.89
198.715	31.04
198.936	17.18
199.156	41.8
199.377	37.56
199.597	24.9
199.817	21.01
200.038	49.36
200.258	57.34
200.479	51.9
200.699	67.91
200.919	51.75
201.14	22.65
201.36	4.94
201.58	17.18
201.801	13.92
202.021	23.3
202.241	56.93
202.461	42.13
202.682	20.35
202.902	39.32
203.122	21.73
203.342	16.29
203.563	26.63
203.783	44.33
204.003	-17.61
204.223	-70.14
204.443	-35.25
204.663	1.34
204.884	-22.38
205.104	10.47
205.324	58.8
205.544	57.72
205.764	32.15
205.984	54.33
206.204	49.8
206.424	28.36
206.644	12.2
206.864	28.34
207.084	29.4
207.304	49.61
207.525	16.04
207.745	27.04
207.964	31.23
208.184	25.64
208.404	8.61
208.624	27.43
208.844	29.05
209.064	19.32
209.284	19.32
209.504	32.57
209.724	35.6
209.944	20.3
210.164	33.73
210.384	42.89
210.604	34.7
210.823	10.79
211.043	-8.62
211.263	-23.2
211.483	-48.83
211.703	-44.44
211.922	-15.87
212.142	31.42
212.362	46
212.582	38.85
212.801	45.05
213.021	27.66
213.241	15.76
213.461	0.63
213.68	-20.17
213.9	-27.88
214.12	-27.62
214.339	-35.72
214.559	-18.64
214.779	28.81
214.998	36.17
215.218	31.28
215.438	32.27
215.657	20.29
215.877	28.34
216.096	35.03
216.316	50.36
216.535	61.63
216.755	63.65
216.974	53.17
217.194	49.13
217.413	35.56
217.633	13.84
217.852	-31.99
218.072	-36.52
218.291	-56.34
218.511	-45.21
218.73	-56.59
218.95	-30.12
219.169	-31.45
219.389	-30.61
219.608	-31.24
219.827	13.4
220.047	19.67
220.266	20.31
220.485	18.51
220.705	35.07
220.924	-5.51
221.143	0.05
221.363	-6.97
221.582	27.36
221.801	21.01
222.021	43.98
222.24	58.06
222.459	79.4
222.678	57.91
222.897	33.91
223.117	37.08
223.336	13.29
223.555	18.39
223.774	36.62
223.993	51.1
224.213	66.29
224.432	63.96
224.651	73.1
224.87	49.77
225.089	51.62
225.308	33.27
225.527	43.24
225.746	39.99
225.965	30.69
226.184	39.11
226.404	46.81
226.623	35.93
226.842	31.86
227.061	52.63
227.28	42.54
227.499	65.06
227.718	66.52
227.936	64.93
228.155	83.31
228.374	62.57
228.593	28.06
228.812	24.76
229.031	27.77
229.25	-4.26
229.469	23.76
229.688	23.61
229.907	31.88
230.125	43.47
230.344	61.83
230.563	55.35
230.782	77.95
231.001	44.03
231.22	30.16
231.438	-9.22
231.657	1.15
231.876	-4.53
232.095	26.46
232.313	18.81
232.532	26.33
232.751	27.72
232.969	24.81
233.188	25.88
233.407	20.31
233.625	17.94
233.844	12.67
234.063	11.5
234.281	16.55
234.5	35.92
234.719	57.13
234.937	42.47
235.156	40.84
235.374	38.17
235.593	52.53
235.811	53.66
236.03	63.14
236.249	54.97
236.467	67.39
236.686	34.66
236.904	25.41
237.123	-8.81
237.341	-3.28
237.559	-28.91
237.778	-20.54
237.996	-33.5
238.215	-5.31
238.433	-11.18
238.652	-0.48
238.87	-22.58
239.088	-12.57
239.307	-8.17
239.525	-2.25
239.743	-6.62
239.962	11.33
240.18	-2.55
240.398	-34.19
240.617	-42.55
240.835	-29.05
241.053	-66.87
241.271	-53.11
241.49	1.1
241.708	14.46
241.926	12.19
242.144	39.4
242.363	40.05
242.581	40.1
242.799	49.55
243.017	35.5
243.235	15.93
243.453	28.43
243.672	12.49
243.89	12
244.108	27.03
244.326	39.2
244.544	30.26
244.762	21.36
244.98	22.56
245.198	19.07
245.416	5.43
245.634	12.66
245.852	34.24
246.07	14.15
246.288	23.81
246.506	28.49
246.724	28.26
246.942	28.11
247.16	27.1
247.378	22.55
247.596	20.63
247.814	16.89
248.032	-5.27
248.25	-1
248.468	2.37
248.685	10.02
248.903	1.95
249.121	2.29
249.339	-13.03
249.557	-21.55
249.775	-29.31
249.992	-41.14
250.21	-33.74
250.428	-7.55
250.646	2.48
250.863	7.38
251.081	22.86
251.299	25.78
251.517	25.96
251.734	12.31
251.952	7.68
252.17	14.33
252.387	23.21
252.605	8.27
252.823	23.67
253.04	36.11
253.258	39.56
253.475	43.17
253.693	62.66
253.911	63.67
254.128	59.24
254.346	58.63
254.563	43.21
254.781	30.21
254.998	31.76
255.216	22.36
255.433	21.55
255.651	37.99
255.868	37.22
256.086	32.02
256.303	32.87
256.521	21.14
256.738	20.69
256.956	25.12
257.173	34.3
257.39	36.73
257.608	32.33
257.825	32.52
258.043	41.82
258.26	40.15
258.477	30.09
258.695	40.44
258.912	18.17
259.129	14.3
259.346	-12.64
259.564	-13.78
259.781	-4.63
259.998	-1.97
260.216	18.64
260.433	34.52
260.65	31.94
260.867	20.39
261.084	17.93
261.302	9.36
261.519	23.25
261.736	21.31
261.953	30.59
262.17	37.03
262.387	26.39
262.604	14.43
262.822	14.03
263.039	3.66
263.256	7.17
263.473	20
263.69	7.17
263.907	26.71
264.124	24.74
264.341	36.12
264.558	32.84
264.775	36.45
264.992	42.48
265.209	47.55
265.426	35.16
265.643	40.02
265.86	45.69
266.077	46.51
266.294	48.77
266.51	48.61
266.727	37.03
266.944	52.44
267.161	41.7
267.378	42.39
267.595	48.46
267.812	36.71
268.028	32.43
268.245	27.15
268.462	23.58
268.679	13.02
268.896	29.46
269.112	6.82
269.329	12.09
269.546	21.24
269.763	24.93
269.979	10.89
270.196	15.82
270.413	15.19
270.629	4.97
270.846	3.87
271.063	16.99
271.279	7.24
271.496	1.7
271.712	11.17
271.929	10.82
272.146	20.54
272.362	34.35
272.579	61.71
272.795	54.75
273.012	73.84
273.228	53.02
273.445	35.52
273.661	4.7
273.878	-36.76
274.094	-52.29
274.311	-50.89
274.527	-28.1
274.744	-23.79
274.96	12.73
275.177	22.46
275.393	28.25
275.609	43.76
275.826	49.42
276.042	59.2
276.259	66.38
276.475	58.22
276.691	49.2
276.908	52.35
277.124	58.18
277.34	62.02
277.557	70.47
277.773	69.37
277.989	62.19
278.205	54.72
278.422	50.31
278.638	29.19
278.854	21.52
279.07	29.21
279.286	12.03
279.503	4.72
279.719	16.25
279.935	18.66
280.151	4.02
280.367	15.34
280.583	25.85
280.799	23.1
281.016	26.77
281.232	29.72
281.448	39.85
281.664	32.22
281.88	31.77
282.096	24.12
282.312	30.17
282.528	17.41
282.744	25.72
282.96	27.45
283.176	37.31
283.392	39.94
283.608	51.05
283.824	48.11
284.04	39.99
284.256	45.59
284.471	41.22
284.687	34.46
284.903	35.69
285.119	55
285.335	23.9
285.551	16.33
285.767	6.94
285.982	-6.06
286.198	-20.95
286.414	2.35
286.63	-0.68
286.846	12.7
287.061	5.83
287.277	14.34
287.493	26.17
287.709	37.84
287.924	42.35
288.14	69.37
288.356	73.57
288.571	75.18
288.787	67.51
289.003	67.92
289.218	49.46
289.434	19.79
289.65	23.96
289.865	22.79
290.081	18.42
290.296	22.37
290.512	28.5
290.727	23.55
290.943	16.55
291.159	7.86
291.374	6.65
291.59	-13.49
291.805	-18.67
292.021	10.96
292.236	11.13
292.451	15.43
292.667	31.21
292.882	31.55
293.098	36.9
293.313	33.86
293.529	33.89
293.744	26.02
293.959	25.23
294.175	12.35
294.39	34.55
294.605	36.06
294.821	30.94
295.036	22.58
295.251	19
295.467	11.5
295.682	10.06
295.897	4.22
296.112	8.12
296.328	7.88
296.543	-4.54
296.758	-13.05
296.973	14.72
297.188	29.24
297.404	20.59
297.619	31.34
297.834	37.87
298.049	27.13
298.264	18.86
298.479	38.54
298.694	35.35
298.909	33.19
299.125	45.62
299.34	48.57
299.555	39.59
299.77	38.5
299.985	14.4
300.2	1.42
300.415	-10.34
300.63	-11.98
300.845	0.17
301.06	6.14
301.275	0.55
301.49	13.86
301.704	3.93
301.919	-16.25
302.134	-10.85
302.349	14.22
302.564	-3.84
302.779	13.71
302.994	45.58
303.209	47.65
303.423	44.52
303.638	59.52
303.853	51.45
304.068	4.26
304.283	3.35
304.497	4.75
304.712	11.49
304.927	16.97
305.142	20.41
305.356	21.19
305.571	13.76
305.786	8.38
306	-3.18
306.215	16.49
306.43	-0.1
306.644	23.26
306.859	18.29
307.074	17.94
307.288	-6.46
307.503	3.89
307.717	-14.96
307.932	-10.08
308.147	-9.25
308.361	-0.45
308.576	-7.34
308.79	-27.96
309.005	-4.78
309.219	-17.34
309.434	-5.67
309.648	-7.34
309.863	18.57
310.077	11.5
310.292	31.58
310.506	28.38
310.72	53.62
310.935	43.48
311.149	40.87
311.364	36.26
311.578	41.05
311.792	36.21
312.007	34.53
312.221	13.91
312.435	17.93
312.649	-1.66
312.864	23.61
313.078	15.61
313.292	37.13
313.507	29.74
313.721	37.05
313.935	17.58
314.149	41.79
314.363	35.47
314.578	28.87
314.792	27.3
315.006	32.89
315.22	12.81
315.434	9.31
315.648	25.56
315.862	33.7
316.077	30.4
316.291	28.31
316.505	31.13
316.719	31.77
316.933	-6.4
317.147	-4.82
317.361	-7.55
317.575	3.28
317.789	-4.12
318.003	1.55
318.217	10.56
318.431	26.09
318.645	21.51
318.859	13.69
319.073	33.07
319.287	18.13
319.5	-0.37
319.714	-4.16
319.928	3.71
320.142	-2.74
320.356	25.65
320.57	34.89
320.784	29.76
320.997	33.63
321.211	35.35
321.425	18.07
321.639	-10.06
321.853	15.33
322.066	-3.82
322.28	-15.96
322.494	-6.07
322.707	53.36
322.921	31.35
323.135	49.19
323.349	47.84
323.562	39.39
323.776	-4.25
323.989	0.87
324.203	-11.4
324.417	-0.11
324.63	-14.41
324.844	-3.85
325.057	-8.23
325.271	-16.34
325.485	-33.72
325.698	-12.06
325.912	4.77
326.125	7.89
326.339	32.97
326.552	46.9
326.766	60.8
326.979	55.35
327.193	56.51
327.406	47.49
327.619	53.97
327.833	44.71
328.046	32.45
328.26	24.26
328.473	15.74
328.686	3.18
328.9	8.26
329.113	14.94
329.326	12.55
329.54	28.49
329.753	27.76
329.966	26.93
330.179	35.84
330.393	45.34
330.606	40.63
330.819	36.78
331.032	35.78
331.246	34.31
331.459	27.87
331.672	17.16
331.885	12.09
332.098	1.7
332.311	5.7
332.525	-3.45
332.738	1.39
332.951	17.32
333.164	23.71
333.377	26.14
333.59	34
333.803	37.17
334.016	28.09
334.229	34.43
334.442	35.72
334.655	54.65
334.868	62.25
335.081	66.76
335.294	63.41
335.507	67.78
335.72	63.06
335.933	33.15
336.146	18.09
336.359	5.91
336.572	-9.95
336.785	-27.55
336.997	-15.15
337.21	4.51
337.423	9.65
337.636	22.28
337.849	25.54
338.062	22.02
338.274	18.34
338.487	15.38
338.7	15.94
338.913	9.02
339.125	9.4
339.338	11.04
339.551	17.84
339.763	30.32
339.976	49.45
340.189	50.96
340.402	51.78
340.614	49.03
340.827	38.95
341.039	23.01
341.252	19.66
341.465	20.27
341.677	10.29
341.89	-21.83
342.102	-10.97
342.315	-8.74
342.527	-11.17
342.74	-2.02
342.952	24.64
343.165	27.16
343.377	39.66
343.59	33.24
343.802	41.55
344.015	38.32
344.227	38.87
344.44	25.19
344.652	30.77
344.864	31.4
345.077	35.81
345.289	35.53
345.502	42.15
345.714	32.49
345.926	31
346.139	33.14
346.351	23.57
346.563	22.65
346.775	28.89
346.988	13.99
347.2	8.06
347.412	-2.09
347.624	-8
347.837	-6.33
348.049	0.86
348.261	19.57
348.473	32.52
348.685	11.24
348.897	4.35
349.11	1.85
349.322	-18.84
349.534	0.83
349.746	25.71
349.958	34.01
350.17	34.93
350.382	35.59
350.594	35.15
350.806	34.56
351.018	29.97
351.23	22.95
351.442	29.79
351.654	29.33
351.866	13.3
352.078	17.95
352.29	24.43
352.502	28.55
352.714	35.59
352.926	48.02
353.138	41.19
353.35	39.13
353.561	33.27
353.773	9.01
353.985	2.25
354.197	2.95
354.409	4.94
354.621	0.99
354.832	15.37
355.044	9.68
355.256	7.64
355.468	9.53
355.679	12.56
355.891	7.22
356.103	22.78
356.314	28.59
356.526	32.43
356.738	46.61
356.949	47.28
357.161	46.13
357.373	44.03
357.584	38.49
357.796	23.08
358.008	19.52
358.219	25.47
358.431	18.31
358.642	28.91
358.854	40.12
359.065	40.97
359.277	27.85
359.488	26.1
359.7	17.48
359.911	15.26
360.123	22.28
360.334	21.24
360.546	21.47
360.757	19.78
360.969	9.93
361.18	7.99
361.391	5.34
361.603	-2.28
361.814	4.93
362.025	2.02
362.237	2.47
362.448	12.75
362.659	23.24
362.871	15.29
363.082	18.11
363.293	24.58
363.504	24.58
363.716	21.27
363.927	23.98
364.138	20.75
364.349	-0.84
364.56	-2.77
364.772	-12.73
364.983	-0.65
365.194	-1.33
365.405	12.19
365.616	1.33
365.827	4.29
366.038	-1.48
366.25	2.52
366.461	-12.02
366.672	14.22
366.883	15.62
367.094	11.8
367.305	1.78
367.516	19.87
367.727	5.57
367.938	5.41
368.149	8.97
368.36	18
368.571	5.82
368.781	6.09
368.992	8.82
369.203	17.55
369.414	13.23
369.625	16.87
369.836	13.02
370.047	3.32
370.258	-10.07
370.468	-5.27
370.679	-21.53
370.89	-7.3
371.101	17.5
371.312	13.27
371.522	14.44
371.733	28.09
371.944	29.82
372.155	17.04
372.365	11.26
372.576	19.98
372.787	20.66
372.997	14.48
373.208	16.41
373.419	22.48
373.629	-0.84
373.84	0.9
374.05	-8.57
374.261	0.78
374.472	3.96
374.682	24.56
374.893	7.75
375.103	27.97
375.314	20.47
375.524	20.98
375.735	28.63
375.945	40.01
376.156	21.39
376.366	28.09
376.577	27.62
376.787	26.96
376.997	31.98
377.208	36.86
377.418	21.33
377.629	27.44
377.839	14.05
378.049	11.55
378.26	17.61
378.47	36.08
378.68	35.09
378.89	43.66
379.101	43.9
379.311	35.98
379.521	20.32
379.732	23.07
379.942	11.25
380.152	13.68
380.362	18.03
380.572	13.37
380.783	15.47
380.993	19.93
381.203	17.3
381.413	22.99
381.623	30.78
381.833	26.67
382.043	13.42
382.253	13.4
382.463	13.6
382.674	7.74
382.884	4.17
383.094	14.51
383.304	14.6
383.514	9.39
383.724	12.72
383.934	9.64
384.144	2.56
384.353	3.61
384.563	11.48
384.773	15.83
384.983	18.52
385.193	28.27
385.403	16.45
385.613	12.35
385.823	11.46
386.033	14.05
386.242	8.6
386.452	14.33
386.662	9.56
386.872	11.32
387.082	11.17
387.291	4.48
387.501	4.47
387.711	3.16
387.921	-7.09
388.13	-3.23
388.34	2.96
388.55	4.1
388.759	5.17
388.969	8.53
389.179	6.29
389.388	6.3
389.598	7.07
389.807	6.97
390.017	10.39
390.227	8.19
390.436	9.07
390.646	12.47
390.855	12.2
391.065	10.6
391.274	8.64
391.484	3.98
391.693	1.82
391.903	2.69
392.112	3.94
392.322	8.25
392.531	12.37
392.74	11.04
392.95	8.12
393.159	7.04
393.369	6.45
393.578	4.19
393.787	4.55
393.997	7.7
394.206	7.18
394.415	7.45
394.625	7.51
394.834	7.21
395.043	5.65
395.252	7
395.462	6.88
395.671	7.19
395.88	8.79
396.089	9.72
396.298	8.81
396.508	7.84
396.717	8.14
396.926	6.82
397.135	6.38
397.344	6.33
397.553	6.49
397.762	6.99
397.971	7.05
398.181	7.26
398.39	6.4
398.599	6.48
398.808	5.55
399.017	5.66
399.226	5.46
399.435	6.01
399.644	5.94
399.853	6.19
400.062	5.56
400.27	5.63
400.479	5.5
400.688	5.26
400.897	5.36
401.106	5.55
401.315	5.37
401.524	5.57
401.733	5.87
401.941	6.05
402.15	6.26
402.359	6.28
402.568	6.31
402.777	6.07
402.985	5.77
403.194	5.65
403.403	5.74
403.612	5.42
403.82	5.48
404.029	5.52
404.238	5.4
404.446	5.35
404.655	5.27
404.864	5.26
405.072	5.17
405.281	5.23
405.489	5.01
405.698	5.05
405.906	4.88
406.115	4.76
406.324	4.64
406.532	4.79
406.741	4.93
406.949	4.88
407.158	4.98
407.366	5.07
407.574	5.14
407.783	5.01
407.991	5.09
408.2	5.04
408.408	4.81
408.617	4.61
408.825	4.55
409.033	4.62
409.242	4.56
409.45	4.62
409.658	4.57
409.867	4.64
410.075	4.53
410.283	4.53
410.491	4.66
410.7	4.65
410.908	4.59
411.116	4.5
411.324	4.43
411.533	4.37
411.741	4.34
411.949	4.32
412.157	4.21
412.365	4.32
412.573	4.27
412.781	4.39
412.99	4.38
413.198	4.64
413.406	4.7
413.614	4.7
413.822	4.68
414.03	4.68
414.238	4.48
414.446	4.35
414.654	4.23
414.862	4.15
415.07	4.12
415.278	4.28
415.486	4.12
415.694	4.25
415.902	4.22
416.109	4.21
416.317	4.21
416.525	4.19
416.733	4.17
416.941	4.22
417.149	4.23
417.357	4.13
417.564	4.33
417.772	4.27
417.98	4.2
418.188	4.09
418.395	4.07
418.603	4.15
418.811	4.1
419.019	4
419.226	4.22
419.434	4.32
419.642	4.21
419.849	4.15
420.057	4.35
420.265	4.27
420.472	4.12
420.68	4.12
420.887	4.13
421.095	4.16
421.302	4.06
421.51	4.13
421.717	4.12
421.925	4.24
422.132	4.1
422.34	4.02
422.547	3.85
422.755	3.9
422.962	3.88
423.17	3.88
423.377	3.97
423.585	4.18
423.792	4.02
423.999	4.06
424.207	4.1
424.414	4.05
424.621	4.01
424.829	4.07
425.036	4.01
425.243	3.87
425.451	3.86
425.658	3.79
425.865	3.69
426.072	3.69
426.28	3.74
426.487	3.64
426.694	3.71
426.901	3.84
427.108	3.8
427.315	3.77
427.523	4.01
427.73	3.88
427.937	3.75
428.144	3.72
428.351	3.64
428.558	3.53
428.765	3.53
428.972	3.41
429.179	3.39
429.386	3.55
429.593	3.61
429.8	3.57
430.007	3.81
430.214	3.86
430.421	3.92
430.628	3.88
430.835	3.78
431.042	3.9
431.249	3.95
431.456	3.91
431.662	3.93
431.869	3.94
432.076	3.74
432.283	3.63
432.49	3.48
432.697	3.46
432.903	3.46
433.11	3.58
433.317	3.66
433.524	3.85
433.73	3.79
433.937	3.87
434.144	3.77
434.35	3.72
434.557	3.6
434.764	3.55
434.97	3.61
435.177	3.65
435.384	3.53
435.59	3.58
435.797	3.73
436.003	3.7
436.21	3.66
436.416	3.76
436.623	3.72
436.829	3.58
437.036	3.57
437.242	3.57
437.449	3.51
437.655	3.45
437.862	3.52
438.068	3.54
438.275	3.65
438.481	3.83
438.687	3.87
438.894	3.9
439.1	3.8
439.307	3.77
439.513	3.58
439.719	3.58
439.926	3.5
440.132	3.63
440.338	3.59
440.544	3.75
440.751	3.72
440.957	3.83
441.163	3.58
441.369	3.6
441.575	3.44
441.782	3.48
441.988	3.39
442.194	3.58
442.4	3.49
442.606	3.63
442.812	3.64
443.018	3.64
443.224	3.67
443.431	3.66
443.637	3.55
443.843	3.45
444.049	3.45
444.255	3.36
444.461	3.4
444.667	3.4
444.873	3.4
445.079	3.52
445.284	3.57
445.49	3.42
445.696	3.35
445.902	3.42
446.108	3.36
446.314	3.29
446.52	3.46
446.726	3.7
446.931	3.68
447.137	3.64
447.343	3.73
447.549	3.6
447.755	3.53
447.96	3.54
448.166	3.53
448.372	3.58
448.578	3.63
448.783	3.6
448.989	3.67
449.195	3.84
449.4	3.8
449.606	3.76
449.812	3.75
450.017	3.76
450.223	3.71
450.428	3.52
450.634	3.69
450.84	3.71
451.045	3.56
451.251	3.45
451.456	3.56
451.662	3.54
451.867	3.62
452.073	3.64
452.278	3.65
452.483	3.78
452.689	3.69
452.894	3.7
453.1	3.78
453.305	3.72
453.51	3.63
453.716	3.63
453.921	3.61
454.127	3.6
454.332	3.64
454.537	3.64
454.742	3.68
454.948	3.7
455.153	3.57
455.358	3.64
455.563	3.63
455.769	3.59
455.974	3.55
456.179	3.62
456.384	3.6
456.589	3.61
456.795	3.54
457	3.51
457.205	3.5
457.41	3.41
457.615	3.44
457.82	3.47
458.025	3.51
458.23	3.48
458.435	3.63
458.64	3.49
458.845	3.53
459.05	3.41
459.255	3.35
459.46	3.2
459.665	3.31
459.87	3.3
460.075	3.27
460.28	3.32
460.485	3.41
460.69	3.41
460.895	3.26
461.099	3.29
461.304	3.39
461.509	3.39
461.714	3.31
461.919	3.38
462.123	3.44
462.328	3.34
462.533	3.25
462.738	3.34
462.942	3.36
463.147	3.37
463.352	3.46
463.556	3.5
463.761	3.48
463.966	3.54
464.17	3.6
464.375	3.58
464.58	3.53
464.784	3.56
464.989	3.48
465.193	3.39
465.398	3.42
465.602	3.57
465.807	3.45
466.011	3.49
466.216	3.54
466.42	3.58
466.625	3.5
466.829	3.69
467.034	3.77
467.238	3.75
467.443	3.68
467.647	3.57
467.851	3.5
468.056	3.44
468.26	3.4
468.464	3.33
468.669	3.43
468.873	3.47
469.077	3.59
469.282	3.55
469.486	3.7
469.69	3.73
469.894	3.7
470.099	3.59
470.303	3.59
470.507	3.51
470.711	3.45
470.915	3.38
471.119	3.36
471.324	3.48
471.528	3.44
471.732	3.49
471.936	3.59
472.14	3.71
472.344	3.66
472.548	3.74
472.752	3.78
472.956	3.82
473.16	3.76
473.364	3.75
473.568	3.78
473.772	3.72
473.976	3.74
474.18	3.69
474.384	3.7
474.588	3.6
474.792	3.58
474.995	3.58
475.199	3.61
475.403	3.68
475.607	3.72
475.811	3.71
476.015	3.66
476.218	3.67
476.422	3.61
476.626	3.7
476.83	3.78
477.033	3.76
477.237	3.7
477.441	3.73
477.644	3.66
477.848	3.59
478.052	3.5
478.255	3.58
478.459	3.64
478.663	3.69
478.866	3.69
479.07	3.85
479.273	3.93
479.477	3.93
479.681	3.92
479.884	3.97
480.088	3.86
480.291	3.82
480.495	3.66
480.698	3.7
480.901	3.74
481.105	3.82
481.308	3.75
481.512	3.8
481.715	3.78
481.919	3.79
482.122	3.79
482.325	3.87
482.529	3.93
482.732	3.92
482.935	3.86
483.138	3.78
483.342	3.76
483.545	3.8
483.748	3.84
483.952	3.89
484.155	4.06
484.358	4.08
484.561	4.06
484.764	4.09
484.967	4.08
485.171	4.06
485.374	3.93
485.577	3.96
485.78	3.91
485.983	3.9
486.186	3.82
486.389	3.93
486.592	3.92
486.795	3.95
486.998	3.94
487.201	4.02
487.404	4.04
487.607	4.1
487.81	4.04
488.013	4.06
488.216	4.07
488.419	4.08
488.622	3.98
488.825	3.98
489.028	4.02
489.231	3.97
489.433	3.9
489.636	3.93
489.839	3.91
490.042	3.9
490.245	3.89
490.447	3.94
490.65	3.92
490.853	4.02
491.056	4.03
491.258	4.03
491.461	4.04
491.664	4.08
491.866	3.98
492.069	4
492.272	4.01
492.474	4.07
492.677	4.11
492.879	4.14
493.082	4.2
493.285	4.29
493.487	4.21
493.69	4.15
493.892	4.13
494.095	4.11
494.297	3.99
494.5	4.07
494.702	4.12
494.905	4.2
495.107	4.23
495.309	4.33
495.512	4.32
495.714	4.35
495.917	4.41
496.119	4.39
496.321	4.44
496.524	4.55
496.726	4.57
496.928	4.52
497.13	4.53
497.333	4.51
497.535	4.48
497.737	4.41
497.939	4.37
498.142	4.45
498.344	4.37
498.546	4.32
498.748	4.38
498.95	4.43
499.152	4.34
499.355	4.42
499.557	4.44
499.759	4.47
499.961	4.48
500.163	4.52
500.365	4.58
500.567	4.61
500.769	4.58
500.971	4.68
501.173	4.56
501.375	4.51
501.577	4.44
501.779	4.43
501.981	4.37
502.183	4.48
502.385	4.48
502.587	4.53
502.788	4.61
502.99	4.69
503.192	4.78
503.394	4.79
503.596	4.82
503.798	4.87
503.999	4.87
504.201	4.88
504.403	4.94
504.605	5.02
504.806	4.99
505.008	4.99
505.21	5
505.411	5.03
505.613	4.96
505.815	5.02
506.016	5.06
506.218	5.07
506.42	5
506.621	5.03
506.823	4.99
507.024	5
507.226	5.06
507.427	5.09
507.629	5.19
507.83	5.2
508.032	5.15
508.233	5.21
508.435	5.28
508.636	5.27
508.838	5.24
509.039	5.31
509.24	5.2
509.442	5.25
509.643	5.24
509.845	5.32
510.046	5.36
510.247	5.4
510.448	5.41
510.65	5.45
510.851	5.56
511.052	5.52
511.254	5.53
511.455	5.58
511.656	5.58
511.857	5.48
512.058	5.5
512.26	5.55
512.461	5.52
512.662	5.55
512.863	5.49
513.064	5.49
513.265	5.52
513.466	5.54
513.667	5.54
513.868	5.68
514.069	5.78
514.27	5.75
514.471	5.73
514.672	5.86
514.873	5.84
515.074	5.86
515.275	5.91
515.476	5.99
515.677	5.88
515.878	6
516.079	5.94
516.28	5.96
516.481	5.99
516.682	6.04
516.882	5.95
517.083	6.05
517.284	6.01
517.485	5.96
517.686	6.02
517.886	6.04
518.087	5.99
518.288	6.08
518.488	6.12
518.689	6.05
518.89	6.06
519.091	6.08
519.291	6.03
519.492	6.04
519.692	6.1
519.893	6.17
520.094	6.22
520.294	6.24
520.495	6.26
520.695	6.36
520.896	6.39
521.096	6.41
521.297	6.48
521.497	6.54
521.698	6.49
521.898	6.44
522.099	6.4
522.299	6.38
522.499	6.34
522.7	6.4
522.9	6.42
523.101	6.52
523.301	6.55
523.501	6.56
523.702	6.55
523.902	6.6
524.102	6.65
524.302	6.72
524.503	6.78
524.703	6.83
524.903	6.8
525.103	6.75
525.304	6.76
525.504	6.84
525.704	6.83
525.904	6.88
526.104	6.91
526.304	6.93
526.504	6.88
526.705	6.91
526.905	6.98
527.105	7.03
527.305	7.04
527.505	7.02
527.705	7.03
527.905	6.99
528.105	6.98
528.305	6.93
528.505	7.02
528.705	7.06
528.905	7.07
529.105	7.08
529.304	7.22
529.504	7.25
529.704	7.29
529.904	7.35
530.104	7.36
530.304	7.39
530.503	7.39
530.703	7.34
530.903	7.33
531.103	7.38
531.303	7.31
531.502	7.34
531.702	7.39
531.902	7.43
532.101	7.43
532.301	7.47
532.501	7.43
532.7	7.45
532.9	7.44
533.1	7.49
533.299	7.49
533.499	7.57
533.698	7.57
533.898	7.62
534.097	7.65
534.297	7.75
534.496	7.75
534.696	7.85
534.895	7.93
535.095	7.96
535.294	7.96
535.494	7.91
535.693	7.83
535.892	7.82
536.092	7.83
536.291	7.84
536.491	7.9
536.69	8.04
536.889	7.95
537.088	7.95
537.288	8.02
537.487	8.06
537.686	8.06
537.886	8.21
538.085	8.28
538.284	8.27
538.483	8.32
538.682	8.41
538.882	8.41
539.081	8.46
539.28	8.46
539.479	8.5
539.678	8.43
539.877	8.43
540.076	8.48
540.275	8.6
540.474	8.62
540.673	8.72
540.872	8.75
541.071	8.79
541.27	8.75
541.469	8.84
541.668	8.83
541.867	8.9
542.066	8.91
542.265	9.01
542.464	8.99
542.663	9.05
542.862	9.14
543.06	9.19
543.259	9.18
543.458	9.27
543.657	9.27
543.856	9.28
544.054	9.31
544.253	9.32
544.452	9.29
544.651	9.33
544.849	9.33
545.048	9.37
545.247	9.45
545.445	9.54
545.644	9.65
545.843	9.71
546.041	9.76
546.24	9.84
546.438	9.89
546.637	9.95
546.836	10.07
547.034	10.15
547.233	10.22
547.431	10.19
547.63	10.25
547.828	10.23
548.027	10.3
548.225	10.3
548.423	10.45
548.622	10.52
548.82	10.63
549.019	10.69
549.217	10.81
549.415	10.89
549.614	10.92
549.812	10.88
550.01	10.91
550.209	10.92
550.407	11
550.605	11.11
550.803	11.24
551.002	11.37
551.2	11.49
551.398	11.55
551.596	11.58
551.794	11.69
551.993	11.78
552.191	11.86
552.389	11.93
552.587	12.02
552.785	12.08
552.983	12.14
553.181	12.24
553.379	12.28
553.577	12.27
553.775	12.41
553.973	12.43
554.171	12.54
554.369	12.61
554.567	12.78
554.765	12.81
554.963	12.94
555.161	12.95
555.359	13.08
555.557	13.19
555.755	13.29
555.952	13.38
556.15	13.46
556.348	13.57
556.546	13.68
556.744	13.73
556.941	13.79
557.139	13.88
557.337	13.94
557.535	14.06
557.732	14.21
557.93	14.32
558.128	14.41
558.325	14.54
558.523	14.54
558.721	14.7
558.918	14.81
559.116	14.9
559.313	14.97
559.511	15.13
559.708	15.16
559.906	15.24
560.104	15.42
560.301	15.6
560.498	15.76
560.696	15.81
560.893	15.88
561.091	15.94
561.288	15.99
561.486	16.02
561.683	16.14
561.88	16.26
562.078	16.33
562.275	16.38
562.473	16.45
562.67	16.58
562.867	16.68
563.064	16.87
563.262	16.94
563.459	17.1
563.656	17.22
563.853	17.34
564.051	17.37
564.248	17.6
564.445	17.66
564.642	17.72
564.839	17.79
565.036	17.94
565.234	18.03
565.431	18.13
565.628	18.22
565.825	18.35
566.022	18.33
566.219	18.37
566.416	18.47
566.613	18.54
566.81	18.58
567.007	18.67
567.204	18.71
567.401	18.73
567.598	18.79
567.795	18.87
567.991	18.94
568.188	19.08
568.385	19.16
568.582	19.26
568.779	19.29
568.976	19.39
569.172	19.35
569.369	19.38
569.566	19.41
569.763	19.43
569.96	19.51
570.156	19.65
570.353	19.69
570.55	19.77
570.746	19.95
570.943	19.9
571.14	19.91
571.336	19.96
571.533	20.03
571.729	20.05
571.926	20.16
572.123	20.18
572.319	20.29
572.516	20.27
572.712	20.27
572.909	20.32
573.105	20.38
573.302	20.42
573.498	20.48
573.695	20.47
573.891	20.52
574.087	20.58
574.284	20.52
574.48	20.49
574.677	20.53
574.873	20.52
575.069	20.49
575.266	20.59
575.462	20.65
575.658	20.7
575.854	20.77
576.051	20.8
576.247	20.78
576.443	20.76
576.639	20.85
576.835	20.74
577.032	20.77
577.228	20.72
577.424	20.71
577.62	20.54
577.816	20.61
578.012	20.63
578.208	20.73
578.404	20.77
578.6	20.82
578.796	20.84
578.993	20.77
579.189	20.7
579.384	20.67
579.58	20.65
579.776	20.7
579.972	20.65
580.168	20.63
580.364	20.59
580.56	20.61
580.756	20.54
580.952	20.5
581.148	20.46
581.343	20.51
581.539	20.45
581.735	20.34
581.931	20.45
582.127	20.39
582.322	20.31
582.518	20.35
582.714	20.39
582.909	20.28
583.105	20.34
583.301	20.35
583.496	20.33
583.692	20.28
583.888	20.29
584.083	20.23
584.279	20.26
584.474	20.2
584.67	20.19
584.866	20.13
585.061	20.13
585.257	20.09
585.452	19.99
585.648	19.94
585.843	20
586.039	19.93
586.234	19.91
586.429	19.94
586.625	20.01
586.82	19.92
587.015	19.96
587.211	19.95
587.406	19.94
587.601	19.85
587.797	19.82
587.992	19.72
588.187	19.71
588.383	19.69
588.578	19.7
588.773	19.79
588.968	19.86
589.163	19.8
589.359	19.76
589.554	19.68
589.749	19.66
589.944	19.71
590.139	19.8
590.334	19.82
590.529	19.98
590.724	19.94
590.919	19.89
591.114	19.88
591.309	19.99
591.504	20.01
591.699	19.97
591.894	20.03
592.089	19.93
592.284	19.91
592.479	19.81
592.674	19.83
592.869	19.8
593.064	19.92
593.259	19.93
593.454	19.98
593.648	20.08
593.843	20.1
594.038	20.1
594.233	20.1
594.428	20.11
594.622	20.1
594.817	20.1
595.012	20.12
595.206	20.18
595.401	20.28
595.596	20.3
595.79	20.43
595.985	20.49
596.18	20.56
596.374	20.6
596.569	20.65
596.763	20.63
596.958	20.7
597.153	20.73
597.347	20.76
597.542	20.99
597.736	20.97
597.931	20.97
598.125	21.05
598.319	21.15
598.514	21.15
598.708	21.32
598.903	21.32
599.097	21.33
599.291	21.24
599.486	21.2
599.68	21.17
599.874	21.31
600.069	21.29
600.263	21.32
600.457	21.39
600.651	21.46
600.846	21.45
601.04	21.51
601.234	21.47
601.428	21.52
601.622	21.5
601.817	21.51
602.011	21.44
602.205	21.55
602.399	21.4
602.593	21.36
602.787	21.39
602.981	21.47
603.175	21.43
603.369	21.46
603.563	21.58
603.757	21.61
603.951	21.54
604.145	21.58
604.339	21.57
604.533	21.45
604.727	21.35
604.921	21.33
605.115	21.17
605.309	21.17
605.502	21.12
605.696	21.13
605.89	21.08
606.084	21.08
606.278	20.94
606.471	20.91
606.665	20.83
606.859	20.76
607.053	20.84
607.246	20.95
607.44	20.91
607.634	20.83
607.827	20.83
608.021	20.69
608.214	20.61
608.408	20.56
608.602	20.51
608.795	20.42
608.989	20.44
609.182	20.4
609.376	20.34
609.569	20.35
609.763	20.27
609.956	20.17
610.15	20.03
610.343	19.93
610.537	19.79
610.73	19.86
610.923	19.77
611.117	19.71
611.31	19.61
611.504	19.59
611.697	19.42
611.89	19.3
612.083	19.24
612.277	19.24
612.47	19.19
612.663	19.1
612.856	19.05
613.05	19
613.243	18.95
613.436	18.8
613.629	18.75
613.822	18.68
614.015	18.68
614.209	18.58
614.402	18.56
614.595	18.53
614.788	18.49
614.981	18.4
615.174	18.31
615.367	18.24
615.56	18.11
615.753	18.02
615.946	17.85
616.139	17.86
616.332	17.84
616.525	17.78
616.718	17.8
616.911	17.78
617.103	17.69
617.296	17.67
617.489	17.69
617.682	17.69
617.875	17.68
618.067	17.68
618.26	17.52
618.453	17.53
618.646	17.43
618.838	17.41
619.031	17.31
619.224	17.26
619.417	17.18
619.609	17.2
619.802	17.15
619.994	17.18
620.187	17.28
620.38	17.21
620.572	17.1
620.765	17.11
620.957	16.99
621.15	16.82
621.342	16.76
621.535	16.78
621.727	16.74
621.92	16.74
622.112	16.76
622.305	16.81
622.497	16.7
622.69	16.66
622.882	16.58
623.074	16.61
623.267	16.54
623.459	16.48
623.651	16.4
623.844	16.49
624.036	16.43
624.228	16.39
624.42	16.42
624.613	16.42
624.805	16.36
624.997	16.24
625.189	16.14
625.381	16.18
625.574	16.15
625.766	16.03
625.958	16.11
626.15	16.15
626.342	16.09
626.534	16.07
626.726	16.08
626.918	16.03
627.11	16.02
627.302	15.93
627.494	15.79
627.686	15.72
627.878	15.61
628.07	15.53
628.262	15.48
628.454	15.51
628.646	15.51
628.838	15.54
629.029	15.47
629.221	15.48
629.413	15.39
629.605	15.36
629.797	15.29
629.989	15.35
630.18	15.35
630.372	15.35
630.564	15.27
630.755	15.29
630.947	15.31
631.139	15.15
631.33	15.09
631.522	15.16
631.714	15.07
631.905	14.89
632.097	14.91
632.289	14.94
632.48	14.83
632.672	14.71
632.863	14.62
633.055	14.58
633.246	14.5
633.438	14.43
633.629	14.44
633.821	14.49
634.012	14.45
634.203	14.37
634.395	14.31
634.586	14.38
634.777	14.27
634.969	14.22
635.16	14.16
635.351	14.2
635.543	14.08
635.734	14.03
635.925	14.02
636.117	14.09
636.308	13.92
636.499	13.92
636.69	13.9
636.881	13.85
637.073	13.79
637.264	13.78
637.455	13.64
637.646	13.69
637.837	13.67
638.028	13.56
638.219	13.55
638.41	13.57
638.601	13.47
638.792	13.39
638.983	13.32
639.174	13.23
639.365	13.12
639.556	13.09
639.747	13
639.938	13.01
640.129	13.1
640.32	13.05
640.511	13.04
640.701	13.05
640.892	13.03
641.083	12.93
641.274	12.9
641.465	12.85
641.655	12.84
641.846	12.78
642.037	12.69
642.228	12.71
642.418	12.62
642.609	12.45
642.8	12.43
642.99	12.37
643.181	12.31
643.372	12.28
643.562	12.34
643.753	12.32
643.943	12.32
644.134	12.19
644.324	12.14
644.515	12.07
644.705	12.02
644.896	11.97
645.086	11.9
645.277	11.8
645.467	11.72
645.658	11.6
645.848	11.57
646.038	11.66
646.229	11.77
646.419	11.74
646.61	11.69
646.8	11.63
646.99	11.53
647.18	11.41
647.371	11.35
647.561	11.27
647.751	11.28
647.941	11.26
648.132	11.26
648.322	11.25
648.512	11.31
648.702	11.21
648.892	11.18
649.082	11.14
649.272	11.07
649.462	10.98
649.653	10.88
649.843	10.8
650.033	10.78
650.223	10.71
650.413	10.68
650.603	10.76
650.793	10.74
650.983	10.66
651.172	10.6
651.362	10.58
651.552	10.47
651.742	10.42
651.932	10.38
652.122	10.45
652.312	10.42
652.502	10.43
652.691	10.42
652.881	10.34
653.071	10.3
653.261	10.16
653.45	10.04
653.64	10.01
653.83	10.01
654.019	9.95
654.209	10.01
654.399	10.06
654.588	9.96
654.778	9.9
654.968	9.77
655.157	9.68
655.347	9.61
655.536	9.52
655.726	9.51
655.915	9.44
656.105	9.39
656.294	9.21
656.484	9.06
656.673	8.95
656.863	8.85
657.052	8.72
657.241	8.63
657.431	8.61
657.62	8.4
657.809	8.3
657.999	8.21
658.188	8.12
658.377	8.1
658.567	8.06
658.756	8.08
658.945	7.93
659.134	7.83
659.324	7.65
659.513	7.57
659.702	7.28
659.891	7.29
660.08	7.22
660.269	7.24
660.458	7.17
660.648	7.26
660.837	7.13
661.026	7.01
661.215	6.83
661.404	6.66
661.593	6.64
661.782	6.46
661.971	6.45
662.16	6.41
662.349	6.36
662.538	6.12
662.726	6.24
662.915	6.2
663.104	6.02
663.293	5.95
663.482	5.94
663.671	5.78
663.86	5.63
664.048	5.57
664.237	5.54
664.426	5.44
664.615	5.43
664.803	5.41
664.992	5.49
665.181	5.45
665.369	5.34
665.558	5.29
665.747	5.23
665.935	5.27
666.124	5.27
666.312	5.36
666.501	5.29
666.69	5.23
666.878	5.14
667.067	5.08
667.255	5.11
667.444	5.17
667.632	5.22
667.82	5.2
668.009	5.18
668.197	5.17
668.386	5.14
668.574	5.16
668.762	5.16
668.951	5.17
669.139	5.1
669.327	5.09
669.516	5.06
669.704	5.16
669.892	5.18
670.08	5.23
670.269	5.19
670.457	5.18
670.645	5.11
670.833	5.12
671.021	5.06
671.21	5.14
671.398	5.36
671.586	5.38
671.774	5.45
671.962	5.55
672.15	5.44
672.338	5.26
672.526	5.29
672.714	5.21
672.902	5.23
673.09	5.4
673.278	5.51
673.466	5.45
673.654	5.69
673.842	5.67
674.03	5.78
674.218	5.77
674.405	5.93
674.593	5.89
674.781	5.96
674.969	5.86
675.157	6.01
675.344	5.96
675.532	5.95
675.72	6.01
675.908	6.16
676.095	6.05
676.283	6.11
676.471	6.28
676.658	6.35
676.846	6.3
677.033	6.47
677.221	6.54
677.409	6.5
677.596	6.53
677.784	6.66
677.971	6.76
678.159	6.94
678.346	6.94
678.534	6.93
678.721	7.11
678.909	7.09
679.096	7.1
679.283	7.26
679.471	7.37
679.658	7.39
679.846	7.51
680.033	7.53
680.22	7.55
680.408	7.54
680.595	7.6
680.782	7.65
680.969	7.77
681.157	7.77
681.344	7.86
681.531	7.86
681.718	7.91
681.905	7.97
682.093	8.05
682.28	8.29
682.467	8.42
682.654	8.55
682.841	8.57
683.028	8.72
683.215	8.88
683.402	8.81
683.589	8.94
683.776	9.18
683.963	9.29
684.15	9.43
684.337	9.63
684.524	9.7
684.711	9.87
684.898	10.07
685.085	10.06
685.271	10.46
685.458	10.83
685.645	10.98
685.832	11.25
686.019	11.55
686.205	11.71
686.392	11.9
686.579	12.11
686.766	12.29
686.952	12.52
687.139	12.79
687.326	12.92
687.512	13.22
687.699	13.48
687.886	13.79
688.072	14.17
688.259	14.68
688.445	15.06
688.632	15.42
688.818	16.03
689.005	16.35
689.191	16.72
689.378	17.15
689.564	17.69
689.751	17.82
689.937	18.25
690.124	18.66
690.31	19.16
690.496	19.57
690.683	20.35
690.869	20.88
691.055	21.4
691.242	22.05
691.428	22.58
691.614	23.09
691.8	23.73
691.987	24.35
692.173	24.78
692.359	25.39
692.545	26.01
692.731	26.26
692.918	26.71
693.104	27.41
693.29	27.98
693.476	28.38
693.662	29.4
693.848	30.07
694.034	30.72
694.22	31.47
694.406	32.46
694.592	32.86
694.778	33.43
694.964	33.89
695.15	34.38
695.336	34.64
695.522	35.47
695.708	36.39
695.894	37.04
696.08	37.6
696.265	38.23
696.451	38.72
696.637	39.12
696.823	39.66
697.009	40.35
697.194	41.09
697.38	41.63
697.566	42.29
697.751	42.9
697.937	43.55
698.123	44.07
698.308	44.64
698.494	45.2
698.68	45.85
698.865	46.17
699.051	46.91
699.236	47.76
699.422	48.26
699.607	48.8
699.793	49.6
699.978	49.87
700.164	50.13
700.349	50.65
700.535	51.35
700.72	51.78
700.906	52.39
701.091	52.92
701.276	53.41
701.462	54.09
701.647	54.97
701.832	55.53
702.018	56.31
702.203	57.03
702.388	57.27
702.573	57.42
702.759	57.85
702.944	58.07
703.129	58.35
703.314	58.81
703.499	59.42
703.684	60.12
703.87	60.63
704.055	61.33
704.24	61.72
704.425	61.83
704.61	61.8
704.795	62.04
704.98	61.9
705.165	62.24
705.35	62.86
705.535	63.43
705.72	64.1
705.905	64.77
706.09	65.44
706.275	65.76
706.459	66.04
706.644	66
706.829	66.51
707.014	66.3
707.199	66.65
707.384	66.85
707.568	67.41
707.753	68.07
707.938	68.79
708.123	68.98
708.307	69.26
708.492	69.32
708.677	68.96
708.861	69.04
709.046	69.19
709.231	69.87
709.415	70.21
709.6	70.98
709.784	70.91
709.969	71.26
710.153	71.13
710.338	71.7
710.522	71.48
710.707	72.17
710.891	72.4
711.076	72.9
711.26	72.44
711.445	72.51
711.629	72.64
711.813	73.12
711.998	73.17
712.182	73.67
712.366	74.31
712.551	74.45
712.735	74.04
712.919	74.11
713.103	74.56
713.288	74.37
713.472	74.54
713.656	75.11
713.84	75.52
714.024	75.75
714.208	76.19
714.393	76.67
714.577	77.07
714.761	76.72
714.945	76.68
715.129	76.41
715.313	76.28
715.497	76.11
715.681	76.91
715.865	77.33
716.049	77.93
716.233	78.05
716.417	78.12
716.601	78.08
716.785	77.99
716.968	77.78
717.152	78.34
717.336	78.37
717.52	78.41
717.704	78.86
717.888	79.45
718.071	78.74
718.255	78.98
718.439	79.13
718.622	78.87
718.806	78.89
718.99	78.75
719.174	79.28
719.357	79.63
719.541	79.67
719.724	80.16
719.908	81.33
720.092	81.4
720.275	81.49
720.459	82.02
720.642	81.55
720.826	81.34
721.009	81.27
721.193	80.8
721.376	80.77
721.559	81.38
721.743	81.77
721.926	81.83
722.11	81.93
722.293	81.79
722.476	81.23
722.66	80.99
722.843	81.58
723.026	82.2
723.21	82.21
723.393	83.43
723.576	83.69
723.759	83.13
723.942	83.21
724.126	83.42
724.309	83.25
724.492	83.51
724.675	84.41
724.858	84.62
725.041	84.9
725.224	84.34
725.407	83.98
725.59	83.88
725.774	83.75
725.957	83.29
726.14	84.13
726.322	84.56
726.505	84.33
726.688	84.51
726.871	84.99
727.054	85.07
727.237	85.16
727.42	85.18
727.603	85.94
727.786	86.32
727.968	86.35
728.151	86.25
728.334	86.69
728.517	86.13
728.699	86.13
728.882	85.25
729.065	85.47
729.248	85.52
729.43	85.96
729.613	86.62
729.796	87.09
729.978	86.7
730.161	86.82
730.343	87.37
730.526	87.53
730.708	87.96
730.891	88.98
731.073	88.57
731.256	87.94
731.438	87.81
731.621	88.06
731.803	89.05
731.986	89.72
732.168	90.15
732.35	90.43
732.533	90.79
732.715	89.64
732.898	89.99
733.08	90.04
733.262	89.93
733.444	89.73
733.627	89.76
733.809	90.16
733.991	90.38
734.173	90.85
734.355	91.16
734.538	91.43
734.72	90.85
734.902	91
735.084	90.17
735.266	89.9
735.448	89.73
735.63	89.36
735.812	89.67
735.994	90.04
736.176	90.05
736.358	90.91
736.54	91.71
736.722	91.38
736.904	91.86
737.086	91.28
737.268	91.78
737.45	92.41
737.632	92.89
737.814	91.98
737.995	93.21
738.177	92.55
738.359	92.65
738.541	91.91
738.723	93.06
738.904	93.3
739.086	93.36
739.268	92.98
739.449	93.23
739.631	92.52
739.813	91.99
739.994	92.58
740.176	92.48
740.358	92.77
740.539	93.61
740.721	94.34
740.902	94.96
741.084	95.79
741.265	95.46
741.447	95.16
741.628	94.3
741.81	92.2
741.991	91.84
742.172	92.13
742.354	92.41
742.535	93.66
742.717	95.84
742.898	95.23
743.079	96.22
743.261	96.11
743.442	95.08
743.623	94.43
743.804	94.96
743.986	94.92
744.167	94.45
744.348	95.38
744.529	95.14
744.71	94.07
744.891	94.38
745.073	94.63
745.254	94.59
745.435	95.04
745.616	94.87
745.797	94.27
745.978	94.61
746.159	94.42
746.34	93.9
746.521	94.37
746.702	94.21
746.883	93.9
747.064	93.3
747.245	93.2
747.426	92.8
747.606	92.38
747.787	92.09
747.968	91.36
748.149	92.55
748.33	93.76
748.51	93.72
748.691	94.35
748.872	96.19
749.053	95.09
749.233	95.39
749.414	95.65
749.595	96.38
749.775	95.76
749.956	94.74
750.137	93.71
750.317	93.28
750.498	92.44
750.678	92.35
750.859	93.76
751.04	95.08
751.22	95.29
751.4	94.51
751.581	95.14
751.761	93.98
751.942	93.53
752.122	94.21
752.303	94.73
752.483	94.04
752.663	94.69
752.844	94.7
753.024	93.88
753.204	93.45
753.385	92.75
753.565	91.3
753.745	91.84
753.925	92.47
754.106	93.18
754.286	93.5
754.466	93.97
754.646	94.51
754.826	94.49
755.006	93.11
755.187	93.89
755.367	95.33
755.547	94.8
755.727	95.44
755.907	95.95
756.087	96.56
756.267	95.06
756.447	95.27
756.627	94.3
756.807	96.23
756.987	96.36
757.167	97.89
757.346	95.1
757.526	93.85
757.706	92.27
757.886	91.69
758.066	92.42
758.246	95.23
758.425	96.39
758.605	97.1
758.785	97.65
758.965	96.53
759.144	93.42
759.324	94.38
759.504	95.08
759.683	93.63
759.863	92.92
760.043	95.41
760.222	93.72
760.402	91.99
760.581	92.3
760.761	93.57
760.94	90.87
761.12	91.37
761.299	92.97
761.479	93.74
761.658	92.71
761.838	94.99
762.017	94.83
762.197	93.98
762.376	93.02
762.555	92.77
762.735	93.49
762.914	92.8
763.093	94.23
763.273	93.33
763.452	93.94
763.631	93.44
763.81	92.67
763.99	90.22
764.169	91.94
764.348	90.16
764.527	89.31
764.706	91.46
764.885	91.87
765.064	90.74
765.243	90.95
765.423	91.4
765.602	90.73
765.781	90.54
765.96	88.98
766.139	91.46
766.318	90.75
766.497	92.12
766.676	92.2
766.854	93.4
767.033	91.29
767.212	91.69
767.391	90.35
767.57	92.36
767.749	94.84
767.928	95.73
768.106	94.2
768.285	94.07
768.464	93.02
768.643	90.67
768.821	91.33
769	91.46
769.179	90.99
769.357	86.77
769.536	85.6
769.715	85.68
769.893	86.92
770.072	86.61
770.25	88.56
770.429	89.18
770.607	88.87
770.786	89.16
770.964	90.11
771.143	92.24
771.321	92.05
771.5	91.56
771.678	89.36
771.857	87.61
772.035	88.74
772.213	90.24
772.392	86.56
772.57	87.73
772.748	89.98
772.927	86.32
773.105	85.48
773.283	88.45
773.461	89.93
773.64	87.45
773.818	87.14
773.996	88.88
774.174	90.23
774.352	86.31
774.531	87.87
774.709	91.28
774.887	89.75
775.065	88.97
775.243	90.56
775.421	91.25
775.599	91.88
775.777	89.79
775.955	87.92
776.133	88.12
776.311	87.24
776.489	83.95
776.667	86.08
776.844	87.66
777.022	86.29
777.2	86.64
777.378	88.8
777.556	89.8
777.734	90.49
777.911	93.76
778.089	92.88
778.267	94.74
778.445	94.22
778.622	92.9
778.8	92.6
778.978	95.12
779.155	92.64
779.333	91.05
779.511	88.02
779.688	88.11
779.866	82.19
780.043	81.65
780.221	82.13
780.398	85.03
780.576	84.59
780.753	91.1
780.931	89.1
781.108	87.78
781.286	88.86
781.463	86.67
781.64	85.42
781.818	88.72
781.995	89.54
782.172	88.18
782.35	88.67
782.527	86.24
782.704	85.33
782.882	86.6
783.059	86.86
783.236	86.47
783.413	86.98
783.59	86.54
783.768	82.48
783.945	83.84
784.122	84.16
784.299	84.9
784.476	85.41
784.653	90.47
784.83	89.43
785.007	87.26
785.184	86.76
785.361	87.54
785.538	84.86
785.715	83.9
785.892	88.54
786.069	90.66
786.246	89.76
786.423	87.8
786.6	88.42
786.776	86.89
786.953	86.08
787.13	83.59
787.307	86.88
787.484	86.94
787.66	85.6
787.837	82.39
788.014	83.36
788.191	81.81
788.367	78.56
788.544	81.16
788.721	82.7
788.897	83.53
789.074	85.73
789.25	88.89
789.427	88.19
789.603	87.34
789.78	86.47
789.956	77.38
790.133	76.87
790.309	74.22
790.486	76.32
790.662	75.89
790.839	81.28
791.015	81.97
791.192	81.01
791.368	81.11
791.544	82.05
791.721	82.95
791.897	82.28
792.073	83.7
792.249	83.02
792.426	83.45
792.602	84.77
792.778	81.52
792.954	81.13
793.13	76.53
793.307	71.96
793.483	66.65
793.659	70.5
793.835	73.13
794.011	78.78
794.187	78.23
794.363	79.14
794.539	79.23
794.715	74.47
794.891	73.16
795.067	73.96
795.243	78.02
795.419	73.9
795.595	76.09
795.771	75.65
795.947	79.07
796.122	72.95
796.298	78.42
796.474	80.79
796.65	78.71
796.826	81.21
797.001	89.57
797.177	82.49
797.353	83.32
797.529	85.69
797.704	81.37
797.88	76.33
798.056	76.29
798.231	78.86
798.407	79.22
798.582	80.67
798.758	85.17
798.934	91.32
799.109	86.36
799.285	81.95
799.46	86.79
799.636	84.57
799.811	80.64
799.986	81.25
800.162	89.53
800.337	81.88
800.513	78.7
800.688	77.99
800.863	79.9
801.039	73.23
801.214	71.84
801.389	76.53
801.565	81.04
801.74	77.17
801.915	78.35
802.09	82.49
802.265	83.03
802.441	77.59
802.616	79.26
802.791	82.59
802.966	81.35
803.141	78.38
803.316	74.27
803.491	73.07
803.666	67.44
803.841	68.06
804.016	66.9
804.191	75.05
804.366	73.85
804.541	77.46
804.716	71.82
804.891	68.7
805.066	70.04
805.241	76.93
805.416	75.85
805.591	77.72
805.765	83.28
805.94	86.5
806.115	83.51
806.29	79.14
806.464	87.47
806.639	82.98
806.814	68.17
806.989	61.53
807.163	68.79
807.338	59.48
807.512	61.06
807.687	66.45
807.862	72.82
808.036	74.62
808.211	77.99
808.385	80.87
808.56	81.65
808.734	78.57
808.909	75.28
809.083	72.81
809.258	71.81
809.432	80.09
809.606	73.67
809.781	76.49
809.955	82.41
810.13	83.57
810.304	68.6
810.478	70.58
810.652	72.33
810.827	73.56
811.001	74.75
811.175	83.18
811.349	79.75
811.524	70.09
811.698	61.1
811.872	53.35
812.046	51.07
812.22	55.76
812.394	57.29
812.568	60.14
812.742	68.22
812.916	71.66
813.09	76.61
813.264	85.56
813.438	84.77
813.612	83.84
813.786	76.72
813.96	78.88
814.134	76.88
814.308	81.03
814.482	73.54
814.656	81.71
814.83	78.73
815.003	77.05
815.177	76.19
815.351	75.92
815.525	83.53
815.698	80.34
815.872	65.64
816.046	58.6
816.219	61.37
816.393	52.61
816.567	55.61
816.74	63.33
816.914	75.2
817.088	74.93
817.261	76.11
817.435	75.96
817.608	71.74
817.782	66.85
817.955	65.55
818.129	58.98
818.302	63.56
818.475	77.58
818.649	74.48
818.822	69.85
818.996	78.67
819.169	73.31
819.342	66.17
819.516	64.93
819.689	74.24
819.862	70.14
820.035	72.32
820.209	63.78
820.382	68.18
820.555	65.68
820.728	60.51
820.901	53.59
821.075	59.84
821.248	69.05
821.421	72.5
821.594	59.56
821.767	72.3
821.94	86.94
822.113	60.72
822.286	53.12
822.459	84.15
822.632	76.09
822.805	64.5
822.978	76.97
823.151	85.36
823.324	62.28
823.496	47.13
823.669	60.74
823.842	58.8
824.015	41.59
824.188	41.71
824.361	47.56
824.533	39.68
824.706	56.11
824.879	68.8
825.051	90.15
825.224	100.22
825.397	81.9
825.569	62.21
825.742	66.59
825.915	60.4
826.087	52.99
826.26	57.1
826.432	61.43
826.605	61.8
826.777	64.65
826.95	57.29
827.122	53.04
827.295	61.37
827.467	53.66
827.64	45.38
827.812	47.1
827.984	56.86
828.157	49
828.329	51.37
828.501	58.99
828.674	58.73
828.846	64.32
829.018	74.94
829.19	66.5
829.363	68.06
829.535	75.78
829.707	72.3
829.879	50.49
830.051	49.32
830.223	50.72
830.395	30.3
830.568	27.38
830.74	33.99
830.912	44.87
831.084	34.12
831.256	31.48
831.428	22.55
831.6	23.91
831.772	14.04
831.943	13.29
832.115	40.46
832.287	62.38
832.459	54.8
832.631	60.55
832.803	69.56
832.975	58.8
833.146	49.55
833.318	57.67
833.49	57.82
833.662	61.95
833.833	51.22
834.005	47
834.177	54.6
834.348	47.35
834.52	35.46
834.692	48.99
834.863	54.29
835.035	42.46
835.206	40.21
835.378	52.89
835.549	50.94
835.721	48.46
835.892	52.03
836.064	66.56
836.235	63.13
836.407	67.37
836.578	64.63
836.749	77.19
836.921	75.61
837.092	63.66
837.264	39.55
837.435	25.63
837.606	12.61
837.777	35.48
837.949	52.86
838.12	50.58
838.291	60.68
838.462	61.7
838.633	46.63
838.805	30.05
838.976	44.85
839.147	44.68
839.318	24.42
839.489	9.62
839.66	20.08
839.831	12.28
840.002	14.06
840.173	20.76
840.344	18.7
840.515	20.63
840.686	7.22
840.857	-4.82
841.028	2.53
841.199	15.62
841.369	20.57
841.54	26.61
841.711	56.38
841.882	56.72
842.053	46.71
842.223	28.69
842.394	43.59
842.565	30.4
842.736	27.65
842.906	23.93
843.077	41.33
843.248	33.19
843.418	24.19
843.589	12.72
843.759	43.21
843.93	54.89
844.101	65.5
844.271	69.31
844.442	109.18
844.612	105.71
844.783	80.62
844.953	56.37
845.123	83.56
845.294	40.22
845.464	23.49
845.635	28.74
845.805	45.23
845.975	25.91
846.146	15.61
846.316	19.57
846.486	37.46
846.656	24.01
846.827	9.04
846.997	37.51
847.167	48.27
847.337	18.6
847.507	28
847.677	28.32
847.848	41.22
848.018	39.93
848.188	51.28
848.358	35.27
848.528	36.64
848.698	30.25
848.868	11.32
849.038	-5.16
849.208	8.88
849.378	25.42
849.548	8.41
849.718	39.39
849.887	87.37
850.057	48.23
850.227	33.57
850.397	17.04
850.567	2.65
850.737	0.52
850.906	-2.08
851.076	-30.93
851.246	-30.31
851.415	-13.83
851.585	2.73
851.755	4.29
851.924	47.43
852.094	51.15
852.264	40.15
852.433	14.27
852.603	30.77
852.772	19.89
852.942	6.67
853.111	-2.19
853.281	38.2
853.45	41.87
853.62	22.06
853.789	2.64
853.959	29.12
854.128	7.29
854.297	-29.56
854.467	-21.79
854.636	2.76
854.805	0.05
854.975	-12.57
855.144	2.12
855.313	20.27
855.482	28.28
855.652	27.04
855.821	45.9
855.99	95.4
856.159	72.16
856.328	74.2
856.497	67.42
856.667	39.65
856.836	13.47
857.005	14.26
857.174	-14.8
857.343	-30.13
857.512	3.36
857.681	-41.01
857.85	-22.64
858.019	-32.26
858.188	-14.67
858.356	-8.02
858.525	-2.28
858.694	-14.11
858.863	-3.51
859.032	-22
859.201	-27.48
859.369	4.06
859.538	16.47
859.707	17.92
859.876	28.63
860.044	46.4
860.213	32.52
860.382	36.96
860.55	57.83
860.719	79.04
860.888	74.75
861.056	74.44
861.225	51.73
861.393	77.75
861.562	62.6
861.73	46.9
861.899	60.64
862.067	57.68
862.236	58.02
862.404	20.54
862.572	9.61
862.741	6.63
862.909	6.75
863.078	-27.31
863.246	-19.74
863.414	-5.5
863.582	-25.07
863.751	-21.66
863.919	-27.78
864.087	15.66
864.255	32.27
864.424	1.42
864.592	4.8
864.76	41.93
864.928	56.28
865.096	15.41
865.264	27.27
865.432	46.56
865.6	47.56
865.768	-34.35
865.936	-54.88
866.104	-9.97
866.272	-24.05
866.44	-44.16
866.608	-23.46
866.776	-59.62
866.944	-149.15
867.112	-199.54
867.28	-292.02
867.448	-620.44
867.615	-263.2
867.783	-16.49
867.951	-36.18
868.119	33.04
868.286	14.46
868.454	14.98
868.622	-17
868.789	16.61
868.957	13.26
869.125	9.22
869.292	14.5
869.46	42.81
869.627	70.64
869.795	43.19
869.963	47.92
870.13	64.44
870.298	64.48
870.465	-6.78
870.632	-11.9
870.8	1.03
870.967	4.98
871.135	-63.37
871.302	-12.07
871.469	73.07
871.637	55.59
871.804	55.49
871.971	33.52
872.139	46.19
872.306	39.99
872.473	29.39
872.64	-15.5
872.807	37.22
872.975	33.18
873.142	19.92
873.309	26.74
873.476	78.14
873.643	40.93
873.81	26.06
873.977	22.67
874.144	20.93
874.311	19.84
874.478	4.28
874.645	-51.67
874.812	-294.81
874.979	7585.71
875.146	-263.86
875.313	-57.84
875.48	45.84
875.647	58.59
875.813	-9.32
875.98	-10.9
876.147	-40.79
876.314	-77.99
876.481	-96.21
876.647	-108.22
876.814	-55.1
876.981	-52.79
877.147	-21.27
877.314	-45.34
877.481	0.16
877.647	50.68
877.814	20.45
877.98	-40.02
878.147	1.58
878.314	31.74
878.48	-37.35
878.647	-10.83
878.813	51.52
878.979	52.46
879.146	29.09
879.312	47.59
879.479	61.96
879.645	55.71
879.811	19.61
879.978	51.87
880.144	59.09
880.31	45.44
880.477	-22.11
880.643	-19.96
880.809	-21.89
880.975	-12.84
881.142	-28.11
881.308	-19.62
881.474	22.94
881.64	21.49
881.806	-5.15
881.972	8.42
882.138	27.02
882.304	27.42
882.47	-19.41
882.636	-28.08
882.802	-31.86
882.968	0.85
883.134	-44.16
883.3	-6.45
883.466	61.92
883.632	77.54
883.798	43.59
883.964	42.15
884.129	32.14
884.295	57.98
884.461	17.51
884.627	-13.44
884.793	-2.66
884.958	14.18
885.124	-41.72
885.29	-30.43
885.455	8.23
885.621	14.31
885.787	-33.81
885.952	25.91
886.118	-3.68
886.283	34.71
886.449	-5.11
886.614	-6.01
886.78	-37.19
886.945	20
887.111	-106.88
887.276	-89.59
887.442	-277.59
887.607	-90.97
887.773	-161.33
887.938	-90.08
888.103	-29.06
888.269	39.38
888.434	38.01
888.599	31.79
888.764	59.8
888.93	61.01
889.095	54.21
889.26	29.22
889.425	73.22
889.59	88.4
889.756	53.2
889.921	39.74
890.086	33.08
890.251	26.37
890.416	-13.5
890.581	-6.73
890.746	-14.89
890.911	44.21
891.076	-7.58
891.241	-10.72
891.406	-5.35
891.571	28.78
891.736	-12.02
891.901	-10.39
892.065	7.49
892.23	15.73
892.395	-55.36
892.56	-92.12
892.725	-27.58
892.889	-20.67
893.054	-93.73
893.219	-56.27
893.384	-22.5
893.548	-58.9
893.713	-81.37
893.878	-42.3
