Data from Ofra_PP_Phys_2HS27C_Reflection_3.txt Node
Date: Sat Jul 24 20:03:39 EDT 2021
User: USUARIO
Spectrometer: FLMT01687
Trigger mode: 0
Integration Time (sec): 1.100000E0
Scans to average: 2
Electric dark correction enabled: true
Nonlinearity correction enabled: false
Boxcar width: 2
XAxis mode: Wavelengths
Number of Pixels in Spectrum: 3648
>>>>>Begin Spectral Data<<<<<
179.494	422.5
179.716	535.09
179.937	869.72
180.158	764.84
180.38	398.04
180.601	-456.65
180.823	3.77
181.044	1082.17
181.265	-45.02
181.486	5.66
181.708	149.64
181.929	682.67
182.15	-94.78
182.372	-91.65
182.593	57066.67
182.814	841.03
183.035	179.24
183.257	170.23
183.478	107.43
183.699	182.91
183.92	79.19
184.141	87.67
184.363	54.5
184.584	70.3
184.805	60.41
185.026	69.86
185.247	63.55
185.468	39.56
185.689	32.88
185.91	28.38
186.132	18.82
186.353	20.56
186.574	38.38
186.795	71.54
187.016	17.66
187.237	33.39
187.458	46.77
187.679	72.51
187.9	46.95
188.121	93.16
188.342	110.71
188.563	110.92
188.784	109.04
189.005	108.33
189.226	107.92
189.447	96.06
189.667	96
189.888	86.95
190.109	92.16
190.33	51.32
190.551	33.26
190.772	26.68
190.993	-1.34
191.214	-3.27
191.434	8.49
191.655	38.14
191.876	23.73
192.097	37.94
192.318	25.2
192.538	35.02
192.759	28.43
192.98	46.77
193.201	44.16
193.421	37.93
193.642	36.07
193.863	18.02
194.083	8.99
194.304	20.22
194.525	40.86
194.745	62.04
194.966	45.67
195.187	21.4
195.407	-2.41
195.628	-61.86
195.848	-77.72
196.069	-66.85
196.29	-20.37
196.51	-61.97
196.731	-48.66
196.951	-11.83
197.172	2
197.392	-8.89
197.613	22.92
197.833	42.74
198.054	13.38
198.274	25.31
198.495	15.68
198.715	46.65
198.936	2.94
199.156	21.21
199.377	-1.46
199.597	4.14
199.817	-14.53
200.038	21.73
200.258	31.75
200.479	59.5
200.699	67.99
200.919	52.7
201.14	12.27
201.36	-5.77
201.58	-18.12
201.801	-6.8
202.021	3.18
202.241	47.11
202.461	57.17
202.682	45
202.902	56.77
203.122	44.75
203.342	40.74
203.563	72.58
203.783	100.64
204.003	37.24
204.223	-15.73
204.443	51.66
204.663	3.97
204.884	-33.64
205.104	7.23
205.324	64.39
205.544	41.34
205.764	60.06
205.984	79.63
206.204	84.51
206.424	73.74
206.644	57.22
206.864	50.6
207.084	52
207.304	72.35
207.525	35.22
207.745	43.53
207.964	40.17
208.184	22.67
208.404	11.37
208.624	9.72
208.844	7.88
209.064	-18.48
209.284	-3.13
209.504	4.29
209.724	19.24
209.944	25.48
210.164	44.44
210.384	38.88
210.604	29.88
210.823	19.76
211.043	13.42
211.263	14.82
211.483	6.9
211.703	-2.71
211.922	14.6
212.142	38.24
212.362	52.89
212.582	48.21
212.801	52.18
213.021	33.1
213.241	33.81
213.461	17.56
213.68	7.35
213.9	9.11
214.12	7.02
214.339	-16.98
214.559	-19.44
214.779	-23.73
214.998	4.86
215.218	12.04
215.438	29.05
215.657	42.69
215.877	71.81
216.096	65.84
216.316	84.94
216.535	69.77
216.755	52.92
216.974	32.54
217.194	35.76
217.413	12.04
217.633	4.47
217.852	-24.9
218.072	-13.27
218.291	-25.33
218.511	0.75
218.73	-32.5
218.95	-31.34
219.169	-38.63
219.389	-44.12
219.608	-50.89
219.827	1.2
220.047	16.8
220.266	19.7
220.485	16.89
220.705	39.15
220.924	8.27
221.143	40.26
221.363	15.96
221.582	27.81
221.801	18.28
222.021	49.71
222.24	32.1
222.459	62.31
222.678	53.95
222.897	54.27
223.117	48.12
223.336	69.62
223.555	73.85
223.774	84.27
223.993	94.88
224.213	134.45
224.432	97.22
224.651	91.81
224.87	71.8
225.089	81.49
225.308	66.17
225.527	77.24
225.746	69.61
225.965	62.61
226.184	39.34
226.404	52.85
226.623	37.84
226.842	47.56
227.061	73.83
227.28	83.35
227.499	80.6
227.718	102.32
227.936	88.6
228.155	90.7
228.374	70.44
228.593	65.5
228.812	52.85
229.031	44.44
229.25	12.5
229.469	33.15
229.688	22.18
229.907	14.49
230.125	31.16
230.344	55.52
230.563	45.47
230.782	82.3
231.001	47.19
231.22	51.14
231.438	46.56
231.657	36.08
231.876	5.04
232.095	27.01
232.313	27.7
232.532	30.01
232.751	42.21
232.969	39.7
233.188	58.03
233.407	52.97
233.625	38.4
233.844	31.07
234.063	38.72
234.281	60.23
234.5	50.85
234.719	84.63
234.937	74.84
235.156	78.4
235.374	65.42
235.593	88.89
235.811	76.73
236.03	85.67
236.249	67.32
236.467	75.31
236.686	69.35
236.904	75.47
237.123	39.94
237.341	62.17
237.559	42.77
237.778	32.28
237.996	19.9
238.215	44.34
238.433	38.02
238.652	27.31
238.87	-15.29
239.088	-10.35
239.307	6.93
239.525	17.59
239.743	10.08
239.962	28.47
240.18	9.84
240.398	-10.13
240.617	-29.08
240.835	-8.79
241.053	-42.06
241.271	6.81
241.49	25.46
241.708	28.94
241.926	42.51
242.144	66.81
242.363	45.25
242.581	41.42
242.799	64.93
243.017	44.03
243.235	16.74
243.453	41.58
243.672	8.69
243.89	0.56
244.108	8.46
244.326	24.73
244.544	9.39
244.762	3.06
244.98	17.76
245.198	32.89
245.416	20.64
245.634	25.91
245.852	63.27
246.07	43.71
246.288	36.9
246.506	38.24
246.724	39.37
246.942	28.64
247.16	42.66
247.378	40.87
247.596	50.14
247.814	58.63
248.032	46.82
248.25	32.53
248.468	40.68
248.685	51.1
248.903	48.01
249.121	53
249.339	36.52
249.557	34.26
249.775	20.52
249.992	-16.22
250.21	-24.03
250.428	-12.1
250.646	-14.83
250.863	-12.54
251.081	-1.85
251.299	15.61
251.517	22.43
251.734	21.65
251.952	15.8
252.17	37.19
252.387	44.66
252.605	15.33
252.823	22.46
253.04	44.92
253.258	38.13
253.475	26.26
253.693	50.81
253.911	67.83
254.128	65.91
254.346	73.61
254.563	68.38
254.781	60.14
254.998	29.5
255.216	16.96
255.433	11.84
255.651	37.21
255.868	47.48
256.086	58.07
256.303	60.9
256.521	46.66
256.738	20.77
256.956	3.7
257.173	10.73
257.39	4.99
257.608	14.57
257.825	27.05
258.043	41.16
258.26	33.54
258.477	28.65
258.695	20.07
258.912	0.93
259.129	0.74
259.346	-16.26
259.564	-7.15
259.781	13.36
259.998	22.18
260.216	47.39
260.433	68.93
260.65	61.64
260.867	61.83
261.084	46.79
261.302	41.09
261.519	39.86
261.736	38.14
261.953	30.81
262.17	39.56
262.387	28
262.604	21.21
262.822	20.03
263.039	23.6
263.256	25.38
263.473	23.99
263.69	-4.62
263.907	13.03
264.124	34.28
264.341	41.47
264.558	46.04
264.775	55.98
264.992	61.73
265.209	38.87
265.426	39.38
265.643	39.63
265.86	39.51
266.077	40.58
266.294	40.84
266.51	38.22
266.727	31.5
266.944	49.56
267.161	34.08
267.378	38.94
267.595	34.78
267.812	15.28
268.028	11.95
268.245	24.22
268.462	21.33
268.679	29.26
268.896	54.44
269.112	46.37
269.329	46.6
269.546	60.67
269.763	62.15
269.979	58.49
270.196	51.94
270.413	46.59
270.629	18.89
270.846	15.09
271.063	22.7
271.279	11.42
271.496	-7.02
271.712	5.59
271.929	-4.2
272.146	-14.36
272.362	-16.84
272.579	14.52
272.795	26.82
273.012	42.88
273.228	55.52
273.445	64.26
273.661	31.48
273.878	-39.06
274.094	-48.04
274.311	-54.49
274.527	-39.03
274.744	-11.78
274.96	47.47
275.177	47.94
275.393	48.56
275.609	65.11
275.826	68.58
276.042	76.19
276.259	87.64
276.475	75.74
276.691	61.78
276.908	55.52
277.124	68.66
277.34	58.75
277.557	59
277.773	66.84
277.989	67
278.205	58.27
278.422	61.12
278.638	62.89
278.854	70.69
279.07	70.03
279.286	33.41
279.503	24.77
279.719	25.74
279.935	1.21
280.151	-31.6
280.367	0.23
280.583	-2.81
280.799	9.76
281.016	13.55
281.232	39.73
281.448	38.96
281.664	58.22
281.88	36.96
282.096	45.74
282.312	40.52
282.528	50.22
282.744	49.31
282.96	57.59
283.176	59.65
283.392	53.98
283.608	53.03
283.824	45.06
284.04	49.71
284.256	50.07
284.471	60.36
284.687	53.08
284.903	58.01
285.119	70.01
285.335	59.69
285.551	56.73
285.767	45.84
285.982	32.15
286.198	16.43
286.414	32.08
286.63	17.17
286.846	34.31
287.061	21.08
287.277	28.13
287.493	37
287.709	45.89
287.924	40.27
288.14	76.15
288.356	80.08
288.571	67.09
288.787	71.79
289.003	69.17
289.218	45.05
289.434	22.45
289.65	39.86
289.865	38.84
290.081	40.49
290.296	44.53
290.512	45.4
290.727	41.23
290.943	34.91
291.159	29.6
291.374	33.78
291.59	29.35
291.805	30.65
292.021	28.71
292.236	24.44
292.451	20.71
292.667	30.26
292.882	35.16
293.098	41.39
293.313	40.32
293.529	27.26
293.744	9.98
293.959	-1
294.175	-6.94
294.39	16.25
294.605	28.74
294.821	37.54
295.036	19.97
295.251	37
295.467	32.06
295.682	29.71
295.897	14.74
296.112	18.03
296.328	14.38
296.543	11.95
296.758	22.14
296.973	57.5
297.188	85.39
297.404	54.53
297.619	47.57
297.834	36.12
298.049	28.77
298.264	3.9
298.479	19.15
298.694	19.76
298.909	25.04
299.125	22.31
299.34	41.17
299.555	39.11
299.77	56.58
299.985	30.23
300.2	12.85
300.415	-7.89
300.63	8.34
300.845	9.05
301.06	19.64
301.275	26.96
301.49	34.94
301.704	33.38
301.919	1.22
302.134	4.6
302.349	21.65
302.564	7.4
302.779	17
302.994	48.15
303.209	49.07
303.423	52.47
303.638	80.19
303.853	58.74
304.068	38.18
304.283	32.54
304.497	26.05
304.712	38.12
304.927	44.62
305.142	43.59
305.356	45.98
305.571	49.94
305.786	36.98
306	34.35
306.215	45.75
306.43	25.88
306.644	26.3
306.859	24.15
307.074	18.81
307.288	6.29
307.503	21.29
307.717	14.94
307.932	19.42
308.147	20.68
308.361	33.16
308.576	17.05
308.79	-8.35
309.005	-0.81
309.219	8.82
309.434	3.93
309.648	-3.15
309.863	33.1
310.077	27.11
310.292	32.23
310.506	21.46
310.72	49.8
310.935	50.01
311.149	46.23
311.364	35.52
311.578	55.35
311.792	55.78
312.007	43.38
312.221	30.26
312.435	43.6
312.649	27.76
312.864	56.5
313.078	51.49
313.292	73.46
313.507	59.5
313.721	52.26
313.935	33.48
314.149	57.11
314.363	53.04
314.578	33.11
314.792	22.48
315.006	23.52
315.22	6.54
315.434	7.7
315.648	28.44
315.862	34.66
316.077	45.84
316.291	49.08
316.505	67.45
316.719	51.11
316.933	29.14
317.147	37.86
317.361	22.72
317.575	14.02
317.789	19.4
318.003	23.69
318.217	20.45
318.431	40.47
318.645	44.91
318.859	43.07
319.073	64.37
319.287	48.22
319.5	28.34
319.714	0.36
319.928	-8.08
320.142	-22.57
320.356	-0.2
320.57	14.31
320.784	20.61
320.997	32.58
321.211	36.86
321.425	28.08
321.639	10.05
321.853	38.09
322.066	26.39
322.28	12.87
322.494	29.56
322.707	74.51
322.921	63.77
323.135	64.78
323.349	71.38
323.562	46.76
323.776	18.04
323.989	26.06
324.203	14.9
324.417	14.27
324.63	12.98
324.844	2.11
325.057	-18.47
325.271	-23.86
325.485	-29.39
325.698	-7.19
325.912	13.13
326.125	2.95
326.339	28.7
326.552	28.63
326.766	31.34
326.979	38.34
327.193	61.37
327.406	49.94
327.619	53.32
327.833	51.08
328.046	33.51
328.26	24.31
328.473	16.64
328.686	2.99
328.9	5.18
329.113	13.1
329.326	6.44
329.54	15.54
329.753	22.66
329.966	14.47
330.179	29.97
330.393	45.88
330.606	46.68
330.819	56.59
331.032	64.99
331.246	57.55
331.459	50.14
331.672	38.42
331.885	26.47
332.098	4.8
332.311	15.88
332.525	13.45
332.738	13.72
332.951	28.36
333.164	42.3
333.377	47.81
333.59	50.39
333.803	42.03
334.016	29.65
334.229	32.12
334.442	22.8
334.655	44.55
334.868	61.77
335.081	73.21
335.294	57.71
335.507	72.82
335.72	61.04
335.933	48.88
336.146	43.49
336.359	52.52
336.572	22.05
336.785	8.89
336.997	14.35
337.21	18.46
337.423	16
337.636	26.97
337.849	38.2
338.062	39.56
338.274	43.32
338.487	32.96
338.7	34.54
338.913	31.03
339.125	29.45
339.338	28.33
339.551	33.22
339.763	54.8
339.976	50.5
340.189	44.11
340.402	44.66
340.614	50.39
340.827	32.5
341.039	22.46
341.252	10.16
341.465	-5.83
341.677	-11.21
341.89	-50.57
342.102	-45.29
342.315	-27.13
342.527	-25.25
342.74	-17.64
342.952	21.54
343.165	28.84
343.377	41.39
343.59	37.13
343.802	51.75
344.015	57.14
344.227	65.55
344.44	46.71
344.652	44.75
344.864	41.71
345.077	57.11
345.289	50.08
345.502	60.62
345.714	54.06
345.926	50.06
346.139	36.48
346.351	27.45
346.563	21.67
346.775	32.17
346.988	16.32
347.2	3.88
347.412	-1.27
347.624	2.15
347.837	8.08
348.049	36.53
348.261	53.26
348.473	54.89
348.685	30.83
348.897	14.97
349.11	-0.05
349.322	-13.08
349.534	10.18
349.746	35.06
349.958	54.19
350.17	42.27
350.382	48.88
350.594	44.77
350.806	41.34
351.018	32.47
351.23	34.02
351.442	33.96
351.654	38.47
351.866	37.13
352.078	29.77
352.29	36.28
352.502	25.38
352.714	49.19
352.926	51.66
353.138	52.01
353.35	36.39
353.561	38.17
353.773	17.92
353.985	30.95
354.197	37.84
354.409	50.89
354.621	45.47
354.832	51.21
355.044	37.24
355.256	30.24
355.468	26.7
355.679	22
355.891	21.64
356.103	16.12
356.314	19.04
356.526	21.64
356.738	43.36
356.949	46.41
357.161	56.77
357.373	60.24
357.584	65.64
357.796	58.13
358.008	41.34
358.219	49.68
358.431	40.45
358.642	40.11
358.854	53.04
359.065	56.7
359.277	35.69
359.488	25.94
359.7	9.25
359.911	-11.93
360.123	-15.29
360.334	-19.19
360.546	-15.62
360.757	-8.06
360.969	-7.85
361.18	14.74
361.391	15.88
361.603	10.38
361.814	21.53
362.025	24.68
362.237	7.26
362.448	15.79
362.659	32.67
362.871	29.65
363.082	29.23
363.293	30.36
363.504	29.56
363.716	22.89
363.927	29.17
364.138	23.38
364.349	15.64
364.56	8.44
364.772	0.17
364.983	-1.37
365.194	-4.21
365.405	0.19
365.616	5.12
365.827	-4.78
366.038	-6.29
366.25	6.31
366.461	-2.71
366.672	15.63
366.883	35.74
367.094	34.46
367.305	20.27
367.516	35.26
367.727	23.65
367.938	7.54
368.149	2.63
368.36	11.73
368.571	10.86
368.781	8.62
368.992	0.16
369.203	23.97
369.414	19.25
369.625	13.59
369.836	12.38
370.047	19.94
370.258	9.84
370.468	17.36
370.679	1.01
370.89	7.63
371.101	32.64
371.312	16.66
371.522	14.37
371.733	31.06
371.944	37.22
372.155	26.09
372.365	13.2
372.576	19.82
372.787	8.92
372.997	2.75
373.208	-0.22
373.419	20.69
373.629	6.88
373.84	14.56
374.05	-1.79
374.261	9.37
374.472	-8.13
374.682	6.87
374.893	2.38
375.103	23.44
375.314	15.27
375.524	26.55
375.735	36.53
375.945	39.27
376.156	21.05
376.366	25.39
376.577	33.54
376.787	27.4
376.997	39.88
377.208	52.47
377.418	40.4
377.629	32.57
377.839	17.59
378.049	12.18
378.26	19.87
378.47	35.44
378.68	41.9
378.89	49.79
379.101	56.62
379.311	33.29
379.521	15.64
379.732	21.02
379.942	7.99
380.152	-2.67
380.362	10.57
380.572	17.94
380.783	21.81
380.993	28.28
381.203	29.94
381.413	27.56
381.623	21.32
381.833	2.53
382.043	6.57
382.253	10.4
382.463	16.68
382.674	19.85
382.884	14.88
383.094	14.06
383.304	12.94
383.514	14.49
383.724	13.33
383.934	7.84
384.144	0.45
384.353	1.54
384.563	3.43
384.773	9.46
384.983	19.04
385.193	26.5
385.403	14.33
385.613	13.39
385.823	13.5
386.033	17.02
386.242	11.67
386.452	20.63
386.662	14.38
386.872	15.67
387.082	13.8
387.291	9.69
387.501	12.02
387.711	13.8
387.921	0.18
388.13	2.41
388.34	9.75
388.55	3.99
388.759	6.08
388.969	13.51
389.179	11.08
389.388	10.15
389.598	11.53
389.807	9.23
390.017	8.83
390.227	8.9
390.436	6.86
390.646	10.81
390.855	13.8
391.065	14.35
391.274	11.42
391.484	8.11
391.693	5.15
391.903	4.49
392.112	6.9
392.322	8.88
392.531	13.39
392.74	13.28
392.95	9.12
393.159	6.25
393.369	8.31
393.578	5.36
393.787	5.34
393.997	8.91
394.206	9.25
394.415	7.96
394.625	8.15
394.834	6.68
395.043	5.12
395.252	5.77
395.462	6.45
395.671	6.99
395.88	7.93
396.089	8.93
396.298	7.77
396.508	7.14
396.717	7.42
396.926	6.75
397.135	5.91
397.344	6.08
397.553	6.17
397.762	6.73
397.971	7.2
398.181	7.23
398.39	6.38
398.599	6.06
398.808	5.17
399.017	5.76
399.226	5.94
399.435	6.9
399.644	6.71
399.853	6.42
400.062	5.63
400.27	5.58
400.479	5.21
400.688	5.06
400.897	5.55
401.106	5.61
401.315	5.13
401.524	5.24
401.733	5.56
401.941	5.49
402.15	5.53
402.359	5.75
402.568	5.62
402.777	5.48
402.985	5.41
403.194	5.27
403.403	5.25
403.612	5.2
403.82	5.01
404.029	5.05
404.238	4.93
404.446	4.86
404.655	4.66
404.864	4.8
405.072	4.66
405.281	4.78
405.489	4.54
405.698	4.6
405.906	4.49
406.115	4.44
406.324	4.21
406.532	4.35
406.741	4.56
406.949	4.5
407.158	4.53
407.366	4.73
407.574	4.86
407.783	4.67
407.991	4.78
408.2	4.86
408.408	4.7
408.617	4.6
408.825	4.6
409.033	4.6
409.242	4.52
409.45	4.57
409.658	4.38
409.867	4.56
410.075	4.42
410.283	4.36
410.491	4.31
410.7	4.31
410.908	4.21
411.116	4.29
411.324	4.23
411.533	4.35
411.741	4.42
411.949	4.33
412.157	4.14
412.365	4.26
412.573	4.04
412.781	4.12
412.99	4.07
413.198	4.29
413.406	4.28
413.614	4.4
413.822	4.31
414.03	4.48
414.238	4.31
414.446	4.33
414.654	4.18
414.862	4.19
415.07	4.08
415.278	4.19
415.486	3.91
415.694	4.09
415.902	4.04
416.109	3.91
416.317	3.94
416.525	3.89
416.733	3.91
416.941	4.01
417.149	4
417.357	3.9
417.564	4.19
417.772	4.06
417.98	3.95
418.188	4.02
418.395	4
418.603	3.95
418.811	3.9
419.019	3.78
419.226	3.95
419.434	4.03
419.642	3.84
419.849	3.83
420.057	4.14
420.265	4.02
420.472	3.87
420.68	4.13
420.887	4.09
421.095	4.05
421.302	3.93
421.51	4.12
421.717	4.01
421.925	4.1
422.132	3.95
422.34	3.98
422.547	3.77
422.755	3.79
422.962	3.82
423.17	3.7
423.377	3.76
423.585	3.85
423.792	3.77
423.999	3.74
424.207	3.91
424.414	3.89
424.621	3.84
424.829	3.79
425.036	3.79
425.243	3.66
425.451	3.54
425.658	3.45
425.865	3.49
426.072	3.4
426.28	3.28
426.487	3.27
426.694	3.33
426.901	3.44
427.108	3.4
427.315	3.53
427.523	3.72
427.73	3.83
427.937	3.59
428.144	3.52
428.351	3.49
428.558	3.42
428.765	3.23
428.972	3.36
429.179	3.49
429.386	3.54
429.593	3.5
429.8	3.42
430.007	3.42
430.214	3.49
430.421	3.54
430.628	3.42
430.835	3.37
431.042	3.52
431.249	3.45
431.456	3.6
431.662	3.74
431.869	3.92
432.076	3.82
432.283	3.77
432.49	3.61
432.697	3.62
432.903	3.45
433.11	3.35
433.317	3.47
433.524	3.59
433.73	3.56
433.937	3.84
434.144	3.92
434.35	3.98
434.557	3.83
434.764	3.86
434.97	3.7
435.177	3.79
435.384	3.55
435.59	3.7
435.797	3.75
436.003	3.82
436.21	3.76
436.416	3.87
436.623	3.65
436.829	3.63
437.036	3.67
437.242	3.55
437.449	3.44
437.655	3.45
437.862	3.38
438.068	3.34
438.275	3.48
438.481	3.63
438.687	3.7
438.894	3.7
439.1	3.64
439.307	3.63
439.513	3.5
439.719	3.41
439.926	3.38
440.132	3.39
440.338	3.3
440.544	3.46
440.751	3.44
440.957	3.56
441.163	3.39
441.369	3.49
441.575	3.42
441.782	3.46
441.988	3.25
442.194	3.4
442.4	3.32
442.606	3.41
442.812	3.47
443.018	3.57
443.224	3.61
443.431	3.62
443.637	3.56
443.843	3.44
444.049	3.49
444.255	3.49
444.461	3.5
444.667	3.42
444.873	3.48
445.079	3.49
445.284	3.48
445.49	3.35
445.696	3.24
445.902	3.24
446.108	3.19
446.314	3.12
446.52	3.33
446.726	3.56
446.931	3.55
447.137	3.53
447.343	3.59
447.549	3.38
447.755	3.29
447.96	3.27
448.166	3.25
448.372	3.32
448.578	3.32
448.783	3.31
448.989	3.45
449.195	3.57
449.4	3.47
449.606	3.54
449.812	3.56
450.017	3.57
450.223	3.57
450.428	3.49
450.634	3.53
450.84	3.59
451.045	3.45
451.251	3.3
451.456	3.49
451.662	3.54
451.867	3.52
452.073	3.45
452.278	3.59
452.483	3.51
452.689	3.45
452.894	3.47
453.1	3.6
453.305	3.43
453.51	3.45
453.716	3.38
453.921	3.36
454.127	3.34
454.332	3.37
454.537	3.3
454.742	3.42
454.948	3.48
455.153	3.41
455.358	3.5
455.563	3.61
455.769	3.49
455.974	3.43
456.179	3.47
456.384	3.36
456.589	3.33
456.795	3.27
457	3.33
457.205	3.38
457.41	3.39
457.615	3.34
457.82	3.46
458.025	3.43
458.23	3.36
458.435	3.45
458.64	3.34
458.845	3.33
459.05	3.24
459.255	3.1
459.46	3.05
459.665	3.15
459.87	3.22
460.075	3.13
460.28	3.27
460.485	3.36
460.69	3.39
460.895	3.21
461.099	3.22
461.304	3.27
461.509	3.29
461.714	3.23
461.919	3.35
462.123	3.38
462.328	3.38
462.533	3.19
462.738	3.2
462.942	3.14
463.147	3.27
463.352	3.29
463.556	3.35
463.761	3.37
463.966	3.4
464.17	3.37
464.375	3.28
464.58	3.17
464.784	3.24
464.989	3.23
465.193	3.17
465.398	3.17
465.602	3.45
465.807	3.39
466.011	3.43
466.216	3.51
466.42	3.55
466.625	3.47
466.829	3.55
467.034	3.59
467.238	3.66
467.443	3.69
467.647	3.57
467.851	3.53
468.056	3.56
468.26	3.45
468.464	3.35
468.669	3.51
468.873	3.53
469.077	3.51
469.282	3.47
469.486	3.66
469.69	3.61
469.894	3.55
470.099	3.57
470.303	3.62
470.507	3.4
470.711	3.39
470.915	3.41
471.119	3.37
471.324	3.37
471.528	3.35
471.732	3.43
471.936	3.41
472.14	3.47
472.344	3.5
472.548	3.67
472.752	3.69
472.956	3.8
473.16	3.76
473.364	3.71
473.568	3.76
473.772	3.67
473.976	3.67
474.18	3.69
474.384	3.68
474.588	3.54
474.792	3.46
474.995	3.42
475.199	3.4
475.403	3.52
475.607	3.57
475.811	3.66
476.015	3.65
476.218	3.74
476.422	3.63
476.626	3.7
476.83	3.76
477.033	3.69
477.237	3.55
477.441	3.56
477.644	3.45
477.848	3.37
478.052	3.3
478.255	3.34
478.459	3.4
478.663	3.51
478.866	3.53
479.07	3.67
479.273	3.78
479.477	3.82
479.681	3.77
479.884	3.78
480.088	3.74
480.291	3.68
480.495	3.59
480.698	3.65
480.901	3.68
481.105	3.75
481.308	3.74
481.512	3.79
481.715	3.77
481.919	3.79
482.122	3.77
482.325	3.81
482.529	3.82
482.732	3.79
482.935	3.73
483.138	3.72
483.342	3.7
483.545	3.78
483.748	3.81
483.952	3.87
484.155	3.95
484.358	3.98
484.561	3.93
484.764	3.97
484.967	4.01
485.171	4.05
485.374	3.95
485.577	4.03
485.78	4
485.983	3.94
486.186	3.82
486.389	3.84
486.592	3.8
486.795	3.79
486.998	3.84
487.201	3.92
487.404	3.97
487.607	4.03
487.81	4.04
488.013	4.08
488.216	4.09
488.419	4.17
488.622	4.08
488.825	4.12
489.028	4.06
489.231	4.01
489.433	3.94
489.636	3.95
489.839	3.84
490.042	3.82
490.245	3.83
490.447	3.96
490.65	4.02
490.853	4.18
491.056	4.29
491.258	4.31
491.461	4.29
491.664	4.29
491.866	4.18
492.069	4.14
492.272	4.22
492.474	4.24
492.677	4.28
492.879	4.4
493.082	4.5
493.285	4.57
493.487	4.5
493.69	4.44
493.892	4.32
494.095	4.36
494.297	4.28
494.5	4.43
494.702	4.5
494.905	4.7
495.107	4.74
495.309	4.83
495.512	4.77
495.714	4.85
495.917	4.86
496.119	4.84
496.321	4.88
496.524	5
496.726	5.07
496.928	5.11
497.13	5.1
497.333	5.13
497.535	5.18
497.737	5.09
497.939	5.07
498.142	5.28
498.344	5.21
498.546	5.14
498.748	5.33
498.95	5.37
499.152	5.17
499.355	5.26
499.557	5.31
499.759	5.3
499.961	5.29
500.163	5.42
500.365	5.48
500.567	5.49
500.769	5.37
500.971	5.43
501.173	5.35
501.375	5.32
501.577	5.34
501.779	5.45
501.981	5.39
502.183	5.43
502.385	5.38
502.587	5.29
502.788	5.31
502.99	5.4
503.192	5.41
503.394	5.47
503.596	5.52
503.798	5.57
503.999	5.56
504.201	5.59
504.403	5.66
504.605	5.71
504.806	5.63
505.008	5.55
505.21	5.57
505.411	5.59
505.613	5.54
505.815	5.59
506.016	5.73
506.218	5.77
506.42	5.68
506.621	5.77
506.823	5.82
507.024	5.76
507.226	5.68
507.427	5.66
507.629	5.66
507.83	5.66
508.032	5.57
508.233	5.7
508.435	5.78
508.636	5.77
508.838	5.71
509.039	5.81
509.24	5.78
509.442	5.76
509.643	5.73
509.845	5.75
510.046	5.75
510.247	5.74
510.448	5.69
510.65	5.73
510.851	5.79
511.052	5.84
511.254	5.77
511.455	5.84
511.656	5.82
511.857	5.82
512.058	5.82
512.26	5.92
512.461	5.86
512.662	5.93
512.863	5.85
513.064	5.76
513.265	5.73
513.466	5.78
513.667	5.79
513.868	5.9
514.069	6.06
514.27	6.15
514.471	6.11
514.672	6.12
514.873	6.09
515.074	6.04
515.275	5.93
515.476	5.93
515.677	5.93
515.878	6.04
516.079	5.98
516.28	6.11
516.481	6.25
516.682	6.25
516.882	6.21
517.083	6.31
517.284	6.15
517.485	6.02
517.686	6
517.886	5.95
518.087	5.95
518.288	6.11
518.488	6.16
518.689	6.15
518.89	6.12
519.091	6.12
519.291	6.05
519.492	6.13
519.692	6.21
519.893	6.33
520.094	6.38
520.294	6.36
520.495	6.33
520.695	6.36
520.896	6.36
521.096	6.36
521.297	6.44
521.497	6.48
521.698	6.45
521.898	6.39
522.099	6.39
522.299	6.39
522.499	6.38
522.7	6.39
522.9	6.41
523.101	6.43
523.301	6.46
523.501	6.45
523.702	6.48
523.902	6.57
524.102	6.62
524.302	6.67
524.503	6.75
524.703	6.76
524.903	6.7
525.103	6.64
525.304	6.62
525.504	6.6
525.704	6.62
525.904	6.68
526.104	6.7
526.304	6.74
526.504	6.74
526.705	6.76
526.905	6.79
527.105	6.88
527.305	6.88
527.505	6.9
527.705	6.95
527.905	6.96
528.105	6.95
528.305	6.9
528.505	6.92
528.705	6.93
528.905	6.9
529.105	6.93
529.304	7.01
529.504	7.11
529.704	7.09
529.904	7.12
530.104	7.11
530.304	7.19
530.503	7.09
530.703	7.08
530.903	7.1
531.103	7.2
531.303	7.13
531.502	7.23
531.702	7.28
531.902	7.31
532.101	7.21
532.301	7.2
532.501	7.14
532.7	7.19
532.9	7.17
533.1	7.25
533.299	7.24
533.499	7.36
533.698	7.29
533.898	7.34
534.097	7.39
534.297	7.47
534.496	7.46
534.696	7.52
534.895	7.64
535.095	7.67
535.294	7.72
535.494	7.63
535.693	7.67
535.892	7.66
536.092	7.6
536.291	7.6
536.491	7.67
536.69	7.75
536.889	7.64
537.088	7.66
537.288	7.76
537.487	7.86
537.686	7.84
537.886	7.97
538.085	8.03
538.284	8.01
538.483	7.95
538.682	8.04
538.882	8.09
539.081	8.18
539.28	8.16
539.479	8.16
539.678	8.13
539.877	8.17
540.076	8.16
540.275	8.32
540.474	8.42
540.673	8.51
540.872	8.5
541.071	8.57
541.27	8.49
541.469	8.55
541.668	8.56
541.867	8.58
542.066	8.63
542.265	8.76
542.464	8.72
542.663	8.78
542.862	8.92
543.06	8.94
543.259	8.96
543.458	9.09
543.657	9.08
543.856	9.07
544.054	9.09
544.253	9.09
544.452	9.05
544.651	9.1
544.849	9.04
545.048	9.1
545.247	9.11
545.445	9.24
545.644	9.26
545.843	9.4
546.041	9.42
546.24	9.58
546.438	9.64
546.637	9.71
546.836	9.86
547.034	9.95
547.233	9.95
547.431	9.95
547.63	10.09
547.828	10.01
548.027	10.08
548.225	10.11
548.423	10.22
548.622	10.25
548.82	10.28
549.019	10.31
549.217	10.42
549.415	10.47
549.614	10.55
549.812	10.65
550.01	10.68
550.209	10.71
550.407	10.79
550.605	10.89
550.803	10.98
551.002	11.1
551.2	11.19
551.398	11.3
551.596	11.38
551.794	11.5
551.993	11.57
552.191	11.63
552.389	11.71
552.587	11.77
552.785	11.85
552.983	11.98
553.181	12.13
553.379	12.13
553.577	12.17
553.775	12.25
553.973	12.33
554.171	12.41
554.369	12.49
554.567	12.61
554.765	12.69
554.963	12.75
555.161	12.8
555.359	12.97
555.557	13.09
555.755	13.21
555.952	13.33
556.15	13.44
556.348	13.52
556.546	13.63
556.744	13.7
556.941	13.79
557.139	13.91
557.337	14
557.535	14.07
557.732	14.18
557.93	14.31
558.128	14.39
558.325	14.51
558.523	14.55
558.721	14.73
558.918	14.78
559.116	14.87
559.313	14.9
559.511	15.07
559.708	15.06
559.906	15.19
560.104	15.34
560.301	15.61
560.498	15.72
560.696	15.84
560.893	15.95
561.091	16.07
561.288	16.09
561.486	16.2
561.683	16.38
561.88	16.53
562.078	16.62
562.275	16.7
562.473	16.86
562.67	17.03
562.867	17.13
563.064	17.34
563.262	17.49
563.459	17.6
563.656	17.68
563.853	17.76
564.051	17.66
564.248	17.78
564.445	17.87
564.642	17.96
564.839	18.13
565.036	18.48
565.234	18.69
565.431	18.82
565.628	18.93
565.825	19.05
566.022	19.18
566.219	19.23
566.416	19.25
566.613	19.26
566.81	19.28
567.007	19.26
567.204	19.36
567.401	19.54
567.598	19.71
567.795	19.77
567.991	19.84
568.188	20
568.385	20.04
568.582	20.1
568.779	20.22
568.976	20.36
569.172	20.4
569.369	20.44
569.566	20.49
569.763	20.58
569.96	20.68
570.156	20.66
570.353	20.73
570.55	20.88
570.746	21.02
570.943	21
571.14	20.97
571.336	21.08
571.533	21.16
571.729	21.17
571.926	21.2
572.123	21.37
572.319	21.43
572.516	21.46
572.712	21.52
572.909	21.67
573.105	21.82
573.302	21.9
573.498	21.87
573.695	21.83
573.891	21.86
574.087	21.85
574.284	21.73
574.48	21.74
574.677	21.79
574.873	21.79
575.069	21.88
575.266	22.03
575.462	22.05
575.658	22.14
575.854	22.18
576.051	22.13
576.247	22.14
576.443	22.22
576.639	22.25
576.835	22.23
577.032	22.22
577.228	22.26
577.424	22.19
577.62	22.16
577.816	22.2
578.012	22.17
578.208	22.13
578.404	22.27
578.6	22.26
578.796	22.23
578.993	22.22
579.189	22.21
579.384	22.05
579.58	22.03
579.776	22.07
579.972	22
580.168	21.95
580.364	21.99
580.56	21.98
580.756	21.92
580.952	21.85
581.148	21.84
581.343	21.83
581.539	21.76
581.735	21.74
581.931	21.85
582.127	21.89
582.322	21.88
582.518	21.97
582.714	21.92
582.909	21.78
583.105	21.72
583.301	21.56
583.496	21.46
583.692	21.44
583.888	21.45
584.083	21.47
584.279	21.63
584.474	21.67
584.67	21.69
584.866	21.75
585.061	21.66
585.257	21.61
585.452	21.45
585.648	21.33
585.843	21.26
586.039	21.26
586.234	21.25
586.429	21.23
586.625	21.27
586.82	21.18
587.015	21.18
587.211	21.1
587.406	21.17
587.601	21.1
587.797	21.08
587.992	21
588.187	21.09
588.383	21.09
588.578	21.23
588.773	21.3
588.968	21.36
589.163	21.32
589.359	21.24
589.554	21.15
589.749	21.35
589.944	21.44
590.139	21.47
590.334	21.42
590.529	21.47
590.724	21.39
590.919	21.33
591.114	21.37
591.309	21.5
591.504	21.61
591.699	21.51
591.894	21.53
592.089	21.46
592.284	21.52
592.479	21.46
592.674	21.47
592.869	21.56
593.064	21.67
593.259	21.73
593.454	21.87
593.648	21.95
593.843	21.94
594.038	21.92
594.233	21.87
594.428	21.85
594.622	21.93
594.817	21.97
595.012	22.06
595.206	22.13
595.401	22.23
595.596	22.21
595.79	22.32
595.985	22.38
596.18	22.47
596.374	22.44
596.569	22.51
596.763	22.53
596.958	22.56
597.153	22.6
597.347	22.64
597.542	22.83
597.736	22.84
597.931	22.96
598.125	23.1
598.319	23.23
598.514	23.16
598.708	23.21
598.903	23.2
599.097	23.15
599.291	23.14
599.486	23.15
599.68	23.13
599.874	23.24
600.069	23.22
600.263	23.18
600.457	23.32
600.651	23.48
600.846	23.43
601.04	23.58
601.234	23.61
601.428	23.67
601.622	23.71
601.817	23.83
602.011	23.72
602.205	23.76
602.399	23.6
602.593	23.52
602.787	23.51
602.981	23.56
603.175	23.58
603.369	23.52
603.563	23.64
603.757	23.58
603.951	23.54
604.145	23.55
604.339	23.73
604.533	23.62
604.727	23.63
604.921	23.66
605.115	23.61
605.309	23.48
605.502	23.41
605.696	23.26
605.89	23.17
606.084	23.12
606.278	23.02
606.471	22.97
606.665	22.96
606.859	22.98
607.053	22.95
607.246	22.97
607.44	22.92
607.634	22.94
607.827	22.75
608.021	22.63
608.214	22.55
608.408	22.49
608.602	22.41
608.795	22.35
608.989	22.37
609.182	22.23
609.376	22.18
609.569	22.13
609.763	22.08
609.956	21.9
610.15	21.83
610.343	21.7
610.537	21.58
610.73	21.53
610.923	21.43
611.117	21.38
611.31	21.33
611.504	21.31
611.697	21.16
611.89	21.11
612.083	21
612.277	20.89
612.47	20.72
612.663	20.66
612.856	20.57
613.05	20.56
613.243	20.47
613.436	20.36
613.629	20.19
613.822	20.13
614.015	20.06
614.209	19.97
614.402	19.95
614.595	19.93
614.788	19.88
614.981	19.76
615.174	19.69
615.367	19.51
615.56	19.39
615.753	19.31
615.946	19.2
616.139	19.17
616.332	19.23
616.525	19.25
616.718	19.25
616.911	19.23
617.103	19.18
617.296	19.08
617.489	18.99
617.682	18.81
617.875	18.82
618.067	18.72
618.26	18.63
618.453	18.65
618.646	18.69
618.838	18.58
619.031	18.5
619.224	18.46
619.417	18.32
619.609	18.15
619.802	18.1
619.994	18.16
620.187	18.18
620.38	18.11
620.572	18.11
620.765	18.14
620.957	18.03
621.15	17.89
621.342	17.88
621.535	17.86
621.727	17.76
621.92	17.73
622.112	17.76
622.305	17.88
622.497	17.83
622.69	17.77
622.882	17.75
623.074	17.74
623.267	17.61
623.459	17.56
623.651	17.55
623.844	17.52
624.036	17.49
624.228	17.43
624.42	17.4
624.613	17.41
624.805	17.37
624.997	17.29
625.189	17.25
625.381	17.29
625.574	17.23
625.766	17.15
625.958	17.14
626.15	17.2
626.342	17.12
626.534	17.14
626.726	17.19
626.918	17.24
627.11	17.18
627.302	17.12
627.494	16.99
627.686	16.9
627.878	16.74
628.07	16.68
628.262	16.65
628.454	16.59
628.646	16.58
628.838	16.62
629.029	16.53
629.221	16.44
629.413	16.39
629.605	16.27
629.797	16.09
629.989	16.13
630.18	16.1
630.372	16.09
630.564	16.1
630.755	16.18
630.947	16.18
631.139	16.16
631.33	16.06
631.522	16.12
631.714	16.01
631.905	15.87
632.097	15.86
632.289	15.94
632.48	15.85
632.672	15.73
632.863	15.67
633.055	15.64
633.246	15.61
633.438	15.48
633.629	15.47
633.821	15.49
634.012	15.51
634.203	15.42
634.395	15.45
634.586	15.53
634.777	15.45
634.969	15.32
635.16	15.36
635.351	15.33
635.543	15.26
635.734	15.25
635.925	15.21
636.117	15.22
636.308	15.1
636.499	15.1
636.69	14.99
636.881	14.97
637.073	14.95
637.264	14.94
637.455	14.9
637.646	14.97
637.837	15.03
638.028	14.89
638.219	14.94
638.41	14.87
638.601	14.82
638.792	14.66
638.983	14.59
639.174	14.45
639.365	14.47
639.556	14.47
639.747	14.51
639.938	14.56
640.129	14.59
640.32	14.48
640.511	14.4
640.701	14.32
640.892	14.24
641.083	14.21
641.274	14.31
641.465	14.33
641.655	14.31
641.846	14.3
642.037	14.25
642.228	14.11
642.418	14.05
642.609	13.95
642.8	13.87
642.99	13.73
643.181	13.78
643.372	13.74
643.562	13.74
643.753	13.68
643.943	13.76
644.134	13.56
644.324	13.53
644.515	13.5
644.705	13.58
644.896	13.58
645.086	13.59
645.277	13.48
645.467	13.44
645.658	13.3
645.848	13.17
646.038	13.18
646.229	13.21
646.419	13.11
646.61	13.03
646.8	13.02
646.99	12.95
647.18	12.85
647.371	12.92
647.561	12.85
647.751	12.82
647.941	12.81
648.132	12.82
648.322	12.76
648.512	12.86
648.702	12.79
648.892	12.72
649.082	12.65
649.272	12.54
649.462	12.32
649.653	12.25
649.843	12.27
650.033	12.31
650.223	12.32
650.413	12.38
650.603	12.41
650.793	12.3
650.983	12.14
651.172	12.02
651.362	11.98
651.552	11.85
651.742	11.68
651.932	11.64
652.122	11.68
652.312	11.66
652.502	11.73
652.691	11.79
652.881	11.73
653.071	11.69
653.261	11.47
653.45	11.2
653.64	11.2
653.83	11.17
654.019	11.16
654.209	11.25
654.399	11.38
654.588	11.23
654.778	11.15
654.968	11.02
655.157	10.97
655.347	10.86
655.536	10.74
655.726	10.65
655.915	10.53
656.105	10.38
656.294	10.26
656.484	10.14
656.673	9.99
656.863	9.94
657.052	9.73
657.241	9.53
657.431	9.45
657.62	9.28
657.809	9.03
657.999	8.93
658.188	8.78
658.377	8.68
658.567	8.61
658.756	8.58
658.945	8.46
659.134	8.43
659.324	8.34
659.513	8.29
659.702	8.04
659.891	8
660.08	7.89
660.269	7.78
660.458	7.69
660.648	7.83
660.837	7.71
661.026	7.53
661.215	7.47
661.404	7.21
661.593	7.08
661.782	6.86
661.971	6.94
662.16	6.85
662.349	6.94
662.538	6.82
662.726	6.87
662.915	6.69
663.104	6.52
663.293	6.45
663.482	6.34
663.671	6.24
663.86	6.15
664.048	6.13
664.237	6.04
664.426	5.91
664.615	5.98
664.803	6.06
664.992	5.99
665.181	5.93
665.369	5.82
665.558	5.72
665.747	5.46
665.935	5.55
666.124	5.52
666.312	5.68
666.501	5.7
666.69	5.76
666.878	5.75
667.067	5.64
667.255	5.66
667.444	5.78
667.632	5.88
667.82	5.94
668.009	6.1
668.197	6.08
668.386	5.98
668.574	6.09
668.762	6
668.951	5.99
669.139	5.98
669.327	6.01
669.516	6.01
669.704	6.09
669.892	6.09
670.08	6.22
670.269	6.15
670.457	6.15
670.645	6.18
670.833	6.18
671.021	6.13
671.21	6.25
671.398	6.31
671.586	6.35
671.774	6.51
671.962	6.55
672.15	6.51
672.338	6.38
672.526	6.43
672.714	6.32
672.902	6.37
673.09	6.56
673.278	6.83
673.466	6.92
673.654	7.24
673.842	7.24
674.03	7.29
674.218	7.29
674.405	7.24
674.593	7.16
674.781	7.4
674.969	7.37
675.157	7.51
675.344	7.68
675.532	7.63
675.72	7.75
675.908	7.86
676.095	7.76
676.283	7.83
676.471	8.08
676.658	8.14
676.846	8.15
677.033	8.31
677.221	8.29
677.409	8.25
677.596	8.21
677.784	8.37
677.971	8.42
678.159	8.59
678.346	8.76
678.534	8.76
678.721	8.93
678.909	8.98
679.096	9
679.283	9.02
679.471	9.21
679.658	9.27
679.846	9.43
680.033	9.6
680.22	9.67
680.408	9.78
680.595	9.88
680.782	9.88
680.969	10.01
681.157	10.03
681.344	10.07
681.531	10.1
681.718	10.18
681.905	10.26
682.093	10.39
682.28	10.57
682.467	10.71
682.654	11.01
682.841	11.07
683.028	11.3
683.215	11.48
683.402	11.45
683.589	11.54
683.776	11.64
683.963	11.66
684.15	11.87
684.337	11.99
684.524	12.02
684.711	12.22
684.898	12.39
685.085	12.44
685.271	12.9
685.458	13.35
685.645	13.45
685.832	13.81
686.019	14.05
686.205	14.27
686.392	14.3
686.579	14.66
686.766	14.87
686.952	15.13
687.139	15.49
687.326	15.68
687.512	15.94
687.699	16.32
687.886	16.67
688.072	16.83
688.259	17.43
688.445	17.93
688.632	18.2
688.818	18.65
689.005	19
689.191	19.41
689.378	19.84
689.564	20.5
689.751	20.94
689.937	21.6
690.124	22.02
690.31	22.56
690.496	22.95
690.683	23.73
690.869	24.26
691.055	24.84
691.242	25.48
691.428	26
691.614	26.53
691.8	27.29
691.987	27.98
692.173	28.58
692.359	29.35
692.545	29.88
692.731	30.16
692.918	30.82
693.104	31.33
693.29	32.01
693.476	32.68
693.662	33.62
693.848	34.24
694.034	35.09
694.22	35.71
694.406	36.62
694.592	37.3
694.778	37.84
694.964	38.4
695.15	38.96
695.336	39.41
695.522	40.26
695.708	41.25
695.894	41.83
696.08	42.58
696.265	43.34
696.451	43.8
696.637	44.41
696.823	45.36
697.009	46.29
697.194	47.03
697.38	47.56
697.566	48.16
697.751	48.45
697.937	48.85
698.123	49.35
698.308	50.31
698.494	51.03
698.68	51.92
698.865	52.71
699.051	53.46
699.236	53.88
699.422	54.48
699.607	55
699.793	55.66
699.978	56.03
700.164	56.73
700.349	57.54
700.535	58.45
700.72	58.87
700.906	59.64
701.091	60.05
701.276	60.47
701.462	61.06
701.647	62.04
701.832	62.48
702.018	63.16
702.203	63.76
702.388	64.05
702.573	64.17
702.759	64.97
702.944	65.24
703.129	65.53
703.314	66.28
703.499	66.97
703.684	67.58
703.87	68.11
704.055	68.74
704.24	69.1
704.425	69.39
704.61	69.46
704.795	69.69
704.98	69.91
705.165	70.18
705.35	70.4
705.535	70.63
705.72	71.4
705.905	71.97
706.09	72.59
706.275	73.21
706.459	73.66
706.644	73.86
706.829	74.12
707.014	74.15
707.199	74.25
707.384	74.67
707.568	75.22
707.753	75.94
707.938	76.52
708.123	76.56
708.307	76.75
708.492	76.61
708.677	75.81
708.861	75.4
709.046	75.72
709.231	76.37
709.415	76.56
709.6	77.71
709.784	77.88
709.969	78.55
710.153	78.37
710.338	79.08
710.522	78.86
710.707	79.86
710.891	79.86
711.076	80.23
711.26	79.8
711.445	80.13
711.629	80.08
711.813	80.4
711.998	80.61
712.182	81.04
712.366	81.44
712.551	81.71
712.735	81.48
712.919	81.45
713.103	81.55
713.288	81.49
713.472	81.32
713.656	82.14
713.84	82.74
714.024	83.43
714.208	83.56
714.393	84.42
714.577	84.69
714.761	84.47
714.945	84.64
715.129	84.58
715.313	84.21
715.497	83.77
715.681	83.94
715.865	84.12
716.049	84.63
716.233	85.05
716.417	85.22
716.601	85.82
716.785	85.58
716.968	85.57
717.152	85.49
717.336	85.77
717.52	85.25
717.704	85.88
717.888	86.14
718.071	85.88
718.255	86.31
718.439	86.65
718.622	86.84
718.806	87.11
718.99	86.76
719.174	86.72
719.357	87.26
719.541	86.65
719.724	87.01
719.908	88.35
720.092	88.61
720.275	88.68
720.459	89.92
720.642	89.41
720.826	89.29
721.009	89.14
721.193	88.15
721.376	87.24
721.559	87.99
721.743	88.3
721.926	88.74
722.11	89.04
722.293	89.22
722.476	88.5
722.66	88.66
722.843	88.72
723.026	89.16
723.21	89.4
723.393	90.17
723.576	90.32
723.759	89.45
723.942	89.97
724.126	90.14
724.309	90.14
724.492	89.69
724.675	90.86
724.858	90.71
725.041	91.16
725.224	91.23
725.407	91.15
725.59	91.19
725.774	90.97
725.957	90.39
726.14	90.6
726.322	91.06
726.505	90.66
726.688	91.23
726.871	91.22
727.054	91.58
727.237	91.54
727.42	91.87
727.603	92.02
727.786	92.72
727.968	92.93
728.151	93.17
728.334	93.62
728.517	93.36
728.699	93.67
728.882	93.26
729.065	93.84
729.248	94.02
729.43	94.92
729.613	95.79
729.796	96.09
729.978	94.98
730.161	94.84
730.343	95.11
730.526	94.95
730.708	94.85
730.891	95.97
731.073	95.77
731.256	94.96
731.438	94.76
731.621	95.18
731.803	95.74
731.986	96.87
732.168	97.42
732.35	97.41
732.533	97.41
732.715	97.05
732.898	96.86
733.08	97.17
733.262	97.16
733.444	97.01
733.627	96.76
733.809	96.74
733.991	97.11
734.173	97.39
734.355	98.11
734.538	98.99
734.72	98.85
734.902	98.64
735.084	98.21
735.266	98.5
735.448	97.93
735.63	97.71
735.812	97.91
735.994	99.16
736.176	98.76
736.358	98.98
736.54	99.78
736.722	100.04
736.904	99.17
737.086	98.81
737.268	100.57
737.45	100.65
737.632	100.35
737.814	100.4
737.995	101.41
738.177	100.33
738.359	100.13
738.541	100.12
738.723	100.28
738.904	100.61
739.086	100.24
739.268	100.02
739.449	99.64
739.631	99.99
739.813	99.4
739.994	100.12
740.176	101.17
740.358	102.41
740.539	103.38
740.721	103.24
740.902	103.99
741.084	103.58
741.265	102.64
741.447	102.37
741.628	102.58
741.81	100.3
741.991	100.72
742.172	101.4
742.354	101.52
742.535	102.02
742.717	103.99
742.898	103.1
743.079	103.92
743.261	103.2
743.442	102.45
743.623	101.68
743.804	103.13
743.986	102.75
744.167	102.1
744.348	103.41
744.529	105.22
744.71	103.51
744.891	104.09
745.073	104.32
745.254	104.36
745.435	103.74
745.616	103.21
745.797	102.38
745.978	102.91
746.159	101.97
746.34	100.81
746.521	101.45
746.702	102.16
746.883	102.81
747.064	101.33
747.245	101.71
747.426	103.11
747.606	102.45
747.787	102.71
747.968	103.67
748.149	104.89
748.33	105.08
748.51	104.36
748.691	102.84
748.872	104.27
749.053	102.19
749.233	101.28
749.414	101.4
749.595	102.13
749.775	101.07
749.956	100.2
750.137	99.7
750.317	99.39
750.498	99.06
750.678	99.22
750.859	100.39
751.04	101.46
751.22	102.07
751.4	100.96
751.581	101.51
751.761	102.37
751.942	101.38
752.122	102.6
752.303	103.49
752.483	102.91
752.663	102.55
752.844	103.98
753.024	103.7
753.204	104.36
753.385	103.06
753.565	101.29
753.745	100.47
753.925	100.72
754.106	101.29
754.286	103.17
754.466	104.28
754.646	104.62
754.826	103.61
755.006	101.78
755.187	102.13
755.367	103.82
755.547	104.24
755.727	104.29
755.907	103.76
756.087	104.46
756.267	102.29
756.447	102.3
756.627	102.21
756.807	104.2
756.987	103.06
757.167	104.77
757.346	102.75
757.526	100.85
757.706	100.09
757.886	99.61
758.066	100.08
758.246	102.52
758.425	104.75
758.605	104.52
758.785	105.26
758.965	104.7
759.144	101.69
759.324	101.38
759.504	101.43
759.683	99.43
759.863	97.14
760.043	98.31
760.222	97.68
760.402	96.87
760.581	98.86
760.761	100.43
760.94	98.14
761.12	97.26
761.299	99.23
761.479	98.24
761.658	97.55
761.838	99.34
762.017	100.12
762.197	99.26
762.376	99.71
762.555	100.41
762.735	101.82
762.914	100.26
763.093	102.05
763.273	99.59
763.452	100.24
763.631	99.01
763.81	98.52
763.99	96.12
764.169	98.24
764.348	95.46
764.527	95.08
764.706	98.27
764.885	99.11
765.064	97.32
765.243	97.61
765.423	98.02
765.602	96.84
765.781	95.67
765.96	94.62
766.139	96.57
766.318	95.85
766.497	97.79
766.676	98.69
766.854	101.24
767.033	101.36
767.212	102.09
767.391	99.15
767.57	99.14
767.749	99.65
767.928	99.08
768.106	95.42
768.285	94.81
768.464	95.18
768.643	94.13
768.821	94.16
769	98.36
769.179	99.17
769.357	95.37
769.536	94.15
769.715	95.43
769.893	95.5
770.072	94.65
770.25	95.22
770.429	95.31
770.607	94.43
770.786	94.36
770.964	96.17
771.143	98.99
771.321	101.9
771.5	101.79
771.678	99.99
771.857	98.76
772.035	98.83
772.213	96.34
772.392	92.24
772.57	93.21
772.748	94.49
772.927	91.18
773.105	92.5
773.283	96.8
773.461	97.24
773.64	93.75
773.818	94.92
773.996	94.58
774.174	94.16
774.352	92.6
774.531	94.4
774.709	96.14
774.887	95.67
775.065	93.7
775.243	92.96
775.421	95.36
775.599	96.71
775.777	96.13
775.955	94.11
776.133	94.41
776.311	92.87
776.489	88.83
776.667	88.95
776.844	93
777.022	91.86
777.2	90.82
777.378	92.63
777.556	94.83
777.734	91.72
777.911	94.44
778.089	94.79
778.267	96.72
778.445	93.01
778.622	93.25
778.8	93.72
778.978	96.67
779.155	94.85
779.333	95.68
779.511	93.65
779.688	92.92
779.866	85.87
780.043	83.86
780.221	83.24
780.398	83.57
780.576	83.83
780.753	89.43
780.931	91.55
781.108	92.08
781.286	94.08
781.463	89.15
781.64	88.39
781.818	89.88
781.995	91.64
782.172	91.43
782.35	93.87
782.527	92.64
782.704	91.06
782.882	93.36
783.059	94.71
783.236	94.41
783.413	94.25
783.59	92.81
783.768	87.98
783.945	87.6
784.122	91.78
784.299	90.81
784.476	90.61
784.653	94.4
784.83	92.03
785.007	84.29
785.184	85.55
785.361	86.72
785.538	85.96
785.715	86.53
785.892	91.44
786.069	93.06
786.246	91.25
786.423	87.96
786.6	87.38
786.776	89.3
786.953	88.79
787.13	90.92
787.307	91.41
787.484	94.97
787.66	91.68
787.837	87.48
788.014	88.34
788.191	86.46
788.367	83.57
788.544	84.65
788.721	89.72
788.897	87.13
789.074	90.67
789.25	88.93
789.427	90.07
789.603	84.68
789.78	87.94
789.956	80.04
790.133	80.49
790.309	79.54
790.486	83.71
790.662	81.37
790.839	86.19
791.015	91.73
791.192	88.38
791.368	88.45
791.544	86.33
791.721	91.12
791.897	88.17
792.073	90.64
792.249	86.79
792.426	90.77
792.602	86.29
792.778	81.4
792.954	82.03
793.13	80.08
793.307	75.54
793.483	69.9
793.659	72.22
793.835	70.41
794.011	76.21
794.187	72.37
794.363	74.26
794.539	78.49
794.715	77.35
794.891	72.44
795.067	74.29
795.243	81.11
795.419	76.24
795.595	76.32
795.771	79.66
795.947	84.31
796.122	76.17
796.298	81.94
796.474	84.43
796.65	84.04
796.826	82.26
797.001	89.55
797.177	83.23
797.353	87.03
797.529	89.99
797.704	86.54
797.88	84.98
798.056	79.83
798.231	77.96
798.407	77.53
798.582	81.09
798.758	82.49
798.934	93.58
799.109	91.15
799.285	84.69
799.46	92.91
799.636	90.23
799.811	88.94
799.986	88.77
800.162	99.18
800.337	87.34
800.513	85.09
800.688	80.66
800.863	83.17
801.039	76.25
801.214	78.57
801.389	83.81
801.565	91.5
801.74	91.11
801.915	91.88
802.09	98.43
802.265	101.88
802.441	96.97
802.616	94.92
802.791	97.72
802.966	95.74
803.141	93.09
803.316	83.25
803.491	85.54
803.666	79.28
803.841	74.16
804.016	70.11
804.191	81.88
804.366	77.32
804.541	82.1
804.716	76.05
804.891	72.47
805.066	71.07
805.241	74.87
805.416	73.85
805.591	78.47
805.765	82.24
805.94	79.63
806.115	75.09
806.29	69.14
806.464	76.54
806.639	76.56
806.814	69.34
806.989	61.61
807.163	70.01
807.338	60.84
807.512	59.95
807.687	57.27
807.862	68.12
808.036	69.3
808.211	70.58
808.385	74.67
808.56	79.57
808.734	76.25
808.909	77.58
809.083	76.16
809.258	74.76
809.432	83.25
809.606	72.82
809.781	70.44
809.955	74.21
810.13	76.15
810.304	69.42
810.478	74.29
810.652	80.82
810.827	81.93
811.001	78.06
811.175	78.38
811.349	84.5
811.524	73.61
811.698	68.08
811.872	68.4
812.046	70.82
812.22	68.14
812.394	67.03
812.568	67.44
812.742	69.91
812.916	63.55
813.09	65.67
813.264	77.68
813.438	85.23
813.612	87.16
813.786	82.66
813.96	89.12
814.134	77.33
814.308	82.9
814.482	78.71
814.656	87.99
814.83	91.47
815.003	91.84
815.177	85.36
815.351	81.33
815.525	95.86
815.698	85.62
815.872	77.41
816.046	67.54
816.219	72.77
816.393	67.37
816.567	67.78
816.74	74.08
816.914	87.56
817.088	88.1
817.261	75.13
817.435	74.45
817.608	71.77
817.782	62.31
817.955	56.42
818.129	52.5
818.302	60.32
818.475	72.63
818.649	72.35
818.822	67.75
818.996	79.51
819.169	76.25
819.342	60.21
819.516	64.49
819.689	77.94
819.862	70.72
820.035	60.75
820.209	51.91
820.382	57.77
820.555	55.33
820.728	56.72
820.901	54.89
821.075	70.37
821.248	78.6
821.421	72.16
821.594	55.23
821.767	71.39
821.94	97.8
822.113	67.91
822.286	69.99
822.459	100.93
822.632	90.71
822.805	72.5
822.978	85.82
823.151	83.43
823.324	63.62
823.496	37.13
823.669	36.39
823.842	37.24
824.015	34.84
824.188	26.34
824.361	37.81
824.533	31.32
824.706	45.34
824.879	50.48
825.051	86.67
825.224	97.92
825.397	93.71
825.569	72.27
825.742	72.75
825.915	70.44
826.087	53.19
826.26	51.85
826.432	63.51
826.605	69.84
826.777	68.35
826.95	78.76
827.122	76.68
827.295	70.2
827.467	61.65
827.64	34.73
827.812	32.43
827.984	37.07
828.157	33.94
828.329	27.29
828.501	40
828.674	52.73
828.846	52.61
829.018	62.19
829.19	62.57
829.363	74.45
829.535	68.82
829.707	74.34
829.879	52.55
830.051	55.83
830.223	61.47
830.395	41.13
830.568	27.01
830.74	40.72
830.912	54.01
831.084	27.7
831.256	34.16
831.428	20.6
831.6	12.68
831.772	-5.69
831.943	4.76
832.115	22.67
832.287	60.34
832.459	65.36
832.631	72.41
832.803	88.38
832.975	71.94
833.146	57.8
833.318	58.2
833.49	70.22
833.662	66.51
833.833	63.81
834.005	55.75
834.177	62.47
834.348	42.07
834.52	20.46
834.692	32.04
834.863	30.73
835.035	25.49
835.206	31.32
835.378	47.3
835.549	28.03
835.721	42.02
835.892	31.24
836.064	34.44
836.235	54.54
836.407	85.64
836.578	64.16
836.749	72.2
836.921	68.81
837.092	42.37
837.264	5.58
837.435	-5.91
837.606	10.5
837.777	39.56
837.949	49.91
838.12	46.14
838.291	68.17
838.462	67.19
838.633	52.47
838.805	41.71
838.976	55.35
839.147	55.78
839.318	30.73
839.489	19.79
839.66	29.6
839.831	49.04
840.002	36.37
840.173	28.29
840.344	28.27
840.515	29.67
840.686	-10.99
840.857	-7.79
841.028	15.47
841.199	24.48
841.369	4.16
841.54	6.68
841.711	31.8
841.882	34.08
842.053	16.73
842.223	2.52
842.394	39.56
842.565	35.58
842.736	48.58
842.906	55.24
843.077	95.01
843.248	77.05
843.418	57.64
843.589	40.82
843.759	71.74
843.93	74.42
844.101	81.17
844.271	99.47
844.442	124.2
844.612	116.05
844.783	89.65
844.953	68.26
845.123	66.69
845.294	43.48
845.464	30.19
845.635	48.53
845.805	85.13
845.975	83.94
846.146	67.28
846.316	55.6
846.486	68.38
846.656	51.97
846.827	25.91
846.997	29.51
847.167	65.96
847.337	44.4
847.507	24.46
847.677	32.69
847.848	52.29
848.018	43.74
848.188	42.88
848.358	33.21
848.528	50.63
848.698	49.93
848.868	16.22
849.038	21.08
849.208	58.63
849.378	60.23
849.548	21.77
849.718	48.24
849.887	54.08
850.057	12.54
850.227	-11.55
850.397	6.61
850.567	28.85
850.737	35.55
850.906	6.55
851.076	-24.22
851.246	-22.21
851.415	2.6
851.585	16.96
851.755	40.51
851.924	82.49
852.094	81.51
852.264	60.46
852.433	27.32
852.603	42.79
852.772	38.47
852.942	21.29
853.111	10.73
853.281	54.68
853.45	53.01
853.62	18.47
853.789	-7.63
853.959	36.64
854.128	16.88
854.297	-21.99
854.467	-11.1
854.636	25.13
854.805	25.73
854.975	5.81
855.144	19.93
855.313	67.53
855.482	63.38
855.652	23.25
855.821	29.05
855.99	63.55
856.159	52.12
856.328	43.36
856.497	58.52
856.667	78.78
856.836	64.11
857.005	46.81
857.174	-30.35
857.343	-45.06
857.512	4.76
857.681	-73.81
857.85	-78.73
858.019	-23.92
858.188	-13.24
858.356	-48.08
858.525	-36.57
858.694	-7.53
858.863	-0.3
859.032	-31.08
859.201	-18.81
859.369	27.67
859.538	37.59
859.707	14.85
859.876	43.03
860.044	58.34
860.213	62.5
860.382	39.58
860.55	67.19
860.719	116.46
860.888	124.56
861.056	116.04
861.225	85.56
861.393	150.16
861.562	98.37
861.73	74.06
861.899	66.12
862.067	40.34
862.236	51.27
862.404	5.36
862.572	-33.8
862.741	-1.28
862.909	11.07
863.078	-21.64
863.246	-31.49
863.414	10.61
863.582	-41.22
863.751	-18.74
863.919	-37.87
864.087	26.9
864.255	24.29
864.424	0.63
864.592	13.43
864.76	56.58
864.928	61.55
865.096	45.57
865.264	70.42
865.432	64.47
865.6	69.41
865.768	-1.93
865.936	-48.83
866.104	-39.27
866.272	-35.92
866.44	-40.32
866.608	-29.44
866.776	-56.01
866.944	-88.6
867.112	-150.58
867.28	-288.49
867.448	-462.62
867.615	-88.23
867.783	43.23
867.951	-8.35
868.119	74.91
868.286	33.13
868.454	12.73
868.622	-40.77
868.789	-14.04
868.957	1.87
869.125	-13.17
869.292	-14.72
869.46	-5.93
869.627	34.15
869.795	-20.01
869.963	8.36
870.13	32.33
870.298	49.18
870.465	-10.83
870.632	6.9
870.8	15.17
870.967	21.66
871.135	-16.98
871.302	23.18
871.469	69.34
871.637	41.36
871.804	45.3
871.971	18.64
872.139	29.97
872.306	44.89
872.473	33.97
872.64	-24.59
872.807	18.05
872.975	17.06
873.142	-0.89
873.309	20.26
873.476	112.31
873.643	109.56
873.81	104.77
873.977	79.93
874.144	66.43
874.311	58.7
874.478	1.59
874.645	-39.03
874.812	-151
874.979	2933.33
875.146	-78.92
875.313	24.94
875.48	113.62
875.647	98.82
875.813	21.63
875.98	26.29
876.147	16.46
876.314	-20.41
876.481	-100.36
876.647	-96.82
876.814	-52.82
876.981	-25.2
877.147	-41.44
877.314	-8.43
877.481	105.35
877.647	103.86
877.814	57.54
877.98	23.26
878.147	103.11
878.314	70.42
878.48	49.35
878.647	38.5
878.813	102.82
878.979	100.33
879.146	76.6
879.312	92.16
879.479	97.65
879.645	94.18
879.811	13.6
879.978	33.71
880.144	10.2
880.31	45.19
880.477	-32.66
880.643	3.14
880.809	29.41
880.975	71.49
881.142	-7.92
881.308	9.51
881.474	44.23
881.64	39.19
881.806	-19.23
881.972	25.83
882.138	34.17
882.304	34.29
882.47	-31.35
882.636	-49.05
882.802	-52.81
882.968	-11.44
883.134	-80.36
883.3	-78.24
883.466	56.42
883.632	98.61
883.798	30.13
883.964	35.34
884.129	45.46
884.295	20.06
884.461	-26.25
884.627	-36.12
884.793	-15
884.958	2.57
885.124	-17.35
885.29	-16.23
885.455	21.4
885.621	34.88
885.787	-36.34
885.952	-0.97
886.118	-21.67
886.283	-21.37
886.449	-56.95
886.614	-51.11
886.78	-86.24
886.945	-70.76
887.111	-166.28
887.276	-165.73
887.442	-330.91
887.607	-153.41
887.773	-253.97
887.938	-152.98
888.103	-68.21
888.269	1.22
888.434	21.02
888.599	26.92
888.764	71.02
888.93	84.58
889.095	48.33
889.26	35.9
889.425	75.8
889.59	95.07
889.756	71.04
889.921	66.13
890.086	57.81
890.251	34.96
890.416	-35.49
890.581	-49.7
890.746	-40.47
890.911	29.21
891.076	-11.69
891.241	-14.29
891.406	19.02
891.571	31.71
891.736	-21.72
891.901	-16.88
892.065	34.45
892.23	25.8
892.395	-26.03
892.56	-56.44
892.725	14.21
892.889	-2.24
893.054	-87.14
893.219	-87.25
893.384	-65.71
893.548	-108.27
893.713	-144.34
893.878	-97.11
