Data from Ofra_PP_Phys_0CX04_Reflection_1.txt Node
Date: Sat Jul 24 20:02:17 EDT 2021
User: USUARIO
Spectrometer: FLMT01687
Trigger mode: 0
Integration Time (sec): 1.100000E0
Scans to average: 2
Electric dark correction enabled: true
Nonlinearity correction enabled: false
Boxcar width: 2
XAxis mode: Wavelengths
Number of Pixels in Spectrum: 3648
>>>>>Begin Spectral Data<<<<<
179.494	423.18
179.716	490.18
179.937	824.5
180.158	727.33
180.38	338.43
180.601	-419.52
180.823	-61.1
181.044	1780.62
181.265	-58.85
181.486	-49.21
181.708	48.18
181.929	105.33
182.15	-460.64
182.372	-40.08
182.593	77433.33
182.814	994.36
183.035	225.6
183.257	166.31
183.478	117.55
183.699	134.54
183.92	67.02
184.141	41.09
184.363	30.28
184.584	54.6
184.805	27.53
185.026	44.24
185.247	38.87
185.468	-1.57
185.689	3.14
185.91	21.74
186.132	23.66
186.353	34.36
186.574	59.7
186.795	67.5
187.016	48.12
187.237	62.19
187.458	45.9
187.679	74.03
187.9	78.77
188.121	110.39
188.342	104.77
188.563	116.7
188.784	106.79
189.005	96.38
189.226	90.27
189.447	73.33
189.667	81.18
189.888	62.67
190.109	51.52
190.33	31.28
190.551	28.53
190.772	16.09
190.993	12.7
191.214	20.72
191.434	9.33
191.655	22.29
191.876	9.99
192.097	12.08
192.318	9.51
192.538	7.78
192.759	10.24
192.98	19.77
193.201	17.55
193.421	18.27
193.642	38.32
193.863	33.56
194.083	23.71
194.304	28.7
194.525	36.02
194.745	15.03
194.966	-19.53
195.187	-23.01
195.407	-60.79
195.628	-93.85
195.848	-63.77
196.069	-43.32
196.29	-46.49
196.51	-45
196.731	-73.13
196.951	-67.18
197.172	-67.51
197.392	-51.57
197.613	-21.05
197.833	8.95
198.054	-6.71
198.274	22.55
198.495	28.7
198.715	60.07
198.936	20.59
199.156	30.22
199.377	18.27
199.597	16.37
199.817	4.96
200.038	43.25
200.258	75.55
200.479	74.92
200.699	78.75
200.919	69.27
201.14	34.86
201.36	4.83
201.58	9.39
201.801	19.7
202.021	20.59
202.241	52.65
202.461	63.41
202.682	56.25
202.902	68.73
203.122	47.47
203.342	50.3
203.563	69.98
203.783	49.19
204.003	-18.15
204.223	-50.4
204.443	4.35
204.663	-11.68
204.884	-21.93
205.104	5.68
205.324	51.52
205.544	30.05
205.764	38.31
205.984	68.62
206.204	98.93
206.424	115.82
206.644	92.9
206.864	107.15
207.084	96.96
207.304	77.19
207.525	28.05
207.745	43.52
207.964	26.03
208.184	32.06
208.404	20.76
208.624	30.52
208.844	37.39
209.064	18.01
209.284	9.99
209.504	26.75
209.724	25.9
209.944	27.83
210.164	40.45
210.384	69.11
210.604	52.8
210.823	19.74
211.043	7.05
211.263	7.67
211.483	-15.27
211.703	-18.06
211.922	16.73
212.142	48.08
212.362	49.24
212.582	38.36
212.801	42.51
213.021	26.12
213.241	19.67
213.461	-7.97
213.68	-21.97
213.9	-26.02
214.12	-23.37
214.339	-35.65
214.559	-2.54
214.779	35.62
214.998	65.59
215.218	46.97
215.438	67.86
215.657	72.84
215.877	72.26
216.096	43.85
216.316	63.39
216.535	44.94
216.755	60.97
216.974	51.61
217.194	59.29
217.413	46.5
217.633	43.19
217.852	-0.51
218.072	-5.16
218.291	-12.72
218.511	0.53
218.73	-30.46
218.95	-22.29
219.169	-8.21
219.389	-27.76
219.608	-20.13
219.827	14.08
220.047	30.36
220.266	29.05
220.485	37.03
220.705	49.17
220.924	27.32
221.143	35.42
221.363	1.89
221.582	19.24
221.801	-2.7
222.021	30.55
222.24	31.91
222.459	57.91
222.678	33.67
222.897	51.01
223.117	38.94
223.336	41.72
223.555	41.92
223.774	69.52
223.993	52.84
224.213	61.53
224.432	44.13
224.651	67.79
224.87	43.01
225.089	66.12
225.308	54.34
225.527	71.87
225.746	53.56
225.965	43.58
226.184	30.63
226.404	42.49
226.623	26
226.842	34.63
227.061	63.79
227.28	69.71
227.499	69.82
227.718	84.44
227.936	63.68
228.155	43.52
228.374	17.21
228.593	18.37
228.812	7.25
229.031	22.52
229.25	11.63
229.469	30.93
229.688	22.32
229.907	26.73
230.125	34.54
230.344	53.82
230.563	53.23
230.782	75.46
231.001	46.99
231.22	27.59
231.438	22.51
231.657	21.32
231.876	-7.99
232.095	20.31
232.313	53.36
232.532	50.13
232.751	56.33
232.969	59.44
233.188	56.79
233.407	37.05
233.625	24.3
233.844	27.85
234.063	32.58
234.281	63.65
234.5	71.15
234.719	87.91
234.937	73.17
235.156	58.9
235.374	45.52
235.593	67.49
235.811	55.54
236.03	64.57
236.249	65.6
236.467	80.59
236.686	38.18
236.904	51.96
237.123	6.37
237.341	14.93
237.559	-14.16
237.778	1.66
237.996	-22.54
238.215	5.44
238.433	11.83
238.652	21.24
238.87	-9.1
239.088	25.15
239.307	30.86
239.525	23.78
239.743	20.35
239.962	44.42
240.18	19.11
240.398	7.43
240.617	-0.24
240.835	7.8
241.053	-34.21
241.271	-18.56
241.49	7.14
241.708	3.21
241.926	-2.74
242.144	29.01
242.363	30.44
242.581	24.78
242.799	37.14
243.017	47.72
243.235	30.22
243.453	47.69
243.672	32.56
243.89	40.98
244.108	42.18
244.326	48.34
244.544	36.95
244.762	28.46
244.98	26.44
245.198	31.28
245.416	19.11
245.634	22.13
245.852	45.32
246.07	36.22
246.288	26.14
246.506	45.82
246.724	58.18
246.942	47.15
247.16	54.1
247.378	56.66
247.596	53.03
247.814	45.61
248.032	24.36
248.25	27.66
248.468	23.88
248.685	36.11
248.903	28.21
249.121	40.09
249.339	20.56
249.557	12.84
249.775	2.03
249.992	-19.67
250.21	-34.49
250.428	-13.92
250.646	-7.53
250.863	-5.69
251.081	6.52
251.299	26.58
251.517	29.46
251.734	22.83
251.952	13.85
252.17	15.32
252.387	27.45
252.605	9.29
252.823	15.56
253.04	39.98
253.258	48.08
253.475	45.87
253.693	58.59
253.911	78.22
254.128	48.55
254.346	53.25
254.563	43.41
254.781	31.94
254.998	11.56
255.216	9.21
255.433	12.71
255.651	32.32
255.868	33.86
256.086	38.21
256.303	46.02
256.521	33.43
256.738	15.82
256.956	16.82
257.173	21.33
257.39	33.99
257.608	26.35
257.825	31.51
258.043	33.02
258.26	37.71
258.477	18.85
258.695	25
258.912	-7.58
259.129	7.85
259.346	-20.12
259.564	-8.76
259.781	0.09
259.998	10.7
260.216	23.79
260.433	40.2
260.65	27.72
260.867	28.27
261.084	32.52
261.302	13.91
261.519	17.32
261.736	15.22
261.953	8.55
262.17	14.3
262.387	19.55
262.604	15.15
262.822	12.67
263.039	10.24
263.256	12.73
263.473	20.05
263.69	7.24
263.907	26.26
264.124	17.18
264.341	26.85
264.558	13.57
264.775	22.35
264.992	23.56
265.209	47.74
265.426	27.85
265.643	33.86
265.86	30.53
266.077	44.39
266.294	32.68
266.51	43.01
266.727	36.56
266.944	56.19
267.161	36.49
267.378	43.65
267.595	57.88
267.812	35.18
268.028	25.91
268.245	37.85
268.462	23.64
268.679	1.11
268.896	36.54
269.112	27.03
269.329	28.3
269.546	40.77
269.763	47.77
269.979	30.2
270.196	31.35
270.413	24.74
270.629	5.48
270.846	4.08
271.063	29.64
271.279	25.81
271.496	15.02
271.712	10.69
271.929	5.9
272.146	1.21
272.362	14.12
272.579	42.7
272.795	55.93
273.012	65.24
273.228	55.02
273.445	35.42
273.661	12.34
273.878	-29.77
274.094	-34.24
274.311	-32.39
274.527	-4.57
274.744	15.52
274.96	45.43
275.177	50.07
275.393	49.13
275.609	49.27
275.826	51.58
276.042	49.7
276.259	54.61
276.475	51.26
276.691	44.03
276.908	39.21
277.124	51.29
277.34	29.02
277.557	45.15
277.773	56.77
277.989	51.22
278.205	59.33
278.422	83.92
278.638	80.46
278.854	75.42
279.07	69.01
279.286	37.03
279.503	14.56
279.719	8.98
279.935	9.04
280.151	-2.72
280.367	25.68
280.583	44.07
280.799	43.86
281.016	42.58
281.232	50.71
281.448	52.89
281.664	66.5
281.88	63.17
282.096	50.76
282.312	58.89
282.528	61.03
282.744	60.13
282.96	62.43
283.176	80.34
283.392	76.87
283.608	73.37
283.824	55.51
284.04	63.46
284.256	70.16
284.471	65.22
284.687	50.76
284.903	54.75
285.119	51.11
285.335	26.67
285.551	38.53
285.767	49.67
285.982	30.46
286.198	8.26
286.414	12.35
286.63	-0.08
286.846	21.47
287.061	15.54
287.277	27.55
287.493	42.38
287.709	42.05
287.924	26.32
288.14	50.62
288.356	55.63
288.571	51.73
288.787	45.39
289.003	50.74
289.218	46.34
289.434	37.02
289.65	43.63
289.865	43.65
290.081	37.63
290.296	35.47
290.512	36.81
290.727	33.47
290.943	27.07
291.159	19.63
291.374	24.78
291.59	12.73
291.805	14.49
292.021	18.88
292.236	27.88
292.451	22.91
292.667	33.02
292.882	33.31
293.098	48.51
293.313	44.13
293.529	37.68
293.744	19.08
293.959	-1.33
294.175	-8.56
294.39	7.95
294.605	11.37
294.821	22.5
295.036	26.26
295.251	42.72
295.467	36.42
295.682	44.28
295.897	37.43
296.112	35.64
296.328	26.14
296.543	16.63
296.758	4.09
296.973	30.05
297.188	38.41
297.404	16.5
297.619	24.33
297.834	18.43
298.049	6.91
298.264	2.49
298.479	16.67
298.694	13.39
298.909	21.13
299.125	16.02
299.34	26.5
299.555	26.14
299.77	30.76
299.985	9.38
300.2	5.09
300.415	-16.76
300.63	-15.05
300.845	-5.85
301.06	-4.79
301.275	21.71
301.49	24.42
301.704	31.33
301.919	13.21
302.134	9.7
302.349	6.92
302.564	6.76
302.779	12.43
302.994	32.52
303.209	35.76
303.423	32.92
303.638	38.99
303.853	20.59
304.068	-6.06
304.283	10.4
304.497	7.61
304.712	30.03
304.927	28.44
305.142	23.77
305.356	27.79
305.571	40.49
305.786	23.51
306	37.15
306.215	56.99
306.43	37.1
306.644	53.05
306.859	59.95
307.074	56.51
307.288	41.61
307.503	59.78
307.717	28.56
307.932	24.16
308.147	19.59
308.361	34.79
308.576	12.35
308.79	-23.01
309.005	0.67
309.219	9.18
309.434	12.4
309.648	10.92
309.863	53.89
310.077	31.36
310.292	25.91
310.506	31.5
310.72	56.76
310.935	44.24
311.149	44.1
311.364	52.25
311.578	54.62
311.792	43.76
312.007	50.55
312.221	40.72
312.435	39.23
312.649	25.29
312.864	17.99
313.078	-8.01
313.292	14.4
313.507	27.93
313.721	27.2
313.935	38.43
314.149	66.38
314.363	62.07
314.578	24.12
314.792	29.63
315.006	25.42
315.22	15.26
315.434	5.78
315.648	22.79
315.862	18.77
316.077	30.65
316.291	33.18
316.505	57.59
316.719	46.87
316.933	25.54
317.147	30.39
317.361	12.11
317.575	2.2
317.789	8.41
318.003	10.07
318.217	11.99
318.431	31.89
318.645	44.13
318.859	42.74
319.073	61.41
319.287	51.46
319.5	30.64
319.714	8.6
319.928	0.76
320.142	-16.26
320.356	12.31
320.57	25.58
320.784	17.18
320.997	24.55
321.211	31.94
321.425	-1.21
321.639	-28.56
321.853	-0.73
322.066	-8.23
322.28	-21.13
322.494	2.28
322.707	55.19
322.921	39.23
323.135	50.9
323.349	47.46
323.562	42.61
323.776	16.37
323.989	22.22
324.203	9.03
324.417	19.22
324.63	-7.85
324.844	-15.47
325.057	-22.27
325.271	-24.72
325.485	-19.4
325.698	23.25
325.912	48.55
326.125	50.99
326.339	61.41
326.552	61.15
326.766	59.44
326.979	35.79
327.193	39.33
327.406	26.93
327.619	23.2
327.833	27.71
328.046	23.96
328.26	21.73
328.473	10.3
328.686	12.55
328.9	9.81
329.113	21.56
329.326	16.57
329.54	48.31
329.753	57.57
329.966	47.1
330.179	52.88
330.393	56.83
330.606	42.41
330.819	52.79
331.032	63.71
331.246	60.28
331.459	65.79
331.672	58.25
331.885	31.7
332.098	16
332.311	21.9
332.525	3.75
332.738	10.76
332.951	25.74
333.164	32.65
333.377	29.06
333.59	41.01
333.803	35.92
334.016	26.88
334.229	20.39
334.442	25.15
334.655	39.68
334.868	54.98
335.081	59.38
335.294	60.4
335.507	67.14
335.72	52.74
335.933	29.45
336.146	33.31
336.359	41.89
336.572	16.17
336.785	7.1
336.997	13.42
337.21	17.44
337.423	13.11
337.636	28.22
337.849	40.59
338.062	42.52
338.274	39.54
338.487	32.63
338.7	34.15
338.913	14.89
339.125	19.32
339.338	25.69
339.551	37.73
339.763	50.77
339.976	74.63
340.189	67.93
340.402	68.53
340.614	62.36
340.827	45.74
341.039	25.33
341.252	9.5
341.465	21.09
341.677	8.53
341.89	-17.93
342.102	-10
342.315	3.89
342.527	-16.65
342.74	1.7
342.952	43.23
343.165	44.62
343.377	53.98
343.59	40.27
343.802	48.13
344.015	44.74
344.227	54.39
344.44	49.73
344.652	53.15
344.864	51.8
345.077	45.34
345.289	29.9
345.502	38.09
345.714	38.76
345.926	35.42
346.139	22.79
346.351	33.35
346.563	33.2
346.775	39.34
346.988	24.05
347.2	41.74
347.412	28.04
347.624	22.64
347.837	19.45
348.049	42.84
348.261	42.28
348.473	34.41
348.685	16.6
348.897	11.99
349.11	-2.2
349.322	-16.19
349.534	0.87
349.746	17.22
349.958	26.02
350.17	21.32
350.382	22.17
350.594	27.99
350.806	42.95
351.018	32.34
351.23	38.2
351.442	44.35
351.654	44.43
351.866	23.72
352.078	34.27
352.29	37.11
352.502	39.98
352.714	67.6
352.926	65.81
353.138	53.87
353.35	39.52
353.561	33.79
353.773	4.28
353.985	17.17
354.197	18.66
354.409	27.25
354.621	27.82
354.832	41.46
355.044	27.36
355.256	24.98
355.468	28.68
355.679	27.17
355.891	26.21
356.103	29.52
356.314	25.8
356.526	31.27
356.738	47.08
356.949	40.12
357.161	41.99
357.373	39.65
357.584	35.98
357.796	21.57
358.008	15.01
358.219	27.57
358.431	43.67
358.642	41.06
358.854	47.46
359.065	51.47
359.277	27.78
359.488	14.34
359.7	3.21
359.911	-11.52
360.123	-9.54
360.334	1.4
360.546	9.05
360.757	19.08
360.969	28.84
361.18	35.59
361.391	31.04
361.603	34.42
361.814	49.56
362.025	39.75
362.237	36.06
362.448	38.84
362.659	44.51
362.871	35.15
363.082	46.65
363.293	45.6
363.504	41.94
363.716	33.62
363.927	38.69
364.138	26.69
364.349	10.76
364.56	13.32
364.772	-7.72
364.983	-3.19
365.194	-10.77
365.405	5.86
365.616	6.25
365.827	19.93
366.038	25.04
366.25	43.57
366.461	28.75
366.672	30.76
366.883	39.82
367.094	30.41
367.305	13.04
367.516	22.29
367.727	13.68
367.938	6.3
368.149	-3.18
368.36	9.41
368.571	10.58
368.781	8.52
368.992	5.39
369.203	24.38
369.414	22.33
369.625	17.21
369.836	23.52
370.047	23.53
370.258	17.34
370.468	14.01
370.679	-6.81
370.89	-0.05
371.101	16.78
371.312	5.68
371.522	9.51
371.733	25.46
371.944	25.39
372.155	27.81
372.365	15.86
372.576	19.91
372.787	16.4
372.997	12.38
373.208	10.33
373.419	28.94
373.629	13.98
373.84	17.81
374.05	3.06
374.261	6.33
374.472	-2.89
374.682	14.12
374.893	10.09
375.103	19.97
375.314	10.34
375.524	12.61
375.735	20.2
375.945	24.07
376.156	22.49
376.366	33.03
376.577	46.59
376.787	34.42
376.997	41.92
377.208	45.46
377.418	29.32
377.629	22.21
377.839	21.09
378.049	18.28
378.26	23.37
378.47	36.95
378.68	41.8
378.89	37.78
379.101	33.84
379.311	18.22
379.521	-2.35
379.732	-7.33
379.942	-16.54
380.152	-6.32
380.362	3.81
380.572	13.14
380.783	25.82
380.993	36.52
381.203	32.08
381.413	30.64
381.623	32.42
381.833	23.35
382.043	13.64
382.253	13.81
382.463	22.57
382.674	18.53
382.884	11.53
383.094	13.17
383.304	14.98
383.514	12.54
383.724	22.17
383.934	11.27
384.144	6.53
384.353	7.64
384.563	10.13
384.773	6.75
384.983	18.05
385.193	22.52
385.403	17.86
385.613	17.04
385.823	18.12
386.033	22.13
386.242	20.63
386.452	25.44
386.662	21.58
386.872	21.47
387.082	20.88
387.291	14.97
387.501	14.22
387.711	12.78
387.921	3.56
388.13	1.45
388.34	10.3
388.55	7.67
388.759	12.44
388.969	16.72
389.179	16.24
389.388	14.87
389.598	15.79
389.807	13.29
390.017	17.47
390.227	17.19
390.436	13.9
390.646	16.81
390.855	17.59
391.065	14.25
391.274	12.55
391.484	10.84
391.693	9.06
391.903	9.78
392.112	9.78
392.322	13.14
392.531	16.34
392.74	15.04
392.95	10.8
393.159	9.86
393.369	10.4
393.578	7.6
393.787	8.21
393.997	11.18
394.206	10.61
394.415	9.43
394.625	10.51
394.834	8.5
395.043	7.49
395.252	8.63
395.462	8.56
395.671	9.08
395.88	10.53
396.089	11.51
396.298	10.75
396.508	10.65
396.717	10.76
396.926	10.05
397.135	9.05
397.344	9.07
397.553	9.33
397.762	9.58
397.971	10.22
398.181	10.26
398.39	9.58
398.599	8.97
398.808	8.42
399.017	8.31
399.226	8.6
399.435	9.15
399.644	9.37
399.853	9.21
400.062	8.77
400.27	8.71
400.479	8.73
400.688	8.37
400.897	8.63
401.106	8.68
401.315	8.15
401.524	8.15
401.733	8.43
401.941	8.37
402.15	8.41
402.359	8.59
402.568	8.51
402.777	8.39
402.985	8.24
403.194	8.21
403.403	8.34
403.612	8.2
403.82	8.22
404.029	8.2
404.238	8.08
404.446	8.07
404.655	7.84
404.864	7.75
405.072	7.75
405.281	7.83
405.489	7.55
405.698	7.6
405.906	7.44
406.115	7.2
406.324	7.13
406.532	7.23
406.741	7.4
406.949	7.33
407.158	7.41
407.366	7.36
407.574	7.47
407.783	7.39
407.991	7.52
408.2	7.51
408.408	7.41
408.617	7.26
408.825	7.08
409.033	7.12
409.242	7.21
409.45	7.26
409.658	7.16
409.867	7.24
410.075	7
410.283	6.75
410.491	6.73
410.7	6.61
410.908	6.61
411.116	6.67
411.324	6.68
411.533	6.67
411.741	6.68
411.949	6.75
412.157	6.61
412.365	6.78
412.573	6.67
412.781	6.75
412.99	6.52
413.198	6.69
413.406	6.57
413.614	6.63
413.822	6.66
414.03	6.7
414.238	6.52
414.446	6.56
414.654	6.36
414.862	6.29
415.07	6.34
415.278	6.43
415.486	6.19
415.694	6.42
415.902	6.43
416.109	6.35
416.317	6.38
416.525	6.3
416.733	6.2
416.941	6.21
417.149	6.07
417.357	6.04
417.564	6.21
417.772	6.18
417.98	6.02
418.188	6.15
418.395	6.17
418.603	6.24
418.811	6.28
419.019	6.24
419.226	6.32
419.434	6.27
419.642	6.21
419.849	6.19
420.057	6.46
420.265	6.44
420.472	6.29
420.68	6.38
420.887	6.27
421.095	6.19
421.302	6.04
421.51	6.22
421.717	6.14
421.925	6.21
422.132	6.12
422.34	5.99
422.547	5.8
422.755	5.75
422.962	5.82
423.17	5.75
423.377	5.8
423.585	5.94
423.792	5.94
423.999	5.79
424.207	5.87
424.414	5.88
424.621	5.95
424.829	5.93
425.036	5.96
425.243	5.91
425.451	5.87
425.658	5.66
425.865	5.61
426.072	5.58
426.28	5.52
426.487	5.37
426.694	5.41
426.901	5.42
427.108	5.37
427.315	5.3
427.523	5.49
427.73	5.57
427.937	5.36
428.144	5.31
428.351	5.35
428.558	5.32
428.765	5.23
428.972	5.28
429.179	5.34
429.386	5.39
429.593	5.44
429.8	5.41
430.007	5.52
430.214	5.57
430.421	5.59
430.628	5.42
430.835	5.32
431.042	5.35
431.249	5.26
431.456	5.39
431.662	5.59
431.869	5.67
432.076	5.67
432.283	5.62
432.49	5.43
432.697	5.38
432.903	5.17
433.11	5.11
433.317	5.22
433.524	5.32
433.73	5.16
433.937	5.41
434.144	5.49
434.35	5.54
434.557	5.46
434.764	5.55
434.97	5.5
435.177	5.5
435.384	5.26
435.59	5.41
435.797	5.4
436.003	5.44
436.21	5.33
436.416	5.37
436.623	5.14
436.829	5.22
437.036	5.22
437.242	5.23
437.449	5.36
437.655	5.37
437.862	5.29
438.068	5.31
438.275	5.4
438.481	5.29
438.687	5.3
438.894	5.33
439.1	5.25
439.307	5.26
439.513	5.3
439.719	5.4
439.926	5.34
440.132	5.37
440.338	5.3
440.544	5.38
440.751	5.3
440.957	5.41
441.163	5.26
441.369	5.29
441.575	5.14
441.782	5.1
441.988	4.95
442.194	5.09
442.4	5.11
442.606	5.29
442.812	5.38
443.018	5.49
443.224	5.55
443.431	5.63
443.637	5.61
443.843	5.49
444.049	5.48
444.255	5.51
444.461	5.48
444.667	5.33
444.873	5.34
445.079	5.51
445.284	5.38
445.49	5.32
445.696	5.32
445.902	5.37
446.108	5.25
446.314	5.29
446.52	5.33
446.726	5.49
446.931	5.43
447.137	5.49
447.343	5.56
447.549	5.33
447.755	5.27
447.96	5.31
448.166	5.24
448.372	5.27
448.578	5.41
448.783	5.4
448.989	5.51
449.195	5.6
449.4	5.57
449.606	5.6
449.812	5.46
450.017	5.4
450.223	5.39
450.428	5.3
450.634	5.36
450.84	5.55
451.045	5.63
451.251	5.58
451.456	5.66
451.662	5.65
451.867	5.63
452.073	5.48
452.278	5.54
452.483	5.5
452.689	5.48
452.894	5.52
453.1	5.61
453.305	5.48
453.51	5.48
453.716	5.39
453.921	5.39
454.127	5.41
454.332	5.35
454.537	5.36
454.742	5.47
454.948	5.43
455.153	5.43
455.358	5.46
455.563	5.41
455.769	5.38
455.974	5.42
456.179	5.37
456.384	5.34
456.589	5.42
456.795	5.28
457	5.11
457.205	5.1
457.41	5.12
457.615	5.18
457.82	5.35
458.025	5.54
458.23	5.5
458.435	5.64
458.64	5.48
458.845	5.53
459.05	5.36
459.255	5.37
459.46	5.26
459.665	5.33
459.87	5.3
460.075	5.29
460.28	5.32
460.485	5.38
460.69	5.39
460.895	5.18
461.099	5.16
461.304	5.31
461.509	5.31
461.714	5.15
461.919	5.26
462.123	5.29
462.328	5.17
462.533	5.01
462.738	5.16
462.942	5.15
463.147	5.25
463.352	5.26
463.556	5.3
463.761	5.32
463.966	5.39
464.17	5.4
464.375	5.36
464.58	5.39
464.784	5.43
464.989	5.32
465.193	5.24
465.398	5.31
465.602	5.47
465.807	5.44
466.011	5.56
466.216	5.62
466.42	5.62
466.625	5.52
466.829	5.56
467.034	5.58
467.238	5.72
467.443	5.65
467.647	5.55
467.851	5.52
468.056	5.45
468.26	5.27
468.464	5.23
468.669	5.38
468.873	5.36
469.077	5.43
469.282	5.41
469.486	5.59
469.69	5.69
469.894	5.69
470.099	5.7
470.303	5.76
470.507	5.62
470.711	5.48
470.915	5.46
471.119	5.46
471.324	5.38
471.528	5.34
471.732	5.51
471.936	5.59
472.14	5.62
472.344	5.79
472.548	5.91
472.752	5.83
472.956	5.78
473.16	5.73
473.364	5.66
473.568	5.66
473.772	5.63
473.976	5.72
474.18	5.77
474.384	5.78
474.588	5.69
474.792	5.69
474.995	5.66
475.199	5.66
475.403	5.6
475.607	5.7
475.811	5.68
476.015	5.7
476.218	5.71
476.422	5.77
476.626	5.81
476.83	5.93
477.033	5.84
477.237	5.78
477.441	5.81
477.644	5.68
477.848	5.61
478.052	5.53
478.255	5.56
478.459	5.62
478.663	5.83
478.866	5.8
479.07	5.9
479.273	6
479.477	6
479.681	5.91
479.884	5.95
480.088	5.93
480.291	5.88
480.495	5.81
480.698	5.84
480.901	5.95
481.105	6
481.308	5.96
481.512	5.98
481.715	6.02
481.919	5.93
482.122	5.96
482.325	5.95
482.529	6.01
482.732	5.93
482.935	5.91
483.138	5.88
483.342	5.89
483.545	5.9
483.748	5.94
483.952	5.93
484.155	6.02
484.358	6.05
484.561	5.99
484.764	6.08
484.967	6.17
485.171	6.21
485.374	6.11
485.577	6.18
485.78	6.08
485.983	6.07
486.186	6.01
486.389	6.08
486.592	6.13
486.795	6.23
486.998	6.26
487.201	6.28
487.404	6.37
487.607	6.38
487.81	6.31
488.013	6.32
488.216	6.31
488.419	6.32
488.622	6.22
488.825	6.22
489.028	6.22
489.231	6.26
489.433	6.17
489.636	6.23
489.839	6.14
490.042	6.1
490.245	6.04
490.447	6.18
490.65	6.21
490.853	6.37
491.056	6.44
491.258	6.52
491.461	6.5
491.664	6.46
491.866	6.31
492.069	6.32
492.272	6.37
492.474	6.39
492.677	6.49
492.879	6.69
493.082	6.77
493.285	6.8
493.487	6.8
493.69	6.76
493.892	6.65
494.095	6.65
494.297	6.64
494.5	6.77
494.702	6.77
494.905	6.97
495.107	7.01
495.309	7.06
495.512	7.01
495.714	7.16
495.917	7.2
496.119	7.2
496.321	7.29
496.524	7.35
496.726	7.4
496.928	7.46
497.13	7.53
497.333	7.52
497.535	7.61
497.737	7.53
497.939	7.45
498.142	7.52
498.344	7.5
498.546	7.49
498.748	7.58
498.95	7.58
499.152	7.51
499.355	7.64
499.557	7.66
499.759	7.68
499.961	7.81
500.163	7.89
500.365	7.9
500.567	7.86
500.769	7.86
500.971	7.91
501.173	7.95
501.375	7.98
501.577	8.02
501.779	8.1
501.981	8.09
502.183	8.08
502.385	8.06
502.587	8.11
502.788	8.16
502.99	8.19
503.192	8.29
503.394	8.27
503.596	8.27
503.798	8.36
503.999	8.43
504.201	8.46
504.403	8.6
504.605	8.67
504.806	8.57
505.008	8.56
505.21	8.57
505.411	8.63
505.613	8.54
505.815	8.63
506.016	8.71
506.218	8.76
506.42	8.67
506.621	8.78
506.823	8.89
507.024	8.83
507.226	8.79
507.427	8.87
507.629	8.99
507.83	8.89
508.032	8.88
508.233	9.01
508.435	9.08
508.636	9.05
508.838	9.04
509.039	9.13
509.24	9.13
509.442	9.15
509.643	9.11
509.845	9.24
510.046	9.29
510.247	9.29
510.448	9.32
510.65	9.4
510.851	9.5
511.052	9.56
511.254	9.53
511.455	9.57
511.656	9.61
511.857	9.56
512.058	9.59
512.26	9.7
512.461	9.68
512.662	9.72
512.863	9.72
513.064	9.68
513.265	9.67
513.466	9.78
513.667	9.77
513.868	9.89
514.069	10.01
514.27	10.14
514.471	10.07
514.672	10.16
514.873	10.16
515.074	10.18
515.275	10.12
515.476	10.21
515.677	10.21
515.878	10.29
516.079	10.24
516.28	10.34
516.481	10.44
516.682	10.48
516.882	10.5
517.083	10.65
517.284	10.6
517.485	10.58
517.686	10.61
517.886	10.59
518.087	10.53
518.288	10.62
518.488	10.58
518.689	10.56
518.89	10.52
519.091	10.61
519.291	10.54
519.492	10.6
519.692	10.72
519.893	10.92
520.094	10.93
520.294	11.01
520.495	11.11
520.695	11.13
520.896	11.11
521.096	11.18
521.297	11.26
521.497	11.29
521.698	11.27
521.898	11.27
522.099	11.32
522.299	11.34
522.499	11.37
522.7	11.47
522.9	11.49
523.101	11.47
523.301	11.57
523.501	11.58
523.702	11.64
523.902	11.76
524.102	11.79
524.302	11.77
524.503	11.84
524.703	11.82
524.903	11.75
525.103	11.75
525.304	11.84
525.504	11.88
525.704	11.91
525.904	11.95
526.104	12.05
526.304	12
526.504	12.05
526.705	12.1
526.905	12.24
527.105	12.34
527.305	12.51
527.505	12.48
527.705	12.54
527.905	12.53
528.105	12.51
528.305	12.39
528.505	12.47
528.705	12.56
528.905	12.55
529.105	12.61
529.304	12.72
529.504	12.81
529.704	12.77
529.904	12.83
530.104	12.9
530.304	13.02
530.503	12.97
530.703	12.96
530.903	13
531.103	13.05
531.303	12.96
531.502	13.04
531.702	13.15
531.902	13.19
532.101	13.15
532.301	13.22
532.501	13.24
532.7	13.35
532.9	13.38
533.1	13.45
533.299	13.51
533.499	13.51
533.698	13.47
533.898	13.51
534.097	13.55
534.297	13.54
534.496	13.66
534.696	13.69
534.895	13.77
535.095	13.85
535.294	13.95
535.494	13.94
535.693	14.01
535.892	14.05
536.092	13.96
536.291	13.98
536.491	13.99
536.69	14.04
536.889	14.02
537.088	14.15
537.288	14.21
537.487	14.32
537.686	14.36
537.886	14.48
538.085	14.5
538.284	14.57
538.483	14.57
538.682	14.68
538.882	14.75
539.081	14.84
539.28	14.81
539.479	14.85
539.678	14.85
539.877	14.9
540.076	14.93
540.275	15.1
540.474	15.21
540.673	15.27
540.872	15.31
541.071	15.4
541.27	15.41
541.469	15.42
541.668	15.45
541.867	15.47
542.066	15.48
542.265	15.57
542.464	15.57
542.663	15.69
542.862	15.87
543.06	15.94
543.259	15.95
543.458	16.05
543.657	16.03
543.856	16.08
544.054	16.12
544.253	16.13
544.452	16.23
544.651	16.27
544.849	16.29
545.048	16.41
545.247	16.58
545.445	16.65
545.644	16.75
545.843	16.8
546.041	16.88
546.24	16.98
546.438	17.04
546.637	17.15
546.836	17.29
547.034	17.4
547.233	17.46
547.431	17.52
547.63	17.6
547.828	17.6
548.027	17.75
548.225	17.75
548.423	17.89
548.622	18.04
548.82	18.19
549.019	18.23
549.217	18.35
549.415	18.4
549.614	18.43
549.812	18.41
550.01	18.39
550.209	18.55
550.407	18.7
550.605	18.85
550.803	19.05
551.002	19.25
551.2	19.3
551.398	19.41
551.596	19.46
551.794	19.55
551.993	19.67
552.191	19.74
552.389	19.85
552.587	20.05
552.785	20.19
552.983	20.28
553.181	20.49
553.379	20.59
553.577	20.61
553.775	20.67
553.973	20.72
554.171	20.8
554.369	20.92
554.567	21.06
554.765	21.22
554.963	21.42
555.161	21.46
555.359	21.55
555.557	21.68
555.755	21.76
555.952	21.89
556.15	22.08
556.348	22.19
556.546	22.3
556.744	22.41
556.941	22.46
557.139	22.52
557.337	22.7
557.535	22.79
557.732	22.89
557.93	23.06
558.128	23.29
558.325	23.34
558.523	23.49
558.721	23.62
558.918	23.63
559.116	23.59
559.313	23.65
559.511	23.76
559.708	23.87
559.906	24.03
560.104	24.21
560.301	24.43
560.498	24.6
560.696	24.76
560.893	24.93
561.091	25.05
561.288	25.22
561.486	25.31
561.683	25.38
561.88	25.46
562.078	25.61
562.275	25.57
562.473	25.75
562.67	25.94
562.867	26.11
563.064	26.23
563.262	26.43
563.459	26.54
563.656	26.56
563.853	26.67
564.051	26.73
564.248	26.9
564.445	26.98
564.642	27.12
564.839	27.19
565.036	27.44
565.234	27.56
565.431	27.53
565.628	27.66
565.825	27.72
566.022	27.75
566.219	27.85
566.416	28.02
566.613	28.01
566.81	28.2
567.007	28.24
567.204	28.21
567.401	28.27
567.598	28.44
567.795	28.43
567.991	28.58
568.188	28.75
568.385	28.77
568.582	28.83
568.779	28.91
568.976	29
569.172	29.07
569.369	29.21
569.566	29.2
569.763	29.28
569.96	29.26
570.156	29.23
570.353	29.22
570.55	29.33
570.746	29.36
570.943	29.29
571.14	29.32
571.336	29.45
571.533	29.52
571.729	29.59
571.926	29.65
572.123	29.73
572.319	29.69
572.516	29.69
572.712	29.69
572.909	29.93
573.105	29.94
573.302	30
573.498	30
573.695	29.93
573.891	29.84
574.087	29.92
574.284	29.88
574.48	29.81
574.677	29.86
574.873	29.87
575.069	29.88
575.266	29.92
575.462	30
575.658	30.12
575.854	30.18
576.051	30.11
576.247	30.12
576.443	30.1
576.639	30
576.835	29.92
577.032	29.94
577.228	29.88
577.424	29.88
577.62	29.89
577.816	29.83
578.012	29.94
578.208	29.97
578.404	30.07
578.6	30.11
578.796	30.18
578.993	29.99
579.189	29.95
579.384	29.86
579.58	29.79
579.776	29.74
579.972	29.74
580.168	29.71
580.364	29.6
580.56	29.57
580.756	29.58
580.952	29.47
581.148	29.44
581.343	29.47
581.539	29.36
581.735	29.27
581.931	29.34
582.127	29.32
582.322	29.23
582.518	29.36
582.714	29.24
582.909	29.13
583.105	29.11
583.301	29.1
583.496	28.94
583.692	28.92
583.888	28.83
584.083	28.79
584.279	28.79
584.474	28.8
584.67	28.85
584.866	28.87
585.061	28.82
585.257	28.77
585.452	28.6
585.648	28.45
585.843	28.41
586.039	28.41
586.234	28.32
586.429	28.43
586.625	28.51
586.82	28.53
587.015	28.5
587.211	28.49
587.406	28.49
587.601	28.44
587.797	28.33
587.992	28.29
588.187	28.39
588.383	28.27
588.578	28.28
588.773	28.32
588.968	28.34
589.163	28.25
589.359	28.21
589.554	28.13
589.749	28.23
589.944	28.22
590.139	28.22
590.334	28.31
590.529	28.41
590.724	28.32
590.919	28.26
591.114	28.3
591.309	28.37
591.504	28.34
591.699	28.24
591.894	28.23
592.089	28.07
592.284	28.07
592.479	28.04
592.674	28.11
592.869	28.13
593.064	28.29
593.259	28.24
593.454	28.28
593.648	28.27
593.843	28.34
594.038	28.32
594.233	28.27
594.428	28.19
594.622	28.27
594.817	28.33
595.012	28.29
595.206	28.38
595.401	28.56
595.596	28.61
595.79	28.64
595.985	28.82
596.18	28.83
596.374	28.81
596.569	28.84
596.763	28.84
596.958	28.81
597.153	28.86
597.347	28.89
597.542	28.97
597.736	28.99
597.931	29
598.125	29.13
598.319	29.24
598.514	29.25
598.708	29.26
598.903	29.29
599.097	29.27
599.291	29.15
599.486	29.06
599.68	29.05
599.874	29.09
600.069	29.11
600.263	29.07
600.457	29.18
600.651	29.3
600.846	29.33
601.04	29.33
601.234	29.34
601.428	29.34
601.622	29.3
601.817	29.31
602.011	29.25
602.205	29.42
602.399	29.34
602.593	29.29
602.787	29.26
602.981	29.29
603.175	29.2
603.369	29.16
603.563	29.17
603.757	29.12
603.951	29.19
604.145	29.16
604.339	29.23
604.533	29.18
604.727	29.15
604.921	29.06
605.115	28.99
605.309	28.89
605.502	28.89
605.696	28.8
605.89	28.75
606.084	28.77
606.278	28.67
606.471	28.61
606.665	28.51
606.859	28.43
607.053	28.36
607.246	28.39
607.44	28.3
607.634	28.36
607.827	28.33
608.021	28.19
608.214	28.15
608.408	28.04
608.602	27.89
608.795	27.71
608.989	27.69
609.182	27.54
609.376	27.47
609.569	27.41
609.763	27.29
609.956	27.2
610.15	27.15
610.343	27.1
610.537	27.03
610.73	27.15
610.923	27.01
611.117	26.87
611.31	26.73
611.504	26.64
611.697	26.4
611.89	26.31
612.083	26.23
612.277	26.16
612.47	26.07
612.663	26.01
612.856	25.91
613.05	25.88
613.243	25.73
613.436	25.59
613.629	25.53
613.822	25.52
614.015	25.45
614.209	25.4
614.402	25.38
614.595	25.32
614.788	25.2
614.981	25.15
615.174	24.98
615.367	24.89
615.56	24.77
615.753	24.7
615.946	24.54
616.139	24.63
616.332	24.59
616.525	24.57
616.718	24.62
616.911	24.65
617.103	24.6
617.296	24.58
617.489	24.45
617.682	24.36
617.875	24.35
618.067	24.25
618.26	24.07
618.453	24.11
618.646	24.03
618.838	23.83
619.031	23.82
619.224	23.89
619.417	23.85
619.609	23.78
619.802	23.81
619.994	23.82
620.187	23.76
620.38	23.69
620.572	23.61
620.765	23.56
620.957	23.37
621.15	23.28
621.342	23.25
621.535	23.31
621.727	23.25
621.92	23.23
622.112	23.21
622.305	23.19
622.497	23.06
622.69	23.03
622.882	23
623.074	22.99
623.267	22.9
623.459	22.91
623.651	22.87
623.844	22.93
624.036	22.94
624.228	22.95
624.42	22.86
624.613	22.76
624.805	22.77
624.997	22.63
625.189	22.62
625.381	22.63
625.574	22.68
625.766	22.47
625.958	22.43
626.15	22.31
626.342	22.25
626.534	22.25
626.726	22.24
626.918	22.31
627.11	22.32
627.302	22.32
627.494	22.17
627.686	22.19
627.878	22.01
628.07	21.92
628.262	21.87
628.454	21.85
628.646	21.69
628.838	21.72
629.029	21.68
629.221	21.59
629.413	21.55
629.605	21.59
629.797	21.52
629.989	21.6
630.18	21.56
630.372	21.55
630.564	21.49
630.755	21.42
630.947	21.33
631.139	21.17
631.33	21.07
631.522	21.07
631.714	21.13
631.905	21.06
632.097	21.19
632.289	21.28
632.48	21.24
632.672	21.08
632.863	20.94
633.055	20.76
633.246	20.65
633.438	20.52
633.629	20.43
633.821	20.45
634.012	20.49
634.203	20.38
634.395	20.35
634.586	20.48
634.777	20.4
634.969	20.3
635.16	20.29
635.351	20.29
635.543	20.17
635.734	20.1
635.925	20.09
636.117	20.13
636.308	20.03
636.499	19.98
636.69	19.89
636.881	19.76
637.073	19.7
637.264	19.63
637.455	19.51
637.646	19.58
637.837	19.63
638.028	19.44
638.219	19.51
638.41	19.51
638.601	19.36
638.792	19.23
638.983	19.24
639.174	19.06
639.365	19.04
639.556	19.11
639.747	19.13
639.938	19.07
640.129	19.1
640.32	18.98
640.511	18.78
640.701	18.68
640.892	18.64
641.083	18.51
641.274	18.47
641.465	18.47
641.655	18.4
641.846	18.26
642.037	18.19
642.228	18.18
642.418	18.15
642.609	17.92
642.8	17.89
642.99	17.8
643.181	17.67
643.372	17.57
643.562	17.67
643.753	17.55
643.943	17.51
644.134	17.39
644.324	17.3
644.515	17.18
644.705	17.16
644.896	17.08
645.086	17.05
645.277	16.93
645.467	16.91
645.658	16.77
645.848	16.71
646.038	16.67
646.229	16.68
646.419	16.55
646.61	16.49
646.8	16.47
646.99	16.42
647.18	16.33
647.371	16.37
647.561	16.28
647.751	16.21
647.941	16.1
648.132	16.05
648.322	15.88
648.512	15.96
648.702	15.85
648.892	15.84
649.082	15.84
649.272	15.73
649.462	15.55
649.653	15.46
649.843	15.2
650.033	15.12
650.223	15.05
650.413	14.99
650.603	14.92
650.793	14.97
650.983	14.87
651.172	14.78
651.362	14.72
651.552	14.65
651.742	14.5
651.932	14.42
652.122	14.47
652.312	14.41
652.502	14.33
652.691	14.35
652.881	14.28
653.071	14.22
653.261	14.03
653.45	13.98
653.64	13.88
653.83	13.78
654.019	13.68
654.209	13.75
654.399	13.77
654.588	13.66
654.778	13.61
654.968	13.55
655.157	13.42
655.347	13.31
655.536	13.18
655.726	13.07
655.915	12.95
656.105	12.87
656.294	12.69
656.484	12.57
656.673	12.56
656.863	12.47
657.052	12.34
657.241	12.19
657.431	12.12
657.62	11.82
657.809	11.65
657.999	11.54
658.188	11.45
658.377	11.37
658.567	11.34
658.756	11.19
658.945	11.04
659.134	10.91
659.324	10.75
659.513	10.68
659.702	10.44
659.891	10.35
660.08	10.23
660.269	10.14
660.458	9.98
660.648	10.01
660.837	9.86
661.026	9.75
661.215	9.64
661.404	9.44
661.593	9.36
661.782	9.18
661.971	9.1
662.16	9.02
662.349	9.05
662.538	8.86
662.726	8.85
662.915	8.72
663.104	8.53
663.293	8.38
663.482	8.38
663.671	8.35
663.86	8.21
664.048	8.04
664.237	7.98
664.426	7.79
664.615	7.73
664.803	7.79
664.992	7.89
665.181	7.84
665.369	7.73
665.558	7.64
665.747	7.52
665.935	7.44
666.124	7.39
666.312	7.55
666.501	7.39
666.69	7.3
666.878	7.28
667.067	7.15
667.255	7.07
667.444	7.25
667.632	7.27
667.82	7.24
668.009	7.26
668.197	7.24
668.386	7.17
668.574	7.23
668.762	7.25
668.951	7.25
669.139	7.09
669.327	6.94
669.516	6.88
669.704	6.83
669.892	6.87
670.08	6.98
670.269	7.1
670.457	7.07
670.645	7.05
670.833	7.14
671.021	7.09
671.21	7.08
671.398	7.23
671.586	7.21
671.774	7.1
671.962	7.03
672.15	6.93
672.338	6.79
672.526	6.87
672.714	6.85
672.902	6.98
673.09	7.1
673.278	7.31
673.466	7.34
673.654	7.49
673.842	7.47
674.03	7.51
674.218	7.5
674.405	7.52
674.593	7.66
674.781	7.87
674.969	7.85
675.157	8.02
675.344	8.09
675.532	8.01
675.72	8.08
675.908	8.23
676.095	8.06
676.283	8.13
676.471	8.32
676.658	8.23
676.846	8.17
677.033	8.31
677.221	8.26
677.409	8.16
677.596	8.24
677.784	8.43
677.971	8.48
678.159	8.67
678.346	8.81
678.534	8.81
678.721	8.85
678.909	8.87
679.096	8.89
679.283	9.02
679.471	9.23
679.658	9.31
679.846	9.55
680.033	9.77
680.22	9.87
680.408	9.96
680.595	10.19
680.782	10.17
680.969	10.17
681.157	10.09
681.344	10.15
681.531	10.04
681.718	10.06
681.905	10.24
682.093	10.42
682.28	10.54
682.467	10.74
682.654	10.98
682.841	11.04
683.028	11.32
683.215	11.57
683.402	11.76
683.589	12
683.776	12.19
683.963	12.23
684.15	12.42
684.337	12.47
684.524	12.59
684.711	12.75
684.898	13
685.085	13.1
685.271	13.53
685.458	13.94
685.645	14.27
685.832	14.69
686.019	14.97
686.205	15.18
686.392	15.36
686.579	15.68
686.766	15.92
686.952	16.35
687.139	16.86
687.326	17.15
687.512	17.54
687.699	17.89
687.886	18.25
688.072	18.53
688.259	19.22
688.445	19.69
688.632	20.01
688.818	20.65
689.005	21.06
689.191	21.49
689.378	22
689.564	22.66
689.751	22.93
689.937	23.71
690.124	24.06
690.31	24.51
690.496	24.94
690.683	25.77
690.869	26.23
691.055	26.92
691.242	27.62
691.428	28.4
691.614	29.11
691.8	29.73
691.987	30.33
692.173	31.06
692.359	31.87
692.545	32.32
692.731	32.82
692.918	33.65
693.104	34.14
693.29	34.8
693.476	35.61
693.662	36.69
693.848	37.31
694.034	38.09
694.22	38.71
694.406	39.41
694.592	39.87
694.778	40.57
694.964	41.14
695.15	41.62
695.336	42.3
695.522	43.02
695.708	43.66
695.894	44.51
696.08	45.53
696.265	46.17
696.451	46.75
696.637	47.6
696.823	48.16
697.009	48.73
697.194	49.46
697.38	50.26
697.566	50.59
697.751	51.21
697.937	51.86
698.123	52.53
698.308	53.17
698.494	53.88
698.68	54.66
698.865	55.03
699.051	55.76
699.236	56.39
699.422	57
699.607	57.45
699.793	58.43
699.978	58.79
700.164	59.16
700.349	60.19
700.535	61.09
700.72	61.4
700.906	62.28
701.091	63.11
701.276	63.37
701.462	63.95
701.647	64.88
701.832	65.22
702.018	65.94
702.203	66.63
702.388	67.2
702.573	67.61
702.759	68.54
702.944	68.87
703.129	69.27
703.314	69.81
703.499	70.64
703.684	71.47
703.87	71.97
704.055	72.61
704.24	73.06
704.425	72.98
704.61	72.88
704.795	73.49
704.98	73.53
705.165	74.06
705.35	74.89
705.535	75.33
705.72	76.13
705.905	76.93
706.09	77.26
706.275	77.57
706.459	77.94
706.644	77.99
706.829	78.45
707.014	78.81
707.199	79.31
707.384	79.95
707.568	80.25
707.753	81.1
707.938	81.53
708.123	81.63
708.307	81.8
708.492	82.04
708.677	81.38
708.861	81.52
709.046	81.91
709.231	82.15
709.415	82.44
709.6	83.55
709.784	83.62
709.969	84.03
710.153	84.4
710.338	84.99
710.522	84.73
710.707	85.68
710.891	85.67
711.076	86.45
711.26	86.29
711.445	86.57
711.629	86.73
711.813	87.26
711.998	87.2
712.182	87.28
712.366	87.7
712.551	87.98
712.735	87.99
712.919	88.19
713.103	89.14
713.288	89.38
713.472	89.25
713.656	89.72
713.84	90.08
714.024	90.11
714.208	90.36
714.393	90.84
714.577	91.01
714.761	90.64
714.945	90.88
715.129	90.76
715.313	90.81
715.497	90.7
715.681	91.34
715.865	91.56
716.049	92.32
716.233	92.65
716.417	93.01
716.601	92.8
716.785	92.6
716.968	92.54
717.152	92.56
717.336	92.78
717.52	92.79
717.704	93.63
717.888	94.02
718.071	93.86
718.255	93.84
718.439	94.32
718.622	94.14
718.806	93.96
718.99	93.81
719.174	94.16
719.357	94.53
719.541	94.21
719.724	94.9
719.908	96.23
720.092	96.39
720.275	96.79
720.459	97.46
720.642	96.92
720.826	96.89
721.009	97.14
721.193	95.86
721.376	95.56
721.559	96.33
721.743	96.16
721.926	95.74
722.11	96.08
722.293	96.55
722.476	95.93
722.66	95.84
722.843	96.28
723.026	96.32
723.21	95.99
723.393	96.49
723.576	96.57
723.759	96.05
723.942	96.95
724.126	97.46
724.309	97.34
724.492	97.53
724.675	98.48
724.858	98.67
725.041	99.01
725.224	99.45
725.407	99.45
725.59	99.52
725.774	99.21
725.957	98.43
726.14	98.83
726.322	98.77
726.505	98.43
726.688	98.58
726.871	98.98
727.054	98.9
727.237	99.22
727.42	99.62
727.603	100.17
727.786	100.35
727.968	100.27
728.151	99.88
728.334	99.81
728.517	99.26
728.699	99.52
728.882	98.75
729.065	99.59
729.248	99.68
729.43	100.38
729.613	100.92
729.796	101.91
729.978	100.98
730.161	100.82
730.343	101.25
730.526	100.67
730.708	100.63
730.891	101.55
731.073	101.4
731.256	100.79
731.438	101.26
731.621	101.31
731.803	101.55
731.986	102.36
732.168	102.6
732.35	102.38
732.533	102.89
732.715	102.58
732.898	102.57
733.08	102.58
733.262	102.57
733.444	102.21
733.627	102.16
733.809	102.54
733.991	102.73
734.173	103.69
734.355	103.59
734.538	103.73
734.72	103.17
734.902	103.17
735.084	101.96
735.266	102.34
735.448	102.98
735.63	103.11
735.812	103.38
735.994	103.97
736.176	103.76
736.358	103.91
736.54	104.84
736.722	105.09
736.904	105.21
737.086	105.09
737.268	106.11
737.45	105.7
737.632	105.55
737.814	105.01
737.995	105.77
738.177	104.26
738.359	103.94
738.541	103.37
738.723	104.05
738.904	104.2
739.086	104.21
739.268	103.99
739.449	104.51
739.631	104.8
739.813	104.03
739.994	104.44
740.176	104.77
740.358	104.74
740.539	105.14
740.721	105.82
740.902	106.02
741.084	105.97
741.265	105.96
741.447	105.99
741.628	105.23
741.81	103.98
741.991	105.11
742.172	105
742.354	105.05
742.535	105.83
742.717	107.44
742.898	106.38
743.079	107.76
743.261	106.91
743.442	105.59
743.623	105.52
743.804	106.95
743.986	107.14
744.167	106.35
744.348	108.46
744.529	108.39
744.71	107.66
744.891	106.71
745.073	107.6
745.254	106.68
745.435	107.07
745.616	105.77
745.797	104.96
745.978	104.82
746.159	104.35
746.34	104.04
746.521	104.41
746.702	104.95
746.883	105.09
747.064	104.03
747.245	103.5
747.426	103.98
747.606	104.19
747.787	104.98
747.968	105.85
748.149	106.47
748.33	106.79
748.51	105.53
748.691	103.7
748.872	105.44
749.053	104.75
749.233	104.38
749.414	104.63
749.595	105.39
749.775	103.57
749.956	103.13
750.137	102.17
750.317	102.91
750.498	103.74
750.678	103.88
750.859	104.86
751.04	107.71
751.22	106.5
751.4	105.48
751.581	106.46
751.761	107.05
751.942	105.88
752.122	106.4
752.303	105.88
752.483	104.72
752.663	103.7
752.844	104.01
753.024	104.55
753.204	105.38
753.385	104.49
753.565	103.14
753.745	102.63
753.925	103.29
754.106	104.22
754.286	105.59
754.466	105.83
754.646	106
754.826	104.44
755.006	102.84
755.187	103.57
755.367	104.36
755.547	104.16
755.727	104.77
755.907	104.96
756.087	104.74
756.267	104.31
756.447	105.3
756.627	106.23
756.807	107.25
756.987	107.06
757.167	107.61
757.346	105.58
757.526	103.8
757.706	103.31
757.886	102.51
758.066	103.35
758.246	104.69
758.425	107.43
758.605	106.82
758.785	107.37
758.965	106.16
759.144	103.9
759.324	103.08
759.504	103.56
759.683	103.47
759.863	103.58
760.043	105.88
760.222	105.12
760.402	104.02
760.581	104.05
760.761	103
760.94	99.72
761.12	98.9
761.299	101.78
761.479	101.81
761.658	102.21
761.838	103.55
762.017	104.99
762.197	102.85
762.376	103.28
762.555	104.33
762.735	105.75
762.914	103.11
763.093	103.65
763.273	101.53
763.452	101.11
763.631	100.54
763.81	100.61
763.99	100.04
764.169	101.14
764.348	99.7
764.527	98.97
764.706	99.59
764.885	100.93
765.064	99.8
765.243	100.83
765.423	101.99
765.602	104.35
765.781	103.23
765.96	102.99
766.139	103.21
766.318	102.19
766.497	101.63
766.676	101.88
766.854	103.5
767.033	102.75
767.212	102.96
767.391	102.07
767.57	102.47
767.749	102.95
767.928	104.8
768.106	102.6
768.285	100.68
768.464	101.81
768.643	100.87
768.821	100.78
769	102.96
769.179	105.14
769.357	99.44
769.536	97.63
769.715	98.18
769.893	98.14
770.072	96.51
770.25	97.99
770.429	99.9
770.607	97.54
770.786	97.04
770.964	97.55
771.143	100.86
771.321	101.15
771.5	102.53
771.678	102.07
771.857	102.39
772.035	101.36
772.213	100.72
772.392	97.17
772.57	98.65
772.748	100.49
772.927	98.32
773.105	96.96
773.283	100.84
773.461	100.96
773.64	97.36
773.818	96.61
773.996	98.24
774.174	98.29
774.352	95.43
774.531	97.03
774.709	100.24
774.887	99.5
775.065	97.64
775.243	98.67
775.421	98.7
775.599	101.01
775.777	99.1
775.955	97.9
776.133	99.04
776.311	98.99
776.489	95.13
776.667	97.69
776.844	99.1
777.022	96.53
777.2	95.53
777.378	96.26
777.556	97.33
777.734	97.11
777.911	100.33
778.089	100.74
778.267	104.26
778.445	102.49
778.622	102.07
778.8	99.11
778.978	101.81
779.155	97.31
779.333	98.19
779.511	95.29
779.688	97.25
779.866	92.63
780.043	92.83
780.221	91.19
780.398	92.32
780.576	92.62
780.753	95.38
780.931	94.67
781.108	95.65
781.286	97.78
781.463	95.19
781.64	95.89
781.818	99.43
781.995	99.21
782.172	99.2
782.35	100.12
782.527	98.34
782.704	93.43
782.882	96.61
783.059	97.82
783.236	98.17
783.413	97.34
783.59	100.31
783.768	95.6
783.945	94.64
784.122	94.09
784.299	95.09
784.476	93.98
784.653	96.53
784.83	95.17
785.007	91.88
785.184	94.07
785.361	94.66
785.538	96.55
785.715	95.45
785.892	99.91
786.069	100.34
786.246	98.48
786.423	92.71
786.6	94.99
786.776	95.73
786.953	94.44
787.13	94.74
787.307	96.17
787.484	97.15
787.66	95.3
787.837	91.6
788.014	94.13
788.191	93.37
788.367	93.04
788.544	95.29
788.721	97.98
788.897	97.97
789.074	99.21
789.25	98.59
789.427	98.2
789.603	96.35
789.78	94.61
789.956	85.74
790.133	84.23
790.309	83.27
790.486	83.5
790.662	82.97
790.839	91.43
791.015	92.14
791.192	87.37
791.368	89.61
791.544	87.19
791.721	90.96
791.897	90.68
792.073	95.23
792.249	94.05
792.426	96.29
792.602	92.76
792.778	87.09
792.954	86.89
793.13	83.96
793.307	83.1
793.483	77.54
793.659	81.17
793.835	81.92
794.011	87.29
794.187	80.13
794.363	82.57
794.539	86.26
794.715	82.1
794.891	76.12
795.067	82.33
795.243	88.8
795.419	88.25
795.595	91.63
795.771	96.01
795.947	98.36
796.122	89.87
796.298	85.61
796.474	85.94
796.65	85.28
796.826	84.66
797.001	87.85
797.177	89.54
797.353	90.19
797.529	91.05
797.704	86.73
797.88	85.1
798.056	82.3
798.231	80.78
798.407	83.67
798.582	86.85
798.758	92.6
798.934	96.13
799.109	93.41
799.285	87.98
799.46	90.9
799.636	87.9
799.811	89.11
799.986	93.74
800.162	100.67
800.337	95.37
800.513	92.21
800.688	90.17
800.863	92.34
801.039	84.84
801.214	86.85
801.389	90.26
801.565	95.34
801.74	87.86
801.915	87.95
802.09	95.44
802.265	100.68
802.441	97.86
802.616	96.08
802.791	100.75
802.966	94.27
803.141	92.44
803.316	81.8
803.491	87.37
803.666	80.73
803.841	77.36
804.016	74.37
804.191	86.79
804.366	87.13
804.541	93.13
804.716	89.68
804.891	86.96
805.066	83.82
805.241	85.36
805.416	86.1
805.591	85.73
805.765	88.33
805.94	89.25
806.115	84.07
806.29	80.45
806.464	87.72
806.639	84.12
806.814	73.27
806.989	66.65
807.163	68.54
807.338	63.29
807.512	62.05
807.687	67.73
807.862	80.72
808.036	86.16
808.211	90.15
808.385	94.1
808.56	94.6
808.734	91.98
808.909	86.04
809.083	80.16
809.258	83.09
809.432	93.5
809.606	76.3
809.781	79.37
809.955	88.23
810.13	87.24
810.304	75.98
810.478	87.19
810.652	88.13
810.827	92.16
811.001	92.92
811.175	92.48
811.349	88.53
811.524	82.77
811.698	69.23
811.872	63.68
812.046	66.44
812.22	74.65
812.394	75.56
812.568	75.77
812.742	85.03
812.916	82.99
813.09	79.14
813.264	84.3
813.438	95.79
813.612	83.28
813.786	73.66
813.96	80
814.134	82.6
814.308	84.53
814.482	84.91
814.656	96.93
814.83	100.54
815.003	93.96
815.177	89.96
815.351	88.47
815.525	97.36
815.698	93.5
815.872	79.57
816.046	68.47
816.219	72.13
816.393	69.35
816.567	62.98
816.74	75.67
816.914	93.61
817.088	95.69
817.261	90.66
817.435	96.3
817.608	84.92
817.782	73.09
817.955	67.64
818.129	55.63
818.302	58.52
818.475	76.11
818.649	71.55
818.822	64.15
818.996	78.99
819.169	71.39
819.342	63.52
819.516	66.99
819.689	86.04
819.862	73.94
820.035	77.68
820.209	66.85
820.382	75.01
820.555	75.56
820.728	72.54
820.901	67.51
821.075	75.04
821.248	88.01
821.421	70.24
821.594	63.86
821.767	75.84
821.94	86.26
822.113	48.4
822.286	55.39
822.459	79.34
822.632	72.57
822.805	71.31
822.978	93.3
823.151	96.57
823.324	77.12
823.496	69.9
823.669	63.84
823.842	61.15
824.015	48.32
824.188	46.02
824.361	51.74
824.533	49.37
824.706	63.25
824.879	69.66
825.051	91.53
825.224	91.99
825.397	83.62
825.569	65.98
825.742	78.52
825.915	75.14
826.087	70.15
826.26	70.1
826.432	73.35
826.605	67.52
826.777	77.69
826.95	70.31
827.122	70.17
827.295	69.97
827.467	57.55
827.64	33.8
827.812	36.44
827.984	41.41
828.157	37.99
828.329	41.33
828.501	60.33
828.674	74.9
828.846	67.46
829.018	69.27
829.19	64.55
829.363	58.71
829.535	60.98
829.707	68.92
829.879	56.08
830.051	65.2
830.223	76.4
830.395	56.55
830.568	47.92
830.74	55.77
830.912	64.08
831.084	51.04
831.256	47.78
831.428	41.86
831.6	42.13
831.772	15.2
831.943	2.63
832.115	22.08
832.287	50.05
832.459	47.72
832.631	59.61
832.803	89.21
832.975	80.17
833.146	71.12
833.318	70.14
833.49	78.83
833.662	67.96
833.833	58.05
834.005	66.64
834.177	78.71
834.348	65.52
834.52	54.58
834.692	60.28
834.863	48.28
835.035	35.61
835.206	40.99
835.378	51.78
835.549	42.62
835.721	44.48
835.892	42.99
836.064	47.87
836.235	48.22
836.407	72.92
836.578	73.94
836.749	83.98
836.921	95.25
837.092	82.74
837.264	58.73
837.435	19.66
837.606	19.59
837.777	34.45
837.949	40.81
838.12	41.62
838.291	72.89
838.462	68.84
838.633	51.84
838.805	41.1
838.976	59.11
839.147	60.03
839.318	40.17
839.489	26.05
839.66	44.32
839.831	42.38
840.002	29.44
840.173	35.41
840.344	33.54
840.515	44.1
840.686	22.43
840.857	24.5
841.028	48.49
841.199	56.07
841.369	25.12
841.54	22.37
841.711	53.03
841.882	35.37
842.053	25.26
842.223	18.12
842.394	45.54
842.565	33.31
842.736	64.18
842.906	78.56
843.077	102.05
843.248	89.77
843.418	80.43
843.589	63.83
843.759	76.17
843.93	77.13
844.101	79.32
844.271	86.05
844.442	103.01
844.612	101.62
844.783	76.51
844.953	70.68
845.123	86.27
845.294	73.21
845.464	65.76
845.635	62.23
845.805	76.11
845.975	63.67
846.146	43.39
846.316	27.16
846.486	57.41
846.656	45.59
846.827	39.59
846.997	37.18
847.167	75.22
847.337	35.57
847.507	32.76
847.677	25.19
847.848	37.18
848.018	30.54
848.188	32.47
848.358	32.54
848.528	44.67
848.698	38.05
848.868	18.11
849.038	14.07
849.208	36.04
849.378	61.93
849.548	32.8
849.718	56.13
849.887	96.16
850.057	30.27
850.227	-1.26
850.397	25.96
850.567	26.71
850.737	23.96
850.906	22.98
851.076	-2.03
851.246	-16.63
851.415	-1.32
851.585	13.72
851.755	7.85
851.924	45.81
852.094	59.98
852.264	44.38
852.433	10.26
852.603	36.41
852.772	25.29
852.942	4.16
853.111	4.41
853.281	53.14
853.45	53.18
853.62	45.54
853.789	41.14
853.959	78.85
854.128	55.98
854.297	27.11
854.467	13.59
854.636	30.11
854.805	22.26
854.975	-0.53
855.144	15.95
855.313	47.3
855.482	59.96
855.652	23.92
855.821	40.6
855.99	83.57
856.159	82.93
856.328	65.33
856.497	87.68
856.667	100.65
856.836	68.83
857.005	32.94
857.174	-12.66
857.343	-29.06
857.512	3.91
857.681	-63.92
857.85	-36.17
858.019	-10.18
858.188	-1.88
858.356	-36.53
858.525	-19.4
858.694	-36.62
858.863	-26.86
859.032	-42.86
859.201	-23.7
859.369	-9.5
859.538	-0.48
859.707	-21.8
859.876	-20.12
860.044	-15.27
860.213	-0.1
860.382	18.93
860.55	43.77
860.719	80.92
860.888	98.75
861.056	124.52
861.225	76.18
861.393	153.37
861.562	122.01
861.73	75.04
861.899	65.91
862.067	67.7
862.236	41.28
862.404	-12.61
862.572	-27.32
862.741	2.7
862.909	-7.67
863.078	-14.78
863.246	-16.5
863.414	6.1
863.582	-52.23
863.751	-39.98
863.919	-49.82
864.087	1.13
864.255	0.29
864.424	-4.03
864.592	8.47
864.76	50.09
864.928	71.85
865.096	52.91
865.264	51.35
865.432	71.16
865.6	81.48
865.768	13.28
865.936	-13.19
866.104	25.94
866.272	40.25
866.44	-23.95
866.608	-7.96
866.776	-12.79
866.944	-77.72
867.112	-152.46
867.28	-243.85
867.448	-542.36
867.615	-201.09
867.783	-5.06
867.951	-23.11
868.119	49.99
868.286	45.56
868.454	24.48
868.622	-16.87
868.789	18.06
868.957	12.23
869.125	-0.31
869.292	-2.09
869.46	15.36
869.627	27.27
869.795	-3.85
869.963	3.5
870.13	36.95
870.298	44.19
870.465	-10.36
870.632	-33
870.8	-55.82
870.967	-43.04
871.135	-79.3
871.302	-10.6
871.469	49.33
871.637	78.56
871.804	53.52
871.971	32.05
872.139	53.95
872.306	86.56
872.473	60.75
872.64	46.57
872.807	92.32
872.975	100.4
873.142	53.99
873.309	68.92
873.476	96.98
873.643	71.83
873.81	42.87
873.977	45.57
874.144	52.83
874.311	53.33
874.478	6.06
874.645	-31.15
874.812	-41.99
874.979	2423.81
875.146	-152.54
875.313	-5.8
875.48	47
875.647	7.09
875.813	-32.43
875.98	-32.44
876.147	-77.69
876.314	-49.92
876.481	-102.36
876.647	-111.3
876.814	-73.08
876.981	-62.46
877.147	-137.28
877.314	-141.18
877.481	-83.57
877.647	-33.33
877.814	-43.84
877.98	-44.64
878.147	11.43
878.314	0.22
878.48	-63.51
878.647	-45.43
878.813	28.05
878.979	32.14
879.146	39.13
879.312	55.58
879.479	60.34
879.645	55.32
879.811	14.8
879.978	30.03
880.144	37.65
880.31	41.8
880.477	-36.14
880.643	-46.43
880.809	-61.26
880.975	-17.24
881.142	-49.09
881.308	-22.82
881.474	14.59
881.64	31.71
881.806	-6.96
881.972	36.28
882.138	43.36
882.304	56.43
882.47	5.13
882.636	-3.9
882.802	-9.55
882.968	26.23
883.134	-21.36
883.3	18.9
883.466	77.13
883.632	97.81
883.798	17.87
883.964	12.34
884.129	5.76
884.295	7.26
884.461	-24.19
884.627	-21.79
884.793	4.2
884.958	29.03
885.124	-19.34
885.29	-31.37
885.455	9.48
885.621	15.89
885.787	-47.73
885.952	11.06
886.118	-7.67
886.283	12.42
886.449	-10.93
886.614	1.74
886.78	13.26
886.945	126.4
887.111	-63.91
887.276	-72.85
887.442	-217.83
887.607	-125.95
887.773	-163.37
887.938	-80.25
888.103	-12.12
888.269	37.16
888.434	41.3
888.599	37.79
888.764	70.09
888.93	71.64
889.095	42.92
889.26	23.89
889.425	55.69
889.59	65.3
889.756	15.68
889.921	26.93
890.086	43.09
890.251	55.1
890.416	-0.1
890.581	14.65
890.746	54.4
890.911	58.5
891.076	13.07
891.241	30.58
891.406	62.32
891.571	81.23
891.736	20.53
891.901	2.09
892.065	27.86
892.23	20.89
892.395	-55.54
892.56	-58.48
892.725	11.91
892.889	8.78
893.054	-48.13
893.219	-60.09
893.384	-54.9
893.548	-96.79
893.713	-135.08
893.878	-105.42
