Data from Ofra_PP_Phys_2HS27C_Reflection_1.txt Node
Date: Sat Jul 24 20:03:17 EDT 2021
User: USUARIO
Spectrometer: FLMT01687
Trigger mode: 0
Integration Time (sec): 1.100000E0
Scans to average: 2
Electric dark correction enabled: true
Nonlinearity correction enabled: false
Boxcar width: 2
XAxis mode: Wavelengths
Number of Pixels in Spectrum: 3648
>>>>>Begin Spectral Data<<<<<
179.494	520.85
179.716	664.56
179.937	1174.06
180.158	1011.05
180.38	469.31
180.601	-563.9
180.823	7.11
181.044	810.08
181.265	-55.13
181.486	-56.17
181.708	-1.89
181.929	-1361.33
182.15	197.99
182.372	-42.22
182.593	55166.67
182.814	331.79
183.035	133.01
183.257	115.86
183.478	58.66
183.699	11.77
183.92	-56.98
184.141	-33.71
184.363	-84.72
184.584	-23.7
184.805	11.85
185.026	32.64
185.247	27.43
185.468	6.84
185.689	-7.97
185.91	-16.38
186.132	-28.65
186.353	-10.86
186.574	14.59
186.795	10.91
187.016	-21.76
187.237	-6.29
187.458	-17.24
187.679	-13.12
187.9	46.52
188.121	97.96
188.342	127.91
188.563	93.85
188.784	92.81
189.005	71.55
189.226	49.57
189.447	13.35
189.667	41.45
189.888	9.33
190.109	-10.38
190.33	-20.65
190.551	-30.26
190.772	-34.02
190.993	-46.98
191.214	-30.64
191.434	-13.77
191.655	43.62
191.876	7.23
192.097	24.54
192.318	22.85
192.538	-10.25
192.759	-37.81
192.98	-15.34
193.201	-15.15
193.421	-48.86
193.642	-7.04
193.863	-11.1
194.083	-22.28
194.304	-13.37
194.525	17.95
194.745	-4.83
194.966	-37.34
195.187	-36.87
195.407	-91.17
195.628	-121.36
195.848	-88.35
196.069	-67.11
196.29	-63.89
196.51	-79.55
196.731	-74.79
196.951	-64.8
197.172	-55.97
197.392	-43.15
197.613	-28.83
197.833	-29.28
198.054	-36.2
198.274	-35.01
198.495	-72.47
198.715	-20.77
198.936	-49.99
199.156	-32.33
199.377	-41.71
199.597	-41.68
199.817	-54.2
200.038	-29.11
200.258	-30.41
200.479	15.65
200.699	31.22
200.919	26.91
201.14	7.27
201.36	4.07
201.58	-20.61
201.801	-18.99
202.021	-42.09
202.241	-23.01
202.461	-46.86
202.682	-21.06
202.902	-2.06
203.122	-2.33
203.342	18.31
203.563	53.36
203.783	45.57
204.003	-10.51
204.223	-37.18
204.443	-20.18
204.663	-72.39
204.884	-91.56
205.104	-53.2
205.324	7.73
205.544	-5.44
205.764	-6.31
205.984	27.98
206.204	44.45
206.424	35.79
206.644	22.25
206.864	42.88
207.084	40.97
207.304	32.04
207.525	8.81
207.745	22.65
207.964	8.79
208.184	15.29
208.404	15.61
208.624	24.71
208.844	12.76
209.064	-4.96
209.284	-14.51
209.504	-13.55
209.724	-13.62
209.944	-2.7
210.164	23.3
210.384	28.53
210.604	22.22
210.823	-13.23
211.043	-33.72
211.263	-27.96
211.483	-55.89
211.703	-56.81
211.922	-20.76
212.142	19.68
212.362	25.62
212.582	27.51
212.801	33.72
213.021	6.7
213.241	-2.41
213.461	-30.6
213.68	-49.07
213.9	-54.68
214.12	-47.05
214.339	-51.62
214.559	-37.41
214.779	-3.25
214.998	4.91
215.218	-5.68
215.438	-12.81
215.657	-39.88
215.877	-9.21
216.096	-33.1
216.316	-6.17
216.535	-5.3
216.755	29.99
216.974	11.51
217.194	26.7
217.413	27.69
217.633	32.11
217.852	-32.7
218.072	-49.79
218.291	-57.29
218.511	-48.56
218.73	-92.37
218.95	-62.39
219.169	-52.38
219.389	-79.07
219.608	-91.47
219.827	-40.88
220.047	-30.61
220.266	-19.77
220.485	-14.25
220.705	8.01
220.924	-19.64
221.143	-20.47
221.363	-65.48
221.582	-34.76
221.801	-54.67
222.021	-37.5
222.24	-9.45
222.459	11.81
222.678	-6.55
222.897	-11.78
223.117	-9.54
223.336	-23.41
223.555	1.27
223.774	21.65
223.993	43.9
224.213	81.98
224.432	43.54
224.651	59.17
224.87	60.44
225.089	61.69
225.308	38.94
225.527	52.99
225.746	47.52
225.965	22.94
226.184	16.73
226.404	25.2
226.623	19.66
226.842	10.87
227.061	38.85
227.28	42.79
227.499	50.26
227.718	67.59
227.936	63.08
228.155	50.9
228.374	16.9
228.593	-9.99
228.812	-15.76
229.031	-5.66
229.25	-11.89
229.469	20.82
229.688	22.22
229.907	16.98
230.125	24.72
230.344	28.29
230.563	18.14
230.782	35.21
231.001	16.89
231.22	10.71
231.438	-6.21
231.657	-9.97
231.876	-10.22
232.095	11.45
232.313	7.53
232.532	11.39
232.751	10.63
232.969	12.38
233.188	1.76
233.407	2.48
233.625	-1.67
233.844	0.7
234.063	-23.94
234.281	0.23
234.5	0.46
234.719	9.11
234.937	2.26
235.156	11.56
235.374	12.75
235.593	17.16
235.811	16.37
236.03	34.79
236.249	32.74
236.467	50.17
236.686	30.31
236.904	37.94
237.123	-17.52
237.341	-9.32
237.559	-37.34
237.778	-22.84
237.996	-43.62
238.215	4.24
238.433	-3.58
238.652	7.43
238.87	-22.85
239.088	-6.42
239.307	-12.6
239.525	-0.01
239.743	-23
239.962	-0.15
240.18	-18.42
240.398	-37.91
240.617	-64.93
240.835	-42.8
241.053	-85.31
241.271	-69.93
241.49	-35.91
241.708	-27.37
241.926	-31.79
242.144	0.33
242.363	-8.62
242.581	-9.13
242.799	11.51
243.017	-4.55
243.235	-34.83
243.453	-5.9
243.672	-40.24
243.89	-44.86
244.108	-17.59
244.326	16.18
244.544	11.64
244.762	14.25
244.98	15.74
245.198	11.02
245.416	-9.94
245.634	-7.36
245.852	0.54
246.07	-6
246.288	8.28
246.506	17.86
246.724	15.26
246.942	16.21
247.16	24.64
247.378	24.39
247.596	24.42
247.814	22.43
248.032	1.2
248.25	-2.96
248.468	-12.29
248.685	-4.54
248.903	-6.61
249.121	-7.3
249.339	-39.87
249.557	-33.54
249.775	-48.57
249.992	-89.67
250.21	-86.86
250.428	-41.58
250.646	-35.37
250.863	-21.2
251.081	1.92
251.299	16.02
251.517	17.37
251.734	15.25
251.952	-3.77
252.17	20.36
252.387	35.52
252.605	15.73
252.823	16.17
253.04	36.06
253.258	20.24
253.475	12.91
253.693	17.33
253.911	25.57
254.128	19.54
254.346	25.22
254.563	7.03
254.781	3.19
254.998	-4.4
255.216	-2.93
255.433	-6.52
255.651	23.91
255.868	26.08
256.086	24.69
256.303	30.76
256.521	29.75
256.738	1.45
256.956	4.93
257.173	14.32
257.39	-5.82
257.608	2.55
257.825	12.88
258.043	18.24
258.26	12.27
258.477	16.99
258.695	4.14
258.912	-25
259.129	-22.19
259.346	-39.48
259.564	-30.67
259.781	-20.12
259.998	-2.16
260.216	21.61
260.433	34.47
260.65	17.76
260.867	25.98
261.084	1.39
261.302	-25.73
261.519	-8.21
261.736	-12.01
261.953	-21.63
262.17	-6.25
262.387	5.57
262.604	-9.29
262.822	1.83
263.039	-2.62
263.256	-0.18
263.473	4.57
263.69	-6.55
263.907	-0.52
264.124	10.13
264.341	24.62
264.558	5.86
264.775	16.94
264.992	23.81
265.209	29.74
265.426	19.29
265.643	28.76
265.86	32.19
266.077	42.78
266.294	31.64
266.51	42.06
266.727	27.25
266.944	50.61
267.161	12.36
267.378	34.12
267.595	32.47
267.812	12.5
268.028	-4.95
268.245	0.18
268.462	-33.27
268.679	-41.11
268.896	-1.69
269.112	-18.35
269.329	-1
269.546	28.31
269.763	31.7
269.979	28.57
270.196	35.58
270.413	24.35
270.629	0.6
270.846	3.65
271.063	20.85
271.279	8.37
271.496	-6.98
271.712	-17.89
271.929	-19.08
272.146	-16.7
272.362	-14.03
272.579	29.78
272.795	36.33
273.012	30.84
273.228	19.75
273.445	12.66
273.661	-26.73
273.878	-59.39
274.094	-48.54
274.311	-48.36
274.527	-29.59
274.744	-17.36
274.96	12.33
275.177	15.7
275.393	4.76
275.609	9.62
275.826	25.01
276.042	10.26
276.259	12.86
276.475	11.33
276.691	8.93
276.908	2.94
277.124	33.65
277.34	21.12
277.557	22.44
277.773	24.83
277.989	15.3
278.205	11.95
278.422	6.38
278.638	16.34
278.854	14.67
279.07	19.72
279.286	-8.8
279.503	-0.7
279.719	-4
279.935	-20.59
280.151	-29.65
280.367	-1.37
280.583	6.05
280.799	-0.26
281.016	20.05
281.232	25.88
281.448	26.34
281.664	34.22
281.88	39.31
282.096	26.17
282.312	34.83
282.528	41.43
282.744	34.87
282.96	27.91
283.176	39.55
283.392	35.37
283.608	26.94
283.824	25.16
284.04	32.33
284.256	39.39
284.471	36.43
284.687	31.48
284.903	27.27
285.119	32
285.335	-3.69
285.551	4.89
285.767	2.87
285.982	-14.82
286.198	-22.75
286.414	11.35
286.63	-3.64
286.846	8.54
287.061	4.27
287.277	5.51
287.493	-7.56
287.709	6.25
287.924	3.76
288.14	28.75
288.356	36.52
288.571	54.84
288.787	46.38
289.003	47.22
289.218	24.32
289.434	4.49
289.65	11
289.865	12.67
290.081	11.77
290.296	20.21
290.512	17.58
290.727	15.58
290.943	8.25
291.159	5.36
291.374	1.74
291.59	-1.04
291.805	-12.65
292.021	-10.66
292.236	-17.01
292.451	-4.32
292.667	12.71
292.882	24.15
293.098	39.68
293.313	43.49
293.529	29.97
293.744	7.13
293.959	-13.8
294.175	-26.4
294.39	-17.41
294.605	-6.38
294.821	-1.13
295.036	-8.27
295.251	-0.01
295.467	-4.23
295.682	-0.13
295.897	-11.65
296.112	-8.1
296.328	-7.22
296.543	-11.75
296.758	-29.87
296.973	6.66
297.188	28.11
297.404	5.68
297.619	7.56
297.834	10.07
298.049	-0.01
298.264	-10.06
298.479	15.55
298.694	18.81
298.909	26.97
299.125	29
299.34	30.15
299.555	19.5
299.77	13.13
299.985	-15.42
300.2	-33.73
300.415	-49.74
300.63	-40.19
300.845	-33.24
301.06	-23.21
301.275	-22.81
301.49	-9.74
301.704	-12.26
301.919	-37.12
302.134	-41.64
302.349	3.93
302.564	-9.64
302.779	-2.07
302.994	39.98
303.209	46
303.423	34.13
303.638	41.71
303.853	31.74
304.068	-6.87
304.283	-8.17
304.497	-4.14
304.712	1.31
304.927	4.87
305.142	13.62
305.356	16.57
305.571	16.23
305.786	20.93
306	13.51
306.215	13.02
306.43	-6.9
306.644	2.43
306.859	-10.66
307.074	-17.64
307.288	-37.01
307.503	-25.2
307.717	-40
307.932	-29.76
308.147	-17.54
308.361	1.47
308.576	-7.76
308.79	-46.07
309.005	-22.12
309.219	-30.06
309.434	-25.31
309.648	-20.97
309.863	17.05
310.077	-16.9
310.292	6.29
310.506	-17.57
310.72	0.6
310.935	23.01
311.149	33.26
311.364	21.07
311.578	52.68
311.792	44.42
312.007	34
312.221	10.63
312.435	18.9
312.649	-8.16
312.864	18.04
313.078	4.81
313.292	39.74
313.507	28.69
313.721	31.85
313.935	-0.32
314.149	23.78
314.363	17.92
314.578	12.16
314.792	0.86
315.006	19.22
315.22	2.27
315.434	1.66
315.648	8.45
315.862	2.21
316.077	-6.68
316.291	-0.38
316.505	-6.28
316.719	-4.05
316.933	-15.06
317.147	4.85
317.361	3.52
317.575	-0.5
317.789	-4.5
318.003	5.43
318.217	0.82
318.431	14.09
318.645	16.49
318.859	14.39
319.073	24.09
319.287	15.82
319.5	-6.8
319.714	-14.08
319.928	-17.44
320.142	-35.03
320.356	-5.02
320.57	14.73
320.784	11.56
320.997	15.34
321.211	22.16
321.425	-2.03
321.639	-48.56
321.853	-32.57
322.066	-32.99
322.28	-37.08
322.494	-28.69
322.707	22.86
322.921	18.39
323.135	22.6
323.349	20.13
323.562	9.65
323.776	-10.23
323.989	-5.84
324.203	-10.27
324.417	3.53
324.63	5.37
324.844	3.59
325.057	-7.05
325.271	-27.54
325.485	-32.62
325.698	-13.27
325.912	-1.06
326.125	-7.5
326.339	26.69
326.552	39.42
326.766	32.47
326.979	18.76
327.193	32.04
327.406	15.94
327.619	0.22
327.833	13.17
328.046	14.46
328.26	7.29
328.473	-1.71
328.686	-2.81
328.9	-6.74
329.113	-0.64
329.326	-9.36
329.54	10.11
329.753	18.65
329.966	13.32
330.179	18.79
330.393	28.43
330.606	29.41
330.819	32.72
331.032	31.69
331.246	29.03
331.459	27.82
331.672	11.33
331.885	-4.27
332.098	-18.56
332.311	-18.22
332.525	-17.92
332.738	-6.49
332.951	1.56
333.164	9.95
333.377	24.15
333.59	24.28
333.803	17.01
334.016	4.62
334.229	0.11
334.442	-14.76
334.655	0.9
334.868	8.9
335.081	30.49
335.294	29.85
335.507	41.88
335.72	34.25
335.933	25.39
336.146	11.35
336.359	18.72
336.572	-12.37
336.785	-24.78
336.997	-25.53
337.21	-6.29
337.423	-6.1
337.636	12.38
337.849	17.7
338.062	16.93
338.274	14.01
338.487	12.19
338.7	-0.77
338.913	-14.29
339.125	-15.88
339.338	-5.64
339.551	-12.2
339.763	16.98
339.976	36.62
340.189	42.64
340.402	31.49
340.614	28.74
340.827	3.3
341.039	-14.09
341.252	-22.12
341.465	-38.51
341.677	-36.35
341.89	-47.3
342.102	-27.98
342.315	-24.16
342.527	-26.83
342.74	-16.28
342.952	16.09
343.165	13.9
343.377	27.01
343.59	32.38
343.802	48.62
344.015	43.41
344.227	43.28
344.44	30.15
344.652	17.2
344.864	0.29
345.077	8.32
345.289	17.31
345.502	25.1
345.714	27.28
345.926	30
346.139	19.43
346.351	12.64
346.563	2.05
346.775	13.86
346.988	-1.03
347.2	-12.59
347.412	-27.36
347.624	-16.25
347.837	-19.52
348.049	-13.07
348.261	8.43
348.473	11.08
348.685	-11.65
348.897	-16.08
349.11	-16.1
349.322	-22.15
349.534	-2.67
349.746	12.83
349.958	20.36
350.17	18.25
350.382	22.53
350.594	22.84
350.806	25.04
351.018	21.43
351.23	22.59
351.442	28.94
351.654	27.73
351.866	23.11
352.078	30.07
352.29	14.48
352.502	-3.98
352.714	8.63
352.926	21.03
353.138	13
353.35	13.02
353.561	18.45
353.773	13.84
353.985	15.21
354.197	11.68
354.409	18.4
354.621	8.77
354.832	17.17
355.044	0.93
355.256	7.2
355.468	12.92
355.679	8.78
355.891	-3.23
356.103	2.15
356.314	-8.63
356.526	-1.09
356.738	25.15
356.949	23.61
357.161	21.86
357.373	26.56
357.584	10.42
357.796	-7.65
358.008	-22.16
358.219	-4.76
358.431	-4.23
358.642	-5.92
358.854	7.41
359.065	15.67
359.277	2.19
359.488	-3.46
359.7	-14.21
359.911	-27.25
360.123	-21.13
360.334	-24.97
360.546	-22.7
360.757	-5.32
360.969	0.38
361.18	6.69
361.391	3.65
361.603	-11.17
361.814	-0.73
362.025	-10.33
362.237	-6.64
362.448	11.71
362.659	23.5
362.871	21.09
363.082	20.6
363.293	23.94
363.504	14.79
363.716	21
363.927	23.82
364.138	23.82
364.349	2.04
364.56	0.89
364.772	-20.65
364.983	-17.12
365.194	-30.36
365.405	-21.32
365.616	-28.84
365.827	-23.15
366.038	-26.49
366.25	4.41
366.461	8.62
366.672	21.54
366.883	29.48
367.094	25.84
367.305	5.26
367.516	8.26
367.727	6.01
367.938	-2.47
368.149	2.28
368.36	19.04
368.571	17.64
368.781	13.33
368.992	4.95
369.203	17.52
369.414	3.75
369.625	-8.48
369.836	-10.87
370.047	-8.76
370.258	-23.35
370.468	-19.9
370.679	-29.14
370.89	-26.72
371.101	-8.53
371.312	-26.61
371.522	-27.26
371.733	-10.82
371.944	5.18
372.155	12.07
372.365	1.66
372.576	11.25
372.787	9.49
372.997	-0.01
373.208	-3.25
373.419	13.71
373.629	-6.63
373.84	-12.32
374.05	-29.43
374.261	-13.95
374.472	-26.04
374.682	-15.9
374.893	-14.98
375.103	6.7
375.314	-2.13
375.524	9.24
375.735	19.3
375.945	23.03
376.156	7.05
376.366	11.33
376.577	17.28
376.787	22.8
376.997	29.39
377.208	36.75
377.418	15.43
377.629	12.85
377.839	2.13
378.049	0.42
378.26	6.44
378.47	24.99
378.68	28.47
378.89	26.25
379.101	19.52
379.311	9.97
379.521	-7.75
379.732	-12.58
379.942	-28.71
380.152	-16.12
380.362	-7.79
380.572	-4.04
380.783	8.16
380.993	19.53
381.203	16.88
381.413	14.84
381.623	14.74
381.833	1.08
382.043	-5.86
382.253	0.66
382.463	3.75
382.674	2.21
382.884	5.41
383.094	7.44
383.304	8.31
383.514	7.42
383.724	15.45
383.934	1.33
384.144	-3.29
384.353	-8.48
384.563	-2.29
384.773	1.75
384.983	11
385.193	18.94
385.403	11.43
385.613	7.78
385.823	2.19
386.033	8.01
386.242	2.29
386.452	11.75
386.662	8.83
386.872	12.52
387.082	12.71
387.291	7.9
387.501	7.43
387.711	5.57
387.921	-6.82
388.13	-5.23
388.34	1.68
388.55	-0.54
388.759	3.08
388.969	10.62
389.179	5.83
389.388	6.91
389.598	5.23
389.807	3.67
390.017	4.33
390.227	7.52
390.436	5.7
390.646	11.54
390.855	12.71
391.065	13.76
391.274	8.26
391.484	5.16
391.693	2.48
391.903	2.67
392.112	3.29
392.322	7.71
392.531	12.89
392.74	12.35
392.95	8.3
393.159	7.61
393.369	8.07
393.578	5.02
393.787	4.9
393.997	9.03
394.206	8.3
394.415	8.34
394.625	8.35
394.834	6.83
395.043	5.38
395.252	5.66
395.462	6.19
395.671	6.81
395.88	8.66
396.089	8.99
396.298	8.78
396.508	8.09
396.717	8.73
396.926	8
397.135	8.21
397.344	8.17
397.553	8.05
397.762	8.05
397.971	8.08
398.181	8.22
398.39	7.3
398.599	7.23
398.808	6.85
399.017	7.15
399.226	7
399.435	7.98
399.644	7.82
399.853	7.36
400.062	7.24
400.27	6.9
400.479	6.41
400.688	6.11
400.897	6.57
401.106	6.39
401.315	6.28
401.524	6.24
401.733	6.49
401.941	6.4
402.15	6.42
402.359	6.49
402.568	6.86
402.777	6.85
402.985	6.63
403.194	6.61
403.403	6.5
403.612	6
403.82	5.93
404.029	5.99
404.238	5.68
404.446	5.86
404.655	5.81
404.864	6.01
405.072	5.87
405.281	6.12
405.489	5.82
405.698	5.81
405.906	5.6
406.115	5.52
406.324	5.41
406.532	5.57
406.741	5.9
406.949	5.89
407.158	6
407.366	6.13
407.574	6.11
407.783	5.84
407.991	5.76
408.2	5.71
408.408	5.56
408.617	5.57
408.825	5.55
409.033	5.63
409.242	5.75
409.45	5.86
409.658	5.71
409.867	5.85
410.075	5.76
410.283	5.56
410.491	5.44
410.7	5.34
410.908	5.26
411.116	5.32
411.324	5.3
411.533	5.35
411.741	5.43
411.949	5.36
412.157	5.2
412.365	5.42
412.573	5.35
412.781	5.33
412.99	5.38
413.198	5.49
413.406	5.41
413.614	5.4
413.822	5.53
414.03	5.45
414.238	5.29
414.446	5.27
414.654	5.11
414.862	4.99
415.07	5.03
415.278	5.25
415.486	4.94
415.694	5.13
415.902	5.11
416.109	4.99
416.317	4.97
416.525	4.95
416.733	5.06
416.941	5.29
417.149	5.3
417.357	5.24
417.564	5.54
417.772	5.26
417.98	5.06
418.188	5.09
418.395	4.92
418.603	4.97
418.811	4.89
419.019	4.73
419.226	4.9
419.434	5.09
419.642	4.89
419.849	4.9
420.057	5.09
420.265	4.98
420.472	4.86
420.68	4.9
420.887	4.82
421.095	4.76
421.302	4.67
421.51	4.79
421.717	4.88
421.925	4.92
422.132	4.88
422.34	4.76
422.547	4.61
422.755	4.68
422.962	4.79
423.17	4.75
423.377	4.81
423.585	4.96
423.792	4.7
423.999	4.75
424.207	4.81
424.414	4.89
424.621	4.79
424.829	4.8
425.036	4.72
425.243	4.52
425.451	4.48
425.658	4.4
425.865	4.46
426.072	4.46
426.28	4.43
426.487	4.41
426.694	4.38
426.901	4.46
427.108	4.43
427.315	4.53
427.523	4.66
427.73	4.85
427.937	4.52
428.144	4.43
428.351	4.52
428.558	4.32
428.765	4.07
428.972	4.21
429.179	4.34
429.386	4.44
429.593	4.57
429.8	4.62
430.007	4.71
430.214	4.68
430.421	4.67
430.628	4.68
430.835	4.55
431.042	4.75
431.249	4.76
431.456	4.79
431.662	4.85
431.869	5.03
432.076	4.79
432.283	4.83
432.49	4.64
432.697	4.56
432.903	4.28
433.11	4.38
433.317	4.45
433.524	4.56
433.73	4.48
433.937	4.82
434.144	4.79
434.35	4.66
434.557	4.54
434.764	4.62
434.97	4.55
435.177	4.54
435.384	4.28
435.59	4.37
435.797	4.32
436.003	4.32
436.21	4.33
436.416	4.52
436.623	4.48
436.829	4.55
437.036	4.56
437.242	4.56
437.449	4.6
437.655	4.55
437.862	4.57
438.068	4.59
438.275	4.7
438.481	4.82
438.687	4.85
438.894	4.79
439.1	4.74
439.307	4.63
439.513	4.51
439.719	4.55
439.926	4.56
440.132	4.56
440.338	4.57
440.544	4.65
440.751	4.57
440.957	4.59
441.163	4.46
441.369	4.49
441.575	4.46
441.782	4.45
441.988	4.37
442.194	4.34
442.4	4.34
442.606	4.52
442.812	4.58
443.018	4.68
443.224	4.8
443.431	4.84
443.637	4.68
443.843	4.56
444.049	4.56
444.255	4.57
444.461	4.57
444.667	4.49
444.873	4.55
445.079	4.57
445.284	4.57
445.49	4.42
445.696	4.23
445.902	4.17
446.108	4.18
446.314	4.19
446.52	4.38
446.726	4.69
446.931	4.7
447.137	4.68
447.343	4.73
447.549	4.55
447.755	4.5
447.96	4.66
448.166	4.59
448.372	4.64
448.578	4.67
448.783	4.6
448.989	4.65
449.195	4.79
449.4	4.61
449.606	4.59
449.812	4.55
450.017	4.6
450.223	4.49
450.428	4.37
450.634	4.38
450.84	4.48
451.045	4.32
451.251	4.21
451.456	4.48
451.662	4.6
451.867	4.62
452.073	4.52
452.278	4.69
452.483	4.65
452.689	4.65
452.894	4.74
453.1	4.92
453.305	4.73
453.51	4.66
453.716	4.58
453.921	4.46
454.127	4.39
454.332	4.45
454.537	4.42
454.742	4.51
454.948	4.55
455.153	4.49
455.358	4.58
455.563	4.66
455.769	4.66
455.974	4.62
456.179	4.61
456.384	4.53
456.589	4.51
456.795	4.38
457	4.4
457.205	4.48
457.41	4.5
457.615	4.42
457.82	4.48
458.025	4.54
458.23	4.41
458.435	4.5
458.64	4.4
458.845	4.45
459.05	4.34
459.255	4.38
459.46	4.3
459.665	4.39
459.87	4.34
460.075	4.26
460.28	4.3
460.485	4.37
460.69	4.42
460.895	4.27
461.099	4.31
461.304	4.41
461.509	4.35
461.714	4.29
461.919	4.41
462.123	4.48
462.328	4.52
462.533	4.39
462.738	4.37
462.942	4.35
463.147	4.32
463.352	4.23
463.556	4.24
463.761	4.25
463.966	4.32
464.17	4.36
464.375	4.33
464.58	4.34
464.784	4.37
464.989	4.23
465.193	4.27
465.398	4.31
465.602	4.5
465.807	4.48
466.011	4.61
466.216	4.56
466.42	4.58
466.625	4.61
466.829	4.7
467.034	4.66
467.238	4.73
467.443	4.75
467.647	4.53
467.851	4.5
468.056	4.55
468.26	4.45
468.464	4.34
468.669	4.58
468.873	4.62
469.077	4.62
469.282	4.57
469.486	4.69
469.69	4.53
469.894	4.51
470.099	4.53
470.303	4.59
470.507	4.51
470.711	4.52
470.915	4.51
471.119	4.43
471.324	4.46
471.528	4.4
471.732	4.45
471.936	4.42
472.14	4.59
472.344	4.62
472.548	4.71
472.752	4.75
472.956	4.85
473.16	4.72
473.364	4.63
473.568	4.66
473.772	4.62
473.976	4.62
474.18	4.64
474.384	4.7
474.588	4.61
474.792	4.56
474.995	4.52
475.199	4.49
475.403	4.48
475.607	4.5
475.811	4.51
476.015	4.52
476.218	4.6
476.422	4.63
476.626	4.7
476.83	4.84
477.033	4.83
477.237	4.71
477.441	4.68
477.644	4.66
477.848	4.6
478.052	4.51
478.255	4.59
478.459	4.64
478.663	4.76
478.866	4.67
479.07	4.76
479.273	4.91
479.477	4.94
479.681	4.82
479.884	4.89
480.088	4.84
480.291	4.74
480.495	4.64
480.698	4.66
480.901	4.7
481.105	4.84
481.308	4.82
481.512	4.83
481.715	4.87
481.919	4.87
482.122	4.85
482.325	4.89
482.529	4.91
482.732	4.8
482.935	4.72
483.138	4.65
483.342	4.65
483.545	4.76
483.748	4.91
483.952	4.97
484.155	5.08
484.358	5.05
484.561	4.95
484.764	4.98
484.967	5.05
485.171	5.01
485.374	4.98
485.577	5.03
485.78	4.97
485.983	4.93
486.186	4.91
486.389	4.93
486.592	5
486.795	4.97
486.998	5
487.201	5.04
487.404	5.08
487.607	5.15
487.81	5.19
488.013	5.21
488.216	5.2
488.419	5.26
488.622	5.04
488.825	5.06
489.028	5.04
489.231	5.05
489.433	4.97
489.636	5.04
489.839	4.89
490.042	4.87
490.245	4.81
490.447	4.86
490.65	4.89
490.853	5.07
491.056	5.15
491.258	5.16
491.461	5.17
491.664	5.22
491.866	5.01
492.069	5.07
492.272	5.18
492.474	5.28
492.677	5.32
492.879	5.55
493.082	5.51
493.285	5.53
493.487	5.36
493.69	5.32
493.892	5.17
494.095	5.16
494.297	5.15
494.5	5.32
494.702	5.33
494.905	5.5
495.107	5.56
495.309	5.58
495.512	5.57
495.714	5.65
495.917	5.67
496.119	5.66
496.321	5.7
496.524	5.76
496.726	5.8
496.928	5.86
497.13	5.85
497.333	5.89
497.535	5.93
497.737	5.79
497.939	5.75
498.142	5.91
498.344	5.89
498.546	5.82
498.748	5.96
498.95	5.94
499.152	5.85
499.355	5.91
499.557	6
499.759	6.03
499.961	6.11
500.163	6.2
500.365	6.2
500.567	6.12
500.769	6.07
500.971	6.14
501.173	5.99
501.375	6.04
501.577	6.07
501.779	6.12
501.981	6.07
502.183	6.22
502.385	6.14
502.587	6.13
502.788	6.16
502.99	6.23
503.192	6.24
503.394	6.23
503.596	6.23
503.798	6.29
503.999	6.29
504.201	6.26
504.403	6.32
504.605	6.42
504.806	6.38
505.008	6.32
505.21	6.34
505.411	6.43
505.613	6.36
505.815	6.4
506.016	6.49
506.218	6.56
506.42	6.42
506.621	6.44
506.823	6.48
507.024	6.45
507.226	6.39
507.427	6.44
507.629	6.51
507.83	6.52
508.032	6.52
508.233	6.56
508.435	6.65
508.636	6.65
508.838	6.56
509.039	6.6
509.24	6.59
509.442	6.59
509.643	6.58
509.845	6.66
510.046	6.67
510.247	6.67
510.448	6.65
510.65	6.7
510.851	6.8
511.052	6.82
511.254	6.8
511.455	6.86
511.656	6.85
511.857	6.81
512.058	6.79
512.26	6.84
512.461	6.81
512.662	6.85
512.863	6.77
513.064	6.8
513.265	6.84
513.466	6.92
513.667	6.9
513.868	7.02
514.069	6.99
514.27	6.99
514.471	6.87
514.672	6.93
514.873	6.94
515.074	7.02
515.275	7.01
515.476	7.13
515.677	7.12
515.878	7.16
516.079	7.09
516.28	7.12
516.481	7.19
516.682	7.15
516.882	7.1
517.083	7.19
517.284	7.09
517.485	7.02
517.686	7.03
517.886	7.03
518.087	7.06
518.288	7.19
518.488	7.15
518.689	7.15
518.89	7.11
519.091	7.05
519.291	6.99
519.492	7.04
519.692	7.1
519.893	7.26
520.094	7.33
520.294	7.28
520.495	7.25
520.695	7.3
520.896	7.23
521.096	7.23
521.297	7.34
521.497	7.45
521.698	7.38
521.898	7.34
522.099	7.35
522.299	7.39
522.499	7.31
522.7	7.37
522.9	7.43
523.101	7.43
523.301	7.41
523.501	7.46
523.702	7.41
523.902	7.45
524.102	7.55
524.302	7.55
524.503	7.59
524.703	7.65
524.903	7.62
525.103	7.57
525.304	7.6
525.504	7.64
525.704	7.64
525.904	7.67
526.104	7.65
526.304	7.66
526.504	7.62
526.705	7.65
526.905	7.7
527.105	7.78
527.305	7.79
527.505	7.81
527.705	7.84
527.905	7.77
528.105	7.72
528.305	7.69
528.505	7.77
528.705	7.78
528.905	7.79
529.105	7.79
529.304	7.84
529.504	7.83
529.704	7.85
529.904	7.91
530.104	8
530.304	8.05
530.503	8.05
530.703	8.06
530.903	8.05
531.103	8.04
531.303	7.95
531.502	7.97
531.702	8.03
531.902	8.08
532.101	8.05
532.301	8.12
532.501	8.11
532.7	8.13
532.9	8.12
533.1	8.18
533.299	8.18
533.499	8.22
533.698	8.19
533.898	8.16
534.097	8.17
534.297	8.22
534.496	8.24
534.696	8.26
534.895	8.39
535.095	8.4
535.294	8.38
535.494	8.31
535.693	8.35
535.892	8.36
536.092	8.35
536.291	8.39
536.491	8.43
536.69	8.53
536.889	8.42
537.088	8.42
537.288	8.52
537.487	8.64
537.686	8.58
537.886	8.71
538.085	8.76
538.284	8.73
538.483	8.64
538.682	8.76
538.882	8.79
539.081	8.89
539.28	8.9
539.479	8.98
539.678	8.96
539.877	8.97
540.076	8.96
540.275	9.06
540.474	9.07
540.673	9.04
540.872	9.1
541.071	9.13
541.27	9.13
541.469	9.22
541.668	9.29
541.867	9.27
542.066	9.3
542.265	9.36
542.464	9.3
542.663	9.37
542.862	9.54
543.06	9.57
543.259	9.58
543.458	9.7
543.657	9.7
543.856	9.71
544.054	9.79
544.253	9.79
544.452	9.8
544.651	9.85
544.849	9.81
545.048	9.81
545.247	9.82
545.445	9.89
545.644	9.97
545.843	9.94
546.041	9.99
546.24	10.11
546.438	10.14
546.637	10.13
546.836	10.28
547.034	10.35
547.233	10.43
547.431	10.48
547.63	10.54
547.828	10.53
548.027	10.59
548.225	10.6
548.423	10.65
548.622	10.79
548.82	10.85
549.019	10.85
549.217	10.94
549.415	10.98
549.614	11
549.812	11.08
550.01	11.09
550.209	11.12
550.407	11.24
550.605	11.35
550.803	11.42
551.002	11.54
551.2	11.6
551.398	11.69
551.596	11.7
551.794	11.8
551.993	11.93
552.191	11.94
552.389	11.99
552.587	12.03
552.785	12.05
552.983	12
553.181	12.19
553.379	12.2
553.577	12.21
553.775	12.38
553.973	12.52
554.171	12.6
554.369	12.71
554.567	12.78
554.765	12.76
554.963	12.86
555.161	12.92
555.359	13.05
555.557	13.28
555.755	13.42
555.952	13.57
556.15	13.65
556.348	13.7
556.546	13.72
556.744	13.79
556.941	13.82
557.139	13.89
557.337	14.07
557.535	14.15
557.732	14.27
557.93	14.4
558.128	14.56
558.325	14.61
558.523	14.64
558.721	14.76
558.918	14.76
559.116	14.77
559.313	14.81
559.511	14.99
559.708	15.05
559.906	15.2
560.104	15.31
560.301	15.48
560.498	15.64
560.696	15.72
560.893	15.83
561.091	15.98
561.288	16.09
561.486	16.15
561.683	16.28
561.88	16.41
562.078	16.49
562.275	16.57
562.473	16.62
562.67	16.8
562.867	16.88
563.064	17.03
563.262	17.11
563.459	17.34
563.656	17.39
563.853	17.44
564.051	17.54
564.248	17.64
564.445	17.73
564.642	17.81
564.839	17.97
565.036	18.12
565.234	18.32
565.431	18.36
565.628	18.57
565.825	18.71
566.022	18.79
566.219	18.84
566.416	18.92
566.613	18.91
566.81	18.98
567.007	19.03
567.204	19.07
567.401	19.22
567.598	19.34
567.795	19.39
567.991	19.48
568.188	19.69
568.385	19.64
568.582	19.83
568.779	19.92
568.976	20.1
569.172	20.18
569.369	20.38
569.566	20.43
569.763	20.55
569.96	20.61
570.156	20.64
570.353	20.66
570.55	20.72
570.746	20.83
570.943	20.82
571.14	20.84
571.336	20.99
571.533	21.04
571.729	21.02
571.926	21.12
572.123	21.16
572.319	21.2
572.516	21.23
572.712	21.25
572.909	21.33
573.105	21.45
573.302	21.51
573.498	21.58
573.695	21.61
573.891	21.63
574.087	21.66
574.284	21.59
574.48	21.51
574.677	21.6
574.873	21.64
575.069	21.7
575.266	21.8
575.462	21.9
575.658	21.93
575.854	22.03
576.051	21.98
576.247	22.05
576.443	22.11
576.639	22.17
576.835	22.08
577.032	22.07
577.228	22.1
577.424	22.05
577.62	21.94
577.816	21.93
578.012	22.03
578.208	21.97
578.404	22.03
578.6	22.04
578.796	22.12
578.993	22.02
579.189	22.07
579.384	22.04
579.58	21.99
579.776	21.94
579.972	21.89
580.168	21.79
580.364	21.68
580.56	21.77
580.756	21.72
580.952	21.72
581.148	21.73
581.343	21.8
581.539	21.68
581.735	21.7
581.931	21.76
582.127	21.83
582.322	21.79
582.518	21.9
582.714	21.88
582.909	21.77
583.105	21.69
583.301	21.67
583.496	21.66
583.692	21.57
583.888	21.56
584.083	21.58
584.279	21.59
584.474	21.58
584.67	21.68
584.866	21.75
585.061	21.65
585.257	21.68
585.452	21.57
585.648	21.42
585.843	21.35
586.039	21.32
586.234	21.22
586.429	21.18
586.625	21.26
586.82	21.2
587.015	21.31
587.211	21.23
587.406	21.29
587.601	21.28
587.797	21.23
587.992	21.11
588.187	21.23
588.383	21.17
588.578	21.2
588.773	21.25
588.968	21.31
589.163	21.37
589.359	21.39
589.554	21.3
589.749	21.42
589.944	21.45
590.139	21.43
590.334	21.45
590.529	21.53
590.724	21.48
590.919	21.49
591.114	21.45
591.309	21.47
591.504	21.59
591.699	21.57
591.894	21.59
592.089	21.52
592.284	21.64
592.479	21.51
592.674	21.47
592.869	21.47
593.064	21.67
593.259	21.7
593.454	21.8
593.648	21.91
593.843	22.11
594.038	22.01
594.233	22
594.428	22.06
594.622	22.09
594.817	21.97
595.012	22.05
595.206	22.12
595.401	22.22
595.596	22.3
595.79	22.39
595.985	22.56
596.18	22.64
596.374	22.66
596.569	22.7
596.763	22.7
596.958	22.69
597.153	22.76
597.347	22.8
597.542	23.04
597.736	23.14
597.931	23.16
598.125	23.23
598.319	23.31
598.514	23.32
598.708	23.38
598.903	23.39
599.097	23.38
599.291	23.44
599.486	23.36
599.68	23.41
599.874	23.54
600.069	23.55
600.263	23.56
600.457	23.54
600.651	23.57
600.846	23.51
601.04	23.59
601.234	23.59
601.428	23.68
601.622	23.77
601.817	23.91
602.011	23.89
602.205	24.05
602.399	24.06
602.593	24.03
602.787	23.98
602.981	24.05
603.175	23.97
603.369	23.91
603.563	23.95
603.757	24
603.951	23.95
604.145	23.91
604.339	23.98
604.533	23.9
604.727	23.81
604.921	23.77
605.115	23.71
605.309	23.64
605.502	23.59
605.696	23.56
605.89	23.46
606.084	23.48
606.278	23.38
606.471	23.37
606.665	23.29
606.859	23.23
607.053	23.12
607.246	23.23
607.44	23.1
607.634	23.07
607.827	23.07
608.021	22.97
608.214	22.77
608.408	22.76
608.602	22.78
608.795	22.68
608.989	22.72
609.182	22.66
609.376	22.56
609.569	22.37
609.763	22.28
609.956	22.13
610.15	22.06
610.343	22.02
610.537	21.95
610.73	21.91
610.923	21.8
611.117	21.73
611.31	21.56
611.504	21.54
611.697	21.37
611.89	21.32
612.083	21.23
612.277	21.17
612.47	21.05
612.663	20.98
612.856	20.93
613.05	20.88
613.243	20.78
613.436	20.65
613.629	20.57
613.822	20.49
614.015	20.38
614.209	20.29
614.402	20.3
614.595	20.29
614.788	20.2
614.981	20.12
615.174	20.02
615.367	19.87
615.56	19.64
615.753	19.55
615.946	19.46
616.139	19.5
616.332	19.6
616.525	19.61
616.718	19.58
616.911	19.59
617.103	19.56
617.296	19.41
617.489	19.4
617.682	19.31
617.875	19.19
618.067	19.1
618.26	18.95
618.453	18.96
618.646	18.97
618.838	18.89
619.031	18.9
619.224	18.96
619.417	18.88
619.609	18.83
619.802	18.76
619.994	18.72
620.187	18.71
620.38	18.65
620.572	18.59
620.765	18.64
620.957	18.53
621.15	18.37
621.342	18.36
621.535	18.37
621.727	18.37
621.92	18.38
622.112	18.4
622.305	18.41
622.497	18.35
622.69	18.28
622.882	18.17
623.074	18.1
623.267	17.97
623.459	17.91
623.651	17.84
623.844	17.92
624.036	17.91
624.228	17.92
624.42	17.89
624.613	17.89
624.805	17.76
624.997	17.73
625.189	17.69
625.381	17.74
625.574	17.74
625.766	17.66
625.958	17.64
626.15	17.6
626.342	17.51
626.534	17.49
626.726	17.49
626.918	17.51
627.11	17.52
627.302	17.45
627.494	17.34
627.686	17.35
627.878	17.24
628.07	17.12
628.262	17.13
628.454	17.11
628.646	17.1
628.838	17.15
629.029	17.07
629.221	16.98
629.413	16.87
629.605	16.78
629.797	16.66
629.989	16.75
630.18	16.8
630.372	16.82
630.564	16.84
630.755	16.82
630.947	16.79
631.139	16.62
631.33	16.58
631.522	16.61
631.714	16.56
631.905	16.48
632.097	16.54
632.289	16.53
632.48	16.45
632.672	16.36
632.863	16.23
633.055	16.15
633.246	16.15
633.438	16.06
633.629	16.06
633.821	16.11
634.012	16.16
634.203	16.05
634.395	15.99
634.586	16.06
634.777	16.04
634.969	15.92
635.16	15.93
635.351	15.92
635.543	15.85
635.734	15.86
635.925	15.82
636.117	15.83
636.308	15.87
636.499	15.77
636.69	15.64
636.881	15.63
637.073	15.64
637.264	15.6
637.455	15.62
637.646	15.7
637.837	15.72
638.028	15.63
638.219	15.63
638.41	15.54
638.601	15.5
638.792	15.4
638.983	15.35
639.174	15.26
639.365	15.24
639.556	15.22
639.747	15.26
639.938	15.27
640.129	15.3
640.32	15.27
640.511	15.18
640.701	15.09
640.892	15.09
641.083	15.04
641.274	15.08
641.465	15.16
641.655	15.09
641.846	15.06
642.037	15.01
642.228	14.96
642.418	14.91
642.609	14.88
642.8	14.85
642.99	14.76
643.181	14.76
643.372	14.72
643.562	14.71
643.753	14.65
643.943	14.59
644.134	14.56
644.324	14.54
644.515	14.43
644.705	14.44
644.896	14.51
645.086	14.46
645.277	14.36
645.467	14.44
645.658	14.23
645.848	14.16
646.038	14.12
646.229	14.1
646.419	14.03
646.61	14.09
646.8	14.06
646.99	13.98
647.18	13.97
647.371	13.97
647.561	13.86
647.751	13.89
647.941	13.84
648.132	13.76
648.322	13.75
648.512	13.81
648.702	13.72
648.892	13.75
649.082	13.76
649.272	13.61
649.462	13.47
649.653	13.4
649.843	13.33
650.033	13.31
650.223	13.29
650.413	13.32
650.603	13.29
650.793	13.24
650.983	13.12
651.172	13
651.362	12.97
651.552	12.94
651.742	12.78
651.932	12.73
652.122	12.77
652.312	12.7
652.502	12.65
652.691	12.62
652.881	12.68
653.071	12.61
653.261	12.5
653.45	12.32
653.64	12.28
653.83	12.16
654.019	12.12
654.209	12.21
654.399	12.33
654.588	12.23
654.778	12.15
654.968	12.02
655.157	11.93
655.347	11.73
655.536	11.62
655.726	11.55
655.915	11.44
656.105	11.29
656.294	11.15
656.484	10.99
656.673	10.78
656.863	10.79
657.052	10.69
657.241	10.59
657.431	10.52
657.62	10.36
657.809	10.13
657.999	9.91
658.188	9.83
658.377	9.74
658.567	9.63
658.756	9.53
658.945	9.4
659.134	9.26
659.324	9.13
659.513	9.05
659.702	8.77
659.891	8.68
660.08	8.57
660.269	8.54
660.458	8.57
660.648	8.58
660.837	8.45
661.026	8.33
661.215	8.24
661.404	7.99
661.593	7.98
661.782	7.8
661.971	7.76
662.16	7.61
662.349	7.61
662.538	7.39
662.726	7.47
662.915	7.38
663.104	7.2
663.293	7.04
663.482	7.06
663.671	6.92
663.86	6.72
664.048	6.63
664.237	6.65
664.426	6.53
664.615	6.49
664.803	6.54
664.992	6.62
665.181	6.56
665.369	6.4
665.558	6.37
665.747	6.25
665.935	6.28
666.124	6.29
666.312	6.47
666.501	6.41
666.69	6.39
666.878	6.35
667.067	6.17
667.255	6.09
667.444	6.22
667.632	6.32
667.82	6.29
668.009	6.38
668.197	6.32
668.386	6.18
668.574	6.21
668.762	6.21
668.951	6.19
669.139	6.18
669.327	6.19
669.516	6.22
669.704	6.28
669.892	6.33
670.08	6.41
670.269	6.48
670.457	6.42
670.645	6.4
670.833	6.46
671.021	6.5
671.21	6.55
671.398	6.64
671.586	6.61
671.774	6.67
671.962	6.6
672.15	6.54
672.338	6.48
672.526	6.63
672.714	6.55
672.902	6.64
673.09	6.73
673.278	6.84
673.466	6.78
673.654	7.11
673.842	7.05
674.03	7.26
674.218	7.31
674.405	7.39
674.593	7.25
674.781	7.44
674.969	7.25
675.157	7.37
675.344	7.41
675.532	7.41
675.72	7.54
675.908	7.75
676.095	7.62
676.283	7.74
676.471	7.94
676.658	7.91
676.846	7.94
677.033	8.18
677.221	8.04
677.409	8.03
677.596	8.11
677.784	8.19
677.971	8.14
678.159	8.4
678.346	8.47
678.534	8.5
678.721	8.72
678.909	8.83
679.096	8.95
679.283	9.12
679.471	9.21
679.658	9.15
679.846	9.24
680.033	9.37
680.22	9.36
680.408	9.53
680.595	9.7
680.782	9.73
680.969	9.73
681.157	9.68
681.344	9.82
681.531	9.86
681.718	9.97
681.905	10.15
682.093	10.4
682.28	10.52
682.467	10.7
682.654	10.78
682.841	10.84
683.028	11.12
683.215	11.4
683.402	11.36
683.589	11.66
683.776	11.85
683.963	11.79
684.15	11.92
684.337	12.17
684.524	12.24
684.711	12.34
684.898	12.57
685.085	12.52
685.271	12.79
685.458	13.11
685.645	13.27
685.832	13.65
686.019	13.95
686.205	14.28
686.392	14.48
686.579	14.84
686.766	14.96
686.952	15.26
687.139	15.49
687.326	15.66
687.512	16.01
687.699	16.42
687.886	16.75
688.072	17.07
688.259	17.66
688.445	18.13
688.632	18.24
688.818	18.8
689.005	19.24
689.191	19.63
689.378	20.09
689.564	20.77
689.751	20.98
689.937	21.56
690.124	22.03
690.31	22.53
690.496	22.98
690.683	23.83
690.869	24.37
691.055	25
691.242	25.63
691.428	26.43
691.614	27
691.8	27.76
691.987	28.3
692.173	28.97
692.359	29.55
692.545	30.25
692.731	30.39
692.918	30.94
693.104	31.36
693.29	31.98
693.476	32.45
693.662	33.49
693.848	34.26
694.034	35.12
694.22	35.92
694.406	36.84
694.592	37.47
694.778	38.04
694.964	38.69
695.15	39.32
695.336	39.82
695.522	40.59
695.708	41.62
695.894	41.97
696.08	42.52
696.265	43.16
696.451	43.59
696.637	44.16
696.823	45.09
697.009	45.89
697.194	46.83
697.38	47.52
697.566	47.83
697.751	48.53
697.937	49.09
698.123	49.54
698.308	50.55
698.494	51.49
698.68	52.08
698.865	52.66
699.051	53.28
699.236	53.84
699.422	54.21
699.607	54.71
699.793	55.52
699.978	56.13
700.164	56.33
700.349	57.35
700.535	58.11
700.72	58.43
700.906	59.19
701.091	59.88
701.276	60.34
701.462	60.97
701.647	61.82
701.832	62.09
702.018	62.72
702.203	63.2
702.388	63.44
702.573	63.61
702.759	64.29
702.944	64.7
703.129	65.21
703.314	65.68
703.499	66.59
703.684	67.44
703.87	68.03
704.055	68.58
704.24	69.36
704.425	69.67
704.61	69.63
704.795	70
704.98	69.96
705.165	70.18
705.35	70.42
705.535	70.47
705.72	70.9
705.905	71.35
706.09	71.55
706.275	72.06
706.459	72.51
706.644	72.88
706.829	73.37
707.014	73.62
707.199	73.75
707.384	74.26
707.568	74.65
707.753	75.34
707.938	75.98
708.123	76.12
708.307	76.18
708.492	76.1
708.677	75.78
708.861	75.58
709.046	75.63
709.231	76.26
709.415	76.79
709.6	77.4
709.784	77.63
709.969	78.17
710.153	78.12
710.338	78.54
710.522	78.38
710.707	79.16
710.891	79.01
711.076	79.41
711.26	79.03
711.445	79.26
711.629	79.32
711.813	80.34
711.998	80.7
712.182	80.75
712.366	81.01
712.551	80.93
712.735	80.13
712.919	80.4
713.103	80.9
713.288	81.02
713.472	81.3
713.656	82.49
713.84	82.37
714.024	82.47
714.208	82.87
714.393	83.51
714.577	83.12
714.761	82.86
714.945	83.29
715.129	83.2
715.313	82.76
715.497	82.75
715.681	83.01
715.865	83.01
716.049	83.18
716.233	83.63
716.417	83.78
716.601	84.29
716.785	84.49
716.968	84.55
717.152	84.76
717.336	84.89
717.52	84.37
717.704	84.85
717.888	85.14
718.071	85.12
718.255	85.28
718.439	85.9
718.622	85.82
718.806	85.95
718.99	85.34
719.174	85.84
719.357	85.98
719.541	85.62
719.724	86.09
719.908	87.43
720.092	87.74
720.275	88.01
720.459	88.62
720.642	88.3
720.826	87.99
721.009	87.75
721.193	86.86
721.376	86.98
721.559	87.7
721.743	87.87
721.926	87.57
722.11	87.58
722.293	87.04
722.476	86
722.66	85.82
722.843	86.4
723.026	87.05
723.21	87.17
723.393	88.38
723.576	88.5
723.759	87.76
723.942	88.34
724.126	88.56
724.309	88.3
724.492	88.67
724.675	89.73
724.858	90.26
725.041	91.26
725.224	91.53
725.407	91.44
725.59	91.34
725.774	90.98
725.957	89.58
726.14	89.41
726.322	89.88
726.505	89.49
726.688	89.53
726.871	89.89
727.054	90.49
727.237	90.34
727.42	90.97
727.603	91.63
727.786	91.98
727.968	91.61
728.151	91.24
728.334	91.43
728.517	91.43
728.699	91.72
728.882	91.25
729.065	92.17
729.248	92.54
729.43	92.46
729.613	93.36
729.796	93.76
729.978	92.9
730.161	92.72
730.343	92.93
730.526	92.6
730.708	92.68
730.891	93.48
731.073	92.91
731.256	91.92
731.438	92.44
731.621	93.05
731.803	93.59
731.986	94.03
732.168	94.78
732.35	94.64
732.533	94.66
732.715	94.18
732.898	95.26
733.08	95.37
733.262	95.17
733.444	94.75
733.627	94.52
733.809	94.45
733.991	94.78
734.173	95.69
734.355	96.3
734.538	96.94
734.72	96.35
734.902	96.69
735.084	95.5
735.266	95.71
735.448	95.87
735.63	96.24
735.812	96.03
735.994	96.67
736.176	97.37
736.358	97.23
736.54	97.54
736.722	97.38
736.904	97.58
737.086	96.6
737.268	97.54
737.45	98.16
737.632	98.81
737.814	98.28
737.995	99.45
738.177	99.11
738.359	98.27
738.541	97.93
738.723	98.49
738.904	97.69
739.086	97.35
739.268	97.15
739.449	97.09
739.631	96.92
739.813	97.59
739.994	98.12
740.176	98.94
740.358	99.5
740.539	100.15
740.721	99.82
740.902	100.65
741.084	100.51
741.265	100.33
741.447	100.27
741.628	99.71
741.81	97.1
741.991	97.25
742.172	97.7
742.354	97.46
742.535	98.31
742.717	100.58
742.898	99.99
743.079	100.29
743.261	100.3
743.442	99.47
743.623	98.5
743.804	100.65
743.986	100.75
744.167	100.43
744.348	101.97
744.529	103.04
744.71	100.83
744.891	101.2
745.073	101.52
745.254	100.76
745.435	100.81
745.616	100.65
745.797	99.61
745.978	99.09
746.159	98.49
746.34	97.49
746.521	97.35
746.702	96.92
746.883	96.46
747.064	94.94
747.245	95.2
747.426	96.16
747.606	97.47
747.787	98.13
747.968	99.37
748.149	100.39
748.33	100.98
748.51	99.19
748.691	98.91
748.872	100.14
749.053	99.15
749.233	97.83
749.414	98.21
749.595	98.51
749.775	97.84
749.956	96.28
750.137	96.03
750.317	96.68
750.498	96.56
750.678	96.98
750.859	98.57
751.04	99.24
751.22	98.05
751.4	97.36
751.581	97.14
751.761	97.36
751.942	97.5
752.122	99.18
752.303	99.45
752.483	99.78
752.663	99.05
752.844	98.82
753.024	97.6
753.204	97.63
753.385	95.67
753.565	94.55
753.745	94.75
753.925	95.16
754.106	96.6
754.286	98.39
754.466	98.78
754.646	99.35
754.826	99.37
755.006	97.06
755.187	97.97
755.367	97.93
755.547	97.73
755.727	98.39
755.907	98.33
756.087	97.48
756.267	97.52
756.447	97.94
756.627	97.22
756.807	99.39
756.987	98.12
757.167	100.54
757.346	98.6
757.526	97.43
757.706	96.82
757.886	96.7
758.066	95.81
758.246	97.68
758.425	98.92
758.605	97.87
758.785	98.62
758.965	97.65
759.144	94.39
759.324	93.63
759.504	95.09
759.683	95.03
759.863	93.43
760.043	95.93
760.222	95.82
760.402	93.15
760.581	93.75
760.761	95.94
760.94	93.12
761.12	92.63
761.299	95.33
761.479	94.39
761.658	92.66
761.838	94.54
762.017	94.68
762.197	92.58
762.376	91.95
762.555	92.58
762.735	93.56
762.914	92.02
763.093	94.39
763.273	92.52
763.452	93.85
763.631	92.53
763.81	92.23
763.99	90.9
764.169	93.72
764.348	91.37
764.527	91.75
764.706	94.6
764.885	95.28
765.064	92.53
765.243	92.93
765.423	92.21
765.602	91.75
765.781	90.56
765.96	90.66
766.139	91.87
766.318	92.11
766.497	91.75
766.676	92.77
766.854	95.02
767.033	93.9
767.212	93.63
767.391	92.8
767.57	91.77
767.749	91.81
767.928	92.1
768.106	89.68
768.285	89.41
768.464	91.95
768.643	91.54
768.821	92.37
769	95.9
769.179	97.5
769.357	92.37
769.536	90.96
769.715	91.72
769.893	90.8
770.072	89.78
770.25	89.49
770.429	89.87
770.607	87.92
770.786	87.9
770.964	87.61
771.143	92.08
771.321	93.83
771.5	94.26
771.678	92.5
771.857	90.7
772.035	90.97
772.213	89.88
772.392	86.75
772.57	87.61
772.748	90.49
772.927	86.34
773.105	85.69
773.283	89.47
773.461	91.96
773.64	90.22
773.818	89.1
773.996	90.32
774.174	88.51
774.352	85.82
774.531	85.14
774.709	90.35
774.887	89.05
775.065	87.97
775.243	86.55
775.421	88.3
775.599	88.17
775.777	85.62
775.955	83.7
776.133	84.59
776.311	81.72
776.489	78.22
776.667	80.57
776.844	83.86
777.022	83.27
777.2	85.32
777.378	86.02
777.556	86.88
777.734	85.76
777.911	86.25
778.089	85.41
778.267	86.53
778.445	83.44
778.622	85.98
778.8	87.32
778.978	89.58
779.155	88.98
779.333	91.06
779.511	85.74
779.688	85.97
779.866	81.29
780.043	77.04
780.221	77.36
780.398	77.89
780.576	77.9
780.753	82.16
780.931	83.96
781.108	83.91
781.286	87.38
781.463	81.71
781.64	80.22
781.818	84.02
781.995	83.23
782.172	83.21
782.35	88.62
782.527	87.01
782.704	83.62
782.882	87.53
783.059	87.37
783.236	85.15
783.413	86.68
783.59	87.22
783.768	79.59
783.945	75.72
784.122	77.09
784.299	77.12
784.476	77.3
784.653	81.43
784.83	80.98
785.007	76.41
785.184	78.3
785.361	78.54
785.538	79.98
785.715	82.3
785.892	87.09
786.069	85.71
786.246	86.77
786.423	81.66
786.6	82.27
786.776	83.42
786.953	84.13
787.13	85
787.307	87.19
787.484	86.66
787.66	83.98
787.837	77.74
788.014	75.95
788.191	75.19
788.367	74.18
788.544	76.54
788.721	82.55
788.897	82.83
789.074	85.29
789.25	84.72
789.427	84.8
789.603	80.64
789.78	80.61
789.956	72.37
790.133	74.37
790.309	72.94
790.486	76.52
790.662	75.1
790.839	79.28
791.015	80.43
791.192	75.16
791.368	74.72
791.544	73.52
791.721	79.74
791.897	79.91
792.073	82.52
792.249	80.58
792.426	81.82
792.602	77.5
792.778	73.09
792.954	73.02
793.13	69
793.307	65.91
793.483	60.65
793.659	63.13
793.835	62.16
794.011	69.93
794.187	67.05
794.363	67.76
794.539	68.38
794.715	68.76
794.891	60.85
795.067	63.3
795.243	74.63
795.419	74.62
795.595	76.44
795.771	82.05
795.947	85.86
796.122	73.01
796.298	74.3
796.474	74.94
796.65	70.57
796.826	68.24
797.001	74.19
797.177	69.93
797.353	71.05
797.529	75.88
797.704	68.35
797.88	66.57
798.056	64.48
798.231	62.91
798.407	64.77
798.582	69.24
798.758	72.79
798.934	77.45
799.109	75.17
799.285	71.12
799.46	79.46
799.636	74.94
799.811	76.82
799.986	83.68
800.162	88.28
800.337	80.11
800.513	78.1
800.688	72.26
800.863	68.25
801.039	60.8
801.214	60.63
801.389	63.1
801.565	66
801.74	64.58
801.915	65.61
802.09	69.29
802.265	72
802.441	72.21
802.616	69.08
802.791	71.74
802.966	71.06
803.141	72.1
803.316	64.3
803.491	65.03
803.666	64.82
803.841	62.46
804.016	56.04
804.191	64.32
804.366	67.13
804.541	68.43
804.716	60.35
804.891	58.63
805.066	56.9
805.241	56.17
805.416	58.89
805.591	65.18
805.765	70.46
805.94	74.43
806.115	72.73
806.29	63.57
806.464	69.8
806.639	67.01
806.814	55.92
806.989	46.52
807.163	53.93
807.338	47.03
807.512	46.2
807.687	40.61
807.862	48.62
808.036	48.73
808.211	53.62
808.385	58.71
808.56	69.29
808.734	68.52
808.909	70.29
809.083	63.29
809.258	64.11
809.432	71.39
809.606	63.5
809.781	62.08
809.955	69.88
810.13	66.75
810.304	53.3
810.478	57.26
810.652	59.46
810.827	62.39
811.001	64.52
811.175	65.24
811.349	66.48
811.524	60.67
811.698	49.38
811.872	48.49
812.046	53.93
812.22	53.63
812.394	46.52
812.568	49.24
812.742	52
812.916	48.68
813.09	47.52
813.264	59.65
813.438	57.82
813.612	53.1
813.786	41.25
813.96	50.72
814.134	51
814.308	55.55
814.482	52.13
814.656	66.56
814.83	67.85
815.003	65.84
815.177	63.98
815.351	69.35
815.525	79.26
815.698	70.03
815.872	55.68
816.046	54.33
816.219	52.22
816.393	44.11
816.567	47.96
816.74	54.86
816.914	66.89
817.088	65.86
817.261	66.21
817.435	66.94
817.608	67.4
817.782	56.74
817.955	58.73
818.129	47.77
818.302	42.27
818.475	53.79
818.649	49.52
818.822	38.21
818.996	49.44
819.169	59.28
819.342	49.9
819.516	56.86
819.689	71.56
819.862	66.7
820.035	54.02
820.209	44.73
820.382	45.71
820.555	47.68
820.728	38.06
820.901	38.16
821.075	46.45
821.248	55.39
821.421	46.69
821.594	46.8
821.767	64.68
821.94	85.07
822.113	51.91
822.286	51.83
822.459	67.7
822.632	56.16
822.805	44.98
822.978	56.85
823.151	57.15
823.324	41.17
823.496	19.33
823.669	24.61
823.842	27.92
824.015	19.89
824.188	11.89
824.361	19.38
824.533	6.12
824.706	19.6
824.879	27.9
825.051	57.51
825.224	59.53
825.397	61.3
825.569	40.15
825.742	46.47
825.915	48.83
826.087	45.76
826.26	30.22
826.432	38.35
826.605	36.19
826.777	30.24
826.95	29.33
827.122	38.52
827.295	48.28
827.467	46.89
827.64	23.55
827.812	13.17
827.984	24.54
828.157	15.86
828.329	0.86
828.501	11.09
828.674	28.81
828.846	26
829.018	27.77
829.19	42.4
829.363	59.48
829.535	56.03
829.707	55.25
829.879	40.4
830.051	35.72
830.223	36.1
830.395	20.52
830.568	16.98
830.74	19.01
830.912	44.18
831.084	31.01
831.256	21.4
831.428	12.63
831.6	12.93
831.772	-21.59
831.943	-28.88
832.115	-2.67
832.287	29.51
832.459	38.88
832.631	42.24
832.803	68.08
832.975	57.43
833.146	46.47
833.318	38.73
833.49	61.98
833.662	43.74
833.833	39.56
834.005	42.67
834.177	60.89
834.348	40.51
834.52	20.21
834.692	23.71
834.863	18.8
835.035	2.78
835.206	12.85
835.378	40.65
835.549	36.29
835.721	32.97
835.892	26.36
836.064	25.64
836.235	26.01
836.407	60.78
836.578	43.52
836.749	49.43
836.921	45.16
837.092	26.19
837.264	-19.68
837.435	-28.52
837.606	-21.5
837.777	13.8
837.949	30.46
838.12	11.9
838.291	30.78
838.462	34.06
838.633	7.26
838.805	-12.6
838.976	13.11
839.147	12.53
839.318	-22.72
839.489	-44.07
839.66	-33.27
839.831	-20.82
840.002	-38.13
840.173	-31.34
840.344	-20.96
840.515	-5.16
840.686	-32.66
840.857	-36.58
841.028	-35.24
841.199	-9.02
841.369	-18.88
841.54	-18.98
841.711	22.55
841.882	28.41
842.053	17.51
842.223	-8.54
842.394	8.32
842.565	15.47
842.736	23.1
842.906	3.48
843.077	31.67
843.248	33.65
843.418	6.36
843.589	-13.58
843.759	21.27
843.93	20.75
844.101	11.63
844.271	22.48
844.442	49.75
844.612	54.68
844.783	36.83
844.953	20.15
845.123	29.87
845.294	10.58
845.464	-16.51
845.635	-1.29
845.805	25.19
845.975	20.69
846.146	17.04
846.316	16.43
846.486	39.94
846.656	41.91
846.827	9.43
846.997	6.09
847.167	29.86
847.337	-3.51
847.507	-7.77
847.677	1.89
847.848	21.68
848.018	30.92
848.188	48.71
848.358	41.77
848.528	44.57
848.698	22.76
848.868	-14.23
849.038	-33.98
849.208	-28.75
849.378	-15.28
849.548	-22.12
849.718	-4.94
849.887	29.45
850.057	-15.37
850.227	-44.98
850.397	-49.03
850.567	-39.53
850.737	-32.41
850.906	-60.03
851.076	-76.2
851.246	-73.31
851.415	-56.57
851.585	-29.21
851.755	-9.24
851.924	33.47
852.094	32.13
852.264	23.12
852.433	-3.92
852.603	11.16
852.772	6.47
852.942	3.67
853.111	-2.49
853.281	13.91
853.45	18.36
853.62	-15.57
853.789	-48.59
853.959	-5.32
854.128	-25.8
854.297	-59.5
854.467	-48.34
854.636	-14.59
854.805	-37.19
854.975	-40.3
855.144	-16.42
855.313	3.13
855.482	1.47
855.652	-21.06
855.821	4.11
855.99	11.08
856.159	12.66
856.328	-5.18
856.497	15.3
856.667	-12.09
856.836	-12.58
857.005	-44.25
857.174	-94.29
857.343	-89.84
857.512	-30.21
857.681	-100.3
857.85	-89.45
858.019	-63.74
858.188	-72.3
858.356	-94.73
858.525	-77.68
858.694	-86.99
858.863	-46.64
859.032	-65.22
859.201	-62.88
859.369	-32.71
859.538	1.19
859.707	-43.89
859.876	-47.29
860.044	-42.11
860.213	-48.59
860.382	-61.91
860.55	-57.55
860.719	-12.8
860.888	8.31
861.056	-2.74
861.225	-22.11
861.393	26.55
861.562	45.85
861.73	11.5
861.899	24.1
862.067	8.98
862.236	16.46
862.404	-30.51
862.572	-43.86
862.741	-32.06
862.909	-32.16
863.078	-61.11
863.246	-68.71
863.414	-34.61
863.582	-43.25
863.751	-32.99
863.919	-13.94
864.087	29.79
864.255	10.42
864.424	-21.69
864.592	-11.61
864.76	-3.05
864.928	-29.08
865.096	-24.68
865.264	-24.26
865.432	-16.91
865.6	-12.44
865.768	-76.8
865.936	-136.03
866.104	-110
866.272	-123.04
866.44	-114.18
866.608	-90.66
866.776	-140.51
866.944	-203.94
867.112	-303.25
867.28	-456.75
867.448	-981.4
867.615	-420.28
867.783	-119.54
867.951	-119.11
868.119	-70.84
868.286	-67.57
868.454	-98.91
868.622	-150.08
868.789	-128.16
868.957	-46.9
869.125	-35.37
869.292	-5.64
869.46	11.73
869.627	24.82
869.795	-21.77
869.963	-11.83
870.13	3.98
870.298	12.06
870.465	-20.3
870.632	-29.18
870.8	-33.12
870.967	-29.14
871.135	-118.35
871.302	-86.44
871.469	-8.29
871.637	-2.64
871.804	0.56
871.971	2.4
872.139	21.88
872.306	23.72
872.473	5.26
872.64	-45.51
872.807	0.84
872.975	15.93
873.142	-29.39
873.309	-0.45
873.476	71.48
873.643	59.05
873.81	32.77
873.977	20.14
874.144	13.16
874.311	13.34
874.478	-53.64
874.645	-98.59
874.812	-325.28
874.979	16004.76
875.146	-436.24
875.313	-109.01
875.48	-57.68
875.647	-23.69
875.813	-62.7
875.98	-113.59
876.147	-169.75
876.314	-150.46
876.481	-220.97
876.647	-236.74
876.814	-107.92
876.981	-87.79
877.147	-149.85
877.314	-77.78
877.481	-18.49
877.647	-10.28
877.814	-93.87
877.98	-97.53
878.147	-70.34
878.314	-48.46
878.48	-132.48
878.647	-81.59
878.813	35.73
878.979	56.33
879.146	52.72
879.312	69.46
879.479	69.36
879.645	30.06
879.811	-35.21
879.978	-43.59
880.144	-29.07
880.31	-42.01
880.477	-103.76
880.643	-96.66
880.809	-43.98
880.975	-13.22
881.142	-51.21
881.308	-12.89
881.474	21.17
881.64	11.28
881.806	-37.08
881.972	0.36
882.138	8.76
882.304	21.69
882.47	-91.29
882.636	-131.85
882.802	-139.28
882.968	-101.07
883.134	-191.43
883.3	-164.68
883.466	-15.11
883.632	-13.59
883.798	-61.2
883.964	-47.64
884.129	-35.14
884.295	-56.52
884.461	-74.82
884.627	-103.05
884.793	-72.6
884.958	-24.95
885.124	-63.22
885.29	-61.01
885.455	-14.73
885.621	-2.95
885.787	-162.89
885.952	-53.31
886.118	-38.69
886.283	-30.32
886.449	-51.66
886.614	-17.21
886.78	-24.26
886.945	-49.17
887.111	-137.62
887.276	-201.91
887.442	-487.49
887.607	-340.72
887.773	-316.25
887.938	-232.83
888.103	-107
888.269	-29.34
888.434	-8.04
888.599	-9.26
888.764	39.73
888.93	41.55
889.095	21.2
889.26	-23.77
889.425	-3.99
889.59	-29.47
889.756	-69.91
889.921	-42.43
890.086	-25.53
890.251	-17.56
890.416	-63.3
890.581	-51.75
890.746	-76.5
890.911	-22.41
891.076	-54.6
891.241	-57.41
891.406	-51.07
891.571	-18.04
891.736	-68.73
891.901	-92.8
892.065	-63.69
892.23	-44.11
892.395	-108.42
892.56	-124.42
892.725	-45.92
892.889	-18.88
893.054	-103.52
893.219	-107.81
893.384	-105.37
893.548	-161.17
893.713	-228.65
893.878	-186.46
