Data from Ofra_PP_Phys_6GT17_Reflection_3.txt Node
Date: Sat Jul 24 20:11:38 EDT 2021
User: USUARIO
Spectrometer: FLMT01687
Trigger mode: 0
Integration Time (sec): 1.100000E0
Scans to average: 2
Electric dark correction enabled: true
Nonlinearity correction enabled: false
Boxcar width: 2
XAxis mode: Wavelengths
Number of Pixels in Spectrum: 3648
>>>>>Begin Spectral Data<<<<<
179.494	661.87
179.716	825.44
179.937	1403.78
180.158	1219.23
180.38	582.26
180.601	-668.22
180.823	-0.43
181.044	1296.9
181.265	-88.96
181.486	0.38
181.708	11.5
181.929	-1494.67
182.15	218.88
182.372	-178.93
182.593	55033.33
182.814	778.97
183.035	253.45
183.257	210.41
183.478	53.79
183.699	108.23
183.92	54.41
184.141	69.09
184.363	-32.94
184.584	41.69
184.805	41.92
185.026	61.72
185.247	58.34
185.468	31.02
185.689	35.7
185.91	31.29
186.132	26.63
186.353	17.99
186.574	57.2
186.795	67.73
187.016	12.89
187.237	48.25
187.458	48.72
187.679	145.14
187.9	113.31
188.121	170.52
188.342	158.31
188.563	155.46
188.784	134.67
189.005	147.01
189.226	135.15
189.447	126.17
189.667	113.39
189.888	76.33
190.109	43.59
190.33	3.96
190.551	-39.19
190.772	-37
190.993	-55.6
191.214	-31.46
191.434	-28.47
191.655	53.04
191.876	47.79
192.097	49.88
192.318	29.98
192.538	18.2
192.759	-11.03
192.98	-3.54
193.201	-0.78
193.421	-41.64
193.642	-13.51
193.863	-9.42
194.083	-25.18
194.304	-6.82
194.525	27.87
194.745	37.73
194.966	-9.82
195.187	-44.5
195.407	-108.07
195.628	-161.81
195.848	-164.58
196.069	-153.58
196.29	-88.38
196.51	-130.64
196.731	-114.59
196.951	-91.59
197.172	-81.83
197.392	-88.44
197.613	-43.3
197.833	-39.55
198.054	-73.12
198.274	-61.39
198.495	-128.21
198.715	-77.55
198.936	-111.36
199.156	-66.32
199.377	-87.46
199.597	-73.72
199.817	-102.93
200.038	-37.01
200.258	-26.42
200.479	31.46
200.699	57.64
200.919	53.98
201.14	-8.67
201.36	-29.3
201.58	-32.25
201.801	-33.54
202.021	-42.86
202.241	8.61
202.461	10.61
202.682	-20.89
202.902	-10.3
203.122	-28.49
203.342	-22.58
203.563	21.54
203.783	46.28
204.003	-20.12
204.223	-53.91
204.443	35.18
204.663	19.15
204.884	-3.83
205.104	61.29
205.324	100.68
205.544	80.34
205.764	65.94
205.984	88.87
206.204	78.07
206.424	60.2
206.644	6.42
206.864	23.71
207.084	16.68
207.304	37.1
207.525	-7.02
207.745	14.59
207.964	14.28
208.184	-19.99
208.404	-46.44
208.624	-26.75
208.844	-9.22
209.064	-55.85
209.284	-56.53
209.504	-17.55
209.724	-8.21
209.944	-11.72
210.164	49.99
210.384	71.53
210.604	69.18
210.823	14.99
211.043	-43.6
211.263	-37
211.483	-57.66
211.703	-78.07
211.922	-41.02
212.142	53.55
212.362	60.61
212.582	48.47
212.801	57.47
213.021	28.09
213.241	8.21
213.461	-39
213.68	-49.43
213.9	-36.59
214.12	-0.35
214.339	-37.16
214.559	-6.99
214.779	21.92
214.998	3.4
215.218	-22.73
215.438	-18.4
215.657	-35.87
215.877	-6.7
216.096	-3.64
216.316	31.1
216.535	26.56
216.755	31.13
216.974	10.19
217.194	14.96
217.413	-3.78
217.633	-2.91
217.852	-66.72
218.072	-58.39
218.291	-65.41
218.511	-42.69
218.73	-102.5
218.95	-83.37
219.169	-85.17
219.389	-113.61
219.608	-127.4
219.827	-38.1
220.047	-3.5
220.266	-1.94
220.485	-9.39
220.705	30.93
220.924	-41.54
221.143	-5.87
221.363	-73.46
221.582	-12.53
221.801	-10.75
222.021	48.28
222.24	31.38
222.459	89.19
222.678	58.43
222.897	19.18
223.117	12.33
223.336	-3.88
223.555	24.87
223.774	58.51
223.993	81.8
224.213	161.15
224.432	103.61
224.651	99.86
224.87	66.17
225.089	83.15
225.308	58.24
225.527	81.66
225.746	78.81
225.965	66.83
226.184	43.26
226.404	48.17
226.623	27.46
226.842	29.32
227.061	67.09
227.28	85.68
227.499	83.39
227.718	114.7
227.936	90.55
228.155	81.29
228.374	9.99
228.593	-6.24
228.812	-19.3
229.031	4.55
229.25	-23.3
229.469	27.38
229.688	25
229.907	36.52
230.125	49.99
230.344	66.42
230.563	67.49
230.782	92.6
231.001	35.73
231.22	29.29
231.438	38.45
231.657	35.7
231.876	28.79
232.095	74.74
232.313	73.42
232.532	49.86
232.751	34.62
232.969	20.07
233.188	6.74
233.407	5.55
233.625	-9.19
233.844	-6.83
234.063	-10.74
234.281	31.65
234.5	35.05
234.719	52.15
234.937	53.72
235.156	76.36
235.374	74.86
235.593	85.47
235.811	83.17
236.03	84.8
236.249	58.61
236.467	60.26
236.686	21.9
236.904	29.61
237.123	-29.34
237.341	-23
237.559	-66.17
237.778	-49.88
237.996	-64.47
238.215	-18.96
238.433	-19.96
238.652	12.05
238.87	-34.13
239.088	-0.47
239.307	16.53
239.525	12.35
239.743	-30.76
239.962	7.42
240.18	-30.49
240.398	-74.4
240.617	-87.83
240.835	-39.61
241.053	-68.33
241.271	7.77
241.49	32.13
241.708	23.64
241.926	35.43
242.144	45.9
242.363	-3.69
242.581	-10.45
242.799	20.71
243.017	5.27
243.235	-36.81
243.453	-0.62
243.672	-35.69
243.89	-35.5
244.108	-17.65
244.326	28.35
244.544	28.69
244.762	31.57
244.98	37.04
245.198	30.48
245.416	-12.86
245.634	-10.05
245.852	0.3
246.07	-2.87
246.288	-0.08
246.506	16.92
246.724	36.36
246.942	41.22
247.16	56.19
247.378	64.91
247.596	76.54
247.814	70.31
248.032	19.5
248.25	-1.83
248.468	3.04
248.685	17.09
248.903	11.55
249.121	38.04
249.339	4
249.557	-12
249.775	-27.57
249.992	-99.83
250.21	-100.03
250.428	-55.99
250.646	-48.98
250.863	-52.85
251.081	-20.82
251.299	5
251.517	-1.26
251.734	1.88
251.952	-0.61
252.17	16.67
252.387	27.33
252.605	8.06
252.823	8.45
253.04	34.26
253.258	36.46
253.475	24.69
253.693	62.12
253.911	78.73
254.128	69.62
254.346	70.75
254.563	63.31
254.781	39.25
254.998	22.52
255.216	22.66
255.433	18.09
255.651	52.43
255.868	73.06
256.086	78.63
256.303	70.46
256.521	79.56
256.738	39.03
256.956	11.19
257.173	24.86
257.39	15.27
257.608	8.66
257.825	25.59
258.043	46.71
258.26	41.63
258.477	47.68
258.695	44.64
258.912	-4.8
259.129	-8.46
259.346	-42.1
259.564	-46.86
259.781	-22.94
259.998	10.12
260.216	36.76
260.433	67.84
260.65	64.88
260.867	72.54
261.084	40.21
261.302	15.68
261.519	24.27
261.736	-3.19
261.953	-15.11
262.17	20.54
262.387	14.49
262.604	-15.53
262.822	-11.65
263.039	-10.94
263.256	-35.06
263.473	-20.68
263.69	-40.85
263.907	2.61
264.124	12.78
264.341	51.84
264.558	42.05
264.775	65.84
264.992	81.26
265.209	70.58
265.426	62.42
265.643	67.34
265.86	63.05
266.077	42.86
266.294	32.99
266.51	22.67
266.727	8.51
266.944	33.82
267.161	28.52
267.378	36.77
267.595	43.04
267.812	21.96
268.028	-0.56
268.245	13.16
268.462	-13.5
268.679	-7.66
268.896	50.75
269.112	39.42
269.329	25.75
269.546	56.18
269.763	49.75
269.979	37.38
270.196	46.2
270.413	32.02
270.629	2.86
270.846	-1.5
271.063	15.59
271.279	-13.44
271.496	-28.08
271.712	-23.42
271.929	-3.38
272.146	-6.58
272.362	20.02
272.579	81.63
272.795	95.24
273.012	110.34
273.228	95.52
273.445	74.23
273.661	6.13
273.878	-67.38
274.094	-77.13
274.311	-94.83
274.527	-36.6
274.744	0.13
274.96	40.86
275.177	41.07
275.393	45.08
275.609	40.21
275.826	40.77
276.042	34.08
276.259	27.5
276.475	18.14
276.691	27.2
276.908	26.01
277.124	53.9
277.34	53.97
277.557	54.84
277.773	40.62
277.989	39.12
278.205	32.86
278.422	51.96
278.638	69.04
278.854	81.58
279.07	74.45
279.286	34.1
279.503	-2.95
279.719	-13.48
279.935	-33.24
280.151	-48.27
280.367	-16.31
280.583	-0.32
280.799	-7.99
281.016	0.17
281.232	19.89
281.448	20.39
281.664	33.08
281.88	34.25
282.096	32.28
282.312	50.95
282.528	65.44
282.744	64.16
282.96	70.84
283.176	73.77
283.392	49.31
283.608	42.02
283.824	32.89
284.04	30.82
284.256	47.38
284.471	49.62
284.687	48.59
284.903	61.51
285.119	86.92
285.335	35.54
285.551	43.43
285.767	21.75
285.982	2.51
286.198	-12.05
286.414	28.33
286.63	32.76
286.846	62.08
287.061	26.04
287.277	26.42
287.493	28.91
287.709	25.35
287.924	12.38
288.14	57.46
288.356	71.85
288.571	69.08
288.787	46.64
289.003	50.14
289.218	11.34
289.434	-55.64
289.65	3.03
289.865	33.45
290.081	50.32
290.296	56.59
290.512	51.36
290.727	39.63
290.943	17.32
291.159	-0.72
291.374	1.32
291.59	-5.21
291.805	-36.05
292.021	-11.95
292.236	-20.95
292.451	-10.76
292.667	11.68
292.882	32.45
293.098	47.71
293.313	41.54
293.529	15.33
293.744	-9.79
293.959	-18.6
294.175	-23.51
294.39	-0.33
294.605	29.74
294.821	52.01
295.036	26.4
295.251	44.33
295.467	40.65
295.682	35.06
295.897	10.08
296.112	13.7
296.328	-6.76
296.543	-21.92
296.758	-45.58
296.973	11.21
297.188	52.62
297.404	24
297.619	38.96
297.834	40.37
298.049	33.03
298.264	-1.83
298.479	35.86
298.694	34.41
298.909	43.44
299.125	34.36
299.34	56.3
299.555	42.71
299.77	73.77
299.985	19.18
300.2	-13.49
300.415	-45.71
300.63	-19.67
300.845	-34.25
301.06	-11.66
301.275	3.64
301.49	19.56
301.704	-0.29
301.919	-61.86
302.134	-81.78
302.349	-20.53
302.564	-49.42
302.779	-20.2
302.994	38.61
303.209	44.21
303.423	38.83
303.638	93.14
303.853	48.48
304.068	4.99
304.283	14.86
304.497	5.69
304.712	1.26
304.927	25.87
305.142	23.43
305.356	34.71
305.571	34.45
305.786	28.62
306	10.78
306.215	37.65
306.43	16.16
306.644	33.08
306.859	40.04
307.074	35.07
307.288	1.15
307.503	8.28
307.717	-20.96
307.932	-6.81
308.147	-9.73
308.361	32.65
308.576	21.72
308.79	-20.88
309.005	-24.97
309.219	-14.44
309.434	-23.29
309.648	-44.21
309.863	5.46
310.077	6.13
310.292	5.65
310.506	6.22
310.72	49.58
310.935	62.55
311.149	47.27
311.364	60.62
311.578	67.3
311.792	50.67
312.007	38.26
312.221	-1.68
312.435	12.6
312.649	-24.31
312.864	11.58
313.078	-5.51
313.292	58.64
313.507	45.35
313.721	56.09
313.935	60.63
314.149	95.71
314.363	67.01
314.578	56.96
314.792	46.41
315.006	39.55
315.22	25.89
315.434	25.42
315.648	39.85
315.862	40.87
316.077	42.68
316.291	43.53
316.505	62.29
316.719	59.16
316.933	14.79
317.147	23.1
317.361	-11.38
317.575	-11.07
317.789	-35.33
318.003	-12.61
318.217	-2
318.431	26.13
318.645	36.27
318.859	33
319.073	64.78
319.287	27.17
319.5	-6.58
319.714	-45.24
319.928	-40.23
320.142	-75.65
320.356	3.18
320.57	40.83
320.784	39.27
320.997	59.53
321.211	63
321.425	17.25
321.639	-37
321.853	3.55
322.066	-21.6
322.28	-39.28
322.494	-19.34
322.707	47.62
322.921	23.18
323.135	12
323.349	22.11
323.562	1.6
323.776	-31.81
323.989	-33.17
324.203	-32.31
324.417	-7.43
324.63	-21.3
324.844	-34.34
325.057	-27.15
325.271	-19.99
325.485	-35.96
325.698	9.12
325.912	34.19
326.125	16.05
326.339	39.71
326.552	44.68
326.766	40.08
326.979	45.93
327.193	73.5
327.406	51.52
327.619	49.59
327.833	64.35
328.046	40.35
328.26	14.56
328.473	20.16
328.686	-4.48
328.9	-10.25
329.113	1.46
329.326	-1.49
329.54	4.75
329.753	6.2
329.966	1.91
330.179	16.59
330.393	29.13
330.606	31.36
330.819	45.3
331.032	53.99
331.246	57.91
331.459	83.18
331.672	51.97
331.885	40.49
332.098	-1.03
332.311	11.41
332.525	-6.15
332.738	5.41
332.951	23.12
333.164	42.19
333.377	45.47
333.59	55.5
333.803	46.2
334.016	38.41
334.229	37.59
334.442	30.02
334.655	49.54
334.868	71.33
335.081	73.85
335.294	56.72
335.507	67
335.72	52.37
335.933	24.22
336.146	18.84
336.359	39.23
336.572	-0.18
336.785	-11.67
336.997	-0.19
337.21	13.4
337.423	1.13
337.636	16.61
337.849	24.88
338.062	30.09
338.274	43.7
338.487	23.15
338.7	28.85
338.913	8.67
339.125	-4.55
339.338	-19.68
339.551	3.53
339.763	30.99
339.976	44.39
340.189	50.62
340.402	61.25
340.614	46.24
340.827	16.63
341.039	-2.34
341.252	-22.04
341.465	-41.6
341.677	-44.39
341.89	-79.08
342.102	-58.45
342.315	-48.8
342.527	-53.87
342.74	-39.49
342.952	19.67
343.165	21.7
343.377	56.94
343.59	38.05
343.802	62.8
344.015	69.39
344.227	95.32
344.44	72.78
344.652	85.99
344.864	80.6
345.077	81.6
345.289	51.34
345.502	50.29
345.714	41.35
345.926	37.45
346.139	24.03
346.351	24.74
346.563	27.26
346.775	46.15
346.988	32.3
347.2	32
347.412	0.09
347.624	-6.06
347.837	-7.78
348.049	17.54
348.261	28.17
348.473	40.49
348.685	1.38
348.897	-1.85
349.11	-24.03
349.322	-34.91
349.534	-1.65
349.746	29.96
349.958	38.24
350.17	39.47
350.382	55.71
350.594	47.12
350.806	53.42
351.018	34.79
351.23	38.31
351.442	21.04
351.654	13.82
351.866	12.42
352.078	20.73
352.29	26.71
352.502	57.84
352.714	86.19
352.926	69.79
353.138	67.76
353.35	33.93
353.561	15.09
353.773	-15.3
353.985	-1.82
354.197	-9.64
354.409	7.59
354.621	17.22
354.832	27.95
355.044	14.8
355.256	10.46
355.468	16.19
355.679	7.54
355.891	16.92
356.103	11.2
356.314	17.55
356.526	17.17
356.738	43.35
356.949	43.2
357.161	54.73
357.373	58.87
357.584	57.76
357.796	44.02
358.008	29.68
358.219	41.06
358.431	42.82
358.642	50.54
358.854	53.89
359.065	50.27
359.277	25.88
359.488	13.95
359.7	-5.24
359.911	-28.53
360.123	-28.4
360.334	-39.55
360.546	-48.79
360.757	-35.72
360.969	-24
361.18	5
361.391	16.25
361.603	24.57
361.814	34.89
362.025	9.99
362.237	0.76
362.448	19.52
362.659	38.09
362.871	33.35
363.082	50.16
363.293	48.56
363.504	33.5
363.716	11.81
363.927	14
364.138	-0.87
364.349	-33.33
364.56	-32.34
364.772	-49.51
364.983	-34.64
365.194	-37.73
365.405	-10.24
365.616	5.1
365.827	20.87
366.038	2.98
366.25	23.14
366.461	2.86
366.672	20.04
366.883	37.44
367.094	31.79
367.305	1.13
367.516	21.56
367.727	-2.01
367.938	-24.92
368.149	-30.38
368.36	-10.06
368.571	-11.8
368.781	-12
368.992	-16.42
369.203	9.41
369.414	4.49
369.625	-8.92
369.836	-16.33
370.047	-25.27
370.258	-41.56
370.468	-41.87
370.679	-68.79
370.89	-54.37
371.101	-16.65
371.312	-40.25
371.522	-27.31
371.733	-3.82
371.944	4.41
372.155	18.32
372.365	11.19
372.576	15.41
372.787	10.01
372.997	-1.52
373.208	-15.87
373.419	15.79
373.629	-9.07
373.84	0.06
374.05	-13.39
374.261	3.95
374.472	-21.81
374.682	13.31
374.893	-0.97
375.103	35.82
375.314	19.5
375.524	35.27
375.735	32.28
375.945	40.64
376.156	9.24
376.366	32.37
376.577	32.89
376.787	25.17
376.997	32.09
377.208	40.27
377.418	4.41
377.629	9.43
377.839	-0.21
378.049	-7.92
378.26	4.27
378.47	26.31
378.68	19.01
378.89	20.74
379.101	21.81
379.311	-4.65
379.521	-36.31
379.732	-27.18
379.942	-45.47
380.152	-37.01
380.362	-17.86
380.572	-5.58
380.783	2.2
380.993	24.78
381.203	35.25
381.413	43.38
381.623	50.72
381.833	48.52
382.043	24.29
382.253	15.42
382.463	8
382.674	4.4
382.884	-9.84
383.094	-4.2
383.304	-3.48
383.514	0.46
383.724	5.92
383.934	-3.47
384.144	-12.75
384.353	-12.37
384.563	-7.84
384.773	-3.48
384.983	12.4
385.193	26.62
385.403	13.37
385.613	7.76
385.823	-0.44
386.033	0.94
386.242	-7.33
386.452	4.43
386.662	-1.09
386.872	8.75
387.082	8.32
387.291	1.63
387.501	9.66
387.711	14.82
387.921	4.44
388.13	9.4
388.34	23.81
388.55	13.56
388.759	14.47
388.969	16.9
389.179	11.15
389.388	7.56
389.598	7.11
389.807	3.1
390.017	5.26
390.227	5.69
390.436	2.89
390.646	10.86
390.855	14.76
391.065	16.9
391.274	14.22
391.484	10.42
391.693	8.43
391.903	7.93
392.112	9.66
392.322	12.18
392.531	18.02
392.74	18.02
392.95	12.99
393.159	10.18
393.369	13.55
393.578	10.95
393.787	8.34
393.997	13.12
394.206	12.82
394.415	11.32
394.625	11.9
394.834	10.5
395.043	9.36
395.252	10.75
395.462	12.22
395.671	13.61
395.88	16.43
396.089	16.92
396.298	16.11
396.508	15.22
396.717	14.75
396.926	14.41
397.135	14.3
397.344	13.43
397.553	12.85
397.762	13.82
397.971	13.21
398.181	12.93
398.39	11.99
398.599	11.77
398.808	10.85
399.017	11.73
399.226	12.21
399.435	13.99
399.644	14.23
399.853	13.98
400.062	13.38
400.27	13.16
400.479	12.49
400.688	11.94
400.897	12.39
401.106	12.33
401.315	11.64
401.524	11.7
401.733	11.81
401.941	12.17
402.15	11.94
402.359	12.04
402.568	12.13
402.777	12.32
402.985	11.87
403.194	12.12
403.403	12.14
403.612	11.68
403.82	11.81
404.029	11.57
404.238	11.06
404.446	11.28
404.655	11.1
404.864	10.78
405.072	10.71
405.281	11.09
405.489	10.74
405.698	10.85
405.906	10.83
406.115	10.73
406.324	10.5
406.532	10.63
406.741	11
406.949	10.78
407.158	10.87
407.366	11.1
407.574	11.15
407.783	10.84
407.991	10.9
408.2	11.02
408.408	10.76
408.617	10.68
408.825	10.43
409.033	10.64
409.242	10.61
409.45	10.68
409.658	10.48
409.867	10.76
410.075	10.39
410.283	10.1
410.491	10.03
410.7	9.91
410.908	9.86
411.116	10.12
411.324	10.13
411.533	10.13
411.741	10.32
411.949	10.34
412.157	10.08
412.365	10.26
412.573	10.14
412.781	10.12
412.99	9.86
413.198	10.04
413.406	9.94
413.614	10.04
413.822	10
414.03	9.99
414.238	9.71
414.446	9.73
414.654	9.41
414.862	9.44
415.07	9.59
415.278	9.89
415.486	9.35
415.694	9.65
415.902	9.65
416.109	9.46
416.317	9.43
416.525	9.52
416.733	9.55
416.941	9.6
417.149	9.62
417.357	9.57
417.564	9.97
417.772	9.88
417.98	9.86
418.188	9.88
418.395	9.78
418.603	9.87
418.811	9.64
419.019	9.41
419.226	9.71
419.434	9.76
419.642	9.35
419.849	9.48
420.057	9.65
420.265	9.3
420.472	9.06
420.68	9.28
420.887	9.15
421.095	9.16
421.302	9.13
421.51	9.44
421.717	9.55
421.925	9.56
422.132	9.4
422.34	9.17
422.547	9.02
422.755	8.91
422.962	8.97
423.17	8.93
423.377	9.3
423.585	9.39
423.792	9.39
423.999	9.37
424.207	9.37
424.414	9.24
424.621	9.28
424.829	9.09
425.036	9.09
425.243	9.06
425.451	9
425.658	8.8
425.865	8.9
426.072	8.73
426.28	8.81
426.487	8.68
426.694	8.72
426.901	8.63
427.108	8.74
427.315	8.64
427.523	9.13
427.73	9.15
427.937	8.94
428.144	8.79
428.351	8.9
428.558	8.61
428.765	8.5
428.972	8.76
429.179	8.94
429.386	9.29
429.593	9.23
429.8	9.2
430.007	9.25
430.214	9.42
430.421	9.13
430.628	9.03
430.835	8.76
431.042	8.97
431.249	8.81
431.456	8.98
431.662	9.31
431.869	9.72
432.076	9.61
432.283	9.55
432.49	9.25
432.697	9.18
432.903	8.74
433.11	8.68
433.317	8.81
433.524	9.16
433.73	8.86
433.937	9.27
434.144	9.15
434.35	9.21
434.557	8.89
434.764	9.02
434.97	8.92
435.177	9.19
435.384	8.84
435.59	9.04
435.797	9.28
436.003	9.44
436.21	9.23
436.416	9.42
436.623	9.21
436.829	9.16
437.036	9.05
437.242	9
437.449	9
437.655	9.12
437.862	9.05
438.068	9.09
438.275	9.23
438.481	9.34
438.687	9.27
438.894	9.23
439.1	9.21
439.307	9.24
439.513	9.11
439.719	9.2
439.926	9.2
440.132	9.13
440.338	9.02
440.544	9.16
440.751	9.03
440.957	9.14
441.163	8.91
441.369	8.95
441.575	8.65
441.782	8.54
441.988	8.3
442.194	8.48
442.4	8.56
442.606	8.85
442.812	9.05
443.018	9.24
443.224	9.36
443.431	9.42
443.637	9.31
443.843	9.07
444.049	9.06
444.255	8.98
444.461	8.91
444.667	8.8
444.873	9.01
445.079	9.09
445.284	9.15
445.49	8.87
445.696	8.8
445.902	8.74
446.108	8.61
446.314	8.45
446.52	8.62
446.726	8.9
446.931	8.8
447.137	8.85
447.343	9.03
447.549	8.79
447.755	8.63
447.96	8.7
448.166	8.61
448.372	8.64
448.578	8.79
448.783	8.76
448.989	8.82
449.195	8.96
449.4	8.8
449.606	8.79
449.812	8.75
450.017	8.92
450.223	8.85
450.428	8.72
450.634	8.89
450.84	9.08
451.045	8.85
451.251	8.71
451.456	8.95
451.662	8.9
451.867	8.84
452.073	8.72
452.278	8.97
452.483	9.1
452.689	9.04
452.894	9.2
453.1	9.43
453.305	9.16
453.51	9.01
453.716	8.86
453.921	8.77
454.127	8.65
454.332	8.63
454.537	8.56
454.742	8.73
454.948	8.74
455.153	8.65
455.358	8.72
455.563	8.92
455.769	8.9
455.974	8.81
456.179	8.85
456.384	8.79
456.589	8.68
456.795	8.45
457	8.45
457.205	8.57
457.41	8.51
457.615	8.38
457.82	8.53
458.025	8.6
458.23	8.41
458.435	8.57
458.64	8.42
458.845	8.61
459.05	8.47
459.255	8.41
459.46	8.39
459.665	8.58
459.87	8.45
460.075	8.32
460.28	8.46
460.485	8.62
460.69	8.7
460.895	8.43
461.099	8.5
461.304	8.64
461.509	8.61
461.714	8.35
461.919	8.6
462.123	8.63
462.328	8.71
462.533	8.37
462.738	8.57
462.942	8.42
463.147	8.51
463.352	8.4
463.556	8.45
463.761	8.48
463.966	8.67
464.17	8.65
464.375	8.54
464.58	8.57
464.784	8.45
464.989	8.25
465.193	8.2
465.398	8.21
465.602	8.46
465.807	8.45
466.011	8.59
466.216	8.62
466.42	8.69
466.625	8.57
466.829	8.76
467.034	8.79
467.238	8.92
467.443	8.86
467.647	8.67
467.851	8.65
468.056	8.7
468.26	8.5
468.464	8.4
468.669	8.61
468.873	8.57
469.077	8.52
469.282	8.62
469.486	8.75
469.69	8.77
469.894	8.81
470.099	8.88
470.303	8.91
470.507	8.81
470.711	8.75
470.915	8.59
471.119	8.56
471.324	8.46
471.528	8.43
471.732	8.54
471.936	8.61
472.14	8.69
472.344	8.78
472.548	8.99
472.752	9.06
472.956	9.2
473.16	9.04
473.364	8.96
473.568	8.94
473.772	8.85
473.976	8.8
474.18	8.77
474.384	8.73
474.588	8.56
474.792	8.4
474.995	8.29
475.199	8.4
475.403	8.53
475.607	8.55
475.811	8.6
476.015	8.67
476.218	8.63
476.422	8.52
476.626	8.68
476.83	8.84
477.033	8.81
477.237	8.69
477.441	8.73
477.644	8.59
477.848	8.47
478.052	8.38
478.255	8.39
478.459	8.53
478.663	8.71
478.866	8.8
479.07	8.91
479.273	9.2
479.477	9.18
479.681	9.08
479.884	9.05
480.088	8.93
480.291	8.82
480.495	8.72
480.698	8.78
480.901	8.82
481.105	9.02
481.308	8.96
481.512	8.9
481.715	8.9
481.919	8.9
482.122	8.84
482.325	8.8
482.529	8.89
482.732	8.89
482.935	8.77
483.138	8.81
483.342	8.98
483.545	9.15
483.748	9.22
483.952	9.28
484.155	9.37
484.358	9.3
484.561	9.14
484.764	9.16
484.967	9.19
485.171	9.24
485.374	9.17
485.577	9.29
485.78	9.23
485.983	9.3
486.186	9.11
486.389	9.07
486.592	9.03
486.795	9.1
486.998	9.08
487.201	9.18
487.404	9.36
487.607	9.5
487.81	9.52
488.013	9.55
488.216	9.56
488.419	9.59
488.622	9.29
488.825	9.25
489.028	9.21
489.231	9.16
489.433	8.98
489.636	9.12
489.839	9.03
490.042	8.98
490.245	8.96
490.447	9.13
490.65	9.14
490.853	9.31
491.056	9.35
491.258	9.4
491.461	9.51
491.664	9.63
491.866	9.51
492.069	9.67
492.272	9.75
492.474	9.74
492.677	9.73
492.879	9.93
493.082	10
493.285	10.17
493.487	9.98
493.69	9.93
493.892	9.72
494.095	9.71
494.297	9.6
494.5	9.9
494.702	10.05
494.905	10.23
495.107	10.29
495.309	10.39
495.512	10.34
495.714	10.42
495.917	10.52
496.119	10.57
496.321	10.71
496.524	10.8
496.726	10.88
496.928	10.93
497.13	10.86
497.333	10.8
497.535	10.85
497.737	10.75
497.939	10.73
498.142	10.98
498.344	10.94
498.546	10.86
498.748	10.97
498.95	11.09
499.152	10.97
499.355	11.14
499.557	11.33
499.759	11.43
499.961	11.38
500.163	11.52
500.365	11.54
500.567	11.47
500.769	11.32
500.971	11.41
501.173	11.3
501.375	11.36
501.577	11.32
501.779	11.45
501.981	11.42
502.183	11.51
502.385	11.42
502.587	11.39
502.788	11.45
502.99	11.58
503.192	11.6
503.394	11.6
503.596	11.61
503.798	11.62
503.999	11.57
504.201	11.61
504.403	11.7
504.605	11.83
504.806	11.73
505.008	11.59
505.21	11.62
505.411	11.61
505.613	11.52
505.815	11.68
506.016	11.83
506.218	11.87
506.42	11.74
506.621	11.82
506.823	11.8
507.024	11.74
507.226	11.67
507.427	11.64
507.629	11.77
507.83	11.73
508.032	11.61
508.233	11.7
508.435	11.81
508.636	11.74
508.838	11.62
509.039	11.73
509.24	11.69
509.442	11.7
509.643	11.63
509.845	11.73
510.046	11.79
510.247	11.76
510.448	11.81
510.65	11.82
510.851	11.95
511.052	11.96
511.254	11.88
511.455	11.93
511.656	11.9
511.857	11.82
512.058	11.71
512.26	11.76
512.461	11.69
512.662	11.81
512.863	11.68
513.064	11.72
513.265	11.72
513.466	11.75
513.667	11.6
513.868	11.74
514.069	11.84
514.27	11.96
514.471	11.83
514.672	11.88
514.873	11.93
515.074	11.93
515.275	11.75
515.476	11.93
515.677	11.95
515.878	12.03
516.079	11.94
516.28	12.08
516.481	12.15
516.682	12.22
516.882	12.06
517.083	12.11
517.284	11.95
517.485	11.87
517.686	11.8
517.886	11.8
518.087	11.9
518.288	12.14
518.488	12.07
518.689	12.13
518.89	12.13
519.091	12.05
519.291	11.91
519.492	11.93
519.692	11.94
519.893	12.12
520.094	12.07
520.294	12.01
520.495	11.97
520.695	12.05
520.896	11.99
521.096	12.09
521.297	12.19
521.497	12.27
521.698	12.08
521.898	12.03
522.099	11.97
522.299	11.99
522.499	11.96
522.7	12.09
522.9	12.11
523.101	12.27
523.301	12.22
523.501	12.19
523.702	12.19
523.902	12.28
524.102	12.28
524.302	12.31
524.503	12.43
524.703	12.45
524.903	12.36
525.103	12.19
525.304	12.32
525.504	12.37
525.704	12.36
525.904	12.37
526.104	12.43
526.304	12.38
526.504	12.33
526.705	12.38
526.905	12.54
527.105	12.65
527.305	12.6
527.505	12.61
527.705	12.57
527.905	12.52
528.105	12.42
528.305	12.37
528.505	12.38
528.705	12.47
528.905	12.41
529.105	12.44
529.304	12.61
529.504	12.72
529.704	12.62
529.904	12.63
530.104	12.68
530.304	12.74
530.503	12.67
530.703	12.65
530.903	12.75
531.103	12.77
531.303	12.71
531.502	12.73
531.702	12.92
531.902	12.85
532.101	12.75
532.301	12.73
532.501	12.79
532.7	12.81
532.9	12.8
533.1	12.95
533.299	12.91
533.499	12.97
533.698	12.85
533.898	12.93
534.097	12.91
534.297	13.01
534.496	12.95
534.696	13.07
534.895	13.22
535.095	13.27
535.294	13.25
535.494	13.16
535.693	13.12
535.892	13.08
536.092	13.02
536.291	13.06
536.491	13.11
536.69	13.2
536.889	13.03
537.088	13.04
537.288	13.12
537.487	13.26
537.686	13.21
537.886	13.36
538.085	13.4
538.284	13.44
538.483	13.4
538.682	13.51
538.882	13.54
539.081	13.62
539.28	13.53
539.479	13.51
539.678	13.49
539.877	13.62
540.076	13.63
540.275	13.79
540.474	13.95
540.673	14
540.872	13.96
541.071	13.98
541.27	13.93
541.469	13.94
541.668	13.99
541.867	14
542.066	14.08
542.265	14.19
542.464	14.17
542.663	14.27
542.862	14.52
543.06	14.55
543.259	14.54
543.458	14.6
543.657	14.49
543.856	14.36
544.054	14.38
544.253	14.34
544.452	14.27
544.651	14.39
544.849	14.36
545.048	14.41
545.247	14.42
545.445	14.62
545.644	14.57
545.843	14.63
546.041	14.73
546.24	14.91
546.438	14.91
546.637	15.06
546.836	15.2
547.034	15.2
547.233	15.2
547.431	15.17
547.63	15.22
547.828	15.26
548.027	15.38
548.225	15.35
548.423	15.5
548.622	15.5
548.82	15.45
549.019	15.42
549.217	15.66
549.415	15.73
549.614	15.84
549.812	15.92
550.01	15.92
550.209	15.92
550.407	16
550.605	16.05
550.803	16.15
551.002	16.26
551.2	16.27
551.398	16.4
551.596	16.47
551.794	16.58
551.993	16.71
552.191	16.77
552.389	16.7
552.587	16.78
552.785	16.83
552.983	16.84
553.181	17
553.379	17.13
553.577	17.1
553.775	17.18
553.973	17.22
554.171	17.33
554.369	17.29
554.567	17.39
554.765	17.44
554.963	17.57
555.161	17.46
555.359	17.68
555.557	17.87
555.755	18.04
555.952	18.16
556.15	18.32
556.348	18.41
556.546	18.52
556.744	18.48
556.941	18.53
557.139	18.6
557.337	18.63
557.535	18.65
557.732	18.87
557.93	19.04
558.128	19.19
558.325	19.34
558.523	19.39
558.721	19.47
558.918	19.44
559.116	19.45
559.313	19.38
559.511	19.56
559.708	19.5
559.906	19.58
560.104	19.66
560.301	19.95
560.498	20
560.696	20.2
560.893	20.36
561.091	20.56
561.288	20.65
561.486	20.87
561.683	20.96
561.88	21.09
562.078	21.14
562.275	21.13
562.473	21.16
562.67	21.32
562.867	21.45
563.064	21.64
563.262	21.75
563.459	21.82
563.656	21.89
563.853	21.93
564.051	21.86
564.248	22.05
564.445	22.16
564.642	22.29
564.839	22.44
565.036	22.81
565.234	23.04
565.431	23.16
565.628	23.34
565.825	23.48
566.022	23.48
566.219	23.51
566.416	23.56
566.613	23.56
566.81	23.69
567.007	23.67
567.204	23.69
567.401	23.89
567.598	23.92
567.795	23.89
567.991	24.05
568.188	24.3
568.385	24.25
568.582	24.55
568.779	24.67
568.976	24.89
569.172	24.99
569.369	25.07
569.566	25.12
569.763	25.24
569.96	25.28
570.156	25.22
570.353	25.28
570.55	25.25
570.746	25.39
570.943	25.3
571.14	25.39
571.336	25.5
571.533	25.64
571.729	25.55
571.926	25.66
572.123	25.68
572.319	25.81
572.516	25.76
572.712	25.86
572.909	26.05
573.105	26.19
573.302	26.24
573.498	26.4
573.695	26.35
573.891	26.43
574.087	26.57
574.284	26.4
574.48	26.3
574.677	26.45
574.873	26.45
575.069	26.48
575.266	26.7
575.462	26.8
575.658	26.94
575.854	27.01
576.051	27.01
576.247	27.08
576.443	27.13
576.639	27.1
576.835	27
577.032	26.92
577.228	26.92
577.424	27.02
577.62	26.92
577.816	27.01
578.012	27.15
578.208	27.2
578.404	27.3
578.6	27.4
578.796	27.49
578.993	27.4
579.189	27.28
579.384	27.14
579.58	27.11
579.776	27.07
579.972	26.96
580.168	26.98
580.364	26.97
580.56	26.99
580.756	27
580.952	26.99
581.148	27.01
581.343	26.99
581.539	27.02
581.735	26.97
581.931	27.19
582.127	27.22
582.322	27.13
582.518	27.17
582.714	27.11
582.909	26.9
583.105	26.78
583.301	26.76
583.496	26.75
583.692	26.66
583.888	26.72
584.083	26.78
584.279	27.02
584.474	26.99
584.67	27.14
584.866	27.14
585.061	27.08
585.257	27.12
585.452	27.02
585.648	26.79
585.843	26.89
586.039	26.93
586.234	26.73
586.429	26.74
586.625	27.05
586.82	26.89
587.015	26.86
587.211	26.73
587.406	26.81
587.601	26.59
587.797	26.47
587.992	26.41
588.187	26.68
588.383	26.69
588.578	26.75
588.773	26.89
588.968	27.14
589.163	27.09
589.359	26.95
589.554	26.93
589.749	27.04
589.944	26.97
590.139	26.97
590.334	27.02
590.529	27.13
590.724	27.09
590.919	27.04
591.114	26.99
591.309	27.19
591.504	27.25
591.699	27.19
591.894	27.31
592.089	27.29
592.284	27.21
592.479	27.2
592.674	27.21
592.869	27.22
593.064	27.41
593.259	27.47
593.454	27.55
593.648	27.7
593.843	27.76
594.038	27.65
594.233	27.65
594.428	27.52
594.622	27.54
594.817	27.68
595.012	27.82
595.206	27.83
595.401	28.04
595.596	28.12
595.79	28.1
595.985	28.26
596.18	28.34
596.374	28.42
596.569	28.37
596.763	28.26
596.958	28.18
597.153	28.27
597.347	28.18
597.542	28.44
597.736	28.61
597.931	28.71
598.125	28.92
598.319	29.19
598.514	29.14
598.708	29.19
598.903	29.11
599.097	29.07
599.291	28.96
599.486	28.98
599.68	28.97
599.874	29.17
600.069	29.12
600.263	29.12
600.457	29.13
600.651	29.22
600.846	29.08
601.04	29.13
601.234	29.03
601.428	29.1
601.622	29.15
601.817	29.31
602.011	29.24
602.205	29.48
602.399	29.39
602.593	29.35
602.787	29.22
602.981	29.32
603.175	29.23
603.369	29.22
603.563	29.34
603.757	29.54
603.951	29.63
604.145	29.72
604.339	29.75
604.533	29.5
604.727	29.28
604.921	29.13
605.115	29.04
605.309	29.07
605.502	29.1
605.696	28.99
605.89	28.93
606.084	28.88
606.278	28.79
606.471	28.65
606.665	28.58
606.859	28.5
607.053	28.39
607.246	28.41
607.44	28.47
607.634	28.62
607.827	28.63
608.021	28.43
608.214	28.33
608.408	28.19
608.602	28.08
608.795	27.93
608.989	28.04
609.182	27.95
609.376	27.99
609.569	27.9
609.763	27.8
609.956	27.64
610.15	27.51
610.343	27.28
610.537	27.12
610.73	27.21
610.923	27.19
611.117	27.21
611.31	27.16
611.504	27.24
611.697	26.98
611.89	26.9
612.083	26.77
612.277	26.78
612.47	26.63
612.663	26.56
612.856	26.39
613.05	26.32
613.243	26.14
613.436	25.95
613.629	25.91
613.822	25.92
614.015	25.79
614.209	25.7
614.402	25.78
614.595	25.74
614.788	25.69
614.981	25.67
615.174	25.63
615.367	25.39
615.56	25.2
615.753	25.17
615.946	24.95
616.139	25.01
616.332	25.2
616.525	25.22
616.718	25.12
616.911	25.18
617.103	25.09
617.296	25.03
617.489	24.96
617.682	24.87
617.875	24.86
618.067	24.71
618.26	24.4
618.453	24.44
618.646	24.46
618.838	24.34
619.031	24.41
619.224	24.46
619.417	24.32
619.609	24.3
619.802	24.3
619.994	24.35
620.187	24.41
620.38	24.32
620.572	24.17
620.765	24.18
620.957	23.97
621.15	23.83
621.342	23.81
621.535	23.93
621.727	23.86
621.92	23.76
622.112	23.73
622.305	23.79
622.497	23.59
622.69	23.49
622.882	23.59
623.074	23.58
623.267	23.52
623.459	23.48
623.651	23.42
623.844	23.43
624.036	23.46
624.228	23.42
624.42	23.5
624.613	23.62
624.805	23.56
624.997	23.41
625.189	23.4
625.381	23.42
625.574	23.35
625.766	23.22
625.958	23.27
626.15	23.31
626.342	23.15
626.534	23.15
626.726	23.14
626.918	23.19
627.11	23.16
627.302	23.08
627.494	22.96
627.686	22.9
627.878	22.77
628.07	22.61
628.262	22.65
628.454	22.73
628.646	22.78
628.838	22.8
629.029	22.75
629.221	22.83
629.413	22.59
629.605	22.47
629.797	22.4
629.989	22.45
630.18	22.39
630.372	22.44
630.564	22.43
630.755	22.48
630.947	22.44
631.139	22.26
631.33	22.22
631.522	22.28
631.714	22.15
631.905	22.07
632.097	22.04
632.289	22.07
632.48	21.89
632.672	21.72
632.863	21.62
633.055	21.62
633.246	21.56
633.438	21.58
633.629	21.64
633.821	21.7
634.012	21.73
634.203	21.63
634.395	21.55
634.586	21.64
634.777	21.5
634.969	21.39
635.16	21.39
635.351	21.4
635.543	21.31
635.734	21.39
635.925	21.37
636.117	21.5
636.308	21.45
636.499	21.37
636.69	21.2
636.881	21.22
637.073	21.23
637.264	21.19
637.455	21.15
637.646	21.25
637.837	21.3
638.028	21.05
638.219	21.12
638.41	21.09
638.601	20.92
638.792	20.89
638.983	20.85
639.174	20.62
639.365	20.64
639.556	20.72
639.747	20.58
639.938	20.68
640.129	20.86
640.32	20.74
640.511	20.6
640.701	20.66
640.892	20.51
641.083	20.5
641.274	20.5
641.465	20.62
641.655	20.45
641.846	20.49
642.037	20.34
642.228	20.29
642.418	20.28
642.609	20.24
642.8	20.22
642.99	20.15
643.181	20.21
643.372	20.11
643.562	20.16
643.753	20.02
643.943	19.96
644.134	19.83
644.324	19.83
644.515	19.71
644.705	19.85
644.896	19.92
645.086	19.89
645.277	19.77
645.467	19.75
645.658	19.56
645.848	19.48
646.038	19.56
646.229	19.54
646.419	19.55
646.61	19.54
646.8	19.55
646.99	19.48
647.18	19.5
647.371	19.49
647.561	19.38
647.751	19.27
647.941	19.22
648.132	19.09
648.322	19.12
648.512	19.27
648.702	19.26
648.892	19.23
649.082	19.28
649.272	19.06
649.462	18.85
649.653	18.76
649.843	18.71
650.033	18.67
650.223	18.72
650.413	18.79
650.603	18.9
650.793	18.87
650.983	18.83
651.172	18.74
651.362	18.72
651.552	18.47
651.742	18.28
651.932	18.25
652.122	18.22
652.312	18.22
652.502	18.29
652.691	18.36
652.881	18.3
653.071	18.32
653.261	18.03
653.45	17.88
653.64	17.88
653.83	17.84
654.019	17.81
654.209	17.91
654.399	17.98
654.588	17.86
654.778	17.74
654.968	17.56
655.157	17.56
655.347	17.39
655.536	17.23
655.726	17.14
655.915	16.96
656.105	16.74
656.294	16.69
656.484	16.44
656.673	16.3
656.863	16.29
657.052	16.07
657.241	15.76
657.431	15.72
657.62	15.45
657.809	15.18
657.999	15.04
658.188	14.78
658.377	14.69
658.567	14.6
658.756	14.43
658.945	14.12
659.134	14.01
659.324	13.77
659.513	13.64
659.702	13.38
659.891	13.43
660.08	13.33
660.269	13.18
660.458	13.08
660.648	13.01
660.837	12.78
661.026	12.68
661.215	12.55
661.404	12.16
661.593	12.15
661.782	11.91
661.971	11.89
662.16	11.82
662.349	11.88
662.538	11.6
662.726	11.78
662.915	11.61
663.104	11.41
663.293	11.37
663.482	11.41
663.671	11.1
663.86	10.83
664.048	10.7
664.237	10.57
664.426	10.3
664.615	10.35
664.803	10.4
664.992	10.47
665.181	10.35
665.369	10.24
665.558	10.04
665.747	9.78
665.935	9.73
666.124	9.69
666.312	9.8
666.501	9.8
666.69	9.75
666.878	9.62
667.067	9.53
667.255	9.51
667.444	9.62
667.632	9.72
667.82	9.7
668.009	9.57
668.197	9.55
668.386	9.36
668.574	9.48
668.762	9.36
668.951	9.33
669.139	9.15
669.327	9.05
669.516	9.01
669.704	9.16
669.892	9.28
670.08	9.35
670.269	9.25
670.457	9.09
670.645	8.94
670.833	9.01
671.021	9
671.21	9.11
671.398	9.27
671.586	9.2
671.774	9.22
671.962	9.12
672.15	9.05
672.338	8.79
672.526	8.92
672.714	8.65
672.902	8.68
673.09	8.9
673.278	9.28
673.466	9.28
673.654	9.61
673.842	9.59
674.03	9.7
674.218	9.46
674.405	9.45
674.593	9.38
674.781	9.62
674.969	9.37
675.157	9.56
675.344	9.63
675.532	9.53
675.72	9.57
675.908	9.84
676.095	9.72
676.283	9.92
676.471	10.25
676.658	10.34
676.846	10.21
677.033	10.41
677.221	10.24
677.409	10.1
677.596	10.06
677.784	10.35
677.971	10.45
678.159	10.68
678.346	10.97
678.534	11
678.721	11.19
678.909	11.18
679.096	11.19
679.283	11.24
679.471	11.35
679.658	11.35
679.846	11.64
680.033	11.96
680.22	11.98
680.408	12.24
680.595	12.41
680.782	12.3
680.969	12.44
681.157	12.4
681.344	12.41
681.531	12.39
681.718	12.41
681.905	12.38
682.093	12.57
682.28	12.91
682.467	13.17
682.654	13.43
682.841	13.49
683.028	13.82
683.215	13.95
683.402	13.88
683.589	14.24
683.776	14.5
683.963	14.6
684.15	14.87
684.337	14.93
684.524	14.91
684.711	15.1
684.898	15.23
685.085	15.18
685.271	15.78
685.458	16.3
685.645	16.46
685.832	16.91
686.019	17.27
686.205	17.64
686.392	17.78
686.579	18.25
686.766	18.63
686.952	18.96
687.139	19.25
687.326	19.31
687.512	19.76
687.699	19.96
687.886	20.23
688.072	20.4
688.259	21.21
688.445	21.47
688.632	21.65
688.818	22.38
689.005	22.67
689.191	22.97
689.378	23.59
689.564	24.35
689.751	24.51
689.937	25.32
690.124	25.71
690.31	25.95
690.496	26.33
690.683	27.2
690.869	27.76
691.055	28.28
691.242	29.07
691.428	29.73
691.614	30.23
691.8	30.64
691.987	30.99
692.173	31.45
692.359	31.98
692.545	32.41
692.731	32.74
692.918	33.5
693.104	33.93
693.29	34.66
693.476	35.08
693.662	35.94
693.848	36.4
694.034	37.07
694.22	37.38
694.406	38.23
694.592	38.78
694.778	39.31
694.964	39.51
695.15	39.93
695.336	40.38
695.522	40.93
695.708	41.54
695.894	42.29
696.08	42.87
696.265	43.27
696.451	43.49
696.637	44.39
696.823	44.77
697.009	45.47
697.194	45.89
697.38	46.33
697.566	46.54
697.751	46.99
697.937	47.55
698.123	48.12
698.308	48.92
698.494	49.4
698.68	50.06
698.865	49.97
699.051	50.51
699.236	50.73
699.422	51.01
699.607	51.25
699.793	51.89
699.978	51.93
700.164	52.33
700.349	53.25
700.535	53.86
700.72	54.05
700.906	54.8
701.091	55.21
701.276	55.05
701.462	55.68
701.647	56.67
701.832	56.93
702.018	57.65
702.203	58.33
702.388	58.09
702.573	57.8
702.759	58.31
702.944	58.05
703.129	57.77
703.314	58.41
703.499	59.21
703.684	59.53
703.87	60.18
704.055	60.88
704.24	60.91
704.425	60.82
704.61	60.9
704.795	60.74
704.98	60.57
705.165	60.95
705.35	61.16
705.535	60.96
705.72	61.61
705.905	62.01
706.09	62.17
706.275	62.26
706.459	62.54
706.644	62.67
706.829	63.51
707.014	63.61
707.199	64.22
707.384	64.76
707.568	64.77
707.753	65.04
707.938	65.27
708.123	65.31
708.307	64.99
708.492	65.02
708.677	64.28
708.861	63.84
709.046	63.79
709.231	64.25
709.415	64.46
709.6	65.05
709.784	65.39
709.969	65.82
710.153	65.88
710.338	66.25
710.522	65.97
710.707	66.71
710.891	66.31
711.076	66.8
711.26	66.16
711.445	66.54
711.629	66.56
711.813	67.05
711.998	67.18
712.182	67.33
712.366	67.81
712.551	68.24
712.735	67.98
712.919	67.78
713.103	68.42
713.288	67.94
713.472	67.52
713.656	68.42
713.84	69
714.024	69.08
714.208	69.5
714.393	69.97
714.577	69.95
714.761	69.62
714.945	70.16
715.129	69.94
715.313	69.77
715.497	69.39
715.681	69.76
715.865	69.63
716.049	70.23
716.233	70.6
716.417	70.94
716.601	71.2
716.785	70.98
716.968	71.04
717.152	71.27
717.336	71.25
717.52	70.37
717.704	70.85
717.888	71.28
718.071	70.82
718.255	71.14
718.439	72.05
718.622	72.18
718.806	71.68
718.99	71.16
719.174	71.47
719.357	71.24
719.541	70.77
719.724	71.08
719.908	72.84
720.092	73.18
720.275	73.64
720.459	74.75
720.642	74.58
720.826	73.89
721.009	72.99
721.193	71.93
721.376	71.25
721.559	72.32
721.743	72.53
721.926	73.55
722.11	73.55
722.293	73.62
722.476	72.16
722.66	72.15
722.843	71.66
723.026	72.12
723.21	72.35
723.393	73.6
723.576	73.88
723.759	73.25
723.942	74.1
724.126	74.46
724.309	74.32
724.492	74.21
724.675	74.96
724.858	74.81
725.041	75.09
725.224	74.86
725.407	74.43
725.59	74.14
725.774	73.69
725.957	72.79
726.14	72.63
726.322	73.38
726.505	73.57
726.688	74.65
726.871	74.58
727.054	75.41
727.237	75.46
727.42	76.17
727.603	76.29
727.786	76.69
727.968	76.94
728.151	76.55
728.334	76.51
728.517	76.32
728.699	76.81
728.882	76.34
729.065	76.93
729.248	77.49
729.43	77.55
729.613	78.17
729.796	78.5
729.978	77.37
730.161	76.59
730.343	77.05
730.526	76.99
730.708	76.92
730.891	78.47
731.073	78.29
731.256	77.51
731.438	77.48
731.621	77.91
731.803	77.98
731.986	79.11
732.168	79.11
732.35	79.34
732.533	78.93
732.715	78.24
732.898	78.32
733.08	78.65
733.262	78.51
733.444	78.12
733.627	78.25
733.809	78.24
733.991	79.29
734.173	79.49
734.355	80
734.538	80.28
734.72	79.49
734.902	79.43
735.084	79.17
735.266	80.39
735.448	80.24
735.63	80.49
735.812	80.31
735.994	81.37
736.176	80.94
736.358	81.78
736.54	82.7
736.722	82.39
736.904	81.92
737.086	81.14
737.268	82.43
737.45	82.71
737.632	82.3
737.814	82.06
737.995	83.4
738.177	82.63
738.359	82.01
738.541	82.87
738.723	83.14
738.904	82.54
739.086	81.46
739.268	81.52
739.449	81.51
739.631	81.74
739.813	81.86
739.994	82.58
740.176	82.3
740.358	82.11
740.539	83.43
740.721	83.42
740.902	84.66
741.084	85.95
741.265	85.27
741.447	84.44
741.628	84.27
741.81	82.27
741.991	82.37
742.172	83.67
742.354	83.33
742.535	83.14
742.717	84.54
742.898	83.12
743.079	83.82
743.261	83.64
743.442	83.76
743.623	83.64
743.804	85.16
743.986	85.34
744.167	83.98
744.348	84.51
744.529	85.05
744.71	83.68
744.891	83.09
745.073	83.43
745.254	84.23
745.435	84.05
745.616	83.73
745.797	82.36
745.978	82.91
746.159	81.46
746.34	79.98
746.521	81.59
746.702	82.15
746.883	82.32
747.064	80.92
747.245	80.9
747.426	80.62
747.606	80.99
747.787	81.8
747.968	82.68
748.149	84.45
748.33	84.28
748.51	82.97
748.691	79.82
748.872	82.36
749.053	80.98
749.233	80.1
749.414	81.19
749.595	83.86
749.775	81.52
749.956	80.39
750.137	79.7
750.317	80.09
750.498	81.08
750.678	80.71
750.859	81.95
751.04	83.34
751.22	82.12
751.4	79.57
751.581	80.33
751.761	81.12
751.942	82.22
752.122	83.71
752.303	83.19
752.483	83.63
752.663	83.59
752.844	83.03
753.024	82.84
753.204	84.15
753.385	82.88
753.565	81.29
753.745	81.19
753.925	81.41
754.106	83.16
754.286	83.6
754.466	83.68
754.646	84.14
754.826	83.57
755.006	79.94
755.187	82.05
755.367	83.13
755.547	82.76
755.727	83.94
755.907	85.27
756.087	85.11
756.267	84.44
756.447	83.95
756.627	82.23
756.807	83.98
756.987	82.72
757.167	83.53
757.346	82.47
757.526	81
757.706	80.36
757.886	78.92
758.066	79.88
758.246	82.71
758.425	84.18
758.605	83.5
758.785	84.72
758.965	83.55
759.144	79.16
759.324	79.55
759.504	80.42
759.683	79.04
759.863	76.63
760.043	78.83
760.222	79.01
760.402	78.29
760.581	80.91
760.761	84.51
760.94	81.48
761.12	81.32
761.299	83.08
761.479	81.44
761.658	78.78
761.838	80.3
762.017	80.46
762.197	78.93
762.376	80.17
762.555	82.06
762.735	84.02
762.914	81.64
763.093	84.01
763.273	81.48
763.452	81.92
763.631	79.01
763.81	79.27
763.99	76.7
764.169	78.85
764.348	74.42
764.527	76.03
764.706	78.89
764.885	80.88
765.064	78.68
765.243	79.49
765.423	78.77
765.602	78.18
765.781	74.72
765.96	72.84
766.139	74.81
766.318	75.93
766.497	76.79
766.676	79.12
766.854	82.97
767.033	82.2
767.212	81.85
767.391	78.62
767.57	79.43
767.749	80.28
767.928	82.34
768.106	80.42
768.285	79.74
768.464	79.94
768.643	78.88
768.821	78.27
769	80.87
769.179	81.53
769.357	77.03
769.536	73.6
769.715	74.63
769.893	74.82
770.072	74.02
770.25	73.46
770.429	75.26
770.607	73.25
770.786	72.48
770.964	74.4
771.143	77.21
771.321	80.19
771.5	81.54
771.678	78.72
771.857	76.82
772.035	79.7
772.213	76.79
772.392	72.04
772.57	76.58
772.748	79.78
772.927	74.94
773.105	75.74
773.283	80.3
773.461	79.92
773.64	76.58
773.818	74.86
773.996	76.09
774.174	75.56
774.352	70.71
774.531	71.19
774.709	76.9
774.887	75.62
775.065	74.26
775.243	76.04
775.421	78.61
775.599	79.02
775.777	75.18
775.955	72.05
776.133	72.03
776.311	69.18
776.489	64.73
776.667	68.81
776.844	72.88
777.022	70.71
777.2	72.42
777.378	72.85
777.556	72.71
777.734	72.12
777.911	75.7
778.089	74.74
778.267	78.36
778.445	73.91
778.622	71.65
778.8	71.7
778.978	74.46
779.155	70.6
779.333	74.2
779.511	70.97
779.688	72.29
779.866	62.13
780.043	59.71
780.221	59.57
780.398	60.83
780.576	60.83
780.753	69.09
780.931	72.37
781.108	71.55
781.286	76.67
781.463	69.33
781.64	68.3
781.818	70.61
781.995	71.71
782.172	70.32
782.35	75.48
782.527	78.49
782.704	74.26
782.882	74.98
783.059	72.15
783.236	73.75
783.413	72.27
783.59	75.01
783.768	69.38
783.945	73.63
784.122	74.07
784.299	71.7
784.476	72.27
784.653	75.79
784.83	71.27
785.007	60.78
785.184	62.76
785.361	60.84
785.538	63.6
785.715	67.04
785.892	73.58
786.069	76.12
786.246	79.04
786.423	74.07
786.6	68.95
786.776	71.46
786.953	68.72
787.13	68.79
787.307	72.1
787.484	77.43
787.66	75.4
787.837	69.03
788.014	66.05
788.191	62.66
788.367	61.29
788.544	65.17
788.721	69.19
788.897	70.9
789.074	73.27
789.25	71.18
789.427	71.44
789.603	69.84
789.78	71.71
789.956	61.67
790.133	61.73
790.309	56.31
790.486	61.43
790.662	56.69
790.839	63.52
791.015	69.95
791.192	66.64
791.368	66.57
791.544	63.06
791.721	70.24
791.897	64.78
792.073	66.49
792.249	60.32
792.426	65.83
792.602	65.25
792.778	61.54
792.954	59.1
793.13	58.28
793.307	53.15
793.483	41.14
793.659	43.26
793.835	48.67
794.011	53.21
794.187	47.96
794.363	46.96
794.539	51.22
794.715	43.42
794.891	41.73
795.067	44.06
795.243	57.84
795.419	56.57
795.595	62.4
795.771	65.07
795.947	73.79
796.122	60.5
796.298	64.87
796.474	66.14
796.65	62.2
796.826	55.92
797.001	65.52
797.177	53.21
797.353	57.33
797.529	63.6
797.704	61.6
797.88	53.37
798.056	53.73
798.231	49.34
798.407	51.35
798.582	56.06
798.758	65.92
798.934	75.71
799.109	71.06
799.285	59.27
799.46	66.32
799.636	65.76
799.811	59.09
799.986	70.39
800.162	82.55
800.337	78.58
800.513	71.17
800.688	71.19
800.863	75.04
801.039	60.17
801.214	48.95
801.389	52.56
801.565	56.78
801.74	45.03
801.915	52.55
802.09	60.47
802.265	63.82
802.441	62.31
802.616	57.58
802.791	58.34
802.966	62.67
803.141	63.57
803.316	51.94
803.491	56.19
803.666	61.39
803.841	58.12
804.016	51.62
804.191	61.36
804.366	59.98
804.541	55.67
804.716	44.62
804.891	41.11
805.066	46.98
805.241	55.43
805.416	56.15
805.591	58.83
805.765	63.64
805.94	63.59
806.115	62.14
806.29	54.25
806.464	65.98
806.639	56.62
806.814	37.97
806.989	15.45
807.163	26.18
807.338	18.82
807.512	22.51
807.687	22.12
807.862	43.51
808.036	42.98
808.211	46.07
808.385	53.44
808.56	68.79
808.734	66.17
808.909	69.16
809.083	63.45
809.258	69.88
809.432	75.74
809.606	58.37
809.781	52.34
809.955	63.21
810.13	59.95
810.304	40.56
810.478	43.09
810.652	54.8
810.827	61.09
811.001	60.26
811.175	61.12
811.349	67.49
811.524	56.59
811.698	35.88
811.872	33.13
812.046	45.69
812.22	47.35
812.394	41.39
812.568	45.99
812.742	52.36
812.916	38.24
813.09	36.83
813.264	39.34
813.438	39.7
813.612	28.92
813.786	19.05
813.96	24.9
814.134	32.78
814.308	43.17
814.482	45.64
814.656	57.18
814.83	68.27
815.003	64.87
815.177	56.23
815.351	46.79
815.525	59.17
815.698	43.82
815.872	28.71
816.046	22.9
816.219	32.25
816.393	36.48
816.567	42
816.74	47.64
816.914	58.43
817.088	60.06
817.261	50.07
817.435	37.61
817.608	35.95
817.782	31.87
817.955	31.67
818.129	17.5
818.302	26.75
818.475	54.69
818.649	54.9
818.822	40.46
818.996	63.8
819.169	64.66
819.342	33.64
819.516	41.52
819.689	62.66
819.862	48.2
820.035	35.25
820.209	34.71
820.382	33.7
820.555	35
820.728	31.27
820.901	29.35
821.075	44.51
821.248	56.46
821.421	31.09
821.594	20.97
821.767	53.84
821.94	74.53
822.113	35.57
822.286	43.92
822.459	81.65
822.632	61.99
822.805	45.63
822.978	51.23
823.151	52.67
823.324	9.47
823.496	-41.25
823.669	-23.99
823.842	-16.42
824.015	-25.36
824.188	-25.37
824.361	-12.18
824.533	-34.51
824.706	-1.32
824.879	6.9
825.051	53.22
825.224	55.36
825.397	58.3
825.569	32.01
825.742	36.84
825.915	36.74
826.087	37.21
826.26	26.8
826.432	25.14
826.605	35.21
826.777	34.57
826.95	19.55
827.122	18.53
827.295	30.35
827.467	24.45
827.64	-9.4
827.812	-10.64
827.984	-1.46
828.157	-11.07
828.329	-31.33
828.501	-21.15
828.674	-3.37
828.846	1.19
829.018	17.1
829.19	22.41
829.363	46.28
829.535	41.62
829.707	50.85
829.879	16.49
830.051	5.02
830.223	-4.87
830.395	-31.48
830.568	-48.53
830.74	-35.37
830.912	8.4
831.084	-11.67
831.256	-15
831.428	-18.57
831.6	-23.7
831.772	-68.62
831.943	-63.69
832.115	-29.01
832.287	3.18
832.459	-6.12
832.631	13.22
832.803	44.94
832.975	36.91
833.146	22.66
833.318	30.44
833.49	40.62
833.662	22.48
833.833	11.8
834.005	19.32
834.177	35.79
834.348	12.21
834.52	-14.26
834.692	-2.94
834.863	-23.38
835.035	-39.84
835.206	-27.25
835.378	5.71
835.549	-18.49
835.721	15.66
835.892	12.45
836.064	29.29
836.235	33.63
836.407	78.42
836.578	46.55
836.749	55.2
836.921	28.27
837.092	3.83
837.264	-55.79
837.435	-94.37
837.606	-85.65
837.777	-30.97
837.949	-15.41
838.12	-28.24
838.291	9.72
838.462	21.05
838.633	1.43
838.805	-20.38
838.976	11.97
839.147	4.71
839.318	-27.95
839.489	-55.62
839.66	-17.84
839.831	-0.09
840.002	-11.66
840.173	-29.74
840.344	-12.22
840.515	-5.05
840.686	-26.62
840.857	-38.28
841.028	-27.14
841.199	5.01
841.369	-56.9
841.54	-119.81
841.711	-36.68
841.882	-24.73
842.053	-53.36
842.223	-67.19
842.394	-10.44
842.565	-12.99
842.736	6.99
842.906	4.33
843.077	44.65
843.248	57.49
843.418	41.19
843.589	30.09
843.759	76.63
843.93	71.4
844.101	41.55
844.271	48.8
844.442	82.13
844.612	76.63
844.783	41.42
844.953	12.97
845.123	26
845.294	1.54
845.464	-44.71
845.635	-12.87
845.805	27.82
845.975	35.13
846.146	-1.84
846.316	-5.45
846.486	2.29
846.656	-6.63
846.827	-56.09
846.997	-29.06
847.167	11.95
847.337	2.13
847.507	0.36
847.677	-5.51
847.848	26.97
848.018	28.75
848.188	33.04
848.358	18.61
848.528	39.51
848.698	14.8
848.868	-21.75
849.038	-36.15
849.208	-12.6
849.378	15.41
849.548	-26.38
849.718	5.89
849.887	52.09
850.057	-53.1
850.227	-103.2
850.397	-73.98
850.567	-78.4
850.737	-66.03
850.906	-69.92
851.076	-96.92
851.246	-104.57
851.415	-49.58
851.585	-40.2
851.755	-20.36
851.924	17.85
852.094	40.44
852.264	4.91
852.433	-48.25
852.603	-32.04
852.772	-12.86
852.942	-47.02
853.111	-67.4
853.281	12.32
853.45	26.36
853.62	-23.66
853.789	-70.25
853.959	-13.24
854.128	-60.47
854.297	-120.75
854.467	-137.1
854.636	-57.97
854.805	-56.97
854.975	-65.2
855.144	-34.78
855.313	45.05
855.482	4.58
855.652	-27.08
855.821	-21.15
855.99	23.18
856.159	3.63
856.328	-5
856.497	-6.18
856.667	-9.94
856.836	-45.06
857.005	-121.66
857.174	-208.02
857.343	-188.97
857.512	-56.44
857.681	-147.89
857.85	-126.73
858.019	-75.74
858.188	-74.83
858.356	-148.26
858.525	-134.84
858.694	-109.17
858.863	-92.01
859.032	-123.95
859.201	-106.08
859.369	-50.89
859.538	-39.54
859.707	-81.95
859.876	-74.68
860.044	-58.87
860.213	-44.7
860.382	-74.36
860.55	-28.62
860.719	32.35
860.888	49.05
861.056	3.32
861.225	9.57
861.393	41.56
861.562	54.22
861.73	-3.11
861.899	5.71
862.067	-28.23
862.236	-12.9
862.404	-93.42
862.572	-109.59
862.741	-57.1
862.909	-38.04
863.078	-66.28
863.246	-61.18
863.414	-16.96
863.582	-57.19
863.751	-80.62
863.919	-87.86
864.087	-18.13
864.255	-29.18
864.424	-78.18
864.592	-39.79
864.76	-6.96
864.928	5.05
865.096	-4.42
865.264	12.02
865.432	7.31
865.6	21.28
865.768	-102.18
865.936	-203.74
866.104	-135.48
866.272	-191.55
866.44	-199.05
866.608	-200.56
866.776	-240.16
866.944	-419.46
867.112	-509.23
867.28	-702.13
867.448	-1152.3
867.615	-311.47
867.783	2.86
867.951	-45.52
868.119	52.79
868.286	22.03
868.454	-53.74
868.622	-131.21
868.789	-97.03
868.957	-44.19
869.125	-71.45
869.292	-55.68
869.46	-29.59
869.627	3.21
869.795	-70.19
869.963	-63.13
870.13	-10.19
870.298	-8.39
870.465	-82.45
870.632	-87.08
870.8	-92.42
870.967	-122.73
871.135	-241.89
871.302	-128.41
871.469	-32.75
871.637	0.19
871.804	8.43
871.971	6.07
872.139	-11.05
872.306	11.5
872.473	-16.71
872.64	-70.34
872.807	-18.55
872.975	8.3
873.142	-76.04
873.309	-61.78
873.476	63.88
873.643	67.43
873.81	35.45
873.977	35.49
874.144	37.22
874.311	13.52
874.478	-84.61
874.645	-148.51
874.812	-515.76
874.979	25052.38
875.146	-764.38
875.313	-212.94
875.48	-62.32
875.647	-39.91
875.813	-92.39
875.98	-109.54
876.147	-202.67
876.314	-202.65
876.481	-268.56
876.647	-311.1
876.814	-178.83
876.981	-86.35
877.147	-190.28
877.314	-151.92
877.481	0.37
877.647	68.32
877.814	-8.57
877.98	-51.81
878.147	78.34
878.314	84.87
878.48	-28.28
878.647	-21.63
878.813	71.93
878.979	51.38
879.146	-7.41
879.312	38.92
879.479	41.32
879.645	15.06
879.811	-61.68
879.978	-32.11
880.144	-42.28
880.31	-63.13
880.477	-146.38
880.643	-150.02
880.809	-77.05
880.975	-26.78
881.142	-68.44
881.308	-49.82
881.474	16.52
881.64	4.71
881.806	-57.97
881.972	-19.88
882.138	0.98
882.304	30.43
882.47	-83.35
882.636	-163.9
882.802	-180.28
882.968	-80.08
883.134	-251.13
883.3	-301.1
883.466	-4.68
883.632	52.89
883.798	-50.1
883.964	-44.41
884.129	-46.7
884.295	-86.7
884.461	-121.44
884.627	-152.97
884.793	-80.82
884.958	-10.46
885.124	-81.88
885.29	-98.51
885.455	-44.23
885.621	-39.17
885.787	-225.43
885.952	-90.5
886.118	-95.61
886.283	-62.31
886.449	-145.37
886.614	-90.79
886.78	-123.55
886.945	-81.91
887.111	-284.54
887.276	-265.64
887.442	-486.74
887.607	-230.9
887.773	-385.84
887.938	-293.78
888.103	-137.2
888.269	-54.76
888.434	-47.14
888.599	-36.33
888.764	53.74
888.93	40.19
889.095	-0.45
889.26	-26.67
889.425	28.66
889.59	20.69
889.756	-23.53
889.921	-17.96
890.086	23.28
890.251	16.82
890.416	-66.65
890.581	-61.89
890.746	14.06
890.911	8.06
891.076	-48.89
891.241	-73.05
891.406	-21.63
891.571	-26.58
891.736	-72.55
891.901	-121.24
892.065	-59.51
892.23	-50.06
892.395	-164.76
892.56	-213.72
892.725	-38.22
892.889	-25.97
893.054	-129.42
893.219	-118.07
893.384	-109.98
893.548	-200.73
893.713	-264.49
893.878	-225.3
