Data from Ofra_PP_Phys_2CX12B_Reflection_1.txt Node
Date: Sat Jul 24 20:07:25 EDT 2021
User: USUARIO
Spectrometer: FLMT01687
Trigger mode: 0
Integration Time (sec): 1.100000E0
Scans to average: 2
Electric dark correction enabled: true
Nonlinearity correction enabled: false
Boxcar width: 2
XAxis mode: Wavelengths
Number of Pixels in Spectrum: 3648
>>>>>Begin Spectral Data<<<<<
179.494	599.04
179.716	766.14
179.937	1282.49
180.158	1077.37
180.38	518.29
180.601	-577.37
180.823	72.41
181.044	182.17
181.265	-15.13
181.486	34.86
181.708	110.77
181.929	-1545.33
182.15	272.69
182.372	-35.33
182.593	18966.67
182.814	-132.82
183.035	177.5
183.257	93.15
183.478	37.56
183.699	27.61
183.92	4.4
184.141	23.62
184.363	-34.57
184.584	37.33
184.805	36.06
185.026	58.32
185.247	42.54
185.468	25.64
185.689	7.65
185.91	4.76
186.132	-7.18
186.353	-9.91
186.574	17.96
186.795	6.56
187.016	-51.86
187.237	-41.97
187.458	-51.82
187.679	-62
187.9	27.29
188.121	72.49
188.342	83.55
188.563	101.89
188.784	101.46
189.005	116.74
189.226	116.1
189.447	104.92
189.667	93.18
189.888	60.3
190.109	17.96
190.33	-10.03
190.551	-42.66
190.772	-58.18
190.993	-62.17
191.214	-50.11
191.434	-46.55
191.655	26.32
191.876	24.19
192.097	2.65
192.318	9.85
192.538	-12.9
192.759	-26.35
192.98	-22.36
193.201	-11.14
193.421	-47.47
193.642	6.28
193.863	-14.7
194.083	-13.99
194.304	-10.31
194.525	18.53
194.745	-2.88
194.966	-43.34
195.187	-81.11
195.407	-114.62
195.628	-147.89
195.848	-143.82
196.069	-123.67
196.29	-98.74
196.51	-143.95
196.731	-157.87
196.951	-116.06
197.172	-87.59
197.392	-68.54
197.613	-28.74
197.833	-14.25
198.054	-44.48
198.274	-28.49
198.495	-74.02
198.715	-39.91
198.936	-50.4
199.156	-13.97
199.377	-42.01
199.597	-31.54
199.817	-40.36
200.038	13.58
200.258	24.67
200.479	60.32
200.699	66.22
200.919	67.73
201.14	9.61
201.36	-4.18
201.58	6.81
201.801	29.66
202.021	10.56
202.241	40.75
202.461	-0.17
202.682	-28.95
202.902	-23.35
203.122	-14.43
203.342	1.54
203.563	44.07
203.783	66.91
204.003	5.38
204.223	-51.99
204.443	-2.3
204.663	-19.56
204.884	-74.63
205.104	-38.07
205.324	25.17
205.544	7.68
205.764	2.52
205.984	44.89
206.204	50.3
206.424	47.58
206.644	14.55
206.864	50.78
207.084	27.73
207.304	52.8
207.525	-4.91
207.745	8.72
207.964	-23.98
208.184	-24.18
208.404	-48.82
208.624	-39.23
208.844	-16.67
209.064	-37.63
209.284	-34.73
209.504	-6.46
209.724	16.56
209.944	1.61
210.164	28.47
210.384	53.34
210.604	42.46
210.823	-5.08
211.043	-53.84
211.263	-41.73
211.483	-68.29
211.703	-76.4
211.922	-31.04
212.142	30.72
212.362	35.86
212.582	11.89
212.801	21
213.021	-14.68
213.241	-9.14
213.461	-40.07
213.68	-52.38
213.9	-50.19
214.12	-24.15
214.339	-57.8
214.559	-39.08
214.779	3.6
214.998	-0.94
215.218	-11.83
215.438	-11.82
215.657	-42.08
215.877	-11.22
216.096	-9.82
216.316	21.4
216.535	29.96
216.755	41.39
216.974	12.68
217.194	22.65
217.413	7.27
217.633	-6.35
217.852	-68.24
218.072	-51.92
218.291	-73.73
218.511	-54.39
218.73	-106.84
218.95	-86.55
219.169	-81.13
219.389	-98.14
219.608	-117.91
219.827	-41.11
220.047	-11.87
220.266	-14.74
220.485	-21.78
220.705	4.64
220.924	-49.16
221.143	-30.21
221.363	-82.06
221.582	-32.06
221.801	-24.44
222.021	12.17
222.24	21.04
222.459	73.71
222.678	54.12
222.897	35.16
223.117	35.49
223.336	33.18
223.555	32.91
223.774	71.98
223.993	102.89
224.213	160.79
224.432	100.48
224.651	105.41
224.87	68.36
225.089	72.63
225.308	37.57
225.527	54.27
225.746	44.47
225.965	26.64
226.184	-6.66
226.404	15.94
226.623	-4.73
226.842	-0.76
227.061	38.64
227.28	61.48
227.499	72.31
227.718	100.03
227.936	80.2
228.155	64.35
228.374	6.92
228.593	-23.25
228.812	-29.4
229.031	-7.46
229.25	-38.98
229.469	4.48
229.688	10.51
229.907	21.95
230.125	25.38
230.344	41.73
230.563	44.42
230.782	72.26
231.001	12.62
231.22	18.9
231.438	16.76
231.657	12.8
231.876	5
232.095	41.93
232.313	48.52
232.532	38.16
232.751	41.15
232.969	22.62
233.188	29.03
233.407	10.83
233.625	14.82
233.844	-4.55
234.063	-1.75
234.281	22.99
234.5	49.83
234.719	63.52
234.937	61.75
235.156	60.89
235.374	42.01
235.593	41.7
235.811	35.82
236.03	45.34
236.249	25.83
236.467	39.9
236.686	-0.32
236.904	13.42
237.123	-61.49
237.341	-32.34
237.559	-53.15
237.778	-23.79
237.996	-42.03
238.215	12.19
238.433	11.12
238.652	26.92
238.87	-23.55
239.088	5.52
239.307	2.87
239.525	-2.38
239.743	-33.06
239.962	6.13
240.18	-35.08
240.398	-71.5
240.617	-82.88
240.835	-49.05
241.053	-72.95
241.271	-36.82
241.49	2.19
241.708	1.17
241.926	2.52
242.144	8.78
242.363	-9
242.581	-6.18
242.799	17.65
243.017	7.5
243.235	-29.03
243.453	12.37
243.672	-31.83
243.89	-27.36
244.108	-19.63
244.326	17.42
244.544	9.35
244.762	11.5
244.98	16.55
245.198	27.26
245.416	-0.94
245.634	-7.07
245.852	9.23
246.07	-16.78
246.288	-25.76
246.506	-12.15
246.724	14.92
246.942	13.12
247.16	25.74
247.378	31.41
247.596	37.69
247.814	20.23
248.032	-24.21
248.25	-30.75
248.468	-33.05
248.685	-17.4
248.903	-10.51
249.121	8.3
249.339	-10.95
249.557	-24.55
249.775	-51.77
249.992	-104.71
250.21	-110.72
250.428	-81.75
250.646	-60.13
250.863	-45.89
251.081	-20.46
251.299	17.35
251.517	25.54
251.734	31.64
251.952	17.58
252.17	30.68
252.387	34.82
252.605	5.95
252.823	4.64
253.04	27.08
253.258	25.81
253.475	16.57
253.693	61.51
253.911	59.26
254.128	67.53
254.346	60.69
254.563	42.77
254.781	12.41
254.998	13.08
255.216	-12.51
255.433	-9.46
255.651	14.09
255.868	34.22
256.086	28.05
256.303	32.89
256.521	29.65
256.738	6.47
256.956	-24.66
257.173	-15.19
257.39	-16.02
257.608	-6.23
257.825	8.34
258.043	26.16
258.26	32.46
258.477	28.07
258.695	30.41
258.912	-5.16
259.129	-12.45
259.346	-51.6
259.564	-44.76
259.781	-29.08
259.998	-7.68
260.216	26.91
260.433	58.96
260.65	49.85
260.867	49.28
261.084	28.72
261.302	8.58
261.519	12.15
261.736	-5.4
261.953	-11.84
262.17	17.04
262.387	19.27
262.604	10.42
262.822	23.95
263.039	23.42
263.256	4.44
263.473	18.55
263.69	-10.21
263.907	12.98
264.124	21.38
264.341	51.64
264.558	30.63
264.775	30.14
264.992	29.49
265.209	28.4
265.426	24.22
265.643	14.15
265.86	35.95
266.077	36.86
266.294	32.5
266.51	20.25
266.727	21.22
266.944	30.73
267.161	0.06
267.378	10.98
267.595	14.75
267.812	-25.14
268.028	-33.47
268.245	-19.99
268.462	-47.95
268.679	-43.01
268.896	7.59
269.112	6.84
269.329	-0.51
269.546	10.33
269.763	9.59
269.979	7.4
270.196	-0.25
270.413	10.01
270.629	11
270.846	0.54
271.063	14.55
271.279	0.5
271.496	-32.75
271.712	-42.79
271.929	-30.6
272.146	-32.99
272.362	-27.59
272.579	33.55
272.795	41.49
273.012	52.76
273.228	34.74
273.445	18.13
273.661	-31.47
273.878	-89.38
274.094	-92.61
274.311	-93.35
274.527	-34.18
274.744	-4.68
274.96	48.1
275.177	40.33
275.393	40.13
275.609	48.53
275.826	45.23
276.042	19.16
276.259	25.05
276.475	16.62
276.691	-8.58
276.908	-12.35
277.124	34.95
277.34	22.63
277.557	22.98
277.773	34.81
277.989	30.53
278.205	14.97
278.422	12.99
278.638	38.63
278.854	37.65
279.07	33.24
279.286	-10.82
279.503	-3.8
279.719	-19.75
279.935	-32.98
280.151	-46.09
280.367	4.53
280.583	11.25
280.799	1.91
281.016	7.36
281.232	21
281.448	15.88
281.664	21.38
281.88	12.9
282.096	17.14
282.312	31.08
282.528	32.1
282.744	31.15
282.96	47.49
283.176	44.19
283.392	34.48
283.608	30.45
283.824	19.43
284.04	8.26
284.256	26.86
284.471	17.4
284.687	13.88
284.903	21.45
285.119	57.78
285.335	18.74
285.551	33.28
285.767	30.39
285.982	16.18
286.198	-21.27
286.414	17.3
286.63	8.06
286.846	26.37
287.061	14.42
287.277	17.76
287.493	12.32
287.709	20.81
287.924	4.07
288.14	34.41
288.356	41.75
288.571	45.43
288.787	42.08
289.003	47.44
289.218	39.01
289.434	10.38
289.65	19.86
289.865	18.95
290.081	26.86
290.296	20.04
290.512	16.9
290.727	19.83
290.943	8.41
291.159	-0.4
291.374	14.15
291.59	13.73
291.805	-5.53
292.021	16.23
292.236	20.08
292.451	1.49
292.667	15.86
292.882	28.63
293.098	27.5
293.313	11.79
293.529	4.47
293.744	-4.49
293.959	-36.05
294.175	-27.93
294.39	1.99
294.605	18.43
294.821	28.6
295.036	29.74
295.251	31.81
295.467	21.92
295.682	19.18
295.897	-1.23
296.112	0.16
296.328	-7.79
296.543	-8.47
296.758	-24.52
296.973	17.86
297.188	52.29
297.404	22.04
297.619	11.86
297.834	25.91
298.049	15.31
298.264	-4.53
298.479	32.47
298.694	44.29
298.909	53.76
299.125	51.29
299.34	55.2
299.555	27.05
299.77	36.74
299.985	-23.21
300.2	-51.2
300.415	-78.26
300.63	-37.31
300.845	-38
301.06	-19.17
301.275	-4.66
301.49	8.44
301.704	-19.09
301.919	-63.18
302.134	-73.81
302.349	-29
302.564	-37.96
302.779	-25.08
302.994	19.65
303.209	24.8
303.423	5.16
303.638	38.78
303.853	34.01
304.068	-1.9
304.283	17.55
304.497	12.15
304.712	5.35
304.927	15.97
305.142	14.71
305.356	10.2
305.571	11.64
305.786	-5.68
306	-24.97
306.215	-2.55
306.43	-22.67
306.644	-5.24
306.859	19
307.074	13.08
307.288	-15.34
307.503	7.93
307.717	-16.6
307.932	-17.72
308.147	-27.46
308.361	-2.56
308.576	-18.84
308.79	-51.26
309.005	-44.88
309.219	-9.37
309.434	-1.49
309.648	-23.97
309.863	16
310.077	15.61
310.292	-0.68
310.506	-22.37
310.72	22.46
310.935	25.37
311.149	26.68
311.364	34.19
311.578	51.61
311.792	36.99
312.007	35.68
312.221	-0.9
312.435	2.97
312.649	-27.56
312.864	8.57
313.078	-7.1
313.292	28.84
313.507	26.34
313.721	27.73
313.935	10.77
314.149	31.94
314.363	24.06
314.578	-2.18
314.792	-7.79
315.006	5.66
315.22	-1.97
315.434	-5.78
315.648	18.46
315.862	17.27
316.077	6.56
316.291	6.17
316.505	27.82
316.719	21.9
316.933	-2.79
317.147	18.21
317.361	-8.23
317.575	-6.89
317.789	-12.9
318.003	-8.56
318.217	-11.71
318.431	19.68
318.645	26.84
318.859	27.47
319.073	53.29
319.287	33.55
319.5	-5.38
319.714	-38.36
319.928	-44.61
320.142	-62.57
320.356	-13.63
320.57	12.87
320.784	7.42
320.997	18.31
321.211	16.78
321.425	-21.58
321.639	-57.38
321.853	-33.8
322.066	-37.07
322.28	-60.07
322.494	-38.79
322.707	26.2
322.921	22.76
323.135	23.88
323.349	50.91
323.562	37.61
323.776	3.37
323.989	1.23
324.203	-23.24
324.417	-39.64
324.63	-60.12
324.844	-73.69
325.057	-73.22
325.271	-71.52
325.485	-53.35
325.698	0.79
325.912	32.72
326.125	21.77
326.339	39.7
326.552	41.48
326.766	35.36
326.979	21.04
327.193	54.28
327.406	38.07
327.619	33.64
327.833	28.33
328.046	10.93
328.26	-13.28
328.473	-15.78
328.686	-26.55
328.9	-15.61
329.113	-1.21
329.326	-15.46
329.54	4.41
329.753	6.17
329.966	-19.63
330.179	11.95
330.393	35.51
330.606	18.96
330.819	41.82
331.032	52.35
331.246	42.68
331.459	53.05
331.672	46.52
331.885	20.48
332.098	0.61
332.311	7.17
332.525	-10.49
332.738	4.94
332.951	22.36
333.164	34.42
333.377	33.33
333.59	45.89
333.803	31.73
334.016	28.87
334.229	26.23
334.442	32.35
334.655	43.6
334.868	60.01
335.081	50.75
335.294	42.51
335.507	37.94
335.72	29.07
335.933	12.5
336.146	15.83
336.359	23.97
336.572	8.04
336.785	0.31
336.997	6.86
337.21	13.05
337.423	6.78
337.636	20.56
337.849	25.46
338.062	29.52
338.274	39.78
338.487	32.28
338.7	32.49
338.913	16.58
339.125	-5.32
339.338	-9.89
339.551	5.84
339.763	32.51
339.976	48.34
340.189	55.37
340.402	60.67
340.614	44.37
340.827	15.43
341.039	1.37
341.252	-14.86
341.465	-37.37
341.677	-43.81
341.89	-80.03
342.102	-59.09
342.315	-38.29
342.527	-49.34
342.74	-40.83
342.952	20.35
343.165	14.78
343.377	23.86
343.59	23
343.802	40.78
344.015	30.08
344.227	40.46
344.44	31.53
344.652	37.23
344.864	31.42
345.077	50.21
345.289	44.22
345.502	57.19
345.714	44.27
345.926	53.77
346.139	36.25
346.351	29.91
346.563	25.41
346.775	37.34
346.988	19.97
347.2	8.24
347.412	-13.31
347.624	-11.6
347.837	1.14
348.049	7.48
348.261	29.84
348.473	36.11
348.685	-0.37
348.897	-17.34
349.11	-28.49
349.322	-40.47
349.534	-10.03
349.746	7.8
349.958	17.51
350.17	30.43
350.382	46.08
350.594	40.8
350.806	51.03
351.018	38.5
351.23	26.17
351.442	10.03
351.654	4.47
351.866	-5.73
352.078	-12.11
352.29	-20.23
352.502	1.52
352.714	25.18
352.926	28.52
353.138	35.96
353.35	27.17
353.561	15.43
353.773	-4.39
353.985	3.16
354.197	6.25
354.409	6.95
354.621	7.66
354.832	20.79
355.044	10.94
355.256	-1.6
355.468	0.27
355.679	-2.24
355.891	0.92
356.103	-3.3
356.314	0.91
356.526	18.96
356.738	39.38
356.949	28.12
357.161	29.35
357.373	39.63
357.584	29.7
357.796	10.2
358.008	3.72
358.219	20.23
358.431	18.34
358.642	25.22
358.854	36.06
359.065	35.44
359.277	15.55
359.488	6.37
359.7	-13.24
359.911	-30.74
360.123	-27.18
360.334	-24.18
360.546	-21.76
360.757	-18.71
360.969	-11.66
361.18	1.06
361.391	8.39
361.603	0.21
361.814	17.75
362.025	12.09
362.237	-2.92
362.448	-3.31
362.659	21.18
362.871	21.78
363.082	24.71
363.293	32.58
363.504	29.64
363.716	8.97
363.927	11.54
364.138	3.05
364.349	-32.38
364.56	-32.45
364.772	-41.13
364.983	-28.35
365.194	-41.48
365.405	-10.26
365.616	-0.51
365.827	3.69
366.038	-10.89
366.25	12.35
366.461	-3.88
366.672	6.04
366.883	21.06
367.094	15.67
367.305	-6.31
367.516	16.85
367.727	-0.9
367.938	-20.2
368.149	-24.98
368.36	-0.13
368.571	-7.86
368.781	-12.38
368.992	-17.28
369.203	6.5
369.414	-9.22
369.625	-15.59
369.836	-5.78
370.047	-7.99
370.258	-28.56
370.468	-25.79
370.679	-59.49
370.89	-51.91
371.101	-24.98
371.312	-37.29
371.522	-32.96
371.733	-5.42
371.944	-7.91
372.155	-2.41
372.365	-14.63
372.576	-2.11
372.787	5.15
372.997	-3.67
373.208	-5.89
373.419	17.31
373.629	-14.27
373.84	-18.69
374.05	-30.74
374.261	-14.87
374.472	-28.83
374.682	-0.18
374.893	-1.33
375.103	29.2
375.314	16.24
375.524	21.53
375.735	27.21
375.945	28.07
376.156	3.81
376.366	14.5
376.577	22.76
376.787	10.11
376.997	17.38
377.208	23.99
377.418	-6.17
377.629	-6.92
377.839	-10.31
378.049	-16.25
378.26	-1.16
378.47	25.54
378.68	21.37
378.89	27.6
379.101	30.77
379.311	3.33
379.521	-18.85
379.732	-13.83
379.942	-35.7
380.152	-29.46
380.362	-20.59
380.572	-14.49
380.783	-1.83
380.993	16.22
381.203	15.97
381.413	25.27
381.623	28.33
381.833	24.52
382.043	1.93
382.253	0.7
382.463	1.11
382.674	-0.29
382.884	-17.11
383.094	-5.81
383.304	-7.65
383.514	-3.72
383.724	3.37
383.934	1.29
384.144	-7.67
384.353	-3.02
384.563	-1.02
384.773	-1.23
384.983	7.1
385.193	12.57
385.403	0.85
385.613	0.14
385.823	-2.47
386.033	2.41
386.242	3.76
386.452	11.52
386.662	4.06
386.872	9.91
387.082	9.07
387.291	0.02
387.501	2.7
387.711	6.28
387.921	-7.18
388.13	-5.99
388.34	5.28
388.55	1.12
388.759	3.14
388.969	12.14
389.179	9.18
389.388	4.31
389.598	2.75
389.807	-0.76
390.017	-2.45
390.227	-2.35
390.436	-2.79
390.646	4.78
390.855	6.69
391.065	6.13
391.274	3.38
391.484	1.14
391.693	-2.17
391.903	-0.05
392.112	1.99
392.322	5.75
392.531	10.06
392.74	9.91
392.95	5.23
393.159	4.96
393.369	6.59
393.578	3.28
393.787	2.99
393.997	6.37
394.206	5.05
394.415	4.79
394.625	5.94
394.834	4.42
395.043	2.98
395.252	4.87
395.462	5.09
395.671	6.71
395.88	8.82
396.089	9.92
396.298	8.89
396.508	8.18
396.717	7.52
396.926	6.88
397.135	6.3
397.344	5.92
397.553	6.57
397.762	6.85
397.971	6.71
398.181	6.73
398.39	5.39
398.599	4.68
398.808	4.39
399.017	5.04
399.226	5.29
399.435	6.91
399.644	6.95
399.853	6.57
400.062	5.87
400.27	5.91
400.479	5.4
400.688	4.91
400.897	5.39
401.106	5.49
401.315	4.85
401.524	4.91
401.733	5.37
401.941	5.75
402.15	5.77
402.359	5.85
402.568	6.02
402.777	5.95
402.985	5.47
403.194	5.52
403.403	5.65
403.612	5.37
403.82	5.48
404.029	5.47
404.238	5.13
404.446	5.26
404.655	5.12
404.864	4.97
405.072	4.81
405.281	5.23
405.489	4.81
405.698	4.89
405.906	4.95
406.115	4.9
406.324	4.65
406.532	4.78
406.741	4.98
406.949	4.71
407.158	4.7
407.366	4.79
407.574	5.03
407.783	4.94
407.991	5
408.2	5.11
408.408	5
408.617	4.66
408.825	4.46
409.033	4.6
409.242	4.61
409.45	4.65
409.658	4.67
409.867	4.8
410.075	4.68
410.283	4.56
410.491	4.58
410.7	4.56
410.908	4.58
411.116	4.57
411.324	4.64
411.533	4.54
411.741	4.62
411.949	4.61
412.157	4.49
412.365	4.5
412.573	4.5
412.781	4.55
412.99	4.43
413.198	4.65
413.406	4.63
413.614	4.73
413.822	4.59
414.03	4.54
414.238	4.29
414.446	4.34
414.654	4.06
414.862	4.16
415.07	4.26
415.278	4.5
415.486	4.05
415.694	4.25
415.902	4.25
416.109	4.09
416.317	4.06
416.525	4.05
416.733	4
416.941	4.06
417.149	4.13
417.357	4.13
417.564	4.53
417.772	4.48
417.98	4.43
418.188	4.44
418.395	4.3
418.603	4.24
418.811	4.1
419.019	3.97
419.226	4.14
419.434	4.31
419.642	4.14
419.849	4.21
420.057	4.4
420.265	4.36
420.472	4.15
420.68	4.3
420.887	4.2
421.095	4.14
421.302	4.01
421.51	4.18
421.717	4.24
421.925	4.34
422.132	4.24
422.34	4.07
422.547	3.99
422.755	3.92
422.962	3.99
423.17	4.04
423.377	4.21
423.585	4.29
423.792	4.16
423.999	4.12
424.207	4.03
424.414	4.11
424.621	4.12
424.829	4.06
425.036	4.13
425.243	4.03
425.451	3.83
425.658	3.59
425.865	3.68
426.072	3.62
426.28	3.72
426.487	3.62
426.694	3.65
426.901	3.74
427.108	3.67
427.315	3.67
427.523	3.98
427.73	4.07
427.937	3.68
428.144	3.61
428.351	3.62
428.558	3.62
428.765	3.56
428.972	3.67
429.179	3.8
429.386	3.91
429.593	3.68
429.8	3.5
430.007	3.66
430.214	3.71
430.421	3.66
430.628	3.53
430.835	3.46
431.042	3.64
431.249	3.6
431.456	3.74
431.662	4.14
431.869	4.45
432.076	4.38
432.283	4.31
432.49	4.2
432.697	4.03
432.903	3.68
433.11	3.58
433.317	3.71
433.524	3.8
433.73	3.67
433.937	4.06
434.144	3.98
434.35	3.99
434.557	3.86
434.764	3.91
434.97	3.88
435.177	4.07
435.384	3.77
435.59	3.84
435.797	4.04
436.003	3.94
436.21	3.82
436.416	3.97
436.623	3.85
436.829	3.76
437.036	3.73
437.242	3.72
437.449	3.82
437.655	3.76
437.862	3.78
438.068	3.9
438.275	4.04
438.481	4.06
438.687	4.1
438.894	4.06
439.1	3.92
439.307	3.99
439.513	3.87
439.719	3.93
439.926	3.86
440.132	3.85
440.338	3.64
440.544	3.71
440.751	3.64
440.957	3.8
441.163	3.6
441.369	3.65
441.575	3.48
441.782	3.45
441.988	3.21
442.194	3.39
442.4	3.33
442.606	3.6
442.812	3.7
443.018	3.85
443.224	3.85
443.431	4
443.637	3.77
443.843	3.6
444.049	3.6
444.255	3.63
444.461	3.52
444.667	3.48
444.873	3.68
445.079	3.7
445.284	3.71
445.49	3.59
445.696	3.52
445.902	3.38
446.108	3.36
446.314	3.23
446.52	3.46
446.726	3.72
446.931	3.67
447.137	3.73
447.343	3.97
447.549	3.66
447.755	3.58
447.96	3.69
448.166	3.6
448.372	3.61
448.578	3.69
448.783	3.67
448.989	3.78
449.195	3.83
449.4	3.59
449.606	3.6
449.812	3.58
450.017	3.57
450.223	3.52
450.428	3.46
450.634	3.53
450.84	3.6
451.045	3.41
451.251	3.29
451.456	3.49
451.662	3.58
451.867	3.55
452.073	3.53
452.278	3.68
452.483	3.74
452.689	3.7
452.894	3.79
453.1	3.92
453.305	3.72
453.51	3.61
453.716	3.47
453.921	3.38
454.127	3.3
454.332	3.37
454.537	3.28
454.742	3.39
454.948	3.4
455.153	3.29
455.358	3.34
455.563	3.48
455.769	3.49
455.974	3.49
456.179	3.48
456.384	3.4
456.589	3.36
456.795	3.21
457	3.13
457.205	3.39
457.41	3.37
457.615	3.35
457.82	3.57
458.025	3.64
458.23	3.43
458.435	3.52
458.64	3.37
458.845	3.29
459.05	3.23
459.255	3.14
459.46	3.15
459.665	3.19
459.87	3.21
460.075	3.1
460.28	3.28
460.485	3.39
460.69	3.46
460.895	3.22
461.099	3.23
461.304	3.29
461.509	3.19
461.714	3
461.919	3.17
462.123	3.13
462.328	3.14
462.533	2.98
462.738	3.14
462.942	3.13
463.147	3.31
463.352	3.28
463.556	3.35
463.761	3.32
463.966	3.43
464.17	3.47
464.375	3.38
464.58	3.33
464.784	3.29
464.989	3.05
465.193	2.98
465.398	2.97
465.602	3.19
465.807	3.13
466.011	3.35
466.216	3.43
466.42	3.55
466.625	3.45
466.829	3.61
467.034	3.6
467.238	3.65
467.443	3.64
467.647	3.49
467.851	3.49
468.056	3.55
468.26	3.44
468.464	3.33
468.669	3.47
468.873	3.52
469.077	3.44
469.282	3.43
469.486	3.64
469.69	3.62
469.894	3.61
470.099	3.67
470.303	3.66
470.507	3.42
470.711	3.39
470.915	3.29
471.119	3.26
471.324	3.27
471.528	3.28
471.732	3.33
471.936	3.38
472.14	3.51
472.344	3.53
472.548	3.65
472.752	3.71
472.956	3.83
473.16	3.62
473.364	3.49
473.568	3.53
473.772	3.51
473.976	3.5
474.18	3.54
474.384	3.55
474.588	3.39
474.792	3.26
474.995	3.19
475.199	3.26
475.403	3.43
475.607	3.45
475.811	3.48
476.015	3.49
476.218	3.47
476.422	3.36
476.626	3.47
476.83	3.55
477.033	3.45
477.237	3.35
477.441	3.4
477.644	3.31
477.848	3.32
478.052	3.28
478.255	3.27
478.459	3.27
478.663	3.44
478.866	3.43
479.07	3.52
479.273	3.74
479.477	3.77
479.681	3.66
479.884	3.59
480.088	3.55
480.291	3.4
480.495	3.33
480.698	3.33
480.901	3.48
481.105	3.59
481.308	3.57
481.512	3.53
481.715	3.59
481.919	3.53
482.122	3.44
482.325	3.42
482.529	3.49
482.732	3.45
482.935	3.34
483.138	3.31
483.342	3.46
483.545	3.55
483.748	3.59
483.952	3.71
484.155	3.9
484.358	3.87
484.561	3.77
484.764	3.83
484.967	3.89
485.171	3.86
485.374	3.72
485.577	3.81
485.78	3.74
485.983	3.64
486.186	3.6
486.389	3.6
486.592	3.57
486.795	3.63
486.998	3.65
487.201	3.71
487.404	3.84
487.607	3.9
487.81	3.86
488.013	3.88
488.216	3.92
488.419	4
488.622	3.81
488.825	3.81
489.028	3.87
489.231	3.8
489.433	3.66
489.636	3.74
489.839	3.68
490.042	3.55
490.245	3.53
490.447	3.68
490.65	3.7
490.853	3.84
491.056	3.96
491.258	3.99
491.461	3.96
491.664	4.04
491.866	3.86
492.069	3.89
492.272	3.9
492.474	3.93
492.677	3.92
492.879	4.12
493.082	4.16
493.285	4.28
493.487	4.16
493.69	4.09
493.892	3.96
494.095	3.93
494.297	3.85
494.5	4.02
494.702	4.12
494.905	4.26
495.107	4.33
495.309	4.41
495.512	4.37
495.714	4.48
495.917	4.56
496.119	4.54
496.321	4.61
496.524	4.69
496.726	4.69
496.928	4.69
497.13	4.68
497.333	4.72
497.535	4.8
497.737	4.69
497.939	4.64
498.142	4.77
498.344	4.62
498.546	4.47
498.748	4.62
498.95	4.69
499.152	4.61
499.355	4.75
499.557	4.84
499.759	4.88
499.961	4.84
500.163	4.94
500.365	4.95
500.567	4.98
500.769	4.86
500.971	4.96
501.173	4.81
501.375	4.84
501.577	4.78
501.779	4.88
501.981	4.83
502.183	4.9
502.385	4.82
502.587	4.86
502.788	4.93
502.99	4.97
503.192	5.02
503.394	5.06
503.596	5.05
503.798	5.08
503.999	5.13
504.201	5.11
504.403	5.24
504.605	5.31
504.806	5.18
505.008	5.06
505.21	5.09
505.411	5
505.613	4.89
505.815	5.03
506.016	5.19
506.218	5.27
506.42	5.22
506.621	5.25
506.823	5.23
507.024	5.21
507.226	5.15
507.427	5.12
507.629	5.21
507.83	5.14
508.032	5
508.233	5.04
508.435	5.09
508.636	5.09
508.838	5.01
509.039	5.05
509.24	5.05
509.442	5.05
509.643	4.93
509.845	5.01
510.046	5.04
510.247	4.99
510.448	5.05
510.65	5.12
510.851	5.23
511.052	5.24
511.254	5.12
511.455	5.17
511.656	5.19
511.857	5.14
512.058	5.08
512.26	5.21
512.461	5.06
512.662	5.11
512.863	4.96
513.064	4.92
513.265	4.98
513.466	5.06
513.667	5
513.868	5.16
514.069	5.29
514.27	5.31
514.471	5.23
514.672	5.28
514.873	5.28
515.074	5.28
515.275	5.14
515.476	5.19
515.677	5.18
515.878	5.17
516.079	5.08
516.28	5.17
516.481	5.3
516.682	5.33
516.882	5.31
517.083	5.39
517.284	5.26
517.485	5.19
517.686	5.14
517.886	5.14
518.087	5.16
518.288	5.33
518.488	5.26
518.689	5.25
518.89	5.15
519.091	5.16
519.291	5.07
519.492	5.13
519.692	5.18
519.893	5.37
520.094	5.36
520.294	5.33
520.495	5.32
520.695	5.32
520.896	5.2
521.096	5.23
521.297	5.31
521.497	5.38
521.698	5.34
521.898	5.33
522.099	5.29
522.299	5.35
522.499	5.29
522.7	5.38
522.9	5.4
523.101	5.47
523.301	5.42
523.501	5.39
523.702	5.34
523.902	5.47
524.102	5.51
524.302	5.52
524.503	5.57
524.703	5.62
524.903	5.5
525.103	5.42
525.304	5.44
525.504	5.51
525.704	5.51
525.904	5.54
526.104	5.57
526.304	5.56
526.504	5.55
526.705	5.58
526.905	5.67
527.105	5.69
527.305	5.69
527.505	5.65
527.705	5.61
527.905	5.58
528.105	5.58
528.305	5.48
528.505	5.51
528.705	5.59
528.905	5.52
529.105	5.52
529.304	5.69
529.504	5.77
529.704	5.68
529.904	5.72
530.104	5.75
530.304	5.77
530.503	5.7
530.703	5.69
530.903	5.72
531.103	5.75
531.303	5.66
531.502	5.71
531.702	5.79
531.902	5.86
532.101	5.8
532.301	5.82
532.501	5.81
532.7	5.86
532.9	5.76
533.1	5.79
533.299	5.72
533.499	5.79
533.698	5.68
533.898	5.7
534.097	5.73
534.297	5.89
534.496	5.89
534.696	5.97
534.895	6.06
535.095	6.06
535.294	6.06
535.494	5.92
535.693	5.9
535.892	5.91
536.092	5.92
536.291	5.92
536.491	6.02
536.69	6.1
536.889	5.96
537.088	5.96
537.288	6.01
537.487	6.08
537.686	6.06
537.886	6.23
538.085	6.27
538.284	6.33
538.483	6.24
538.682	6.32
538.882	6.37
539.081	6.47
539.28	6.36
539.479	6.43
539.678	6.4
539.877	6.38
540.076	6.36
540.275	6.52
540.474	6.55
540.673	6.56
540.872	6.58
541.071	6.58
541.27	6.5
541.469	6.56
541.668	6.59
541.867	6.58
542.066	6.67
542.265	6.77
542.464	6.71
542.663	6.78
542.862	6.91
543.06	6.88
543.259	6.85
543.458	6.96
543.657	6.96
543.856	6.99
544.054	7.01
544.253	7.02
544.452	6.93
544.651	6.95
544.849	6.88
545.048	6.92
545.247	6.96
545.445	7.1
545.644	7.09
545.843	7.06
546.041	7.12
546.24	7.26
546.438	7.31
546.637	7.38
546.836	7.54
547.034	7.58
547.233	7.65
547.431	7.62
547.63	7.71
547.828	7.64
548.027	7.67
548.225	7.58
548.423	7.68
548.622	7.69
548.82	7.71
549.019	7.72
549.217	7.86
549.415	7.92
549.614	8
549.812	8.04
550.01	8.04
550.209	8.05
550.407	8.05
550.605	8.11
550.803	8.18
551.002	8.28
551.2	8.25
551.398	8.41
551.596	8.45
551.794	8.56
551.993	8.66
552.191	8.75
552.389	8.77
552.587	8.81
552.785	8.88
552.983	8.9
553.181	9.08
553.379	9.09
553.577	9.06
553.775	9.17
553.973	9.19
554.171	9.22
554.369	9.22
554.567	9.26
554.765	9.21
554.963	9.34
555.161	9.34
555.359	9.55
555.557	9.75
555.755	9.83
555.952	9.96
556.15	10.02
556.348	10.09
556.546	10.21
556.744	10.26
556.941	10.28
557.139	10.35
557.337	10.36
557.535	10.34
557.732	10.52
557.93	10.63
558.128	10.74
558.325	10.89
558.523	10.91
558.721	10.99
558.918	10.95
559.116	10.98
559.313	10.96
559.511	11.16
559.708	11.18
559.906	11.29
560.104	11.39
560.301	11.56
560.498	11.63
560.696	11.69
560.893	11.83
561.091	11.88
561.288	11.94
561.486	12.03
561.683	12.13
561.88	12.29
562.078	12.39
562.275	12.39
562.473	12.43
562.67	12.62
562.867	12.64
563.064	12.76
563.262	12.85
563.459	12.98
563.656	13.03
563.853	13.06
564.051	13.08
564.248	13.22
564.445	13.3
564.642	13.37
564.839	13.43
565.036	13.69
565.234	13.91
565.431	13.96
565.628	14.07
565.825	14.19
566.022	14.21
566.219	14.13
566.416	14.15
566.613	14.16
566.81	14.33
567.007	14.29
567.204	14.34
567.401	14.44
567.598	14.46
567.795	14.39
567.991	14.48
568.188	14.68
568.385	14.75
568.582	14.85
568.779	15.02
568.976	15.2
569.172	15.23
569.369	15.28
569.566	15.33
569.763	15.3
569.96	15.32
570.156	15.28
570.353	15.27
570.55	15.36
570.746	15.62
570.943	15.57
571.14	15.72
571.336	15.84
571.533	15.88
571.729	15.76
571.926	15.84
572.123	15.76
572.319	15.75
572.516	15.74
572.712	15.77
572.909	15.83
573.105	16.03
573.302	16.1
573.498	16.24
573.695	16.22
573.891	16.29
574.087	16.23
574.284	16.14
574.48	16.02
574.677	16.15
574.873	16.16
575.069	16.32
575.266	16.5
575.462	16.49
575.658	16.5
575.854	16.54
576.051	16.47
576.247	16.48
576.443	16.52
576.639	16.51
576.835	16.47
577.032	16.42
577.228	16.44
577.424	16.52
577.62	16.46
577.816	16.49
578.012	16.46
578.208	16.38
578.404	16.37
578.6	16.44
578.796	16.4
578.993	16.48
579.189	16.47
579.384	16.39
579.58	16.24
579.776	16.32
579.972	16.19
580.168	16.13
580.364	16.16
580.56	16.24
580.756	16.1
580.952	16.12
581.148	16.17
581.343	16.21
581.539	16.22
581.735	16.22
581.931	16.28
582.127	16.27
582.322	16.16
582.518	16.16
582.714	16.16
582.909	16
583.105	16
583.301	15.98
583.496	15.97
583.692	15.83
583.888	15.93
584.083	15.93
584.279	16.01
584.474	16
584.67	16.16
584.866	16.19
585.061	16.1
585.257	16.14
585.452	16.08
585.648	15.94
585.843	15.9
586.039	15.85
586.234	15.7
586.429	15.61
586.625	15.72
586.82	15.6
587.015	15.65
587.211	15.6
587.406	15.71
587.601	15.6
587.797	15.59
587.992	15.55
588.187	15.69
588.383	15.73
588.578	15.81
588.773	15.83
588.968	15.96
589.163	15.94
589.359	15.8
589.554	15.76
589.749	15.9
589.944	15.83
590.139	15.79
590.334	15.86
590.529	15.95
590.724	15.83
590.919	15.87
591.114	15.88
591.309	15.95
591.504	15.91
591.699	15.87
591.894	15.82
592.089	15.78
592.284	15.77
592.479	15.83
592.674	15.86
592.869	15.93
593.064	16.1
593.259	16.1
593.454	16.09
593.648	16.11
593.843	16.15
594.038	16.1
594.233	15.99
594.428	16.03
594.622	16.09
594.817	16.14
595.012	16.14
595.206	16.32
595.401	16.39
595.596	16.42
595.79	16.46
595.985	16.65
596.18	16.65
596.374	16.65
596.569	16.66
596.763	16.52
596.958	16.48
597.153	16.5
597.347	16.62
597.542	16.81
597.736	16.92
597.931	17
598.125	17.1
598.319	17.22
598.514	17.2
598.708	17.25
598.903	17.21
599.097	17.23
599.291	17.13
599.486	17.03
599.68	16.97
599.874	17.1
600.069	17.1
600.263	17.09
600.457	17.23
600.651	17.39
600.846	17.28
601.04	17.33
601.234	17.3
601.428	17.4
601.622	17.45
601.817	17.58
602.011	17.59
602.205	17.73
602.399	17.61
602.593	17.56
602.787	17.5
602.981	17.54
603.175	17.51
603.369	17.48
603.563	17.57
603.757	17.62
603.951	17.58
604.145	17.6
604.339	17.7
604.533	17.51
604.727	17.46
604.921	17.41
605.115	17.34
605.309	17.32
605.502	17.34
605.696	17.22
605.89	17.14
606.084	17.15
606.278	17.11
606.471	17.04
606.665	16.97
606.859	17.02
607.053	16.98
607.246	16.91
607.44	16.89
607.634	16.96
607.827	16.86
608.021	16.67
608.214	16.56
608.408	16.48
608.602	16.39
608.795	16.4
608.989	16.46
609.182	16.41
609.376	16.47
609.569	16.45
609.763	16.38
609.956	16.3
610.15	16.25
610.343	16.1
610.537	16.05
610.73	16.04
610.923	15.94
611.117	15.89
611.31	15.86
611.504	15.81
611.697	15.66
611.89	15.6
612.083	15.49
612.277	15.51
612.47	15.43
612.663	15.33
612.856	15.27
613.05	15.33
613.243	15.12
613.436	14.93
613.629	14.93
613.822	14.8
614.015	14.64
614.209	14.53
614.402	14.59
614.595	14.5
614.788	14.51
614.981	14.45
615.174	14.39
615.367	14.21
615.56	14.08
615.753	14.03
615.946	13.9
616.139	14.04
616.332	14.17
616.525	14.24
616.718	14.22
616.911	14.21
617.103	14.17
617.296	14.1
617.489	13.95
617.682	13.9
617.875	13.95
618.067	13.85
618.26	13.68
618.453	13.74
618.646	13.78
618.838	13.67
619.031	13.64
619.224	13.68
619.417	13.6
619.609	13.51
619.802	13.5
619.994	13.53
620.187	13.59
620.38	13.57
620.572	13.47
620.765	13.42
620.957	13.27
621.15	13.07
621.342	13.11
621.535	13.25
621.727	13.22
621.92	13.22
622.112	13.25
622.305	13.19
622.497	12.98
622.69	12.98
622.882	12.92
623.074	12.92
623.267	12.94
623.459	12.95
623.651	12.87
623.844	12.89
624.036	12.83
624.228	12.68
624.42	12.71
624.613	12.81
624.805	12.8
624.997	12.75
625.189	12.77
625.381	12.76
625.574	12.67
625.766	12.54
625.958	12.59
626.15	12.66
626.342	12.62
626.534	12.62
626.726	12.66
626.918	12.64
627.11	12.51
627.302	12.46
627.494	12.36
627.686	12.31
627.878	12.19
628.07	12.11
628.262	12.06
628.454	12.12
628.646	12.17
628.838	12.27
629.029	12.2
629.221	12.21
629.413	11.99
629.605	11.84
629.797	11.7
629.989	11.77
630.18	11.8
630.372	11.92
630.564	11.95
630.755	11.98
630.947	12.02
631.139	11.89
631.33	11.84
631.522	11.93
631.714	11.88
631.905	11.71
632.097	11.7
632.289	11.67
632.48	11.57
632.672	11.43
632.863	11.3
633.055	11.31
633.246	11.3
633.438	11.21
633.629	11.23
633.821	11.35
634.012	11.33
634.203	11.22
634.395	11.15
634.586	11.21
634.777	11.11
634.969	10.95
635.16	11.05
635.351	11.08
635.543	11.02
635.734	11.07
635.925	11.15
636.117	11.15
636.308	11.06
636.499	11.02
636.69	10.89
636.881	10.84
637.073	10.85
637.264	10.85
637.455	10.8
637.646	10.96
637.837	11
638.028	10.8
638.219	10.82
638.41	10.81
638.601	10.65
638.792	10.53
638.983	10.54
639.174	10.37
639.365	10.36
639.556	10.4
639.747	10.41
639.938	10.38
640.129	10.53
640.32	10.42
640.511	10.32
640.701	10.34
640.892	10.37
641.083	10.26
641.274	10.29
641.465	10.35
641.655	10.24
641.846	10.12
642.037	10.16
642.228	10.12
642.418	10.1
642.609	10.04
642.8	10.09
642.99	9.94
643.181	9.99
643.372	9.92
643.562	9.97
643.753	9.87
643.943	9.91
644.134	9.79
644.324	9.74
644.515	9.67
644.705	9.75
644.896	9.79
645.086	9.74
645.277	9.68
645.467	9.68
645.658	9.56
645.848	9.5
646.038	9.59
646.229	9.62
646.419	9.55
646.61	9.53
646.8	9.46
646.99	9.35
647.18	9.34
647.371	9.36
647.561	9.33
647.751	9.27
647.941	9.32
648.132	9.27
648.322	9.28
648.512	9.33
648.702	9.32
648.892	9.25
649.082	9.3
649.272	9.13
649.462	9.01
649.653	9.03
649.843	9
650.033	8.94
650.223	8.94
650.413	9.01
650.603	8.99
650.793	8.95
650.983	8.9
651.172	8.89
651.362	8.82
651.552	8.75
651.742	8.65
651.932	8.56
652.122	8.61
652.312	8.62
652.502	8.62
652.691	8.59
652.881	8.64
653.071	8.64
653.261	8.44
653.45	8.33
653.64	8.37
653.83	8.31
654.019	8.25
654.209	8.5
654.399	8.63
654.588	8.59
654.778	8.52
654.968	8.46
655.157	8.32
655.347	8.22
655.536	8.18
655.726	8.16
655.915	8.04
656.105	7.95
656.294	7.81
656.484	7.55
656.673	7.47
656.863	7.44
657.052	7.3
657.241	7.2
657.431	7.19
657.62	6.99
657.809	6.82
657.999	6.71
658.188	6.63
658.377	6.65
658.567	6.72
658.756	6.67
658.945	6.58
659.134	6.53
659.324	6.45
659.513	6.31
659.702	6.11
659.891	6.14
660.08	6.03
660.269	5.9
660.458	6
660.648	6.11
660.837	5.94
661.026	5.89
661.215	5.88
661.404	5.53
661.593	5.47
661.782	5.3
661.971	5.3
662.16	5.24
662.349	5.31
662.538	5.21
662.726	5.35
662.915	5.25
663.104	5.09
663.293	5.11
663.482	5.2
663.671	5.09
663.86	4.99
664.048	4.89
664.237	4.89
664.426	4.65
664.615	4.71
664.803	4.78
664.992	4.93
665.181	4.92
665.369	4.86
665.558	4.8
665.747	4.73
665.935	4.84
666.124	4.79
666.312	4.98
666.501	4.96
666.69	4.89
666.878	4.84
667.067	4.75
667.255	4.78
667.444	4.98
667.632	5.17
667.82	5.17
668.009	5.22
668.197	5.17
668.386	5.02
668.574	5.09
668.762	5.08
668.951	5.11
669.139	5.08
669.327	5.09
669.516	5.06
669.704	5.13
669.892	5.21
670.08	5.32
670.269	5.35
670.457	5.4
670.645	5.34
670.833	5.4
671.021	5.46
671.21	5.59
671.398	5.7
671.586	5.72
671.774	5.78
671.962	5.66
672.15	5.53
672.338	5.49
672.526	5.69
672.714	5.57
672.902	5.74
673.09	5.95
673.278	6.15
673.466	6.16
673.654	6.55
673.842	6.56
674.03	6.79
674.218	6.71
674.405	6.69
674.593	6.59
674.781	6.79
674.969	6.52
675.157	6.68
675.344	6.86
675.532	6.86
675.72	6.89
675.908	7.2
676.095	7.06
676.283	7.1
676.471	7.29
676.658	7.32
676.846	7.3
677.033	7.52
677.221	7.36
677.409	7.35
677.596	7.4
677.784	7.43
677.971	7.49
678.159	7.76
678.346	7.87
678.534	7.77
678.721	7.92
678.909	7.93
679.096	8.08
679.283	8.21
679.471	8.39
679.658	8.43
679.846	8.56
680.033	8.69
680.22	8.74
680.408	8.98
680.595	9.08
680.782	9.09
680.969	9.15
681.157	8.98
681.344	8.89
681.531	8.9
681.718	8.91
681.905	8.91
682.093	9.15
682.28	9.38
682.467	9.49
682.654	9.68
682.841	9.76
683.028	9.92
683.215	10.01
683.402	9.96
683.589	10.15
683.776	10.25
683.963	10.27
684.15	10.46
684.337	10.47
684.524	10.43
684.711	10.54
684.898	10.61
685.085	10.47
685.271	10.93
685.458	11.29
685.645	11.4
685.832	11.68
686.019	12.02
686.205	12.25
686.392	12.29
686.579	12.44
686.766	12.67
686.952	12.89
687.139	13.12
687.326	13.23
687.512	13.81
687.699	13.98
687.886	14.19
688.072	14.28
688.259	14.8
688.445	14.84
688.632	14.98
688.818	15.52
689.005	15.82
689.191	16.06
689.378	16.61
689.564	17.21
689.751	17.27
689.937	17.84
690.124	18.05
690.31	18.29
690.496	18.49
690.683	19.21
690.869	19.56
691.055	20.13
691.242	20.69
691.428	21.14
691.614	21.59
691.8	22.07
691.987	22.45
692.173	22.93
692.359	23.69
692.545	24.21
692.731	24.42
692.918	25.1
693.104	25.45
693.29	25.97
693.476	26.41
693.662	27.34
693.848	27.81
694.034	28.47
694.22	28.94
694.406	29.72
694.592	30.32
694.778	30.93
694.964	31.36
695.15	31.87
695.336	32.33
695.522	33.1
695.708	33.86
695.894	34.63
696.08	35.43
696.265	35.94
696.451	36.21
696.637	36.97
696.823	37.47
697.009	38.18
697.194	38.99
697.38	39.68
697.566	40
697.751	40.54
697.937	40.96
698.123	41.3
698.308	42.13
698.494	42.87
698.68	43.78
698.865	44.29
699.051	44.94
699.236	45.52
699.422	46.05
699.607	46.35
699.793	47.13
699.978	47.57
700.164	47.69
700.349	48.65
700.535	49.48
700.72	49.82
700.906	50.81
701.091	51.59
701.276	51.57
701.462	52.33
701.647	53.38
701.832	53.75
702.018	54.44
702.203	55.48
702.388	55.72
702.573	55.88
702.759	56.54
702.944	56.72
703.129	56.88
703.314	57.52
703.499	58.35
703.684	59.14
703.87	60.19
704.055	61.14
704.24	61.5
704.425	61.93
704.61	61.95
704.795	61.99
704.98	61.94
705.165	62.16
705.35	62.22
705.535	62.33
705.72	63.09
705.905	63.77
706.09	64.67
706.275	65.12
706.459	65.62
706.644	65.96
706.829	66.38
707.014	66.63
707.199	67.13
707.384	68.2
707.568	68.43
707.753	69.25
707.938	69.65
708.123	69.96
708.307	69.75
708.492	70.18
708.677	69.29
708.861	69
709.046	69
709.231	69.64
709.415	70.14
709.6	71.4
709.784	71.86
709.969	72.81
710.153	73.11
710.338	73.36
710.522	73.23
710.707	74.02
710.891	73.73
711.076	73.92
711.26	73.67
711.445	73.94
711.629	74.14
711.813	74.92
711.998	75.24
712.182	75.24
712.366	75.72
712.551	75.99
712.735	75.55
712.919	75.88
713.103	76.55
713.288	76.54
713.472	76.53
713.656	77.2
713.84	77.43
714.024	77.65
714.208	78.03
714.393	78.47
714.577	78.87
714.761	78.68
714.945	79.27
715.129	79.08
715.313	78.74
715.497	78.24
715.681	78.83
715.865	78.82
716.049	79.47
716.233	80.28
716.417	81.16
716.601	80.84
716.785	80.5
716.968	80.69
717.152	80.67
717.336	80.56
717.52	80.86
717.704	81.71
717.888	82.02
718.071	81.66
718.255	81.84
718.439	82.09
718.622	82.27
718.806	81.85
718.99	82.13
719.174	82.32
719.357	82.71
719.541	82.51
719.724	83.4
719.908	84.22
720.092	85.03
720.275	85
720.459	85.8
720.642	85.7
720.826	85.47
721.009	85.08
721.193	84.19
721.376	83.64
721.559	84.2
721.743	84.77
721.926	84.78
722.11	85.29
722.293	85.58
722.476	84.44
722.66	84.15
722.843	84.73
723.026	85.05
723.21	85.09
723.393	86.32
723.576	86.79
723.759	85.87
723.942	86.65
724.126	86.59
724.309	86.48
724.492	86.16
724.675	87.11
724.858	87.07
725.041	88.09
725.224	88.12
725.407	88.09
725.59	88.15
725.774	88.13
725.957	86.99
726.14	87.25
726.322	87.51
726.505	87.32
726.688	87.52
726.871	87.54
727.054	87.82
727.237	88.52
727.42	89.27
727.603	89.75
727.786	90.1
727.968	90.19
728.151	89.28
728.334	88.74
728.517	88.4
728.699	89.5
728.882	89.28
729.065	90.49
729.248	90.98
729.43	91.44
729.613	91.92
729.796	92
729.978	90.95
730.161	90.67
730.343	91.5
730.526	91.58
730.708	91.92
730.891	93.43
731.073	93.23
731.256	91.93
731.438	92.12
731.621	92.5
731.803	92.94
731.986	93.73
732.168	94.42
732.35	93.65
732.533	93.5
732.715	92.4
732.898	93.08
733.08	93.24
733.262	93.63
733.444	93.47
733.627	94.15
733.809	94.36
733.991	95.04
734.173	95.23
734.355	95.77
734.538	95.92
734.72	94.96
734.902	94.87
735.084	94.37
735.266	95.11
735.448	94.91
735.63	94.6
735.812	94.68
735.994	95.95
736.176	95.72
736.358	95.92
736.54	97.52
736.722	97
736.904	96.21
737.086	95.04
737.268	96.8
737.45	96.99
737.632	97.07
737.814	96.99
737.995	98.81
738.177	98.18
738.359	97.12
738.541	97.16
738.723	97.78
738.904	97.43
739.086	96.71
739.268	97.35
739.449	97.96
739.631	97.68
739.813	97.99
739.994	98.6
740.176	98.25
740.358	98.63
740.539	100.23
740.721	99.83
740.902	100.49
741.084	101.41
741.265	101.02
741.447	100.74
741.628	100.6
741.81	97.82
741.991	98.3
742.172	98.98
742.354	99.24
742.535	99.69
742.717	102.53
742.898	101.1
743.079	102.05
743.261	101.15
743.442	100.36
743.623	99.26
743.804	100.93
743.986	100.54
744.167	99.25
744.348	101.13
744.529	101.79
744.71	100.41
744.891	100.18
745.073	100.89
745.254	100.01
745.435	100.71
745.616	99.9
745.797	98.98
745.978	98.53
746.159	98.31
746.34	96.52
746.521	97.28
746.702	97.55
746.883	97.83
747.064	94.52
747.245	94.24
747.426	94.67
747.606	94.48
747.787	94.51
747.968	97.4
748.149	99.42
748.33	99.75
748.51	98.64
748.691	97.99
748.872	99.88
749.053	98.73
749.233	98.79
749.414	99.53
749.595	101.04
749.775	97.8
749.956	96.24
750.137	94.46
750.317	95.34
750.498	95.39
750.678	96.1
750.859	97.18
751.04	99.13
751.22	98.25
751.4	96.56
751.581	96.72
751.761	96.86
751.942	96.67
752.122	97.53
752.303	97.59
752.483	97.57
752.663	97.95
752.844	97.68
753.024	97.24
753.204	98.02
753.385	97.53
753.565	94.88
753.745	95.46
753.925	95.23
754.106	95.26
754.286	96.31
754.466	97.74
754.646	98.74
754.826	98.42
755.006	97.17
755.187	98.52
755.367	99.77
755.547	99.42
755.727	100.49
755.907	99.97
756.087	99.72
756.267	98.81
756.447	97.92
756.627	96.8
756.807	100
756.987	98.25
757.167	98.66
757.346	97.16
757.526	95.82
757.706	94.99
757.886	94.78
758.066	96.33
758.246	99.39
758.425	100.91
758.605	99.51
758.785	99.81
758.965	97.72
759.144	93.29
759.324	92.46
759.504	93.78
759.683	93.97
759.863	94.17
760.043	95.49
760.222	96.37
760.402	94.64
760.581	96.29
760.761	96.54
760.94	94.5
761.12	93.48
761.299	96.87
761.479	95.38
761.658	95.38
761.838	97.46
762.017	97.45
762.197	95.37
762.376	94.69
762.555	94.35
762.735	95.81
762.914	94.4
763.093	95.18
763.273	93.54
763.452	92.86
763.631	90.79
763.81	91.04
763.99	90.15
764.169	92.77
764.348	91.62
764.527	91.64
764.706	94.26
764.885	95.39
765.064	93.51
765.243	93.5
765.423	94.8
765.602	95.18
765.781	93.71
765.96	92.21
766.139	94.74
766.318	94.85
766.497	93.16
766.676	93.72
766.854	94.96
767.033	92.63
767.212	90.92
767.391	90.24
767.57	90.06
767.749	91.81
767.928	92.58
768.106	90.71
768.285	90.27
768.464	90.83
768.643	89.89
768.821	90.41
769	92.78
769.179	93.43
769.357	89.57
769.536	87.12
769.715	88.09
769.893	88.52
770.072	88.55
770.25	88.1
770.429	89.17
770.607	88.09
770.786	89.44
770.964	90.4
771.143	93.77
771.321	95.9
771.5	98.49
771.678	95.02
771.857	93.06
772.035	94.06
772.213	92.97
772.392	87.2
772.57	89.23
772.748	91.41
772.927	87.09
773.105	87.59
773.283	91.48
773.461	93.7
773.64	90.85
773.818	90.31
773.996	91.51
774.174	91.2
774.352	86.27
774.531	88.37
774.709	91.55
774.887	88.97
775.065	85.94
775.243	86.89
775.421	87.94
775.599	89.28
775.777	86.95
775.955	85.8
776.133	86.79
776.311	83.09
776.489	79.65
776.667	81.5
776.844	86.51
777.022	83.9
777.2	83.61
777.378	84.39
777.556	86.87
777.734	86.09
777.911	88.55
778.089	90.09
778.267	93.25
778.445	88.59
778.622	85.65
778.8	85.38
778.978	87.2
779.155	83.21
779.333	84.92
779.511	80.69
779.688	81.23
779.866	72.88
780.043	71.04
780.221	70.14
780.398	71.25
780.576	71.07
780.753	79.17
780.931	82.5
781.108	85.12
781.286	90.69
781.463	85.16
781.64	83.78
781.818	85.24
781.995	85.12
782.172	83.64
782.35	88.78
782.527	88.75
782.704	86.07
782.882	88.22
783.059	86.89
783.236	86.04
783.413	85.29
783.59	84.71
783.768	78.49
783.945	78.88
784.122	80.77
784.299	79.52
784.476	79.01
784.653	82.93
784.83	80.41
785.007	72.53
785.184	74.9
785.361	76.99
785.538	80.81
785.715	82.51
785.892	88.4
786.069	89.67
786.246	89.79
786.423	83.1
786.6	83.74
786.776	85.34
786.953	84.31
787.13	86.09
787.307	86.52
787.484	91.83
787.66	89.65
787.837	83.68
788.014	81.6
788.191	80.92
788.367	74.89
788.544	78.08
788.721	82.12
788.897	83.67
789.074	85.02
789.25	84.68
789.427	83.98
789.603	81.73
789.78	83.93
789.956	75.36
790.133	77.48
790.309	74.32
790.486	78.27
790.662	71.91
790.839	78.7
791.015	81.23
791.192	77.92
791.368	76.72
791.544	76.37
791.721	81.62
791.897	76.81
792.073	79.05
792.249	76.32
792.426	78.53
792.602	76.67
792.778	73.17
792.954	72.56
793.13	72.3
793.307	69.29
793.483	60.5
793.659	62.74
793.835	61.32
794.011	65.69
794.187	60.33
794.363	60.98
794.539	65.52
794.715	64.19
794.891	61
795.067	64.65
795.243	74.43
795.419	72.93
795.595	73.33
795.771	74.11
795.947	79.92
796.122	69.57
796.298	71.5
796.474	77.95
796.65	78.57
796.826	75.24
797.001	84.75
797.177	78.44
797.353	79.83
797.529	80.46
797.704	75.66
797.88	69.39
798.056	66.81
798.231	61.93
798.407	66.97
798.582	71.67
798.758	76.97
798.934	86.03
799.109	83.7
799.285	75
799.46	83.91
799.636	79.64
799.811	75.1
799.986	80.67
800.162	88.79
800.337	80.17
800.513	75.76
800.688	73.88
800.863	76.78
801.039	68.06
801.214	62.23
801.389	68.67
801.565	73.9
801.74	69.15
801.915	71.29
802.09	81.2
802.265	83.91
802.441	80.13
802.616	77.51
802.791	76.11
802.966	75.26
803.141	71.56
803.316	60.74
803.491	59.75
803.666	63.14
803.841	59.08
804.016	58.48
804.191	68.11
804.366	70.89
804.541	70.01
804.716	62.35
804.891	57.92
805.066	60.52
805.241	62.07
805.416	63.65
805.591	65.99
805.765	68.76
805.94	70.83
806.115	68.26
806.29	63.35
806.464	76.24
806.639	74.19
806.814	60.46
806.989	51.39
807.163	60.75
807.338	50.26
807.512	47.94
807.687	47.33
807.862	57.07
808.036	52.47
808.211	54.29
808.385	64.25
808.56	74.15
808.734	70.49
808.909	73.38
809.083	66.07
809.258	67.68
809.432	68.1
809.606	51.26
809.781	53.18
809.955	66.4
810.13	65.76
810.304	58.69
810.478	67.63
810.652	68.91
810.827	70.89
811.001	68.55
811.175	67.51
811.349	77.43
811.524	66.72
811.698	51.79
811.872	52.21
812.046	56.03
812.22	52.28
812.394	49.43
812.568	54.12
812.742	56.24
812.916	53.61
813.09	53.92
813.264	70.44
813.438	78.72
813.612	72.07
813.786	59.53
813.96	68.84
814.134	65.58
814.308	66.02
814.482	65.3
814.656	77.8
814.83	77.05
815.003	71.8
815.177	66.64
815.351	65.26
815.525	74.41
815.698	64.53
815.872	49.01
816.046	41.29
816.219	44.65
816.393	46.85
816.567	56.56
816.74	63.48
816.914	78.46
817.088	77.83
817.261	70.46
817.435	54.6
817.608	51.53
817.782	40.24
817.955	41.51
818.129	28.02
818.302	42.55
818.475	63.36
818.649	62.31
818.822	51.01
818.996	68.75
819.169	65.83
819.342	46.4
819.516	54.79
819.689	69.82
819.862	60.83
820.035	56.07
820.209	49.55
820.382	58.7
820.555	57.75
820.728	51.27
820.901	47.88
821.075	61.95
821.248	61.15
821.421	54.09
821.594	49.55
821.767	66.34
821.94	90.63
822.113	48.68
822.286	43.9
822.459	68.97
822.632	63.76
822.805	54.18
822.978	72.16
823.151	72.92
823.324	44.57
823.496	7.46
823.669	2.54
823.842	11.9
824.015	6.54
824.188	4.14
824.361	15.48
824.533	4.61
824.706	21.88
824.879	26.43
825.051	55.27
825.224	61.93
825.397	62.64
825.569	48.75
825.742	55.14
825.915	55.63
826.087	51.68
826.26	40.55
826.432	41.3
826.605	53.08
826.777	55.56
826.95	53.54
827.122	59.44
827.295	64.35
827.467	46.5
827.64	16.71
827.812	5.67
827.984	8.54
828.157	2.94
828.329	-2.48
828.501	3.09
828.674	18.07
828.846	18.88
829.018	32.74
829.19	31.56
829.363	52.35
829.535	54.43
829.707	59.53
829.879	24.04
830.051	21.09
830.223	28.39
830.395	-3.89
830.568	-11.04
830.74	1.07
830.912	21.6
831.084	-1.16
831.256	8.54
831.428	-3.08
831.6	-8.77
831.772	-23.34
831.943	-19.35
832.115	-3.77
832.287	36
832.459	43.26
832.631	45.1
832.803	63.33
832.975	60.52
833.146	31.88
833.318	39.27
833.49	42.93
833.662	27.1
833.833	19.61
834.005	27.42
834.177	38.63
834.348	12.18
834.52	-19.73
834.692	-2.55
834.863	-10.82
835.035	-32.23
835.206	-11.47
835.378	18.25
835.549	1.19
835.721	8.49
835.892	-14.54
836.064	3.08
836.235	12.7
836.407	49.71
836.578	49.78
836.749	77.37
836.921	64.13
837.092	33.44
837.264	-23.41
837.435	-53.83
837.606	-41.07
837.777	-18.1
837.949	15.41
838.12	9.24
838.291	33.86
838.462	31.73
838.633	11.52
838.805	-5.27
838.976	16.21
839.147	8.33
839.318	-28.28
839.489	-44.33
839.66	-34.69
839.831	-16.43
840.002	-5.34
840.173	-12.03
840.344	-10.66
840.515	-1.43
840.686	-49.29
840.857	-90.52
841.028	-106.92
841.199	-57.77
841.369	-95.6
841.54	-86.82
841.711	-13.58
841.882	7.42
842.053	-23.79
842.223	-35.83
842.394	3.86
842.565	2.77
842.736	16.72
842.906	42.15
843.077	65.99
843.248	55.89
843.418	39.32
843.589	22.74
843.759	51.81
843.93	51.47
844.101	43.23
844.271	52.8
844.442	67.15
844.612	64.47
844.783	41.24
844.953	2.16
845.123	17.01
845.294	14.42
845.464	-10.93
845.635	18.64
845.805	63.56
845.975	57.88
846.146	38.77
846.316	13.26
846.486	18.28
846.656	8.13
846.827	-20.69
846.997	-30.08
847.167	20.44
847.337	-10.4
847.507	-11.57
847.677	-14.54
847.848	8.71
848.018	11.46
848.188	35.52
848.358	26.12
848.528	52.47
848.698	39.13
848.868	11.05
849.038	-23.34
849.208	5.01
849.378	15.12
849.548	-12.67
849.718	1.48
849.887	67.49
850.057	-17.63
850.227	-68.31
850.397	-34.81
850.567	-53.05
850.737	-35.76
850.906	-52.02
851.076	-71.03
851.246	-80.64
851.415	-48.65
851.585	-40.05
851.755	-18
851.924	30.38
852.094	35.17
852.264	21.09
852.433	-14.8
852.603	0.69
852.772	-5.45
852.942	-22.2
853.111	-39.52
853.281	29.84
853.45	31.4
853.62	-10.94
853.789	-53.23
853.959	11.97
854.128	-38.35
854.297	-86.35
854.467	-93.01
854.636	-34.48
854.805	-52.12
854.975	-67.41
855.144	-40.66
855.313	34.91
855.482	17.28
855.652	-0.59
855.821	9.17
855.99	54.55
856.159	24.96
856.328	-3.15
856.497	-22.27
856.667	-17.85
856.836	-42.31
857.005	-125.77
857.174	-158.54
857.343	-130.39
857.512	-78.53
857.681	-140.51
857.85	-96.69
858.019	-73.72
858.188	-82
858.356	-135.64
858.525	-132.33
858.694	-132.99
858.863	-108.33
859.032	-111.65
859.201	-81.32
859.369	-32.59
859.538	-4.12
859.707	-22.97
859.876	-16.68
860.044	-13.8
860.213	-20.68
860.382	-44.83
860.55	-43.29
860.719	8.54
860.888	32.89
861.056	-13.39
861.225	-30.53
861.393	25.73
861.562	59.14
861.73	2.86
861.899	16.87
862.067	3.33
862.236	10.84
862.404	-68.71
862.572	-88.33
862.741	-38.57
862.909	-40.01
863.078	-65.35
863.246	-61.21
863.414	-35.15
863.582	-102.6
863.751	-73.25
863.919	-93.12
864.087	-15.53
864.255	-8.34
864.424	-35.71
864.592	-21.2
864.76	32.66
864.928	24.82
865.096	4.2
865.264	19.15
865.432	20.22
865.6	-15.39
865.768	-106.19
865.936	-189.96
866.104	-132.18
866.272	-171.66
866.44	-113.71
866.608	-86.73
866.776	-113.52
866.944	-197.96
867.112	-311.47
867.28	-489.09
867.448	-1104.05
867.615	-381.7
867.783	-86.93
867.951	-89.19
868.119	-31.76
868.286	-18.99
868.454	-61.89
868.622	-136.97
868.789	-118.39
868.957	-69.5
869.125	-83.71
869.292	-79.6
869.46	-46.89
869.627	-20.55
869.795	-73.45
869.963	-52.21
870.13	-11.49
870.298	-5.11
870.465	-60.99
870.632	-66.44
870.8	-86.74
870.967	-82.63
871.135	-149.89
871.302	-67.37
871.469	22.77
871.637	11.56
871.804	-5.48
871.971	-15.76
872.139	-15.28
872.306	10.5
872.473	-11.65
872.64	-46.81
872.807	0.98
872.975	19.99
873.142	-76.1
873.309	-34.79
873.476	55.09
873.643	31.55
873.81	-1.42
873.977	23.32
874.144	16.71
874.311	0.11
874.478	-77.08
874.645	-123.51
874.812	-477.49
874.979	28376.19
875.146	-724.71
875.313	-212.58
875.48	-98.67
875.647	-56.4
875.813	-78.12
875.98	-109.29
876.147	-165.7
876.314	-202.33
876.481	-251.47
876.647	-257.41
876.814	-153.44
876.981	-122.46
877.147	-178.13
877.314	-167.83
877.481	-79.23
877.647	-23.21
877.814	-95.75
877.98	-99.68
878.147	0.2
878.314	10.07
878.48	-42.62
878.647	-31.84
878.813	34.24
878.979	52.5
879.146	24.91
879.312	34.62
879.479	45.77
879.645	52.67
879.811	-40.95
879.978	-37.65
880.144	-41.71
880.31	-79.57
880.477	-179.74
880.643	-205.36
880.809	-172.9
880.975	-97.29
881.142	-100.82
881.308	-62.23
881.474	-8.57
881.64	23.06
881.806	-26.36
881.972	-5.25
882.138	8.01
882.304	29.49
882.47	-73.5
882.636	-130.81
882.802	-141.49
882.968	-82.78
883.134	-189.22
883.3	-237.74
883.466	-27.74
883.632	33.85
883.798	-35.88
883.964	-10.4
884.129	-16.82
884.295	-33.38
884.461	-88.02
884.627	-132.47
884.793	-104.37
884.958	-36.31
885.124	-80.61
885.29	-85.48
885.455	-16.72
885.621	-10.06
885.787	-205.72
885.952	-115.12
886.118	-107.98
886.283	-108.78
886.449	-146.92
886.614	-87.66
886.78	-108.33
886.945	-102.64
887.111	-244.37
887.276	-243.3
887.442	-472.36
887.607	-243.94
887.773	-318.92
887.938	-219.9
888.103	-78.49
888.269	-25.51
888.434	-22.87
888.599	-14.82
888.764	49.61
888.93	45.32
889.095	13.29
889.26	-23.18
889.425	22.17
889.59	8.15
889.756	-42.24
889.921	-35.11
890.086	-34.98
890.251	-54.22
890.416	-99.33
890.581	-96.33
890.746	-80.53
890.911	-9.64
891.076	-48.93
891.241	-82.22
891.406	-112.25
891.571	-22.4
891.736	-74.46
891.901	-95.14
892.065	-42.71
892.23	-1.68
892.395	-100.09
892.56	-132.63
892.725	-36.97
892.889	-43.79
893.054	-174.25
893.219	-168.91
893.384	-152.17
893.548	-211.51
893.713	-259.37
893.878	-208.31
