Data from Ofra_PP_Phys_9CX6B_Reflection_2.txt Node
Date: Sat Jul 24 20:05:09 EDT 2021
User: USUARIO
Spectrometer: FLMT01687
Trigger mode: 0
Integration Time (sec): 1.100000E0
Scans to average: 2
Electric dark correction enabled: true
Nonlinearity correction enabled: false
Boxcar width: 2
XAxis mode: Wavelengths
Number of Pixels in Spectrum: 3648
>>>>>Begin Spectral Data<<<<<
179.494	527.43
179.716	679.3
179.937	1192.37
180.158	1013.14
180.38	486.99
180.601	-607.43
180.823	10.2
181.044	363.57
181.265	-41.36
181.486	-5.27
181.708	13.83
181.929	-785.33
182.15	111.24
182.372	-64.29
182.593	29166.67
182.814	387.18
183.035	141.52
183.257	119.32
183.478	70.39
183.699	104.12
183.92	26.57
184.141	69.22
184.363	1.53
184.584	55.32
184.805	43.54
185.026	61.31
185.247	45.05
185.468	28.07
185.689	7.94
185.91	12.84
186.132	4.57
186.353	29.75
186.574	35.16
186.795	51.96
187.016	16.22
187.237	31.59
187.458	12.4
187.679	89.89
187.9	72.24
188.121	104.92
188.342	136.01
188.563	96.22
188.784	98.71
189.005	85.6
189.226	85.04
189.447	54.94
189.667	70.88
189.888	48.88
190.109	33.91
190.33	10.5
190.551	-6.17
190.772	-15.15
190.993	-40.95
191.214	-33.82
191.434	-64.45
191.655	-7.71
191.876	-28.24
192.097	-7.92
192.318	0.91
192.538	11.86
192.759	-4.35
192.98	6.24
193.201	-3
193.421	-24.69
193.642	-7.45
193.863	-3.91
194.083	-10.56
194.304	-0.96
194.525	20.28
194.745	19.24
194.966	-19.45
195.187	-31.57
195.407	-45.03
195.628	-85.05
195.848	-80.02
196.069	-84.95
196.29	-57.02
196.51	-107.76
196.731	-93.92
196.951	-90.51
197.172	-59.1
197.392	-47.32
197.613	-8.04
197.833	3.13
198.054	-0.46
198.274	13.93
198.495	-0.37
198.715	16.63
198.936	-25.14
199.156	12.43
199.377	-2.41
199.597	3.82
199.817	-6.76
200.038	53.58
200.258	39.71
200.479	50.28
200.699	54.69
200.919	37.46
201.14	-4.13
201.36	-15.37
201.58	-23.85
201.801	-4.5
202.021	-0.02
202.241	29.26
202.461	23.24
202.682	10.75
202.902	18.84
203.122	25.86
203.342	14.35
203.563	18.56
203.783	38.15
204.003	-33.11
204.223	-117.98
204.443	-7.43
204.663	41.9
204.884	-8.41
205.104	27.78
205.324	62.81
205.544	28.82
205.764	12.58
205.984	52.11
206.204	41.7
206.424	45.54
206.644	34.7
206.864	45.71
207.084	22.75
207.304	28.04
207.525	-5.03
207.745	7.54
207.964	14.96
208.184	3.48
208.404	6.54
208.624	8.34
208.844	11.72
209.064	-24.92
209.284	0.33
209.504	10.24
209.724	23.83
209.944	24.66
210.164	58.82
210.384	48.38
210.604	34.85
210.823	-4.15
211.043	-36.03
211.263	-35.31
211.483	-55.41
211.703	-51.51
211.922	-12
212.142	51.42
212.362	49.89
212.582	41.07
212.801	43.1
213.021	16.43
213.241	7.19
213.461	-11.35
213.68	-23.15
213.9	-18.17
214.12	-2.71
214.339	-31.02
214.559	-12.48
214.779	9.92
214.998	43.29
215.218	34.73
215.438	40.58
215.657	31.62
215.877	42.64
216.096	25.02
216.316	38.2
216.535	35.59
216.755	45.94
216.974	33.48
217.194	27.89
217.413	20.51
217.633	28.89
217.852	-16.57
218.072	-16.47
218.291	-27.67
218.511	-5.55
218.73	-52.35
218.95	-57.58
219.169	-63.88
219.389	-75.77
219.608	-98.95
219.827	-49.05
220.047	-17.68
220.266	-19.94
220.485	-5.27
220.705	30.08
220.924	-0.76
221.143	20.05
221.363	-10.12
221.582	10.02
221.801	7.47
222.021	40.69
222.24	34.94
222.459	74.19
222.678	52.43
222.897	39.52
223.117	35.58
223.336	39.44
223.555	44
223.774	56.8
223.993	71.67
224.213	98.99
224.432	71.84
224.651	103.66
224.87	80.87
225.089	74.1
225.308	56.46
225.527	75.53
225.746	48.26
225.965	45.14
226.184	29.04
226.404	37.58
226.623	12.22
226.842	21.75
227.061	49.15
227.28	59.06
227.499	72.09
227.718	105.1
227.936	91.92
228.155	74.68
228.374	40.84
228.593	25.87
228.812	11.15
229.031	18.81
229.25	11.86
229.469	48.27
229.688	35.94
229.907	21.72
230.125	31.79
230.344	46.99
230.563	38.3
230.782	66.94
231.001	37.06
231.22	29.16
231.438	14.02
231.657	11.97
231.876	7.73
232.095	31.98
232.313	44.75
232.532	39.57
232.751	45.74
232.969	27.83
233.188	35.62
233.407	21.98
233.625	-2.83
233.844	-1.62
234.063	-4.54
234.281	26.56
234.5	36.08
234.719	85.46
234.937	57.72
235.156	60.07
235.374	52.37
235.593	58.31
235.811	47.98
236.03	64.28
236.249	51.33
236.467	51.01
236.686	44.56
236.904	55.22
237.123	-2.42
237.341	-4.07
237.559	-36.53
237.778	-31.83
237.996	-55.86
238.215	-15.6
238.433	-18.71
238.652	-6.42
238.87	-52.09
239.088	-24.66
239.307	-9.8
239.525	1.29
239.743	-6.21
239.962	18.63
240.18	-1.38
240.398	-21.43
240.617	-28.7
240.835	-8.4
241.053	-34.35
241.271	-7.65
241.49	19.69
241.708	16.58
241.926	16.53
242.144	49.44
242.363	30.34
242.581	23.59
242.799	38.15
243.017	18.53
243.235	-13.76
243.453	11.22
243.672	5.1
243.89	7.74
244.108	32.12
244.326	45.26
244.544	33.31
244.762	21.17
244.98	19.27
245.198	14.06
245.416	-14.32
245.634	-11.31
245.852	5.22
246.07	6.82
246.288	13
246.506	24.42
246.724	25.08
246.942	17.66
247.16	28.69
247.378	31.94
247.596	48.59
247.814	46.59
248.032	22.44
248.25	15.32
248.468	14.44
248.685	21.98
248.903	31.74
249.121	37.16
249.339	-5.13
249.557	9.07
249.775	-13.52
249.992	-63.82
250.21	-55.52
250.428	-15.35
250.646	-29.27
250.863	-31.74
251.081	-3.24
251.299	20.19
251.517	15.27
251.734	16
251.952	11.67
252.17	19.01
252.387	24.69
252.605	-1.12
252.823	-4.26
253.04	15.24
253.258	14.93
253.475	6.37
253.693	36.59
253.911	50.48
254.128	41.85
254.346	38.78
254.563	21.11
254.781	6.84
254.998	7.73
255.216	-2.04
255.433	0.24
255.651	22.13
255.868	38.31
256.086	50.54
256.303	54.02
256.521	50.45
256.738	33.61
256.956	24.72
257.173	29.58
257.39	34.24
257.608	35.62
257.825	52.34
258.043	62.59
258.26	43.37
258.477	30.59
258.695	18.83
258.912	-21.41
259.129	-29.64
259.346	-52
259.564	-50.88
259.781	-34.69
259.998	-9.19
260.216	27.9
260.433	41.05
260.65	34.77
260.867	39.59
261.084	23.62
261.302	5.13
261.519	22.23
261.736	16.08
261.953	10.8
262.17	25.67
262.387	25.05
262.604	10.89
262.822	14.41
263.039	17.98
263.256	5.98
263.473	11.6
263.69	7.7
263.907	27.49
264.124	46.33
264.341	73.9
264.558	50.91
264.775	48.64
264.992	43.17
265.209	31.57
265.426	17.2
265.643	22.25
265.86	25.14
266.077	38.19
266.294	30.38
266.51	36.56
266.727	22.97
266.944	35.66
267.161	15.2
267.378	15.91
267.595	13.58
267.812	-8.3
268.028	-3.3
268.245	10.22
268.462	10.29
268.679	2.58
268.896	41.94
269.112	30.55
269.329	24.23
269.546	32.65
269.763	34.92
269.979	34.38
270.196	12.68
270.413	12.91
270.629	7.84
270.846	1.9
271.063	4.48
271.279	12.63
271.496	6.45
271.712	2.36
271.929	12.25
272.146	21.76
272.362	32.81
272.579	56.05
272.795	67.29
273.012	93.81
273.228	70.95
273.445	59.71
273.661	38.93
273.878	-21
274.094	-34.91
274.311	-40.13
274.527	0.19
274.744	9.52
274.96	38.89
275.177	38.4
275.393	37.6
275.609	35.95
275.826	47.14
276.042	45.56
276.259	46.48
276.475	42.06
276.691	55.7
276.908	40.03
277.124	68.88
277.34	47.34
277.557	55.5
277.773	35.03
277.989	33.36
278.205	20.01
278.422	35.44
278.638	35.16
278.854	36.47
279.07	49.04
279.286	21.04
279.503	11.57
279.719	15.54
279.935	1.11
280.151	-30.68
280.367	6.49
280.583	19.35
280.799	8.05
281.016	14.93
281.232	31.43
281.448	32.25
281.664	41.96
281.88	35.84
282.096	28.55
282.312	41.88
282.528	50.54
282.744	33.98
282.96	41.81
283.176	56.54
283.392	43.87
283.608	33.54
283.824	38.02
284.04	44.04
284.256	50.78
284.471	45.42
284.687	39.54
284.903	47.78
285.119	58.37
285.335	30.67
285.551	40.32
285.767	39.3
285.982	-0.57
286.198	-18.06
286.414	4.96
286.63	1.98
286.846	21.52
287.061	19.04
287.277	24.06
287.493	28.82
287.709	41.86
287.924	31.01
288.14	59
288.356	64.13
288.571	70.59
288.787	56.37
289.003	64.6
289.218	51.46
289.434	18.43
289.65	18.05
289.865	10.61
290.081	11.13
290.296	20.88
290.512	32.44
290.727	28.18
290.943	28.06
291.159	20.45
291.374	22.7
291.59	1.9
291.805	-7.37
292.021	-5.4
292.236	-9.09
292.451	-8.49
292.667	16.25
292.882	17.9
293.098	32.95
293.313	34.08
293.529	27.69
293.744	13.2
293.959	1.25
294.175	-12.76
294.39	3.58
294.605	12.14
294.821	23.38
295.036	22.67
295.251	35.12
295.467	24.41
295.682	22.15
295.897	1.04
296.112	-0.9
296.328	-7.86
296.543	-13.48
296.758	-27.64
296.973	22.83
297.188	52.67
297.404	28.18
297.619	33.23
297.834	35.59
298.049	16.71
298.264	-3.19
298.479	26.18
298.694	25.65
298.909	29.74
299.125	30.26
299.34	41.56
299.555	31.93
299.77	44.12
299.985	2.61
300.2	-12.06
300.415	-35.77
300.63	-11.54
300.845	-20.42
301.06	-14.36
301.275	-10.14
301.49	-0.6
301.704	-14.3
301.919	-38.62
302.134	-31.85
302.349	4.47
302.564	-3.27
302.779	1.9
302.994	41.83
303.209	49.23
303.423	42.83
303.638	62.3
303.853	53.24
304.068	25.63
304.283	16.09
304.497	13.11
304.712	25.38
304.927	31.69
305.142	26.79
305.356	38.72
305.571	45.32
305.786	30.9
306	21.4
306.215	28.37
306.43	17.61
306.644	33.94
306.859	36.77
307.074	28.88
307.288	20.37
307.503	25.02
307.717	-1.98
307.932	8.11
308.147	2.49
308.361	14.29
308.576	-0.2
308.79	-43.94
309.005	-30.11
309.219	-12.49
309.434	2.93
309.648	-15.13
309.863	28.11
310.077	13.18
310.292	-3.65
310.506	-33.72
310.72	11.27
310.935	25.98
311.149	22.97
311.364	45.06
311.578	67.91
311.792	56.57
312.007	57.95
312.221	43.52
312.435	51.21
312.649	27.62
312.864	37.88
313.078	23.34
313.292	40.24
313.507	29.26
313.721	34.38
313.935	23.11
314.149	31.41
314.363	34.44
314.578	8.8
314.792	4
315.006	19.98
315.22	0.88
315.434	-3.94
315.648	9.66
315.862	11.26
316.077	4.24
316.291	22.53
316.505	37.77
316.719	30.98
316.933	-5.57
317.147	5.98
317.361	-9.02
317.575	-14.25
317.789	-3.34
318.003	15.11
318.217	21.45
318.431	35.76
318.645	40.4
318.859	25.94
319.073	42.4
319.287	25.8
319.5	-1.23
319.714	-13.13
319.928	-19.08
320.142	-23.46
320.356	21.04
320.57	36
320.784	28.14
320.997	38.98
321.211	31.45
321.425	4.6
321.639	-23.68
321.853	-6.26
322.066	-7.44
322.28	-19.85
322.494	-21.16
322.707	42.02
322.921	29.87
323.135	31.5
323.349	45.62
323.562	38.1
323.776	6.06
323.989	26.1
324.203	20.21
324.417	19.84
324.63	5.94
324.844	-13.7
325.057	-18.7
325.271	-19.77
325.485	-26.56
325.698	15
325.912	42.66
326.125	23.7
326.339	34.41
326.552	32.78
326.766	26.85
326.979	16.22
327.193	52.65
327.406	35.75
327.619	43.47
327.833	37.92
328.046	31.41
328.26	9.6
328.473	16.43
328.686	-0.24
328.9	7.88
329.113	15.66
329.326	2.36
329.54	6.58
329.753	16.61
329.966	-0.61
330.179	17.97
330.393	35.57
330.606	29.94
330.819	37.97
331.032	45.58
331.246	38.76
331.459	37.46
331.672	37.09
331.885	23.81
332.098	-0.98
332.311	13.74
332.525	8.95
332.738	17.85
332.951	33.84
333.164	46.42
333.377	45.69
333.59	56.95
333.803	43.56
334.016	36.95
334.229	28.04
334.442	14.73
334.655	30.02
334.868	39.87
335.081	32.7
335.294	30.34
335.507	44.09
335.72	35.47
335.933	18.17
336.146	28.45
336.359	55.49
336.572	29.32
336.785	13.91
336.997	10.85
337.21	19.83
337.423	4.7
337.636	8.61
337.849	19.81
338.062	35.95
338.274	46.21
338.487	36.8
338.7	38.23
338.913	24.06
339.125	7.36
339.338	-0.37
339.551	9.51
339.763	30.73
339.976	45.71
340.189	55.81
340.402	59.36
340.614	49.65
340.827	35.84
341.039	14.91
341.252	2.48
341.465	-15.38
341.677	-25.64
341.89	-52.38
342.102	-34.71
342.315	-18.75
342.527	-27.81
342.74	-1.33
342.952	36.97
343.165	34.6
343.377	47.08
343.59	42.87
343.802	59.23
344.015	49.79
344.227	63.09
344.44	40.29
344.652	41.89
344.864	20.19
345.077	35.1
345.289	22.42
345.502	44.34
345.714	49.39
345.926	53.72
346.139	49.57
346.351	54.33
346.563	45.35
346.775	40.13
346.988	30.94
347.2	14.29
347.412	11.23
347.624	15.6
347.837	9.61
348.049	23.5
348.261	49.31
348.473	40.27
348.685	19.23
348.897	23.64
349.11	8.03
349.322	3.73
349.534	29.06
349.746	43.5
349.958	52.94
350.17	46.6
350.382	47.95
350.594	36.8
350.806	44.61
351.018	32.38
351.23	40.77
351.442	30.26
351.654	42.08
351.866	25.74
352.078	30.89
352.29	23.35
352.502	41.84
352.714	36.02
352.926	29.14
353.138	29.77
353.35	22.45
353.561	7.56
353.773	-6.93
353.985	11.65
354.197	6.77
354.409	8.78
354.621	16
354.832	31.55
355.044	26.98
355.256	23.88
355.468	27.61
355.679	9.75
355.891	10.27
356.103	0.23
356.314	1.71
356.526	10.83
356.738	41.3
356.949	32.97
357.161	33.58
357.373	39.37
357.584	37.41
357.796	16.71
358.008	8.09
358.219	21.83
358.431	25.01
358.642	20.61
358.854	31.66
359.065	45.08
359.277	30.11
359.488	19.07
359.7	13.36
359.911	-4.6
360.123	-2.38
360.334	-2.8
360.546	-2.13
360.757	2.46
360.969	24.07
361.18	16.04
361.391	25.52
361.603	9.69
361.814	19.84
362.025	4.35
362.237	7.29
362.448	10.46
362.659	33.68
362.871	24.69
363.082	27.61
363.293	29.26
363.504	18.19
363.716	8.58
363.927	20.15
364.138	7.35
364.349	-11.03
364.56	-8.88
364.772	-27.8
364.983	-25.72
365.194	-26.53
365.405	-14.26
365.616	-22.67
365.827	-3.79
366.038	4.25
366.25	18.77
366.461	8.24
366.672	32.26
366.883	42.13
367.094	30.53
367.305	11.71
367.516	30.96
367.727	15.78
367.938	3.87
368.149	-1.43
368.36	17.39
368.571	9.74
368.781	14.43
368.992	11.79
369.203	34.71
369.414	28.05
369.625	28.34
369.836	19.19
370.047	9.98
370.258	-2.81
370.468	-0.77
370.679	-35.08
370.89	-19.85
371.101	3.98
371.312	-13.49
371.522	-5.38
371.733	20.52
371.944	21.82
372.155	26.86
372.365	13.11
372.576	6.85
372.787	8.21
372.997	-6.31
373.208	-14.82
373.419	5.56
373.629	0.95
373.84	-1.86
374.05	-6.74
374.261	13.93
374.472	3.05
374.682	8.05
374.893	5.06
375.103	22.45
375.314	13.17
375.524	19.67
375.735	27.88
375.945	32.14
376.156	12.85
376.366	13.22
376.577	20.96
376.787	19.74
376.997	31.18
377.208	39.6
377.418	27.67
377.629	27.5
377.839	21.29
378.049	15.77
378.26	29.29
378.47	46.18
378.68	42.11
378.89	40.59
379.101	35.08
379.311	12.42
379.521	-10.36
379.732	-3.3
379.942	-17.83
380.152	-9.75
380.362	11.53
380.572	20.31
380.783	24.36
380.993	36.69
381.203	37.42
381.413	34.89
381.623	37.19
381.833	36.31
382.043	20.08
382.253	18.49
382.463	15.63
382.674	13.14
382.884	-1.28
383.094	11.2
383.304	10.7
383.514	15.62
383.724	15.52
383.934	7.72
384.144	-2.28
384.353	0.54
384.563	0.52
384.773	-2.52
384.983	13.03
385.193	22.48
385.403	13.71
385.613	7.84
385.823	15.53
386.033	14.43
386.242	9.76
386.452	17.78
386.662	17.1
386.872	15.49
387.082	16.53
387.291	8.1
387.501	9.92
387.711	12.36
387.921	1.66
388.13	4.27
388.34	14.06
388.55	11.28
388.759	10.35
388.969	17.54
389.179	14.99
389.388	16.32
389.598	14.37
389.807	12.92
390.017	13.45
390.227	12.85
390.436	10.2
390.646	14.76
390.855	16.22
391.065	17.14
391.274	14.76
391.484	11.22
391.693	10.81
391.903	11.04
392.112	13.13
392.322	15.64
392.531	20.74
392.74	20.51
392.95	16.62
393.159	14.15
393.369	16.29
393.578	12.12
393.787	10.22
393.997	14.08
394.206	14.35
394.415	14.1
394.625	15.37
394.834	14.34
395.043	12.73
395.252	13.71
395.462	14.36
395.671	14.92
395.88	16.91
396.089	17.87
396.298	16.91
396.508	15.82
396.717	16.11
396.926	15.42
397.135	15.67
397.344	15.78
397.553	15.71
397.762	16.11
397.971	15.89
398.181	15.39
398.39	14.07
398.599	13.8
398.808	13.04
399.017	13.89
399.226	13.96
399.435	15.12
399.644	15.16
399.853	15.07
400.062	14.43
400.27	14.65
400.479	14.1
400.688	13.84
400.897	14.32
401.106	14.12
401.315	13.52
401.524	13.78
401.733	13.83
401.941	14.06
402.15	14.13
402.359	14.23
402.568	14.36
402.777	14.47
402.985	14.07
403.194	14.16
403.403	14.28
403.612	13.85
403.82	13.79
404.029	13.71
404.238	13.44
404.446	13.23
404.655	13.11
404.864	12.98
405.072	12.9
405.281	13
405.489	12.9
405.698	12.89
405.906	12.97
406.115	12.84
406.324	12.68
406.532	12.77
406.741	12.93
406.949	12.66
407.158	12.63
407.366	12.62
407.574	12.7
407.783	12.53
407.991	12.58
408.2	12.44
408.408	12.36
408.617	12.17
408.825	12.03
409.033	12.02
409.242	12.1
409.45	12.13
409.658	12.02
409.867	12.14
410.075	12.03
410.283	11.97
410.491	11.86
410.7	11.74
410.908	11.72
411.116	11.75
411.324	11.65
411.533	11.78
411.741	11.88
411.949	12.05
412.157	11.86
412.365	12
412.573	11.81
412.781	11.85
412.99	11.57
413.198	11.82
413.406	11.73
413.614	11.81
413.822	11.84
414.03	11.85
414.238	11.68
414.446	11.68
414.654	11.47
414.862	11.37
415.07	11.29
415.278	11.43
415.486	11.1
415.694	11.26
415.902	11.22
416.109	11.16
416.317	11.18
416.525	11.06
416.733	11.16
416.941	11.25
417.149	11.27
417.357	11.24
417.564	11.61
417.772	11.41
417.98	11.23
418.188	11.13
418.395	10.93
418.603	10.95
418.811	10.86
419.019	10.81
419.226	11.1
419.434	11.24
419.642	11.04
419.849	11.06
420.057	11.22
420.265	10.95
420.472	10.8
420.68	10.88
420.887	10.79
421.095	10.85
421.302	10.9
421.51	10.93
421.717	11
421.925	11.06
422.132	10.91
422.34	10.75
422.547	10.86
422.755	10.8
422.962	10.85
423.17	10.8
423.377	10.87
423.585	10.71
423.792	10.83
423.999	10.79
424.207	10.74
424.414	10.79
424.621	10.87
424.829	10.7
425.036	10.71
425.243	10.7
425.451	10.63
425.658	10.41
425.865	10.36
426.072	10.38
426.28	10.31
426.487	10.06
426.694	10.21
426.901	10.21
427.108	10.11
427.315	10.11
427.523	10.43
427.73	10.44
427.937	10.18
428.144	10.11
428.351	10.23
428.558	10.14
428.765	10.02
428.972	10.2
429.179	10.21
429.386	10.21
429.593	10.19
429.8	10.1
430.007	10.31
430.214	10.49
430.421	10.53
430.628	10.49
430.835	10.39
431.042	10.4
431.249	10.46
431.456	10.55
431.662	10.64
431.869	10.79
432.076	10.61
432.283	10.44
432.49	10.16
432.697	10.14
432.903	9.98
433.11	9.99
433.317	10.09
433.524	10.3
433.73	10.24
433.937	10.49
434.144	10.54
434.35	10.5
434.557	10.48
434.764	10.44
434.97	10.35
435.177	10.41
435.384	10.23
435.59	10.32
435.797	10.47
436.003	10.56
436.21	10.49
436.416	10.6
436.623	10.43
436.829	10.4
437.036	10.38
437.242	10.33
437.449	10.38
437.655	10.41
437.862	10.47
438.068	10.44
438.275	10.67
438.481	10.81
438.687	10.73
438.894	10.61
439.1	10.56
439.307	10.49
439.513	10.33
439.719	10.4
439.926	10.48
440.132	10.53
440.338	10.46
440.544	10.56
440.751	10.47
440.957	10.64
441.163	10.47
441.369	10.6
441.575	10.38
441.782	10.44
441.988	10.25
442.194	10.46
442.4	10.27
442.606	10.55
442.812	10.61
443.018	10.69
443.224	10.75
443.431	10.94
443.637	10.87
443.843	10.75
444.049	10.74
444.255	10.62
444.461	10.55
444.667	10.55
444.873	10.64
445.079	10.72
445.284	10.75
445.49	10.64
445.696	10.45
445.902	10.52
446.108	10.45
446.314	10.37
446.52	10.6
446.726	10.85
446.931	10.72
447.137	10.77
447.343	10.9
447.549	10.58
447.755	10.46
447.96	10.63
448.166	10.65
448.372	10.66
448.578	10.8
448.783	10.9
448.989	10.93
449.195	10.92
449.4	10.83
449.606	10.76
449.812	10.63
450.017	10.64
450.223	10.62
450.428	10.49
450.634	10.61
450.84	10.76
451.045	10.64
451.251	10.56
451.456	10.78
451.662	10.78
451.867	10.74
452.073	10.65
452.278	10.78
452.483	10.89
452.689	10.87
452.894	10.97
453.1	11.06
453.305	10.95
453.51	10.83
453.716	10.77
453.921	10.62
454.127	10.62
454.332	10.59
454.537	10.58
454.742	10.68
454.948	10.7
455.153	10.64
455.358	10.77
455.563	10.8
455.769	10.76
455.974	10.72
456.179	10.72
456.384	10.56
456.589	10.53
456.795	10.33
457	10.36
457.205	10.4
457.41	10.38
457.615	10.35
457.82	10.53
458.025	10.52
458.23	10.45
458.435	10.6
458.64	10.45
458.845	10.46
459.05	10.43
459.255	10.38
459.46	10.34
459.665	10.47
459.87	10.47
460.075	10.44
460.28	10.55
460.485	10.68
460.69	10.68
460.895	10.47
461.099	10.43
461.304	10.59
461.509	10.57
461.714	10.48
461.919	10.65
462.123	10.68
462.328	10.64
462.533	10.41
462.738	10.48
462.942	10.41
463.147	10.6
463.352	10.49
463.556	10.48
463.761	10.58
463.966	10.78
464.17	10.72
464.375	10.78
464.58	10.74
464.784	10.64
464.989	10.48
465.193	10.44
465.398	10.41
465.602	10.72
465.807	10.76
466.011	10.89
466.216	10.87
466.42	10.9
466.625	10.78
466.829	10.91
467.034	10.9
467.238	11
467.443	10.94
467.647	10.78
467.851	10.7
468.056	10.69
468.26	10.61
468.464	10.6
468.669	10.78
468.873	10.81
469.077	10.86
469.282	10.87
469.486	11.03
469.69	11.01
469.894	11.03
470.099	11.02
470.303	11.05
470.507	10.83
470.711	10.79
470.915	10.75
471.119	10.72
471.324	10.7
471.528	10.73
471.732	10.82
471.936	10.9
472.14	10.92
472.344	11.03
472.548	11.18
472.752	11.15
472.956	11.21
473.16	11.21
473.364	11.14
473.568	11.17
473.772	11.25
473.976	11.17
474.18	11.18
474.384	11.1
474.588	11.03
474.792	10.93
474.995	11.02
475.199	11.08
475.403	11.19
475.607	11.2
475.811	11.2
476.015	11.17
476.218	11.2
476.422	11.14
476.626	11.22
476.83	11.46
477.033	11.43
477.237	11.27
477.441	11.35
477.644	11.25
477.848	11.16
478.052	11.04
478.255	11.1
478.459	11.18
478.663	11.42
478.866	11.43
479.07	11.6
479.273	11.78
479.477	11.82
479.681	11.7
479.884	11.69
480.088	11.63
480.291	11.52
480.495	11.43
480.698	11.4
480.901	11.5
481.105	11.63
481.308	11.68
481.512	11.76
481.715	11.89
481.919	11.85
482.122	11.77
482.325	11.79
482.529	11.77
482.732	11.75
482.935	11.64
483.138	11.62
483.342	11.61
483.545	11.77
483.748	11.8
483.952	11.85
484.155	11.99
484.358	11.99
484.561	11.85
484.764	11.84
484.967	11.91
485.171	11.91
485.374	11.9
485.577	11.96
485.78	11.96
485.983	11.98
486.186	11.96
486.389	11.95
486.592	12.01
486.795	12.04
486.998	12.01
487.201	12
487.404	12.07
487.607	12.13
487.81	12.18
488.013	12.22
488.216	12.22
488.419	12.26
488.622	12.07
488.825	12.04
489.028	12.05
489.231	12.14
489.433	12.05
489.636	12.1
489.839	11.99
490.042	11.91
490.245	11.77
490.447	11.83
490.65	11.84
490.853	12.02
491.056	12.12
491.258	12.25
491.461	12.3
491.664	12.43
491.866	12.25
492.069	12.27
492.272	12.24
492.474	12.29
492.677	12.22
492.879	12.47
493.082	12.56
493.285	12.71
493.487	12.61
493.69	12.57
493.892	12.4
494.095	12.35
494.297	12.19
494.5	12.32
494.702	12.48
494.905	12.61
495.107	12.69
495.309	12.84
495.512	12.83
495.714	12.88
495.917	12.95
496.119	12.92
496.321	13.03
496.524	13.17
496.726	13.21
496.928	13.22
497.13	13.24
497.333	13.21
497.535	13.19
497.737	13.14
497.939	13.12
498.142	13.32
498.344	13.23
498.546	13.17
498.748	13.23
498.95	13.33
499.152	13.22
499.355	13.35
499.557	13.44
499.759	13.49
499.961	13.43
500.163	13.56
500.365	13.6
500.567	13.6
500.769	13.59
500.971	13.73
501.173	13.58
501.375	13.61
501.577	13.67
501.779	13.75
501.981	13.77
502.183	13.92
502.385	13.92
502.587	13.96
502.788	13.99
502.99	13.99
503.192	14.06
503.394	14.05
503.596	14
503.798	14.15
503.999	14.26
504.201	14.27
504.403	14.45
504.605	14.65
504.806	14.58
505.008	14.52
505.21	14.57
505.411	14.58
505.613	14.52
505.815	14.62
506.016	14.76
506.218	14.89
506.42	14.87
506.621	14.94
506.823	15
507.024	15
507.226	14.96
507.427	14.97
507.629	15.08
507.83	15.08
508.032	15.01
508.233	15.1
508.435	15.23
508.636	15.2
508.838	15.15
509.039	15.26
509.24	15.33
509.442	15.38
509.643	15.37
509.845	15.52
510.046	15.58
510.247	15.54
510.448	15.55
510.65	15.69
510.851	15.77
511.052	15.87
511.254	15.87
511.455	15.92
511.656	15.93
511.857	15.9
512.058	15.88
512.26	15.97
512.461	15.93
512.662	16
512.863	15.91
513.064	15.92
513.265	15.99
513.466	16.12
513.667	16.09
513.868	16.24
514.069	16.36
514.27	16.42
514.471	16.37
514.672	16.5
514.873	16.64
515.074	16.66
515.275	16.57
515.476	16.73
515.677	16.72
515.878	16.75
516.079	16.7
516.28	16.81
516.481	16.87
516.682	16.92
516.882	16.89
517.083	16.99
517.284	16.86
517.485	16.77
517.686	16.78
517.886	16.75
518.087	16.8
518.288	17.03
518.488	17.03
518.689	17.03
518.89	17.03
519.091	17.06
519.291	17.01
519.492	17.1
519.692	17.17
519.893	17.32
520.094	17.36
520.294	17.39
520.495	17.41
520.695	17.46
520.896	17.46
521.096	17.48
521.297	17.56
521.497	17.66
521.698	17.6
521.898	17.63
522.099	17.69
522.299	17.75
522.499	17.78
522.7	17.87
522.9	17.9
523.101	17.93
523.301	17.95
523.501	17.92
523.702	17.94
523.902	18.01
524.102	18.06
524.302	18.09
524.503	18.16
524.703	18.24
524.903	18.21
525.103	18.17
525.304	18.19
525.504	18.23
525.704	18.25
525.904	18.26
526.104	18.3
526.304	18.32
526.504	18.38
526.705	18.41
526.905	18.46
527.105	18.5
527.305	18.55
527.505	18.49
527.705	18.49
527.905	18.53
528.105	18.59
528.305	18.49
528.505	18.54
528.705	18.65
528.905	18.69
529.105	18.73
529.304	18.88
529.504	19.05
529.704	18.95
529.904	18.96
530.104	19.03
530.304	19.12
530.503	19.07
530.703	19.11
530.903	19.15
531.103	19.18
531.303	19
531.502	19.03
531.702	19.16
531.902	19.23
532.101	19.22
532.301	19.35
532.501	19.34
532.7	19.34
532.9	19.28
533.1	19.33
533.299	19.31
533.499	19.39
533.698	19.38
533.898	19.46
534.097	19.5
534.297	19.57
534.496	19.56
534.696	19.67
534.895	19.85
535.095	19.9
535.294	19.94
535.494	19.93
535.693	19.91
535.892	19.83
536.092	19.86
536.291	19.91
536.491	19.93
536.69	20.11
536.889	20.02
537.088	19.97
537.288	20.05
537.487	20.21
537.686	20.12
537.886	20.35
538.085	20.43
538.284	20.36
538.483	20.31
538.682	20.48
538.882	20.47
539.081	20.59
539.28	20.66
539.479	20.77
539.678	20.73
539.877	20.79
540.076	20.82
540.275	21.03
540.474	21.07
540.673	21.18
540.872	21.26
541.071	21.25
541.27	21.19
541.469	21.23
541.668	21.25
541.867	21.23
542.066	21.3
542.265	21.45
542.464	21.55
542.663	21.7
542.862	21.89
543.06	21.96
543.259	21.96
543.458	21.96
543.657	21.87
543.856	21.86
544.054	21.94
544.253	21.94
544.452	22.01
544.651	22.1
544.849	22.12
545.048	22.23
545.247	22.3
545.445	22.42
545.644	22.49
545.843	22.52
546.041	22.54
546.24	22.74
546.438	22.77
546.637	22.86
546.836	23.12
547.034	23.19
547.233	23.19
547.431	23.26
547.63	23.42
547.828	23.42
548.027	23.54
548.225	23.57
548.423	23.74
548.622	23.79
548.82	23.85
549.019	23.87
549.217	24.07
549.415	24.15
549.614	24.29
549.812	24.38
550.01	24.44
550.209	24.52
550.407	24.56
550.605	24.71
550.803	24.85
551.002	25.01
551.2	25
551.398	25.14
551.596	25.17
551.794	25.26
551.993	25.44
552.191	25.54
552.389	25.61
552.587	25.64
552.785	25.69
552.983	25.78
553.181	26.03
553.379	26.16
553.577	26.31
553.775	26.42
553.973	26.43
554.171	26.62
554.369	26.68
554.567	26.71
554.765	26.8
554.963	27.02
555.161	26.94
555.359	27.22
555.557	27.45
555.755	27.6
555.952	27.73
556.15	27.88
556.348	27.9
556.546	27.99
556.744	28.11
556.941	28.18
557.139	28.27
557.337	28.28
557.535	28.34
557.732	28.46
557.93	28.6
558.128	28.8
558.325	29
558.523	29.18
558.721	29.4
558.918	29.49
559.116	29.54
559.313	29.61
559.511	29.8
559.708	29.91
559.906	30.06
560.104	30.28
560.301	30.58
560.498	30.65
560.696	30.65
560.893	30.68
561.091	30.78
561.288	30.83
561.486	30.94
561.683	31.15
561.88	31.42
562.078	31.62
562.275	31.72
562.473	31.84
562.67	32.05
562.867	32.12
563.064	32.14
563.262	32.2
563.459	32.43
563.656	32.43
563.853	32.54
564.051	32.63
564.248	32.85
564.445	32.86
564.642	33.11
564.839	33.18
565.036	33.49
565.234	33.71
565.431	33.76
565.628	33.76
565.825	33.97
566.022	33.98
566.219	33.99
566.416	34.15
566.613	34.18
566.81	34.28
567.007	34.28
567.204	34.14
567.401	34.19
567.598	34.39
567.795	34.34
567.991	34.42
568.188	34.73
568.385	34.8
568.582	34.92
568.779	35.02
568.976	35.19
569.172	35.4
569.369	35.59
569.566	35.53
569.763	35.71
569.96	35.7
570.156	35.62
570.353	35.58
570.55	35.66
570.746	35.72
570.943	35.75
571.14	35.78
571.336	35.86
571.533	35.92
571.729	35.99
571.926	36.11
572.123	36.14
572.319	36.23
572.516	36.28
572.712	36.28
572.909	36.45
573.105	36.53
573.302	36.52
573.498	36.6
573.695	36.54
573.891	36.6
574.087	36.62
574.284	36.58
574.48	36.51
574.677	36.6
574.873	36.49
575.069	36.49
575.266	36.68
575.462	36.73
575.658	36.84
575.854	36.96
576.051	37.04
576.247	36.97
576.443	37
576.639	36.93
576.835	36.87
577.032	36.89
577.228	36.84
577.424	36.89
577.62	36.75
577.816	36.71
578.012	36.69
578.208	36.66
578.404	36.64
578.6	36.78
578.796	36.91
578.993	36.86
579.189	36.97
579.384	36.82
579.58	36.8
579.776	36.62
579.972	36.63
580.168	36.59
580.364	36.65
580.56	36.68
580.756	36.73
580.952	36.56
581.148	36.5
581.343	36.55
581.539	36.44
581.735	36.37
581.931	36.47
582.127	36.5
582.322	36.33
582.518	36.45
582.714	36.39
582.909	36.35
583.105	36.3
583.301	36.33
583.496	36.27
583.692	36.25
583.888	36.19
584.083	36.16
584.279	36.2
584.474	36.15
584.67	36.12
584.866	36.19
585.061	36.11
585.257	36.11
585.452	35.94
585.648	35.98
585.843	35.93
586.039	35.91
586.234	35.76
586.429	35.74
586.625	35.77
586.82	35.67
587.015	35.71
587.211	35.7
587.406	35.77
587.601	35.7
587.797	35.62
587.992	35.47
588.187	35.61
588.383	35.57
588.578	35.57
588.773	35.71
588.968	35.79
589.163	35.71
589.359	35.63
589.554	35.49
589.749	35.54
589.944	35.63
590.139	35.59
590.334	35.67
590.529	35.86
590.724	35.89
590.919	35.73
591.114	35.83
591.309	35.89
591.504	35.8
591.699	35.63
591.894	35.7
592.089	35.49
592.284	35.46
592.479	35.55
592.674	35.63
592.869	35.64
593.064	35.81
593.259	35.85
593.454	35.73
593.648	35.67
593.843	35.73
594.038	35.69
594.233	35.67
594.428	35.81
594.622	35.89
594.817	35.9
595.012	35.95
595.206	35.98
595.401	36.14
595.596	36.13
595.79	36.21
595.985	36.3
596.18	36.43
596.374	36.39
596.569	36.46
596.763	36.45
596.958	36.41
597.153	36.38
597.347	36.39
597.542	36.55
597.736	36.65
597.931	36.68
598.125	36.84
598.319	36.91
598.514	36.75
598.708	36.87
598.903	36.96
599.097	36.92
599.291	36.96
599.486	37.06
599.68	36.92
599.874	37.06
600.069	37.12
600.263	36.98
600.457	37.04
600.651	37.2
600.846	36.99
601.04	36.94
601.234	36.91
601.428	37.05
601.622	37.1
601.817	37.29
602.011	37.33
602.205	37.56
602.399	37.39
602.593	37.34
602.787	37.31
602.981	37.31
603.175	37.32
603.369	37.33
603.563	37.32
603.757	37.29
603.951	37.28
604.145	37.26
604.339	37.24
604.533	37.15
604.727	37.2
604.921	37.15
605.115	37.14
605.309	37.14
605.502	37.13
605.696	36.96
605.89	36.93
606.084	36.85
606.278	36.81
606.471	36.76
606.665	36.75
606.859	36.69
607.053	36.59
607.246	36.61
607.44	36.55
607.634	36.47
607.827	36.48
608.021	36.33
608.214	36.23
608.408	36.25
608.602	36.27
608.795	36.22
608.989	36.29
609.182	36.25
609.376	36.05
609.569	35.98
609.763	35.8
609.956	35.72
610.15	35.55
610.343	35.54
610.537	35.39
610.73	35.34
610.923	35.16
611.117	35.14
611.31	35.07
611.504	35.04
611.697	34.95
611.89	34.88
612.083	34.69
612.277	34.6
612.47	34.45
612.663	34.41
612.856	34.35
613.05	34.31
613.243	34.15
613.436	33.98
613.629	33.83
613.822	33.76
614.015	33.67
614.209	33.63
614.402	33.7
614.595	33.67
614.788	33.6
614.981	33.65
615.174	33.54
615.367	33.43
615.56	33.36
615.753	33.29
615.946	33.05
616.139	33.12
616.332	33.07
616.525	32.97
616.718	33.01
616.911	32.99
617.103	32.94
617.296	32.93
617.489	32.91
617.682	32.78
617.875	32.82
618.067	32.71
618.26	32.58
618.453	32.6
618.646	32.64
618.838	32.51
619.031	32.39
619.224	32.43
619.417	32.22
619.609	32.05
619.802	32.03
619.994	32.13
620.187	32.07
620.38	32.09
620.572	31.98
620.765	31.96
620.957	31.8
621.15	31.66
621.342	31.57
621.535	31.7
621.727	31.58
621.92	31.52
622.112	31.62
622.305	31.81
622.497	31.63
622.69	31.69
622.882	31.63
623.074	31.51
623.267	31.29
623.459	31.11
623.651	30.99
623.844	31.01
624.036	31.02
624.228	30.98
624.42	31.09
624.613	31.08
624.805	31.04
624.997	30.9
625.189	30.83
625.381	30.87
625.574	30.88
625.766	30.77
625.958	30.81
626.15	30.84
626.342	30.81
626.534	30.74
626.726	30.76
626.918	30.78
627.11	30.73
627.302	30.6
627.494	30.52
627.686	30.5
627.878	30.38
628.07	30.31
628.262	30.36
628.454	30.39
628.646	30.4
628.838	30.42
629.029	30.31
629.221	30.23
629.413	30.05
629.605	29.86
629.797	29.65
629.989	29.68
630.18	29.65
630.372	29.62
630.564	29.64
630.755	29.61
630.947	29.56
631.139	29.39
631.33	29.32
631.522	29.36
631.714	29.32
631.905	29.18
632.097	29.19
632.289	29.16
632.48	29.06
632.672	28.98
632.863	28.8
633.055	28.72
633.246	28.72
633.438	28.56
633.629	28.51
633.821	28.61
634.012	28.56
634.203	28.31
634.395	28.22
634.586	28.28
634.777	28.15
634.969	28.04
635.16	28.14
635.351	28.16
635.543	27.96
635.734	27.8
635.925	27.86
636.117	27.72
636.308	27.56
636.499	27.51
636.69	27.51
636.881	27.37
637.073	27.34
637.264	27.28
637.455	27.2
637.646	27.23
637.837	27.16
638.028	26.94
638.219	26.91
638.41	26.82
638.601	26.68
638.792	26.61
638.983	26.61
639.174	26.47
639.365	26.42
639.556	26.36
639.747	26.27
639.938	26.33
640.129	26.32
640.32	26.14
640.511	26.04
640.701	25.88
640.892	25.72
641.083	25.68
641.274	25.68
641.465	25.65
641.655	25.6
641.846	25.54
642.037	25.4
642.228	25.39
642.418	25.3
642.609	25.1
642.8	25.02
642.99	24.88
643.181	24.8
643.372	24.76
643.562	24.81
643.753	24.74
643.943	24.75
644.134	24.58
644.324	24.44
644.515	24.27
644.705	24.33
644.896	24.23
645.086	24.22
645.277	24.22
645.467	24.2
645.658	23.99
645.848	24.02
646.038	23.98
646.229	23.87
646.419	23.87
646.61	23.77
646.8	23.65
646.99	23.67
647.18	23.66
647.371	23.63
647.561	23.56
647.751	23.47
647.941	23.31
648.132	23.29
648.322	23.2
648.512	23.24
648.702	23.28
648.892	23.25
649.082	23.22
649.272	23.17
649.462	23.05
649.653	23.02
649.843	23
650.033	22.97
650.223	22.9
650.413	22.92
650.603	22.92
650.793	22.91
650.983	22.76
651.172	22.68
651.362	22.61
651.552	22.43
651.742	22.31
651.932	22.39
652.122	22.51
652.312	22.54
652.502	22.63
652.691	22.68
652.881	22.58
653.071	22.53
653.261	22.34
653.45	22.19
653.64	22.11
653.83	22.07
654.019	22.04
654.209	22.13
654.399	22.2
654.588	22.18
654.778	22.11
654.968	21.95
655.157	21.86
655.347	21.7
655.536	21.58
655.726	21.44
655.915	21.29
656.105	21.24
656.294	21.06
656.484	20.82
656.673	20.72
656.863	20.77
657.052	20.45
657.241	20.44
657.431	20.34
657.62	20.12
657.809	19.91
657.999	19.87
658.188	19.57
658.377	19.49
658.567	19.41
658.756	19.19
658.945	19.01
659.134	18.87
659.324	18.61
659.513	18.5
659.702	18.23
659.891	18.07
660.08	17.94
660.269	17.87
660.458	17.68
660.648	17.65
660.837	17.5
661.026	17.27
661.215	17.14
661.404	16.82
661.593	16.77
661.782	16.51
661.971	16.49
662.16	16.42
662.349	16.39
662.538	16.05
662.726	16.08
662.915	15.92
663.104	15.57
663.293	15.43
663.482	15.42
663.671	15.24
663.86	15.01
664.048	14.91
664.237	14.88
664.426	14.64
664.615	14.58
664.803	14.6
664.992	14.58
665.181	14.48
665.369	14.27
665.558	14.11
665.747	13.94
665.935	13.91
666.124	13.78
666.312	14.03
666.501	13.97
666.69	13.85
666.878	13.62
667.067	13.56
667.255	13.44
667.444	13.48
667.632	13.52
667.82	13.56
668.009	13.54
668.197	13.43
668.386	13.24
668.574	13.26
668.762	13.16
668.951	12.97
669.139	12.87
669.327	12.84
669.516	12.8
669.704	12.9
669.892	13.02
670.08	13.11
670.269	13.08
670.457	12.98
670.645	12.9
670.833	12.96
671.021	12.87
671.21	12.94
671.398	13.07
671.586	13.08
671.774	13.06
671.962	13.08
672.15	12.99
672.338	12.78
672.526	12.74
672.714	12.58
672.902	12.69
673.09	12.89
673.278	13.2
673.466	13.39
673.654	13.75
673.842	13.81
674.03	13.89
674.218	13.89
674.405	13.84
674.593	13.93
674.781	14.05
674.969	14.03
675.157	14.12
675.344	14.33
675.532	14.22
675.72	14.25
675.908	14.32
676.095	14.21
676.283	14.29
676.471	14.43
676.658	14.64
676.846	14.76
677.033	15
677.221	14.9
677.409	15.05
677.596	14.91
677.784	14.98
677.971	15.15
678.159	15.37
678.346	15.42
678.534	15.57
678.721	15.77
678.909	15.76
679.096	16.01
679.283	16.17
679.471	16.49
679.658	16.69
679.846	16.94
680.033	17.15
680.22	17.3
680.408	17.39
680.595	17.5
680.782	17.56
680.969	17.73
681.157	17.66
681.344	17.74
681.531	17.83
681.718	17.89
681.905	17.99
682.093	18.29
682.28	18.59
682.467	18.9
682.654	19.28
682.841	19.42
683.028	19.79
683.215	20.07
683.402	20.19
683.589	20.46
683.776	20.65
683.963	20.85
684.15	21.2
684.337	21.45
684.524	21.69
684.711	22.09
684.898	22.36
685.085	22.47
685.271	22.97
685.458	23.66
685.645	24
685.832	24.33
686.019	24.83
686.205	25.17
686.392	25.13
686.579	25.42
686.766	26
686.952	26.41
687.139	26.96
687.326	27.49
687.512	28.16
687.699	28.48
687.886	28.82
688.072	29.04
688.259	29.78
688.445	30.21
688.632	30.72
688.818	31.45
689.005	31.8
689.191	32.13
689.378	32.77
689.564	33.5
689.751	33.83
689.937	34.98
690.124	35.5
690.31	36.08
690.496	36.5
690.683	37.59
690.869	38.15
691.055	38.88
691.242	39.63
691.428	40.25
691.614	40.72
691.8	41.33
691.987	41.9
692.173	42.56
692.359	43.27
692.545	43.95
692.731	44.23
692.918	44.97
693.104	45.53
693.29	46.45
693.476	47.03
693.662	48.05
693.848	48.66
694.034	49.29
694.22	49.71
694.406	50.67
694.592	51.31
694.778	51.9
694.964	52.31
695.15	52.81
695.336	53
695.522	53.59
695.708	54.16
695.894	54.77
696.08	55.35
696.265	55.88
696.451	56.33
696.637	57.25
696.823	57.93
697.009	58.71
697.194	59.36
697.38	60.05
697.566	60.26
697.751	60.74
697.937	61.35
698.123	62.28
698.308	63.05
698.494	63.65
698.68	64.23
698.865	64.7
699.051	64.99
699.236	65.4
699.422	65.92
699.607	66.36
699.793	66.81
699.978	67
700.164	67.06
700.349	67.88
700.535	68.34
700.72	68.38
700.906	69.03
701.091	69.53
701.276	69.44
701.462	70.23
701.647	70.97
701.832	71.49
702.018	71.97
702.203	72.67
702.388	72.85
702.573	73.34
702.759	73.8
702.944	73.96
703.129	74.29
703.314	74.8
703.499	75.22
703.684	75.61
703.87	76.27
704.055	76.8
704.24	76.84
704.425	77.01
704.61	77.13
704.795	77.34
704.98	77.17
705.165	77.49
705.35	77.73
705.535	77.8
705.72	78.49
705.905	78.98
706.09	79.42
706.275	79.59
706.459	79.88
706.644	79.3
706.829	79.88
707.014	79.86
707.199	80.36
707.384	80.49
707.568	80.98
707.753	81.09
707.938	81.59
708.123	81.82
708.307	82.14
708.492	82.44
708.677	81.99
708.861	81.8
709.046	81.33
709.231	81.72
709.415	81.77
709.6	82.88
709.784	83.16
709.969	84.04
710.153	83.89
710.338	84.41
710.522	83.7
710.707	84.43
710.891	84.24
711.076	84.76
711.26	84.27
711.445	84.85
711.629	84.71
711.813	85.24
711.998	85.47
712.182	85.7
712.366	85.93
712.551	85.99
712.735	85.45
712.919	85.33
713.103	85.87
713.288	85.47
713.472	85.64
713.656	86.38
713.84	86.89
714.024	87.05
714.208	87.55
714.393	88.07
714.577	88.12
714.761	88
714.945	88.22
715.129	88.18
715.313	87.57
715.497	87.36
715.681	87.56
715.865	87.59
716.049	88.06
716.233	88.62
716.417	89.03
716.601	89.35
716.785	89.31
716.968	89.12
717.152	89.31
717.336	89.67
717.52	89.15
717.704	89.47
717.888	90.17
718.071	89.84
718.255	89.5
718.439	89.93
718.622	89.98
718.806	89.91
718.99	89.62
719.174	89.81
719.357	90.11
719.541	89.71
719.724	89.92
719.908	91.15
720.092	91.88
720.275	91.76
720.459	92.77
720.642	92.18
720.826	91.8
721.009	91.46
721.193	90.96
721.376	90.22
721.559	91.19
721.743	91.86
721.926	91.93
722.11	91.75
722.293	92.53
722.476	91.57
722.66	90.85
722.843	91.07
723.026	91.4
723.21	90.95
723.393	92.3
723.576	92.6
723.759	91.83
723.942	92.28
724.126	92.58
724.309	92.23
724.492	92.03
724.675	93.2
724.858	93.4
725.041	93.74
725.224	93.45
725.407	93.84
725.59	93.38
725.774	93.63
725.957	93.13
726.14	93.38
726.322	93.53
726.505	93.23
726.688	93.56
726.871	94.02
727.054	94.68
727.237	94.61
727.42	95.31
727.603	95.2
727.786	95.27
727.968	94.93
728.151	94.73
728.334	94.24
728.517	94.19
728.699	94.68
728.882	94.19
729.065	94.67
729.248	95.55
729.43	96.07
729.613	96.59
729.796	97.21
729.978	96.8
730.161	96.33
730.343	96.55
730.526	96.09
730.708	96.07
730.891	97.04
731.073	96.53
731.256	95.11
731.438	95.62
731.621	95.76
731.803	95.86
731.986	97.14
732.168	98.53
732.35	98.01
732.533	97.87
732.715	97.31
732.898	97.37
733.08	97.44
733.262	97.78
733.444	97.59
733.627	97.71
733.809	98.07
733.991	98.22
734.173	98.17
734.355	98.43
734.538	98.56
734.72	97.58
734.902	97.63
735.084	96.97
735.266	97.15
735.448	97.11
735.63	97.18
735.812	97.4
735.994	98.41
736.176	98.4
736.358	99.03
736.54	100.26
736.722	100.25
736.904	99.93
737.086	99.36
737.268	100.14
737.45	100.54
737.632	100.37
737.814	100.17
737.995	101.56
738.177	100.97
738.359	100.22
738.541	100.43
738.723	101.35
738.904	101.27
739.086	100.73
739.268	100.55
739.449	100.2
739.631	100.1
739.813	100.19
739.994	100.72
740.176	100.52
740.358	101.2
740.539	101.68
740.721	101.64
740.902	102.45
741.084	102.56
741.265	101.81
741.447	101.76
741.628	101.65
741.81	99.89
741.991	101.72
742.172	102.52
742.354	101.37
742.535	101.45
742.717	103.6
742.898	102.01
743.079	102.49
743.261	102.84
743.442	102.65
743.623	101.07
743.804	102.22
743.986	102.03
744.167	101.1
744.348	102.04
744.529	102.54
744.71	100.82
744.891	100.69
745.073	102.27
745.254	101.57
745.435	102.69
745.616	102.38
745.797	101.44
745.978	100.97
746.159	100.38
746.34	98.83
746.521	100.07
746.702	100.6
746.883	100.25
747.064	98.78
747.245	98.94
747.426	98.58
747.606	97.92
747.787	98.71
747.968	99.55
748.149	100
748.33	100.31
748.51	100.24
748.691	98.38
748.872	99.19
749.053	99.09
749.233	99.31
749.414	99.83
749.595	101.15
749.775	100.67
749.956	98.92
750.137	96.96
750.317	96.83
750.498	96.89
750.678	96.88
750.859	99.11
751.04	101.41
751.22	101.02
751.4	100.31
751.581	100.54
751.761	100.54
751.942	99.87
752.122	100.82
752.303	101.07
752.483	101.32
752.663	100.96
752.844	101.98
753.024	102.07
753.204	101.75
753.385	101.48
753.565	99.98
753.745	97.53
753.925	97.65
754.106	99.49
754.286	100.74
754.466	100.54
754.646	102.47
754.826	101.67
755.006	98.46
755.187	98.02
755.367	99.91
755.547	100.51
755.727	101.17
755.907	101.53
756.087	101.92
756.267	100.05
756.447	99.66
756.627	98.58
756.807	102.08
756.987	101.23
757.167	102.91
757.346	101.29
757.526	99.5
757.706	97.23
757.886	96.8
758.066	96.67
758.246	98.4
758.425	100.66
758.605	100.2
758.785	100.26
758.965	99.7
759.144	96.94
759.324	96.92
759.504	98.01
759.683	97.34
759.863	95.84
760.043	97.39
760.222	96.9
760.402	94.76
760.581	96.01
760.761	98.08
760.94	95.63
761.12	94.51
761.299	97.32
761.479	96.26
761.658	94.06
761.838	95.86
762.017	97.06
762.197	95.99
762.376	96.41
762.555	97.6
762.735	97.46
762.914	96.23
763.093	97.01
763.273	94.66
763.452	95.38
763.631	95.27
763.81	93.72
763.99	91.26
764.169	93.04
764.348	90.45
764.527	90.84
764.706	94.61
764.885	96.36
765.064	96.13
765.243	96.5
765.423	96.1
765.602	96.21
765.781	94.9
765.96	92.5
766.139	94.52
766.318	95.35
766.497	94.17
766.676	95.02
766.854	97.9
767.033	97.47
767.212	96.11
767.391	95.61
767.57	96.03
767.749	96.41
767.928	95.76
768.106	93.73
768.285	92.66
768.464	93.71
768.643	94.45
768.821	94.89
769	98.33
769.179	100.01
769.357	94.15
769.536	91.97
769.715	93.24
769.893	91.91
770.072	90.16
770.25	91.58
770.429	92.19
770.607	90.36
770.786	91.33
770.964	92.93
771.143	97.12
771.321	99.02
771.5	99.9
771.678	98.47
771.857	96.06
772.035	95.53
772.213	91.98
772.392	89.42
772.57	90.06
772.748	93.25
772.927	89.76
773.105	91.07
773.283	94.01
773.461	94.95
773.64	92.15
773.818	91.38
773.996	92.16
774.174	92.41
774.352	89.99
774.531	90.73
774.709	94.14
774.887	93.8
775.065	89.69
775.243	89.79
775.421	90.47
775.599	92.66
775.777	89.92
775.955	89.21
776.133	88.32
776.311	86.1
776.489	81.62
776.667	84.78
776.844	88.8
777.022	88.53
777.2	89.44
777.378	90.09
777.556	90.11
777.734	88.67
777.911	91
778.089	90.15
778.267	92.59
778.445	88.73
778.622	88.48
778.8	86.87
778.978	89.64
779.155	87.4
779.333	90.16
779.511	86.8
779.688	87.39
779.866	82.55
780.043	81.01
780.221	79.85
780.398	81.43
780.576	82.39
780.753	87.17
780.931	87.37
781.108	87.6
781.286	90.85
781.463	86.34
781.64	84.36
781.818	88.06
781.995	88.22
782.172	87.17
782.35	89.89
782.527	89.73
782.704	85.56
782.882	87.2
783.059	84.94
783.236	85.27
783.413	86.35
783.59	88.97
783.768	83.63
783.945	83.37
784.122	84.33
784.299	83.81
784.476	81.96
784.653	85.14
784.83	84.2
785.007	78.99
785.184	78.58
785.361	78.94
785.538	80.85
785.715	82.71
785.892	88.48
786.069	88.86
786.246	88.66
786.423	83.3
786.6	84.2
786.776	84.79
786.953	84.43
787.13	86.07
787.307	89.46
787.484	91.11
787.66	88.5
787.837	82.93
788.014	82.63
788.191	81.67
788.367	81.03
788.544	82.4
788.721	85.36
788.897	82.77
789.074	83.11
789.25	80.45
789.427	80.26
789.603	80.45
789.78	86.71
789.956	78.35
790.133	79.41
790.309	77.15
790.486	78.47
790.662	72.95
790.839	80.86
791.015	84.08
791.192	81.5
791.368	82.23
791.544	80.26
791.721	84.25
791.897	81.35
792.073	82.11
792.249	78.44
792.426	83.19
792.602	82.34
792.778	76.41
792.954	76.1
793.13	75.25
793.307	71.56
793.483	63.63
793.659	66.01
793.835	68.81
794.011	74.08
794.187	68.74
794.363	68.26
794.539	71.74
794.715	70.28
794.891	64.5
795.067	68.29
795.243	75.59
795.419	75.63
795.595	74.8
795.771	79.35
795.947	84.18
796.122	73.25
796.298	75.31
796.474	76.53
796.65	75.62
796.826	73.27
797.001	83.33
797.177	76.01
797.353	78.09
797.529	79.54
797.704	74.18
797.88	71.26
798.056	71.13
798.231	72.17
798.407	73.61
798.582	76.43
798.758	82.46
798.934	88.09
799.109	81.65
799.285	75.22
799.46	83.81
799.636	79.62
799.811	78.59
799.986	86.08
800.162	94.49
800.337	87.68
800.513	83.54
800.688	81.25
800.863	84.98
801.039	77.13
801.214	74.43
801.389	79.48
801.565	84.05
801.74	75.21
801.915	77.72
802.09	84.41
802.265	86.07
802.441	84.52
802.616	83.39
802.791	87.85
802.966	84.01
803.141	79.44
803.316	67.14
803.491	69.12
803.666	65.57
803.841	63.28
804.016	61.07
804.191	73.25
804.366	71.16
804.541	69.52
804.716	63.44
804.891	61.91
805.066	60.23
805.241	65.94
805.416	70.13
805.591	75.78
805.765	78.7
805.94	83.86
806.115	79.84
806.29	71.16
806.464	76.89
806.639	76.37
806.814	62.82
806.989	52.22
807.163	60.62
807.338	51.24
807.512	52.33
807.687	51.91
807.862	64.17
808.036	60.74
808.211	60.25
808.385	62.33
808.56	69.14
808.734	64.72
808.909	70.29
809.083	72.34
809.258	75.99
809.432	80.46
809.606	72.09
809.781	68.21
809.955	73.14
810.13	71.25
810.304	57.75
810.478	57.85
810.652	65.44
810.827	67.08
811.001	68.34
811.175	72.12
811.349	76.72
811.524	65.43
811.698	55.29
811.872	49.51
812.046	56.4
812.22	59.24
812.394	55.18
812.568	58.26
812.742	62.14
812.916	53.16
813.09	50.63
813.264	54.41
813.438	57.82
813.612	48.22
813.786	38.08
813.96	52.05
814.134	60
814.308	62.99
814.482	69.62
814.656	90.9
814.83	94.22
815.003	87.48
815.177	80.21
815.351	80.47
815.525	83.07
815.698	71.45
815.872	59.57
816.046	55.05
816.219	51.59
816.393	51.52
816.567	53.76
816.74	61.92
816.914	77.56
817.088	87.44
817.261	77.03
817.435	72.69
817.608	65.94
817.782	53.71
817.955	41.32
818.129	32.81
818.302	41.81
818.475	62.47
818.649	65.66
818.822	58.82
818.996	69.52
819.169	70.79
819.342	59.6
819.516	63.5
819.689	85.3
819.862	82.75
820.035	70.29
820.209	60.36
820.382	67.76
820.555	61.13
820.728	53.54
820.901	44.96
821.075	55.32
821.248	59.7
821.421	53.56
821.594	49.07
821.767	72.18
821.94	92.21
822.113	59.53
822.286	54.16
822.459	78.49
822.632	67.27
822.805	50.83
822.978	58.94
823.151	70
823.324	45.49
823.496	20.46
823.669	24.39
823.842	32.55
824.015	19.2
824.188	11.63
824.361	19.01
824.533	14.63
824.706	29.15
824.879	42.03
825.051	78.55
825.224	79.63
825.397	76.23
825.569	62.73
825.742	61.58
825.915	60.89
826.087	63.23
826.26	56.96
826.432	53.35
826.605	60.29
826.777	63.52
826.95	55.95
827.122	58.01
827.295	65.72
827.467	56.38
827.64	32.18
827.812	25.58
827.984	31.62
828.157	18.96
828.329	10.65
828.501	17.72
828.674	42.09
828.846	32.32
829.018	44.12
829.19	49.71
829.363	55.22
829.535	51.28
829.707	63.69
829.879	51.16
830.051	43.83
830.223	50.33
830.395	24
830.568	16.57
830.74	26.37
830.912	43.53
831.084	27.61
831.256	26.3
831.428	15.25
831.6	-3.25
831.772	-20.79
831.943	-19.51
832.115	7.17
832.287	38.65
832.459	48.69
832.631	51.01
832.803	66.52
832.975	61.18
833.146	55.45
833.318	55.24
833.49	64.42
833.662	56.47
833.833	37.72
834.005	31.42
834.177	47.87
834.348	33.31
834.52	10.17
834.692	24.26
834.863	24.55
835.035	3.95
835.206	10.53
835.378	34.43
835.549	16.15
835.721	22.19
835.892	28.14
836.064	31.48
836.235	34.68
836.407	66.8
836.578	43.34
836.749	50.5
836.921	53.06
837.092	44.12
837.264	13.09
837.435	3.27
837.606	2.17
837.777	27.25
837.949	38.98
838.12	29.28
838.291	49.26
838.462	58.03
838.633	41.9
838.805	25.16
838.976	42.38
839.147	42.01
839.318	5.02
839.489	-22.13
839.66	1.5
839.831	21
840.002	10.63
840.173	17.23
840.344	31.49
840.515	21.9
840.686	-16.88
840.857	-16.68
841.028	-26.23
841.199	-9.02
841.369	-21
841.54	-20.6
841.711	8.33
841.882	29.06
842.053	19.72
842.223	3.04
842.394	24.25
842.565	26.44
842.736	22.8
842.906	7.89
843.077	32.76
843.248	54.41
843.418	34.7
843.589	37.29
843.759	71.02
843.93	80.47
844.101	58.06
844.271	80.88
844.442	100.69
844.612	101.24
844.783	70.15
844.953	45.01
845.123	30.37
845.294	16.53
845.464	-15.7
845.635	1.14
845.805	34.62
845.975	41.24
846.146	13.63
846.316	3.49
846.486	25.1
846.656	3.92
846.827	-36.17
846.997	-15.39
847.167	22.58
847.337	-14.71
847.507	-8.6
847.677	0.62
847.848	23.56
848.018	20.66
848.188	43.12
848.358	38.33
848.528	40.19
848.698	11.22
848.868	-17.89
849.038	-37.4
849.208	-21.36
849.378	-4.94
849.548	-14.26
849.718	4.89
849.887	56.96
850.057	-10.26
850.227	-29.8
850.397	-23.69
850.567	-14.83
850.737	-13.67
850.906	-8.77
851.076	-33.33
851.246	-15.48
851.415	-8.06
851.585	-11.84
851.755	-9.05
851.924	28.95
852.094	25.47
852.264	13.06
852.433	-6.74
852.603	5.89
852.772	-16.23
852.942	-19.71
853.111	-31.98
853.281	17.91
853.45	32.24
853.62	7.15
853.789	-40.6
853.959	12.29
854.128	-27.61
854.297	-72.51
854.467	-73.93
854.636	-20.84
854.805	-21.96
854.975	-46.4
855.144	-16.99
855.313	45.57
855.482	41.79
855.652	1.81
855.821	30.13
855.99	44.66
856.159	23.85
856.328	7.04
856.497	14.33
856.667	14.57
856.836	2.21
857.005	-49.65
857.174	-115.64
857.343	-86.64
857.512	-67.72
857.681	-146.71
857.85	-121.81
858.019	-71.77
858.188	-76.98
858.356	-114.37
858.525	-99.96
858.694	-86.03
858.863	-75.87
859.032	-91.75
859.201	-67.17
859.369	-35.29
859.538	-20.25
859.707	-29.41
859.876	-31.75
860.044	-21.83
860.213	-6.56
860.382	-32.57
860.55	-28.3
860.719	23.49
860.888	35.71
861.056	11.2
861.225	43.75
861.393	109.05
861.562	83.54
861.73	31.79
861.899	36.07
862.067	14.34
862.236	16.46
862.404	-36.44
862.572	-42.23
862.741	-6.45
862.909	-15.2
863.078	-48.63
863.246	-47.34
863.414	-35.04
863.582	-120.49
863.751	-84.62
863.919	-80.57
864.087	-14.61
864.255	-4.77
864.424	-30.29
864.592	-13.51
864.76	34.18
864.928	-23.1
865.096	-25.55
865.264	-13.63
865.432	6.46
865.6	-18.64
865.768	-47.85
865.936	-122.18
866.104	-101.43
866.272	-148.8
866.44	-136.76
866.608	-125.22
866.776	-173.05
866.944	-287.17
867.112	-416.49
867.28	-618.03
867.448	-1262.06
867.615	-493.87
867.783	-73.17
867.951	-76.37
868.119	29.42
868.286	3.58
868.454	-13.89
868.622	-40.68
868.789	-21.32
868.957	-12.94
869.125	-17.69
869.292	-14.07
869.46	-11.08
869.627	22.32
869.795	-36.33
869.963	-36.71
870.13	-20.43
870.298	3.53
870.465	-38.38
870.632	-44.88
870.8	-33.44
870.967	-49.68
871.135	-152.43
871.302	-130.32
871.469	-40.86
871.637	-20.27
871.804	4.1
871.971	-3.76
872.139	42.38
872.306	54.2
872.473	36.37
872.64	8.23
872.807	73.7
872.975	62.88
873.142	20.56
873.309	23.27
873.476	100.52
873.643	84.81
873.81	53.8
873.977	31.45
874.144	44.38
874.311	29.64
874.478	-45.5
874.645	-104.31
874.812	-327.36
874.979	19261.9
875.146	-600.73
875.313	-166.52
875.48	-55.69
875.647	-18.76
875.813	-48.39
875.98	-51.32
876.147	-42.08
876.314	-69.31
876.481	-155.34
876.647	-186.59
876.814	-93.51
876.981	-108.16
877.147	-170.74
877.314	-158.03
877.481	-90.36
877.647	-83.66
877.814	-150.91
877.98	-103.74
878.147	-33.49
878.314	9.12
878.48	-61.58
878.647	-48.81
878.813	25.16
878.979	39.86
879.146	2.42
879.312	36.35
879.479	56.11
879.645	32.43
879.811	-37.65
879.978	-19.22
880.144	-32.5
880.31	-45.37
880.477	-111.04
880.643	-92.97
880.809	-70.07
880.975	-18.27
881.142	-69.1
881.308	-39.89
881.474	-10.38
881.64	12.81
881.806	-38.75
881.972	-7.06
882.138	1.48
882.304	18.97
882.47	-77.06
882.636	-127.7
882.802	-123.04
882.968	-37.73
883.134	-115.66
883.3	-148.15
883.466	15.43
883.632	32.49
883.798	-69.7
883.964	-44.87
884.129	-39.69
884.295	-72.98
884.461	-89.78
884.627	-138.24
884.793	-103.81
884.958	-45.47
885.124	-77.44
885.29	-89.96
885.455	-13.56
885.621	-29.93
885.787	-172.8
885.952	-89.11
886.118	-88.31
886.283	-86.17
886.449	-119.62
886.614	-79.6
886.78	-91.36
886.945	-118.88
887.111	-231.89
887.276	-202.45
887.442	-478.52
887.607	-362.22
887.773	-415.3
887.938	-277.94
888.103	-145.89
888.269	-55.32
888.434	-8.04
888.599	1.87
888.764	58.36
888.93	54.69
889.095	24.93
889.26	-23.06
889.425	19.57
889.59	-3.59
889.756	-67.69
889.921	-29.03
890.086	11.38
890.251	2.61
890.416	-37.18
890.581	-8.91
890.746	36.09
890.911	28.97
891.076	-18.74
891.241	-52.69
891.406	-64.79
891.571	-22.26
891.736	-52.28
891.901	-73.53
892.065	-14.3
892.23	-0.41
892.395	-89.85
892.56	-141.52
892.725	-44.94
892.889	-29.92
893.054	-160.82
893.219	-150.07
893.384	-124.03
893.548	-174.16
893.713	-243.36
893.878	-180.86
