Data from Ofra_PP_Phys_9GT47Q_Reflection_1.txt Node
Date: Sat Jul 24 20:13:06 EDT 2021
User: USUARIO
Spectrometer: FLMT01687
Trigger mode: 0
Integration Time (sec): 1.100000E0
Scans to average: 2
Electric dark correction enabled: true
Nonlinearity correction enabled: false
Boxcar width: 2
XAxis mode: Wavelengths
Number of Pixels in Spectrum: 3648
>>>>>Begin Spectral Data<<<<<
179.494	773.25
179.716	962.11
179.937	1731.81
180.158	1497.39
180.38	699.63
180.601	-840.93
180.823	-26.48
181.044	-281.4
181.265	30.32
181.486	20.39
181.708	-24.02
181.929	-2940
182.15	1015.66
182.372	7.13
182.593	24500
182.814	549.23
183.035	309.67
183.257	205.95
183.478	68.6
183.699	134.9
183.92	82.73
184.141	82.59
184.363	25.46
184.584	135.66
184.805	83.86
185.026	91.11
185.247	94.81
185.468	59.21
185.689	36.02
185.91	32.78
186.132	43.55
186.353	27.49
186.574	65.02
186.795	81.48
187.016	35.54
187.237	37.25
187.458	40.44
187.679	78.56
187.9	79.91
188.121	131.73
188.342	159.14
188.563	162.76
188.784	162.29
189.005	183.5
189.226	178.78
189.447	158.78
189.667	131.28
189.888	84.72
190.109	44.74
190.33	-18.36
190.551	-45.95
190.772	-46.6
190.993	-73.01
191.214	-44.76
191.434	-30.28
191.655	41.66
191.876	1.88
192.097	2.62
192.318	-2.17
192.538	-13.84
192.759	-49.51
192.98	-0.38
193.201	18.62
193.421	-26.87
193.642	12.03
193.863	13.08
194.083	-13.52
194.304	-2.32
194.525	41.79
194.745	43.84
194.966	6.2
195.187	-9.98
195.407	-42.23
195.628	-102.64
195.848	-113.53
196.069	-105.89
196.29	-64.12
196.51	-115.8
196.731	-131
196.951	-96.91
197.172	-79.57
197.392	-93.86
197.613	-48.47
197.833	-44.33
198.054	-70.77
198.274	-36.31
198.495	-76.14
198.715	-37.33
198.936	-62.87
199.156	-29.45
199.377	-61.4
199.597	-58.79
199.817	-54.61
200.038	37.51
200.258	50.91
200.479	108.83
200.699	127.57
200.919	98.28
201.14	25.08
201.36	-3.06
201.58	-26.55
201.801	-15.25
202.021	-7.15
202.241	21.11
202.461	8.43
202.682	-10.96
202.902	12.3
203.122	-9.42
203.342	-1.61
203.563	52.97
203.783	74.02
204.003	6.96
204.223	-17.94
204.443	90.54
204.663	46.15
204.884	1.09
205.104	45.3
205.324	85.72
205.544	43.63
205.764	41.49
205.984	85.14
206.204	115.82
206.424	127.97
206.644	94.1
206.864	100
207.084	95.16
207.304	80.53
207.525	17.47
207.745	37.83
207.964	22.7
208.184	-15.69
208.404	-34.06
208.624	-27.35
208.844	-0.13
209.064	-43.11
209.284	-34.93
209.504	-19.37
209.724	8.88
209.944	-18.36
210.164	59.44
210.384	79.92
210.604	118.49
210.823	51.88
211.043	1.2
211.263	-7.9
211.483	-37.03
211.703	-94.42
211.922	-26.96
212.142	57.68
212.362	62.08
212.582	46.96
212.801	65.59
213.021	15.42
213.241	-0.5
213.461	-40.4
213.68	-61.2
213.9	-63.39
214.12	-19.29
214.339	-51.98
214.559	-25.77
214.779	55.67
214.998	53.62
215.218	18.59
215.438	44.62
215.657	60.73
215.877	33.53
216.096	27.23
216.316	90.33
216.535	71.51
216.755	64.51
216.974	48.67
217.194	49.13
217.413	13.6
217.633	26.88
217.852	-33.05
218.072	-33.47
218.291	-38.49
218.511	-21.66
218.73	-84.5
218.95	-67.33
219.169	-54.27
219.389	-77.97
219.608	-107.73
219.827	-34.07
220.047	0.2
220.266	1.58
220.485	0.72
220.705	52.76
220.924	-4.58
221.143	28.99
221.363	-36.19
221.582	16.58
221.801	8.47
222.021	58.29
222.24	29.05
222.459	100.38
222.678	73.44
222.897	42.83
223.117	34.02
223.336	45.42
223.555	31.04
223.774	58.46
223.993	93.35
224.213	144.65
224.432	89.39
224.651	120.9
224.87	94.21
225.089	95.65
225.308	79.1
225.527	119.19
225.746	102.23
225.965	75.84
226.184	61.43
226.404	60.36
226.623	35.53
226.842	41.38
227.061	83.38
227.28	94.28
227.499	105.16
227.718	118.67
227.936	104.42
228.155	122.33
228.374	61.24
228.593	45.04
228.812	41.6
229.031	46.77
229.25	-1.85
229.469	51.38
229.688	61.95
229.907	62.65
230.125	90.87
230.344	100.13
230.563	100.72
230.782	116.34
231.001	55.29
231.22	35.44
231.438	58.83
231.657	50.95
231.876	39.64
232.095	86.95
232.313	90.69
232.532	64.98
232.751	53.66
232.969	53.88
233.188	53.21
233.407	45.73
233.625	28.06
233.844	24.41
234.063	-7.64
234.281	26.15
234.5	33.05
234.719	68.04
234.937	72.06
235.156	97.43
235.374	74.64
235.593	85.26
235.811	65.41
236.03	73.25
236.249	36.55
236.467	41.56
236.686	14.91
236.904	42.7
237.123	-38.53
237.341	7.45
237.559	-8.11
237.778	1.08
237.996	-28.3
238.215	26.64
238.433	6.84
238.652	25.34
238.87	-25.59
239.088	2.57
239.307	18.39
239.525	26.34
239.743	-22.34
239.962	19.24
240.18	-12.13
240.398	-59.63
240.617	-81.19
240.835	-25.46
241.053	-35.81
241.271	35.26
241.49	48.26
241.708	47.65
241.926	40.43
242.144	44.97
242.363	0.79
242.581	9.88
242.799	33.68
243.017	43.53
243.235	-4.68
243.453	36.61
243.672	-7.01
243.89	-5.61
244.108	-10.43
244.326	42.17
244.544	39.4
244.762	40.56
244.98	47.29
245.198	61.78
245.416	6.6
245.634	3.25
245.852	33.68
246.07	31.23
246.288	27.39
246.506	35.94
246.724	54.59
246.942	42.39
247.16	49.55
247.378	57.8
247.596	84.55
247.814	75.71
248.032	35.08
248.25	16.99
248.468	14.65
248.685	25.46
248.903	50.02
249.121	61.33
249.339	38.89
249.557	37.2
249.775	12.85
249.992	-88.59
250.21	-79.42
250.428	-36.91
250.646	-53.3
250.863	-45.67
251.081	-18.8
251.299	15.3
251.517	15.92
251.734	39.99
251.952	25.76
252.17	50.49
252.387	61.67
252.605	33.23
252.823	32.05
253.04	67.9
253.258	81.74
253.475	67.93
253.693	97.5
253.911	108.87
254.128	90.77
254.346	79.79
254.563	53.62
254.781	29.75
254.998	13.96
255.216	24.9
255.433	17.92
255.651	52.99
255.868	74.91
256.086	103
256.303	83.22
256.521	97.24
256.738	67.66
256.956	35.18
257.173	17.73
257.39	16.33
257.608	6.31
257.825	13.58
258.043	41.68
258.26	40.15
258.477	47.91
258.695	64.87
258.912	28.3
259.129	11.92
259.346	-23.06
259.564	-30.79
259.781	-23.28
259.998	4.63
260.216	40.65
260.433	80.41
260.65	67.34
260.867	91.06
261.084	56.24
261.302	43.59
261.519	41.33
261.736	24.99
261.953	-3.41
262.17	39.35
262.387	31.58
262.604	6.22
262.822	12.34
263.039	4.97
263.256	-16.65
263.473	-9.12
263.69	-27.66
263.907	2.89
264.124	44.36
264.341	70.96
264.558	57.19
264.775	70.22
264.992	92.37
265.209	60.8
265.426	54.74
265.643	55.77
265.86	58.51
266.077	54.15
266.294	50.02
266.51	46.77
266.727	33.66
266.944	61.39
267.161	30.75
267.378	49.95
267.595	41.9
267.812	9.03
268.028	-16.24
268.245	18.31
268.462	-24.84
268.679	-10.32
268.896	62.56
269.112	69.6
269.329	48.53
269.546	63.25
269.763	54.91
269.979	37.33
270.196	15.51
270.413	12.81
270.629	-3.66
270.846	-4.9
271.063	19.59
271.279	4.15
271.496	-28.47
271.712	-7.8
271.929	6.17
272.146	-0.44
272.362	28.08
272.579	89.27
272.795	87.56
273.012	105.23
273.228	90.6
273.445	65.15
273.661	15.38
273.878	-73.78
274.094	-79.55
274.311	-105.75
274.527	-47.27
274.744	-21.19
274.96	46.38
275.177	46.16
275.393	51.83
275.609	64.33
275.826	77.08
276.042	74.68
276.259	85.31
276.475	85.38
276.691	57.69
276.908	30.62
277.124	63.73
277.34	41.36
277.557	45.25
277.773	48.04
277.989	39.84
278.205	22.61
278.422	35.49
278.638	48.79
278.854	69.36
279.07	70.83
279.286	31.68
279.503	12.17
279.719	-6.61
279.935	-31.19
280.151	-36.53
280.367	6.67
280.583	18.47
280.799	10.2
281.016	11.1
281.232	23.56
281.448	25.67
281.664	45.13
281.88	38.19
282.096	51.42
282.312	75.16
282.528	79.49
282.744	77.84
282.96	96.68
283.176	97.57
283.392	79.29
283.608	65.62
283.824	38.07
284.04	18.62
284.256	36.08
284.471	26.86
284.687	28.19
284.903	39.57
285.119	90.42
285.335	50.36
285.551	68.37
285.767	57.64
285.982	52.43
286.198	4.73
286.414	39.46
286.63	33.42
286.846	72.05
287.061	29.44
287.277	52
287.493	56.75
287.709	63.24
287.924	48.63
288.14	106.1
288.356	108.46
288.571	112.95
288.787	93.91
289.003	80.25
289.218	49.84
289.434	-12.17
289.65	-4.6
289.865	11.62
290.081	28.13
290.296	23.26
290.512	22.01
290.727	18.51
290.943	5.85
291.159	-9.7
291.374	-4.59
291.59	-9.22
291.805	-28.59
292.021	-14.21
292.236	-18.55
292.451	-7.01
292.667	10.87
292.882	33.03
293.098	52.77
293.313	48.99
293.529	29.61
293.744	2.62
293.959	-20.24
294.175	-20.19
294.39	10.39
294.605	37.36
294.821	66.59
295.036	59.82
295.251	75.89
295.467	52.96
295.682	45.64
295.897	15.97
296.112	9.89
296.328	-2.25
296.543	-8.87
296.758	-16.89
296.973	51.35
297.188	100.93
297.404	57.32
297.619	66.25
297.834	51.75
298.049	37.02
298.264	14.53
298.479	53.84
298.694	63.7
298.909	84.12
299.125	69.36
299.34	80.29
299.555	50.55
299.77	66.57
299.985	6.7
300.2	-15.61
300.415	-53.43
300.63	-1.44
300.845	-30.58
301.06	-17.82
301.275	6.96
301.49	31.36
301.704	6.99
301.919	-36.19
302.134	-35.34
302.349	-3.19
302.564	-30.85
302.779	1.8
302.994	73.92
303.209	79.48
303.423	86.38
303.638	129.12
303.853	83.54
304.068	29.02
304.283	18.87
304.497	4.46
304.712	17.06
304.927	25.83
305.142	32.78
305.356	48.65
305.571	58.33
305.786	45.78
306	36.43
306.215	57.76
306.43	19.82
306.644	36.16
306.859	49.81
307.074	49.41
307.288	8.8
307.503	53.79
307.717	13.97
307.932	14.14
308.147	8.63
308.361	54.13
308.576	19.5
308.79	-14.59
309.005	-12.59
309.219	-2.79
309.434	-7.41
309.648	-28.47
309.863	14.34
310.077	16.16
310.292	23.36
310.506	22.76
310.72	70.86
310.935	82.03
311.149	68.09
311.364	81.81
311.578	90.46
311.792	72.53
312.007	57.21
312.221	7.62
312.435	12.84
312.649	-18.5
312.864	13.61
313.078	17.94
313.292	77.55
313.507	67.87
313.721	56.61
313.935	58.25
314.149	84.44
314.363	67.53
314.578	43.13
314.792	39.89
315.006	39.76
315.22	20.4
315.434	18.36
315.648	35.77
315.862	33.41
316.077	28
316.291	47.9
316.505	63.33
316.719	87.71
316.933	55.22
317.147	71.49
317.361	23
317.575	22.04
317.789	-18.75
318.003	3.06
318.217	-4.95
318.431	27.11
318.645	35.79
318.859	33.39
319.073	58.85
319.287	33.42
319.5	-10.83
319.714	-50.02
319.928	-59.89
320.142	-82.03
320.356	-10.27
320.57	23.87
320.784	25.95
320.997	57.97
321.211	59.24
321.425	5.95
321.639	-35.7
321.853	16.15
322.066	-4.72
322.28	-16.88
322.494	17.27
322.707	79.06
322.921	37.62
323.135	43.01
323.349	55.23
323.562	26.41
323.776	-12.25
323.989	0.87
324.203	-25.32
324.417	-25.35
324.63	-42.73
324.844	-49.51
325.057	-59.84
325.271	-54.33
325.485	-54.2
325.698	1.35
325.912	35.07
326.125	17.25
326.339	34.79
326.552	42.52
326.766	37.68
326.979	36.74
327.193	83.06
327.406	67.56
327.619	59.08
327.833	71.5
328.046	50.18
328.26	22.2
328.473	28.28
328.686	4.7
328.9	3.97
329.113	12.67
329.326	6.85
329.54	14.02
329.753	21.66
329.966	0.45
330.179	26.6
330.393	34.63
330.606	34.91
330.819	62.25
331.032	75.59
331.246	69.34
331.459	105.35
331.672	81.51
331.885	61.29
332.098	35.06
332.311	41.88
332.525	13.41
332.738	26.98
332.951	37.23
333.164	52.74
333.377	55.33
333.59	79.2
333.803	66.39
334.016	62.79
334.229	57.49
334.442	54.44
334.655	65.42
334.868	86.71
335.081	73.28
335.294	53.87
335.507	66.95
335.72	51.23
335.933	16.96
336.146	27.06
336.359	56.24
336.572	25.74
336.785	8.97
336.997	19.92
337.21	34.21
337.423	14.57
337.636	27.51
337.849	42.06
338.062	53.48
338.274	74.03
338.487	59.16
338.7	73.75
338.913	33.88
339.125	7.4
339.338	-10.03
339.551	13.94
339.763	23.37
339.976	60.1
340.189	77.55
340.402	76.46
340.614	54.91
340.827	32.68
341.039	5.56
341.252	-16.19
341.465	-33.43
341.677	-45.8
341.89	-81.75
342.102	-52.54
342.315	-34.21
342.527	-29.38
342.74	-22.83
342.952	45.76
343.165	50.19
343.377	73.62
343.59	50.13
343.802	89.62
344.015	73.85
344.227	98.56
344.44	65.62
344.652	73.99
344.864	48.13
345.077	60.64
345.289	39.37
345.502	59.4
345.714	59.31
345.926	66.25
346.139	52.69
346.351	44.41
346.563	44.7
346.775	55.53
346.988	40.12
347.2	32.1
347.412	16.14
347.624	12.34
347.837	30.1
348.049	51.19
348.261	74.56
348.473	77.29
348.685	44.27
348.897	13.28
349.11	-4.88
349.322	-21.29
349.534	2.16
349.746	32.91
349.958	45.88
350.17	39.44
350.382	54.61
350.594	52.38
350.806	50.39
351.018	36.62
351.23	40.92
351.442	20.4
351.654	25.14
351.866	13.04
352.078	26.84
352.29	34.84
352.502	53.09
352.714	56.79
352.926	53.66
353.138	44.45
353.35	15.86
353.561	4.17
353.773	-8.95
353.985	6.8
354.197	10.67
354.409	21.05
354.621	24.42
354.832	29.84
355.044	24.11
355.256	17.43
355.468	26.65
355.679	18.46
355.891	35.46
356.103	9.13
356.314	0.52
356.526	7.26
356.738	38.26
356.949	25.82
357.161	35.08
357.373	47.28
357.584	46.13
357.796	25.23
358.008	4.33
358.219	40.51
358.431	43.9
358.642	51.6
358.854	69.32
359.065	67.76
359.277	36.05
359.488	22.26
359.7	1.97
359.911	-26.48
360.123	-8.78
360.334	-9.78
360.546	-9.57
360.757	-1.33
360.969	20.73
361.18	36.94
361.391	35.42
361.603	32.78
361.814	51.96
362.025	31.24
362.237	16.81
362.448	40.42
362.659	58.11
362.871	56.11
363.082	54.73
363.293	68.07
363.504	64.15
363.716	48.38
363.927	41.7
364.138	25.51
364.349	-13.27
364.56	-20.71
364.772	-42.49
364.983	-22.15
365.194	-22.2
365.405	1.3
365.616	5.49
365.827	14.99
366.038	-9.24
366.25	26.96
366.461	8.02
366.672	26.31
366.883	48.92
367.094	51.99
367.305	19.55
367.516	40.36
367.727	18.16
367.938	-5.18
368.149	-16.34
368.36	9.05
368.571	-0.5
368.781	1.22
368.992	-7.56
369.203	15.25
369.414	0.6
369.625	-5.73
369.836	-5.31
370.047	-2.75
370.258	-14.33
370.468	-7.97
370.679	-41.22
370.89	-37.95
371.101	-1.7
371.312	-25.62
371.522	-25.78
371.733	8.29
371.944	23.42
372.155	22.34
372.365	6.48
372.576	13.43
372.787	3.77
372.997	-6.83
373.208	-17.84
373.419	22.96
373.629	-5.16
373.84	7.11
374.05	-6.82
374.261	14.94
374.472	-15.07
374.682	28.94
374.893	14.2
375.103	49.1
375.314	27.84
375.524	42.46
375.735	42.78
375.945	51.48
376.156	19.17
376.366	41.98
376.577	38.56
376.787	29.11
376.997	47.53
377.208	59.26
377.418	22.83
377.629	37.23
377.839	25.17
378.049	15.62
378.26	25.17
378.47	50.35
378.68	39.39
378.89	41.58
379.101	33.07
379.311	2.85
379.521	-17.56
379.732	-16.64
379.942	-28.35
380.152	-19.1
380.362	0.49
380.572	5.39
380.783	24.46
380.993	37.75
381.203	42.2
381.413	51.8
381.623	55.09
381.833	55.88
382.043	33.03
382.253	25.63
382.463	25.31
382.674	26.14
382.884	0.66
383.094	9.31
383.304	9.74
383.514	12.38
383.724	25.05
383.934	16.45
384.144	6.91
384.353	6.66
384.563	5.88
384.773	2.71
384.983	19.82
385.193	37.15
385.403	30.16
385.613	24.98
385.823	19.58
386.033	23.14
386.242	10.58
386.452	18.93
386.662	11.45
386.872	18.24
387.082	17.05
387.291	10.39
387.501	17.56
387.711	22.95
387.921	10.11
388.13	11.25
388.34	26.74
388.55	20.79
388.759	22.1
388.969	31.28
389.179	27.56
389.388	24.33
389.598	21.44
389.807	16.42
390.017	14.15
390.227	13.29
390.436	8.45
390.646	16.2
390.855	21.88
391.065	22.39
391.274	19.86
391.484	17.7
391.693	14.66
391.903	15.22
392.112	15.7
392.322	21.71
392.531	28.02
392.74	27.41
392.95	20.95
393.159	20.73
393.369	20.76
393.578	16.7
393.787	15.16
393.997	19.62
394.206	18.02
394.415	18.02
394.625	18.3
394.834	17.11
395.043	15.21
395.252	16.83
395.462	17.01
395.671	18.04
395.88	20.24
396.089	21.56
396.298	20.33
396.508	19.56
396.717	19.74
396.926	18.93
397.135	18.64
397.344	18.37
397.553	18.26
397.762	18.71
397.971	18.33
398.181	18.01
398.39	16.62
398.599	16.29
398.808	15.51
399.017	16.39
399.226	16.82
399.435	18.23
399.644	18.22
399.853	17.79
400.062	16.94
400.27	16.57
400.479	16.41
400.688	15.89
400.897	16.76
401.106	16.77
401.315	15.97
401.524	15.55
401.733	15.8
401.941	15.47
402.15	15.35
402.359	15.62
402.568	16.02
402.777	16.14
402.985	16.16
403.194	16.24
403.403	16.36
403.612	15.9
403.82	15.89
404.029	15.79
404.238	15.38
404.446	15.28
404.655	14.82
404.864	14.67
405.072	14.27
405.281	14.64
405.489	14.33
405.698	14.38
405.906	14.15
406.115	14.1
406.324	13.86
406.532	14
406.741	14.36
406.949	14.21
407.158	14.19
407.366	14.1
407.574	14.17
407.783	14.1
407.991	14.08
408.2	14.17
408.408	14
408.617	13.71
408.825	13.39
409.033	13.4
409.242	13.38
409.45	13.46
409.658	13.25
409.867	13.47
410.075	13.3
410.283	13.08
410.491	13.03
410.7	12.92
410.908	12.87
411.116	12.86
411.324	12.94
411.533	12.89
411.741	13.15
411.949	13.2
412.157	13.08
412.365	13.11
412.573	12.99
412.781	12.9
412.99	12.62
413.198	12.86
413.406	12.77
413.614	12.86
413.822	12.91
414.03	12.79
414.238	12.43
414.446	12.42
414.654	11.98
414.862	11.86
415.07	11.99
415.278	12.21
415.486	11.69
415.694	12.04
415.902	12.03
416.109	11.78
416.317	11.76
416.525	11.79
416.733	11.87
416.941	11.98
417.149	12.1
417.357	12.15
417.564	12.45
417.772	12.38
417.98	12.35
418.188	12.37
418.395	12.18
418.603	12.2
418.811	11.8
419.019	11.56
419.226	11.84
419.434	11.98
419.642	11.84
419.849	12
420.057	12.19
420.265	11.88
420.472	11.64
420.68	11.68
420.887	11.53
421.095	11.55
421.302	11.46
421.51	11.67
421.717	11.58
421.925	11.57
422.132	11.41
422.34	11.15
422.547	10.95
422.755	11.01
422.962	11.14
423.17	11.06
423.377	11.25
423.585	11.39
423.792	11.4
423.999	11.51
424.207	11.51
424.414	11.59
424.621	11.45
424.829	11.29
425.036	11.01
425.243	10.9
425.451	10.74
425.658	10.68
425.865	10.79
426.072	10.81
426.28	10.86
426.487	10.64
426.694	10.8
426.901	10.75
427.108	10.8
427.315	10.8
427.523	11.17
427.73	11.15
427.937	10.73
428.144	10.58
428.351	10.56
428.558	10.54
428.765	10.4
428.972	10.7
429.179	10.86
429.386	11.16
429.593	11.06
429.8	10.92
430.007	11
430.214	11.19
430.421	11.02
430.628	10.85
430.835	10.64
431.042	10.88
431.249	10.81
431.456	10.89
431.662	11.21
431.869	11.6
432.076	11.5
432.283	11.41
432.49	11.17
432.697	11.12
432.903	10.71
433.11	10.55
433.317	10.69
433.524	10.89
433.73	10.68
433.937	11.15
434.144	11.15
434.35	11.09
434.557	10.98
434.764	11.07
434.97	10.97
435.177	11.11
435.384	10.76
435.59	11
435.797	11.2
436.003	11.34
436.21	11.33
436.416	11.56
436.623	11.34
436.829	11.25
437.036	11.2
437.242	11.05
437.449	11.09
437.655	11.06
437.862	10.94
438.068	10.86
438.275	11.08
438.481	11.33
438.687	11.43
438.894	11.49
439.1	11.54
439.307	11.62
439.513	11.42
439.719	11.46
439.926	11.59
440.132	11.53
440.338	11.4
440.544	11.52
440.751	11.43
440.957	11.44
441.163	11.24
441.369	11.25
441.575	11.01
441.782	10.97
441.988	10.77
442.194	10.96
442.4	10.96
442.606	11.12
442.812	11.3
443.018	11.48
443.224	11.58
443.431	11.69
443.637	11.71
443.843	11.54
444.049	11.61
444.255	11.52
444.461	11.43
444.667	11.22
444.873	11.34
445.079	11.49
445.284	11.52
445.49	11.36
445.696	11.3
445.902	11.25
446.108	11.02
446.314	10.94
446.52	11.17
446.726	11.56
446.931	11.51
447.137	11.6
447.343	11.82
447.549	11.6
447.755	11.51
447.96	11.53
448.166	11.45
448.372	11.46
448.578	11.58
448.783	11.6
448.989	11.79
449.195	11.94
449.4	11.8
449.606	11.75
449.812	11.65
450.017	11.68
450.223	11.67
450.428	11.46
450.634	11.67
450.84	11.81
451.045	11.67
451.251	11.54
451.456	11.83
451.662	11.83
451.867	11.83
452.073	11.78
452.278	11.92
452.483	12.12
452.689	12.01
452.894	12.12
453.1	12.2
453.305	11.94
453.51	11.76
453.716	11.61
453.921	11.47
454.127	11.4
454.332	11.43
454.537	11.3
454.742	11.43
454.948	11.59
455.153	11.47
455.358	11.57
455.563	11.76
455.769	11.81
455.974	11.52
456.179	11.6
456.384	11.49
456.589	11.46
456.795	11.19
457	11.26
457.205	11.41
457.41	11.48
457.615	11.42
457.82	11.62
458.025	11.76
458.23	11.56
458.435	11.64
458.64	11.49
458.845	11.64
459.05	11.49
459.255	11.43
459.46	11.4
459.665	11.42
459.87	11.35
460.075	11.23
460.28	11.36
460.485	11.45
460.69	11.63
460.895	11.41
461.099	11.4
461.304	11.61
461.509	11.59
461.714	11.28
461.919	11.54
462.123	11.58
462.328	11.54
462.533	11.15
462.738	11.39
462.942	11.11
463.147	11.18
463.352	11.17
463.556	11.32
463.761	11.35
463.966	11.65
464.17	11.7
464.375	11.6
464.58	11.66
464.784	11.54
464.989	11.24
465.193	11.11
465.398	11.05
465.602	11.21
465.807	11.19
466.011	11.42
466.216	11.61
466.42	11.66
466.625	11.64
466.829	11.77
467.034	11.84
467.238	11.85
467.443	11.88
467.647	11.6
467.851	11.62
468.056	11.59
468.26	11.47
468.464	11.35
468.669	11.65
468.873	11.67
469.077	11.73
469.282	11.8
469.486	11.92
469.69	11.89
469.894	11.83
470.099	11.87
470.303	11.94
470.507	11.82
470.711	11.66
470.915	11.63
471.119	11.48
471.324	11.35
471.528	11.38
471.732	11.5
471.936	11.57
472.14	11.73
472.344	11.81
472.548	11.95
472.752	12.06
472.956	12.27
473.16	12.11
473.364	12.03
473.568	12.02
473.772	12
473.976	11.95
474.18	12.01
474.384	12.11
474.588	12.05
474.792	11.9
474.995	11.79
475.199	11.87
475.403	12.03
475.607	12.12
475.811	12.2
476.015	12.26
476.218	12.29
476.422	12.12
476.626	12.22
476.83	12.4
477.033	12.26
477.237	11.99
477.441	12.06
477.644	11.92
477.848	11.79
478.052	11.75
478.255	11.86
478.459	11.89
478.663	12.22
478.866	12.3
479.07	12.49
479.273	12.67
479.477	12.76
479.681	12.53
479.884	12.49
480.088	12.34
480.291	12.37
480.495	12.33
480.698	12.31
480.901	12.46
481.105	12.63
481.308	12.5
481.512	12.44
481.715	12.56
481.919	12.55
482.122	12.48
482.325	12.62
482.529	12.7
482.732	12.67
482.935	12.44
483.138	12.51
483.342	12.55
483.545	12.7
483.748	12.88
483.952	13.1
484.155	13.23
484.358	13.25
484.561	13.05
484.764	13.03
484.967	13.09
485.171	13.16
485.374	13.01
485.577	13.22
485.78	13.24
485.983	13.24
486.186	13.12
486.389	13.17
486.592	13.16
486.795	13.16
486.998	13.13
487.201	13.21
487.404	13.38
487.607	13.5
487.81	13.47
488.013	13.51
488.216	13.56
488.419	13.54
488.622	13.3
488.825	13.27
489.028	13.3
489.231	13.22
489.433	13.14
489.636	13.21
489.839	13.14
490.042	13.01
490.245	12.96
490.447	13.03
490.65	13.14
490.853	13.33
491.056	13.5
491.258	13.61
491.461	13.69
491.664	13.7
491.866	13.51
492.069	13.64
492.272	13.65
492.474	13.64
492.677	13.74
492.879	13.94
493.082	13.93
493.285	14.19
493.487	14.07
493.69	13.97
493.892	13.82
494.095	13.8
494.297	13.61
494.5	13.93
494.702	14.05
494.905	14.29
495.107	14.35
495.309	14.47
495.512	14.46
495.714	14.61
495.917	14.64
496.119	14.7
496.321	14.8
496.524	14.9
496.726	14.92
496.928	14.96
497.13	14.96
497.333	14.97
497.535	15.06
497.737	15
497.939	15.01
498.142	15.25
498.344	15.13
498.546	14.99
498.748	15.05
498.95	15.15
499.152	15.03
499.355	15.23
499.557	15.31
499.759	15.42
499.961	15.41
500.163	15.51
500.365	15.57
500.567	15.67
500.769	15.6
500.971	15.73
501.173	15.66
501.375	15.76
501.577	15.74
501.779	15.91
501.981	15.95
502.183	16.09
502.385	16.06
502.587	16.07
502.788	16.15
502.99	16.24
503.192	16.36
503.394	16.4
503.596	16.49
503.798	16.53
503.999	16.53
504.201	16.51
504.403	16.65
504.605	16.75
504.806	16.64
505.008	16.67
505.21	16.83
505.411	16.87
505.613	16.83
505.815	17.02
506.016	17.12
506.218	17.15
506.42	17.08
506.621	17.17
506.823	17.24
507.024	17.3
507.226	17.29
507.427	17.3
507.629	17.49
507.83	17.54
508.032	17.45
508.233	17.49
508.435	17.72
508.636	17.77
508.838	17.75
509.039	17.92
509.24	18.06
509.442	18.06
509.643	18.05
509.845	18.19
510.046	18.19
510.247	18.17
510.448	18.24
510.65	18.36
510.851	18.44
511.052	18.53
511.254	18.52
511.455	18.66
511.656	18.66
511.857	18.72
512.058	18.83
512.26	18.91
512.461	18.83
512.662	18.92
512.863	18.76
513.064	18.7
513.265	18.83
513.466	18.98
513.667	18.91
513.868	19.15
514.069	19.34
514.27	19.5
514.471	19.39
514.672	19.63
514.873	19.68
515.074	19.76
515.275	19.63
515.476	19.79
515.677	19.8
515.878	19.96
516.079	19.88
516.28	20.02
516.481	20.12
516.682	20.17
516.882	20.08
517.083	20.22
517.284	20.05
517.485	20.05
517.686	20.06
517.886	20.04
518.087	20.07
518.288	20.34
518.488	20.3
518.689	20.36
518.89	20.38
519.091	20.47
519.291	20.43
519.492	20.55
519.692	20.63
519.893	20.88
520.094	20.89
520.294	20.92
520.495	20.95
520.695	20.98
520.896	20.94
521.096	21.02
521.297	21.13
521.497	21.29
521.698	21.22
521.898	21.23
522.099	21.22
522.299	21.33
522.499	21.29
522.7	21.44
522.9	21.49
523.101	21.63
523.301	21.62
523.501	21.68
523.702	21.67
523.902	21.81
524.102	21.95
524.302	21.92
524.503	21.98
524.703	22.16
524.903	22.13
525.103	21.97
525.304	22.12
525.504	22.3
525.704	22.25
525.904	22.22
526.104	22.33
526.304	22.38
526.504	22.41
526.705	22.46
526.905	22.74
527.105	22.9
527.305	22.94
527.505	22.87
527.705	22.9
527.905	22.87
528.105	22.72
528.305	22.65
528.505	22.75
528.705	22.89
528.905	22.84
529.105	22.92
529.304	23.03
529.504	23.18
529.704	23.13
529.904	23.2
530.104	23.32
530.304	23.55
530.503	23.42
530.703	23.37
530.903	23.43
531.103	23.53
531.303	23.36
531.502	23.46
531.702	23.68
531.902	23.84
532.101	23.75
532.301	23.87
532.501	24
532.7	24.05
532.9	23.98
533.1	24.05
533.299	24.11
533.499	24.14
533.698	24.11
533.898	24.25
534.097	24.37
534.297	24.41
534.496	24.46
534.696	24.5
534.895	24.63
535.095	24.69
535.294	24.81
535.494	24.7
535.693	24.77
535.892	24.83
536.092	24.79
536.291	24.81
536.491	25.01
536.69	25.2
536.889	25.02
537.088	25.07
537.288	25.18
537.487	25.33
537.686	25.17
537.886	25.41
538.085	25.63
538.284	25.67
538.483	25.6
538.682	25.84
538.882	25.97
539.081	26.06
539.28	26.03
539.479	26.11
539.678	26.12
539.877	26.24
540.076	26.19
540.275	26.43
540.474	26.51
540.673	26.58
540.872	26.52
541.071	26.67
541.27	26.66
541.469	26.8
541.668	26.87
541.867	26.93
542.066	26.98
542.265	27.16
542.464	27.18
542.663	27.44
542.862	27.7
543.06	27.81
543.259	27.81
543.458	27.9
543.657	27.75
543.856	27.68
544.054	27.72
544.253	27.73
544.452	27.76
544.651	27.89
544.849	27.92
545.048	28.02
545.247	28.11
545.445	28.32
545.644	28.43
545.843	28.46
546.041	28.58
546.24	28.86
546.438	28.94
546.637	29.05
546.836	29.39
547.034	29.59
547.233	29.59
547.431	29.63
547.63	29.76
547.828	29.74
548.027	29.75
548.225	29.79
548.423	29.95
548.622	30.16
548.82	30.14
549.019	30.22
549.217	30.51
549.415	30.54
549.614	30.59
549.812	30.8
550.01	30.86
550.209	30.89
550.407	31.12
550.605	31.21
550.803	31.43
551.002	31.49
551.2	31.52
551.398	31.69
551.596	31.84
551.794	31.99
551.993	32.26
552.191	32.47
552.389	32.55
552.587	32.69
552.785	32.77
552.983	32.94
553.181	33.14
553.379	33.26
553.577	33.25
553.775	33.43
553.973	33.46
554.171	33.61
554.369	33.69
554.567	33.76
554.765	33.76
554.963	34.02
555.161	33.97
555.359	34.18
555.557	34.47
555.755	34.67
555.952	34.82
556.15	35.02
556.348	35.14
556.546	35.25
556.744	35.39
556.941	35.4
557.139	35.56
557.337	35.59
557.535	35.59
557.732	35.71
557.93	36
558.128	36.15
558.325	36.36
558.523	36.53
558.721	36.7
558.918	36.64
559.116	36.62
559.313	36.71
559.511	37.02
559.708	37.11
559.906	37.33
560.104	37.57
560.301	37.85
560.498	37.93
560.696	38.09
560.893	38.25
561.091	38.39
561.288	38.45
561.486	38.56
561.683	38.77
561.88	38.95
562.078	39.07
562.275	39.17
562.473	39.31
562.67	39.58
562.867	39.73
563.064	40.05
563.262	40.19
563.459	40.35
563.656	40.48
563.853	40.63
564.051	40.62
564.248	40.87
564.445	41.11
564.642	41.27
564.839	41.35
565.036	41.73
565.234	42.02
565.431	42.03
565.628	42.1
565.825	42.36
566.022	42.39
566.219	42.4
566.416	42.63
566.613	42.64
566.81	42.72
567.007	42.72
567.204	42.7
567.401	42.61
567.598	42.82
567.795	42.76
567.991	42.89
568.188	43.15
568.385	43.47
568.582	43.69
568.779	43.86
568.976	44.06
569.172	44.24
569.369	44.15
569.566	44.12
569.763	44.31
569.96	44.38
570.156	44.29
570.353	44.49
570.55	44.58
570.746	44.72
570.943	44.65
571.14	44.74
571.336	44.76
571.533	44.87
571.729	44.86
571.926	45.02
572.123	45.02
572.319	45.11
572.516	45.04
572.712	44.98
572.909	45.11
573.105	45.23
573.302	45.21
573.498	45.37
573.695	45.32
573.891	45.33
574.087	45.42
574.284	45.34
574.48	45.19
574.677	45.26
574.873	45.16
575.069	45.18
575.266	45.53
575.462	45.56
575.658	45.69
575.854	45.89
576.051	45.9
576.247	45.65
576.443	45.68
576.639	45.65
576.835	45.54
577.032	45.51
577.228	45.6
577.424	45.68
577.62	45.58
577.816	45.48
578.012	45.35
578.208	45.34
578.404	45.38
578.6	45.51
578.796	45.67
578.993	45.66
579.189	45.68
579.384	45.47
579.58	45.33
579.776	45.35
579.972	45.41
580.168	45.33
580.364	45.34
580.56	45.39
580.756	45.31
580.952	45.07
581.148	44.91
581.343	45.12
581.539	44.93
581.735	44.92
581.931	45.13
582.127	45.3
582.322	44.98
582.518	45.23
582.714	45.22
582.909	45.09
583.105	44.93
583.301	44.92
583.496	44.81
583.692	44.63
583.888	44.52
584.083	44.47
584.279	44.62
584.474	44.56
584.67	44.5
584.866	44.66
585.061	44.66
585.257	44.63
585.452	44.49
585.648	44.41
585.843	44.36
586.039	44.32
586.234	44.13
586.429	44.11
586.625	44.29
586.82	44
587.015	44.01
587.211	43.92
587.406	43.92
587.601	43.73
587.797	43.74
587.992	43.59
588.187	43.76
588.383	43.75
588.578	43.83
588.773	43.92
588.968	44.06
589.163	44.01
589.359	44.01
589.554	44.02
589.749	44.22
589.944	44.34
590.139	44.3
590.334	44.24
590.529	44.32
590.724	44.19
590.919	44.17
591.114	44.22
591.309	44.4
591.504	44.3
591.699	44.2
591.894	44.14
592.089	43.99
592.284	43.99
592.479	44.1
592.674	44.08
592.869	44.15
593.064	44.43
593.259	44.41
593.454	44.46
593.648	44.55
593.843	44.54
594.038	44.45
594.233	44.38
594.428	44.27
594.622	44.3
594.817	44.42
595.012	44.42
595.206	44.56
595.401	44.78
595.596	44.87
595.79	44.87
595.985	44.98
596.18	45.04
596.374	45.02
596.569	45.05
596.763	45.01
596.958	45.12
597.153	45.22
597.347	45.32
597.542	45.56
597.736	45.61
597.931	45.59
598.125	45.69
598.319	45.85
598.514	45.73
598.708	45.8
598.903	45.72
599.097	45.74
599.291	45.67
599.486	45.64
599.68	45.59
599.874	45.88
600.069	45.88
600.263	45.73
600.457	45.82
600.651	46.1
600.846	45.9
601.04	45.87
601.234	45.88
601.428	45.9
601.622	45.81
601.817	45.98
602.011	46.01
602.205	46.24
602.399	46.19
602.593	46.12
602.787	46.13
602.981	46.09
603.175	45.96
603.369	46
603.563	46.06
603.757	46.17
603.951	46.25
604.145	46.3
604.339	46.35
604.533	46.22
604.727	46
604.921	45.95
605.115	45.86
605.309	45.86
605.502	45.85
605.696	45.79
605.89	45.66
606.084	45.68
606.278	45.43
606.471	45.38
606.665	45.23
606.859	45.16
607.053	45.05
607.246	45.19
607.44	45.16
607.634	45.19
607.827	45.17
608.021	45.05
608.214	44.89
608.408	44.83
608.602	44.81
608.795	44.69
608.989	44.68
609.182	44.6
609.376	44.51
609.569	44.39
609.763	44.32
609.956	44.21
610.15	44.15
610.343	43.89
610.537	43.77
610.73	43.87
610.923	43.76
611.117	43.63
611.31	43.64
611.504	43.68
611.697	43.41
611.89	43.17
612.083	43.09
612.277	43.13
612.47	43
612.663	42.83
612.856	42.71
613.05	42.6
613.243	42.32
613.436	42.12
613.629	42.03
613.822	42.07
614.015	41.96
614.209	41.82
614.402	41.77
614.595	41.78
614.788	41.71
614.981	41.56
615.174	41.42
615.367	41.32
615.56	41.1
615.753	41.02
615.946	40.94
616.139	41.14
616.332	41.27
616.525	41.29
616.718	41.29
616.911	41.32
617.103	41.22
617.296	40.99
617.489	40.92
617.682	40.84
617.875	40.76
618.067	40.69
618.26	40.5
618.453	40.5
618.646	40.47
618.838	40.44
619.031	40.46
619.224	40.53
619.417	40.41
619.609	40.41
619.802	40.38
619.994	40.25
620.187	40.2
620.38	40.11
620.572	39.93
620.765	39.81
620.957	39.59
621.15	39.42
621.342	39.42
621.535	39.53
621.727	39.51
621.92	39.5
622.112	39.61
622.305	39.66
622.497	39.46
622.69	39.38
622.882	39.38
623.074	39.28
623.267	39.09
623.459	39.01
623.651	38.97
623.844	38.93
624.036	38.96
624.228	38.95
624.42	38.89
624.613	38.91
624.805	38.91
624.997	38.88
625.189	38.89
625.381	39.04
625.574	38.96
625.766	38.78
625.958	38.62
626.15	38.54
626.342	38.37
626.534	38.44
626.726	38.47
626.918	38.52
627.11	38.46
627.302	38.37
627.494	38.16
627.686	38.12
627.878	37.93
628.07	37.86
628.262	37.84
628.454	37.89
628.646	37.86
628.838	37.85
629.029	37.76
629.221	37.68
629.413	37.45
629.605	37.32
629.797	37.24
629.989	37.22
630.18	37.21
630.372	37.14
630.564	37.12
630.755	37.11
630.947	37.14
631.139	36.97
631.33	36.91
631.522	36.96
631.714	36.9
631.905	36.77
632.097	36.65
632.289	36.63
632.48	36.6
632.672	36.29
632.863	36.06
633.055	36.15
633.246	36.09
633.438	35.85
633.629	36.02
633.821	36
634.012	35.97
634.203	35.87
634.395	35.77
634.586	35.76
634.777	35.75
634.969	35.57
635.16	35.57
635.351	35.58
635.543	35.4
635.734	35.25
635.925	35.22
636.117	35.27
636.308	35.09
636.499	35.08
636.69	34.95
636.881	34.9
637.073	34.72
637.264	34.71
637.455	34.62
637.646	34.74
637.837	34.8
638.028	34.68
638.219	34.67
638.41	34.54
638.601	34.27
638.792	34.09
638.983	33.89
639.174	33.69
639.365	33.73
639.556	33.83
639.747	33.67
639.938	33.76
640.129	33.7
640.32	33.46
640.511	33.3
640.701	33.29
640.892	33.18
641.083	33.15
641.274	33.12
641.465	33.05
641.655	32.85
641.846	32.69
642.037	32.53
642.228	32.42
642.418	32.42
642.609	32.26
642.8	32.23
642.99	32.09
643.181	32.17
643.372	32.09
643.562	32.06
643.753	31.88
643.943	31.85
644.134	31.62
644.324	31.53
644.515	31.41
644.705	31.66
644.896	31.65
645.086	31.69
645.277	31.47
645.467	31.42
645.658	31.04
645.848	30.98
646.038	30.91
646.229	30.82
646.419	30.74
646.61	30.7
646.8	30.61
646.99	30.49
647.18	30.55
647.371	30.57
647.561	30.38
647.751	30.33
647.941	30.14
648.132	30.03
648.322	30.04
648.512	30.18
648.702	29.98
648.892	29.98
649.082	29.96
649.272	29.76
649.462	29.54
649.653	29.47
649.843	29.36
650.033	29.28
650.223	29.08
650.413	29.04
650.603	29.01
650.793	28.96
650.983	28.74
651.172	28.7
651.362	28.67
651.552	28.53
651.742	28.35
651.932	28.35
652.122	28.29
652.312	28.24
652.502	28.23
652.691	28.31
652.881	28.27
653.071	28.21
653.261	27.86
653.45	27.68
653.64	27.62
653.83	27.5
654.019	27.61
654.209	27.87
654.399	27.99
654.588	27.79
654.778	27.64
654.968	27.3
655.157	27.15
655.347	27
655.536	26.91
655.726	26.76
655.915	26.7
656.105	26.45
656.294	26.18
656.484	25.78
656.673	25.63
656.863	25.57
657.052	25.3
657.241	25.13
657.431	25.17
657.62	24.87
657.809	24.5
657.999	24.33
658.188	24.03
658.377	23.78
658.567	23.63
658.756	23.46
658.945	23.16
659.134	22.93
659.324	22.67
659.513	22.59
659.702	22.21
659.891	22.15
660.08	22.1
660.269	21.88
660.458	21.72
660.648	21.71
660.837	21.36
661.026	21.01
661.215	20.82
661.404	20.3
661.593	20.17
661.782	19.89
661.971	19.79
662.16	19.69
662.349	19.76
662.538	19.35
662.726	19.68
662.915	19.49
663.104	19.04
663.293	18.76
663.482	18.79
663.671	18.31
663.86	17.98
664.048	17.84
664.237	17.74
664.426	17.37
664.615	17.29
664.803	17.18
664.992	17.22
665.181	17.03
665.369	16.8
665.558	16.5
665.747	16.32
665.935	16.17
666.124	15.94
666.312	16.12
666.501	15.91
666.69	15.73
666.878	15.57
667.067	15.52
667.255	15.28
667.444	15.58
667.632	15.54
667.82	15.52
668.009	15.33
668.197	15.23
668.386	14.99
668.574	15.12
668.762	14.98
668.951	14.87
669.139	14.69
669.327	14.42
669.516	14.49
669.704	14.56
669.892	14.78
670.08	14.86
670.269	14.77
670.457	14.55
670.645	14.34
670.833	14.19
671.021	14.24
671.21	14.28
671.398	14.27
671.586	14.16
671.774	14.15
671.962	13.96
672.15	13.87
672.338	13.65
672.526	13.79
672.714	13.55
672.902	13.56
673.09	13.88
673.278	14.16
673.466	14.16
673.654	14.64
673.842	14.64
674.03	14.59
674.218	14.46
674.405	14.43
674.593	14.19
674.781	14.47
674.969	14.4
675.157	14.59
675.344	14.7
675.532	14.73
675.72	14.72
675.908	14.96
676.095	14.75
676.283	14.92
676.471	15.18
676.658	15.19
676.846	15.13
677.033	15.44
677.221	15.25
677.409	15.1
677.596	15.18
677.784	15.3
677.971	15.33
678.159	15.64
678.346	15.98
678.534	16.06
678.721	16.37
678.909	16.52
679.096	16.63
679.283	16.74
679.471	16.96
679.658	17.04
679.846	17.33
680.033	17.7
680.22	17.83
680.408	18.02
680.595	18.21
680.782	18.18
680.969	18.34
681.157	18.35
681.344	18.46
681.531	18.63
681.718	18.85
681.905	19.14
682.093	19.41
682.28	19.78
682.467	20.1
682.654	20.47
682.841	20.61
683.028	21.33
683.215	21.7
683.402	21.79
683.589	22.33
683.776	22.57
683.963	22.59
684.15	23.17
684.337	23.53
684.524	23.67
684.711	24.1
684.898	24.38
685.085	24.47
685.271	25.05
685.458	25.64
685.645	26.06
685.832	26.69
686.019	27.15
686.205	27.67
686.392	27.91
686.579	28.4
686.766	29.01
686.952	29.54
687.139	30.28
687.326	30.74
687.512	31.4
687.699	31.88
687.886	32.28
688.072	32.53
688.259	33.55
688.445	34.19
688.632	34.59
688.818	35.67
689.005	36.38
689.191	36.99
689.378	37.73
689.564	38.71
689.751	38.99
689.937	39.85
690.124	40.39
690.31	41.2
690.496	41.73
690.683	42.94
690.869	43.47
691.055	44.18
691.242	44.91
691.428	45.61
691.614	46.23
691.8	47.07
691.987	47.66
692.173	48.3
692.359	49.32
692.545	50.06
692.731	50.45
692.918	51.28
693.104	51.86
693.29	52.48
693.476	53.08
693.662	54.18
693.848	54.84
694.034	55.54
694.22	56.21
694.406	56.77
694.592	57.45
694.778	57.89
694.964	58.27
695.15	58.72
695.336	59.47
695.522	60.04
695.708	60.92
695.894	61.74
696.08	62.27
696.265	62.78
696.451	63.02
696.637	63.93
696.823	64.37
697.009	65.19
697.194	65.64
697.38	66.39
697.566	66.4
697.751	66.79
697.937	67.14
698.123	67.73
698.308	68.42
698.494	68.92
698.68	69.55
698.865	69.88
699.051	70.41
699.236	70.92
699.422	71.35
699.607	71.72
699.793	72.32
699.978	72.49
700.164	72.3
700.349	73.2
700.535	74.02
700.72	74.08
700.906	74.88
701.091	75.63
701.276	75.77
701.462	76.37
701.647	77.42
701.832	77.59
702.018	77.86
702.203	78.4
702.388	77.95
702.573	78.07
702.759	78.7
702.944	78.73
703.129	78.88
703.314	79.47
703.499	79.81
703.684	80.1
703.87	80.82
704.055	81.41
704.24	81.93
704.425	82.17
704.61	82.09
704.795	82.12
704.98	81.78
705.165	81.63
705.35	81.62
705.535	81.68
705.72	82.64
705.905	83.04
706.09	83.55
706.275	83.7
706.459	83.85
706.644	83.28
706.829	83.84
707.014	83.88
707.199	84.05
707.384	84.89
707.568	85.22
707.753	85.52
707.938	86.03
708.123	86.05
708.307	85.58
708.492	85.43
708.677	84.55
708.861	84.15
709.046	84.19
709.231	84.59
709.415	84.69
709.6	85.41
709.784	85.3
709.969	86.31
710.153	86.02
710.338	86.32
710.522	86.06
710.707	86.99
710.891	86.34
711.076	86.97
711.26	86.78
711.445	87
711.629	86.82
711.813	87.28
711.998	87.31
712.182	87.54
712.366	88.08
712.551	88.46
712.735	88.09
712.919	88.41
713.103	88.88
713.288	88.64
713.472	88.44
713.656	89.06
713.84	89.18
714.024	89.29
714.208	89.13
714.393	89.51
714.577	89.67
714.761	89.21
714.945	89.33
715.129	89.1
715.313	88.67
715.497	88.25
715.681	88.7
715.865	88.85
716.049	89.75
716.233	89.8
716.417	90.09
716.601	90.1
716.785	89.8
716.968	89.59
717.152	90.03
717.336	89.93
717.52	89.62
717.704	90.57
717.888	91.11
718.071	90.81
718.255	91.17
718.439	91.26
718.622	91.12
718.806	90.6
718.99	90.65
719.174	90.94
719.357	91.29
719.541	90.27
719.724	90.75
719.908	91.93
720.092	92.36
720.275	92.56
720.459	94.04
720.642	93.56
720.826	92.51
721.009	91.64
721.193	90.38
721.376	89.27
721.559	90.3
721.743	90.4
721.926	90.3
722.11	90.3
722.293	90.31
722.476	88.7
722.66	88.87
722.843	89.17
723.026	89.85
723.21	90.05
723.393	91.53
723.576	91.52
723.759	90.91
723.942	91.22
724.126	91.34
724.309	90.84
724.492	90.85
724.675	91.73
724.858	91.98
725.041	92.87
725.224	92.8
725.407	92.57
725.59	92.07
725.774	91.46
725.957	90.06
726.14	89.87
726.322	90.1
726.505	90.09
726.688	91.1
726.871	90.74
727.054	91.46
727.237	91.31
727.42	91.94
727.603	91.79
727.786	92.3
727.968	92.53
728.151	92.26
728.334	91.45
728.517	91.52
728.699	92.04
728.882	91.07
729.065	92.25
729.248	93.33
729.43	93.58
729.613	94.59
729.796	95.2
729.978	93.39
730.161	92.42
730.343	93.06
730.526	92.35
730.708	91.71
730.891	93.06
731.073	92.99
731.256	90.64
731.438	91.3
731.621	92.68
731.803	93.09
731.986	93.64
732.168	94.95
732.35	94.47
732.533	93.45
732.715	92.63
732.898	93.16
733.08	92.74
733.262	92.21
733.444	91.73
733.627	91.37
733.809	91.23
733.991	92.53
734.173	93.03
734.355	93.53
734.538	94.65
734.72	93.78
734.902	92.75
735.084	92.06
735.266	93.16
735.448	92.27
735.63	92.39
735.812	92.36
735.994	93.21
736.176	92.79
736.358	92.66
736.54	93.92
736.722	94.07
736.904	93.21
737.086	92
737.268	94.38
737.45	94.45
737.632	93.99
737.814	93.88
737.995	95.55
738.177	94.79
738.359	94.21
738.541	95.15
738.723	95.79
738.904	95.08
739.086	94.45
739.268	94.11
739.449	93.87
739.631	93.9
739.813	93.9
739.994	93.81
740.176	94.17
740.358	93.8
740.539	95.19
740.721	95.15
740.902	96.76
741.084	96.05
741.265	95.58
741.447	95.15
741.628	95.63
741.81	92.96
741.991	94.6
742.172	96.25
742.354	96.46
742.535	96.08
742.717	97.78
742.898	96.08
743.079	96.52
743.261	95.68
743.442	94.41
743.623	94.16
743.804	96.16
743.986	95.81
744.167	93.78
744.348	95.36
744.529	94.92
744.71	93.07
744.891	92.65
745.073	93.37
745.254	93.17
745.435	92.9
745.616	92.18
745.797	90.9
745.978	91.61
746.159	90.92
746.34	90.61
746.521	92.34
746.702	92.47
746.883	92.73
747.064	91.08
747.245	91.11
747.426	91.1
747.606	91.61
747.787	92.08
747.968	93.81
748.149	95.71
748.33	95.26
748.51	94.14
748.691	91.97
748.872	93.21
749.053	91.68
749.233	91.31
749.414	92.14
749.595	93.57
749.775	91.79
749.956	89.38
750.137	88.58
750.317	89.76
750.498	90.76
750.678	90.3
750.859	92.71
751.04	94.24
751.22	92.53
751.4	90.32
751.581	90.86
751.761	90.69
751.942	91.4
752.122	93.1
752.303	92.55
752.483	93.35
752.663	93.93
752.844	93.53
753.024	92.96
753.204	94.51
753.385	93.38
753.565	90.9
753.745	90.99
753.925	91.91
754.106	93.02
754.286	94.02
754.466	94.65
754.646	94.66
754.826	93.84
755.006	89.96
755.187	91.61
755.367	93.19
755.547	93.31
755.727	93.86
755.907	95.08
756.087	95.55
756.267	93.85
756.447	92.61
756.627	90.8
756.807	93.01
756.987	90.62
757.167	92.12
757.346	92.01
757.526	89.82
757.706	89.43
757.886	89.4
758.066	91.22
758.246	92.7
758.425	95.63
758.605	94.52
758.785	94.37
758.965	92.37
759.144	88.41
759.324	87.85
759.504	89.64
759.683	89.05
759.863	85.85
760.043	87.65
760.222	88.3
760.402	84.97
760.581	87.25
760.761	90.52
760.94	88.01
761.12	88.54
761.299	92.58
761.479	89.93
761.658	88.31
761.838	90.19
762.017	89.62
762.197	87.51
762.376	89.03
762.555	91.42
762.735	93.05
762.914	89.76
763.093	92.21
763.273	89.35
763.452	89.5
763.631	87.13
763.81	86.8
763.99	84.28
764.169	87.35
764.348	83.18
764.527	84.46
764.706	87.98
764.885	92.06
765.064	88.29
765.243	89.22
765.423	88.97
765.602	89.82
765.781	83.61
765.96	83.45
766.139	84.89
766.318	86.71
766.497	86.36
766.676	88.64
766.854	91.7
767.033	91.37
767.212	89.6
767.391	86.97
767.57	88.14
767.749	89.34
767.928	89.06
768.106	85.67
768.285	84.83
768.464	84.7
768.643	83
768.821	84.73
769	89.39
769.179	90.71
769.357	85.25
769.536	82.05
769.715	83.59
769.893	82.55
770.072	82.07
770.25	81.96
770.429	85.14
770.607	82.84
770.786	82.39
770.964	81.93
771.143	86.97
771.321	89.07
771.5	89.48
771.678	88.05
771.857	88.3
772.035	90.08
772.213	87.45
772.392	82.67
772.57	86.55
772.748	89.31
772.927	83.56
773.105	83.92
773.283	89.2
773.461	89.41
773.64	85.55
773.818	85.43
773.996	86.38
774.174	85.76
774.352	80.55
774.531	81.85
774.709	86.31
774.887	85.41
775.065	82.8
775.243	84.13
775.421	87.64
775.599	88.26
775.777	83.84
775.955	81.81
776.133	81.61
776.311	77.45
776.489	72.62
776.667	76.23
776.844	80.4
777.022	78.55
777.2	77.49
777.378	79.55
777.556	80.16
777.734	79.45
777.911	82.16
778.089	81.88
778.267	85.27
778.445	82
778.622	80.48
778.8	80.9
778.978	87.9
779.155	83.09
779.333	85.59
779.511	81.18
779.688	82.23
779.866	74.19
780.043	72.8
780.221	72.1
780.398	72.48
780.576	73.03
780.753	77.4
780.931	77.91
781.108	76.36
781.286	82.68
781.463	74.15
781.64	72.45
781.818	77.93
781.995	82.05
782.172	79.3
782.35	84.19
782.527	85.63
782.704	80.13
782.882	81.59
783.059	80.61
783.236	83.97
783.413	83.9
783.59	87.23
783.768	78.29
783.945	81.32
784.122	80.69
784.299	79.26
784.476	77.4
784.653	83.16
784.83	78.42
785.007	69.16
785.184	69.83
785.361	70.4
785.538	74.57
785.715	75.86
785.892	84.95
786.069	85.21
786.246	85.64
786.423	78.06
786.6	77.6
786.776	79
786.953	77.54
787.13	78.22
787.307	80.82
787.484	85.03
787.66	78.87
787.837	75.99
788.014	75.5
788.191	73.63
788.367	70.62
788.544	76.16
788.721	78.3
788.897	77.35
789.074	82.98
789.25	81.61
789.427	79.11
789.603	77.91
789.78	83.36
789.956	70.16
790.133	69.86
790.309	67.34
790.486	73.29
790.662	69.25
790.839	75.07
791.015	81.63
791.192	77.98
791.368	78.64
791.544	73.04
791.721	80.09
791.897	72.76
792.073	75.09
792.249	68.05
792.426	73.6
792.602	71.77
792.778	69
792.954	67.86
793.13	65.44
793.307	62.45
793.483	50.23
793.659	54.99
793.835	59.97
794.011	64.25
794.187	56.56
794.363	60.68
794.539	64.83
794.715	58.55
794.891	55.89
795.067	60.99
795.243	71.35
795.419	67.66
795.595	70.73
795.771	74.14
795.947	78.47
796.122	64.74
796.298	69.22
796.474	70.23
796.65	69.04
796.826	68.41
797.001	78.73
797.177	67.8
797.353	71.48
797.529	77.98
797.704	69.23
797.88	61.41
798.056	58.7
798.231	56.84
798.407	55.3
798.582	58.42
798.758	68
798.934	82.69
799.109	76.41
799.285	71.66
799.46	81.69
799.636	75.61
799.811	70.45
799.986	80.95
800.162	90.37
800.337	88.53
800.513	82.75
800.688	77.05
800.863	82.11
801.039	69.12
801.214	59.15
801.389	66.25
801.565	73.25
801.74	60.19
801.915	66
802.09	75.82
802.265	83.24
802.441	80.17
802.616	80.16
802.791	82.12
802.966	79.69
803.141	75.48
803.316	62.82
803.491	65.52
803.666	58.72
803.841	53.43
804.016	49.04
804.191	62.89
804.366	59.73
804.541	62.23
804.716	54.45
804.891	52.1
805.066	59.24
805.241	65.7
805.416	66.47
805.591	71.33
805.765	74.09
805.94	76.08
806.115	75.02
806.29	64.78
806.464	75.17
806.639	69.33
806.814	47.75
806.989	33.22
807.163	46.12
807.338	33.16
807.512	32.12
807.687	35.59
807.862	49.6
808.036	52.46
808.211	59.21
808.385	71.53
808.56	82.24
808.734	78.03
808.909	74.75
809.083	66.86
809.258	72.17
809.432	74.94
809.606	53.93
809.781	53.53
809.955	70.5
810.13	63.65
810.304	50.4
810.478	61.17
810.652	72.65
810.827	75.99
811.001	74.15
811.175	69.12
811.349	74.58
811.524	56.8
811.698	33.91
811.872	33.75
812.046	51.24
812.22	56.61
812.394	58.64
812.568	66.67
812.742	70.33
812.916	56.9
813.09	48.23
813.264	50.57
813.438	54.04
813.612	52.87
813.786	41.28
813.96	58.23
814.134	71.75
814.308	84.58
814.482	84.69
814.656	98.97
814.83	100.81
815.003	89.77
815.177	75.13
815.351	64
815.525	74.68
815.698	57.14
815.872	37.48
816.046	30.13
816.219	39.34
816.393	44.35
816.567	56.62
816.74	63.19
816.914	75.49
817.088	76.3
817.261	64.42
817.435	55.47
817.608	51.35
817.782	42.32
817.955	43.48
818.129	26.8
818.302	31.32
818.475	57.09
818.649	58.84
818.822	33.1
818.996	55.16
819.169	57.98
819.342	31.72
819.516	39
819.689	70.57
819.862	57.86
820.035	42.93
820.209	41.98
820.382	44.5
820.555	37.32
820.728	32.58
820.901	26.81
821.075	40.66
821.248	48.91
821.421	31.73
821.594	27.91
821.767	63.39
821.94	88.68
822.113	49.92
822.286	55.75
822.459	93.72
822.632	76.89
822.805	57.55
822.978	72.04
823.151	73.7
823.324	28.78
823.496	-14.41
823.669	-2.58
823.842	4.25
824.015	-8.05
824.188	-8.28
824.361	-2.05
824.533	-21.05
824.706	-0.93
824.879	9.8
825.051	62.79
825.224	73.64
825.397	78.74
825.569	58.66
825.742	68.36
825.915	58.78
826.087	51.91
826.26	32.35
826.432	27.03
826.605	31.81
826.777	32.95
826.95	21.58
827.122	32.74
827.295	46.23
827.467	37.99
827.64	2.91
827.812	0.88
827.984	18.34
828.157	4.09
828.329	-8.21
828.501	3.73
828.674	18.41
828.846	10.07
829.018	22.1
829.19	24.63
829.363	50.02
829.535	55.6
829.707	58.72
829.879	24.49
830.051	12.07
830.223	5.09
830.395	-24.21
830.568	-40.07
830.74	-24.2
830.912	11.62
831.084	-16.2
831.256	-11.69
831.428	-20.61
831.6	-22.96
831.772	-61.42
831.943	-48.79
832.115	-14.1
832.287	28.5
832.459	27.47
832.631	50.93
832.803	84.48
832.975	76.61
833.146	60.38
833.318	62.45
833.49	58.52
833.662	29.86
833.833	3.6
834.005	10.23
834.177	31.53
834.348	13.63
834.52	-12.15
834.692	12.92
834.863	-3.23
835.035	-35.49
835.206	-16.63
835.378	16.61
835.549	-10.74
835.721	13.66
835.892	9.27
836.064	21.27
836.235	19.96
836.407	60.84
836.578	29.43
836.749	58.06
836.921	35.94
837.092	19.69
837.264	-48.38
837.435	-54.41
837.606	-47.11
837.777	3.32
837.949	31.66
838.12	28.85
838.291	51.05
838.462	57.03
838.633	16.43
838.805	-2.75
838.976	26.75
839.147	18.22
839.318	-35.92
839.489	-56.9
839.66	-38.5
839.831	-29.54
840.002	-35.08
840.173	-21.51
840.344	4.27
840.515	10.67
840.686	-34.17
840.857	-61.3
841.028	-73.92
841.199	-39.57
841.369	-85.5
841.54	-89.3
841.711	-19.11
841.882	9.51
842.053	-18.07
842.223	-30.7
842.394	10.27
842.565	16.57
842.736	16.85
842.906	8.5
843.077	45.86
843.248	54.3
843.418	31.4
843.589	20.04
843.759	77.34
843.93	79.09
844.101	56.27
844.271	62.31
844.442	101.48
844.612	112.57
844.783	71.01
844.953	44.55
845.123	76.59
845.294	59.38
845.464	-2.22
845.635	18.1
845.805	59.31
845.975	58
846.146	5.67
846.316	6.64
846.486	34.6
846.656	21.39
846.827	-25.22
846.997	-4.88
847.167	13.87
847.337	-25.86
847.507	-16.86
847.677	-13.8
847.848	14.5
848.018	28.86
848.188	50.7
848.358	20.36
848.528	27.41
848.698	2.1
848.868	-31.77
849.038	-57.17
849.208	-7.75
849.378	37.97
849.548	7.92
849.718	31.74
849.887	112.63
850.057	-9.56
850.227	-68.36
850.397	-40.59
850.567	-44.62
850.737	-53.61
850.906	-55.69
851.076	-94.25
851.246	-111.06
851.415	-56
851.585	-41.69
851.755	-24.48
851.924	43.24
852.094	62.34
852.264	26.17
852.433	-9.66
852.603	11.37
852.772	5.96
852.942	-34.01
853.111	-51.04
853.281	29.8
853.45	58.18
853.62	12.8
853.789	-29.3
853.959	44.4
854.128	-26.85
854.297	-106.86
854.467	-112.69
854.636	-45.13
854.805	-52.77
854.975	-56.34
855.144	-34.46
855.313	26.33
855.482	0.05
855.652	-47.97
855.821	-27
855.99	24.71
856.159	23.93
856.328	29.12
856.497	28.02
856.667	31.23
856.836	13.47
857.005	-68.44
857.174	-125.18
857.343	-129.1
857.512	-46.38
857.681	-150.49
857.85	-110.65
858.019	-88.42
858.188	-84.27
858.356	-147.9
858.525	-144.24
858.694	-150.81
858.863	-123.98
859.032	-115.23
859.201	-89.56
859.369	-25.57
859.538	9.26
859.707	-28.66
859.876	-50.04
860.044	-43.53
860.213	-15.82
860.382	-45.1
860.55	-6.52
860.719	59.87
860.888	82.27
861.056	17.13
861.225	-23.48
861.393	21.85
861.562	70.2
861.73	-7.45
861.899	2.56
862.067	-11.44
862.236	-1.23
862.404	-92.46
862.572	-111.46
862.741	-55.92
862.909	-54.88
863.078	-90.32
863.246	-97.97
863.414	-55.47
863.582	-144.11
863.751	-92.46
863.919	-111.56
864.087	3.9
864.255	6.45
864.424	-41.94
864.592	-21.05
864.76	39.5
864.928	32.38
865.096	0.49
865.264	59.43
865.432	49.8
865.6	69.9
865.768	-81.57
865.936	-152.68
866.104	-115.84
866.272	-167.02
866.44	-161.72
866.608	-128.61
866.776	-159.52
866.944	-296.36
867.112	-357.23
867.28	-609.78
867.448	-1035.91
867.615	-390.21
867.783	-67.77
867.951	-109.87
868.119	8.85
868.286	-6.02
868.454	-53.83
868.622	-120.32
868.789	-128.01
868.957	-60.84
869.125	-95.53
869.292	-78.42
869.46	-49.6
869.627	6.13
869.795	-65.75
869.963	-47.6
870.13	4.05
870.298	41.74
870.465	-45.14
870.632	-50.03
870.8	-45.11
870.967	-77.47
871.135	-240.06
871.302	-144.39
871.469	-67.64
871.637	-38.45
871.804	-36.48
871.971	-36.93
872.139	-39.78
872.306	0.43
872.473	-28.7
872.64	-86.92
872.807	-27.29
872.975	24.15
873.142	-67.4
873.309	-31.95
873.476	99.69
873.643	119.48
873.81	51.43
873.977	35.01
874.144	35.94
874.311	3.27
874.478	-107.16
874.645	-161.67
874.812	-429.87
874.979	20328.57
875.146	-489.41
875.313	-133.51
875.48	47.83
875.647	39.52
875.813	-38.19
875.98	-94.22
876.147	-156.12
876.314	-174.45
876.481	-271.31
876.647	-312.44
876.814	-150.73
876.981	-58.67
877.147	-110.45
877.314	-144.55
877.481	-9.38
877.647	56.09
877.814	-80.11
877.98	-120.31
878.147	77.7
878.314	91.99
878.48	-16.83
878.647	11.02
878.813	87
878.979	77.74
879.146	28.86
879.312	46.98
879.479	41.45
879.645	34.16
879.811	-66.65
879.978	-46.53
880.144	-20.84
880.31	-4.09
880.477	-132.34
880.643	-119.04
880.809	-93.3
880.975	-56.35
881.142	-106
881.308	-71.1
881.474	-24.02
881.64	-5.12
881.806	-69.7
881.972	-33.08
882.138	-15.78
882.304	20.86
882.47	-87.78
882.636	-153.68
882.802	-133.7
882.968	-36.1
883.134	-193.23
883.3	-208.76
883.466	34.78
883.632	69.41
883.798	-56.67
883.964	-26.23
884.129	-38.32
884.295	-57.84
884.461	-111.32
884.627	-152.22
884.793	-119.33
884.958	-50.69
885.124	-134.01
885.29	-147.02
885.455	-46.88
885.621	-39.29
885.787	-238.41
885.952	-66.91
886.118	-44.4
886.283	-58.51
886.449	-97.96
886.614	-61.27
886.78	-69.99
886.945	-36.24
887.111	-226.11
887.276	-200.67
887.442	-336.97
887.607	-102.15
887.773	-210.1
887.938	-133.98
888.103	-54.25
888.269	-0.58
888.434	-7.95
888.599	-12.73
888.764	63.2
888.93	55.2
889.095	26.29
889.26	-27.92
889.425	60.32
889.59	73.23
889.756	22.85
889.921	1.05
890.086	56.19
890.251	19.94
890.416	-76.52
890.581	-76.24
890.746	-13.74
890.911	17.73
891.076	-50.82
891.241	-46.16
891.406	39.64
891.571	37.79
891.736	-42.84
891.901	-68.75
892.065	-60.17
892.23	-33.46
892.395	-158.84
892.56	-208.47
892.725	-59.48
892.889	-20.67
893.054	-173.59
893.219	-177.81
893.384	-167.57
893.548	-252.78
893.713	-331.37
893.878	-274.23
