Data from Ofra_PP_Phys_0CX04_Reflection_3.txt Node
Date: Sat Jul 24 20:02:39 EDT 2021
User: USUARIO
Spectrometer: FLMT01687
Trigger mode: 0
Integration Time (sec): 1.100000E0
Scans to average: 2
Electric dark correction enabled: true
Nonlinearity correction enabled: false
Boxcar width: 2
XAxis mode: Wavelengths
Number of Pixels in Spectrum: 3648
>>>>>Begin Spectral Data<<<<<
179.494	472.15
179.716	578.6
179.937	994.86
180.158	804.35
180.38	351.5
180.601	-321.59
180.823	70.78
181.044	271.32
181.265	-42.29
181.486	-63.4
181.708	-84.13
181.929	-1826.67
182.15	463.45
182.372	-50.42
182.593	46333.33
182.814	540.51
183.035	164.67
183.257	151.28
183.478	49.11
183.699	48.23
183.92	-14.08
184.141	24.16
184.363	-26.21
184.584	38.69
184.805	33.22
185.026	49.65
185.247	35.94
185.468	22.04
185.689	5.84
185.91	12.44
186.132	4.28
186.353	9.32
186.574	28.99
186.795	48.82
187.016	25.69
187.237	44.82
187.458	49.07
187.679	79.39
187.9	52.87
188.121	87.91
188.342	84.93
188.563	58.76
188.784	69.99
189.005	68.08
189.226	70.33
189.447	68.72
189.667	93.81
189.888	82.13
190.109	76.35
190.33	38.61
190.551	9.93
190.772	6.19
190.993	-19.63
191.214	-32.13
191.434	-31.83
191.655	20.54
191.876	5.39
192.097	-6.02
192.318	16.38
192.538	-4.6
192.759	-38.24
192.98	-55.3
193.201	-43.36
193.421	-88.4
193.642	-38.03
193.863	-16.76
194.083	-11.08
194.304	8.46
194.525	36.9
194.745	44.89
194.966	12.23
195.187	16.14
195.407	-40.48
195.628	-45.98
195.848	-49.12
196.069	-62.15
196.29	-80.74
196.51	-105.07
196.731	-123.35
196.951	-103.23
197.172	-60.42
197.392	-40.39
197.613	-2.77
197.833	3.31
198.054	-13.72
198.274	-9.64
198.495	-64.61
198.715	-22.55
198.936	-61.05
199.156	-26.12
199.377	-33.55
199.597	-6.61
199.817	-30.86
200.038	25.81
200.258	24.49
200.479	4.82
200.699	7.93
200.919	5.13
201.14	-33.1
201.36	-33.67
201.58	-8.37
201.801	2.01
202.021	-1.67
202.241	20.29
202.461	30.97
202.682	1.71
202.902	4.04
203.122	-11.19
203.342	-4.82
203.563	14.78
203.783	24.08
204.003	-14.47
204.223	-52.78
204.443	16.79
204.663	-28.85
204.884	-27.55
205.104	-47.11
205.324	5.68
205.544	-24.97
205.764	-15.07
205.984	-7.14
206.204	16.24
206.424	28.86
206.644	27.79
206.864	22.35
207.084	7.35
207.304	17.7
207.525	-5.76
207.745	-11.69
207.964	13.18
208.184	20.96
208.404	16.27
208.624	10.64
208.844	21.9
209.064	-10.95
209.284	-17.43
209.504	-27.97
209.724	-38.92
209.944	-66.96
210.164	-37.15
210.384	-20.13
210.604	-16.42
210.823	-11.81
211.043	-28.92
211.263	-31.85
211.483	-46.76
211.703	-46.6
211.922	-16.12
212.142	22.4
212.362	30.16
212.582	29.49
212.801	37.92
213.021	3.66
213.241	3.58
213.461	-21.36
213.68	-39.67
213.9	-38.94
214.12	-24.05
214.339	-35.81
214.559	-22.96
214.779	5.06
214.998	13.1
215.218	6.6
215.438	17.83
215.657	40.1
215.877	40.27
216.096	31.15
216.316	48.07
216.535	34.42
216.755	37.69
216.974	34.37
217.194	37.37
217.413	35.68
217.633	46.45
217.852	-2.37
218.072	-11.21
218.291	-27.47
218.511	-30.96
218.73	-78.84
218.95	-63.15
219.169	-51.33
219.389	-71.43
219.608	-67.52
219.827	-22.19
220.047	-16.88
220.266	-17.06
220.485	-1.55
220.705	11.83
220.924	-10.95
221.143	13.09
221.363	-17.83
221.582	7.4
221.801	-2.65
222.021	30.8
222.24	23.74
222.459	31.44
222.678	18.42
222.897	21.66
223.117	2.85
223.336	-0.98
223.555	26.93
223.774	37.08
223.993	48.63
224.213	55.83
224.432	42.86
224.651	47.77
224.87	37.6
225.089	56.43
225.308	53.99
225.527	76.19
225.746	78.85
225.965	76.23
226.184	46.59
226.404	49.08
226.623	25.24
226.842	9.77
227.061	29.64
227.28	43.21
227.499	47.3
227.718	53.57
227.936	55.2
228.155	45.45
228.374	14.79
228.593	0.6
228.812	14.43
229.031	26.84
229.25	5.99
229.469	42.67
229.688	43.09
229.907	39.01
230.125	50.18
230.344	58.53
230.563	49.53
230.782	47.42
231.001	19.6
231.22	2.98
231.438	-5.99
231.657	-7.78
231.876	0.5
232.095	11.59
232.313	18.75
232.532	16.75
232.751	18.63
232.969	24.63
233.188	19.43
233.407	15.26
233.625	1.8
233.844	-12.3
234.063	-38.32
234.281	27.28
234.5	13.83
234.719	36.99
234.937	53.56
235.156	48.84
235.374	24.01
235.593	48.58
235.811	38.86
236.03	47.29
236.249	50.8
236.467	54.17
236.686	27.04
236.904	45.44
237.123	0.68
237.341	-4.81
237.559	-19.41
237.778	-16.98
237.996	-26.86
238.215	-15.14
238.433	-19.07
238.652	-8.69
238.87	-39.29
239.088	-37.3
239.307	-8.24
239.525	6.51
239.743	-17.27
239.962	10.42
240.18	-5.65
240.398	-31.33
240.617	-61
240.835	-18
241.053	-37.22
241.271	-2.26
241.49	21.62
241.708	34.26
241.926	17.83
242.144	24.87
242.363	15.23
242.581	8.37
242.799	20
243.017	23.25
243.235	-6.67
243.453	5.07
243.672	-12.23
243.89	2.06
244.108	18.61
244.326	30.7
244.544	23.27
244.762	9.44
244.98	-9.01
245.198	-0.51
245.416	-6.25
245.634	-1.16
245.852	27.81
246.07	40.54
246.288	31.65
246.506	32.15
246.724	33.8
246.942	23.94
247.16	32.26
247.378	19.31
247.596	22.3
247.814	23.87
248.032	-1.09
248.25	-2.68
248.468	6.97
248.685	21.49
248.903	20.62
249.121	43.31
249.339	23.27
249.557	22.99
249.775	-7.85
249.992	-35.37
250.21	-51.24
250.428	-26.25
250.646	-26.23
250.863	-11.9
251.081	-10.08
251.299	16.26
251.517	11.96
251.734	0.27
251.952	-8.23
252.17	8.61
252.387	16.66
252.605	0.59
252.823	4
253.04	-0.82
253.258	-9.82
253.475	-20.11
253.693	2.47
253.911	10.72
254.128	18.7
254.346	27.51
254.563	20.03
254.781	12.62
254.998	12.1
255.216	16.47
255.433	9.36
255.651	21.28
255.868	30.61
256.086	32.96
256.303	30.74
256.521	22.05
256.738	17.15
256.956	-0.03
257.173	0.53
257.39	10.45
257.608	19.08
257.825	22.08
258.043	44.75
258.26	42.58
258.477	38.88
258.695	43.41
258.912	20.06
259.129	2.51
259.346	-21.53
259.564	-16.87
259.781	-5.71
259.998	15.04
260.216	30.64
260.433	55.93
260.65	42.14
260.867	44.25
261.084	29.06
261.302	20.06
261.519	30.7
261.736	20.57
261.953	7.96
262.17	25.22
262.387	21.14
262.604	3.61
262.822	3.94
263.039	-1.04
263.256	-15.26
263.473	-22.93
263.69	-54.86
263.907	-34.91
264.124	-15.59
264.341	-6.36
264.558	-3.65
264.775	11.92
264.992	14.67
265.209	3.92
265.426	-2.8
265.643	4.22
265.86	0.13
266.077	7.11
266.294	4.2
266.51	6.89
266.727	2.06
266.944	16.73
267.161	8.51
267.378	9.96
267.595	2.16
267.812	-25.42
268.028	-19.92
268.245	-28.13
268.462	-14.81
268.679	-14.4
268.896	27.39
269.112	16.33
269.329	22.52
269.546	30.14
269.763	39
269.979	28.56
270.196	27.98
270.413	24.19
270.629	3.21
270.846	1.57
271.063	18.09
271.279	4.09
271.496	-15.94
271.712	-14.62
271.929	-26.72
272.146	-18.14
272.362	-22.35
272.579	19.52
272.795	21.89
273.012	34.97
273.228	28.16
273.445	25.8
273.661	-8.99
273.878	-31.11
274.094	-34.01
274.311	-54.45
274.527	-24.1
274.744	-10.44
274.96	11.81
275.177	21.68
275.393	17.34
275.609	23.13
275.826	33.17
276.042	29.05
276.259	21.18
276.475	16.83
276.691	-3.15
276.908	-14
277.124	9.52
277.34	16.98
277.557	20.74
277.773	33.96
277.989	28.14
278.205	25.78
278.422	23.22
278.638	41.16
278.854	27.14
279.07	41.88
279.286	11.83
279.503	4.25
279.719	-9.99
279.935	-2.26
280.151	-18.6
280.367	9.32
280.583	11.57
280.799	15.24
281.016	17.01
281.232	28.44
281.448	22.43
281.664	27.96
281.88	22.08
282.096	22.94
282.312	32.46
282.528	31.3
282.744	36.87
282.96	35.3
283.176	34.68
283.392	18.49
283.608	21.7
283.824	18.5
284.04	23.69
284.256	29.32
284.471	36.17
284.687	24.43
284.903	29.63
285.119	42.75
285.335	20.16
285.551	9.31
285.767	8.96
285.982	-6.88
286.198	-35.95
286.414	-22.22
286.63	-11.46
286.846	11.48
287.061	-0.99
287.277	6.77
287.493	14.12
287.709	16.68
287.924	3.37
288.14	30.6
288.356	44.03
288.571	38.42
288.787	28.87
289.003	40.23
289.218	26.36
289.434	14.76
289.65	28.53
289.865	30.86
290.081	34.29
290.296	27.01
290.512	18.2
290.727	22.67
290.943	17.14
291.159	2.55
291.374	9.71
291.59	3.65
291.805	-1.95
292.021	1.5
292.236	14.52
292.451	11.07
292.667	20.88
292.882	20.95
293.098	25.68
293.313	5.02
293.529	4.39
293.744	-4.58
293.959	-18.56
294.175	-3.84
294.39	21.38
294.605	23.85
294.821	25.32
295.036	23.22
295.251	16.44
295.467	8.12
295.682	19.11
295.897	10.34
296.112	2.97
296.328	-3.44
296.543	-1.87
296.758	-15.83
296.973	18.07
297.188	40.61
297.404	27.4
297.619	29.49
297.834	29.09
298.049	8.77
298.264	3.29
298.479	19.56
298.694	12.45
298.909	24.06
299.125	43.31
299.34	42.52
299.555	24.84
299.77	30.32
299.985	-5.46
300.2	-26.87
300.415	-31.7
300.63	-12.71
300.845	-8.43
301.06	-5.37
301.275	-11.17
301.49	-13.26
301.704	-9.21
301.919	-27.06
302.134	-21.63
302.349	16.48
302.564	8.2
302.779	19.38
302.994	56.12
303.209	57.8
303.423	53.48
303.638	64.42
303.853	49.03
304.068	10.13
304.283	-1
304.497	-7.1
304.712	3.35
304.927	2.8
305.142	1.93
305.356	9.38
305.571	15.97
305.786	3.84
306	-1.23
306.215	7.52
306.43	-1.81
306.644	8.13
306.859	15.05
307.074	6.62
307.288	-12.86
307.503	1.1
307.717	-13.35
307.932	-5.54
308.147	-0.03
308.361	28.09
308.576	14.2
308.79	0.39
309.005	3.31
309.219	17.35
309.434	17.47
309.648	2.55
309.863	31.67
310.077	13.36
310.292	5.89
310.506	-15.95
310.72	12.07
310.935	7.3
311.149	13.43
311.364	11.4
311.578	34.15
311.792	28.64
312.007	33.99
312.221	26.41
312.435	30.1
312.649	9.62
312.864	50.55
313.078	31.89
313.292	57.35
313.507	53.39
313.721	52.38
313.935	20.62
314.149	43.52
314.363	31.46
314.578	24.48
314.792	10.81
315.006	25.7
315.22	7.7
315.434	2.6
315.648	-0.16
315.862	1.01
316.077	-9.66
316.291	16.23
316.505	34.84
316.719	43.62
316.933	18.24
317.147	24.27
317.361	-9.57
317.575	-1.81
317.789	-4.02
318.003	12.38
318.217	19.22
318.431	35.19
318.645	37.4
318.859	36.73
319.073	46.71
319.287	22.54
319.5	0.93
319.714	-25.86
319.928	-28.35
320.142	-36.12
320.356	3.66
320.57	26.64
320.784	29.71
320.997	26.94
321.211	15.78
321.425	-13.87
321.639	-41.94
321.853	-19.1
322.066	-19.33
322.28	-15.25
322.494	2.17
322.707	33.84
322.921	17.73
323.135	24.7
323.349	34.75
323.562	22.07
323.776	8.54
323.989	19.93
324.203	5.55
324.417	5.22
324.63	-10.5
324.844	-28.69
325.057	-29.28
325.271	-33.8
325.485	-30.83
325.698	15.42
325.912	39.89
326.125	26.69
326.339	40.31
326.552	29.58
326.766	22.47
326.979	15.02
327.193	37.53
327.406	29.76
327.619	40.78
327.833	31.7
328.046	24.67
328.26	11.51
328.473	19.71
328.686	2.55
328.9	14.36
329.113	18.56
329.326	18.35
329.54	12.67
329.753	29.72
329.966	15.9
330.179	22.24
330.393	36.18
330.606	29.93
330.819	32.6
331.032	38.05
331.246	44.85
331.459	35.57
331.672	22.91
331.885	-1.87
332.098	-13.31
332.311	-13.53
332.525	-16.66
332.738	8.17
332.951	25.87
333.164	24.92
333.377	34.12
333.59	45.94
333.803	29.63
334.016	21.28
334.229	24.54
334.442	12.36
334.655	17.87
334.868	23.37
335.081	29.83
335.294	37.54
335.507	51.27
335.72	49.6
335.933	36.21
336.146	36.81
336.359	31.15
336.572	7.59
336.785	-4.36
336.997	1.29
337.21	11.97
337.423	16.66
337.636	24.86
337.849	26.8
338.062	29.24
338.274	24.78
338.487	22.31
338.7	15.88
338.913	10.16
339.125	-0.65
339.338	7.16
339.551	4.82
339.763	36.59
339.976	50.38
340.189	57.3
340.402	50.71
340.614	45.29
340.827	28.02
341.039	16.82
341.252	19.87
341.465	-7.63
341.677	-14.65
341.89	-40.69
342.102	-39.77
342.315	-43.79
342.527	-34.97
342.74	-20.84
342.952	16.78
343.165	19.51
343.377	38.32
343.59	34.24
343.802	46.92
344.015	42.02
344.227	55.08
344.44	27.64
344.652	30.06
344.864	23.19
345.077	37.7
345.289	30.51
345.502	44.1
345.714	42.32
345.926	28.82
346.139	15.72
346.351	10.66
346.563	5.92
346.775	13.85
346.988	23.32
347.2	24.34
347.412	15.17
347.624	0.76
347.837	5.94
348.049	2.45
348.261	10.35
348.473	8.56
348.685	12.04
348.897	-6.57
349.11	-4.29
349.322	-8.66
349.534	5.55
349.746	18.69
349.958	23.95
350.17	26.4
350.382	36.19
350.594	33.87
350.806	35.01
351.018	34.82
351.23	26.88
351.442	25.51
351.654	23.06
351.866	17.71
352.078	21.04
352.29	13.79
352.502	10.61
352.714	34.22
352.926	28.17
353.138	26.88
353.35	25.82
353.561	23.64
353.773	8.96
353.985	17.42
354.197	19.62
354.409	25.19
354.621	16.08
354.832	18.51
355.044	11.4
355.256	4.82
355.468	3.19
355.679	4.8
355.891	5.31
356.103	5.01
356.314	6.87
356.526	16
356.738	32.39
356.949	28.51
357.161	22.3
357.373	27.29
357.584	18.75
357.796	8.82
358.008	9.85
358.219	21.44
358.431	24.16
358.642	20.47
358.854	22.5
359.065	23.72
359.277	16.2
359.488	3.05
359.7	-8.46
359.911	-18.59
360.123	-15.04
360.334	-18.68
360.546	-21.46
360.757	-11
360.969	-9.65
361.18	-6.09
361.391	-5.2
361.603	-7.85
361.814	-5.63
362.025	-10.47
362.237	-11.93
362.448	-5.51
362.659	13.62
362.871	13.66
363.082	16.21
363.293	18.09
363.504	12.59
363.716	5.4
363.927	9.88
364.138	6.2
364.349	-5.53
364.56	-2.01
364.772	-16.92
364.983	-6.61
365.194	-15.82
365.405	-11.37
365.616	-26.7
365.827	-14.19
366.038	-15.24
366.25	22.62
366.461	15.08
366.672	37.62
366.883	44.12
367.094	31.9
367.305	11.99
367.516	20.48
367.727	11.07
367.938	-9.38
368.149	-13.14
368.36	-7.3
368.571	-13.88
368.781	-13.9
368.992	-11.34
369.203	9.94
369.414	12.61
369.625	8.46
369.836	-2.34
370.047	-0.33
370.258	-11.13
370.468	-18.82
370.679	-37.07
370.89	-25.04
371.101	-3.58
371.312	-15.53
371.522	-6.31
371.733	17.23
371.944	21.08
372.155	14.16
372.365	4.76
372.576	-0.84
372.787	-7.96
372.997	-1.5
373.208	1
373.419	16.58
373.629	10.07
373.84	19.04
374.05	-9.49
374.261	0.31
374.472	-10.85
374.682	5.28
374.893	-3.13
375.103	17.46
375.314	7.24
375.524	12.43
375.735	17.64
375.945	32.33
376.156	19.51
376.366	25.21
376.577	27.85
376.787	28.16
376.997	31
377.208	35.01
377.418	18.1
377.629	23.85
377.839	11.7
378.049	4.73
378.26	15.67
378.47	35.62
378.68	25.71
378.89	26.41
379.101	26.46
379.311	11.85
379.521	-11.87
379.732	-0.91
379.942	-13.11
380.152	-6.94
380.362	7.02
380.572	20.89
380.783	25.76
380.993	39.06
381.203	36.38
381.413	28.47
381.623	20.66
381.833	10.25
382.043	-6.52
382.253	-4.95
382.463	1.77
382.674	5.57
382.884	-1.77
383.094	12.07
383.304	16.41
383.514	13.39
383.724	10.44
383.934	6.94
384.144	2.94
384.353	-1.3
384.563	5.4
384.773	10.79
384.983	20.65
385.193	20.11
385.403	8.27
385.613	6.4
385.823	4.97
386.033	7.03
386.242	-0.12
386.452	10.78
386.662	4.08
386.872	7.4
387.082	3.71
387.291	1.2
387.501	5.46
387.711	8.77
387.921	-1.53
388.13	1.85
388.34	12.08
388.55	4.98
388.759	6.96
388.969	13.24
389.179	10.78
389.388	10.75
389.598	11.29
389.807	8.2
390.017	8.86
390.227	10.13
390.436	8.03
390.646	12.41
390.855	14.76
391.065	14.38
391.274	11.52
391.484	9.33
391.693	7.75
391.903	9.02
392.112	10.1
392.322	12.83
392.531	16.04
392.74	14.31
392.95	10.36
393.159	7.94
393.369	7.35
393.578	4.33
393.787	5.36
393.997	8.5
394.206	9.15
394.415	9.56
394.625	10.06
394.834	8.42
395.043	6.44
395.252	7.54
395.462	7.92
395.671	9.22
395.88	11.42
396.089	13.04
396.298	12.36
396.508	12.22
396.717	12.15
396.926	11.42
397.135	11.21
397.344	11.37
397.553	11.4
397.762	11.53
397.971	11.39
398.181	11.09
398.39	9.75
398.599	9.64
398.808	9.02
399.017	9.06
399.226	8.99
399.435	9.85
399.644	9.37
399.853	9.18
400.062	9.1
400.27	9.2
400.479	9.11
400.688	9.02
400.897	9.26
401.106	9.09
401.315	8.73
401.524	8.65
401.733	8.73
401.941	8.79
402.15	9.01
402.359	9.08
402.568	8.96
402.777	8.96
402.985	8.77
403.194	8.45
403.403	8.31
403.612	8.42
403.82	8.5
404.029	8.64
404.238	8.63
404.446	8.74
404.655	8.44
404.864	8.21
405.072	7.99
405.281	7.93
405.489	7.71
405.698	7.79
405.906	7.85
406.115	7.7
406.324	7.67
406.532	7.66
406.741	7.84
406.949	7.72
407.158	7.87
407.366	7.92
407.574	8.05
407.783	7.96
407.991	7.95
408.2	7.92
408.408	7.87
408.617	7.82
408.825	7.61
409.033	7.73
409.242	7.7
409.45	7.67
409.658	7.49
409.867	7.59
410.075	7.41
410.283	7.3
410.491	7.26
410.7	7.18
410.908	7.06
411.116	7.12
411.324	7.07
411.533	7.05
411.741	7.11
411.949	7.15
412.157	7.02
412.365	7.19
412.573	7.07
412.781	7.2
412.99	7.25
413.198	7.42
413.406	7.38
413.614	7.47
413.822	7.46
414.03	7.4
414.238	7.19
414.446	7.17
414.654	7.03
414.862	6.88
415.07	6.75
415.278	6.9
415.486	6.58
415.694	6.76
415.902	6.83
416.109	6.87
416.317	6.82
416.525	6.73
416.733	6.65
416.941	6.75
417.149	6.7
417.357	6.74
417.564	6.97
417.772	6.86
417.98	6.73
418.188	6.71
418.395	6.54
418.603	6.68
418.811	6.65
419.019	6.52
419.226	6.64
419.434	6.78
419.642	6.61
419.849	6.7
420.057	6.83
420.265	6.69
420.472	6.49
420.68	6.58
420.887	6.41
421.095	6.39
421.302	6.32
421.51	6.57
421.717	6.53
421.925	6.56
422.132	6.48
422.34	6.53
422.547	6.29
422.755	6.31
422.962	6.39
423.17	6.34
423.377	6.44
423.585	6.42
423.792	6.37
423.999	6.27
424.207	6.26
424.414	6.09
424.621	6.3
424.829	6.2
425.036	6.26
425.243	6.18
425.451	6.11
425.658	5.87
425.865	5.89
426.072	5.86
426.28	5.82
426.487	5.81
426.694	5.9
426.901	5.9
427.108	5.96
427.315	6.03
427.523	6.15
427.73	6.2
427.937	6.03
428.144	5.89
428.351	5.88
428.558	5.68
428.765	5.48
428.972	5.51
429.179	5.54
429.386	5.65
429.593	5.79
429.8	5.87
430.007	5.87
430.214	5.98
430.421	6.06
430.628	6.04
430.835	5.88
431.042	6.03
431.249	5.95
431.456	5.95
431.662	6.14
431.869	6.21
432.076	6.14
432.283	6.09
432.49	5.87
432.697	5.69
432.903	5.68
433.11	5.69
433.317	5.74
433.524	5.88
433.73	5.71
433.937	5.78
434.144	5.72
434.35	5.75
434.557	5.63
434.764	5.76
434.97	5.79
435.177	5.9
435.384	5.73
435.59	5.83
435.797	5.96
436.003	5.86
436.21	5.75
436.416	5.76
436.623	5.67
436.829	5.59
437.036	5.58
437.242	5.51
437.449	5.65
437.655	5.6
437.862	5.55
438.068	5.61
438.275	5.74
438.481	5.68
438.687	5.75
438.894	5.85
439.1	5.81
439.307	5.79
439.513	5.76
439.719	5.72
439.926	5.74
440.132	5.76
440.338	5.74
440.544	5.84
440.751	5.71
440.957	5.63
441.163	5.44
441.369	5.47
441.575	5.4
441.782	5.47
441.988	5.39
442.194	5.57
442.4	5.52
442.606	5.64
442.812	5.71
443.018	5.79
443.224	5.87
443.431	5.89
443.637	5.87
443.843	5.87
444.049	5.89
444.255	5.85
444.461	5.89
444.667	5.81
444.873	5.73
445.079	5.8
445.284	5.87
445.49	5.77
445.696	5.69
445.902	5.8
446.108	5.67
446.314	5.49
446.52	5.63
446.726	5.88
446.931	5.81
447.137	5.83
447.343	5.96
447.549	5.85
447.755	5.75
447.96	5.82
448.166	5.84
448.372	5.91
448.578	5.89
448.783	5.91
448.989	6.03
449.195	6.09
449.4	6.01
449.606	6.12
449.812	6.07
450.017	6.08
450.223	6.17
450.428	6.09
450.634	6.07
450.84	6.17
451.045	6.02
451.251	5.91
451.456	6.05
451.662	6.11
451.867	6.07
452.073	6.05
452.278	6.06
452.483	6.06
452.689	6.11
452.894	6.23
453.1	6.32
453.305	6.16
453.51	6.16
453.716	5.96
453.921	5.94
454.127	5.96
454.332	6.01
454.537	5.96
454.742	6.09
454.948	6
455.153	5.95
455.358	6.04
455.563	6.11
455.769	6.12
455.974	6.06
456.179	6.11
456.384	6.06
456.589	6.01
456.795	5.9
457	5.9
457.205	5.86
457.41	5.85
457.615	5.82
457.82	5.88
458.025	5.94
458.23	5.84
458.435	5.93
458.64	5.9
458.845	5.95
459.05	5.89
459.255	5.88
459.46	5.86
459.665	5.99
459.87	6.01
460.075	5.99
460.28	6.1
460.485	6.14
460.69	5.97
460.895	5.73
461.099	5.73
461.304	5.88
461.509	5.8
461.714	5.83
461.919	5.96
462.123	5.92
462.328	5.88
462.533	5.78
462.738	5.92
462.942	5.85
463.147	5.97
463.352	5.87
463.556	5.89
463.761	5.79
463.966	5.96
464.17	5.97
464.375	5.93
464.58	5.98
464.784	6.02
464.989	5.93
465.193	5.94
465.398	5.99
465.602	6.15
465.807	6.1
466.011	6.15
466.216	6.19
466.42	6.24
466.625	6.16
466.829	6.31
467.034	6.35
467.238	6.33
467.443	6.29
467.647	6.26
467.851	6.12
468.056	6.17
468.26	6.14
468.464	6.08
468.669	6.2
468.873	6.31
469.077	6.33
469.282	6.28
469.486	6.39
469.69	6.41
469.894	6.41
470.099	6.41
470.303	6.45
470.507	6.36
470.711	6.21
470.915	6.22
471.119	6.18
471.324	6.23
471.528	6.25
471.732	6.4
471.936	6.42
472.14	6.51
472.344	6.52
472.548	6.65
472.752	6.62
472.956	6.67
473.16	6.56
473.364	6.55
473.568	6.55
473.772	6.54
473.976	6.57
474.18	6.66
474.384	6.64
474.588	6.57
474.792	6.49
474.995	6.4
475.199	6.35
475.403	6.45
475.607	6.47
475.811	6.51
476.015	6.58
476.218	6.58
476.422	6.5
476.626	6.56
476.83	6.65
477.033	6.6
477.237	6.59
477.441	6.62
477.644	6.6
477.848	6.61
478.052	6.52
478.255	6.58
478.459	6.56
478.663	6.72
478.866	6.7
479.07	6.84
479.273	6.99
479.477	7.11
479.681	6.98
479.884	7.04
480.088	6.93
480.291	6.84
480.495	6.72
480.698	6.77
480.901	6.84
481.105	7.01
481.308	7.02
481.512	7.08
481.715	7.13
481.919	7.1
482.122	7.01
482.325	6.98
482.529	6.93
482.732	6.99
482.935	6.93
483.138	6.93
483.342	6.99
483.545	7.18
483.748	7.13
483.952	7.21
484.155	7.35
484.358	7.4
484.561	7.31
484.764	7.32
484.967	7.27
485.171	7.25
485.374	7.09
485.577	7.13
485.78	7.13
485.983	7.18
486.186	7.1
486.389	7.18
486.592	7.17
486.795	7.2
486.998	7.15
487.201	7.2
487.404	7.25
487.607	7.3
487.81	7.3
488.013	7.33
488.216	7.33
488.419	7.41
488.622	7.32
488.825	7.29
489.028	7.33
489.231	7.4
489.433	7.29
489.636	7.3
489.839	7.24
490.042	7.15
490.245	7.04
490.447	7.13
490.65	7.19
490.853	7.36
491.056	7.48
491.258	7.53
491.461	7.6
491.664	7.56
491.866	7.41
492.069	7.38
492.272	7.43
492.474	7.39
492.677	7.42
492.879	7.58
493.082	7.7
493.285	7.8
493.487	7.73
493.69	7.67
493.892	7.51
494.095	7.44
494.297	7.41
494.5	7.53
494.702	7.59
494.905	7.81
495.107	7.86
495.309	7.85
495.512	7.83
495.714	7.92
495.917	7.96
496.119	7.96
496.321	8
496.524	8.06
496.726	8.09
496.928	8.1
497.13	8.09
497.333	8.18
497.535	8.26
497.737	8.24
497.939	8.16
498.142	8.29
498.344	8.2
498.546	8.18
498.748	8.25
498.95	8.27
499.152	8.15
499.355	8.26
499.557	8.24
499.759	8.23
499.961	8.33
500.163	8.44
500.365	8.49
500.567	8.45
500.769	8.45
500.971	8.48
501.173	8.44
501.375	8.5
501.577	8.6
501.779	8.73
501.981	8.71
502.183	8.79
502.385	8.7
502.587	8.66
502.788	8.61
502.99	8.73
503.192	8.77
503.394	8.81
503.596	8.89
503.798	8.95
503.999	8.99
504.201	9
504.403	9.09
504.605	9.13
504.806	9.1
505.008	9.06
505.21	9.13
505.411	9.16
505.613	9.17
505.815	9.25
506.016	9.36
506.218	9.36
506.42	9.34
506.621	9.37
506.823	9.45
507.024	9.44
507.226	9.49
507.427	9.53
507.629	9.65
507.83	9.69
508.032	9.7
508.233	9.81
508.435	9.9
508.636	9.94
508.838	9.83
509.039	9.89
509.24	9.83
509.442	9.84
509.643	9.77
509.845	9.96
510.046	9.94
510.247	9.95
510.448	9.96
510.65	10.05
510.851	10.06
511.052	10.19
511.254	10.23
511.455	10.35
511.656	10.36
511.857	10.4
512.058	10.33
512.26	10.43
512.461	10.39
512.662	10.48
512.863	10.35
513.064	10.42
513.265	10.5
513.466	10.56
513.667	10.55
513.868	10.75
514.069	10.87
514.27	10.9
514.471	10.9
514.672	10.94
514.873	10.89
515.074	10.84
515.275	10.74
515.476	10.82
515.677	10.9
515.878	11
516.079	11
516.28	11.17
516.481	11.32
516.682	11.34
516.882	11.35
517.083	11.45
517.284	11.33
517.485	11.23
517.686	11.25
517.886	11.29
518.087	11.32
518.288	11.53
518.488	11.56
518.689	11.58
518.89	11.6
519.091	11.65
519.291	11.56
519.492	11.65
519.692	11.71
519.893	11.79
520.094	11.82
520.294	11.83
520.495	11.79
520.695	11.89
520.896	11.93
521.096	12
521.297	12.09
521.497	12.23
521.698	12.18
521.898	12.18
522.099	12.15
522.299	12.15
522.499	12.15
522.7	12.21
522.9	12.26
523.101	12.36
523.301	12.43
523.501	12.45
523.702	12.5
523.902	12.58
524.102	12.69
524.302	12.71
524.503	12.76
524.703	12.81
524.903	12.75
525.103	12.67
525.304	12.74
525.504	12.79
525.704	12.79
525.904	12.88
526.104	12.89
526.304	12.93
526.504	12.99
526.705	13.03
526.905	13.14
527.105	13.28
527.305	13.36
527.505	13.33
527.705	13.35
527.905	13.33
528.105	13.25
528.305	13.17
528.505	13.23
528.705	13.37
528.905	13.36
529.105	13.45
529.304	13.6
529.504	13.68
529.704	13.68
529.904	13.75
530.104	13.78
530.304	13.87
530.503	13.91
530.703	13.86
530.903	13.92
531.103	13.99
531.303	13.95
531.502	13.96
531.702	14.05
531.902	14.07
532.101	14.05
532.301	14.06
532.501	14.11
532.7	14.19
532.9	14.25
533.1	14.3
533.299	14.37
533.499	14.47
533.698	14.41
533.898	14.48
534.097	14.52
534.297	14.57
534.496	14.59
534.696	14.74
534.895	14.82
535.095	14.94
535.294	15
535.494	14.98
535.693	14.96
535.892	15.03
536.092	14.97
536.291	15
536.491	15.06
536.69	15.1
536.889	14.98
537.088	15.06
537.288	15.17
537.487	15.27
537.686	15.36
537.886	15.54
538.085	15.65
538.284	15.65
538.483	15.62
538.682	15.68
538.882	15.68
539.081	15.74
539.28	15.8
539.479	15.87
539.678	15.88
539.877	15.94
540.076	15.96
540.275	16.09
540.474	16.13
540.673	16.24
540.872	16.37
541.071	16.42
541.27	16.42
541.469	16.55
541.668	16.62
541.867	16.59
542.066	16.64
542.265	16.74
542.464	16.76
542.663	16.89
542.862	17.14
543.06	17.29
543.259	17.42
543.458	17.62
543.657	17.57
543.856	17.57
544.054	17.55
544.253	17.52
544.452	17.51
544.651	17.61
544.849	17.59
545.048	17.73
545.247	17.84
545.445	17.89
545.644	18
545.843	18.09
546.041	18.12
546.24	18.18
546.438	18.28
546.637	18.32
546.836	18.47
547.034	18.55
547.233	18.63
547.431	18.63
547.63	18.77
547.828	18.77
548.027	18.99
548.225	19.04
548.423	19.26
548.622	19.4
548.82	19.48
549.019	19.5
549.217	19.7
549.415	19.72
549.614	19.74
549.812	19.85
550.01	19.87
550.209	19.97
550.407	20.09
550.605	20.28
550.803	20.5
551.002	20.61
551.2	20.6
551.398	20.75
551.596	20.76
551.794	20.89
551.993	21.02
552.191	21.14
552.389	21.23
552.587	21.32
552.785	21.34
552.983	21.48
553.181	21.7
553.379	21.83
553.577	21.97
553.775	22.14
553.973	22.29
554.171	22.39
554.369	22.5
554.567	22.62
554.765	22.69
554.963	22.78
555.161	22.82
555.359	23.01
555.557	23.16
555.755	23.33
555.952	23.56
556.15	23.67
556.348	23.74
556.546	23.92
556.744	23.98
556.941	24.04
557.139	24.22
557.337	24.4
557.535	24.47
557.732	24.59
557.93	24.65
558.128	24.78
558.325	24.79
558.523	24.88
558.721	25.03
558.918	25.2
559.116	25.31
559.313	25.39
559.511	25.55
559.708	25.71
559.906	25.89
560.104	25.95
560.301	26.21
560.498	26.35
560.696	26.49
560.893	26.55
561.091	26.8
561.288	26.86
561.486	27.04
561.683	27.23
561.88	27.39
562.078	27.51
562.275	27.64
562.473	27.68
562.67	27.75
562.867	27.86
563.064	28
563.262	28.13
563.459	28.29
563.656	28.45
563.853	28.57
564.051	28.58
564.248	28.79
564.445	28.93
564.642	29.1
564.839	29.17
565.036	29.42
565.234	29.57
565.431	29.6
565.628	29.69
565.825	29.88
566.022	29.99
566.219	30.02
566.416	30.03
566.613	30.01
566.81	30.1
567.007	30.09
567.204	30.17
567.401	30.41
567.598	30.53
567.795	30.54
567.991	30.65
568.188	30.76
568.385	30.8
568.582	30.91
568.779	31
568.976	31.18
569.172	31.29
569.369	31.38
569.566	31.38
569.763	31.45
569.96	31.5
570.156	31.54
570.353	31.64
570.55	31.7
570.746	31.85
570.943	31.87
571.14	31.95
571.336	32.01
571.533	32.13
571.729	32.14
571.926	32.25
572.123	32.1
572.319	32.14
572.516	32.17
572.712	32.18
572.909	32.23
573.105	32.45
573.302	32.61
573.498	32.66
573.695	32.69
573.891	32.61
574.087	32.62
574.284	32.43
574.48	32.43
574.677	32.45
574.873	32.5
575.069	32.55
575.266	32.73
575.462	32.69
575.658	32.7
575.854	32.75
576.051	32.75
576.247	32.55
576.443	32.63
576.639	32.65
576.835	32.63
577.032	32.52
577.228	32.62
577.424	32.59
577.62	32.55
577.816	32.42
578.012	32.49
578.208	32.4
578.404	32.47
578.6	32.57
578.796	32.67
578.993	32.63
579.189	32.67
579.384	32.53
579.58	32.39
579.776	32.37
579.972	32.37
580.168	32.43
580.364	32.41
580.56	32.37
580.756	32.3
580.952	32.18
581.148	32.13
581.343	32.22
581.539	32.22
581.735	32.13
581.931	32.16
582.127	32.08
582.322	31.88
582.518	31.94
582.714	31.89
582.909	31.81
583.105	31.75
583.301	31.73
583.496	31.66
583.692	31.61
583.888	31.55
584.083	31.57
584.279	31.63
584.474	31.55
584.67	31.61
584.866	31.62
585.061	31.58
585.257	31.52
585.452	31.47
585.648	31.37
585.843	31.4
586.039	31.28
586.234	31.29
586.429	31.26
586.625	31.34
586.82	31.19
587.015	31.21
587.211	31.14
587.406	31.2
587.601	31.12
587.797	31.16
587.992	31.15
588.187	31.23
588.383	31.26
588.578	31.25
588.773	31.24
588.968	31.24
589.163	31.19
589.359	31.03
589.554	30.98
589.749	31.09
589.944	31.12
590.139	31.13
590.334	31.13
590.529	31.17
590.724	31.07
590.919	31.09
591.114	31
591.309	31.18
591.504	31.21
591.699	31.22
591.894	31.22
592.089	31.17
592.284	31.1
592.479	31.06
592.674	31.02
592.869	30.98
593.064	31.17
593.259	31.15
593.454	31.24
593.648	31.31
593.843	31.44
594.038	31.32
594.233	31.33
594.428	31.32
594.622	31.33
594.817	31.38
595.012	31.44
595.206	31.61
595.401	31.8
595.596	31.81
595.79	31.79
595.985	31.98
596.18	31.91
596.374	31.88
596.569	31.97
596.763	32
596.958	31.92
597.153	31.94
597.347	31.97
597.542	32.13
597.736	32.2
597.931	32.26
598.125	32.46
598.319	32.58
598.514	32.48
598.708	32.49
598.903	32.46
599.097	32.42
599.291	32.31
599.486	32.26
599.68	32.3
599.874	32.38
600.069	32.34
600.263	32.28
600.457	32.41
600.651	32.44
600.846	32.42
601.04	32.55
601.234	32.59
601.428	32.58
601.622	32.52
601.817	32.55
602.011	32.42
602.205	32.56
602.399	32.49
602.593	32.58
602.787	32.54
602.981	32.55
603.175	32.5
603.369	32.42
603.563	32.41
603.757	32.4
603.951	32.43
604.145	32.28
604.339	32.44
604.533	32.29
604.727	32.2
604.921	32.1
605.115	32.1
605.309	32
605.502	32.07
605.696	31.95
605.89	31.89
606.084	31.9
606.278	31.86
606.471	31.72
606.665	31.7
606.859	31.61
607.053	31.49
607.246	31.35
607.44	31.27
607.634	31.27
607.827	31.29
608.021	31.16
608.214	31.1
608.408	31.08
608.602	31.09
608.795	31
608.989	31.01
609.182	30.93
609.376	30.79
609.569	30.69
609.763	30.6
609.956	30.59
610.15	30.53
610.343	30.37
610.537	30.17
610.73	30.15
610.923	29.9
611.117	29.79
611.31	29.79
611.504	29.76
611.697	29.63
611.89	29.61
612.083	29.48
612.277	29.39
612.47	29.32
612.663	29.1
612.856	28.91
613.05	28.87
613.243	28.75
613.436	28.65
613.629	28.61
613.822	28.64
614.015	28.55
614.209	28.45
614.402	28.35
614.595	28.33
614.788	28.25
614.981	28.2
615.174	28.06
615.367	27.99
615.56	27.84
615.753	27.7
615.946	27.58
616.139	27.62
616.332	27.64
616.525	27.66
616.718	27.6
616.911	27.54
617.103	27.53
617.296	27.5
617.489	27.4
617.682	27.45
617.875	27.43
618.067	27.36
618.26	27.09
618.453	27.05
618.646	26.97
618.838	26.87
619.031	26.79
619.224	26.85
619.417	26.82
619.609	26.81
619.802	26.7
619.994	26.64
620.187	26.62
620.38	26.48
620.572	26.34
620.765	26.35
620.957	26.26
621.15	26.07
621.342	26.04
621.535	26.04
621.727	26.02
621.92	25.98
622.112	26.01
622.305	26.05
622.497	25.89
622.69	25.81
622.882	25.72
623.074	25.71
623.267	25.63
623.459	25.65
623.651	25.65
623.844	25.73
624.036	25.81
624.228	25.79
624.42	25.74
624.613	25.65
624.805	25.7
624.997	25.52
625.189	25.51
625.381	25.52
625.574	25.61
625.766	25.41
625.958	25.45
626.15	25.4
626.342	25.36
626.534	25.25
626.726	25.27
626.918	25.19
627.11	25.11
627.302	25.04
627.494	25
627.686	25.03
627.878	24.98
628.07	24.94
628.262	24.9
628.454	24.88
628.646	24.79
628.838	24.86
629.029	24.78
629.221	24.82
629.413	24.73
629.605	24.65
629.797	24.44
629.989	24.49
630.18	24.4
630.372	24.41
630.564	24.35
630.755	24.4
630.947	24.31
631.139	24.16
631.33	24.06
631.522	24.25
631.714	24.19
631.905	24.14
632.097	24.22
632.289	24.25
632.48	24.06
632.672	24.01
632.863	23.9
633.055	23.82
633.246	23.76
633.438	23.7
633.629	23.64
633.821	23.6
634.012	23.56
634.203	23.35
634.395	23.3
634.586	23.34
634.777	23.32
634.969	23.29
635.16	23.39
635.351	23.31
635.543	23.23
635.734	23.15
635.925	23.07
636.117	23.07
636.308	22.93
636.499	22.79
636.69	22.68
636.881	22.52
637.073	22.47
637.264	22.47
637.455	22.37
637.646	22.33
637.837	22.41
638.028	22.28
638.219	22.21
638.41	22.31
638.601	22.29
638.792	22.17
638.983	22.04
639.174	21.96
639.365	21.89
639.556	21.83
639.747	21.8
639.938	21.9
640.129	21.88
640.32	21.73
640.511	21.73
640.701	21.69
640.892	21.56
641.083	21.57
641.274	21.52
641.465	21.47
641.655	21.36
641.846	21.34
642.037	21.17
642.228	21.09
642.418	21.01
642.609	20.89
642.8	20.69
642.99	20.63
643.181	20.68
643.372	20.57
643.562	20.53
643.753	20.55
643.943	20.42
644.134	20.23
644.324	20.13
644.515	20.07
644.705	20.08
644.896	20.15
645.086	20.17
645.277	20.08
645.467	20.02
645.658	19.74
645.848	19.59
646.038	19.49
646.229	19.53
646.419	19.44
646.61	19.41
646.8	19.33
646.99	19.26
647.18	19.25
647.371	19.25
647.561	19.25
647.751	19.21
647.941	19.07
648.132	18.92
648.322	18.89
648.512	18.82
648.702	18.68
648.892	18.56
649.082	18.53
649.272	18.28
649.462	18.18
649.653	18.2
649.843	18.21
650.033	18.14
650.223	18.1
650.413	18.06
650.603	17.99
650.793	17.88
650.983	17.77
651.172	17.69
651.362	17.65
651.552	17.55
651.742	17.38
651.932	17.32
652.122	17.3
652.312	17.24
652.502	17.18
652.691	17.24
652.881	17.18
653.071	17.08
653.261	16.88
653.45	16.77
653.64	16.7
653.83	16.63
654.019	16.59
654.209	16.65
654.399	16.62
654.588	16.48
654.778	16.32
654.968	16.2
655.157	16.06
655.347	15.93
655.536	15.83
655.726	15.78
655.915	15.65
656.105	15.53
656.294	15.34
656.484	15.14
656.673	14.94
656.863	14.89
657.052	14.73
657.241	14.6
657.431	14.53
657.62	14.29
657.809	14.03
657.999	13.93
658.188	13.74
658.377	13.59
658.567	13.47
658.756	13.36
658.945	13.05
659.134	12.96
659.324	12.8
659.513	12.76
659.702	12.55
659.891	12.57
660.08	12.4
660.269	12.32
660.458	12.2
660.648	12.13
660.837	11.92
661.026	11.8
661.215	11.69
661.404	11.35
661.593	11.24
661.782	11.05
661.971	11.02
662.16	10.82
662.349	10.85
662.538	10.7
662.726	10.7
662.915	10.54
663.104	10.37
663.293	10.14
663.482	10.05
663.671	9.86
663.86	9.61
664.048	9.49
664.237	9.5
664.426	9.33
664.615	9.26
664.803	9.23
664.992	9.23
665.181	9.12
665.369	8.98
665.558	8.88
665.747	8.77
665.935	8.72
666.124	8.65
666.312	8.75
666.501	8.72
666.69	8.66
666.878	8.56
667.067	8.47
667.255	8.43
667.444	8.51
667.632	8.52
667.82	8.47
668.009	8.44
668.197	8.44
668.386	8.29
668.574	8.31
668.762	8.3
668.951	8.3
669.139	8.15
669.327	8.06
669.516	8.01
669.704	8.06
669.892	8.07
670.08	8.15
670.269	8.22
670.457	8.17
670.645	8.15
670.833	8.15
671.021	8.05
671.21	7.99
671.398	8.1
671.586	8.08
671.774	7.99
671.962	8.09
672.15	8.11
672.338	7.99
672.526	8.04
672.714	7.91
672.902	7.92
673.09	8.04
673.278	8.22
673.466	8.2
673.654	8.61
673.842	8.6
674.03	8.68
674.218	8.68
674.405	8.72
674.593	8.69
674.781	8.88
674.969	8.7
675.157	8.79
675.344	8.88
675.532	8.8
675.72	8.76
675.908	9
676.095	8.94
676.283	8.93
676.471	9.1
676.658	9.11
676.846	9.07
677.033	9.27
677.221	9.3
677.409	9.31
677.596	9.38
677.784	9.54
677.971	9.52
678.159	9.72
678.346	9.84
678.534	9.87
678.721	9.95
678.909	9.94
679.096	10.02
679.283	10.11
679.471	10.29
679.658	10.39
679.846	10.6
680.033	10.76
680.22	10.86
680.408	10.97
680.595	11.13
680.782	11.16
680.969	11.25
681.157	11.31
681.344	11.35
681.531	11.34
681.718	11.46
681.905	11.66
682.093	11.75
682.28	11.95
682.467	12.26
682.654	12.49
682.841	12.55
683.028	12.85
683.215	13.21
683.402	13.23
683.589	13.51
683.776	13.76
683.963	13.9
684.15	14.02
684.337	14.28
684.524	14.36
684.711	14.54
684.898	14.77
685.085	14.93
685.271	15.41
685.458	15.87
685.645	16.05
685.832	16.48
686.019	16.92
686.205	17.18
686.392	17.46
686.579	17.85
686.766	18.22
686.952	18.68
687.139	19.1
687.326	19.41
687.512	19.93
687.699	20.41
687.886	20.57
688.072	20.79
688.259	21.42
688.445	22.05
688.632	22.4
688.818	23.14
689.005	23.65
689.191	24.11
689.378	24.62
689.564	25.23
689.751	25.63
689.937	26.36
690.124	26.73
690.31	27.16
690.496	27.62
690.683	28.37
690.869	29.01
691.055	29.72
691.242	30.53
691.428	31.15
691.614	31.71
691.8	32.18
691.987	32.92
692.173	33.53
692.359	34.18
692.545	34.9
692.731	35.38
692.918	35.97
693.104	36.45
693.29	37.24
693.476	37.8
693.662	38.92
693.848	39.42
694.034	40.11
694.22	40.78
694.406	41.54
694.592	42.06
694.778	42.6
694.964	43.29
695.15	44
695.336	44.49
695.522	45.16
695.708	46.14
695.894	46.69
696.08	47.33
696.265	48.05
696.451	48.61
696.637	49.25
696.823	49.86
697.009	50.38
697.194	51.12
697.38	51.69
697.566	52.36
697.751	53.03
697.937	53.58
698.123	54.12
698.308	55.01
698.494	55.42
698.68	56.29
698.865	56.95
699.051	57.72
699.236	58.38
699.422	58.9
699.607	59.15
699.793	59.67
699.978	59.77
700.164	59.69
700.349	60.49
700.535	61.28
700.72	61.86
700.906	62.71
701.091	63.51
701.276	64.07
701.462	64.55
701.647	65.52
701.832	66.12
702.018	66.89
702.203	67.5
702.388	67.99
702.573	68.15
702.759	68.42
702.944	68.72
703.129	68.99
703.314	69.43
703.499	69.82
703.684	70.74
703.87	71.19
704.055	71.79
704.24	72.33
704.425	72.83
704.61	72.83
704.795	73.32
704.98	73.44
705.165	73.79
705.35	74.13
705.535	74.62
705.72	75.19
705.905	75.86
706.09	76.45
706.275	76.74
706.459	77.12
706.644	77.48
706.829	77.8
707.014	77.82
707.199	78.03
707.384	78.4
707.568	78.61
707.753	79.25
707.938	80.11
708.123	80.64
708.307	80.89
708.492	81.07
708.677	80.4
708.861	80.14
709.046	80.47
709.231	80.92
709.415	81
709.6	81.86
709.784	81.75
709.969	82.18
710.153	82.21
710.338	82.97
710.522	82.95
710.707	83.66
710.891	83.61
711.076	84.2
711.26	83.64
711.445	84.08
711.629	84.46
711.813	84.85
711.998	85.01
712.182	85.66
712.366	86.28
712.551	86.49
712.735	86.39
712.919	86.53
713.103	86.8
713.288	86.82
713.472	87.05
713.656	87.67
713.84	88.25
714.024	88.71
714.208	88.9
714.393	89.34
714.577	89.7
714.761	89.38
714.945	89.61
715.129	89.44
715.313	89.02
715.497	88.48
715.681	88.83
715.865	88.79
716.049	89.2
716.233	89.63
716.417	89.94
716.601	89.78
716.785	89.6
716.968	89.58
717.152	89.33
717.336	89.55
717.52	89.76
717.704	90.75
717.888	91.27
718.071	91.51
718.255	91.79
718.439	92.15
718.622	91.7
718.806	91.1
718.99	90.74
719.174	91.08
719.357	91.08
719.541	90.91
719.724	91.95
719.908	93.27
720.092	93.4
720.275	93.39
720.459	94.06
720.642	93.55
720.826	93.11
721.009	93.03
721.193	92.68
721.376	92.1
721.559	92.95
721.743	93.6
721.926	93.69
722.11	93.47
722.293	93.87
722.476	93.1
722.66	92.7
722.843	92.72
723.026	93.09
723.21	92.99
723.393	93.67
723.576	93.68
723.759	93.42
723.942	94.23
724.126	95.01
724.309	94.68
724.492	94.84
724.675	95.53
724.858	95.19
725.041	95.33
725.224	95.61
725.407	95.62
725.59	95.55
725.774	95.77
725.957	94.4
726.14	94.25
726.322	94.14
726.505	93.76
726.688	94.12
726.871	94.6
727.054	95.04
727.237	95.46
727.42	95.98
727.603	95.91
727.786	96.11
727.968	95.77
728.151	94.87
728.334	94.8
728.517	94.78
728.699	95.25
728.882	95.4
729.065	96.34
729.248	96.2
729.43	96.54
729.613	97.48
729.796	97.46
729.978	96.6
730.161	96.56
730.343	96.93
730.526	96.18
730.708	96.51
730.891	98.02
731.073	97.63
731.256	96.57
731.438	96.79
731.621	97.12
731.803	97.1
731.986	98.48
732.168	99.18
732.35	99.54
732.533	99.23
732.715	98.66
732.898	98.11
733.08	98.21
733.262	97.54
733.444	97.49
733.627	97.26
733.809	97.45
733.991	97.37
734.173	97.87
734.355	98.31
734.538	98.88
734.72	98.28
734.902	98.77
735.084	98.14
735.266	97.71
735.448	98.24
735.63	98.4
735.812	98.16
735.994	99.06
736.176	99.59
736.358	99.22
736.54	100.05
736.722	100.72
736.904	99.98
737.086	99.03
737.268	100.05
737.45	100.77
737.632	100.14
737.814	100.51
737.995	102.14
738.177	101.49
738.359	100.82
738.541	100.87
738.723	101.55
738.904	101.04
739.086	100.4
739.268	99.7
739.449	99.2
739.631	98.76
739.813	98.56
739.994	99.53
740.176	100.49
740.358	101.02
740.539	101.44
740.721	101.8
740.902	102.26
741.084	102.2
741.265	102.03
741.447	102.11
741.628	101.8
741.81	100.04
741.991	100.8
742.172	100.97
742.354	100.43
742.535	100.67
742.717	102.12
742.898	100.41
743.079	101.01
743.261	101.01
743.442	100.6
743.623	100.16
743.804	102.05
743.986	102.3
744.167	102.13
744.348	102.63
744.529	103.59
744.71	101.78
744.891	101.69
745.073	101.82
745.254	102.37
745.435	101.78
745.616	101.14
745.797	100.73
745.978	100.6
746.159	100.46
746.34	99.26
746.521	99.68
746.702	99.37
746.883	99.34
747.064	97.15
747.245	96.89
747.426	98.22
747.606	98.32
747.787	98.33
747.968	98.38
748.149	99.43
748.33	99.59
748.51	98.71
748.691	98.26
748.872	100.29
749.053	100.6
749.233	100.2
749.414	100.54
749.595	101.09
749.775	99.77
749.956	98.1
750.137	96.42
750.317	96.38
750.498	97.72
750.678	97.83
750.859	98.63
751.04	99.9
751.22	99.37
751.4	97.43
751.581	99.16
751.761	98.64
751.942	99.12
752.122	100.05
752.303	100.57
752.483	99.96
752.663	100.82
752.844	101.48
753.024	101.81
753.204	101.41
753.385	100.17
753.565	98.63
753.745	97.37
753.925	97.04
754.106	98.26
754.286	99.15
754.466	99.61
754.646	100.66
754.826	100.83
755.006	99.06
755.187	98.8
755.367	100.49
755.547	100
755.727	100.3
755.907	99.89
756.087	100.54
756.267	99.14
756.447	98.98
756.627	99.16
756.807	101.67
756.987	100.47
757.167	101
757.346	100.13
757.526	98.86
757.706	97.01
757.886	96.84
758.066	97.71
758.246	99.03
758.425	99.77
758.605	99.52
758.785	100.9
758.965	100.19
759.144	97.05
759.324	97.48
759.504	99.36
759.683	98.37
759.863	97.64
760.043	100.2
760.222	99.19
760.402	96.95
760.581	97.33
760.761	98.14
760.94	96.28
761.12	94.58
761.299	96.55
761.479	96.71
761.658	95.67
761.838	96.53
762.017	98.69
762.197	97.16
762.376	96.73
762.555	97.32
762.735	98.13
762.914	96.74
763.093	98.97
763.273	97.67
763.452	98.77
763.631	97.14
763.81	95.68
763.99	94.07
764.169	96.09
764.348	93.55
764.527	95.8
764.706	98.63
764.885	98.95
765.064	97.47
765.243	98.45
765.423	97.28
765.602	98.8
765.781	98.28
765.96	96.81
766.139	97.44
766.318	96.44
766.497	97.37
766.676	97.34
766.854	99.08
767.033	97.68
767.212	98.63
767.391	94.74
767.57	95.48
767.749	95.65
767.928	96.96
768.106	93.98
768.285	93.61
768.464	93.5
768.643	93.82
768.821	93.6
769	96.97
769.179	97.25
769.357	94.57
769.536	93.39
769.715	94.39
769.893	93.24
770.072	92.56
770.25	92.58
770.429	92.48
770.607	91.26
770.786	92.04
770.964	92.72
771.143	95.04
771.321	96.44
771.5	96.26
771.678	95.02
771.857	94.2
772.035	93.65
772.213	92.07
772.392	88.99
772.57	89.44
772.748	90.96
772.927	88.74
773.105	88.65
773.283	92.02
773.461	93.19
773.64	91.25
773.818	90.92
773.996	92.12
774.174	93.06
774.352	89.25
774.531	91.41
774.709	95.03
774.887	94.15
775.065	90.83
775.243	92.39
775.421	92.95
775.599	95.38
775.777	92.98
775.955	93.09
776.133	94.71
776.311	91.29
776.489	86.94
776.667	89.04
776.844	89.87
777.022	87.67
777.2	88.8
777.378	88.3
777.556	89.33
777.734	89.8
777.911	90.69
778.089	91.2
778.267	93.8
778.445	91.9
778.622	89.67
778.8	90.65
778.978	94.47
779.155	93.56
779.333	94.46
779.511	92.34
779.688	90.86
779.866	82.2
780.043	79.98
780.221	80.06
780.398	81.23
780.576	81.7
780.753	87.99
780.931	88.47
781.108	88.13
781.286	92.82
781.463	89.94
781.64	88.77
781.818	89.67
781.995	89.72
782.172	87.45
782.35	89.81
782.527	88.87
782.704	87.56
782.882	90.56
783.059	91.75
783.236	91.3
783.413	92.25
783.59	93.92
783.768	87.59
783.945	85.3
784.122	87.38
784.299	87.7
784.476	85.7
784.653	91.45
784.83	90.36
785.007	85.11
785.184	84.06
785.361	86.27
785.538	85.2
785.715	84.48
785.892	91.69
786.069	93.09
786.246	93.59
786.423	90.3
786.6	90.84
786.776	88.75
786.953	88.69
787.13	88.12
787.307	87.45
787.484	92.54
787.66	90.71
787.837	84.97
788.014	86.23
788.191	86.95
788.367	82.76
788.544	83.62
788.721	87.61
788.897	85.03
789.074	88.64
789.25	88.26
789.427	87.64
789.603	85.43
789.78	88.52
789.956	79.13
790.133	81.23
790.309	79.73
790.486	84.66
790.662	83.58
790.839	87.65
791.015	90.14
791.192	88.66
791.368	87.9
791.544	83.82
791.721	92.18
791.897	87.41
792.073	90.49
792.249	88.16
792.426	91.66
792.602	84.35
792.778	78.78
792.954	80.64
793.13	77.84
793.307	75.29
793.483	70.91
793.659	75.92
793.835	73.9
794.011	78.43
794.187	73.53
794.363	75.81
794.539	76.83
794.715	72.5
794.891	71.65
795.067	74.01
795.243	83.31
795.419	84.63
795.595	89.51
795.771	90.22
795.947	92.06
796.122	81.22
796.298	82.34
796.474	83.07
796.65	80.75
796.826	83.26
797.001	89.97
797.177	86.37
797.353	84.03
797.529	86.85
797.704	82.97
797.88	80.58
798.056	79.31
798.231	79.28
798.407	81.14
798.582	82.2
798.758	84.2
798.934	89.86
799.109	87.42
799.285	81.81
799.46	86.94
799.636	82.07
799.811	82.1
799.986	84.86
800.162	91.62
800.337	87.01
800.513	87.37
800.688	82.26
800.863	84.18
801.039	79.88
801.214	77.93
801.389	80.77
801.565	81.25
801.74	80.91
801.915	77.16
802.09	85.25
802.265	87.55
802.441	91.04
802.616	87.9
802.791	87.79
802.966	80.53
803.141	76.35
803.316	67.73
803.491	71.11
803.666	78.14
803.841	77.18
804.016	79.36
804.191	91.82
804.366	88.1
804.541	89.62
804.716	85.33
804.891	81.15
805.066	73.94
805.241	73.16
805.416	66.9
805.591	66.89
805.765	71.78
805.94	79.98
806.115	79.83
806.29	78.69
806.464	90.48
806.639	85.46
806.814	71.16
806.989	64.2
807.163	66.21
807.338	55.03
807.512	59.15
807.687	59.91
807.862	68.45
808.036	69.69
808.211	74.15
808.385	74.37
808.56	81.63
808.734	82.15
808.909	82.3
809.083	75.65
809.258	78.18
809.432	80.98
809.606	67.04
809.781	70.39
809.955	80.69
810.13	80.6
810.304	70.76
810.478	76.54
810.652	77.33
810.827	74.45
811.001	71.26
811.175	72.72
811.349	73.19
811.524	62.5
811.698	57.66
811.872	60.26
812.046	62.72
812.22	65.98
812.394	68.45
812.568	71.56
812.742	70.88
812.916	68.6
813.09	71.21
813.264	83.03
813.438	86.46
813.612	84.56
813.786	69.66
813.96	72.07
814.134	72.36
814.308	72.74
814.482	70.87
814.656	86.56
814.83	91.92
815.003	83.89
815.177	77.3
815.351	73.69
815.525	81.99
815.698	72.23
815.872	63.23
816.046	61.3
816.219	62.39
816.393	63.04
816.567	61.65
816.74	65.79
816.914	70.2
817.088	72.09
817.261	64.03
817.435	63.46
817.608	62.69
817.782	57.58
817.955	63.15
818.129	53.72
818.302	55.97
818.475	69.94
818.649	72.29
818.822	55.88
818.996	63.96
819.169	64.19
819.342	51.4
819.516	49.59
819.689	66.27
819.862	65.89
820.035	57.15
820.209	46.89
820.382	55.29
820.555	49.12
820.728	45.88
820.901	49.53
821.075	59.03
821.248	65.7
821.421	67.88
821.594	59.78
821.767	80.14
821.94	98.94
822.113	69.75
822.286	67.48
822.459	84.87
822.632	65.66
822.805	55.31
822.978	66.98
823.151	64.66
823.324	55.21
823.496	43.06
823.669	49.12
823.842	43.39
824.015	39.88
824.188	31.31
824.361	34.35
824.533	18.88
824.706	39.21
824.879	47.67
825.051	70.27
825.224	77.5
825.397	76.62
825.569	53.25
825.742	50.91
825.915	50.19
826.087	43.93
826.26	37.4
826.432	45.2
826.605	56.7
826.777	61.93
826.95	59.57
827.122	52.42
827.295	59.68
827.467	42.02
827.64	21.69
827.812	27.68
827.984	41.62
828.157	33.57
828.329	35.92
828.501	46.98
828.674	53.58
828.846	50.03
829.018	59.9
829.19	54.75
829.363	53.99
829.535	51.87
829.707	66.45
829.879	44.41
830.051	44.58
830.223	57.96
830.395	39.18
830.568	24.54
830.74	44.25
830.912	58.8
831.084	36.81
831.256	30.83
831.428	34.39
831.6	21.4
831.772	6.31
831.943	7.11
832.115	30.91
832.287	43.73
832.459	43.08
832.631	42.72
832.803	58.93
832.975	50.39
833.146	43.95
833.318	47.21
833.49	52.65
833.662	31.67
833.833	35.3
834.005	37.44
834.177	50.34
834.348	47.83
834.52	47.02
834.692	49.48
834.863	46.46
835.035	38.58
835.206	37.96
835.378	54.34
835.549	48.47
835.721	48.66
835.892	33.79
836.064	27.04
836.235	39.59
836.407	49.09
836.578	32.44
836.749	50.03
836.921	58.37
837.092	26.33
837.264	-5.13
837.435	-20.13
837.606	-23.7
837.777	0.15
837.949	16.06
838.12	17.68
838.291	39.93
838.462	42.64
838.633	28.82
838.805	29.87
838.976	52.33
839.147	50.28
839.318	26.34
839.489	13.03
839.66	19.81
839.831	26.77
840.002	18.28
840.173	25.67
840.344	17.57
840.515	15.58
840.686	-19.71
840.857	-37.01
841.028	-44.55
841.199	-14.14
841.369	-18.19
841.54	0.23
841.711	26.71
841.882	38.19
842.053	22.94
842.223	-7.11
842.394	14.01
842.565	15.01
842.736	28.79
842.906	33.23
843.077	62.98
843.248	59.28
843.418	63.37
843.589	45.31
843.759	74.83
843.93	88.2
844.101	77.65
844.271	65.82
844.442	85.72
844.612	72.52
844.783	22.56
844.953	14.92
845.123	47.63
845.294	32.47
845.464	19.54
845.635	46.25
845.805	67.14
845.975	58.68
846.146	32.31
846.316	20.46
846.486	29.3
846.656	11.39
846.827	-15.16
846.997	5.49
847.167	16.78
847.337	3.28
847.507	7.04
847.677	17.99
847.848	44.45
848.018	49.3
848.188	63.71
848.358	64.04
848.528	69.59
848.698	46.63
848.868	20.35
849.038	11.51
849.208	25.62
849.378	32.94
849.548	13.96
849.718	46.92
849.887	97.36
850.057	28.54
850.227	-27.25
850.397	-9.84
850.567	5.13
850.737	-18.55
850.906	-16.27
851.076	-30.82
851.246	-31.76
851.415	-28.07
851.585	-3.43
851.755	12.88
851.924	59.75
852.094	52.08
852.264	42.84
852.433	14.37
852.603	14.56
852.772	-12.62
852.942	-8.87
853.111	-38.08
853.281	6.84
853.45	4.28
853.62	0.84
853.789	-47.96
853.959	-13.83
854.128	-39.83
854.297	-58.08
854.467	-57.62
854.636	-11.07
854.805	-6.13
854.975	-20.72
855.144	5.06
855.313	16.36
855.482	4.85
855.652	-13.76
855.821	-0.65
855.99	0.5
856.159	17.11
856.328	-1.67
856.497	-7.82
856.667	-9.59
856.836	-18.19
857.005	-43.26
857.174	-85.87
857.343	-60.56
857.512	10.53
857.681	-49.66
857.85	-55.41
858.019	-8.52
858.188	-7.18
858.356	-50.88
858.525	-37.17
858.694	-21.18
858.863	-16.99
859.032	-45.43
859.201	-29.71
859.369	2.08
859.538	11.98
859.707	-16.09
859.876	-6.71
860.044	-3.99
860.213	4.63
860.382	-18.15
860.55	8.49
860.719	56.7
860.888	56.1
861.056	34.4
861.225	32.12
861.393	82.95
861.562	66.86
861.73	51.3
861.899	54
862.067	43.63
862.236	40.21
862.404	-1.38
862.572	-25.47
862.741	-6.77
862.909	-8.15
863.078	-28.98
863.246	-35.53
863.414	-23.31
863.582	-76.59
863.751	-56.53
863.919	-65.92
864.087	-12.2
864.255	-2.59
864.424	-23.43
864.592	-17.89
864.76	9.27
864.928	-0.59
865.096	-21.24
865.264	-21.32
865.432	8.52
865.6	2.12
865.768	-73.47
865.936	-80.24
866.104	-25.41
866.272	-27.95
866.44	-44.6
866.608	-8.18
866.776	-42.93
866.944	-98.4
867.112	-255.2
867.28	-435.26
867.448	-932.97
867.615	-380.02
867.783	-79.23
867.951	-57.53
868.119	46.57
868.286	22.1
868.454	-2.14
868.622	-34.25
868.789	-20.92
868.957	-22.5
869.125	-32.99
869.292	-9.47
869.46	14.23
869.627	30.59
869.795	-6.68
869.963	15.99
870.13	20.8
870.298	10.38
870.465	-36.94
870.632	-45.65
870.8	-86.29
870.967	-75.15
871.135	-155.6
871.302	-65.88
871.469	-0.51
871.637	15.95
871.804	18.52
871.971	9.21
872.139	8.58
872.306	11.35
872.473	-1.21
872.64	-37.75
872.807	8.88
872.975	28.54
873.142	13.28
873.309	37.81
873.476	93
873.643	66.88
873.81	21.29
873.977	20.74
874.144	21.25
874.311	6.37
874.478	-38.5
874.645	-65.4
874.812	-237.06
874.979	14066.67
875.146	-376.53
875.313	-76.18
875.48	-12.01
875.647	2.25
875.813	-13.37
875.98	-22.58
876.147	-39.41
876.314	-50.97
876.481	-124.7
876.647	-193.05
876.814	-103.35
876.981	-105.06
877.147	-152.44
877.314	-107.53
877.481	-12.82
877.647	6.52
877.814	-90.18
877.98	-99.96
878.147	-63.11
878.314	-12.65
878.48	-99.96
878.647	-62.89
878.813	28.12
878.979	45.41
879.146	26.56
879.312	47.71
879.479	59.64
879.645	58.69
879.811	-8.1
879.978	11.22
880.144	15.56
880.31	0.35
880.477	-68.2
880.643	-63.12
880.809	-28.9
880.975	-11.56
881.142	-42.17
881.308	-17.2
881.474	19.71
881.64	11.65
881.806	-25.65
881.972	-2.13
882.138	-14.37
882.304	13.76
882.47	-47.38
882.636	-68.88
882.802	-54.69
882.968	29.72
883.134	-92.58
883.3	-112.51
883.466	29.34
883.632	42.92
883.798	-34.72
883.964	3.28
884.129	8.42
884.295	-19.35
884.461	-39.72
884.627	-52.12
884.793	-41.64
884.958	-9.3
885.124	-34.81
885.29	-37.71
885.455	-9.61
885.621	3.22
885.787	-148.79
885.952	-64.17
886.118	-63.02
886.283	-57.1
886.449	-82.51
886.614	-42.34
886.78	-38.83
886.945	-13.6
887.111	-113.72
887.276	-94.62
887.442	-228.76
887.607	-136.06
887.773	-184.51
887.938	-113.18
888.103	-103.94
888.269	-10.05
888.434	-10.2
888.599	-4.07
888.764	43.12
888.93	59.2
889.095	23.61
889.26	12.66
889.425	40.38
889.59	19.28
889.756	0.26
889.921	19.55
890.086	34.16
890.251	32.68
890.416	-14.35
890.581	-30.23
890.746	-24.27
890.911	3.41
891.076	-50.41
891.241	-34.82
891.406	19.11
891.571	-7.93
891.736	-46.05
891.901	-47.4
892.065	-35.45
892.23	-31
892.395	-77.59
892.56	-115.06
892.725	-59.94
892.889	-45.84
893.054	-130.41
893.219	-141.58
893.384	-134.89
893.548	-165.94
893.713	-219.39
893.878	-180.21
