Data from Ofra_PP_Phys_2GT10K_Reflection_1.txt Node
Date: Sat Jul 24 20:12:13 EDT 2021
User: USUARIO
Spectrometer: FLMT01687
Trigger mode: 0
Integration Time (sec): 1.100000E0
Scans to average: 2
Electric dark correction enabled: true
Nonlinearity correction enabled: false
Boxcar width: 2
XAxis mode: Wavelengths
Number of Pixels in Spectrum: 3648
>>>>>Begin Spectral Data<<<<<
179.494	677.09
179.716	874.91
179.937	1538.96
180.158	1291.56
180.38	605.28
180.601	-726.77
180.823	-3.77
181.044	871.32
181.265	-89.18
181.486	-24.58
181.708	-226.49
181.929	-4058.67
182.15	803.21
182.372	-91.34
182.593	34133.33
182.814	1072.82
183.035	305.09
183.257	202.52
183.478	41.66
183.699	71.59
183.92	-3.58
184.141	42.51
184.363	-32.26
184.584	70.82
184.805	54.51
185.026	71.34
185.247	60.7
185.468	22.12
185.689	3.09
185.91	-11.43
186.132	-24.22
186.353	-10.77
186.574	33.32
186.795	39.56
187.016	-15.91
187.237	-0.39
187.458	-20.8
187.679	6.45
187.9	43.19
188.121	103.09
188.342	138.94
188.563	134.56
188.784	130.14
189.005	129.98
189.226	113.93
189.447	82.19
189.667	70.21
189.888	24.33
190.109	-12.93
190.33	-34.94
190.551	-62.59
190.772	-57.78
190.993	-64.95
191.214	-50.38
191.434	-62.04
191.655	9.57
191.876	-14.93
192.097	-17.01
192.318	-6.58
192.538	-26.8
192.759	-47.63
192.98	-31.23
193.201	-27.2
193.421	-70.15
193.642	-31.73
193.863	-14.91
194.083	-28.41
194.304	-7.65
194.525	19.35
194.745	34.69
194.966	-43.37
195.187	-63.27
195.407	-138.67
195.628	-168.09
195.848	-166.15
196.069	-176.51
196.29	-115.59
196.51	-171.17
196.731	-184.47
196.951	-155.47
197.172	-113.64
197.392	-127
197.613	-55.02
197.833	-51.78
198.054	-89.28
198.274	-64.65
198.495	-150.27
198.715	-125.25
198.936	-143.46
199.156	-83.43
199.377	-95.3
199.597	-70.84
199.817	-67.35
200.038	4.4
200.258	16.46
200.479	58.54
200.699	82.14
200.919	64.69
201.14	9.4
201.36	-21.51
201.58	-47.35
201.801	-22.37
202.021	-33.39
202.241	0.08
202.461	0.99
202.682	-16.95
202.902	-12.66
203.122	-22.23
203.342	-7.22
203.563	26.18
203.783	43.03
204.003	-72.29
204.223	-153.41
204.443	-58.65
204.663	-89.89
204.884	-88.07
205.104	5.3
205.324	62.49
205.544	21.75
205.764	35.21
205.984	63.83
206.204	67.47
206.424	38.44
206.644	-1.53
206.864	20.59
207.084	-14.14
207.304	-2.2
207.525	-36.89
207.745	-8.35
207.964	-36.35
208.184	-50.67
208.404	-63.45
208.624	-58.46
208.844	-39.48
209.064	-76.7
209.284	-57.6
209.504	-33.75
209.724	-3.26
209.944	-38.27
210.164	9.63
210.384	32.99
210.604	7.33
210.823	-48.05
211.043	-74.47
211.263	-67.65
211.483	-106.84
211.703	-110.87
211.922	-54.12
212.142	28.88
212.362	48.14
212.582	34.61
212.801	45.34
213.021	8.73
213.241	-3.15
213.461	-56.94
213.68	-71.22
213.9	-61.58
214.12	-48.42
214.339	-93.37
214.559	-56.69
214.779	-36.98
214.998	-26.2
215.218	-42.3
215.438	-23.97
215.657	-40.93
215.877	1.96
216.096	-1.81
216.316	33.9
216.535	17.08
216.755	23.72
216.974	4.2
217.194	6.4
217.413	-4.04
217.633	1.2
217.852	-61.89
218.072	-57.83
218.291	-83.11
218.511	-57.48
218.73	-116.09
218.95	-97.86
219.169	-103.26
219.389	-116.09
219.608	-132.71
219.827	-47.1
220.047	-20.4
220.266	-30.94
220.485	-29.25
220.705	3.71
220.924	-53.25
221.143	-34.86
221.363	-90.21
221.582	-40.25
221.801	-49.73
222.021	-7.39
222.24	9.32
222.459	87.81
222.678	56.57
222.897	38.18
223.117	16.78
223.336	-2.76
223.555	-4.71
223.774	29.89
223.993	47.08
224.213	108.83
224.432	61.77
224.651	85.95
224.87	60.17
225.089	66.86
225.308	44.44
225.527	84.85
225.746	76.54
225.965	58.79
226.184	44.04
226.404	58.34
226.623	19.98
226.842	13.24
227.061	61.98
227.28	75.24
227.499	75.98
227.718	105
227.936	88.54
228.155	68.93
228.374	-0.13
228.593	-30.49
228.812	-30.14
229.031	-5.93
229.25	-45.02
229.469	8.53
229.688	21.83
229.907	25.16
230.125	32.44
230.344	42.89
230.563	42.97
230.782	48.29
231.001	-18.29
231.22	-38.71
231.438	-34.19
231.657	-31.66
231.876	-28.45
232.095	24.57
232.313	46.1
232.532	35.74
232.751	33.27
232.969	14.51
233.188	4.4
233.407	2.08
233.625	-7.24
233.844	-16.13
234.063	-8.68
234.281	42.91
234.5	42.64
234.719	68.32
234.937	84.7
235.156	90.28
235.374	56.58
235.593	44.93
235.811	41.1
236.03	31.43
236.249	7.73
236.467	25.06
236.686	21.03
236.904	17.91
237.123	-45.94
237.341	-7.31
237.559	-51.54
237.778	-46.98
237.996	-60.15
238.215	-12.54
238.433	-33.77
238.652	-2.37
238.87	-67.84
239.088	-30.02
239.307	-9.73
239.525	-2.4
239.743	-43.2
239.962	5.69
240.18	-33.57
240.398	-86.16
240.617	-100.59
240.835	-56.6
241.053	-93.75
241.271	-35.61
241.49	4.81
241.708	6.81
241.926	3.82
242.144	36.45
242.363	-4.63
242.581	-7.27
242.799	10.08
243.017	-13.53
243.235	-72.86
243.453	-31.61
243.672	-51.59
243.89	-49.17
244.108	-17.87
244.326	24.67
244.544	20.1
244.762	11.2
244.98	14.33
245.198	32.04
245.416	-6.51
245.634	-10.67
245.852	5.11
246.07	3.06
246.288	-7.29
246.506	1.09
246.724	18.73
246.942	15.65
247.16	26.07
247.378	31.04
247.596	50.89
247.814	57.4
248.032	10.97
248.25	0.64
248.468	4.56
248.685	32.18
248.903	20.54
249.121	46.02
249.339	7.02
249.557	-14.27
249.775	-51.31
249.992	-126.13
250.21	-125.89
250.428	-67.74
250.646	-54.2
250.863	-54.6
251.081	-12.99
251.299	32.99
251.517	36.32
251.734	33.12
251.952	23.26
252.17	30.67
252.387	30.22
252.605	-1.93
252.823	6.7
253.04	34.7
253.258	37.58
253.475	12.66
253.693	47.83
253.911	43.72
254.128	50.3
254.346	54.03
254.563	35.26
254.781	8.58
254.998	-0.09
255.216	-13.53
255.433	-24.98
255.651	26.46
255.868	46.06
256.086	59.74
256.303	53.78
256.521	59.8
256.738	15.23
256.956	-0.97
257.173	-4.59
257.39	-4.8
257.608	0.81
257.825	23.72
258.043	40.69
258.26	37.16
258.477	41.39
258.695	47.16
258.912	-10.89
259.129	-20.86
259.346	-67.5
259.564	-78.27
259.781	-70.19
259.998	-37.53
260.216	0.96
260.433	49.69
260.65	40.7
260.867	57.66
261.084	35
261.302	7.61
261.519	12
261.736	-9.77
261.953	-22.98
262.17	0.63
262.387	6.4
262.604	-21.75
262.822	-20.88
263.039	-33.18
263.256	-50.65
263.473	-36.43
263.69	-61.69
263.907	-24.26
264.124	12.06
264.341	45.46
264.558	18.53
264.775	42.51
264.992	68.93
265.209	52.64
265.426	50.03
265.643	56.54
265.86	42.18
266.077	30.22
266.294	7.89
266.51	-8.85
266.727	-14.89
266.944	24.2
267.161	-5.07
267.378	18.66
267.595	27.7
267.812	-7.87
268.028	-21.98
268.245	3.28
268.462	-35.33
268.679	-36.04
268.896	35.33
269.112	15.09
269.329	9.83
269.546	38.5
269.763	33.36
269.979	21.3
270.196	26.82
270.413	17.87
270.629	-8.42
270.846	-12.38
271.063	10.77
271.279	-9.51
271.496	-27.3
271.712	-14.53
271.929	-4.25
272.146	-19.34
272.362	-9.71
272.579	37.54
272.795	54.77
273.012	67.18
273.228	69.07
273.445	53.6
273.661	7.3
273.878	-81.48
274.094	-78.63
274.311	-98.36
274.527	-56.43
274.744	-29.2
274.96	27.46
275.177	31.18
275.393	33.18
275.609	33.99
275.826	49.96
276.042	43.59
276.259	41.55
276.475	30.34
276.691	33.72
276.908	9.99
277.124	37.54
277.34	22.14
277.557	38.81
277.773	41.5
277.989	35.41
278.205	16.17
278.422	24.02
278.638	20.26
278.854	10.48
279.07	17.92
279.286	-8.88
279.503	-27.94
279.719	-37.31
279.935	-51.2
280.151	-64.38
280.367	-19.87
280.583	-4.7
280.799	0.66
281.016	8.29
281.232	29.32
281.448	25.8
281.664	36.58
281.88	18.03
282.096	18.81
282.312	23.72
282.528	41.49
282.744	50.53
282.96	55.25
283.176	66.02
283.392	43.52
283.608	18.06
283.824	9.52
284.04	8.54
284.256	21.75
284.471	24.13
284.687	28.84
284.903	28.94
285.119	68.39
285.335	28
285.551	47.34
285.767	46.1
285.982	35.97
286.198	-2.72
286.414	34.32
286.63	27.63
286.846	48.55
287.061	14.54
287.277	26.67
287.493	17.83
287.709	24.97
287.924	12.6
288.14	58.18
288.356	71.82
288.571	75.59
288.787	61.9
289.003	55.9
289.218	21.96
289.434	-60.41
289.65	-13.71
289.865	-1.47
290.081	13.12
290.296	29.64
290.512	38.66
290.727	23.37
290.943	3.85
291.159	-9.02
291.374	-15.31
291.59	-25.24
291.805	-46.17
292.021	-15.02
292.236	-19.54
292.451	-18.62
292.667	5.01
292.882	27.52
293.098	29.78
293.313	16.82
293.529	11.29
293.744	-38.54
293.959	-67.43
294.175	-52.57
294.39	-19.15
294.605	0.48
294.821	51.28
295.036	48.77
295.251	55.47
295.467	48.9
295.682	41.57
295.897	8.07
296.112	0.26
296.328	-7.68
296.543	-23.07
296.758	-40.98
296.973	13.55
297.188	63.55
297.404	23.45
297.619	26.86
297.834	22.09
298.049	-2.52
298.264	-39.51
298.479	2.12
298.694	9.08
298.909	16.18
299.125	22.4
299.34	43.06
299.555	20.36
299.77	42.89
299.985	-16.22
300.2	-42.44
300.415	-80.83
300.63	-56.1
300.845	-69.86
301.06	-59.77
301.275	-45.7
301.49	-22.88
301.704	-44.2
301.919	-84.65
302.134	-71.38
302.349	-27.76
302.564	-49.77
302.779	-14.5
302.994	50.23
303.209	51.02
303.423	57.83
303.638	85.63
303.853	47.26
304.068	-12.09
304.283	-13.33
304.497	-44.33
304.712	-26.08
304.927	-8.43
305.142	-8.89
305.356	-0.82
305.571	28.12
305.786	-2.2
306	-14.81
306.215	10.74
306.43	-15.79
306.644	-10.96
306.859	31.57
307.074	25.68
307.288	-5.84
307.503	28.13
307.717	1.11
307.932	-7.92
308.147	-9.95
308.361	26.03
308.576	4.02
308.79	-51.28
309.005	-36.72
309.219	-17.89
309.434	-21.08
309.648	-53.87
309.863	23.46
310.077	15.98
310.292	23
310.506	46.19
310.72	91.4
310.935	60.42
311.149	43.15
311.364	53.98
311.578	48.89
311.792	35.17
312.007	38.86
312.221	-4.46
312.435	1.36
312.649	-34.01
312.864	-8.9
313.078	-21.12
313.292	43.8
313.507	38.75
313.721	50.9
313.935	60.9
314.149	95.07
314.363	67.4
314.578	43.95
314.792	29.24
315.006	27.93
315.22	3.84
315.434	7.18
315.648	25.44
315.862	13.25
316.077	-9.01
316.291	-15.09
316.505	-17.81
316.719	-21.76
316.933	-59.05
317.147	-28.78
317.361	-74.47
317.575	-65.78
317.789	-83.44
318.003	-47.44
318.217	-39.28
318.431	9.97
318.645	24.84
318.859	30.01
319.073	45.6
319.287	20.1
319.5	-21.55
319.714	-58.8
319.928	-65.19
320.142	-78.62
320.356	-21.3
320.57	10.81
320.784	8.2
320.997	16.91
321.211	21.55
321.425	-19.14
321.639	-59.5
321.853	-13.92
322.066	-20.15
322.28	-43.62
322.494	-19.53
322.707	45.65
322.921	12.83
323.135	18.9
323.349	34.96
323.562	18.82
323.776	-23.43
323.989	-9.92
324.203	-38.5
324.417	-21.65
324.63	-43.99
324.844	-60.74
325.057	-68.36
325.271	-64.78
325.485	-83.35
325.698	-24.43
325.912	5.97
326.125	-9.94
326.339	17.76
326.552	21.29
326.766	23.79
326.979	34.56
327.193	66.55
327.406	53.22
327.619	50.61
327.833	54.15
328.046	30.89
328.26	20.68
328.473	17.57
328.686	-4.86
328.9	-10.4
329.113	-4.51
329.326	-35.12
329.54	-21.8
329.753	-16.38
329.966	-28.6
330.179	6.32
330.393	32.05
330.606	18.41
330.819	39.58
331.032	44.82
331.246	44.42
331.459	67.36
331.672	48.98
331.885	17.63
332.098	-2.58
332.311	11.86
332.525	-18.19
332.738	-2.01
332.951	25.08
333.164	40.07
333.377	42
333.59	63.2
333.803	47.88
334.016	37
334.229	27.59
334.442	18.63
334.655	29.63
334.868	42.72
335.081	32.63
335.294	22.43
335.507	26.18
335.72	18.33
335.933	-5.81
336.146	4.82
336.359	18.08
336.572	-12.06
336.785	-26.9
336.997	-12.26
337.21	3.62
337.423	3.03
337.636	16.29
337.849	28.25
338.062	27.86
338.274	39.51
338.487	18.99
338.7	27.05
338.913	-4.98
339.125	-12.45
339.338	-19.95
339.551	1.77
339.763	15.04
339.976	50.17
340.189	59.87
340.402	64.52
340.614	48.5
340.827	35.06
341.039	11.83
341.252	-6.11
341.465	-29.16
341.677	-44.88
341.89	-92.05
342.102	-56.2
342.315	-43.13
342.527	-42.37
342.74	-27.21
342.952	25.82
343.165	16.06
343.377	37.35
343.59	30.22
343.802	56.12
344.015	51.09
344.227	62.23
344.44	28.49
344.652	26.71
344.864	13.77
345.077	28.96
345.289	23.19
345.502	53.08
345.714	41.44
345.926	40.73
346.139	22.97
346.351	26.89
346.563	19.92
346.775	41.79
346.988	17.04
347.2	11.37
347.412	-27.14
347.624	-32.9
347.837	-28.27
348.049	5.41
348.261	30.55
348.473	38.74
348.685	9.38
348.897	-8.58
349.11	-22.6
349.322	-31.53
349.534	-7.39
349.746	13.54
349.958	30.18
350.17	21.73
350.382	28.66
350.594	31
350.806	30.71
351.018	15.89
351.23	19
351.442	8.81
351.654	1.95
351.866	10.42
352.078	9.21
352.29	15.75
352.502	28.93
352.714	45.88
352.926	28.78
353.138	40.96
353.35	21.34
353.561	6.66
353.773	-19.22
353.985	-0.41
354.197	-11.07
354.409	-13.46
354.621	1
354.832	11.52
355.044	-6.09
355.256	-4.6
355.468	8.76
355.679	-12.37
355.891	1.28
356.103	-7.38
356.314	-12.39
356.526	-8.63
356.738	23.88
356.949	14.76
357.161	22.58
357.373	25.34
357.584	21.59
357.796	9.36
358.008	-10.71
358.219	7.5
358.431	16.07
358.642	15.45
358.854	28
359.065	35.97
359.277	10.34
359.488	-6.97
359.7	-17.7
359.911	-46.09
360.123	-49.78
360.334	-54.13
360.546	-48.57
360.757	-43.4
360.969	-30.02
361.18	-10.7
361.391	-6.53
361.603	-22.12
361.814	10.55
362.025	-4.32
362.237	-8.34
362.448	7.15
362.659	32.53
362.871	19.44
363.082	31.94
363.293	37.28
363.504	29.3
363.716	16.42
363.927	13.48
364.138	-1.42
364.349	-34.77
364.56	-38.64
364.772	-53.17
364.983	-30.84
365.194	-47.92
365.405	-19.89
365.616	-8.7
365.827	-14.12
366.038	-36.62
366.25	9.3
366.461	-12.01
366.672	11.18
366.883	28.38
367.094	22.2
367.305	-7.09
367.516	16.02
367.727	-0.06
367.938	-24.56
368.149	-31.07
368.36	-9.83
368.571	-11.29
368.781	-23.88
368.992	-23.75
369.203	0.62
369.414	-16.94
369.625	-32.05
369.836	-27.7
370.047	-31.06
370.258	-49.44
370.468	-44.92
370.679	-75.46
370.89	-62.97
371.101	-23.26
371.312	-41
371.522	-29.57
371.733	-3.73
371.944	0.76
372.155	5.1
372.365	-7.64
372.576	-4.26
372.787	-14.21
372.997	-21.74
373.208	-37.18
373.419	-6.3
373.629	-24.55
373.84	-15.32
374.05	-39.72
374.261	-13.04
374.472	-37.37
374.682	-8.83
374.893	-17.7
375.103	23.91
375.314	6.4
375.524	14.39
375.735	23.69
375.945	33.46
376.156	8.93
376.366	27.44
376.577	37.1
376.787	20.19
376.997	37.2
377.208	38.52
377.418	7.91
377.629	18.71
377.839	12.94
378.049	0.79
378.26	19.77
378.47	46.64
378.68	35.37
378.89	34.11
379.101	23.17
379.311	-7.78
379.521	-37.75
379.732	-34.69
379.942	-57.26
380.152	-46.41
380.362	-26.89
380.572	-18.86
380.783	-0.57
380.993	11.76
381.203	15.8
381.413	19.42
381.623	24.94
381.833	14.74
382.043	7.48
382.253	10.37
382.463	14.24
382.674	8.41
382.884	-10.34
383.094	-2.53
383.304	-0.82
383.514	1.34
383.724	10.69
383.934	5.36
384.144	-2.72
384.353	-0.59
384.563	0.61
384.773	-0.17
384.983	12.32
385.193	18.71
385.403	5.01
385.613	-0.46
385.823	-3.83
386.033	0.7
386.242	-4.73
386.452	7.33
386.662	-0.14
386.872	6.06
387.082	4.19
387.291	-5.13
387.501	-1.42
387.711	0.21
387.921	-17.58
388.13	-14.33
388.34	1.11
388.55	-6.82
388.759	-2.89
388.969	7.1
389.179	2.25
389.388	-0.81
389.598	-0.17
389.807	-3.04
390.017	-2.45
390.227	-0.45
390.436	-2.66
390.646	2.51
390.855	5.06
391.065	6.04
391.274	2.81
391.484	0.72
391.693	1.89
391.903	3.67
392.112	5.35
392.322	10.66
392.531	15.23
392.74	12.72
392.95	6.99
393.159	5.33
393.369	4.91
393.578	0.45
393.787	-0.34
393.997	2.97
394.206	1.53
394.415	1.19
394.625	2.75
394.834	1.23
395.043	0.25
395.252	2.55
395.462	3.57
395.671	5.26
395.88	7.48
396.089	9.16
396.298	8.07
396.508	7.2
396.717	6.46
396.926	5.52
397.135	5.32
397.344	4.73
397.553	5.06
397.762	5.6
397.971	5.66
398.181	5.26
398.39	4.11
398.599	3.81
398.808	3.23
399.017	4.14
399.226	4.27
399.435	5.88
399.644	5.81
399.853	5.34
400.062	4.35
400.27	4.29
400.479	3.76
400.688	3.12
400.897	3.71
401.106	3.77
401.315	3.03
401.524	2.77
401.733	3.48
401.941	3.61
402.15	3.72
402.359	4.17
402.568	4.47
402.777	4.09
402.985	3.87
403.194	4.02
403.403	4.06
403.612	3.94
403.82	3.99
404.029	3.95
404.238	3.55
404.446	3.53
404.655	3.17
404.864	3.16
405.072	3
405.281	3.35
405.489	2.95
405.698	2.99
405.906	2.81
406.115	2.87
406.324	2.63
406.532	2.8
406.741	3.24
406.949	3.14
407.158	3.14
407.366	3.24
407.574	3.46
407.783	3.31
407.991	3.39
408.2	3.43
408.408	3.25
408.617	3.07
408.825	2.82
409.033	3.03
409.242	3.02
409.45	3.13
409.658	2.98
409.867	3.2
410.075	2.96
410.283	2.94
410.491	2.89
410.7	2.76
410.908	2.8
411.116	2.92
411.324	2.84
411.533	2.93
411.741	3.25
411.949	3.24
412.157	3.07
412.365	3.2
412.573	2.98
412.781	2.92
412.99	2.76
413.198	3.02
413.406	2.89
413.614	3.01
413.822	2.96
414.03	2.99
414.238	2.67
414.446	2.83
414.654	2.61
414.862	2.69
415.07	2.69
415.278	2.99
415.486	2.58
415.694	2.77
415.902	2.7
416.109	2.56
416.317	2.54
416.525	2.41
416.733	2.5
416.941	2.59
417.149	2.64
417.357	2.63
417.564	3.02
417.772	2.94
417.98	2.82
418.188	2.86
418.395	2.69
418.603	2.72
418.811	2.42
419.019	2.16
419.226	2.51
419.434	2.74
419.642	2.53
419.849	2.69
420.057	3.06
420.265	2.93
420.472	2.5
420.68	2.74
420.887	2.65
421.095	2.69
421.302	2.39
421.51	2.79
421.717	2.73
421.925	2.73
422.132	2.53
422.34	2.39
422.547	2.22
422.755	2.24
422.962	2.38
423.17	2.34
423.377	2.55
423.585	2.65
423.792	2.59
423.999	2.67
424.207	2.76
424.414	2.82
424.621	2.83
424.829	2.71
425.036	2.67
425.243	2.66
425.451	2.53
425.658	2.33
425.865	2.53
426.072	2.41
426.28	2.45
426.487	2.39
426.694	2.55
426.901	2.42
427.108	2.43
427.315	2.42
427.523	2.73
427.73	2.78
427.937	2.44
428.144	2.29
428.351	2.32
428.558	2.29
428.765	2.11
428.972	2.32
429.179	2.45
429.386	2.53
429.593	2.35
429.8	2.1
430.007	2.32
430.214	2.52
430.421	2.35
430.628	2.25
430.835	2.17
431.042	2.41
431.249	2.31
431.456	2.44
431.662	2.67
431.869	2.96
432.076	2.75
432.283	2.74
432.49	2.55
432.697	2.53
432.903	2.3
433.11	2.18
433.317	2.35
433.524	2.64
433.73	2.41
433.937	2.79
434.144	2.8
434.35	2.72
434.557	2.5
434.764	2.54
434.97	2.36
435.177	2.55
435.384	2.19
435.59	2.38
435.797	2.57
436.003	2.63
436.21	2.52
436.416	2.73
436.623	2.5
436.829	2.56
437.036	2.62
437.242	2.5
437.449	2.46
437.655	2.44
437.862	2.32
438.068	2.33
438.275	2.47
438.481	2.65
438.687	2.66
438.894	2.62
439.1	2.49
439.307	2.6
439.513	2.45
439.719	2.55
439.926	2.57
440.132	2.62
440.338	2.39
440.544	2.54
440.751	2.39
440.957	2.58
441.163	2.29
441.369	2.36
441.575	2.12
441.782	2.09
441.988	1.78
442.194	1.99
442.4	1.96
442.606	2.19
442.812	2.31
443.018	2.46
443.224	2.55
443.431	2.69
443.637	2.48
443.843	2.24
444.049	2.24
444.255	2.12
444.461	1.98
444.667	1.93
444.873	2.22
445.079	2.28
445.284	2.26
445.49	2.11
445.696	1.95
445.902	1.85
446.108	1.7
446.314	1.59
446.52	1.88
446.726	2.34
446.931	2.16
447.137	2.31
447.343	2.55
447.549	2.21
447.755	1.99
447.96	2.09
448.166	1.91
448.372	1.87
448.578	1.93
448.783	1.94
448.989	2.13
449.195	2.41
449.4	2.29
449.606	2.28
449.812	2.23
450.017	2.25
450.223	2.06
450.428	1.93
450.634	2.16
450.84	2.32
451.045	2.08
451.251	2.01
451.456	2.28
451.662	2.26
451.867	2.28
452.073	2.3
452.278	2.45
452.483	2.5
452.689	2.46
452.894	2.54
453.1	2.68
453.305	2.45
453.51	2.34
453.716	2.23
453.921	2.1
454.127	2.05
454.332	2.06
454.537	2.01
454.742	2.09
454.948	2.12
455.153	2.04
455.358	2.19
455.563	2.37
455.769	2.43
455.974	2.3
456.179	2.26
456.384	2.16
456.589	2.08
456.795	1.82
457	1.92
457.205	2.11
457.41	2.08
457.615	2.03
457.82	2.17
458.025	2.15
458.23	1.95
458.435	2.12
458.64	1.93
458.845	2.01
459.05	1.96
459.255	1.93
459.46	1.9
459.665	1.95
459.87	1.97
460.075	1.82
460.28	1.98
460.485	2
460.69	2.17
460.895	1.9
461.099	1.9
461.304	2.08
461.509	2.14
461.714	1.92
461.919	2.21
462.123	2.26
462.328	2.2
462.533	1.94
462.738	2.13
462.942	1.86
463.147	1.95
463.352	1.97
463.556	1.97
463.761	2.03
463.966	2.27
464.17	2.34
464.375	2.19
464.58	2.15
464.784	2.09
464.989	1.89
465.193	1.82
465.398	1.85
465.602	2.19
465.807	2.08
466.011	2.24
466.216	2.31
466.42	2.39
466.625	2.3
466.829	2.48
467.034	2.58
467.238	2.7
467.443	2.62
467.647	2.41
467.851	2.41
468.056	2.37
468.26	2.22
468.464	2.15
468.669	2.42
468.873	2.47
469.077	2.54
469.282	2.52
469.486	2.66
469.69	2.66
469.894	2.6
470.099	2.59
470.303	2.68
470.507	2.52
470.711	2.37
470.915	2.29
471.119	2.21
471.324	2.05
471.528	2.07
471.732	2.18
471.936	2.18
472.14	2.35
472.344	2.43
472.548	2.55
472.752	2.67
472.956	2.81
473.16	2.59
473.364	2.5
473.568	2.53
473.772	2.4
473.976	2.32
474.18	2.36
474.384	2.4
474.588	2.22
474.792	2.11
474.995	2.1
475.199	2.21
475.403	2.34
475.607	2.4
475.811	2.38
476.015	2.44
476.218	2.4
476.422	2.25
476.626	2.38
476.83	2.55
477.033	2.42
477.237	2.28
477.441	2.37
477.644	2.27
477.848	2.22
478.052	2.08
478.255	2.07
478.459	2.15
478.663	2.33
478.866	2.37
479.07	2.52
479.273	2.78
479.477	2.77
479.681	2.65
479.884	2.6
480.088	2.53
480.291	2.4
480.495	2.37
480.698	2.31
480.901	2.47
481.105	2.65
481.308	2.62
481.512	2.51
481.715	2.68
481.919	2.58
482.122	2.53
482.325	2.55
482.529	2.67
482.732	2.58
482.935	2.43
483.138	2.37
483.342	2.45
483.545	2.56
483.748	2.62
483.952	2.75
484.155	2.92
484.358	2.89
484.561	2.73
484.764	2.78
484.967	2.81
485.171	2.84
485.374	2.62
485.577	2.78
485.78	2.69
485.983	2.71
486.186	2.53
486.389	2.62
486.592	2.56
486.795	2.63
486.998	2.59
487.201	2.69
487.404	2.83
487.607	2.97
487.81	2.96
488.013	2.98
488.216	2.98
488.419	3.04
488.622	2.71
488.825	2.62
489.028	2.63
489.231	2.58
489.433	2.39
489.636	2.46
489.839	2.32
490.042	2.22
490.245	2.13
490.447	2.27
490.65	2.3
490.853	2.49
491.056	2.56
491.258	2.57
491.461	2.57
491.664	2.68
491.866	2.55
492.069	2.64
492.272	2.68
492.474	2.7
492.677	2.68
492.879	2.79
493.082	2.8
493.285	2.96
493.487	2.78
493.69	2.63
493.892	2.5
494.095	2.46
494.297	2.33
494.5	2.57
494.702	2.67
494.905	2.82
495.107	2.8
495.309	2.84
495.512	2.81
495.714	2.95
495.917	2.93
496.119	2.91
496.321	3
496.524	3.03
496.726	2.94
496.928	3.02
497.13	3
497.333	2.96
497.535	2.93
497.737	2.8
497.939	2.74
498.142	2.86
498.344	2.72
498.546	2.67
498.748	2.81
498.95	2.84
499.152	2.69
499.355	2.85
499.557	2.87
499.759	2.92
499.961	2.87
500.163	2.97
500.365	2.95
500.567	2.99
500.769	2.8
500.971	2.84
501.173	2.71
501.375	2.72
501.577	2.67
501.779	2.77
501.981	2.78
502.183	2.86
502.385	2.81
502.587	2.76
502.788	2.8
502.99	2.86
503.192	2.88
503.394	2.86
503.596	2.9
503.798	2.95
503.999	2.98
504.201	2.98
504.403	3.1
504.605	3.16
504.806	3.04
505.008	2.91
505.21	3
505.411	3
505.613	2.88
505.815	2.99
506.016	3.15
506.218	3.22
506.42	3.07
506.621	3.15
506.823	3.13
507.024	3.07
507.226	2.9
507.427	2.91
507.629	3.07
507.83	3.08
508.032	2.97
508.233	3.09
508.435	3.17
508.636	3.15
508.838	3.02
509.039	3.11
509.24	3.15
509.442	3.18
509.643	3.03
509.845	3.2
510.046	3.2
510.247	3.1
510.448	3.11
510.65	3.22
510.851	3.29
511.052	3.34
511.254	3.3
511.455	3.41
511.656	3.38
511.857	3.37
512.058	3.35
512.26	3.42
512.461	3.29
512.662	3.4
512.863	3.21
513.064	3.15
513.265	3.21
513.466	3.3
513.667	3.16
513.868	3.33
514.069	3.48
514.27	3.49
514.471	3.36
514.672	3.46
514.873	3.45
515.074	3.46
515.275	3.31
515.476	3.44
515.677	3.44
515.878	3.54
516.079	3.42
516.28	3.53
516.481	3.68
516.682	3.7
516.882	3.6
517.083	3.7
517.284	3.59
517.485	3.44
517.686	3.37
517.886	3.39
518.087	3.43
518.288	3.58
518.488	3.5
518.689	3.59
518.89	3.5
519.091	3.43
519.291	3.36
519.492	3.46
519.692	3.44
519.893	3.65
520.094	3.67
520.294	3.65
520.495	3.65
520.695	3.66
520.896	3.55
521.096	3.61
521.297	3.69
521.497	3.74
521.698	3.7
521.898	3.67
522.099	3.64
522.299	3.7
522.499	3.69
522.7	3.76
522.9	3.82
523.101	3.91
523.301	3.88
523.501	3.85
523.702	3.84
523.902	3.97
524.102	4.02
524.302	4.02
524.503	4.09
524.703	4.13
524.903	4.05
525.103	3.93
525.304	3.93
525.504	4
525.704	4.04
525.904	4.03
526.104	4.07
526.304	4.1
526.504	4.09
526.705	4.07
526.905	4.18
527.105	4.23
527.305	4.26
527.505	4.13
527.705	4.12
527.905	4.09
528.105	4.04
528.305	3.94
528.505	4.02
528.705	4.11
528.905	4
529.105	4.04
529.304	4.19
529.504	4.27
529.704	4.18
529.904	4.23
530.104	4.27
530.304	4.36
530.503	4.27
530.703	4.26
530.903	4.3
531.103	4.37
531.303	4.2
531.502	4.26
531.702	4.34
531.902	4.38
532.101	4.26
532.301	4.28
532.501	4.3
532.7	4.35
532.9	4.26
533.1	4.31
533.299	4.29
533.499	4.34
533.698	4.18
533.898	4.23
534.097	4.27
534.297	4.43
534.496	4.41
534.696	4.56
534.895	4.7
535.095	4.71
535.294	4.65
535.494	4.53
535.693	4.5
535.892	4.47
536.092	4.42
536.291	4.4
536.491	4.49
536.69	4.56
536.889	4.42
537.088	4.38
537.288	4.52
537.487	4.62
537.686	4.56
537.886	4.7
538.085	4.76
538.284	4.78
538.483	4.71
538.682	4.86
538.882	4.88
539.081	5.08
539.28	4.97
539.479	4.99
539.678	4.93
539.877	5.03
540.076	4.93
540.275	5.07
540.474	5.2
540.673	5.22
540.872	5.16
541.071	5.2
541.27	5.13
541.469	5.13
541.668	5.13
541.867	5.16
542.066	5.17
542.265	5.3
542.464	5.19
542.663	5.26
542.862	5.39
543.06	5.47
543.259	5.41
543.458	5.57
543.657	5.59
543.856	5.57
544.054	5.6
544.253	5.6
544.452	5.54
544.651	5.63
544.849	5.56
545.048	5.58
545.247	5.63
545.445	5.72
545.644	5.65
545.843	5.66
546.041	5.7
546.24	5.88
546.438	5.92
546.637	6.02
546.836	6.24
547.034	6.3
547.233	6.26
547.431	6.29
547.63	6.36
547.828	6.26
548.027	6.31
548.225	6.26
548.423	6.31
548.622	6.38
548.82	6.35
549.019	6.37
549.217	6.58
549.415	6.65
549.614	6.66
549.812	6.72
550.01	6.68
550.209	6.71
550.407	6.76
550.605	6.81
550.803	6.97
551.002	7.06
551.2	6.99
551.398	7.14
551.596	7.28
551.794	7.38
551.993	7.48
552.191	7.56
552.389	7.55
552.587	7.58
552.785	7.56
552.983	7.62
553.181	7.76
553.379	7.86
553.577	7.8
553.775	7.97
553.973	8.05
554.171	8.17
554.369	8.14
554.567	8.23
554.765	8.23
554.963	8.29
555.161	8.13
555.359	8.31
555.557	8.52
555.755	8.59
555.952	8.72
556.15	8.85
556.348	8.93
556.546	8.96
556.744	9
556.941	9.02
557.139	9.17
557.337	9.19
557.535	9.22
557.732	9.35
557.93	9.54
558.128	9.71
558.325	9.8
558.523	9.85
558.721	9.99
558.918	9.89
559.116	9.87
559.313	9.85
559.511	10.05
559.708	10.06
559.906	10.16
560.104	10.23
560.301	10.52
560.498	10.53
560.696	10.62
560.893	10.76
561.091	10.88
561.288	10.88
561.486	10.92
561.683	11.02
561.88	11.13
562.078	11.22
562.275	11.18
562.473	11.4
562.67	11.57
562.867	11.77
563.064	11.94
563.262	12.12
563.459	12.16
563.656	12.24
563.853	12.16
564.051	12.11
564.248	12.29
564.445	12.42
564.642	12.49
564.839	12.63
565.036	12.92
565.234	13.03
565.431	13.1
565.628	13.17
565.825	13.28
566.022	13.34
566.219	13.34
566.416	13.39
566.613	13.39
566.81	13.52
567.007	13.46
567.204	13.46
567.401	13.45
567.598	13.55
567.795	13.5
567.991	13.6
568.188	13.82
568.385	13.99
568.582	14.19
568.779	14.33
568.976	14.52
569.172	14.66
569.369	14.71
569.566	14.69
569.763	14.77
569.96	14.8
570.156	14.71
570.353	14.7
570.55	14.78
570.746	14.9
570.943	14.83
571.14	14.89
571.336	15.07
571.533	15.13
571.729	15.13
571.926	15.26
572.123	15.41
572.319	15.44
572.516	15.44
572.712	15.48
572.909	15.58
573.105	15.63
573.302	15.61
573.498	15.7
573.695	15.66
573.891	15.7
574.087	15.7
574.284	15.63
574.48	15.52
574.677	15.6
574.873	15.56
575.069	15.67
575.266	15.94
575.462	16
575.658	16.13
575.854	16.26
576.051	16.24
576.247	16.1
576.443	16.17
576.639	16.08
576.835	15.99
577.032	15.97
577.228	16.12
577.424	16.2
577.62	16.15
577.816	16.18
578.012	16.22
578.208	16.12
578.404	16.17
578.6	16.31
578.796	16.38
578.993	16.39
579.189	16.42
579.384	16.27
579.58	16.15
579.776	16.15
579.972	15.99
580.168	15.95
580.364	16.05
580.56	16.11
580.756	16.04
580.952	16.05
581.148	16.04
581.343	16
581.539	15.95
581.735	16.02
581.931	16.22
582.127	16.27
582.322	16.15
582.518	16.22
582.714	16.15
582.909	15.91
583.105	15.85
583.301	15.87
583.496	15.87
583.692	15.77
583.888	15.84
584.083	15.84
584.279	15.91
584.474	15.84
584.67	15.91
584.866	15.84
585.061	15.82
585.257	15.86
585.452	15.83
585.648	15.75
585.843	15.88
586.039	15.84
586.234	15.74
586.429	15.68
586.625	15.8
586.82	15.67
587.015	15.68
587.211	15.61
587.406	15.68
587.601	15.56
587.797	15.52
587.992	15.47
588.187	15.64
588.383	15.64
588.578	15.62
588.773	15.73
588.968	15.88
589.163	15.89
589.359	15.87
589.554	15.92
589.749	16.01
589.944	16
590.139	15.96
590.334	15.92
590.529	16.02
590.724	16.02
590.919	16.04
591.114	16.03
591.309	16.12
591.504	16.04
591.699	15.98
591.894	16
592.089	15.95
592.284	15.96
592.479	16.01
592.674	15.96
592.869	15.99
593.064	16.18
593.259	16.27
593.454	16.36
593.648	16.46
593.843	16.5
594.038	16.41
594.233	16.33
594.428	16.33
594.622	16.42
594.817	16.52
595.012	16.63
595.206	16.74
595.401	16.84
595.596	16.89
595.79	16.86
595.985	17.01
596.18	17.1
596.374	17.2
596.569	17.16
596.763	17.06
596.958	16.97
597.153	17
597.347	16.93
597.542	17.23
597.736	17.38
597.931	17.49
598.125	17.58
598.319	17.75
598.514	17.61
598.708	17.69
598.903	17.68
599.097	17.66
599.291	17.65
599.486	17.62
599.68	17.55
599.874	17.66
600.069	17.71
600.263	17.67
600.457	17.74
600.651	17.98
600.846	17.91
601.04	17.97
601.234	17.93
601.428	18
601.622	17.93
601.817	18.08
602.011	18.02
602.205	18.2
602.399	18.04
602.593	18.06
602.787	17.97
602.981	18.06
603.175	18.01
603.369	18.05
603.563	18.07
603.757	18.19
603.951	18.21
604.145	18.19
604.339	18.34
604.533	18.21
604.727	18.09
604.921	17.97
605.115	17.92
605.309	17.82
605.502	17.88
605.696	17.77
605.89	17.67
606.084	17.73
606.278	17.62
606.471	17.51
606.665	17.49
606.859	17.48
607.053	17.33
607.246	17.39
607.44	17.41
607.634	17.34
607.827	17.33
608.021	17.25
608.214	17.17
608.408	17.03
608.602	17.06
608.795	16.96
608.989	16.9
609.182	16.74
609.376	16.79
609.569	16.74
609.763	16.63
609.956	16.62
610.15	16.64
610.343	16.47
610.537	16.34
610.73	16.46
610.923	16.29
611.117	16.2
611.31	16.1
611.504	16.08
611.697	15.86
611.89	15.88
612.083	15.76
612.277	15.83
612.47	15.75
612.663	15.59
612.856	15.52
613.05	15.43
613.243	15.21
613.436	15.06
613.629	15.08
613.822	14.96
614.015	14.94
614.209	14.87
614.402	14.86
614.595	14.8
614.788	14.72
614.981	14.68
615.174	14.59
615.367	14.44
615.56	14.26
615.753	14.21
615.946	14.06
616.139	14.13
616.332	14.28
616.525	14.38
616.718	14.45
616.911	14.42
617.103	14.42
617.296	14.29
617.489	14.19
617.682	14.11
617.875	14.11
618.067	14.02
618.26	13.86
618.453	13.9
618.646	13.82
618.838	13.75
619.031	13.71
619.224	13.77
619.417	13.65
619.609	13.73
619.802	13.67
619.994	13.63
620.187	13.65
620.38	13.6
620.572	13.38
620.765	13.41
620.957	13.29
621.15	13.07
621.342	13.02
621.535	13.19
621.727	13.18
621.92	13.15
622.112	13.14
622.305	13.2
622.497	12.97
622.69	12.9
622.882	12.92
623.074	12.98
623.267	12.92
623.459	12.86
623.651	12.8
623.844	12.78
624.036	12.78
624.228	12.77
624.42	12.85
624.613	12.97
624.805	12.96
624.997	12.87
625.189	12.86
625.381	12.87
625.574	12.79
625.766	12.75
625.958	12.75
626.15	12.77
626.342	12.69
626.534	12.62
626.726	12.58
626.918	12.68
627.11	12.57
627.302	12.56
627.494	12.51
627.686	12.43
627.878	12.26
628.07	12.2
628.262	12.14
628.454	12.21
628.646	12.28
628.838	12.32
629.029	12.23
629.221	12.18
629.413	11.96
629.605	11.87
629.797	11.71
629.989	11.81
630.18	11.88
630.372	11.92
630.564	11.95
630.755	12.08
630.947	12.03
631.139	11.85
631.33	11.75
631.522	11.78
631.714	11.7
631.905	11.64
632.097	11.65
632.289	11.67
632.48	11.57
632.672	11.41
632.863	11.17
633.055	11.21
633.246	11.22
633.438	11.1
633.629	11.1
633.821	11.25
634.012	11.25
634.203	11.13
634.395	11.13
634.586	11.24
634.777	11.06
634.969	10.97
635.16	10.96
635.351	10.98
635.543	10.96
635.734	11.07
635.925	11.05
636.117	11.16
636.308	10.97
636.499	10.9
636.69	10.79
636.881	10.71
637.073	10.73
637.264	10.84
637.455	10.79
637.646	10.95
637.837	11.05
638.028	10.89
638.219	10.91
638.41	10.91
638.601	10.76
638.792	10.64
638.983	10.54
639.174	10.39
639.365	10.34
639.556	10.35
639.747	10.35
639.938	10.37
640.129	10.45
640.32	10.37
640.511	10.32
640.701	10.38
640.892	10.46
641.083	10.45
641.274	10.47
641.465	10.48
641.655	10.34
641.846	10.21
642.037	10.17
642.228	10.09
642.418	10.14
642.609	10.06
642.8	10.06
642.99	9.95
643.181	10.06
643.372	10
643.562	10.01
643.753	9.95
643.943	10.01
644.134	9.83
644.324	9.78
644.515	9.73
644.705	9.83
644.896	9.84
645.086	9.87
645.277	9.75
645.467	9.82
645.658	9.64
645.848	9.56
646.038	9.58
646.229	9.67
646.419	9.52
646.61	9.54
646.8	9.51
646.99	9.49
647.18	9.44
647.371	9.57
647.561	9.43
647.751	9.43
647.941	9.35
648.132	9.26
648.322	9.21
648.512	9.36
648.702	9.24
648.892	9.23
649.082	9.29
649.272	9.11
649.462	8.93
649.653	8.95
649.843	8.93
650.033	8.89
650.223	8.95
650.413	9
650.603	9.02
650.793	8.91
650.983	8.8
651.172	8.73
651.362	8.76
651.552	8.64
651.742	8.55
651.932	8.49
652.122	8.52
652.312	8.49
652.502	8.51
652.691	8.61
652.881	8.64
653.071	8.61
653.261	8.34
653.45	8.26
653.64	8.23
653.83	8.09
654.019	8.07
654.209	8.29
654.399	8.39
654.588	8.23
654.778	8.18
654.968	8.02
655.157	7.89
655.347	7.74
655.536	7.68
655.726	7.69
655.915	7.64
656.105	7.57
656.294	7.45
656.484	7.19
656.673	7.06
656.863	7.02
657.052	6.84
657.241	6.71
657.431	6.68
657.62	6.44
657.809	6.22
657.999	6
658.188	5.83
658.377	5.83
658.567	5.89
658.756	5.87
658.945	5.76
659.134	5.75
659.324	5.67
659.513	5.6
659.702	5.35
659.891	5.42
660.08	5.38
660.269	5.29
660.458	5.22
660.648	5.34
660.837	5.13
661.026	5.02
661.215	4.96
661.404	4.63
661.593	4.63
661.782	4.47
661.971	4.51
662.16	4.48
662.349	4.68
662.538	4.42
662.726	4.65
662.915	4.56
663.104	4.32
663.293	4.2
663.482	4.33
663.671	4.08
663.86	3.88
664.048	3.88
664.237	3.89
664.426	3.64
664.615	3.8
664.803	3.94
664.992	4.03
665.181	4.01
665.369	3.95
665.558	3.8
665.747	3.59
665.935	3.59
666.124	3.62
666.312	3.8
666.501	3.79
666.69	3.77
666.878	3.75
667.067	3.53
667.255	3.52
667.444	3.78
667.632	3.92
667.82	4.01
668.009	4.1
668.197	4.08
668.386	3.92
668.574	4.02
668.762	3.97
668.951	3.91
669.139	3.83
669.327	3.71
669.516	3.6
669.704	3.59
669.892	3.76
670.08	3.89
670.269	3.87
670.457	3.99
670.645	3.93
670.833	3.97
671.021	4.01
671.21	4.11
671.398	4.17
671.586	4.21
671.774	4.21
671.962	4.13
672.15	4.04
672.338	3.87
672.526	3.91
672.714	3.74
672.902	3.74
673.09	3.95
673.278	4.28
673.466	4.34
673.654	4.78
673.842	4.84
674.03	4.96
674.218	4.71
674.405	4.74
674.593	4.57
674.781	4.81
674.969	4.67
675.157	4.94
675.344	4.98
675.532	4.91
675.72	4.87
675.908	5.08
676.095	4.81
676.283	4.9
676.471	5.18
676.658	5.19
676.846	5.06
677.033	5.4
677.221	5.35
677.409	5.22
677.596	5.29
677.784	5.46
677.971	5.42
678.159	5.54
678.346	5.61
678.534	5.6
678.721	5.85
678.909	5.83
679.096	5.9
679.283	6.11
679.471	6.18
679.658	6.18
679.846	6.44
680.033	6.7
680.22	6.72
680.408	6.85
680.595	6.92
680.782	6.78
680.969	6.79
681.157	6.62
681.344	6.64
681.531	6.52
681.718	6.55
681.905	6.57
682.093	6.78
682.28	6.96
682.467	7.25
682.654	7.43
682.841	7.39
683.028	7.68
683.215	7.8
683.402	7.6
683.589	7.83
683.776	7.92
683.963	7.84
684.15	8.13
684.337	8.31
684.524	8.26
684.711	8.41
684.898	8.43
685.085	8.32
685.271	8.71
685.458	9.11
685.645	9.4
685.832	9.86
686.019	10.07
686.205	10.23
686.392	10.25
686.579	10.42
686.766	10.55
686.952	10.7
687.139	11.06
687.326	11.1
687.512	11.29
687.699	11.45
687.886	11.74
688.072	11.77
688.259	12.29
688.445	12.63
688.632	12.81
688.818	13.37
689.005	13.54
689.191	13.88
689.378	14.51
689.564	15.15
689.751	15.1
689.937	15.94
690.124	16.22
690.31	16.49
690.496	16.83
690.683	17.74
690.869	18.06
691.055	18.64
691.242	19.22
691.428	19.82
691.614	20.32
691.8	20.79
691.987	21.25
692.173	21.64
692.359	22.12
692.545	22.68
692.731	22.83
692.918	23.68
693.104	24.09
693.29	24.71
693.476	25.11
693.662	26.08
693.848	26.38
694.034	27.1
694.22	27.6
694.406	28.47
694.592	29.23
694.778	29.65
694.964	30.03
695.15	30.5
695.336	30.86
695.522	31.34
695.708	32.2
695.894	33
696.08	33.84
696.265	34.27
696.451	34.59
696.637	35.24
696.823	35.68
697.009	36.21
697.194	37
697.38	37.61
697.566	37.93
697.751	38.33
697.937	38.81
698.123	39.22
698.308	40.13
698.494	40.61
698.68	41.45
698.865	41.71
699.051	42.52
699.236	42.81
699.422	43.3
699.607	43.56
699.793	44.3
699.978	44.32
700.164	44.71
700.349	45.79
700.535	46.51
700.72	46.82
700.906	47.76
701.091	48.17
701.276	48.01
701.462	48.86
701.647	49.73
701.832	49.98
702.018	50.49
702.203	51.26
702.388	51.17
702.573	51.07
702.759	51.73
702.944	51.9
703.129	52.16
703.314	52.6
703.499	53.32
703.684	53.75
703.87	54.62
704.055	55.46
704.24	56.03
704.425	56.21
704.61	56.31
704.795	56.07
704.98	55.56
705.165	55.38
705.35	55.49
705.535	55.49
705.72	56.17
705.905	56.82
706.09	57.61
706.275	58.07
706.459	58.16
706.644	58.01
706.829	58.64
707.014	58.48
707.199	58.81
707.384	59.78
707.568	60.21
707.753	60.7
707.938	61.4
708.123	61.97
708.307	61.41
708.492	61.7
708.677	60.91
708.861	60.33
709.046	59.91
709.231	60.63
709.415	60.84
709.6	61.3
709.784	61.48
709.969	62.11
710.153	61.9
710.338	62.13
710.522	62.14
710.707	62.83
710.891	62.36
711.076	62.98
711.26	62.49
711.445	62.91
711.629	63.05
711.813	63.75
711.998	63.96
712.182	64.28
712.366	64.74
712.551	65.18
712.735	65.02
712.919	65.2
713.103	65.92
713.288	65.54
713.472	65.26
713.656	66
713.84	66.17
714.024	66.01
714.208	66.47
714.393	66.94
714.577	67.13
714.761	66.86
714.945	67.28
715.129	67.02
715.313	66.85
715.497	66.41
715.681	66.93
715.865	67
716.049	67.58
716.233	67.95
716.417	68.44
716.601	68.43
716.785	68.62
716.968	68.95
717.152	69.22
717.336	68.92
717.52	68.3
717.704	68.32
717.888	68.97
718.071	68.54
718.255	69.12
718.439	69.82
718.622	70.55
718.806	70.05
718.99	69.63
719.174	69.65
719.357	69.97
719.541	69.28
719.724	69.46
719.908	71.33
720.092	72.46
720.275	72.69
720.459	73.89
720.642	73.43
720.826	72.63
721.009	71.75
721.193	70.86
721.376	70.13
721.559	71.51
721.743	72.21
721.926	72.35
722.11	72.78
722.293	72.88
722.476	71.43
722.66	71.02
722.843	70.73
723.026	70.71
723.21	70.62
723.393	72.22
723.576	72.52
723.759	72.1
723.942	72.89
724.126	73.2
724.309	72.78
724.492	72.37
724.675	73.32
724.858	73.59
725.041	74.6
725.224	74.56
725.407	75.16
725.59	75.24
725.774	74.72
725.957	73.46
726.14	73.71
726.322	74.23
726.505	74.21
726.688	74.87
726.871	74.69
727.054	74.77
727.237	74.36
727.42	74.93
727.603	75.41
727.786	76.09
727.968	76.36
728.151	75.86
728.334	75.64
728.517	75.4
728.699	76.14
728.882	75.59
729.065	77.05
729.248	77.96
729.43	78.48
729.613	78.91
729.796	79.66
729.978	78.18
730.161	77.39
730.343	77.11
730.526	77.15
730.708	76.7
730.891	77.82
731.073	77.68
731.256	77
731.438	77.54
731.621	78.65
731.803	79.25
731.986	79.95
732.168	80.24
732.35	79.69
732.533	78.9
732.715	78.2
732.898	79.13
733.08	79.8
733.262	79.69
733.444	79.27
733.627	79.16
733.809	78.78
733.991	79.6
734.173	80.52
734.355	81.42
734.538	82.13
734.72	81.13
734.902	80.41
735.084	79.42
735.266	80.36
735.448	80.45
735.63	80.76
735.812	80.98
735.994	81.9
736.176	81.66
736.358	81.4
736.54	82.91
736.722	83.24
736.904	82.9
737.086	81.43
737.268	83.18
737.45	82.67
737.632	82.07
737.814	81.38
737.995	83.58
738.177	83.08
738.359	82.49
738.541	83.39
738.723	84.19
738.904	83.34
739.086	82.71
739.268	82.62
739.449	82.57
739.631	82.43
739.813	82.72
739.994	83.07
740.176	83.63
740.358	83.25
740.539	84.69
740.721	84.82
740.902	86.57
741.084	87.11
741.265	87.03
741.447	86.92
741.628	86.87
741.81	83.59
741.991	84.14
742.172	85.13
742.354	84.96
742.535	84.68
742.717	87.38
742.898	85.9
743.079	86.52
743.261	86.33
743.442	85.85
743.623	85.47
743.804	86.95
743.986	86.89
744.167	84.77
744.348	85.43
744.529	85.3
744.71	83.53
744.891	83.1
745.073	84.51
745.254	85.19
745.435	85.16
745.616	85.28
745.797	84.5
745.978	84.57
746.159	83.92
746.34	82.7
746.521	84.19
746.702	84.44
746.883	84.42
747.064	82.6
747.245	83.44
747.426	82.69
747.606	82.28
747.787	82.73
747.968	83.95
748.149	83.79
748.33	84.56
748.51	84.2
748.691	82.54
748.872	84.51
749.053	83.99
749.233	83.07
749.414	83.38
749.595	84.6
749.775	82.25
749.956	80.92
750.137	79.98
750.317	80.89
750.498	81.52
750.678	82.37
750.859	84.09
751.04	86.16
751.22	85.94
751.4	84.58
751.581	85.08
751.761	85.47
751.942	85.95
752.122	85.6
752.303	84.99
752.483	84.37
752.663	85.02
752.844	84.44
753.024	85.37
753.204	87.11
753.385	85.72
753.565	83.14
753.745	83.3
753.925	82.69
754.106	83.54
754.286	84.97
754.466	86.13
754.646	86.02
754.826	86.24
755.006	83.99
755.187	85.06
755.367	84.79
755.547	85.39
755.727	85.77
755.907	84.96
756.087	86.35
756.267	85.74
756.447	85.17
756.627	83.61
756.807	87.41
756.987	85.62
757.167	87.39
757.346	86.86
757.526	85.46
757.706	84.74
757.886	83.24
758.066	84.52
758.246	86.33
758.425	88.64
758.605	86.7
758.785	88.29
758.965	86.57
759.144	83.02
759.324	82.46
759.504	84.18
759.683	83.29
759.863	81.9
760.043	83.92
760.222	84.63
760.402	82.85
760.581	84.67
760.761	86.61
760.94	83.07
761.12	82.79
761.299	85.97
761.479	83.97
761.658	82.25
761.838	84.16
762.017	83.89
762.197	82.27
762.376	83.47
762.555	86.18
762.735	88.84
762.914	86.68
763.093	88.99
763.273	87.42
763.452	87.51
763.631	84.39
763.81	85.98
763.99	83.49
764.169	85.14
764.348	81
764.527	81.8
764.706	83.74
764.885	86.29
765.064	84
765.243	85.22
765.423	85.69
765.602	86.94
765.781	83.36
765.96	82.11
766.139	83.69
766.318	85.1
766.497	83.14
766.676	84.41
766.854	88.29
767.033	87.63
767.212	86.76
767.391	85.18
767.57	86.2
767.749	86.72
767.928	87.98
768.106	84.92
768.285	84.17
768.464	84.48
768.643	83.08
768.821	83.21
769	86.14
769.179	87.01
769.357	81.26
769.536	77.32
769.715	78.09
769.893	78.93
770.072	79.23
770.25	79.09
770.429	82.29
770.607	80.42
770.786	80.06
770.964	81.69
771.143	86.05
771.321	88.77
771.5	89.54
771.678	86.67
771.857	84.39
772.035	85.55
772.213	82.66
772.392	77.84
772.57	82.58
772.748	84.67
772.927	81.09
773.105	81.31
773.283	87.19
773.461	87.07
773.64	83.78
773.818	82.7
773.996	85.19
774.174	83.07
774.352	77.11
774.531	78.85
774.709	84.44
774.887	82.65
775.065	80.28
775.243	81.88
775.421	84.67
775.599	85.51
775.777	81.15
775.955	80.21
776.133	80.68
776.311	76
776.489	70.57
776.667	74.59
776.844	78.48
777.022	76.51
777.2	76.29
777.378	74.84
777.556	75.17
777.734	75.43
777.911	77.53
778.089	78.62
778.267	83.27
778.445	80.22
778.622	78.19
778.8	78.19
778.978	81.62
779.155	79.46
779.333	81.35
779.511	75.81
779.688	79.79
779.866	71.15
780.043	68.85
780.221	67.57
780.398	68.53
780.576	65.91
780.753	71.65
780.931	71.7
781.108	72.69
781.286	80.24
781.463	73.57
781.64	72.96
781.818	79.42
781.995	78.37
782.172	75.82
782.35	80.65
782.527	83.11
782.704	76.99
782.882	80.63
783.059	82.42
783.236	83.92
783.413	84.16
783.59	86.74
783.768	79.17
783.945	79.13
784.122	80.44
784.299	79.26
784.476	78.03
784.653	83.83
784.83	79.25
785.007	69.73
785.184	71.46
785.361	72.62
785.538	74.26
785.715	76.96
785.892	82.29
786.069	82.43
786.246	84.63
786.423	79.02
786.6	76.21
786.776	80.4
786.953	80.11
787.13	77.72
787.307	81.61
787.484	88.13
787.66	84.23
787.837	76.67
788.014	75.69
788.191	72.44
788.367	68.25
788.544	74.16
788.721	77.44
788.897	79.2
789.074	82.46
789.25	80.52
789.427	78.55
789.603	78.07
789.78	80.06
789.956	67.7
790.133	70.74
790.309	68.64
790.486	75.44
790.662	71.88
790.839	79.46
791.015	85.41
791.192	79.67
791.368	77.27
791.544	71.08
791.721	79.69
791.897	71.45
792.073	73.41
792.249	68.28
792.426	74.05
792.602	71.14
792.778	67.57
792.954	68.59
793.13	65.09
793.307	60.57
793.483	45.7
793.659	47.39
793.835	45.67
794.011	54.58
794.187	50.88
794.363	55.85
794.539	59.38
794.715	55.62
794.891	51.18
795.067	55.3
795.243	70.51
795.419	70.21
795.595	72.08
795.771	74.25
795.947	78.34
796.122	59.19
796.298	60.27
796.474	65.8
796.65	64.65
796.826	62.09
797.001	73.52
797.177	64.44
797.353	70.26
797.529	71.77
797.704	68.8
797.88	64.13
798.056	65.15
798.231	57.68
798.407	58.2
798.582	61.83
798.758	67.18
798.934	82.14
799.109	79.8
799.285	75.24
799.46	84.66
799.636	81.8
799.811	73.28
799.986	79.53
800.162	85.18
800.337	80.71
800.513	78.03
800.688	77.1
800.863	79.24
801.039	69.99
801.214	58.43
801.389	60.71
801.565	58.78
801.74	49.01
801.915	57.21
802.09	65.93
802.265	69.78
802.441	73.55
802.616	70.75
802.791	66.64
802.966	67.2
803.141	65.75
803.316	51.08
803.491	61.06
803.666	61.13
803.841	60.24
804.016	56.11
804.191	66.03
804.366	59.78
804.541	60.37
804.716	49.19
804.891	45.23
805.066	48.61
805.241	51.1
805.416	53.06
805.591	55.18
805.765	61.19
805.94	65.77
806.115	64.26
806.29	52.42
806.464	65.58
806.639	57.63
806.814	37.86
806.989	25.27
807.163	42.7
807.338	28.79
807.512	30.46
807.687	30.5
807.862	48.11
808.036	48.76
808.211	53.59
808.385	65.88
808.56	80.34
808.734	77.45
808.909	73.27
809.083	68.53
809.258	71.75
809.432	69.66
809.606	44.35
809.781	46.43
809.955	58.29
810.13	53.34
810.304	40.31
810.478	51.96
810.652	65.09
810.827	69.17
811.001	70.04
811.175	71.9
811.349	77.99
811.524	59.04
811.698	37.64
811.872	36.68
812.046	45.61
812.22	47.21
812.394	42.42
812.568	49.58
812.742	51.19
812.916	46.64
813.09	47.18
813.264	62.27
813.438	65.47
813.612	57.68
813.786	40.6
813.96	52.7
814.134	57.29
814.308	64.04
814.482	66.22
814.656	80.48
814.83	78.67
815.003	68.87
815.177	57.35
815.351	48.76
815.525	66.49
815.698	51.54
815.872	33.16
816.046	30.57
816.219	38.58
816.393	39.66
816.567	50.76
816.74	58.49
816.914	74.49
817.088	76.83
817.261	60.65
817.435	44.47
817.608	38.28
817.782	27.58
817.955	20.88
818.129	11.69
818.302	24.79
818.475	55.96
818.649	60.14
818.822	42.28
818.996	57.87
819.169	56.88
819.342	26.76
819.516	30.18
819.689	52.49
819.862	41.63
820.035	18.3
820.209	16.36
820.382	24
820.555	24.14
820.728	15.77
820.901	24.93
821.075	40.77
821.248	49.02
821.421	36.6
821.594	25.22
821.767	56.66
821.94	87.05
822.113	34.19
822.286	40.29
822.459	76.89
822.632	58.59
822.805	36.55
822.978	53.95
823.151	60.35
823.324	28.89
823.496	-21.06
823.669	-18.35
823.842	-11.32
824.015	-30.3
824.188	-33.61
824.361	-15.78
824.533	-29.24
824.706	-6.22
824.879	8.87
825.051	70.94
825.224	68.84
825.397	68.36
825.569	42.19
825.742	47.75
825.915	35.95
826.087	34.46
826.26	23.98
826.432	29.4
826.605	33.71
826.777	26.76
826.95	9.65
827.122	12.01
827.295	21.98
827.467	15.82
827.64	-8.71
827.812	-9.42
827.984	1.92
828.157	-11
828.329	-26.8
828.501	-20.31
828.674	-6.84
828.846	-11.6
829.018	1.95
829.19	2.57
829.363	23.81
829.535	32.81
829.707	41.72
829.879	8.55
830.051	1.56
830.223	6.27
830.395	-29.54
830.568	-32.19
830.74	-12.76
830.912	16.93
831.084	-10.38
831.256	-5.46
831.428	-23.61
831.6	-38.57
831.772	-72.26
831.943	-68.62
832.115	-40.62
832.287	-5.37
832.459	2.02
832.631	18.79
832.803	58.51
832.975	45.12
833.146	49.17
833.318	47.75
833.49	56.9
833.662	21.52
833.833	10.74
834.005	0.97
834.177	25.1
834.348	-1.29
834.52	-28.21
834.692	-9.83
834.863	-21.87
835.035	-54.56
835.206	-39.16
835.378	3.03
835.549	-25.33
835.721	2.64
835.892	-8
836.064	-4.72
836.235	5.98
836.407	42.99
836.578	7.14
836.749	49.34
836.921	50.72
837.092	12.84
837.264	-44.55
837.435	-56.04
837.606	-64.57
837.777	-19.75
837.949	3.66
838.12	8.1
838.291	30.37
838.462	38.5
838.633	4.23
838.805	-10.13
838.976	8.66
839.147	-1.71
839.318	-48.41
839.489	-65.94
839.66	-52.28
839.831	-28.03
840.002	-34.13
840.173	-40.23
840.344	-34.26
840.515	-22.69
840.686	-59.92
840.857	-83.22
841.028	-97.11
841.199	-56.58
841.369	-92.79
841.54	-96.05
841.711	-25.54
841.882	-10.07
842.053	-37.35
842.223	-63.21
842.394	-31.96
842.565	-23.55
842.736	-2.8
842.906	-18.86
843.077	30.3
843.248	50.82
843.418	16.49
843.589	-8.51
843.759	48.58
843.93	52.89
844.101	25.75
844.271	27.61
844.442	80.91
844.612	81.16
844.783	41.38
844.953	13.27
845.123	46.05
845.294	20.07
845.464	-28.9
845.635	2.48
845.805	35.25
845.975	31.25
846.146	-13.89
846.316	-15.58
846.486	-25.06
846.656	-29.7
846.827	-78.6
846.997	-56.91
847.167	-20.51
847.337	-32.28
847.507	-33.6
847.677	-30.91
847.848	-6.23
848.018	-10.2
848.188	15.47
848.358	15.46
848.528	29.15
848.698	11.28
848.868	-31.61
849.038	-64.47
849.208	-59.86
849.378	-24.78
849.548	-59.59
849.718	-13.29
849.887	47.25
850.057	-47.15
850.227	-104.99
850.397	-80.26
850.567	-94.45
850.737	-77.89
850.906	-101.16
851.076	-146.06
851.246	-159.01
851.415	-90.84
851.585	-63.53
851.755	-30
851.924	40.74
852.094	52.58
852.264	15.46
852.433	-41.87
852.603	-16.56
852.772	-15.58
852.942	-66.21
853.111	-81.41
853.281	-0.89
853.45	9.44
853.62	-39.09
853.789	-70.08
853.959	0.71
854.128	-37.69
854.297	-86.61
854.467	-102.52
854.636	-40.53
854.805	-51.33
854.975	-84.2
855.144	-59.53
855.313	5.47
855.482	-17.12
855.652	-69.68
855.821	-39.79
855.99	17.42
856.159	22.46
856.328	17.2
856.497	17.35
856.667	22.83
856.836	-21.12
857.005	-124.11
857.174	-205.71
857.343	-186.33
857.512	-129.94
857.681	-206.79
857.85	-144.12
858.019	-105.83
858.188	-103.66
858.356	-140.24
858.525	-134.89
858.694	-110.19
858.863	-89.61
859.032	-113.9
859.201	-109.06
859.369	-49.77
859.538	-46.4
859.707	-70.93
859.876	-78.56
860.044	-50.47
860.213	-36.82
860.382	-61.81
860.55	-31.61
860.719	16.44
860.888	36.36
861.056	-70.35
861.225	-76.96
861.393	-49.75
861.562	42.17
861.73	-1.42
861.899	28.62
862.067	10.79
862.236	0.53
862.404	-88.21
862.572	-116.85
862.741	-74
862.909	-86.3
863.078	-116.54
863.246	-110.32
863.414	-80.23
863.582	-149.04
863.751	-107.77
863.919	-82.7
864.087	8.79
864.255	11.41
864.424	-30.05
864.592	0.82
864.76	34.67
864.928	17.2
865.096	-7.72
865.264	15.17
865.432	10.49
865.6	38.27
865.768	-80.02
865.936	-164.39
866.104	-146.75
866.272	-209.55
866.44	-225.42
866.608	-208.18
866.776	-278.53
866.944	-361.34
867.112	-451.55
867.28	-663.21
867.448	-1117.5
867.615	-453.02
867.783	-114.11
867.951	-145.81
868.119	-51.42
868.286	-61.36
868.454	-106.13
868.622	-212.98
868.789	-224.39
868.957	-121.45
869.125	-152.9
869.292	-121.56
869.46	-77.26
869.627	-17.13
869.795	-85.51
869.963	-53.7
870.13	-6.66
870.298	11.45
870.465	-65.89
870.632	-72.44
870.8	-75.63
870.967	-96.76
871.135	-196.54
871.302	-118.37
871.469	-31.56
871.637	7.95
871.804	1.87
871.971	-37.35
872.139	-31.61
872.306	3.73
872.473	-45.31
872.64	-113.53
872.807	-35.9
872.975	1.3
873.142	-91.01
873.309	-36.49
873.476	114.08
873.643	124.22
873.81	78.37
873.977	54.16
874.144	51.97
874.311	16.12
874.478	-105.73
874.645	-159.75
874.812	-527.45
874.979	31295.24
875.146	-824.51
875.313	-222.56
875.48	-149.9
875.647	-95.21
875.813	-135.88
875.98	-164.17
876.147	-220.89
876.314	-185.52
876.481	-266.01
876.647	-269.88
876.814	-154.38
876.981	-117.4
877.147	-230.15
877.314	-216.54
877.481	-130.79
877.647	-12.43
877.814	-110.82
877.98	-139.39
878.147	-10.99
878.314	45.12
878.48	-73.43
878.647	-84.94
878.813	45.05
878.979	40.43
879.146	-25.85
879.312	-11.51
879.479	14.05
879.645	-16.74
879.811	-112.81
879.978	-128.76
880.144	-124.8
880.31	-216.86
880.477	-311.45
880.643	-270.9
880.809	-148.9
880.975	-83.56
881.142	-108.43
881.308	-74.11
881.474	-36.52
881.64	-7.4
881.806	-64.69
881.972	-16.12
882.138	12.06
882.304	55.7
882.47	-58.37
882.636	-115.92
882.802	-120.87
882.968	-33.8
883.134	-221.24
883.3	-272.84
883.466	13.7
883.632	66.34
883.798	-75.33
883.964	-27.04
884.129	-29.85
884.295	-65.48
884.461	-118.79
884.627	-154.45
884.793	-131.98
884.958	-67.22
885.124	-153.67
885.29	-165.71
885.455	-86.79
885.621	-76.45
885.787	-360.83
885.952	-130.56
886.118	-113.83
886.283	-123.76
886.449	-173.32
886.614	-90.86
886.78	-98.66
886.945	-56.77
887.111	-209.26
887.276	-197.42
887.442	-407.47
887.607	-193.26
887.773	-341.08
887.938	-259.65
888.103	-162.06
888.269	-42.52
888.434	-68.31
888.599	-67.18
888.764	18.93
888.93	31.09
889.095	-12.6
889.26	-38.02
889.425	38.27
889.59	32.52
889.756	-38.47
889.921	-41.08
890.086	-7.1
890.251	-34.38
890.416	-115.17
890.581	-114.61
890.746	-72.88
890.911	-25.74
891.076	-74.01
891.241	-63.01
891.406	46.82
891.571	65.68
891.736	-37.2
891.901	-72.86
892.065	-47.01
892.23	-32.47
892.395	-197.04
892.56	-233.58
892.725	-73.12
892.889	-45.16
893.054	-193.61
893.219	-178.11
893.384	-174.47
893.548	-252.51
893.713	-338.67
893.878	-281.61
