Data from Ofra_PP_Phys_0GT1H_Reflection_1.txt Node
Date: Sat Jul 24 20:05:46 EDT 2021
User: USUARIO
Spectrometer: FLMT01687
Trigger mode: 0
Integration Time (sec): 1.100000E0
Scans to average: 2
Electric dark correction enabled: true
Nonlinearity correction enabled: false
Boxcar width: 2
XAxis mode: Wavelengths
Number of Pixels in Spectrum: 3648
>>>>>Begin Spectral Data<<<<<
179.494	565.02
179.716	744.74
179.937	1360.24
180.158	1223.24
180.38	667.59
180.601	-1034.72
180.823	-108.23
181.044	1174.42
181.265	-59.57
181.486	16.8
181.708	107.86
181.929	-1780
182.15	208.43
182.372	-88.05
182.593	62300
182.814	884.62
183.035	272.15
183.257	192.76
183.478	101.74
183.699	174.9
183.92	69.43
184.141	80.89
184.363	23.71
184.584	71.87
184.805	42.54
185.026	67.88
185.247	58.18
185.468	31.22
185.689	22.1
185.91	41.26
186.132	51.79
186.353	64.38
186.574	87.22
186.795	90.52
187.016	36.66
187.237	45.5
187.458	50.46
187.679	121.7
187.9	101.35
188.121	141.89
188.342	149.65
188.563	144.43
188.784	138.17
189.005	153.94
189.226	140.47
189.447	125.78
189.667	86.02
189.888	56.76
190.109	24.33
190.33	-4.91
190.551	-21.05
190.772	-0.05
190.993	-34.46
191.214	-20.64
191.434	-12.1
191.655	23.01
191.876	-9.9
192.097	1.66
192.318	13.79
192.538	0.32
192.759	-14.09
192.98	-7.61
193.201	-0.52
193.421	-38.83
193.642	-11.82
193.863	1.51
194.083	-0.21
194.304	13.79
194.525	42.54
194.745	32.26
194.966	-15.14
195.187	-26.03
195.407	-74.07
195.628	-94.41
195.848	-67.58
196.069	-55.75
196.29	-40.6
196.51	-60.24
196.731	-77.33
196.951	-63.22
197.172	-29.47
197.392	-13.51
197.613	14.18
197.833	18.8
198.054	-2.7
198.274	-7.38
198.495	-72.88
198.715	-42.73
198.936	-47.83
199.156	-15.1
199.377	-42.34
199.597	-19.78
199.817	-53.28
200.038	-38.59
200.258	-27.25
200.479	33.7
200.699	37
200.919	62.84
201.14	35.08
201.36	24.13
201.58	26.78
201.801	22.39
202.021	-7.03
202.241	16.39
202.461	-27.52
202.682	-38.38
202.902	-10.77
203.122	2.05
203.342	7.44
203.563	42.27
203.783	75.48
204.003	20.56
204.223	-38.27
204.443	36.49
204.663	15.52
204.884	-42.67
205.104	-5.88
205.324	37.48
205.544	33.98
205.764	38.75
205.984	83.74
206.204	82.46
206.424	104.24
206.644	33.99
206.864	45.2
207.084	14.73
207.304	36.01
207.525	-1.73
207.745	30.6
207.964	30.49
208.184	27.72
208.404	15.08
208.624	23.61
208.844	20.5
209.064	-8.57
209.284	-19.49
209.504	-19.48
209.724	14.49
209.944	8.25
210.164	27.5
210.384	46.4
210.604	47.22
210.823	-7.28
211.043	-28.74
211.263	-31.67
211.483	-39.31
211.703	-51.54
211.922	-22.93
212.142	34.25
212.362	43.19
212.582	28.68
212.801	35.87
213.021	8.12
213.241	1.57
213.461	-18.69
213.68	-35.21
213.9	-15.61
214.12	30.07
214.339	7.75
214.559	29.55
214.779	113.83
214.998	75.27
215.218	36.46
215.438	26.86
215.657	14.87
215.877	-7.37
216.096	-4.08
216.316	47.39
216.535	49.34
216.755	56.37
216.974	44.8
217.194	59.13
217.413	26.63
217.633	18.47
217.852	-29.55
218.072	-34.18
218.291	-78.66
218.511	-45.93
218.73	-82.97
218.95	-75.2
219.169	-56.66
219.389	-59.08
219.608	-77.05
219.827	-14.66
220.047	9.78
220.266	-5.49
220.485	-3.77
220.705	33.15
220.924	-17.26
221.143	16.35
221.363	-16.75
221.582	20.39
221.801	-1.73
222.021	41.86
222.24	28.44
222.459	72.63
222.678	40.01
222.897	37.25
223.117	27.46
223.336	26.64
223.555	33.33
223.774	67.95
223.993	81.13
224.213	130.83
224.432	74.02
224.651	89.55
224.87	64.5
225.089	81.5
225.308	65.79
225.527	100.34
225.746	88.64
225.965	67.76
226.184	35.74
226.404	30.71
226.623	7.94
226.842	10.3
227.061	54.75
227.28	77.35
227.499	102.29
227.718	119.88
227.936	107.78
228.155	105.74
228.374	66.84
228.593	45.78
228.812	29.06
229.031	46.68
229.25	22.32
229.469	45.19
229.688	46.21
229.907	51.09
230.125	49.43
230.344	49.43
230.563	54.7
230.782	67.24
231.001	33.39
231.22	44.38
231.438	58.72
231.657	40.16
231.876	33.04
232.095	48.35
232.313	42.64
232.532	37
232.751	34.06
232.969	26.34
233.188	29.21
233.407	30.21
233.625	26.81
233.844	20.05
234.063	11.63
234.281	43.75
234.5	43.22
234.719	49.14
234.937	53.13
235.156	75.84
235.374	57.98
235.593	78.05
235.811	89.49
236.03	97
236.249	69.04
236.467	95.24
236.686	66.72
236.904	61.01
237.123	12.88
237.341	40.01
237.559	11.37
237.778	3.24
237.996	-20.67
238.215	16.02
238.433	11.35
238.652	37.72
238.87	11.57
239.088	41.1
239.307	25.82
239.525	22.5
239.743	-26.81
239.962	-2.86
240.18	-36.25
240.398	-51.49
240.617	-75.61
240.835	-25.37
241.053	-43.58
241.271	-2.28
241.49	26.35
241.708	41.54
241.926	41.86
242.144	35.48
242.363	20.35
242.581	11.94
242.799	25.08
243.017	8.19
243.235	-8.11
243.453	-2.88
243.672	-2.01
243.89	1
244.108	3.51
244.326	21.11
244.544	17.51
244.762	10.13
244.98	6.74
245.198	14.35
245.416	0.97
245.634	17.27
245.852	16.77
246.07	33.48
246.288	45.21
246.506	43.91
246.724	51.11
246.942	56.37
247.16	50.07
247.378	56.2
247.596	66.13
247.814	53.2
248.032	16.5
248.25	16.18
248.468	17.68
248.685	30.68
248.903	38.66
249.121	61.23
249.339	39.6
249.557	28.22
249.775	11.78
249.992	-37
250.21	-54.53
250.428	-15.88
250.646	-21.68
250.863	-18.77
251.081	8.22
251.299	33.92
251.517	24.24
251.734	25.7
251.952	17.48
252.17	27.22
252.387	36.77
252.605	18.41
252.823	14.89
253.04	31.9
253.258	30.34
253.475	26.12
253.693	49.21
253.911	69.21
254.128	60.96
254.346	57.88
254.563	47.11
254.781	32.11
254.998	18.8
255.216	15.95
255.433	19.86
255.651	41.98
255.868	56.19
256.086	66.65
256.303	69.3
256.521	60.67
256.738	39.97
256.956	22.13
257.173	33.64
257.39	19.42
257.608	22.27
257.825	30.22
258.043	49.16
258.26	38.12
258.477	45.39
258.695	59.2
258.912	37.04
259.129	31.96
259.346	8.62
259.564	3.15
259.781	2.73
259.998	3.69
260.216	22.76
260.433	43.31
260.65	41.76
260.867	42.87
261.084	34.08
261.302	33.39
261.519	36.95
261.736	25.47
261.953	20.8
262.17	40.73
262.387	24.12
262.604	10.86
262.822	13.68
263.039	6.64
263.256	-6.84
263.473	1.6
263.69	-20.83
263.907	17.4
264.124	38.01
264.341	59.96
264.558	59.17
264.775	69.26
264.992	69.94
265.209	55.23
265.426	52.45
265.643	41.76
265.86	34.72
266.077	37.92
266.294	25.97
266.51	19.87
266.727	21.91
266.944	38.96
267.161	22.29
267.378	33.15
267.595	34.01
267.812	10.89
268.028	9
268.245	15
268.462	8.7
268.679	7.13
268.896	34.89
269.112	25.73
269.329	15.42
269.546	23.54
269.763	34.28
269.979	40.77
270.196	43.91
270.413	50.17
270.629	33.08
270.846	18.13
271.063	23.72
271.279	-1.21
271.496	-26.4
271.712	-18.47
271.929	-16.29
272.146	-17.68
272.362	-11.3
272.579	23.19
272.795	28.95
273.012	52.46
273.228	40.3
273.445	39.72
273.661	16.5
273.878	-46.96
274.094	-70.74
274.311	-82.01
274.527	-44.72
274.744	-38.21
274.96	23.47
275.177	42.95
275.393	41.05
275.609	47.72
275.826	59.24
276.042	63.47
276.259	67.97
276.475	64.86
276.691	61.34
276.908	53.05
277.124	70.41
277.34	56.06
277.557	54.09
277.773	37.75
277.989	36.39
278.205	34.63
278.422	35.27
278.638	57.04
278.854	70.08
279.07	64.6
279.286	30.36
279.503	20.23
279.719	14.19
279.935	5.85
280.151	-10.65
280.367	19.34
280.583	30.66
280.799	19.44
281.016	28.49
281.232	52.89
281.448	51.61
281.664	57.69
281.88	56.38
282.096	56.11
282.312	48.18
282.528	58.92
282.744	59.52
282.96	62.7
283.176	60.94
283.392	48.51
283.608	38.74
283.824	16.79
284.04	12.26
284.256	22.88
284.471	28.8
284.687	21.98
284.903	32.12
285.119	57.95
285.335	34.47
285.551	48.2
285.767	43.6
285.982	46.6
286.198	13.84
286.414	29.07
286.63	17.01
286.846	25.94
287.061	4.52
287.277	11.15
287.493	17.21
287.709	21.08
287.924	25.71
288.14	58.85
288.356	64.35
288.571	66.17
288.787	64.31
289.003	66.65
289.218	49.37
289.434	19.25
289.65	32.99
289.865	32.37
290.081	27.03
290.296	35.72
290.512	35.15
290.727	30.5
290.943	21.26
291.159	19.21
291.374	16.69
291.59	19.07
291.805	4.92
292.021	18.91
292.236	15.81
292.451	25.15
292.667	38.01
292.882	56.27
293.098	64.55
293.313	49.2
293.529	29.54
293.744	-3.53
293.959	-27.29
294.175	-26.71
294.39	4.8
294.605	11.39
294.821	36.3
295.036	39.73
295.251	49.8
295.467	32.83
295.682	35.32
295.897	12.31
296.112	5.62
296.328	-5.73
296.543	-6.58
296.758	-24.79
296.973	13.9
297.188	35.81
297.404	27.51
297.619	43.21
297.834	37.92
298.049	21.57
298.264	8.11
298.479	39.51
298.694	37.24
298.909	64.13
299.125	71.55
299.34	82.76
299.555	61.04
299.77	70.22
299.985	12.91
300.2	-2.97
300.415	-26.78
300.63	-9.1
300.845	-19.2
301.06	-1.26
301.275	10.93
301.49	8.9
301.704	10.76
301.919	-10.13
302.134	-12.08
302.349	25.62
302.564	21.85
302.779	20.54
302.994	53.06
303.209	64.38
303.423	46.25
303.638	62.63
303.853	46.83
304.068	29.57
304.283	6.94
304.497	5.42
304.712	17.14
304.927	27.94
305.142	18.75
305.356	22.61
305.571	41.52
305.786	31.01
306	21.11
306.215	38.22
306.43	24.86
306.644	30.66
306.859	43.38
307.074	34.42
307.288	17.48
307.503	27.88
307.717	1.78
307.932	-2.64
308.147	8.9
308.361	29.55
308.576	23.55
308.79	-11.09
309.005	0.51
309.219	9.4
309.434	11.91
309.648	2.71
309.863	49.21
310.077	44.59
310.292	46.58
310.506	48.39
310.72	76.5
310.935	65.02
311.149	55.92
311.364	60.16
311.578	71.02
311.792	64.05
312.007	66.39
312.221	48.97
312.435	38.96
312.649	26.27
312.864	57.55
313.078	36.71
313.292	79.13
313.507	67.37
313.721	60.94
313.935	33.95
314.149	75.83
314.363	44.44
314.578	33.12
314.792	16.56
315.006	23.65
315.22	-1.55
315.434	2.23
315.648	18.37
315.862	28.29
316.077	30.87
316.291	45.77
316.505	61.88
316.719	47.27
316.933	10.17
317.147	34.47
317.361	10.02
317.575	6.11
317.789	11.27
318.003	20.08
318.217	7.44
318.431	22.43
318.645	35.95
318.859	29.31
319.073	45.22
319.287	27.51
319.5	14.63
319.714	-3.69
319.928	-2.35
320.142	6.75
320.356	47.22
320.57	52.13
320.784	43.11
320.997	61.22
321.211	47.23
321.425	20.01
321.639	-14.66
321.853	9.17
322.066	-1.08
322.28	-0.81
322.494	13.91
322.707	61.75
322.921	45.12
323.135	41.42
323.349	41.11
323.562	26.06
323.776	8.11
323.989	4.45
324.203	-10.74
324.417	-4.15
324.63	-11.5
324.844	-25.1
325.057	-23.87
325.271	-24.02
325.485	-34.45
325.698	-3.83
325.912	26.44
326.125	20.56
326.339	43.14
326.552	63.43
326.766	78.06
326.979	73.02
327.193	88.21
327.406	66.04
327.619	55.88
327.833	44.55
328.046	31.16
328.26	22.4
328.473	30.65
328.686	16.42
328.9	32.91
329.113	44.45
329.326	45.9
329.54	63.76
329.753	74.41
329.966	71.03
330.179	91.01
330.393	81.22
330.606	52.28
330.819	63.53
331.032	59.21
331.246	38.24
331.459	43.19
331.672	47.8
331.885	22.51
332.098	2.87
332.311	9.98
332.525	-0.76
332.738	15.78
332.951	23.66
333.164	41.05
333.377	54.91
333.59	71.52
333.803	60.34
334.016	61.98
334.229	46.21
334.442	35.2
334.655	40.77
334.868	42.64
335.081	48.32
335.294	51.85
335.507	50.99
335.72	43.86
335.933	31.84
336.146	33.21
336.359	36.32
336.572	20.19
336.785	3.03
336.997	3.24
337.21	14.09
337.423	13.23
337.636	20.01
337.849	27.7
338.062	33.63
338.274	38.27
338.487	28.72
338.7	40.86
338.913	28.79
339.125	21.09
339.338	19.37
339.551	46.19
339.763	53.42
339.976	79.91
340.189	75.98
340.402	71.05
340.614	52.03
340.827	54.75
341.039	36.78
341.252	22.21
341.465	11.53
341.677	14.59
341.89	-44.09
342.102	-33.36
342.315	-15.26
342.527	-11.58
342.74	-13.23
342.952	34.27
343.165	32.36
343.377	50.14
343.59	40.87
343.802	55.6
344.015	69.28
344.227	81.83
344.44	64.37
344.652	64.73
344.864	71.73
345.077	60.23
345.289	44.41
345.502	49.37
345.714	42.43
345.926	30.52
346.139	11.8
346.351	11.07
346.563	7.51
346.775	26.73
346.988	22.42
347.2	29.35
347.412	22.45
347.624	17.62
347.837	9.99
348.049	34.62
348.261	50.98
348.473	46.19
348.685	30.7
348.897	14.09
349.11	3.24
349.322	2.08
349.534	33.95
349.746	48.91
349.958	58.39
350.17	50.55
350.382	51.03
350.594	35.66
350.806	32.13
351.018	27
351.23	28.85
351.442	17.43
351.654	25.56
351.866	33.73
352.078	45.91
352.29	47.21
352.502	58.95
352.714	53.77
352.926	47.13
353.138	44.26
353.35	33.02
353.561	29.78
353.773	25.72
353.985	36.96
354.197	29.09
354.409	30.72
354.621	29.96
354.832	35.39
355.044	22.81
355.256	18.61
355.468	16.21
355.679	10.81
355.891	5.3
356.103	0.81
356.314	-0.77
356.526	20.08
356.738	37.22
356.949	37.06
357.161	40.32
357.373	53.32
357.584	46.77
357.796	39.03
358.008	31.35
358.219	48.41
358.431	54.24
358.642	50.98
358.854	60.22
359.065	64.01
359.277	45.21
359.488	29.12
359.7	20.96
359.911	9.16
360.123	7.2
360.334	4.82
360.546	-2.27
360.757	-2.99
360.969	4.91
361.18	26
361.391	26
361.603	24.74
361.814	36.64
362.025	20.46
362.237	9.03
362.448	23.03
362.659	45.42
362.871	41.64
363.082	47.88
363.293	53.49
363.504	40.31
363.716	23.69
363.927	28.69
364.138	22.04
364.349	-4.78
364.56	-1.82
364.772	-16
364.983	-4.23
365.194	-12.67
365.405	2.75
365.616	8.28
365.827	20.74
366.038	14.26
366.25	30.48
366.461	17.35
366.672	28.88
366.883	40.88
367.094	36.58
367.305	27.22
367.516	43.17
367.727	30.42
367.938	17.85
368.149	2.16
368.36	11.49
368.571	3.49
368.781	-2.51
368.992	-5.83
369.203	23.21
369.414	18
369.625	15.11
369.836	17.43
370.047	8.21
370.258	-1.37
370.468	-4.13
370.679	-29.16
370.89	-17.05
371.101	4.61
371.312	-13.03
371.522	-1.21
371.733	21.47
371.944	25.54
372.155	44.59
372.365	26.66
372.576	25.35
372.787	21.25
372.997	15.82
373.208	4.51
373.419	26.27
373.629	6.79
373.84	9.23
374.05	-10
374.261	-1.11
374.472	-12.17
374.682	11.14
374.893	8.26
375.103	41.02
375.314	39.51
375.524	46.66
375.735	52.96
375.945	52.81
376.156	20.47
376.366	26.62
376.577	33.73
376.787	28.16
376.997	40.91
377.208	52.22
377.418	31.26
377.629	29.18
377.839	19.39
378.049	13.63
378.26	23.54
378.47	39.33
378.68	38.98
378.89	40.23
379.101	40.34
379.311	18.15
379.521	4.4
379.732	8.86
379.942	0.52
380.152	3.53
380.362	22.39
380.572	23.23
380.783	25.61
380.993	35.41
381.203	36.93
381.413	33.82
381.623	33.79
381.833	33.23
382.043	14.5
382.253	2.25
382.463	10.79
382.674	18.22
382.884	8.99
383.094	20.55
383.304	24.29
383.514	21.16
383.724	25.38
383.934	18.73
384.144	8.22
384.353	12.94
384.563	14.83
384.773	14.36
384.983	20.89
385.193	29.79
385.403	19.83
385.613	18.07
385.823	11.31
386.033	14.98
386.242	8.63
386.452	14.76
386.662	8.92
386.872	15.43
387.082	14.86
387.291	8.33
387.501	7.13
387.711	8.43
387.921	-4.96
388.13	-0.88
388.34	13.25
388.55	13.57
388.759	16.02
388.969	25.81
389.179	21.74
389.388	21.5
389.598	21.4
389.807	18.84
390.017	18.8
390.227	19.34
390.436	15.72
390.646	19.78
390.855	21.99
391.065	22.9
391.274	20.63
391.484	17.58
391.693	15.78
391.903	15.48
392.112	15.62
392.322	17.77
392.531	22.02
392.74	20.69
392.95	16.16
393.159	14.16
393.369	15.26
393.578	12.26
393.787	11.82
393.997	16.05
394.206	15.61
394.415	15.11
394.625	15.82
394.834	14.78
395.043	13.38
395.252	14.23
395.462	14.15
395.671	14.48
395.88	15.79
396.089	16.02
396.298	15.44
396.508	14.71
396.717	15.22
396.926	14.49
397.135	14.98
397.344	14.6
397.553	14.67
397.762	14.56
397.971	14.03
398.181	13.25
398.39	12.4
398.599	12.08
398.808	11.5
399.017	12.56
399.226	12.78
399.435	13.44
399.644	13.75
399.853	13.55
400.062	12.95
400.27	12.94
400.479	12.74
400.688	12.13
400.897	12.43
401.106	12.57
401.315	11.97
401.524	12.12
401.733	12.5
401.941	12.28
402.15	12.1
402.359	12.12
402.568	12.25
402.777	12.25
402.985	12.26
403.194	12.2
403.403	12.33
403.612	11.96
403.82	11.82
404.029	11.81
404.238	11.53
404.446	11.51
404.655	11.32
404.864	11.35
405.072	11.11
405.281	11.52
405.489	11.26
405.698	11.29
405.906	11.18
406.115	11.03
406.324	10.62
406.532	10.66
406.741	10.84
406.949	10.6
407.158	10.75
407.366	10.86
407.574	10.98
407.783	10.8
407.991	10.81
408.2	10.9
408.408	10.73
408.617	10.62
408.825	10.47
409.033	10.58
409.242	10.48
409.45	10.52
409.658	10.37
409.867	10.54
410.075	10.3
410.283	10.24
410.491	10.2
410.7	10.1
410.908	10.01
411.116	10.19
411.324	10.15
411.533	10.15
411.741	10.25
411.949	10.31
412.157	10.09
412.365	10.14
412.573	9.99
412.781	9.95
412.99	9.79
413.198	9.97
413.406	9.91
413.614	9.98
413.822	10.04
414.03	9.99
414.238	9.76
414.446	9.67
414.654	9.39
414.862	9.43
415.07	9.41
415.278	9.62
415.486	9.28
415.694	9.53
415.902	9.32
416.109	9.28
416.317	9.3
416.525	9.23
416.733	9.29
416.941	9.44
417.149	9.44
417.357	9.43
417.564	9.75
417.772	9.67
417.98	9.57
418.188	9.51
418.395	9.22
418.603	9.36
418.811	9.06
419.019	8.93
419.226	9.26
419.434	9.41
419.642	9.12
419.849	9.3
420.057	9.49
420.265	9.24
420.472	9.15
420.68	9.29
420.887	9.13
421.095	9.06
421.302	8.89
421.51	9
421.717	8.98
421.925	9.08
422.132	8.91
422.34	8.91
422.547	8.63
422.755	8.75
422.962	8.88
423.17	8.96
423.377	9.08
423.585	9.28
423.792	9.2
423.999	9.22
424.207	9.25
424.414	9.15
424.621	9.19
424.829	9.13
425.036	9.11
425.243	9
425.451	8.98
425.658	8.82
425.865	8.68
426.072	8.65
426.28	8.7
426.487	8.66
426.694	8.79
426.901	8.86
427.108	8.68
427.315	8.67
427.523	8.85
427.73	8.73
427.937	8.57
428.144	8.39
428.351	8.38
428.558	8.41
428.765	8.38
428.972	8.4
429.179	8.71
429.386	8.86
429.593	8.72
429.8	8.52
430.007	8.78
430.214	8.66
430.421	8.5
430.628	8.4
430.835	8.36
431.042	8.48
431.249	8.55
431.456	8.85
431.662	9.12
431.869	9.33
432.076	9.14
432.283	9.05
432.49	8.69
432.697	8.6
432.903	8.33
433.11	8.2
433.317	8.38
433.524	8.57
433.73	8.41
433.937	8.78
434.144	8.84
434.35	8.85
434.557	8.7
434.764	8.68
434.97	8.51
435.177	8.64
435.384	8.41
435.59	8.63
435.797	8.76
436.003	9
436.21	8.93
436.416	8.92
436.623	8.77
436.829	8.78
437.036	8.71
437.242	8.72
437.449	8.8
437.655	8.8
437.862	8.84
438.068	8.79
438.275	8.8
438.481	8.92
438.687	8.85
438.894	8.79
439.1	8.74
439.307	8.75
439.513	8.62
439.719	8.75
439.926	8.76
440.132	8.76
440.338	8.68
440.544	8.86
440.751	8.7
440.957	8.76
441.163	8.48
441.369	8.5
441.575	8.35
441.782	8.35
441.988	8.21
442.194	8.53
442.4	8.5
442.606	8.6
442.812	8.69
443.018	8.69
443.224	8.66
443.431	8.75
443.637	8.71
443.843	8.61
444.049	8.7
444.255	8.66
444.461	8.61
444.667	8.47
444.873	8.6
445.079	8.7
445.284	8.77
445.49	8.71
445.696	8.64
445.902	8.67
446.108	8.64
446.314	8.51
446.52	8.69
446.726	8.99
446.931	8.9
447.137	8.89
447.343	9.05
447.549	8.87
447.755	8.72
447.96	8.77
448.166	8.71
448.372	8.77
448.578	8.85
448.783	8.83
448.989	8.96
449.195	9.08
449.4	9
449.606	8.99
449.812	8.99
450.017	8.98
450.223	8.91
450.428	8.76
450.634	8.9
450.84	9.03
451.045	8.95
451.251	8.87
451.456	9.09
451.662	9.05
451.867	9
452.073	8.97
452.278	9.12
452.483	9.19
452.689	9.24
452.894	9.35
453.1	9.45
453.305	9.24
453.51	9.12
453.716	8.95
453.921	8.97
454.127	8.93
454.332	9.01
454.537	9
454.742	9.16
454.948	9.29
455.153	9.19
455.358	9.32
455.563	9.4
455.769	9.34
455.974	9.12
456.179	9.2
456.384	9.14
456.589	9.13
456.795	9.02
457	9.02
457.205	9.21
457.41	9.19
457.615	9.25
457.82	9.39
458.025	9.5
458.23	9.31
458.435	9.53
458.64	9.38
458.845	9.46
459.05	9.41
459.255	9.35
459.46	9.2
459.665	9.25
459.87	9.28
460.075	9.1
460.28	9.25
460.485	9.37
460.69	9.41
460.895	9.19
461.099	9.28
461.304	9.43
461.509	9.42
461.714	9.38
461.919	9.66
462.123	9.72
462.328	9.7
462.533	9.56
462.738	9.69
462.942	9.51
463.147	9.68
463.352	9.66
463.556	9.6
463.761	9.61
463.966	9.77
464.17	9.8
464.375	9.78
464.58	9.81
464.784	9.84
464.989	9.74
465.193	9.66
465.398	9.61
465.602	9.94
465.807	9.86
466.011	10.06
466.216	10.14
466.42	10.24
466.625	10.24
466.829	10.37
467.034	10.43
467.238	10.56
467.443	10.56
467.647	10.26
467.851	10.29
468.056	10.24
468.26	10.06
468.464	9.99
468.669	10.34
468.873	10.38
469.077	10.42
469.282	10.47
469.486	10.67
469.69	10.53
469.894	10.57
470.099	10.58
470.303	10.61
470.507	10.53
470.711	10.53
470.915	10.41
471.119	10.43
471.324	10.44
471.528	10.4
471.732	10.51
471.936	10.6
472.14	10.67
472.344	10.8
472.548	10.89
472.752	10.89
472.956	11
473.16	10.86
473.364	10.73
473.568	10.84
473.772	10.85
473.976	10.96
474.18	10.97
474.384	11
474.588	10.82
474.792	10.69
474.995	10.52
475.199	10.66
475.403	10.76
475.607	10.87
475.811	10.96
476.015	11.04
476.218	11.06
476.422	11.04
476.626	11.17
476.83	11.35
477.033	11.28
477.237	11.13
477.441	11.15
477.644	11.04
477.848	10.95
478.052	10.9
478.255	11.03
478.459	11.08
478.663	11.32
478.866	11.35
479.07	11.51
479.273	11.67
479.477	11.72
479.681	11.53
479.884	11.51
480.088	11.45
480.291	11.41
480.495	11.31
480.698	11.38
480.901	11.56
481.105	11.66
481.308	11.61
481.512	11.61
481.715	11.71
481.919	11.69
482.122	11.7
482.325	11.75
482.529	11.89
482.732	11.86
482.935	11.7
483.138	11.72
483.342	11.8
483.545	11.87
483.748	11.86
483.952	11.93
484.155	12.05
484.358	12.04
484.561	12
484.764	12.1
484.967	12.19
485.171	12.18
485.374	12.08
485.577	12.16
485.78	12.09
485.983	12.06
486.186	12.03
486.389	12.09
486.592	12.06
486.795	12.15
486.998	12.13
487.201	12.15
487.404	12.24
487.607	12.32
487.81	12.31
488.013	12.43
488.216	12.51
488.419	12.55
488.622	12.41
488.825	12.44
489.028	12.43
489.231	12.42
489.433	12.36
489.636	12.4
489.839	12.33
490.042	12.28
490.245	12.21
490.447	12.25
490.65	12.37
490.853	12.5
491.056	12.57
491.258	12.66
491.461	12.69
491.664	12.66
491.866	12.53
492.069	12.63
492.272	12.65
492.474	12.68
492.677	12.75
492.879	12.96
493.082	12.97
493.285	13.09
493.487	13.06
493.69	13.07
493.892	12.87
494.095	12.84
494.297	12.81
494.5	13.01
494.702	13.08
494.905	13.27
495.107	13.4
495.309	13.46
495.512	13.46
495.714	13.51
495.917	13.65
496.119	13.64
496.321	13.74
496.524	13.81
496.726	13.87
496.928	13.85
497.13	13.92
497.333	13.93
497.535	14.02
497.737	13.94
497.939	13.96
498.142	14.09
498.344	14.09
498.546	14
498.748	14.16
498.95	14.17
499.152	14.09
499.355	14.25
499.557	14.32
499.759	14.38
499.961	14.46
500.163	14.51
500.365	14.46
500.567	14.48
500.769	14.45
500.971	14.54
501.173	14.53
501.375	14.62
501.577	14.63
501.779	14.7
501.981	14.72
502.183	14.82
502.385	14.84
502.587	14.91
502.788	15.04
502.99	15.15
503.192	15.25
503.394	15.32
503.596	15.41
503.798	15.51
503.999	15.52
504.201	15.56
504.403	15.67
504.605	15.81
504.806	15.79
505.008	15.82
505.21	15.92
505.411	15.96
505.613	15.85
505.815	15.91
506.016	16.03
506.218	16.06
506.42	15.98
506.621	16.04
506.823	16.17
507.024	16.18
507.226	16.22
507.427	16.25
507.629	16.45
507.83	16.4
508.032	16.43
508.233	16.57
508.435	16.77
508.636	16.82
508.838	16.81
509.039	16.9
509.24	16.94
509.442	16.97
509.643	16.92
509.845	17.07
510.046	17.15
510.247	17.16
510.448	17.15
510.65	17.25
510.851	17.42
511.052	17.4
511.254	17.42
511.455	17.57
511.656	17.6
511.857	17.52
512.058	17.54
512.26	17.62
512.461	17.6
512.662	17.65
512.863	17.64
513.064	17.72
513.265	17.72
513.466	17.8
513.667	17.84
513.868	18.03
514.069	18.09
514.27	18.2
514.471	18.19
514.672	18.23
514.873	18.17
515.074	18.23
515.275	18.19
515.476	18.33
515.677	18.35
515.878	18.48
516.079	18.42
516.28	18.55
516.481	18.59
516.682	18.74
516.882	18.71
517.083	18.87
517.284	18.74
517.485	18.64
517.686	18.61
517.886	18.59
518.087	18.64
518.288	18.8
518.488	18.92
518.689	18.96
518.89	18.99
519.091	18.93
519.291	18.87
519.492	18.84
519.692	18.86
519.893	18.99
520.094	19.08
520.294	19.13
520.495	19.17
520.695	19.23
520.896	19.24
521.096	19.28
521.297	19.4
521.497	19.55
521.698	19.54
521.898	19.49
522.099	19.53
522.299	19.54
522.499	19.49
522.7	19.57
522.9	19.58
523.101	19.65
523.301	19.65
523.501	19.62
523.702	19.62
523.902	19.77
524.102	19.79
524.302	19.88
524.503	20.01
524.703	20.03
524.903	19.99
525.103	19.97
525.304	19.91
525.504	19.99
525.704	19.94
525.904	19.97
526.104	19.96
526.304	20.07
526.504	20.02
526.705	20.11
526.905	20.2
527.105	20.29
527.305	20.28
527.505	20.24
527.705	20.25
527.905	20.17
528.105	20.18
528.305	20.1
528.505	20.19
528.705	20.27
528.905	20.35
529.105	20.33
529.304	20.48
529.504	20.52
529.704	20.51
529.904	20.51
530.104	20.63
530.304	20.69
530.503	20.69
530.703	20.69
530.903	20.73
531.103	20.75
531.303	20.6
531.502	20.7
531.702	20.76
531.902	20.82
532.101	20.8
532.301	20.88
532.501	20.87
532.7	20.94
532.9	20.9
533.1	20.94
533.299	20.92
533.499	20.95
533.698	20.87
533.898	20.93
534.097	20.95
534.297	21.12
534.496	21.13
534.696	21.28
534.895	21.37
535.095	21.41
535.294	21.34
535.494	21.29
535.693	21.27
535.892	21.3
536.092	21.27
536.291	21.32
536.491	21.37
536.69	21.46
536.889	21.33
537.088	21.37
537.288	21.49
537.487	21.63
537.686	21.62
537.886	21.79
538.085	21.82
538.284	21.81
538.483	21.81
538.682	21.93
538.882	22
539.081	22.14
539.28	22.15
539.479	22.22
539.678	22.14
539.877	22.13
540.076	22.09
540.275	22.21
540.474	22.25
540.673	22.28
540.872	22.3
541.071	22.39
541.27	22.35
541.469	22.36
541.668	22.49
541.867	22.53
542.066	22.59
542.265	22.68
542.464	22.69
542.663	22.79
542.862	23.02
543.06	23.07
543.259	23.08
543.458	23.21
543.657	23.12
543.856	23.09
544.054	23.09
544.253	23.11
544.452	23.03
544.651	23.13
544.849	23.07
545.048	23.14
545.247	23.17
545.445	23.32
545.644	23.41
545.843	23.46
546.041	23.52
546.24	23.65
546.438	23.66
546.637	23.74
546.836	23.87
547.034	23.94
547.233	24.01
547.431	24.13
547.63	24.21
547.828	24.23
548.027	24.35
548.225	24.35
548.423	24.48
548.622	24.54
548.82	24.57
549.019	24.6
549.217	24.77
549.415	24.75
549.614	24.74
549.812	24.82
550.01	24.83
550.209	24.88
550.407	25.08
550.605	25.24
550.803	25.35
551.002	25.4
551.2	25.46
551.398	25.51
551.596	25.51
551.794	25.61
551.993	25.88
552.191	25.91
552.389	25.95
552.587	26.1
552.785	26.2
552.983	26.23
553.181	26.41
553.379	26.59
553.577	26.65
553.775	26.8
553.973	26.78
554.171	26.88
554.369	26.82
554.567	26.86
554.765	26.93
554.963	27.04
555.161	27.05
555.359	27.21
555.557	27.36
555.755	27.48
555.952	27.63
556.15	27.71
556.348	27.87
556.546	28
556.744	27.94
556.941	28.03
557.139	28.16
557.337	28.14
557.535	28.22
557.732	28.4
557.93	28.51
558.128	28.67
558.325	28.8
558.523	28.81
558.721	28.92
558.918	28.93
559.116	28.9
559.313	28.88
559.511	29.07
559.708	29.1
559.906	29.27
560.104	29.42
560.301	29.7
560.498	29.76
560.696	29.84
560.893	29.96
561.091	30.1
561.288	30.25
561.486	30.36
561.683	30.56
561.88	30.7
562.078	30.75
562.275	30.69
562.473	30.81
562.67	30.87
562.867	30.9
563.064	31.06
563.262	31.15
563.459	31.32
563.656	31.48
563.853	31.56
564.051	31.59
564.248	31.83
564.445	31.88
564.642	31.87
564.839	31.95
565.036	32.21
565.234	32.35
565.431	32.34
565.628	32.46
565.825	32.57
566.022	32.49
566.219	32.46
566.416	32.54
566.613	32.55
566.81	32.68
567.007	32.71
567.204	32.72
567.401	32.74
567.598	32.86
567.795	32.85
567.991	32.94
568.188	33.14
568.385	33.24
568.582	33.34
568.779	33.38
568.976	33.57
569.172	33.61
569.369	33.64
569.566	33.67
569.763	33.8
569.96	33.8
570.156	33.72
570.353	33.81
570.55	33.8
570.746	33.96
570.943	33.95
571.14	34.03
571.336	34.07
571.533	34.21
571.729	34.07
571.926	34.08
572.123	34.07
572.319	34.1
572.516	34.06
572.712	34.13
572.909	34.23
573.105	34.36
573.302	34.46
573.498	34.51
573.695	34.42
573.891	34.45
574.087	34.4
574.284	34.22
574.48	34.15
574.677	34.25
574.873	34.24
575.069	34.28
575.266	34.41
575.462	34.37
575.658	34.42
575.854	34.48
576.051	34.47
576.247	34.43
576.443	34.47
576.639	34.48
576.835	34.24
577.032	34.1
577.228	34.04
577.424	34.1
577.62	33.9
577.816	33.95
578.012	34.09
578.208	34.18
578.404	34.17
578.6	34.29
578.796	34.37
578.993	34.24
579.189	34.18
579.384	34.11
579.58	33.96
579.776	33.92
579.972	33.85
580.168	33.86
580.364	33.82
580.56	33.9
580.756	33.78
580.952	33.71
581.148	33.56
581.343	33.68
581.539	33.52
581.735	33.52
581.931	33.66
582.127	33.73
582.322	33.49
582.518	33.66
582.714	33.69
582.909	33.61
583.105	33.54
583.301	33.54
583.496	33.44
583.692	33.23
583.888	33.07
584.083	32.97
584.279	33.08
584.474	32.98
584.67	33.1
584.866	33.15
585.061	33.14
585.257	33.03
585.452	32.97
585.648	32.89
585.843	32.98
586.039	33.02
586.234	32.97
586.429	33.04
586.625	33.11
586.82	32.92
587.015	32.88
587.211	32.8
587.406	32.75
587.601	32.6
587.797	32.65
587.992	32.6
588.187	32.7
588.383	32.81
588.578	32.88
588.773	32.84
588.968	32.9
589.163	32.79
589.359	32.55
589.554	32.47
589.749	32.58
589.944	32.5
590.139	32.53
590.334	32.52
590.529	32.56
590.724	32.55
590.919	32.59
591.114	32.54
591.309	32.73
591.504	32.79
591.699	32.69
591.894	32.61
592.089	32.56
592.284	32.47
592.479	32.43
592.674	32.42
592.869	32.52
593.064	32.65
593.259	32.76
593.454	32.72
593.648	32.75
593.843	32.8
594.038	32.81
594.233	32.66
594.428	32.76
594.622	32.85
594.817	32.79
595.012	32.82
595.206	32.9
595.401	33.07
595.596	33.04
595.79	33.06
595.985	33.09
596.18	33.2
596.374	33.08
596.569	33.18
596.763	33.24
596.958	33.23
597.153	33.24
597.347	33.19
597.542	33.32
597.736	33.31
597.931	33.33
598.125	33.41
598.319	33.56
598.514	33.4
598.708	33.47
598.903	33.53
599.097	33.44
599.291	33.36
599.486	33.3
599.68	33.25
599.874	33.29
600.069	33.34
600.263	33.26
600.457	33.32
600.651	33.37
600.846	33.17
601.04	33.17
601.234	33.09
601.428	33.17
601.622	33.13
601.817	33.2
602.011	33.06
602.205	33.26
602.399	33.06
602.593	32.97
602.787	32.96
602.981	33.1
603.175	32.98
603.369	32.93
603.563	33.02
603.757	33.02
603.951	32.93
604.145	32.85
604.339	32.87
604.533	32.65
604.727	32.53
604.921	32.51
605.115	32.46
605.309	32.43
605.502	32.45
605.696	32.35
605.89	32.14
606.084	32.09
606.278	32
606.471	31.93
606.665	31.84
606.859	31.79
607.053	31.66
607.246	31.62
607.44	31.51
607.634	31.48
607.827	31.44
608.021	31.34
608.214	31.18
608.408	31.15
608.602	31.02
608.795	30.9
608.989	30.92
609.182	30.79
609.376	30.74
609.569	30.76
609.763	30.53
609.956	30.46
610.15	30.44
610.343	30.28
610.537	30.07
610.73	30.14
610.923	29.83
611.117	29.65
611.31	29.51
611.504	29.43
611.697	29.29
611.89	29.27
612.083	29.23
612.277	29.12
612.47	28.97
612.663	28.82
612.856	28.62
613.05	28.51
613.243	28.38
613.436	28.21
613.629	28.13
613.822	28.21
614.015	28.01
614.209	27.91
614.402	27.89
614.595	27.77
614.788	27.63
614.981	27.63
615.174	27.5
615.367	27.38
615.56	27.32
615.753	27.17
615.946	27.03
616.139	27.1
616.332	27.13
616.525	27.04
616.718	27.04
616.911	27.01
617.103	26.91
617.296	26.76
617.489	26.63
617.682	26.54
617.875	26.5
618.067	26.48
618.26	26.34
618.453	26.39
618.646	26.35
618.838	26.28
619.031	26.16
619.224	26.18
619.417	26.01
619.609	25.99
619.802	25.94
619.994	25.84
620.187	25.83
620.38	25.77
620.572	25.59
620.765	25.6
620.957	25.52
621.15	25.27
621.342	25.2
621.535	25.29
621.727	25.18
621.92	25.22
622.112	25.3
622.305	25.34
622.497	25.09
622.69	24.92
622.882	24.72
623.074	24.6
623.267	24.45
623.459	24.47
623.651	24.45
623.844	24.46
624.036	24.54
624.228	24.54
624.42	24.48
624.613	24.61
624.805	24.54
624.997	24.36
625.189	24.32
625.381	24.38
625.574	24.2
625.766	24.16
625.958	24.29
626.15	24.27
626.342	24.15
626.534	24.19
626.726	24.17
626.918	24.09
627.11	24
627.302	23.96
627.494	23.82
627.686	23.79
627.878	23.75
628.07	23.69
628.262	23.6
628.454	23.62
628.646	23.54
628.838	23.48
629.029	23.46
629.221	23.44
629.413	23.31
629.605	23.28
629.797	23.14
629.989	23.15
630.18	23.15
630.372	23.16
630.564	23.14
630.755	23.18
630.947	23.18
631.139	23.11
631.33	23.04
631.522	23.11
631.714	23.08
631.905	22.97
632.097	22.96
632.289	22.99
632.48	22.9
632.672	22.83
632.863	22.72
633.055	22.69
633.246	22.67
633.438	22.64
633.629	22.6
633.821	22.61
634.012	22.65
634.203	22.49
634.395	22.46
634.586	22.53
634.777	22.49
634.969	22.34
635.16	22.42
635.351	22.39
635.543	22.25
635.734	22.19
635.925	22.22
636.117	22.23
636.308	22.19
636.499	22.18
636.69	22.19
636.881	22.18
637.073	22.19
637.264	22.17
637.455	22.15
637.646	22.28
637.837	22.3
638.028	22.22
638.219	22.31
638.41	22.3
638.601	22.25
638.792	22.3
638.983	22.21
639.174	22.02
639.365	22.09
639.556	22
639.747	21.92
639.938	22.04
640.129	22.2
640.32	22.05
640.511	22.02
640.701	21.95
640.892	21.83
641.083	21.76
641.274	21.82
641.465	21.92
641.655	21.91
641.846	21.94
642.037	21.86
642.228	21.86
642.418	21.88
642.609	21.77
642.8	21.76
642.99	21.68
643.181	21.64
643.372	21.59
643.562	21.63
643.753	21.56
643.943	21.57
644.134	21.51
644.324	21.49
644.515	21.47
644.705	21.48
644.896	21.55
645.086	21.58
645.277	21.44
645.467	21.45
645.658	21.32
645.848	21.27
646.038	21.29
646.229	21.28
646.419	21.24
646.61	21.2
646.8	21.12
646.99	21.1
647.18	21.1
647.371	21.1
647.561	21.09
647.751	21.03
647.941	20.96
648.132	20.9
648.322	20.9
648.512	21.03
648.702	20.98
648.892	20.97
649.082	20.93
649.272	20.79
649.462	20.53
649.653	20.5
649.843	20.41
650.033	20.41
650.223	20.37
650.413	20.46
650.603	20.49
650.793	20.46
650.983	20.36
651.172	20.33
651.362	20.29
651.552	20.17
651.742	19.96
651.932	19.84
652.122	19.8
652.312	19.64
652.502	19.53
652.691	19.59
652.881	19.57
653.071	19.46
653.261	19.28
653.45	19.09
653.64	19.05
653.83	19
654.019	18.97
654.209	19.12
654.399	19.28
654.588	19.08
654.778	18.9
654.968	18.67
655.157	18.52
655.347	18.28
655.536	18.14
655.726	18.05
655.915	17.89
656.105	17.71
656.294	17.53
656.484	17.25
656.673	17.13
656.863	17.07
657.052	16.82
657.241	16.67
657.431	16.55
657.62	16.29
657.809	16.05
657.999	15.86
658.188	15.6
658.377	15.52
658.567	15.43
658.756	15.28
658.945	15.09
659.134	15.02
659.324	14.82
659.513	14.68
659.702	14.43
659.891	14.41
660.08	14.25
660.269	14.06
660.458	13.96
660.648	14.06
660.837	13.97
661.026	13.84
661.215	13.8
661.404	13.49
661.593	13.35
661.782	12.96
661.971	12.86
662.16	12.76
662.349	12.69
662.538	12.45
662.726	12.66
662.915	12.58
663.104	12.36
663.293	12.33
663.482	12.36
663.671	12.15
663.86	11.98
664.048	11.86
664.237	11.74
664.426	11.44
664.615	11.42
664.803	11.4
664.992	11.5
665.181	11.46
665.369	11.4
665.558	11.22
665.747	11.08
665.935	10.98
666.124	10.97
666.312	11.09
666.501	11.1
666.69	10.96
666.878	10.89
667.067	10.75
667.255	10.74
667.444	10.86
667.632	11.03
667.82	11.09
668.009	11.13
668.197	11.01
668.386	10.88
668.574	10.89
668.762	10.89
668.951	10.86
669.139	10.91
669.327	10.85
669.516	10.79
669.704	10.78
669.892	10.79
670.08	10.84
670.269	10.81
670.457	10.75
670.645	10.68
670.833	10.87
671.021	10.83
671.21	10.99
671.398	11.19
671.586	11.21
671.774	11.07
671.962	11.09
672.15	10.94
672.338	10.9
672.526	11.05
672.714	11.01
672.902	11.04
673.09	11.26
673.278	11.46
673.466	11.44
673.654	11.78
673.842	11.81
674.03	11.92
674.218	11.86
674.405	11.97
674.593	11.95
674.781	12.14
674.969	12.06
675.157	12.26
675.344	12.23
675.532	12.15
675.72	12.24
675.908	12.51
676.095	12.42
676.283	12.73
676.471	13.04
676.658	13.18
676.846	13.22
677.033	13.39
677.221	13.38
677.409	13.34
677.596	13.35
677.784	13.53
677.971	13.63
678.159	13.75
678.346	13.98
678.534	14.1
678.721	14.36
678.909	14.47
679.096	14.65
679.283	14.81
679.471	15.01
679.658	15.05
679.846	15.42
680.033	15.61
680.22	15.78
680.408	15.96
680.595	15.96
680.782	15.9
680.969	16.02
681.157	15.94
681.344	15.98
681.531	16.2
681.718	16.3
681.905	16.53
682.093	16.77
682.28	17.14
682.467	17.33
682.654	17.61
682.841	17.69
683.028	18.07
683.215	18.18
683.402	18.22
683.589	18.52
683.776	18.73
683.963	18.79
684.15	19.07
684.337	19.42
684.524	19.53
684.711	19.82
684.898	20.02
685.085	20.17
685.271	20.59
685.458	21.16
685.645	21.37
685.832	21.9
686.019	22.25
686.205	22.55
686.392	22.75
686.579	23.21
686.766	23.49
686.952	23.89
687.139	24.21
687.326	24.25
687.512	24.72
687.699	25.06
687.886	25.39
688.072	25.77
688.259	26.68
688.445	27.05
688.632	27.17
688.818	27.7
689.005	28.07
689.191	28.21
689.378	28.7
689.564	29.58
689.751	29.95
689.937	30.65
690.124	31.14
690.31	31.65
690.496	32
690.683	32.77
690.869	33.33
691.055	34.03
691.242	34.63
691.428	35.38
691.614	35.92
691.8	36.48
691.987	36.84
692.173	37.47
692.359	38.12
692.545	38.65
692.731	38.91
692.918	39.66
693.104	40.07
693.29	40.58
693.476	41.15
693.662	41.98
693.848	42.51
694.034	43.04
694.22	43.5
694.406	44.28
694.592	44.88
694.778	45.37
694.964	45.82
695.15	46.24
695.336	46.51
695.522	47.18
695.708	47.9
695.894	48.63
696.08	49.3
696.265	49.86
696.451	50.27
696.637	50.97
696.823	51.39
697.009	52.25
697.194	52.75
697.38	53.3
697.566	53.52
697.751	53.95
697.937	54.38
698.123	55.19
698.308	55.95
698.494	56.52
698.68	57.45
698.865	57.65
699.051	58.05
699.236	58.36
699.422	58.95
699.607	58.93
699.793	59.55
699.978	59.69
700.164	59.9
700.349	60.59
700.535	61.37
700.72	61.62
700.906	62.49
701.091	63.05
701.276	63.08
701.462	63.72
701.647	64.54
701.832	64.68
702.018	65.23
702.203	65.72
702.388	66.13
702.573	66.42
702.759	67.19
702.944	67.47
703.129	67.86
703.314	67.83
703.499	68.39
703.684	69.12
703.87	69.53
704.055	70.11
704.24	70.7
704.425	70.89
704.61	70.46
704.795	70.67
704.98	70.55
705.165	70.7
705.35	70.84
705.535	71.03
705.72	71.71
705.905	72.38
706.09	73.15
706.275	73.36
706.459	73.57
706.644	73.63
706.829	73.9
707.014	73.6
707.199	73.99
707.384	74.67
707.568	74.74
707.753	75.46
707.938	76.08
708.123	76.14
708.307	75.98
708.492	76.21
708.677	75.32
708.861	74.89
709.046	74.71
709.231	75.46
709.415	75.49
709.6	76.06
709.784	76.28
709.969	77.03
710.153	76.62
710.338	77.08
710.522	76.84
710.707	77.56
710.891	77.57
711.076	78.35
711.26	77.99
711.445	78.67
711.629	78.93
711.813	79.31
711.998	79.21
712.182	79.39
712.366	79.7
712.551	79.9
712.735	79.52
712.919	79.66
713.103	80.22
713.288	79.99
713.472	79.73
713.656	80.49
713.84	80.82
714.024	81.27
714.208	81.53
714.393	81.89
714.577	82.11
714.761	81.83
714.945	81.71
715.129	81.69
715.313	81.88
715.497	81.5
715.681	81.84
715.865	81.92
716.049	82.27
716.233	82.22
716.417	82.63
716.601	82.99
716.785	83.09
716.968	83.56
717.152	83.87
717.336	83.77
717.52	83.26
717.704	83.94
717.888	84.32
718.071	84.06
718.255	84.34
718.439	84.57
718.622	84.47
718.806	84.11
718.99	83.81
719.174	83.95
719.357	84.5
719.541	83.94
719.724	84
719.908	85.28
720.092	85.68
720.275	85.66
720.459	86.98
720.642	86.94
720.826	86.22
721.009	85.6
721.193	84.67
721.376	83.75
721.559	84.57
721.743	85.3
721.926	85.47
722.11	85.86
722.293	85.76
722.476	84.02
722.66	83.88
722.843	84.26
723.026	84.77
723.21	85.05
723.393	87.01
723.576	86.87
723.759	86.26
723.942	86.64
724.126	86.67
724.309	86.05
724.492	86.35
724.675	86.84
724.858	86.85
725.041	87.53
725.224	87.8
725.407	87.66
725.59	87.88
725.774	87.73
725.957	87.13
726.14	86.71
726.322	86.98
726.505	86.72
726.688	87.7
726.871	87.49
727.054	88.23
727.237	88.23
727.42	88.99
727.603	88.69
727.786	89.05
727.968	89.61
728.151	89.01
728.334	88.47
728.517	87.92
728.699	88.15
728.882	87.41
729.065	88.28
729.248	89.37
729.43	90
729.613	90.9
729.796	90.85
729.978	89.4
730.161	88.43
730.343	88.78
730.526	88.78
730.708	88.75
730.891	90.14
731.073	90.37
731.256	89.8
731.438	89.83
731.621	90.19
731.803	90.9
731.986	92.06
732.168	92.32
732.35	92.66
732.533	92.82
732.715	92.28
732.898	91.95
733.08	91.49
733.262	91.19
733.444	90.89
733.627	90.45
733.809	90.63
733.991	91.54
734.173	91.49
734.355	92.03
734.538	92.77
734.72	91.87
734.902	91.74
735.084	91.3
735.266	91.55
735.448	91.42
735.63	91.85
735.812	91.89
735.994	92.38
736.176	92.08
736.358	91.97
736.54	92.75
736.722	92.78
736.904	92.58
737.086	91.87
737.268	93.41
737.45	93.86
737.632	93.35
737.814	92.59
737.995	93.41
738.177	92.38
738.359	91.44
738.541	92.17
738.723	93.42
738.904	93.78
739.086	93.57
739.268	93.14
739.449	92.7
739.631	92.25
739.813	92.25
739.994	92.72
740.176	93.23
740.358	93.19
740.539	94.2
740.721	93.52
740.902	94.38
741.084	94.98
741.265	95.99
741.447	96.03
741.628	95.61
741.81	93.96
741.991	94.41
742.172	93.78
742.354	93.79
742.535	95.08
742.717	97.18
742.898	95.7
743.079	97.18
743.261	96.23
743.442	96.05
743.623	94.47
743.804	95.6
743.986	95.35
744.167	94.66
744.348	95.29
744.529	95.84
744.71	94.94
744.891	94.98
745.073	95.44
745.254	95.01
745.435	95.42
745.616	94.59
745.797	93.69
745.978	93.94
746.159	93.15
746.34	92.6
746.521	93.46
746.702	93.04
746.883	93.63
747.064	92.1
747.245	91.75
747.426	92.2
747.606	92.94
747.787	91.97
747.968	92.8
748.149	93.75
748.33	93.48
748.51	91.54
748.691	90.81
748.872	93.11
749.053	92.59
749.233	92.83
749.414	94.23
749.595	95.34
749.775	93.41
749.956	91.74
750.137	90.83
750.317	91.42
750.498	93.06
750.678	92.32
750.859	93.88
751.04	95.31
751.22	95.11
751.4	92
751.581	92.65
751.761	92.32
751.942	92.53
752.122	92.7
752.303	93.35
752.483	94.01
752.663	94.78
752.844	95.35
753.024	95.97
753.204	96.67
753.385	95.58
753.565	92.59
753.745	92.58
753.925	91.85
754.106	92.73
754.286	94.6
754.466	95.82
754.646	94.48
754.826	94.24
755.006	92.34
755.187	92.6
755.367	93.9
755.547	93.73
755.727	94.28
755.907	94.09
756.087	94.3
756.267	93.8
756.447	94.33
756.627	93.55
756.807	95.36
756.987	94.58
757.167	95.56
757.346	94.56
757.526	92.9
757.706	93
757.886	92.44
758.066	92.31
758.246	94.73
758.425	96.84
758.605	95.66
758.785	95.47
758.965	94.14
759.144	91.52
759.324	90.85
759.504	91.57
759.683	90.89
759.863	89.38
760.043	89.89
760.222	90.23
760.402	88.61
760.581	89.74
760.761	91.84
760.94	88.79
761.12	86.5
761.299	88.92
761.479	88.76
761.658	87.55
761.838	89.8
762.017	91.64
762.197	90.38
762.376	90.19
762.555	91.3
762.735	92.69
762.914	90.86
763.093	92.9
763.273	90.88
763.452	91.59
763.631	90.14
763.81	89.06
763.99	86.75
764.169	88.59
764.348	85.33
764.527	86.02
764.706	89.35
764.885	90.41
765.064	88.87
765.243	89.45
765.423	88.95
765.602	89.77
765.781	86.94
765.96	85.72
766.139	86.44
766.318	86.5
766.497	85.2
766.676	86.89
766.854	89.91
767.033	90.55
767.212	90.58
767.391	88.65
767.57	89.41
767.749	90.56
767.928	91.17
768.106	89.1
768.285	88.9
768.464	89.29
768.643	87.32
768.821	86.23
769	88.48
769.179	88.73
769.357	84.64
769.536	83.44
769.715	86.22
769.893	85.44
770.072	85.98
770.25	85.41
770.429	86.04
770.607	83.11
770.786	82.49
770.964	83.77
771.143	88.06
771.321	89.98
771.5	90.95
771.678	90.69
771.857	88.12
772.035	89.22
772.213	86.01
772.392	82.79
772.57	86.16
772.748	89.11
772.927	85.09
773.105	85.61
773.283	89.35
773.461	88.79
773.64	86.14
773.818	84.44
773.996	86.58
774.174	85.93
774.352	81.15
774.531	81.95
774.709	86.8
774.887	83.85
775.065	81.27
775.243	83.01
775.421	84.4
775.599	85.52
775.777	85.97
775.955	84.1
776.133	83.36
776.311	80.32
776.489	75.28
776.667	76.52
776.844	80.88
777.022	79.39
777.2	80.68
777.378	81.35
777.556	82.37
777.734	82.28
777.911	84.9
778.089	84.41
778.267	86.92
778.445	82.19
778.622	80.57
778.8	80.37
778.978	80.93
779.155	79.34
779.333	81.86
779.511	78.75
779.688	78.63
779.866	73.67
780.043	71.86
780.221	70.8
780.398	71.16
780.576	72.92
780.753	80.02
780.931	80.94
781.108	82.51
781.286	86.26
781.463	79.98
781.64	79.12
781.818	82.21
781.995	82.91
782.172	80.83
782.35	87.14
782.527	86.44
782.704	82.2
782.882	83.08
783.059	84.31
783.236	84.12
783.413	86.21
783.59	88.61
783.768	82.4
783.945	82.5
784.122	83.64
784.299	81
784.476	79.51
784.653	84.45
784.83	81.15
785.007	72.91
785.184	72.69
785.361	73.18
785.538	73.2
785.715	77.15
785.892	80.11
786.069	81.76
786.246	82.75
786.423	81.01
786.6	80.04
786.776	84.42
786.953	83.36
787.13	83.71
787.307	85.46
787.484	86.66
787.66	83.35
787.837	78.65
788.014	80.19
788.191	77.49
788.367	74.39
788.544	77.04
788.721	79.9
788.897	78.85
789.074	85.2
789.25	85.48
789.427	86.37
789.603	84.53
789.78	86.74
789.956	75.79
790.133	76.88
790.309	74.05
790.486	78.71
790.662	73.73
790.839	78.02
791.015	81.05
791.192	77.09
791.368	76.34
791.544	72.93
791.721	78.02
791.897	73.63
792.073	77.29
792.249	75.36
792.426	80.96
792.602	79.32
792.778	77.15
792.954	74.64
793.13	72.75
793.307	70.23
793.483	62.07
793.659	63.84
793.835	64.46
794.011	67.44
794.187	62.13
794.363	60.96
794.539	65.43
794.715	62.92
794.891	60.98
795.067	64.8
795.243	76.42
795.419	73.63
795.595	79.38
795.771	80.75
795.947	85.29
796.122	72.38
796.298	74.51
796.474	73.13
796.65	73.01
796.826	68.77
797.001	76.64
797.177	68.59
797.353	70.24
797.529	72.02
797.704	72.58
797.88	71.91
798.056	72.46
798.231	68.5
798.407	69.12
798.582	69.43
798.758	70.05
798.934	77.72
799.109	76.67
799.285	67.41
799.46	75.36
799.636	79.37
799.811	79.73
799.986	83.38
800.162	97.34
800.337	87.09
800.513	78.89
800.688	73.16
800.863	77.59
801.039	64.25
801.214	63.14
801.389	71.05
801.565	76.71
801.74	70.47
801.915	76.78
802.09	83.51
802.265	84.8
802.441	81.99
802.616	82.05
802.791	80.78
802.966	77.04
803.141	69.94
803.316	57.67
803.491	57.72
803.666	62.5
803.841	61.72
804.016	62.08
804.191	73.97
804.366	74.6
804.541	73.09
804.716	64.55
804.891	63.12
805.066	63.29
805.241	66.61
805.416	64.93
805.591	68.39
805.765	70.15
805.94	75.31
806.115	71.19
806.29	64.66
806.464	74.81
806.639	70.02
806.814	54.31
806.989	45.65
807.163	58.38
807.338	49.79
807.512	56.84
807.687	52.12
807.862	59.34
808.036	56.26
808.211	57.27
808.385	61.2
808.56	76.26
808.734	71.78
808.909	71.81
809.083	70.04
809.258	65.99
809.432	64.14
809.606	52.22
809.781	55.75
809.955	67.15
810.13	71.72
810.304	61.81
810.478	73.7
810.652	77.52
810.827	77.36
811.001	72.69
811.175	73.01
811.349	78.53
811.524	68
811.698	55.1
811.872	53.7
812.046	61.22
812.22	55.25
812.394	50.01
812.568	50.97
812.742	56.71
812.916	48.32
813.09	52.2
813.264	61.01
813.438	65.16
813.612	66.63
813.786	58.87
813.96	68.63
814.134	73.9
814.308	78.67
814.482	76.34
814.656	93.36
814.83	94.5
815.003	83.01
815.177	78.71
815.351	76.04
815.525	77.02
815.698	72.01
815.872	61.5
816.046	52.67
816.219	51.58
816.393	56.13
816.567	54.36
816.74	60.66
816.914	69.33
817.088	72.08
817.261	66.78
817.435	61.99
817.608	54.88
817.782	53.39
817.955	54.36
818.129	37.06
818.302	41.41
818.475	66.02
818.649	65.51
818.822	43.33
818.996	65.35
819.169	64.26
819.342	52.1
819.516	52.94
819.689	80.25
819.862	70.46
820.035	64.38
820.209	45.75
820.382	55.67
820.555	51.37
820.728	43.12
820.901	49.34
821.075	72
821.248	86.73
821.421	79.71
821.594	78.95
821.767	93.69
821.94	106.38
822.113	63.28
822.286	55.8
822.459	63.83
822.632	62.81
822.805	49.71
822.978	63.47
823.151	73.15
823.324	54.12
823.496	14.54
823.669	22.33
823.842	24.99
824.015	12.39
824.188	1.6
824.361	13.53
824.533	2.47
824.706	15.24
824.879	24.7
825.051	70.87
825.224	72.13
825.397	73.25
825.569	51.51
825.742	53.12
825.915	49.93
826.087	47.65
826.26	39.59
826.432	49.8
826.605	55.01
826.777	62.16
826.95	50.21
827.122	49.44
827.295	48.92
827.467	39.81
827.64	8.2
827.812	14.68
827.984	26.03
828.157	17.49
828.329	14.12
828.501	28.37
828.674	38.16
828.846	24.37
829.018	32.11
829.19	29.88
829.363	46.66
829.535	45.56
829.707	65.51
829.879	53.62
830.051	52.8
830.223	50.43
830.395	20.5
830.568	7.95
830.74	20.8
830.912	46.66
831.084	23.65
831.256	34.89
831.428	16.98
831.6	6
831.772	-26.35
831.943	-22.43
832.115	-2.35
832.287	34.37
832.459	37.23
832.631	46.85
832.803	68.66
832.975	62.62
833.146	53.85
833.318	48.52
833.49	54.27
833.662	42.26
833.833	31.15
834.005	24.09
834.177	52.19
834.348	37.29
834.52	26.5
834.692	31.23
834.863	31.21
835.035	3.78
835.206	4.5
835.378	24.62
835.549	7.48
835.721	21.13
835.892	1.15
836.064	10.22
836.235	5.08
836.407	54.4
836.578	36.24
836.749	59.36
836.921	48.22
837.092	31.31
837.264	-27.9
837.435	-42.62
837.606	-41.74
837.777	-21.49
837.949	2.6
838.12	18.47
838.291	37.39
838.462	40.22
838.633	37.32
838.805	14.37
838.976	20.98
839.147	24.18
839.318	-4.46
839.489	-29.3
839.66	-8.36
839.831	11.31
840.002	1.63
840.173	-1.86
840.344	13.68
840.515	22.87
840.686	-14.1
840.857	-37.63
841.028	-29.83
841.199	-11.73
841.369	-27.4
841.54	-22.55
841.711	21.38
841.882	35.24
842.053	11.59
842.223	-13.4
842.394	-2.96
842.565	-16.27
842.736	-12.95
842.906	-7.03
843.077	24.22
843.248	48.63
843.418	42.39
843.589	32.44
843.759	53.08
843.93	56.25
844.101	45.26
844.271	59.4
844.442	72.68
844.612	81.22
844.783	58.43
844.953	44.46
845.123	52.59
845.294	47.84
845.464	24.71
845.635	24.06
845.805	60.51
845.975	52.01
846.146	21.91
846.316	1.45
846.486	29.12
846.656	7.81
846.827	-16.13
846.997	-11.29
847.167	30.32
847.337	-5.93
847.507	-6.4
847.677	3.01
847.848	35.64
848.018	40.98
848.188	65.82
848.358	53.05
848.528	59.09
848.698	51.05
848.868	18.43
849.038	-2.48
849.208	24.37
849.378	46.95
849.548	-1.53
849.718	24.78
849.887	64.49
850.057	-0.38
850.227	-30.14
850.397	0.9
850.567	-11.58
850.737	18.45
850.906	-8.81
851.076	-43.3
851.246	-61.63
851.415	-37.36
851.585	-46.08
851.755	-31.77
851.924	10.34
852.094	23.61
852.264	15.13
852.433	-19.91
852.603	-2.52
852.772	-10.54
852.942	-22.5
853.111	-57.01
853.281	3.58
853.45	32.21
853.62	-4.41
853.789	-43.44
853.959	19.89
854.128	-7.29
854.297	-60.75
854.467	-53.67
854.636	-21.08
854.805	-24.63
854.975	-30.76
855.144	-10.61
855.313	42.84
855.482	55.33
855.652	36.31
855.821	37.53
855.99	84.97
856.159	61.84
856.328	42.57
856.497	31.79
856.667	50.18
856.836	4.12
857.005	-36.54
857.174	-83.89
857.343	-64.26
857.512	-26.2
857.681	-76.62
857.85	-52.02
858.019	-35.13
858.188	-44.45
858.356	-82.76
858.525	-74.54
858.694	-66.37
858.863	-55.16
859.032	-64.32
859.201	-72.67
859.369	-37.45
859.538	-7.46
859.707	-13.4
859.876	10.71
860.044	37.17
860.213	41.27
860.382	-1.43
860.55	-0.06
860.719	28.31
860.888	49.09
861.056	-41.53
861.225	-58.47
861.393	-5.56
861.562	30.61
861.73	7.7
861.899	44.91
862.067	37.1
862.236	26.89
862.404	-25.29
862.572	-54.89
862.741	-25.64
862.909	-31.83
863.078	-38.42
863.246	-41.55
863.414	-2.83
863.582	-14.61
863.751	11.18
863.919	-17.96
864.087	30.36
864.255	18.44
864.424	-18.28
864.592	-8.6
864.76	34.95
864.928	-39.44
865.096	-27.96
865.264	-26.28
865.432	-32.68
865.6	-46.31
865.768	-41.81
865.936	-112.17
866.104	-73.9
866.272	-90.54
866.44	-100
866.608	-93.32
866.776	-128.71
866.944	-238.36
867.112	-300.3
867.28	-467.27
867.448	-740.88
867.615	-267.36
867.783	-24.6
867.951	-54.61
868.119	18.84
868.286	-2.01
868.454	-18.38
868.622	-65.05
868.789	-66.12
868.957	-47.51
869.125	-64.21
869.292	-53.84
869.46	-26.71
869.627	14.96
869.795	-27.91
869.963	12.81
870.13	33.19
870.298	36.18
870.465	-24.98
870.632	-30.72
870.8	-89.18
870.967	-75.17
871.135	-165.03
871.302	-85.82
871.469	5.97
871.637	22.12
871.804	9.06
871.971	18
872.139	19.28
872.306	32.56
872.473	16.19
872.64	-20.09
872.807	34.2
872.975	54.1
873.142	-9.25
873.309	14.05
873.476	92.04
873.643	79.1
873.81	62.41
873.977	51.36
874.144	55.3
874.311	39.21
874.478	-52.56
874.645	-115.25
874.812	-378.44
874.979	17957.14
875.146	-437.69
875.313	-95.68
875.48	-10.56
875.647	-15.2
875.813	-57.06
875.98	-77.76
876.147	-127.77
876.314	-113.4
876.481	-147.82
876.647	-203.51
876.814	-105.21
876.981	-100
877.147	-158.6
877.314	-144.23
877.481	-11.61
877.647	32.93
877.814	59.1
877.98	-22.58
878.147	27.52
878.314	37.27
878.48	-104.91
878.647	-92.59
878.813	19.97
878.979	38.67
879.146	10.36
879.312	66.79
879.479	76.04
879.645	71.23
879.811	-19.36
879.978	-24.14
880.144	-36.92
880.31	-80.69
880.477	-176.56
880.643	-148.72
880.809	-100.34
880.975	-55.93
881.142	-84.57
881.308	-54.57
881.474	-4.15
881.64	11.25
881.806	-38.37
881.972	-1.76
882.138	4.65
882.304	5.37
882.47	-84.22
882.636	-159.27
882.802	-205.78
882.968	-93.21
883.134	-170.85
883.3	-164.13
883.466	44.39
883.632	77.73
883.798	-20.14
883.964	-33.56
884.129	-43.41
884.295	-92.9
884.461	-85.66
884.627	-116.05
884.793	-69.7
884.958	-8.44
885.124	-51.23
885.29	-65.66
885.455	-19.21
885.621	2.83
885.787	-160.88
885.952	-55.88
886.118	-67.49
886.283	-44.15
886.449	-110.77
886.614	-89.16
886.78	-107.83
886.945	-111.09
887.111	-243.18
887.276	-225.5
887.442	-382.35
887.607	-290.11
887.773	-372.76
887.938	-225.11
888.103	-128.73
888.269	-46.04
888.434	10.89
888.599	11.31
888.764	57.18
888.93	58.54
889.095	30.48
889.26	-8.99
889.425	62.68
889.59	112.94
889.756	83.08
889.921	58.71
890.086	56.94
890.251	16.29
890.416	-94.22
890.581	-89
890.746	-63.11
890.911	-26.24
891.076	-59.92
891.241	-76.37
891.406	-86.28
891.571	-11.61
891.736	-22.96
891.901	-36.13
892.065	25.91
892.23	21.31
892.395	-71.06
892.56	-123.13
892.725	-24.17
892.889	-26.46
893.054	-129.36
893.219	-132.43
893.384	-119.86
893.548	-178.2
893.713	-237.91
893.878	-184.03
