Data from Ofra_PP_Phys_8HS23B_Reflection_3.txt Node
Date: Sat Jul 24 20:08:25 EDT 2021
User: USUARIO
Spectrometer: FLMT01687
Trigger mode: 0
Integration Time (sec): 1.100000E0
Scans to average: 2
Electric dark correction enabled: true
Nonlinearity correction enabled: false
Boxcar width: 2
XAxis mode: Wavelengths
Number of Pixels in Spectrum: 3648
>>>>>Begin Spectral Data<<<<<
179.494	647.74
179.716	813.16
179.937	1409.64
180.158	1159.79
180.38	533.7
180.601	-477.72
180.823	80.72
181.044	-283.72
181.265	2.15
181.486	4.24
181.708	-49.78
181.929	-1176
182.15	537.35
182.372	-35.4
182.593	17000
182.814	193.85
183.035	112.57
183.257	91.89
183.478	9.36
183.699	58.26
183.92	-12.84
184.141	0.95
184.363	-51.32
184.584	52.73
184.805	31.99
185.026	68.76
185.247	85.77
185.468	58.42
185.689	36.63
185.91	30.3
186.132	8.51
186.353	1.81
186.574	53.34
186.795	62.13
187.016	27.11
187.237	51.02
187.458	58.29
187.679	54.12
187.9	65.52
188.121	108.7
188.342	90.43
188.563	90.05
188.784	109.21
189.005	99.54
189.226	90.64
189.447	85.62
189.667	80.06
189.888	32.81
190.109	14.93
190.33	-10.62
190.551	-41.01
190.772	-52.77
190.993	-52.1
191.214	-36.86
191.434	-23.91
191.655	34.71
191.876	16.18
192.097	14.63
192.318	22.59
192.538	-0.46
192.759	-17.24
192.98	-12.84
193.201	0.8
193.421	-49.21
193.642	-12.7
193.863	-9.43
194.083	-8.46
194.304	-1.02
194.525	32.52
194.745	15.7
194.966	-22.36
195.187	-30.84
195.407	-61.2
195.628	-131.42
195.848	-98.88
196.069	-117.57
196.29	-89.44
196.51	-163.98
196.731	-141.19
196.951	-89.02
197.172	-61.55
197.392	-57.62
197.613	-5.38
197.833	-14.04
198.054	-59.9
198.274	-32.36
198.495	-86.35
198.715	-64.13
198.936	-69.7
199.156	-39.44
199.377	-62.94
199.597	-48.7
199.817	-55.03
200.038	-5.79
200.258	23.81
200.479	65.86
200.699	69.04
200.919	74.42
201.14	15.97
201.36	-6.78
201.58	-7.98
201.801	6.02
202.021	-33.35
202.241	18.51
202.461	12.68
202.682	-26.68
202.902	-29.7
203.122	-20.52
203.342	-24.05
203.563	-6
203.783	1.46
204.003	-79.44
204.223	-187.45
204.443	-49.95
204.663	-45.84
204.884	-27.33
205.104	34.99
205.324	85.16
205.544	40
205.764	37.48
205.984	69.25
206.204	88.6
206.424	106.99
206.644	105
206.864	100.06
207.084	68.19
207.304	73.16
207.525	12.28
207.745	16.73
207.964	-6.32
208.184	-8.42
208.404	-32
208.624	-24.28
208.844	2.68
209.064	-22.43
209.284	-33.18
209.504	-27.61
209.724	8.71
209.944	-20.67
210.164	18.95
210.384	56.75
210.604	77.36
210.823	7.54
211.043	-33.41
211.263	-26.42
211.483	-55.51
211.703	-84.71
211.922	-44.08
212.142	36.39
212.362	39.67
212.582	36.76
212.801	40.73
213.021	19.27
213.241	-1
213.461	-40.06
213.68	-59.47
213.9	-55.16
214.12	-58.18
214.339	-85.31
214.559	-69.34
214.779	-41.5
214.998	-19.6
215.218	-24.5
215.438	-11.36
215.657	-6.01
215.877	4.36
216.096	3.43
216.316	39.87
216.535	46.52
216.755	47.24
216.974	39.71
217.194	49.78
217.413	28.22
217.633	25.79
217.852	-43.82
218.072	-51.09
218.291	-66.09
218.511	-40.04
218.73	-108.06
218.95	-83.39
219.169	-84.83
219.389	-109.45
219.608	-129.96
219.827	-52.1
220.047	-26.42
220.266	-39.25
220.485	-38.03
220.705	-4.29
220.924	-45.44
221.143	-23.44
221.363	-56.56
221.582	-13.84
221.801	-21.06
222.021	12.8
222.24	12.67
222.459	58.08
222.678	50.53
222.897	33.96
223.117	22.02
223.336	28.23
223.555	37.32
223.774	66.67
223.993	84.15
224.213	149.58
224.432	98.29
224.651	109.36
224.87	74.5
225.089	93.5
225.308	58.1
225.527	70.92
225.746	58.15
225.965	38.28
226.184	10.92
226.404	36.36
226.623	23.6
226.842	27.41
227.061	63.1
227.28	75.56
227.499	83.97
227.718	109.38
227.936	104.96
228.155	96.71
228.374	40
228.593	7.53
228.812	-7.78
229.031	-6.25
229.25	-33.81
229.469	19.4
229.688	33.94
229.907	43.25
230.125	65.29
230.344	78.35
230.563	67.05
230.782	78.78
231.001	29.17
231.22	20.05
231.438	32.48
231.657	18.35
231.876	5.72
232.095	46.56
232.313	43.08
232.532	29.86
232.751	33.73
232.969	26.8
233.188	9.72
233.407	-1.01
233.625	-10.19
233.844	-19.3
234.063	-30.17
234.281	23.02
234.5	26.42
234.719	36.91
234.937	44.59
235.156	73.59
235.374	67.55
235.593	94.53
235.811	95.9
236.03	98.67
236.249	72.41
236.467	81.63
236.686	43.26
236.904	58.71
237.123	29.12
237.341	15.38
237.559	-9.08
237.778	-15.48
237.996	-50.73
238.215	-25.11
238.433	-21.67
238.652	-4.07
238.87	-46.57
239.088	-21.45
239.307	-2.53
239.525	-14.45
239.743	-47.41
239.962	-5.86
240.18	-34.92
240.398	-59.59
240.617	-54.7
240.835	-29.35
241.053	-40.35
241.271	14.4
241.49	21.03
241.708	14.32
241.926	27.47
242.144	35.96
242.363	15.63
242.581	17.43
242.799	42.61
243.017	27.51
243.235	-10.3
243.453	12.65
243.672	-23.03
243.89	-19.8
244.108	-9.68
244.326	29.82
244.544	17.32
244.762	17.15
244.98	21.72
245.198	45.5
245.416	1.6
245.634	9.88
245.852	38.39
246.07	33.21
246.288	18.01
246.506	21.38
246.724	27.07
246.942	18.09
247.16	22.16
247.378	28.23
247.596	37.17
247.814	38.57
248.032	2.05
248.25	2.14
248.468	-1.17
248.685	26.74
248.903	19.18
249.121	39.14
249.339	3.37
249.557	-13.23
249.775	-44.64
249.992	-86.12
250.21	-96.16
250.428	-46.27
250.646	-27.2
250.863	-32.53
251.081	-9.61
251.299	21.52
251.517	2.62
251.734	-14.29
251.952	-18.84
252.17	3.17
252.387	10.51
252.605	-4.24
252.823	7.63
253.04	39.65
253.258	41.59
253.475	34.02
253.693	65.64
253.911	88.27
254.128	70.43
254.346	76.3
254.563	57.94
254.781	36.5
254.998	2.9
255.216	-6.53
255.433	-25.21
255.651	1.01
255.868	19.48
256.086	31.06
256.303	31.43
256.521	34.2
256.738	30.06
256.956	1.79
257.173	7.17
257.39	0.28
257.608	2.5
257.825	2.56
258.043	28.45
258.26	28.03
258.477	37.2
258.695	39.52
258.912	13.64
259.129	-11.33
259.346	-44.69
259.564	-53.08
259.781	-38.11
259.998	-30.62
260.216	7.53
260.433	35.76
260.65	24.84
260.867	29.36
261.084	14.75
261.302	3.78
261.519	14.39
261.736	-3.07
261.953	-4.78
262.17	25.46
262.387	14.48
262.604	-13.25
262.822	-3.89
263.039	-19.22
263.256	-37.83
263.473	-37.22
263.69	-44.43
263.907	-4.44
264.124	14.97
264.341	50.24
264.558	49.81
264.775	55.66
264.992	65.43
265.209	59.57
265.426	41.17
265.643	45.82
265.86	50.22
266.077	47.82
266.294	38.31
266.51	30
266.727	17.46
266.944	32.02
267.161	6.9
267.378	23.54
267.595	24.91
267.812	8.55
268.028	-1.4
268.245	7.33
268.462	-26.35
268.679	-10.07
268.896	30.51
269.112	25.86
269.329	26.02
269.546	56.04
269.763	46.39
269.979	40.43
270.196	31.49
270.413	18.94
270.629	-13.32
270.846	-22.72
271.063	-11.23
271.279	-25.36
271.496	-49.15
271.712	-47.33
271.929	-33.73
272.146	-40.29
272.362	-14.85
272.579	43.65
272.795	57.62
273.012	82.9
273.228	80.44
273.445	45.7
273.661	3.53
273.878	-68.78
274.094	-76.24
274.311	-95.93
274.527	-41.51
274.744	-23.96
274.96	26.81
275.177	34.2
275.393	30.89
275.609	29.13
275.826	42.61
276.042	30.45
276.259	27.94
276.475	41.25
276.691	49.39
276.908	28.48
277.124	59.61
277.34	52.21
277.557	42.68
277.773	42.44
277.989	41.71
278.205	32.99
278.422	38.87
278.638	54.07
278.854	38.29
279.07	37.68
279.286	0.91
279.503	-25.44
279.719	-28.25
279.935	-43.47
280.151	-59.2
280.367	-9.96
280.583	5.33
280.799	-4.78
281.016	5.48
281.232	20.91
281.448	18.38
281.664	37.96
281.88	40.03
282.096	48.93
282.312	67.7
282.528	58.88
282.744	40.6
282.96	44.95
283.176	46.2
283.392	36.82
283.608	43.11
283.824	52.95
284.04	43.1
284.256	58.63
284.471	44.49
284.687	39.87
284.903	38.22
285.119	73.4
285.335	32.94
285.551	46.42
285.767	33.45
285.982	13.98
286.198	-20.39
286.414	7.01
286.63	6.26
286.846	32.63
287.061	11.81
287.277	21.59
287.493	28.22
287.709	31.6
287.924	23.92
288.14	73.51
288.356	75.83
288.571	73.87
288.787	70.36
289.003	74.64
289.218	36.41
289.434	5.04
289.65	21.42
289.865	15.93
290.081	4.99
290.296	15.92
290.512	11.25
290.727	8.07
290.943	1.01
291.159	-10.12
291.374	-11.79
291.59	-19.04
291.805	-29.03
292.021	-2.7
292.236	2.81
292.451	14.55
292.667	31.46
292.882	43.36
293.098	47.02
293.313	44.39
293.529	16.13
293.744	-19.22
293.959	-30.18
294.175	-40.82
294.39	-12.63
294.605	18.16
294.821	55.06
295.036	42.63
295.251	62.99
295.467	51.94
295.682	37.74
295.897	2.39
296.112	-1.39
296.328	-4.37
296.543	-17.61
296.758	-39.68
296.973	8.23
297.188	49.67
297.404	14.29
297.619	20.34
297.834	25.13
298.049	9.95
298.264	-12.78
298.479	10.18
298.694	11.06
298.909	30.44
299.125	44.14
299.34	44.52
299.555	33.48
299.77	50.71
299.985	-13.39
300.2	-42.06
300.415	-66.84
300.63	-43.39
300.845	-53.29
301.06	-41.74
301.275	-35.2
301.49	-5.74
301.704	-9.69
301.919	-27.77
302.134	-9.46
302.349	34.01
302.564	7.68
302.779	21.1
302.994	67.73
303.209	65.71
303.423	56.71
303.638	85.66
303.853	55.35
304.068	3.65
304.283	-0.87
304.497	-15.7
304.712	-23.27
304.927	-8.28
305.142	3.61
305.356	3.15
305.571	21.97
305.786	12.4
306	3.68
306.215	9.8
306.43	-4.28
306.644	2.92
306.859	23.99
307.074	35.47
307.288	13.21
307.503	25.43
307.717	-4.77
307.932	-4.06
308.147	-31.38
308.361	7.15
308.576	-3.33
308.79	-32.79
309.005	-21.64
309.219	-10.49
309.434	1.99
309.648	-18.46
309.863	17.31
310.077	4.37
310.292	20.54
310.506	-8.78
310.72	33.76
310.935	65.85
311.149	53.16
311.364	59.64
311.578	85.23
311.792	77.07
312.007	59.16
312.221	29.91
312.435	24.08
312.649	-16.19
312.864	39.76
313.078	27.64
313.292	80.25
313.507	72.76
313.721	66.41
313.935	43.69
314.149	69.81
314.363	50.48
314.578	33.08
314.792	25.43
315.006	23.88
315.22	7.91
315.434	13.86
315.648	28.28
315.862	24.25
316.077	22.67
316.291	32.79
316.505	26.94
316.719	41.91
316.933	19.61
317.147	27.3
317.361	-8.74
317.575	0.89
317.789	-21.54
318.003	-3.86
318.217	1.32
318.431	31.31
318.645	40.69
318.859	31.29
319.073	56.99
319.287	38.33
319.5	5.09
319.714	-34.29
319.928	-28.26
320.142	-46.66
320.356	6.4
320.57	33.26
320.784	36.11
320.997	45.56
321.211	41.62
321.425	-2.81
321.639	-39.73
321.853	-12.08
322.066	-20.13
322.28	-37.75
322.494	-17.16
322.707	34.83
322.921	13.38
323.135	15
323.349	31.51
323.562	6.14
323.776	-28.37
323.989	-16.88
324.203	-36.57
324.417	-42.33
324.63	-46.51
324.844	-47.75
325.057	-51
325.271	-47.02
325.485	-48.26
325.698	-4.88
325.912	17.71
326.125	5.05
326.339	24.03
326.552	26.22
326.766	30.69
326.979	29.85
327.193	57.39
327.406	46.06
327.619	53.76
327.833	46.45
328.046	29.34
328.26	13.14
328.473	14.55
328.686	-12.66
328.9	-7.13
329.113	-3.6
329.326	-22.26
329.54	-21.13
329.753	-0.65
329.966	0.1
330.179	33.24
330.393	56.33
330.606	52.65
330.819	54.9
331.032	54.32
331.246	50.55
331.459	58.15
331.672	44.56
331.885	26.87
332.098	8.93
332.311	9.23
332.525	-13.33
332.738	-5.97
332.951	13.89
333.164	21.64
333.377	27.09
333.59	39.48
333.803	38.16
334.016	17.35
334.229	16.27
334.442	11.13
334.655	24.8
334.868	44.07
335.081	51.55
335.294	42.03
335.507	41
335.72	38.59
335.933	13.26
336.146	23.14
336.359	34.74
336.572	14.54
336.785	-3
336.997	3.86
337.21	8.8
337.423	5.72
337.636	12.82
337.849	21.37
338.062	23.04
338.274	27.33
338.487	24.88
338.7	29.35
338.913	11.17
339.125	2.44
339.338	3.29
339.551	5.54
339.763	31.29
339.976	58
340.189	65.16
340.402	57.04
340.614	47.64
340.827	26.44
341.039	5.83
341.252	-11.71
341.465	-16.51
341.677	-24.8
341.89	-63.38
342.102	-53.27
342.315	-50.13
342.527	-50.79
342.74	-40.09
342.952	24.79
343.165	31.98
343.377	62.98
343.59	50.39
343.802	62.91
344.015	58.74
344.227	69.47
344.44	43.4
344.652	39.87
344.864	48.02
345.077	47.61
345.289	28.33
345.502	53.56
345.714	45.57
345.926	43.31
346.139	31.73
346.351	37.49
346.563	24.96
346.775	39.21
346.988	27.21
347.2	14.38
347.412	-5.24
347.624	-0.08
347.837	-2.1
348.049	13.41
348.261	39.86
348.473	38.36
348.685	11.27
348.897	9.45
349.11	-0.57
349.322	-3.83
349.534	26.22
349.746	39.47
349.958	43.58
350.17	40.64
350.382	44.06
350.594	29.55
350.806	31.22
351.018	23.36
351.23	22.65
351.442	7.72
351.654	17.88
351.866	12.81
352.078	18.53
352.29	16.29
352.502	42.85
352.714	35.96
352.926	37.06
353.138	38.85
353.35	26.71
353.561	12.01
353.773	-0.38
353.985	6.72
354.197	-5.09
354.409	0.05
354.621	9.5
354.832	15.78
355.044	-6.59
355.256	-1.39
355.468	-7.01
355.679	-22.34
355.891	-18.89
356.103	-6.88
356.314	-2.03
356.526	16.44
356.738	40.81
356.949	50.04
357.161	51.9
357.373	50.56
357.584	54.5
357.796	40.07
358.008	13.86
358.219	33.73
358.431	42.81
358.642	25.23
358.854	29.88
359.065	39.04
359.277	13.06
359.488	-0.62
359.7	-9.24
359.911	-21.24
360.123	-17
360.334	-26.11
360.546	-37.46
360.757	-29.07
360.969	-22.45
361.18	-11.18
361.391	-0.82
361.603	3.4
361.814	16.18
362.025	1.12
362.237	-8.32
362.448	8.91
362.659	35.02
362.871	31.43
363.082	45.11
363.293	52.44
363.504	43.79
363.716	19.71
363.927	31.23
364.138	11.66
364.349	-23.51
364.56	-25.07
364.772	-34.59
364.983	-20.02
365.194	-25.11
365.405	-5.85
365.616	-6.1
365.827	4.17
366.038	-24.42
366.25	5.32
366.461	-3.36
366.672	12.98
366.883	25.83
367.094	28.1
367.305	3.76
367.516	23.75
367.727	14.33
367.938	1.18
368.149	-9.94
368.36	9.07
368.571	2.24
368.781	-6.85
368.992	-18.49
369.203	8.64
369.414	-11.33
369.625	-15.69
369.836	-8
370.047	-9.73
370.258	-29.68
370.468	-23.83
370.679	-52.37
370.89	-46.04
371.101	-10.41
371.312	-24.75
371.522	-13.43
371.733	3.46
371.944	12
372.155	13.25
372.365	-8.06
372.576	-3.43
372.787	-3.15
372.997	-10.98
373.208	-16.71
373.419	21.54
373.629	3.22
373.84	10.94
374.05	-3.3
374.261	6.97
374.472	-25.1
374.682	2.71
374.893	-4.66
375.103	25.45
375.314	18.26
375.524	29.19
375.735	23.19
375.945	29.26
376.156	-2.66
376.366	0.9
376.577	15.59
376.787	15.58
376.997	21.49
377.208	37.66
377.418	17.82
377.629	19.45
377.839	9.19
378.049	15.05
378.26	25.99
378.47	43.19
378.68	43.9
378.89	44.12
379.101	29.85
379.311	4.94
379.521	-21.55
379.732	-26.69
379.942	-44.16
380.152	-27.18
380.362	-8.02
380.572	3.32
380.783	18.01
380.993	37.85
381.203	33.58
381.413	33.48
381.623	39.86
381.833	27.09
382.043	1.37
382.253	3.37
382.463	0.22
382.674	-1.85
382.884	-12.24
383.094	3.56
383.304	5.39
383.514	5.66
383.724	10.85
383.934	6.42
384.144	-4.12
384.353	-3.22
384.563	1.6
384.773	0.53
384.983	13.68
385.193	22.08
385.403	9.45
385.613	7.27
385.823	6.2
386.033	4.57
386.242	-0.67
386.452	11.83
386.662	5.85
386.872	10.4
387.082	14.7
387.291	4.92
387.501	7.45
387.711	13.8
387.921	-3.46
388.13	-2.7
388.34	14.12
388.55	11.43
388.759	8.26
388.969	19.41
389.179	15.52
389.388	12.41
389.598	10.37
389.807	10.59
390.017	11.25
390.227	10.91
390.436	6.83
390.646	11.73
390.855	14.42
391.065	14.54
391.274	10.3
391.484	9.35
391.693	8.97
391.903	8.2
392.112	9.05
392.322	15.58
392.531	19.17
392.74	17.24
392.95	13.38
393.159	11.33
393.369	11.61
393.578	8.86
393.787	8.15
393.997	11.44
394.206	11.41
394.415	11.35
394.625	12.36
394.834	11.56
395.043	10.26
395.252	11.89
395.462	12.05
395.671	13.31
395.88	15.11
396.089	16.34
396.298	15.6
396.508	15.16
396.717	14.59
396.926	13.98
397.135	13.75
397.344	13.24
397.553	13.77
397.762	14.39
397.971	14.13
398.181	13.78
398.39	12.53
398.599	11.76
398.808	11.27
399.017	11.97
399.226	12.11
399.435	13.42
399.644	13.44
399.853	13.02
400.062	12.44
400.27	12.77
400.479	12.52
400.688	12.14
400.897	12.74
401.106	12.71
401.315	11.95
401.524	11.88
401.733	12.29
401.941	12.5
402.15	12.69
402.359	12.93
402.568	13.14
402.777	13.1
402.985	12.56
403.194	12.48
403.403	12.34
403.612	12.01
403.82	12.05
404.029	12.21
404.238	11.88
404.446	11.97
404.655	11.86
404.864	11.73
405.072	11.61
405.281	11.85
405.489	11.59
405.698	11.52
405.906	11.38
406.115	11.23
406.324	11.01
406.532	11.16
406.741	11.43
406.949	11.17
407.158	11.15
407.366	11.28
407.574	11.29
407.783	11.08
407.991	11.22
408.2	11.36
408.408	11.19
408.617	11.03
408.825	10.93
409.033	10.99
409.242	10.99
409.45	10.99
409.658	10.9
409.867	11.05
410.075	10.86
410.283	10.57
410.491	10.54
410.7	10.34
410.908	10.32
411.116	10.38
411.324	10.52
411.533	10.49
411.741	10.79
411.949	10.76
412.157	10.58
412.365	10.57
412.573	10.48
412.781	10.47
412.99	10.31
413.198	10.58
413.406	10.56
413.614	10.72
413.822	10.67
414.03	10.63
414.238	10.3
414.446	10.29
414.654	9.91
414.862	9.83
415.07	9.96
415.278	10.17
415.486	9.83
415.694	10.06
415.902	9.96
416.109	9.69
416.317	9.69
416.525	9.53
416.733	9.56
416.941	9.58
417.149	9.67
417.357	9.65
417.564	9.9
417.772	9.66
417.98	9.68
418.188	9.69
418.395	9.59
418.603	9.74
418.811	9.74
419.019	9.54
419.226	9.75
419.434	9.84
419.642	9.59
419.849	9.68
420.057	9.94
420.265	9.86
420.472	9.64
420.68	9.89
420.887	9.77
421.095	9.83
421.302	9.73
421.51	9.75
421.717	9.83
421.925	9.99
422.132	9.72
422.34	9.43
422.547	9.37
422.755	9.19
422.962	9.18
423.17	9.23
423.377	9.56
423.585	9.68
423.792	9.61
423.999	9.49
424.207	9.51
424.414	9.23
424.621	9.36
424.829	9.27
425.036	9.3
425.243	9.21
425.451	9.32
425.658	9.13
425.865	9.17
426.072	9.11
426.28	9.24
426.487	9.08
426.694	9.08
426.901	9.13
427.108	9.21
427.315	9.14
427.523	9.44
427.73	9.41
427.937	9.03
428.144	8.88
428.351	8.9
428.558	8.81
428.765	8.66
428.972	8.93
429.179	9.09
429.386	9.24
429.593	9.13
429.8	9.04
430.007	9.14
430.214	9.25
430.421	9.02
430.628	9.01
430.835	9.01
431.042	9.19
431.249	9.04
431.456	9.36
431.662	9.62
431.869	9.9
432.076	9.82
432.283	9.9
432.49	9.61
432.697	9.33
432.903	9.07
433.11	8.99
433.317	9.06
433.524	9.2
433.73	9.19
433.937	9.53
434.144	9.5
434.35	9.42
434.557	9.3
434.764	9.38
434.97	9.25
435.177	9.37
435.384	9.1
435.59	9.23
435.797	9.37
436.003	9.33
436.21	9.28
436.416	9.39
436.623	9.33
436.829	9.28
437.036	9.29
437.242	9.17
437.449	9.18
437.655	9.1
437.862	9.1
438.068	9.23
438.275	9.34
438.481	9.41
438.687	9.43
438.894	9.42
439.1	9.35
439.307	9.4
439.513	9.44
439.719	9.54
439.926	9.53
440.132	9.56
440.338	9.47
440.544	9.53
440.751	9.46
440.957	9.51
441.163	9.24
441.369	9.28
441.575	9.11
441.782	8.98
441.988	8.82
442.194	8.96
442.4	8.92
442.606	9.06
442.812	9.27
443.018	9.36
443.224	9.44
443.431	9.54
443.637	9.48
443.843	9.25
444.049	9.24
444.255	9.26
444.461	9.15
444.667	8.92
444.873	9.04
445.079	9.11
445.284	9.04
445.49	8.86
445.696	8.91
445.902	8.94
446.108	8.87
446.314	8.82
446.52	9.14
446.726	9.45
446.931	9.33
447.137	9.37
447.343	9.49
447.549	9.13
447.755	9.02
447.96	9.14
448.166	9.05
448.372	9.11
448.578	9.25
448.783	9.21
448.989	9.36
449.195	9.55
449.4	9.43
449.606	9.48
449.812	9.43
450.017	9.37
450.223	9.3
450.428	9.2
450.634	9.31
450.84	9.35
451.045	9.15
451.251	8.99
451.456	9.25
451.662	9.27
451.867	9.33
452.073	9.35
452.278	9.47
452.483	9.51
452.689	9.41
452.894	9.52
453.1	9.62
453.305	9.51
453.51	9.37
453.716	9.36
453.921	9.28
454.127	9.29
454.332	9.3
454.537	9.27
454.742	9.29
454.948	9.26
455.153	9.1
455.358	9.17
455.563	9.35
455.769	9.43
455.974	9.44
456.179	9.61
456.384	9.53
456.589	9.49
456.795	9.23
457	9.18
457.205	9.2
457.41	9.23
457.615	9.16
457.82	9.34
458.025	9.41
458.23	9.26
458.435	9.43
458.64	9.28
458.845	9.25
459.05	9.21
459.255	9.16
459.46	9.05
459.665	9.14
459.87	9.26
460.075	9.19
460.28	9.34
460.485	9.46
460.69	9.52
460.895	9.29
461.099	9.23
461.304	9.36
461.509	9.47
461.714	9.34
461.919	9.49
462.123	9.5
462.328	9.46
462.533	9.01
462.738	9.12
462.942	8.93
463.147	9.19
463.352	9.28
463.556	9.4
463.761	9.44
463.966	9.71
464.17	9.66
464.375	9.39
464.58	9.39
464.784	9.3
464.989	9.09
465.193	9.07
465.398	9.15
465.602	9.47
465.807	9.51
466.011	9.64
466.216	9.65
466.42	9.73
466.625	9.57
466.829	9.71
467.034	9.8
467.238	9.88
467.443	9.86
467.647	9.65
467.851	9.57
468.056	9.5
468.26	9.41
468.464	9.36
468.669	9.55
468.873	9.63
469.077	9.65
469.282	9.64
469.486	9.73
469.69	9.75
469.894	9.75
470.099	9.89
470.303	9.94
470.507	9.77
470.711	9.72
470.915	9.59
471.119	9.46
471.324	9.43
471.528	9.48
471.732	9.53
471.936	9.53
472.14	9.64
472.344	9.66
472.548	9.73
472.752	9.74
472.956	9.85
473.16	9.68
473.364	9.57
473.568	9.68
473.772	9.66
473.976	9.66
474.18	9.68
474.384	9.71
474.588	9.51
474.792	9.45
474.995	9.38
475.199	9.43
475.403	9.51
475.607	9.6
475.811	9.58
476.015	9.63
476.218	9.59
476.422	9.55
476.626	9.56
476.83	9.76
477.033	9.68
477.237	9.59
477.441	9.59
477.644	9.54
477.848	9.44
478.052	9.33
478.255	9.33
478.459	9.34
478.663	9.51
478.866	9.53
479.07	9.65
479.273	9.87
479.477	9.93
479.681	9.78
479.884	9.76
480.088	9.68
480.291	9.54
480.495	9.46
480.698	9.49
480.901	9.56
481.105	9.67
481.308	9.7
481.512	9.62
481.715	9.6
481.919	9.62
482.122	9.53
482.325	9.51
482.529	9.63
482.732	9.68
482.935	9.5
483.138	9.55
483.342	9.6
483.545	9.71
483.748	9.76
483.952	9.86
484.155	9.98
484.358	10.02
484.561	9.88
484.764	9.83
484.967	9.85
485.171	9.87
485.374	9.7
485.577	9.79
485.78	9.82
485.983	9.8
486.186	9.65
486.389	9.7
486.592	9.67
486.795	9.76
486.998	9.78
487.201	9.86
487.404	9.98
487.607	10.09
487.81	10.01
488.013	9.98
488.216	10
488.419	9.97
488.622	9.75
488.825	9.7
489.028	9.68
489.231	9.6
489.433	9.49
489.636	9.46
489.839	9.35
490.042	9.34
490.245	9.29
490.447	9.38
490.65	9.38
490.853	9.57
491.056	9.6
491.258	9.65
491.461	9.66
491.664	9.82
491.866	9.6
492.069	9.64
492.272	9.72
492.474	9.68
492.677	9.65
492.879	9.91
493.082	9.94
493.285	10.07
493.487	9.98
493.69	9.88
493.892	9.65
494.095	9.6
494.297	9.45
494.5	9.67
494.702	9.77
494.905	9.95
495.107	10
495.309	10.06
495.512	9.96
495.714	9.98
495.917	9.98
496.119	9.96
496.321	9.98
496.524	10.08
496.726	10.1
496.928	10.13
497.13	10.08
497.333	10.08
497.535	10.11
497.737	10.04
497.939	9.96
498.142	10.1
498.344	10.05
498.546	9.91
498.748	10.01
498.95	10.11
499.152	10.06
499.355	10.17
499.557	10.31
499.759	10.32
499.961	10.28
500.163	10.28
500.365	10.25
500.567	10.19
500.769	10.11
500.971	10.18
501.173	10.08
501.375	10.08
501.577	10.01
501.779	10.06
501.981	10.07
502.183	10.14
502.385	10.06
502.587	10.03
502.788	10.13
502.99	10.12
503.192	10.18
503.394	10.19
503.596	10.27
503.798	10.32
503.999	10.34
504.201	10.31
504.403	10.38
504.605	10.43
504.806	10.29
505.008	10.22
505.21	10.29
505.411	10.33
505.613	10.26
505.815	10.42
506.016	10.59
506.218	10.6
506.42	10.52
506.621	10.54
506.823	10.48
507.024	10.39
507.226	10.34
507.427	10.29
507.629	10.46
507.83	10.5
508.032	10.48
508.233	10.6
508.435	10.75
508.636	10.77
508.838	10.66
509.039	10.63
509.24	10.63
509.442	10.62
509.643	10.46
509.845	10.6
510.046	10.67
510.247	10.63
510.448	10.62
510.65	10.67
510.851	10.71
511.052	10.77
511.254	10.71
511.455	10.85
511.656	10.9
511.857	10.93
512.058	10.91
512.26	11
512.461	10.91
512.662	11.01
512.863	10.82
513.064	10.77
513.265	10.82
513.466	10.88
513.667	10.81
513.868	10.98
514.069	11.12
514.27	11.14
514.471	11.08
514.672	11.12
514.873	11.12
515.074	11.14
515.275	11.12
515.476	11.26
515.677	11.28
515.878	11.36
516.079	11.2
516.28	11.24
516.481	11.27
516.682	11.33
516.882	11.27
517.083	11.51
517.284	11.41
517.485	11.34
517.686	11.32
517.886	11.35
518.087	11.34
518.288	11.5
518.488	11.51
518.689	11.52
518.89	11.45
519.091	11.4
519.291	11.36
519.492	11.39
519.692	11.48
519.893	11.68
520.094	11.7
520.294	11.68
520.495	11.64
520.695	11.61
520.896	11.53
521.096	11.63
521.297	11.67
521.497	11.8
521.698	11.69
521.898	11.61
522.099	11.57
522.299	11.67
522.499	11.65
522.7	11.77
522.9	11.8
523.101	11.88
523.301	11.84
523.501	11.83
523.702	11.81
523.902	11.91
524.102	11.96
524.302	11.93
524.503	11.96
524.703	12
524.903	12.02
525.103	11.92
525.304	11.96
525.504	12.07
525.704	12.06
525.904	11.99
526.104	12.01
526.304	12.07
526.504	11.98
526.705	12.01
526.905	12.12
527.105	12.2
527.305	12.21
527.505	12.22
527.705	12.21
527.905	12.22
528.105	12.17
528.305	12.05
528.505	12.13
528.705	12.26
528.905	12.15
529.105	12.14
529.304	12.28
529.504	12.28
529.704	12.25
529.904	12.36
530.104	12.49
530.304	12.57
530.503	12.52
530.703	12.47
530.903	12.48
531.103	12.49
531.303	12.33
531.502	12.44
531.702	12.53
531.902	12.57
532.101	12.51
532.301	12.53
532.501	12.56
532.7	12.56
532.9	12.45
533.1	12.54
533.299	12.58
533.499	12.61
533.698	12.52
533.898	12.6
534.097	12.53
534.297	12.6
534.496	12.54
534.696	12.68
534.895	12.82
535.095	12.87
535.294	12.86
535.494	12.84
535.693	12.81
535.892	12.82
536.092	12.84
536.291	12.85
536.491	12.84
536.69	12.97
536.889	12.83
537.088	12.82
537.288	12.94
537.487	13.1
537.686	13
537.886	13.15
538.085	13.2
538.284	13.2
538.483	13.14
538.682	13.26
538.882	13.24
539.081	13.3
539.28	13.25
539.479	13.24
539.678	13.22
539.877	13.32
540.076	13.33
540.275	13.43
540.474	13.5
540.673	13.56
540.872	13.53
541.071	13.57
541.27	13.6
541.469	13.68
541.668	13.68
541.867	13.65
542.066	13.71
542.265	13.76
542.464	13.71
542.663	13.88
542.862	14.08
543.06	14.17
543.259	14.18
543.458	14.29
543.657	14.18
543.856	14.16
544.054	14.11
544.253	14.07
544.452	14.01
544.651	14.02
544.849	13.98
545.048	14
545.247	14.05
545.445	14.18
545.644	14.24
545.843	14.26
546.041	14.3
546.24	14.47
546.438	14.49
546.637	14.51
546.836	14.68
547.034	14.77
547.233	14.77
547.431	14.8
547.63	14.94
547.828	14.87
548.027	14.92
548.225	14.88
548.423	14.96
548.622	15.04
548.82	15.07
549.019	15.13
549.217	15.29
549.415	15.33
549.614	15.37
549.812	15.45
550.01	15.4
550.209	15.48
550.407	15.52
550.605	15.6
550.803	15.72
551.002	15.8
551.2	15.75
551.398	15.92
551.596	15.96
551.794	16.02
551.993	16.22
552.191	16.31
552.389	16.3
552.587	16.35
552.785	16.36
552.983	16.34
553.181	16.54
553.379	16.64
553.577	16.56
553.775	16.68
553.973	16.68
554.171	16.71
554.369	16.68
554.567	16.85
554.765	16.84
554.963	16.98
555.161	16.96
555.359	17.19
555.557	17.33
555.755	17.51
555.952	17.69
556.15	17.77
556.348	17.79
556.546	17.88
556.744	17.86
556.941	17.83
557.139	17.96
557.337	18.04
557.535	18.04
557.732	18.17
557.93	18.35
558.128	18.42
558.325	18.47
558.523	18.52
558.721	18.7
558.918	18.72
559.116	18.75
559.313	18.75
559.511	18.89
559.708	18.82
559.906	18.88
560.104	19.04
560.301	19.28
560.498	19.4
560.696	19.54
560.893	19.69
561.091	19.74
561.288	19.8
561.486	19.94
561.683	20.04
561.88	20.1
562.078	20.28
562.275	20.28
562.473	20.35
562.67	20.51
562.867	20.59
563.064	20.72
563.262	20.82
563.459	20.92
563.656	20.99
563.853	21.09
564.051	20.97
564.248	21.12
564.445	21.22
564.642	21.39
564.839	21.49
565.036	21.79
565.234	21.99
565.431	21.97
565.628	21.89
565.825	22.02
566.022	22.11
566.219	22.08
566.416	22.21
566.613	22.38
566.81	22.48
567.007	22.35
567.204	22.37
567.401	22.39
567.598	22.44
567.795	22.36
567.991	22.42
568.188	22.55
568.385	22.67
568.582	22.78
568.779	22.89
568.976	23.09
569.172	23.21
569.369	23.21
569.566	23.2
569.763	23.26
569.96	23.25
570.156	23.25
570.353	23.27
570.55	23.28
570.746	23.37
570.943	23.32
571.14	23.32
571.336	23.41
571.533	23.48
571.729	23.48
571.926	23.53
572.123	23.55
572.319	23.56
572.516	23.55
572.712	23.55
572.909	23.67
573.105	23.8
573.302	23.85
573.498	23.93
573.695	23.94
573.891	23.94
574.087	23.89
574.284	23.76
574.48	23.62
574.677	23.62
574.873	23.59
575.069	23.68
575.266	23.86
575.462	24
575.658	24.08
575.854	24.15
576.051	24.07
576.247	23.97
576.443	23.97
576.639	23.98
576.835	23.97
577.032	23.95
577.228	24.04
577.424	24.02
577.62	23.85
577.816	23.8
578.012	23.76
578.208	23.65
578.404	23.72
578.6	23.82
578.796	23.83
578.993	23.82
579.189	23.81
579.384	23.72
579.58	23.66
579.776	23.69
579.972	23.58
580.168	23.56
580.364	23.51
580.56	23.55
580.756	23.47
580.952	23.46
581.148	23.46
581.343	23.48
581.539	23.49
581.735	23.49
581.931	23.67
582.127	23.68
582.322	23.58
582.518	23.66
582.714	23.66
582.909	23.46
583.105	23.4
583.301	23.37
583.496	23.24
583.692	23.1
583.888	23.16
584.083	23.16
584.279	23.18
584.474	23.17
584.67	23.23
584.866	23.21
585.061	23.17
585.257	23.29
585.452	23.14
585.648	22.98
585.843	23.1
586.039	22.95
586.234	22.86
586.429	22.89
586.625	23.1
586.82	22.93
587.015	23.01
587.211	22.89
587.406	23
587.601	22.8
587.797	22.69
587.992	22.67
588.187	22.77
588.383	22.67
588.578	22.76
588.773	22.87
588.968	22.88
589.163	22.81
589.359	22.7
589.554	22.59
589.749	22.73
589.944	22.75
590.139	22.73
590.334	22.77
590.529	22.92
590.724	22.88
590.919	22.87
591.114	22.93
591.309	23.12
591.504	23.1
591.699	22.86
591.894	22.84
592.089	22.75
592.284	22.66
592.479	22.63
592.674	22.68
592.869	22.71
593.064	22.81
593.259	22.87
593.454	22.92
593.648	23.03
593.843	23.15
594.038	23.15
594.233	23.09
594.428	23.09
594.622	23.03
594.817	22.97
595.012	23
595.206	23.05
595.401	23.1
595.596	23.21
595.79	23.24
595.985	23.33
596.18	23.29
596.374	23.3
596.569	23.31
596.763	23.19
596.958	23.16
597.153	23.31
597.347	23.36
597.542	23.54
597.736	23.64
597.931	23.75
598.125	23.78
598.319	23.9
598.514	23.8
598.708	23.81
598.903	23.79
599.097	23.83
599.291	23.76
599.486	23.82
599.68	23.93
599.874	23.98
600.069	23.91
600.263	23.88
600.457	23.9
600.651	23.95
600.846	23.82
601.04	23.86
601.234	23.8
601.428	23.77
601.622	23.79
601.817	23.89
602.011	23.87
602.205	23.98
602.399	23.91
602.593	23.86
602.787	23.8
602.981	23.69
603.175	23.69
603.369	23.68
603.563	23.69
603.757	23.82
603.951	24.01
604.145	24.03
604.339	24.1
604.533	23.94
604.727	23.84
604.921	23.81
605.115	23.77
605.309	23.72
605.502	23.76
605.696	23.74
605.89	23.62
606.084	23.56
606.278	23.53
606.471	23.46
606.665	23.31
606.859	23.28
607.053	23.17
607.246	23.18
607.44	23.21
607.634	23.24
607.827	23.18
608.021	23.16
608.214	23.03
608.408	22.95
608.602	22.87
608.795	22.79
608.989	22.78
609.182	22.75
609.376	22.68
609.569	22.76
609.763	22.64
609.956	22.51
610.15	22.43
610.343	22.33
610.537	22.19
610.73	22.29
610.923	22.17
611.117	22.09
611.31	22.02
611.504	22.06
611.697	21.84
611.89	21.86
612.083	21.81
612.277	21.8
612.47	21.57
612.663	21.45
612.856	21.4
613.05	21.34
613.243	21.21
613.436	21.08
613.629	21.01
613.822	20.92
614.015	20.81
614.209	20.68
614.402	20.76
614.595	20.78
614.788	20.73
614.981	20.7
615.174	20.53
615.367	20.36
615.56	20.15
615.753	20.09
615.946	20.01
616.139	20.17
616.332	20.19
616.525	20.25
616.718	20.25
616.911	20.24
617.103	20.25
617.296	20.22
617.489	20.18
617.682	20.05
617.875	19.98
618.067	19.9
618.26	19.76
618.453	19.83
618.646	19.86
618.838	19.85
619.031	19.75
619.224	19.75
619.417	19.55
619.609	19.57
619.802	19.51
619.994	19.59
620.187	19.7
620.38	19.69
620.572	19.5
620.765	19.49
620.957	19.3
621.15	19.08
621.342	19.1
621.535	19.22
621.727	19.21
621.92	19.22
622.112	19.23
622.305	19.27
622.497	19
622.69	18.86
622.882	18.81
623.074	18.86
623.267	18.72
623.459	18.73
623.651	18.66
623.844	18.72
624.036	18.6
624.228	18.54
624.42	18.63
624.613	18.73
624.805	18.66
624.997	18.67
625.189	18.76
625.381	18.79
625.574	18.77
625.766	18.61
625.958	18.61
626.15	18.61
626.342	18.51
626.534	18.48
626.726	18.48
626.918	18.43
627.11	18.35
627.302	18.36
627.494	18.24
627.686	18.2
627.878	18.11
628.07	17.94
628.262	17.83
628.454	17.82
628.646	17.84
628.838	17.92
629.029	17.87
629.221	17.82
629.413	17.67
629.605	17.62
629.797	17.42
629.989	17.53
630.18	17.54
630.372	17.63
630.564	17.53
630.755	17.57
630.947	17.48
631.139	17.3
631.33	17.2
631.522	17.32
631.714	17.26
631.905	17.22
632.097	17.23
632.289	17.26
632.48	17.19
632.672	17.09
632.863	16.9
633.055	16.93
633.246	16.9
633.438	16.76
633.629	16.7
633.821	16.83
634.012	16.82
634.203	16.65
634.395	16.63
634.586	16.65
634.777	16.53
634.969	16.39
635.16	16.43
635.351	16.41
635.543	16.36
635.734	16.33
635.925	16.29
636.117	16.29
636.308	16.17
636.499	16.13
636.69	16.04
636.881	16.06
637.073	16.1
637.264	16.04
637.455	15.93
637.646	16
637.837	15.97
638.028	15.78
638.219	15.9
638.41	15.87
638.601	15.77
638.792	15.74
638.983	15.65
639.174	15.46
639.365	15.43
639.556	15.43
639.747	15.34
639.938	15.36
640.129	15.38
640.32	15.29
640.511	15.19
640.701	15.19
640.892	15.08
641.083	15.04
641.274	15
641.465	15.03
641.655	14.85
641.846	14.84
642.037	14.81
642.228	14.78
642.418	14.75
642.609	14.7
642.8	14.66
642.99	14.53
643.181	14.57
643.372	14.47
643.562	14.48
643.753	14.44
643.943	14.43
644.134	14.3
644.324	14.32
644.515	14.28
644.705	14.34
644.896	14.36
645.086	14.37
645.277	14.2
645.467	14.17
645.658	14.02
645.848	14.03
646.038	14.05
646.229	14.1
646.419	14.06
646.61	14.04
646.8	13.9
646.99	13.79
647.18	13.73
647.371	13.71
647.561	13.56
647.751	13.54
647.941	13.49
648.132	13.45
648.322	13.43
648.512	13.63
648.702	13.54
648.892	13.51
649.082	13.52
649.272	13.29
649.462	13.05
649.653	13.03
649.843	13.04
650.033	12.98
650.223	13.01
650.413	13.03
650.603	13.06
650.793	12.99
650.983	12.87
651.172	12.83
651.362	12.84
651.552	12.67
651.742	12.54
651.932	12.63
652.122	12.67
652.312	12.63
652.502	12.77
652.691	12.82
652.881	12.75
653.071	12.72
653.261	12.55
653.45	12.41
653.64	12.43
653.83	12.4
654.019	12.41
654.209	12.58
654.399	12.65
654.588	12.59
654.778	12.46
654.968	12.36
655.157	12.29
655.347	12.21
655.536	12.05
655.726	12.05
655.915	11.91
656.105	11.76
656.294	11.65
656.484	11.46
656.673	11.37
656.863	11.47
657.052	11.34
657.241	11.23
657.431	11.27
657.62	11.15
657.809	10.89
657.999	10.8
658.188	10.62
658.377	10.57
658.567	10.46
658.756	10.48
658.945	10.35
659.134	10.32
659.324	10.25
659.513	10.27
659.702	9.99
659.891	10.08
660.08	10.02
660.269	9.98
660.458	9.95
660.648	10.09
660.837	9.94
661.026	9.85
661.215	9.81
661.404	9.43
661.593	9.46
661.782	9.25
661.971	9.31
662.16	9.25
662.349	9.41
662.538	9.15
662.726	9.32
662.915	9.25
663.104	9.06
663.293	9.02
663.482	9.14
663.671	9.04
663.86	8.78
664.048	8.73
664.237	8.76
664.426	8.54
664.615	8.53
664.803	8.76
664.992	8.77
665.181	8.64
665.369	8.55
665.558	8.49
665.747	8.38
665.935	8.47
666.124	8.51
666.312	8.7
666.501	8.65
666.69	8.56
666.878	8.51
667.067	8.39
667.255	8.4
667.444	8.66
667.632	8.74
667.82	8.75
668.009	8.81
668.197	8.81
668.386	8.62
668.574	8.71
668.762	8.73
668.951	8.66
669.139	8.52
669.327	8.43
669.516	8.43
669.704	8.44
669.892	8.56
670.08	8.72
670.269	8.83
670.457	8.87
670.645	8.81
670.833	8.9
671.021	8.87
671.21	8.89
671.398	8.99
671.586	9.05
671.774	9.13
671.962	9.1
672.15	9.14
672.338	9.04
672.526	9.14
672.714	8.96
672.902	9.15
673.09	9.34
673.278	9.62
673.466	9.67
673.654	10.02
673.842	9.93
674.03	9.99
674.218	9.85
674.405	9.74
674.593	9.74
674.781	10.04
674.969	9.92
675.157	10.03
675.344	10.25
675.532	10.09
675.72	10.11
675.908	10.35
676.095	10.27
676.283	10.44
676.471	10.68
676.658	10.67
676.846	10.54
677.033	10.74
677.221	10.56
677.409	10.51
677.596	10.47
677.784	10.64
677.971	10.64
678.159	10.84
678.346	11.11
678.534	11.2
678.721	11.48
678.909	11.57
679.096	11.6
679.283	11.61
679.471	11.74
679.658	11.69
679.846	11.82
680.033	12
680.22	12.09
680.408	12.16
680.595	12.33
680.782	12.31
680.969	12.33
681.157	12.14
681.344	12.22
681.531	12.07
681.718	12.18
681.905	12.29
682.093	12.38
682.28	12.53
682.467	12.78
682.654	12.84
682.841	12.87
683.028	13.41
683.215	13.69
683.402	13.69
683.589	13.9
683.776	14.07
683.963	14.01
684.15	14.03
684.337	14.14
684.524	14.2
684.711	14.34
684.898	14.39
685.085	14.45
685.271	14.74
685.458	15.08
685.645	15.22
685.832	15.61
686.019	15.72
686.205	15.83
686.392	15.88
686.579	16.16
686.766	16.29
686.952	16.63
687.139	17.11
687.326	17.29
687.512	17.54
687.699	17.88
687.886	18.14
688.072	18.13
688.259	18.63
688.445	18.94
688.632	19.04
688.818	19.56
689.005	19.94
689.191	20.38
689.378	20.93
689.564	21.47
689.751	21.56
689.937	22.1
690.124	22.39
690.31	22.75
690.496	23.11
690.683	23.96
690.869	24.61
691.055	25.08
691.242	25.7
691.428	26.39
691.614	26.88
691.8	27.23
691.987	27.76
692.173	28.35
692.359	28.88
692.545	29.52
692.731	29.87
692.918	30.71
693.104	30.99
693.29	31.67
693.476	32.05
693.662	32.88
693.848	33.03
694.034	33.81
694.22	34.19
694.406	34.92
694.592	35.69
694.778	36.26
694.964	36.66
695.15	37.09
695.336	37.7
695.522	38.33
695.708	39.17
695.894	39.78
696.08	40.54
696.265	40.94
696.451	41.21
696.637	42.03
696.823	42.57
697.009	43.24
697.194	43.78
697.38	44.56
697.566	44.82
697.751	45.41
697.937	46.01
698.123	46.78
698.308	47.53
698.494	48.21
698.68	48.97
698.865	49.39
699.051	50.06
699.236	50.44
699.422	50.87
699.607	51.41
699.793	52.1
699.978	52.21
700.164	52.62
700.349	53.38
700.535	53.86
700.72	54.12
700.906	55.02
701.091	55.6
701.276	56.14
701.462	56.89
701.647	57.96
701.832	58.42
702.018	59.04
702.203	59.8
702.388	60.08
702.573	60.29
702.759	60.86
702.944	60.88
703.129	60.85
703.314	61.43
703.499	61.97
703.684	62.25
703.87	63.1
704.055	63.79
704.24	64.09
704.425	64.35
704.61	64.88
704.795	64.91
704.98	65.02
705.165	65.51
705.35	65.9
705.535	65.79
705.72	66.7
705.905	67.19
706.09	67.66
706.275	67.97
706.459	68.26
706.644	68.36
706.829	68.79
707.014	68.76
707.199	69.1
707.384	69.7
707.568	69.83
707.753	70.57
707.938	70.96
708.123	71.14
708.307	71.43
708.492	71.59
708.677	70.89
708.861	70.8
709.046	70.52
709.231	70.88
709.415	71.08
709.6	71.67
709.784	71.85
709.969	72.65
710.153	72.33
710.338	72.64
710.522	72.65
710.707	73.22
710.891	73.05
711.076	73.71
711.26	73.27
711.445	73.78
711.629	74.1
711.813	74.65
711.998	74.84
712.182	75.29
712.366	75.45
712.551	75.69
712.735	75.41
712.919	75.32
713.103	76.13
713.288	75.81
713.472	75.46
713.656	76.34
713.84	76.99
714.024	76.93
714.208	77.61
714.393	78.5
714.577	78.52
714.761	78.26
714.945	78.51
715.129	78
715.313	77.49
715.497	77.22
715.681	77.58
715.865	77.75
716.049	78.29
716.233	78.68
716.417	79.32
716.601	79.61
716.785	79.14
716.968	79.43
717.152	79.41
717.336	79.06
717.52	78.85
717.704	80.06
717.888	80.52
718.071	80.7
718.255	81.04
718.439	81.09
718.622	81.2
718.806	80.99
718.99	80.29
719.174	80.53
719.357	81.19
719.541	80.6
719.724	81.02
719.908	82.73
720.092	82.84
720.275	82.99
720.459	83.41
720.642	82.97
720.826	82.35
721.009	82.34
721.193	81.19
721.376	81.16
721.559	82.5
721.743	83.13
721.926	83.47
722.11	83.59
722.293	83.46
722.476	81.71
722.66	81.45
722.843	81.35
723.026	82.18
723.21	82.28
723.393	83.86
723.576	83.93
723.759	83.27
723.942	83.4
724.126	83.32
724.309	83.04
724.492	83.12
724.675	83.81
724.858	84.21
725.041	85.21
725.224	84.65
725.407	84.33
725.59	84.12
725.774	83.66
725.957	82.24
726.14	82.78
726.322	83.49
726.505	83.65
726.688	84.21
726.871	84.31
727.054	84.73
727.237	84.17
727.42	85.09
727.603	85.66
727.786	86.69
727.968	86.77
728.151	86.95
728.334	86.11
728.517	86.13
728.699	86.92
728.882	86.54
729.065	87.18
729.248	88.06
729.43	87.9
729.613	88.46
729.796	88.62
729.978	87.6
730.161	87.47
730.343	87.9
730.526	87.54
730.708	87.7
730.891	89.04
731.073	88.98
731.256	87.82
731.438	88.45
731.621	89.12
731.803	89.72
731.986	89.77
732.168	90.6
732.35	90.08
732.533	89.55
732.715	88.79
732.898	89.98
733.08	90.4
733.262	90.03
733.444	89.51
733.627	89.32
733.809	89.61
733.991	90.41
734.173	90.71
734.355	92.08
734.538	92.32
734.72	91.05
734.902	90.37
735.084	89.38
735.266	89.12
735.448	89.26
735.63	89.27
735.812	89.35
735.994	90.6
736.176	91.6
736.358	91.83
736.54	92.93
736.722	92.77
736.904	92.51
737.086	90.42
737.268	91.79
737.45	92.08
737.632	91.88
737.814	91.57
737.995	92.97
738.177	92.25
738.359	91.3
738.541	92.11
738.723	92.89
738.904	93.21
739.086	93.11
739.268	93.75
739.449	93.33
739.631	93.56
739.813	93.57
739.994	93.83
740.176	93.72
740.358	94.32
740.539	95.07
740.721	95.02
740.902	96.22
741.084	96.94
741.265	96.31
741.447	96.14
741.628	95.77
741.81	93.62
741.991	93.99
742.172	95.21
742.354	95.34
742.535	96.18
742.717	98.4
742.898	96.71
743.079	96.84
743.261	95.97
743.442	95.02
743.623	93.56
743.804	94.86
743.986	95.07
744.167	93.64
744.348	95.32
744.529	96.1
744.71	95.38
744.891	95.06
745.073	96.4
745.254	96.14
745.435	96.4
745.616	95.7
745.797	94.64
745.978	94.61
746.159	92.96
746.34	91.57
746.521	92.49
746.702	92.76
746.883	93.25
747.064	91.55
747.245	91.14
747.426	91.9
747.606	92.39
747.787	93.27
747.968	94.65
748.149	96.82
748.33	97.52
748.51	96.34
748.691	94.34
748.872	95.95
749.053	94.04
749.233	92.8
749.414	93.13
749.595	94.06
749.775	92.83
749.956	91.78
750.137	91.07
750.317	91.96
750.498	92.64
750.678	91.93
750.859	93.04
751.04	94.17
751.22	93.17
751.4	91.18
751.581	92.81
751.761	94.03
751.942	94.86
752.122	96.29
752.303	96.54
752.483	96.07
752.663	96.06
752.844	95.63
753.024	95.78
753.204	96.57
753.385	95.04
753.565	92.63
753.745	92.55
753.925	92.54
754.106	92.94
754.286	94.71
754.466	95.65
754.646	96.06
754.826	95.72
755.006	93.4
755.187	95.32
755.367	96.21
755.547	95.96
755.727	95.97
755.907	96.58
756.087	95.98
756.267	95.11
756.447	94.92
756.627	93.86
756.807	96.36
756.987	95.33
757.167	97.02
757.346	95.18
757.526	94.58
757.706	92.91
757.886	91.94
758.066	91.65
758.246	94.4
758.425	95.86
758.605	96.76
758.785	97.08
758.965	96.56
759.144	92.49
759.324	90.74
759.504	91.3
759.683	90.79
759.863	89.55
760.043	90.72
760.222	91.6
760.402	89.59
760.581	91.53
760.761	93.65
760.94	91.23
761.12	91.81
761.299	94.49
761.479	92.48
761.658	90.99
761.838	92.47
762.017	92.15
762.197	90.7
762.376	91.13
762.555	91.53
762.735	93.47
762.914	90.91
763.093	92.19
763.273	90.87
763.452	91.9
763.631	90.56
763.81	91.1
763.99	89.67
764.169	90.89
764.348	86.89
764.527	87.11
764.706	89.44
764.885	90.7
765.064	89.06
765.243	90.24
765.423	89.9
765.602	90.64
765.781	87.98
765.96	87.09
766.139	89.02
766.318	89.94
766.497	89.38
766.676	90.88
766.854	93.99
767.033	93.26
767.212	93.34
767.391	90.52
767.57	91.31
767.749	91.32
767.928	92.26
768.106	89.81
768.285	89.63
768.464	90.68
768.643	89.52
768.821	89
769	91.82
769.179	94.25
769.357	87.84
769.536	85.83
769.715	86.74
769.893	86.09
770.072	84.04
770.25	85.17
770.429	87.69
770.607	86.75
770.786	87.45
770.964	88.4
771.143	92.05
771.321	92.7
771.5	93.2
771.678	89.72
771.857	87.83
772.035	88.45
772.213	87.24
772.392	83.03
772.57	86.11
772.748	89.18
772.927	84.49
773.105	83.74
773.283	89.6
773.461	91.62
773.64	88.3
773.818	88.36
773.996	90.66
774.174	88.07
774.352	82.04
774.531	83.97
774.709	86.33
774.887	84.94
775.065	82.85
775.243	84.21
775.421	86.82
775.599	89.6
775.777	86.51
775.955	85.75
776.133	85.51
776.311	80.38
776.489	74.64
776.667	76.97
776.844	81.15
777.022	81.14
777.2	82.68
777.378	85.14
777.556	87.25
777.734	85.91
777.911	86.55
778.089	84.84
778.267	88.09
778.445	83.61
778.622	82.06
778.8	82.26
778.978	87.4
779.155	83.52
779.333	87.41
779.511	83.56
779.688	85.83
779.866	77.14
780.043	73.46
780.221	72.78
780.398	73.32
780.576	72.07
780.753	79.17
780.931	81.14
781.108	78.53
781.286	83.27
781.463	77.97
781.64	75.24
781.818	82.21
781.995	83.76
782.172	81.07
782.35	85.75
782.527	88.47
782.704	83.59
782.882	86.76
783.059	86.8
783.236	86.2
783.413	87.74
783.59	88.79
783.768	81.04
783.945	83.26
784.122	85.67
784.299	81.95
784.476	81.37
784.653	86.83
784.83	82.78
785.007	74.42
785.184	74.73
785.361	71.89
785.538	75.62
785.715	76.87
785.892	82.27
786.069	83.81
786.246	87.54
786.423	81.75
786.6	82.88
786.776	87.84
786.953	88.21
787.13	88.55
787.307	88.14
787.484	90.4
787.66	83.53
787.837	79.41
788.014	76.87
788.191	75.12
788.367	72.76
788.544	77.61
788.721	78.23
788.897	80
789.074	85.02
789.25	82.35
789.427	78.88
789.603	78.5
789.78	81.49
789.956	69.23
790.133	72.05
790.309	72.01
790.486	76.85
790.662	73.67
790.839	80.82
791.015	85.38
791.192	80.08
791.368	78.56
791.544	72.1
791.721	76.61
791.897	73.38
792.073	76.05
792.249	75.22
792.426	78.28
792.602	75.04
792.778	66.17
792.954	63.77
793.13	59.76
793.307	57.11
793.483	47.13
793.659	51.47
793.835	56.79
794.011	58.8
794.187	57.11
794.363	60.03
794.539	65.23
794.715	61.39
794.891	61.48
795.067	62.16
795.243	75.64
795.419	73.66
795.595	75.68
795.771	76.27
795.947	84.34
796.122	72.72
796.298	74.17
796.474	78.59
796.65	78.87
796.826	74.21
797.001	78.89
797.177	72.82
797.353	70.54
797.529	73.19
797.704	67.54
797.88	64.5
798.056	61.1
798.231	59.35
798.407	59
798.582	65.59
798.758	71.86
798.934	82.42
799.109	80.2
799.285	72.64
799.46	76.94
799.636	76.7
799.811	75.95
799.986	83.24
800.162	94.78
800.337	90.51
800.513	82.3
800.688	77.84
800.863	79.62
801.039	63.75
801.214	56.21
801.389	65.15
801.565	70.24
801.74	64.75
801.915	77.84
802.09	88.27
802.265	93.11
802.441	85.65
802.616	80.39
802.791	77.42
802.966	78.59
803.141	71.24
803.316	63.28
803.491	69.89
803.666	70.46
803.841	63.07
804.016	63.57
804.191	73.76
804.366	71.09
804.541	68.51
804.716	57.93
804.891	49.78
805.066	51.1
805.241	51.58
805.416	51.1
805.591	55.19
805.765	60.54
805.94	64.78
806.115	61.6
806.29	58.06
806.464	70.07
806.639	67.71
806.814	53.05
806.989	45.43
807.163	55.54
807.338	46.04
807.512	47.47
807.687	47.06
807.862	53.21
808.036	55.04
808.211	60.23
808.385	64.97
808.56	76.69
808.734	78.87
808.909	74.92
809.083	68.88
809.258	72.25
809.432	69.8
809.606	51.77
809.781	54.34
809.955	69.85
810.13	65.95
810.304	56.99
810.478	65.66
810.652	70.82
810.827	69.73
811.001	72.44
811.175	69.56
811.349	76.98
811.524	63.11
811.698	46.12
811.872	45.22
812.046	56.32
812.22	60.48
812.394	55.03
812.568	58.85
812.742	60.14
812.916	53.4
813.09	52.03
813.264	69.33
813.438	74.83
813.612	61.98
813.786	51.23
813.96	53.96
814.134	59.2
814.308	67.05
814.482	75.4
814.656	86.95
814.83	93.23
815.003	87.59
815.177	77.91
815.351	66.3
815.525	75.06
815.698	60.56
815.872	42.25
816.046	34.9
816.219	44.87
816.393	50.92
816.567	53.67
816.74	58.23
816.914	73.49
817.088	72.67
817.261	62.77
817.435	56.47
817.608	52.51
817.782	40.71
817.955	38.84
818.129	19.18
818.302	31.65
818.475	60.81
818.649	62.32
818.822	45.81
818.996	64.23
819.169	58.28
819.342	37.65
819.516	47.69
819.689	72.89
819.862	72.67
820.035	64.73
820.209	55.37
820.382	51.23
820.555	48.09
820.728	34.2
820.901	33.28
821.075	48.03
821.248	65.16
821.421	56.58
821.594	42.23
821.767	72.42
821.94	90.44
822.113	44.83
822.286	48.87
822.459	93.86
822.632	76.29
822.805	59.44
822.978	79.08
823.151	75.5
823.324	37.13
823.496	2.07
823.669	5.84
823.842	1.46
824.015	-8.52
824.188	-16.22
824.361	-14.83
824.533	-26.42
824.706	1.64
824.879	2.06
825.051	54.55
825.224	66.96
825.397	65.41
825.569	46.39
825.742	64.03
825.915	64.7
826.087	64.18
826.26	59.12
826.432	57.06
826.605	62.46
826.777	58.37
826.95	41.48
827.122	41.09
827.295	59.53
827.467	35.37
827.64	12.09
827.812	12.56
827.984	26.76
828.157	12.44
828.329	10.51
828.501	13.22
828.674	25.08
828.846	18.02
829.018	15.59
829.19	13.36
829.363	37.24
829.535	44.35
829.707	51.37
829.879	32.44
830.051	27.43
830.223	29.46
830.395	-1.57
830.568	-15.7
830.74	1.08
830.912	33.96
831.084	10.8
831.256	11.18
831.428	3.19
831.6	-4.52
831.772	-40.95
831.943	-35.05
832.115	-4.46
832.287	36.84
832.459	39.42
832.631	53.03
832.803	78.38
832.975	63.92
833.146	46.55
833.318	39.4
833.49	47.71
833.662	35.47
833.833	31
834.005	31.02
834.177	62.82
834.348	44.32
834.52	14.27
834.692	8.98
834.863	-7.7
835.035	-33.98
835.206	-23.71
835.378	9.85
835.549	8.86
835.721	25.77
835.892	18.85
836.064	31.76
836.235	36.77
836.407	64.66
836.578	52.15
836.749	65.29
836.921	64.49
837.092	24.41
837.264	-40.33
837.435	-60.03
837.606	-50.89
837.777	-18.45
837.949	10.51
838.12	18.27
838.291	36.08
838.462	42.44
838.633	20.77
838.805	10.83
838.976	34.44
839.147	35.81
839.318	-18.82
839.489	-37.53
839.66	-22.01
839.831	-13.83
840.002	-24.19
840.173	3.4
840.344	16.28
840.515	17.02
840.686	-33.19
840.857	-55.76
841.028	-83.41
841.199	-61.16
841.369	-94.64
841.54	-94.11
841.711	-12.42
841.882	19.52
842.053	-5.82
842.223	-3.78
842.394	34.71
842.565	37.5
842.736	37.9
842.906	38.13
843.077	45.9
843.248	59.92
843.418	32.96
843.589	22.4
843.759	68.96
843.93	71.82
844.101	51.62
844.271	66.52
844.442	81.08
844.612	71.62
844.783	41.09
844.953	3.04
845.123	11.87
845.294	9.07
845.464	-19.98
845.635	-2.88
845.805	34.99
845.975	24.33
846.146	1.26
846.316	-15.96
846.486	16.6
846.656	6.08
846.827	-19.26
846.997	-22.57
847.167	27.5
847.337	-16.44
847.507	-23.33
847.677	-30.76
847.848	0.39
848.018	-1.55
848.188	15.5
848.358	27.61
848.528	51.7
848.698	25.39
848.868	-13.41
849.038	-38.6
849.208	-25.55
849.378	0.12
849.548	-42.6
849.718	-7.51
849.887	44.77
850.057	-29.04
850.227	-81.75
850.397	-33.83
850.567	-30.22
850.737	-21.4
850.906	-32.14
851.076	-63.42
851.246	-76.62
851.415	-39.85
851.585	-23.2
851.755	-15.21
851.924	41.77
852.094	47.93
852.264	22.54
852.433	-20.88
852.603	1.01
852.772	-5.25
852.942	-28.44
853.111	-53.46
853.281	16.5
853.45	20.16
853.62	-21.06
853.789	-69.19
853.959	1.38
854.128	-41.27
854.297	-85.61
854.467	-77.33
854.636	-18.84
854.805	-17.98
854.975	-41.92
855.144	-23.48
855.313	32
855.482	26.63
855.652	-27.1
855.821	-16
855.99	12.86
856.159	-12.06
856.328	-50.92
856.497	-50.46
856.667	-38.88
856.836	-59.04
857.005	-114.6
857.174	-164.15
857.343	-125.77
857.512	-76.86
857.681	-141.9
857.85	-95.24
858.019	-68.42
858.188	-68.38
858.356	-110.31
858.525	-106.21
858.694	-114.71
858.863	-85.55
859.032	-114.81
859.201	-112.35
859.369	-69.49
859.538	-37.96
859.707	-85.81
859.876	-72.16
860.044	-25.89
860.213	-12.73
860.382	-40.23
860.55	-3.78
860.719	47.16
860.888	69.17
861.056	29.24
861.225	22.26
861.393	123.47
861.562	101.53
861.73	31.68
861.899	39.07
862.067	20.01
862.236	15.92
862.404	-52.6
862.572	-77.85
862.741	-33.65
862.909	-38.41
863.078	-70.29
863.246	-71.79
863.414	-28.51
863.582	-83.44
863.751	-47.41
863.919	-40.89
864.087	23.62
864.255	17.3
864.424	-27.96
864.592	-14.54
864.76	2.73
864.928	-20.23
865.096	-34.94
865.264	-23.62
865.432	-12.61
865.6	13.5
865.768	-62.91
865.936	-139.98
866.104	-77.73
866.272	-105.91
866.44	-120.49
866.608	-97.75
866.776	-90.91
866.944	-169.83
867.112	-283.41
867.28	-475.45
867.448	-885.08
867.615	-316.32
867.783	-68.43
867.951	-74.72
868.119	25.42
868.286	-19.52
868.454	-73.38
868.622	-130.48
868.789	-148.75
868.957	-88.28
869.125	-79.76
869.292	-60.71
869.46	-33.96
869.627	7.11
869.795	-45.21
869.963	-27.1
870.13	8.52
870.298	19.06
870.465	-49.73
870.632	-66.42
870.8	-79.71
870.967	-115.71
871.135	-238.79
871.302	-112.91
871.469	-54.51
871.637	-21.71
871.804	-14.89
871.971	-18.6
872.139	-29.94
872.306	10.13
872.473	-10.07
872.64	-47.97
872.807	6.48
872.975	27.84
873.142	-50.14
873.309	-43.5
873.476	69.79
873.643	54.83
873.81	22.12
873.977	33.83
874.144	36.39
874.311	24.45
874.478	-48.42
874.645	-91.35
874.812	-233.25
874.979	13800
875.146	-502.8
875.313	-133.41
875.48	-76.27
875.647	-76.42
875.813	-111.41
875.98	-150.78
876.147	-201.54
876.314	-167.85
876.481	-235.28
876.647	-236.51
876.814	-110.19
876.981	-91.09
877.147	-204.08
877.314	-185.47
877.481	-102.7
877.647	-61.65
877.814	-85.93
877.98	-62.84
878.147	21.09
878.314	42.52
878.48	-46.15
878.647	-57.17
878.813	23.43
878.979	39.07
879.146	-4.76
879.312	12.09
879.479	18.55
879.645	-8.17
879.811	-96.64
879.978	-94.59
880.144	-78.84
880.31	-119.41
880.477	-191.58
880.643	-158.24
880.809	-103.18
880.975	-22.88
881.142	-62.34
881.308	-37.22
881.474	0.84
881.64	9.29
881.806	-53.62
881.972	-5.62
882.138	29.21
882.304	60.71
882.47	-14.39
882.636	-52.02
882.802	-32.72
882.968	-19.04
883.134	-155.72
883.3	-207.93
883.466	-5.47
883.632	30.4
883.798	-60.32
883.964	-66.57
884.129	-61.46
884.295	-98.08
884.461	-137.45
884.627	-180.86
884.793	-111.14
884.958	-42.03
885.124	-87.15
885.29	-89.3
885.455	-14.83
885.621	-16.96
885.787	-202.12
885.952	-111.34
886.118	-107.61
886.283	-126.45
886.449	-177.72
886.614	-99.27
886.78	-106.8
886.945	-50.3
887.111	-199.49
887.276	-158.34
887.442	-334.45
887.607	-147.53
887.773	-296.76
887.938	-215.04
888.103	-101.88
888.269	-30.14
888.434	-28.72
888.599	-5.8
888.764	65.99
888.93	68.39
889.095	27.83
889.26	-10.23
889.425	46.5
889.59	75.09
889.756	-5.53
889.921	10.54
890.086	42.46
890.251	0.44
890.416	-93.53
890.581	-66.12
890.746	-48.99
890.911	-13.71
891.076	-58.67
891.241	-68.69
891.406	-67.22
891.571	-6.9
891.736	-54.24
891.901	-86.03
892.065	-62.1
892.23	-37.92
892.395	-154.68
892.56	-212.07
892.725	-68.84
892.889	-34.34
893.054	-143.78
893.219	-143.65
893.384	-127.77
893.548	-202.75
893.713	-273.53
893.878	-216.81
