Data from Ofra_PP_Phys_2GT10K_Reflection_3.txt Node
Date: Sat Jul 24 20:12:35 EDT 2021
User: USUARIO
Spectrometer: FLMT01687
Trigger mode: 0
Integration Time (sec): 1.100000E0
Scans to average: 2
Electric dark correction enabled: true
Nonlinearity correction enabled: false
Boxcar width: 2
XAxis mode: Wavelengths
Number of Pixels in Spectrum: 3648
>>>>>Begin Spectral Data<<<<<
179.494	661.87
179.716	864.39
179.937	1580.16
180.158	1382.16
180.38	634.56
180.601	-792.57
180.823	-7.63
181.044	348.06
181.265	-11.54
181.486	-62.91
181.708	-192.87
181.929	-3254.67
182.15	700.8
182.372	8.66
182.593	49033.33
182.814	785.13
183.035	264.28
183.257	204.36
183.478	86.78
183.699	137.23
183.92	45.55
184.141	53.2
184.363	-35.67
184.584	60.13
184.805	33.56
185.026	64.02
185.247	58.52
185.468	36.54
185.689	30.02
185.91	41.81
186.132	30.14
186.353	21.6
186.574	67.96
186.795	71.97
187.016	13.39
187.237	47.78
187.458	63.4
187.679	112.72
187.9	86.61
188.121	128.76
188.342	139.01
188.563	128.3
188.784	126.53
189.005	147.27
189.226	148.86
189.447	116.83
189.667	105.24
189.888	61.41
190.109	12.71
190.33	-37.92
190.551	-50.05
190.772	-48.19
190.993	-62.88
191.214	-36.84
191.434	-16.15
191.655	47.84
191.876	7.4
192.097	-11.41
192.318	-15.75
192.538	-41.56
192.759	-74.63
192.98	-23.62
193.201	11.82
193.421	-14.71
193.642	18.09
193.863	13.53
194.083	-21.84
194.304	-18.3
194.525	7.91
194.745	25.35
194.966	-26.43
195.187	-42.27
195.407	-101.21
195.628	-147.84
195.848	-168.45
196.069	-167.5
196.29	-153.62
196.51	-183.32
196.731	-199.97
196.951	-176.54
197.172	-129.19
197.392	-118.13
197.613	-71.39
197.833	-74.9
198.054	-113.5
198.274	-105.3
198.495	-173.88
198.715	-131.9
198.936	-121.3
199.156	-77.35
199.377	-102.83
199.597	-100.21
199.817	-109.43
200.038	-48.06
200.258	-12.1
200.479	52.42
200.699	76.59
200.919	63.45
201.14	2.91
201.36	-35.35
201.58	-59.78
201.801	-38.84
202.021	-43.79
202.241	1.84
202.461	-3.7
202.682	-33.17
202.902	-22.54
203.122	-38.8
203.342	-36.32
203.563	11.19
203.783	32.23
204.003	-55.83
204.223	-131.2
204.443	-18.26
204.663	-65.95
204.884	-46.41
205.104	29.82
205.324	87.01
205.544	60.83
205.764	70.41
205.984	80.25
206.204	85.41
206.424	69.63
206.644	-2.43
206.864	37.38
207.084	25.79
207.304	37.39
207.525	-7.97
207.745	26.03
207.964	0.17
208.184	-15.18
208.404	-27.12
208.624	-17.68
208.844	-1.97
209.064	-39.64
209.284	-24.46
209.504	-17.33
209.724	10.87
209.944	-2.21
210.164	30.11
210.384	50.23
210.604	54.2
210.823	-9.79
211.043	-55.74
211.263	-40.47
211.483	-89.93
211.703	-117.26
211.922	-58.37
212.142	25.28
212.362	31.94
212.582	25.6
212.801	33.81
213.021	2.97
213.241	1.94
213.461	-37.21
213.68	-55.14
213.9	-41.58
214.12	-9.17
214.339	-69.68
214.559	-61.75
214.779	-20.26
214.998	-4.6
215.218	-53.77
215.438	-47.75
215.657	-58.14
215.877	-34.98
216.096	-18.29
216.316	39.23
216.535	41.49
216.755	55.99
216.974	32.88
217.194	22.28
217.413	-8.71
217.633	-5.18
217.852	-65.66
218.072	-63.26
218.291	-55.62
218.511	-12.58
218.73	-92.03
218.95	-89.48
219.169	-74.55
219.389	-122.67
219.608	-152.9
219.827	-57.28
220.047	-19.54
220.266	-29.36
220.485	-22.94
220.705	25.82
220.924	-35.25
221.143	-4.33
221.363	-61.6
221.582	-17.73
221.801	-46.69
222.021	4.95
222.24	5.52
222.459	70.31
222.678	45.6
222.897	43.71
223.117	26.35
223.336	10.06
223.555	25.23
223.774	67.21
223.993	99.37
224.213	169.05
224.432	111.57
224.651	130.28
224.87	93.59
225.089	94.15
225.308	71.35
225.527	89.58
225.746	74.06
225.965	51.28
226.184	31.28
226.404	36.37
226.623	9.25
226.842	5.93
227.061	47.73
227.28	55.49
227.499	72.04
227.718	112.45
227.936	98.42
228.155	81.5
228.374	33.56
228.593	-10.49
228.812	-12.71
229.031	-12.74
229.25	-32.24
229.469	18.23
229.688	27.69
229.907	35.45
230.125	55.74
230.344	75.38
230.563	64.76
230.782	89.26
231.001	18.1
231.22	4.06
231.438	-11.28
231.657	-10.4
231.876	-16.09
232.095	34.31
232.313	51.28
232.532	49.59
232.751	58.66
232.969	40.3
233.188	38.16
233.407	41.88
233.625	8.39
233.844	-7.54
234.063	-4.63
234.281	23.53
234.5	5.4
234.719	23.74
234.937	39.64
235.156	42.18
235.374	27.28
235.593	25.37
235.811	23.76
236.03	17.59
236.249	5.56
236.467	11.13
236.686	9.69
236.904	26.23
237.123	-34.37
237.341	-12.98
237.559	-25.79
237.778	-15.29
237.996	-28.58
238.215	21.19
238.433	13.36
238.652	38.04
238.87	-30.33
239.088	-10.56
239.307	-8.11
239.525	-1.37
239.743	-56.77
239.962	-2.32
240.18	-40.84
240.398	-82.82
240.617	-106.38
240.835	-50.91
241.053	-84.73
241.271	-2.56
241.49	17.17
241.708	22.54
241.926	21.75
242.144	32.49
242.363	-2.33
242.581	-2.58
242.799	14.85
243.017	15.58
243.235	-28.52
243.453	-16.72
243.672	-42.27
243.89	-25.23
244.108	-16.23
244.326	26.37
244.544	17.34
244.762	14.48
244.98	16.87
245.198	12.73
245.416	-19.25
245.634	-16.64
245.852	11.51
246.07	1.19
246.288	14.63
246.506	19.01
246.724	38.95
246.942	25.12
247.16	30.27
247.378	36.26
247.596	49.99
247.814	41.37
248.032	1.61
248.25	4.21
248.468	1.18
248.685	17.87
248.903	39.67
249.121	66.81
249.339	11.97
249.557	5.37
249.775	-9.1
249.992	-105.69
250.21	-134.85
250.428	-74.63
250.646	-78.84
250.863	-77.11
251.081	-37.33
251.299	12.44
251.517	9.98
251.734	8.47
251.952	7.59
252.17	12.49
252.387	27.45
252.605	0.81
252.823	4.54
253.04	23.61
253.258	42.94
253.475	25
253.693	68.3
253.911	90.85
254.128	77.74
254.346	68.17
254.563	39.89
254.781	3.14
254.998	-5.99
255.216	-16.67
255.433	-24.45
255.651	14.47
255.868	47.1
256.086	54.06
256.303	55.15
256.521	67.93
256.738	52.37
256.956	8.63
257.173	3.27
257.39	-7.75
257.608	-7.23
257.825	1.26
258.043	21.19
258.26	26.08
258.477	35.99
258.695	44.17
258.912	4.02
259.129	-4.66
259.346	-40.98
259.564	-44.2
259.781	-25.42
259.998	-6.8
260.216	29.69
260.433	67.71
260.65	60.5
260.867	57.83
261.084	35.17
261.302	16.65
261.519	19.82
261.736	-2.65
261.953	-18.24
262.17	16.33
262.387	2.54
262.604	-18.22
262.822	-22.54
263.039	-23.13
263.256	-57.42
263.473	-31.97
263.69	-53.13
263.907	-1.24
264.124	21.41
264.341	80
264.558	62.77
264.775	55.52
264.992	63.02
265.209	52.39
265.426	24.93
265.643	33.71
265.86	34.86
266.077	28.6
266.294	9.49
266.51	11.8
266.727	-11.61
266.944	11.84
267.161	-23.38
267.378	-3.02
267.595	-16.15
267.812	-42.74
268.028	-53.34
268.245	-26.38
268.462	-43.25
268.679	-16.84
268.896	40.55
269.112	33.97
269.329	31.7
269.546	40.91
269.763	26.33
269.979	13.23
270.196	13.86
270.413	-3.48
270.629	-31.64
270.846	-32.91
271.063	-18.46
271.279	-40.78
271.496	-65.22
271.712	-47.68
271.929	-28.75
272.146	-19.77
272.362	-2.11
272.579	50.71
272.795	58.34
273.012	67.22
273.228	49.67
273.445	21.32
273.661	-36.44
273.878	-133.68
274.094	-139.83
274.311	-161.17
274.527	-107.79
274.744	-63.4
274.96	11.43
275.177	26.36
275.393	24.97
275.609	40.93
275.826	47.76
276.042	38.57
276.259	29.02
276.475	20.68
276.691	24.22
276.908	3.66
277.124	39.32
277.34	30.92
277.557	34.38
277.773	26.91
277.989	20.6
278.205	7.6
278.422	8.8
278.638	29.09
278.854	39.26
279.07	41.27
279.286	1.89
279.503	-16.6
279.719	-25.31
279.935	-49.06
280.151	-60.81
280.367	-17.12
280.583	2.18
280.799	-9.35
281.016	2.67
281.232	26.77
281.448	34.81
281.664	52.24
281.88	45.82
282.096	36.2
282.312	51.24
282.528	48.21
282.744	50.69
282.96	62.68
283.176	61.2
283.392	42.04
283.608	40.23
283.824	19.88
284.04	9.89
284.256	39.61
284.471	26.16
284.687	10.83
284.903	30.6
285.119	64.88
285.335	28.04
285.551	47.07
285.767	45.34
285.982	20.84
286.198	-17.95
286.414	12.71
286.63	9.54
286.846	39.55
287.061	-2.4
287.277	9.71
287.493	2.77
287.709	15.03
287.924	11.88
288.14	68.54
288.356	80.77
288.571	100.44
288.787	77.09
289.003	70.05
289.218	58.32
289.434	-6.52
289.65	-6.27
289.865	15.39
290.081	17.56
290.296	14.92
290.512	11.37
290.727	6.5
290.943	-13.6
291.159	-26.21
291.374	-25.39
291.59	-32.84
291.805	-48.37
292.021	-28.4
292.236	-40.82
292.451	-35.81
292.667	-10.55
292.882	7.92
293.098	21.87
293.313	10.99
293.529	-2.2
293.744	-36.37
293.959	-77.69
294.175	-78.48
294.39	-39.13
294.605	-12.36
294.821	31.55
295.036	36.48
295.251	57.56
295.467	37.18
295.682	26.66
295.897	-4.94
296.112	-8.47
296.328	-19.03
296.543	-18.71
296.758	-36.63
296.973	16.7
297.188	56.95
297.404	22.32
297.619	14.19
297.834	19.43
298.049	11.79
298.264	-14.55
298.479	24.45
298.694	48.35
298.909	67.01
299.125	53.32
299.34	74.45
299.555	50.86
299.77	56.57
299.985	-29.48
300.2	-63.56
300.415	-104.8
300.63	-73.68
300.845	-72.86
301.06	-56.23
301.275	-22.02
301.49	2.25
301.704	-27.01
301.919	-74.51
302.134	-67.09
302.349	-29.33
302.564	-60.91
302.779	-26.08
302.994	33.58
303.209	43.72
303.423	36.04
303.638	86.39
303.853	58.9
304.068	8.09
304.283	11.56
304.497	2.74
304.712	7.13
304.927	15.22
305.142	19.53
305.356	33.11
305.571	39.48
305.786	19.89
306	11.45
306.215	34.36
306.43	2.63
306.644	10.27
306.859	33.96
307.074	24.9
307.288	-9.12
307.503	7.47
307.717	-13.69
307.932	-18.31
308.147	-12.59
308.361	28.54
308.576	0.29
308.79	-58.66
309.005	-52.1
309.219	-61.86
309.434	-52.22
309.648	-62.59
309.863	0.42
310.077	6.52
310.292	15.97
310.506	-8.06
310.72	32.55
310.935	44.58
311.149	34.42
311.364	47.1
311.578	67.15
311.792	40.46
312.007	33.31
312.221	-17.16
312.435	8.52
312.649	-33.02
312.864	9.49
313.078	14.1
313.292	75.44
313.507	36.93
313.721	38.08
313.935	31.91
314.149	33.76
314.363	17.59
314.578	9.7
314.792	6.57
315.006	14.34
315.22	2.73
315.434	18.75
315.648	35.01
315.862	37.16
316.077	39.72
316.291	49.99
316.505	19.81
316.719	24.32
316.933	-20.32
317.147	-6.22
317.361	-53.76
317.575	-31.93
317.789	-46.14
318.003	-34.39
318.217	-26.09
318.431	15.19
318.645	26.41
318.859	17.32
319.073	48.05
319.287	26.19
319.5	-12.14
319.714	-55.38
319.928	-49.9
320.142	-64.39
320.356	6.86
320.57	37.63
320.784	40.72
320.997	57.32
321.211	57.69
321.425	-2.8
321.639	-46.65
321.853	-10.26
322.066	-36.9
322.28	-54.97
322.494	-22.31
322.707	42.42
322.921	11.95
323.135	9.44
323.349	19.5
323.562	-6.82
323.776	-55.43
323.989	-40.32
324.203	-45.21
324.417	-33.38
324.63	-51.74
324.844	-59.26
325.057	-70.09
325.271	-60.35
325.485	-56.77
325.698	-4.87
325.912	34.45
326.125	24.66
326.339	39.37
326.552	43.22
326.766	48.98
326.979	38.66
327.193	59.67
327.406	42.88
327.619	29.25
327.833	31.03
328.046	12.52
328.26	-1.59
328.473	-5.77
328.686	-24.31
328.9	-23.01
329.113	-20.91
329.326	-51.39
329.54	-26.42
329.753	-21.32
329.966	-35.72
330.179	-6.34
330.393	21
330.606	5
330.819	35.81
331.032	46.81
331.246	47.94
331.459	73.15
331.672	57.51
331.885	25.18
332.098	-10.03
332.311	1.16
332.525	-29.54
332.738	-18.02
332.951	13.27
333.164	39.15
333.377	39.04
333.59	71.5
333.803	61.29
334.016	44.92
334.229	26.5
334.442	28.39
334.655	34.22
334.868	38.89
335.081	41.78
335.294	37.15
335.507	29.81
335.72	13.73
335.933	3.93
336.146	-1.6
336.359	19.1
336.572	-1.55
336.785	-7.71
336.997	-4.5
337.21	15.98
337.423	3.06
337.636	14.09
337.849	24.68
338.062	24.37
338.274	27.6
338.487	8.67
338.7	11.18
338.913	-18.44
339.125	-24.42
339.338	-23.28
339.551	-2.41
339.763	14
339.976	42.11
340.189	55.89
340.402	58.75
340.614	43.84
340.827	29.53
341.039	8.25
341.252	-19.81
341.465	-34.75
341.677	-39.26
341.89	-74.92
342.102	-49.89
342.315	-32.99
342.527	-46.07
342.74	-47.84
342.952	15.58
343.165	6.73
343.377	22.08
343.59	8.22
343.802	46.22
344.015	33.73
344.227	58.85
344.44	53.81
344.652	58.53
344.864	40.04
345.077	67.06
345.289	39.84
345.502	48.88
345.714	46.64
345.926	54.75
346.139	30.09
346.351	37.5
346.563	34
346.775	50.37
346.988	24.56
347.2	16.59
347.412	-13.28
347.624	-17.72
347.837	-12.52
348.049	15.48
348.261	43.6
348.473	42.6
348.685	-2.21
348.897	-19.85
349.11	-30.93
349.322	-44.19
349.534	-8.29
349.746	22.65
349.958	36.03
350.17	29.38
350.382	28.47
350.594	19.88
350.806	15.28
351.018	-0.05
351.23	3.04
351.442	-1.96
351.654	1.27
351.866	7.17
352.078	24.15
352.29	20.23
352.502	49.54
352.714	64.34
352.926	50.41
353.138	39.23
353.35	12.87
353.561	-5.96
353.773	-34.67
353.985	-24.82
354.197	-25.54
354.409	-10.71
354.621	-5.44
354.832	5.65
355.044	-16.34
355.256	-23.11
355.468	-21.48
355.679	-35.7
355.891	-32.01
356.103	-33.69
356.314	-33.78
356.526	-25.83
356.738	5.34
356.949	0.07
357.161	24.64
357.373	28.84
357.584	31.11
357.796	18.82
358.008	6.4
358.219	17.16
358.431	19.2
358.642	30.88
358.854	36.2
359.065	39.27
359.277	6.56
359.488	-1.77
359.7	-27.33
359.911	-45.02
360.123	-42.75
360.334	-39.55
360.546	-45.05
360.757	-36.58
360.969	-25.96
361.18	-6.5
361.391	-5.74
361.603	-9.04
361.814	20.08
362.025	-2.04
362.237	-7.23
362.448	3.94
362.659	32.26
362.871	16.92
363.082	25.17
363.293	28.51
363.504	28.02
363.716	0.29
363.927	3.86
364.138	-6.47
364.349	-39.82
364.56	-46.89
364.772	-60.5
364.983	-43.15
365.194	-50.48
365.405	-27.97
365.616	-7.52
365.827	4.18
366.038	-7.37
366.25	15.41
366.461	-0.81
366.672	5.11
366.883	21.27
367.094	15.69
367.305	-7.17
367.516	17.79
367.727	4
367.938	-20
368.149	-33.24
368.36	-13.95
368.571	-18.29
368.781	-25.52
368.992	-31.68
369.203	0.56
369.414	-15.85
369.625	-26.88
369.836	-29.91
370.047	-35.77
370.258	-46.05
370.468	-38.63
370.679	-70.66
370.89	-54.94
371.101	-10.83
371.312	-44.43
371.522	-41.33
371.733	-19.97
371.944	-9.09
372.155	-10.04
372.365	-22.84
372.576	-8.74
372.787	-7.71
372.997	-13.01
373.208	-17.07
373.419	25.19
373.629	-1.29
373.84	4.53
374.05	-14.76
374.261	-0.15
374.472	-35.05
374.682	1.33
374.893	-6.61
375.103	22.31
375.314	5.09
375.524	13.99
375.735	15.45
375.945	15.94
376.156	-9.23
376.366	3.27
376.577	14.49
376.787	9.63
376.997	28.33
377.208	37.24
377.418	9.86
377.629	18.09
377.839	4.58
378.049	-3.26
378.26	12.38
378.47	40.58
378.68	32.37
378.89	37.43
379.101	34.12
379.311	3.26
379.521	-25.26
379.732	-22.49
379.942	-46.35
380.152	-43.02
380.362	-22.45
380.572	-15.15
380.783	0.12
380.993	20.47
381.203	26.45
381.413	28.78
381.623	31.65
381.833	19.7
382.043	-2.68
382.253	-10.95
382.463	-11.83
382.674	-13.26
382.884	-21
383.094	-14.12
383.304	-5.03
383.514	-3.64
383.724	6.86
383.934	-5.51
384.144	-12.28
384.353	-8.24
384.563	-3.74
384.773	-4.04
384.983	10.98
385.193	18.48
385.403	-0.34
385.613	-3.38
385.823	-10.52
386.033	-6.27
386.242	-12.13
386.452	-1.5
386.662	-9.72
386.872	-1.97
387.082	-0.27
387.291	-8.56
387.501	-2.08
387.711	5.75
387.921	-9.19
388.13	-6.5
388.34	11.18
388.55	3.34
388.759	3.37
388.969	13.51
389.179	8.6
389.388	6.61
389.598	6.66
389.807	3.25
390.017	1.76
390.227	0.15
390.436	-5.71
390.646	0.09
390.855	3
391.065	5.83
391.274	4.15
391.484	1.9
391.693	1.39
391.903	1.47
392.112	2.38
392.322	7.28
392.531	13.25
392.74	11.89
392.95	6.9
393.159	5.12
393.369	5.49
393.578	1.83
393.787	0.72
393.997	4.97
394.206	3.3
394.415	2.42
394.625	3.09
394.834	1.68
395.043	0.19
395.252	3.16
395.462	4.65
395.671	6.89
395.88	8.73
396.089	9.8
396.298	8
396.508	7.07
396.717	6.18
396.926	5.6
397.135	5.78
397.344	5.2
397.553	5.15
397.762	5.79
397.971	5.66
398.181	5.24
398.39	3.85
398.599	3.32
398.808	2.47
399.017	3.47
399.226	3.84
399.435	6.02
399.644	6.4
399.853	6
400.062	5.22
400.27	5.08
400.479	4.43
400.688	3.56
400.897	4.19
401.106	4.17
401.315	3.59
401.524	3.63
401.733	4.46
401.941	4.5
402.15	4.7
402.359	4.69
402.568	5.03
402.777	4.84
402.985	4.59
403.194	4.55
403.403	4.99
403.612	4.44
403.82	4.28
404.029	4.37
404.238	4.04
404.446	4.01
404.655	3.8
404.864	3.76
405.072	3.56
405.281	3.96
405.489	3.57
405.698	3.71
405.906	3.64
406.115	3.54
406.324	3.22
406.532	3.33
406.741	3.61
406.949	3.52
407.158	3.61
407.366	3.79
407.574	4
407.783	3.89
407.991	3.96
408.2	4.17
408.408	3.87
408.617	3.68
408.825	3.42
409.033	3.54
409.242	3.53
409.45	3.77
409.658	3.62
409.867	3.97
410.075	3.77
410.283	3.57
410.491	3.48
410.7	3.41
410.908	3.4
411.116	3.59
411.324	3.66
411.533	3.71
411.741	3.92
411.949	3.98
412.157	3.82
412.365	3.89
412.573	3.82
412.781	3.82
412.99	3.56
413.198	3.82
413.406	3.73
413.614	3.76
413.822	3.72
414.03	3.67
414.238	3.37
414.446	3.53
414.654	3.21
414.862	3.25
415.07	3.38
415.278	3.63
415.486	3.1
415.694	3.33
415.902	3.21
416.109	3.01
416.317	2.97
416.525	2.83
416.733	2.97
416.941	3.1
417.149	3.17
417.357	3.12
417.564	3.55
417.772	3.47
417.98	3.38
418.188	3.33
418.395	3.26
418.603	3.36
418.811	3.08
419.019	2.88
419.226	3.3
419.434	3.56
419.642	3.19
419.849	3.46
420.057	3.81
420.265	3.49
420.472	2.97
420.68	3.32
420.887	3.14
421.095	3.14
421.302	3.06
421.51	3.45
421.717	3.4
421.925	3.47
422.132	3.15
422.34	3.08
422.547	2.95
422.755	2.96
422.962	2.98
423.17	3.01
423.377	3.11
423.585	3.19
423.792	3.07
423.999	3.21
424.207	3.2
424.414	3.23
424.621	3.23
424.829	3.15
425.036	2.98
425.243	2.93
425.451	2.8
425.658	2.6
425.865	2.8
426.072	2.93
426.28	3.08
426.487	2.91
426.694	3.05
426.901	3.11
427.108	3.1
427.315	3
427.523	3.44
427.73	3.41
427.937	2.99
428.144	2.8
428.351	2.77
428.558	2.66
428.765	2.58
428.972	2.58
429.179	2.71
429.386	2.84
429.593	2.66
429.8	2.51
430.007	2.82
430.214	2.88
430.421	2.92
430.628	2.86
430.835	2.7
431.042	2.94
431.249	2.87
431.456	2.93
431.662	3.23
431.869	3.54
432.076	3.46
432.283	3.45
432.49	3.33
432.697	3.23
432.903	2.86
433.11	2.71
433.317	2.86
433.524	3.02
433.73	2.89
433.937	3.34
434.144	3.26
434.35	3.19
434.557	3.06
434.764	3.1
434.97	2.95
435.177	3.12
435.384	2.78
435.59	2.89
435.797	3.08
436.003	3.16
436.21	3.06
436.416	3.24
436.623	3.01
436.829	2.92
437.036	2.92
437.242	2.92
437.449	2.94
437.655	2.99
437.862	2.93
438.068	2.98
438.275	3.07
438.481	3.2
438.687	3.22
438.894	3.2
439.1	3.06
439.307	3.07
439.513	2.99
439.719	3.14
439.926	3.19
440.132	3.22
440.338	3.11
440.544	3.16
440.751	2.99
440.957	3.05
441.163	2.78
441.369	2.83
441.575	2.63
441.782	2.52
441.988	2.27
442.194	2.43
442.4	2.39
442.606	2.69
442.812	2.86
443.018	3.02
443.224	3.12
443.431	3.2
443.637	3.02
443.843	2.81
444.049	2.85
444.255	2.83
444.461	2.76
444.667	2.67
444.873	2.86
445.079	2.85
445.284	2.94
445.49	2.76
445.696	2.59
445.902	2.51
446.108	2.38
446.314	2.2
446.52	2.44
446.726	2.8
446.931	2.77
447.137	2.89
447.343	3.1
447.549	2.75
447.755	2.6
447.96	2.62
448.166	2.47
448.372	2.38
448.578	2.55
448.783	2.56
448.989	2.67
449.195	2.9
449.4	2.83
449.606	2.83
449.812	2.72
450.017	2.83
450.223	2.67
450.428	2.45
450.634	2.58
450.84	2.75
451.045	2.52
451.251	2.5
451.456	2.89
451.662	2.98
451.867	2.9
452.073	2.83
452.278	2.98
452.483	3.06
452.689	2.95
452.894	3.09
453.1	3.21
453.305	2.92
453.51	2.7
453.716	2.59
453.921	2.6
454.127	2.53
454.332	2.6
454.537	2.55
454.742	2.63
454.948	2.59
455.153	2.56
455.358	2.68
455.563	2.9
455.769	2.95
455.974	2.82
456.179	2.78
456.384	2.73
456.589	2.64
456.795	2.43
457	2.42
457.205	2.62
457.41	2.53
457.615	2.46
457.82	2.54
458.025	2.7
458.23	2.49
458.435	2.76
458.64	2.54
458.845	2.67
459.05	2.59
459.255	2.57
459.46	2.43
459.665	2.56
459.87	2.51
460.075	2.36
460.28	2.48
460.485	2.55
460.69	2.63
460.895	2.44
461.099	2.43
461.304	2.58
461.509	2.66
461.714	2.45
461.919	2.63
462.123	2.57
462.328	2.58
462.533	2.25
462.738	2.4
462.942	2.27
463.147	2.46
463.352	2.51
463.556	2.56
463.761	2.71
463.966	2.9
464.17	2.93
464.375	2.66
464.58	2.67
464.784	2.57
464.989	2.38
465.193	2.32
465.398	2.37
465.602	2.69
465.807	2.58
466.011	2.77
466.216	2.83
466.42	2.94
466.625	2.9
466.829	3.05
467.034	3.04
467.238	3.12
467.443	3.04
467.647	2.68
467.851	2.67
468.056	2.77
468.26	2.68
468.464	2.61
468.669	2.91
468.873	2.98
469.077	2.89
469.282	2.82
469.486	3.03
469.69	2.98
469.894	2.95
470.099	3.04
470.303	3.2
470.507	3
470.711	2.86
470.915	2.8
471.119	2.7
471.324	2.62
471.528	2.58
471.732	2.69
471.936	2.64
472.14	2.77
472.344	2.75
472.548	2.93
472.752	3.08
472.956	3.28
473.16	3.08
473.364	2.96
473.568	2.98
473.772	2.96
473.976	2.89
474.18	2.9
474.384	2.97
474.588	2.77
474.792	2.55
474.995	2.52
475.199	2.65
475.403	2.85
475.607	2.93
475.811	2.96
476.015	3.02
476.218	3.03
476.422	2.87
476.626	3.02
476.83	3.22
477.033	3.04
477.237	2.86
477.441	2.91
477.644	2.72
477.848	2.61
478.052	2.51
478.255	2.5
478.459	2.55
478.663	2.81
478.866	2.81
479.07	3
479.273	3.3
479.477	3.38
479.681	3.29
479.884	3.29
480.088	3.19
480.291	3
480.495	2.84
480.698	2.81
480.901	2.94
481.105	3.12
481.308	3.13
481.512	3.07
481.715	3.12
481.919	3.09
482.122	3
482.325	2.99
482.529	3.06
482.732	2.98
482.935	2.81
483.138	2.73
483.342	2.83
483.545	2.98
483.748	3.11
483.952	3.19
484.155	3.43
484.358	3.37
484.561	3.2
484.764	3.21
484.967	3.29
485.171	3.27
485.374	3.13
485.577	3.28
485.78	3.23
485.983	3.15
486.186	2.99
486.389	3.06
486.592	2.96
486.795	2.99
486.998	3
487.201	3.11
487.404	3.19
487.607	3.38
487.81	3.37
488.013	3.42
488.216	3.41
488.419	3.51
488.622	3.18
488.825	3.11
489.028	3.07
489.231	3.06
489.433	2.78
489.636	2.83
489.839	2.69
490.042	2.6
490.245	2.52
490.447	2.69
490.65	2.77
490.853	2.98
491.056	3.12
491.258	3.11
491.461	3.13
491.664	3.19
491.866	2.98
492.069	3.02
492.272	3.07
492.474	3.03
492.677	3.05
492.879	3.21
493.082	3.19
493.285	3.35
493.487	3.27
493.69	3.15
493.892	2.98
494.095	2.98
494.297	2.77
494.5	2.94
494.702	2.97
494.905	3.12
495.107	3.08
495.309	3.21
495.512	3.17
495.714	3.3
495.917	3.32
496.119	3.32
496.321	3.37
496.524	3.45
496.726	3.4
496.928	3.47
497.13	3.44
497.333	3.42
497.535	3.45
497.737	3.34
497.939	3.24
498.142	3.37
498.344	3.24
498.546	3.09
498.748	3.2
498.95	3.31
499.152	3.16
499.355	3.27
499.557	3.38
499.759	3.42
499.961	3.35
500.163	3.46
500.365	3.42
500.567	3.43
500.769	3.25
500.971	3.32
501.173	3.15
501.375	3.22
501.577	3.11
501.779	3.19
501.981	3.13
502.183	3.27
502.385	3.18
502.587	3.14
502.788	3.23
502.99	3.3
503.192	3.3
503.394	3.31
503.596	3.33
503.798	3.37
503.999	3.34
504.201	3.33
504.403	3.4
504.605	3.47
504.806	3.36
505.008	3.27
505.21	3.33
505.411	3.38
505.613	3.3
505.815	3.34
506.016	3.51
506.218	3.55
506.42	3.42
506.621	3.45
506.823	3.48
507.024	3.43
507.226	3.35
507.427	3.3
507.629	3.46
507.83	3.48
508.032	3.37
508.233	3.45
508.435	3.57
508.636	3.59
508.838	3.45
509.039	3.51
509.24	3.5
509.442	3.52
509.643	3.36
509.845	3.45
510.046	3.47
510.247	3.44
510.448	3.39
510.65	3.49
510.851	3.62
511.052	3.64
511.254	3.54
511.455	3.69
511.656	3.72
511.857	3.76
512.058	3.75
512.26	3.83
512.461	3.67
512.662	3.71
512.863	3.44
513.064	3.42
513.265	3.49
513.466	3.58
513.667	3.48
513.868	3.66
514.069	3.78
514.27	3.79
514.471	3.7
514.672	3.75
514.873	3.79
515.074	3.78
515.275	3.65
515.476	3.74
515.677	3.81
515.878	3.83
516.079	3.69
516.28	3.82
516.481	3.95
516.682	3.95
516.882	3.87
517.083	4.04
517.284	3.89
517.485	3.78
517.686	3.73
517.886	3.71
518.087	3.68
518.288	3.86
518.488	3.78
518.689	3.83
518.89	3.76
519.091	3.73
519.291	3.64
519.492	3.74
519.692	3.76
519.893	3.96
520.094	3.96
520.294	3.88
520.495	3.81
520.695	3.8
520.896	3.75
521.096	3.85
521.297	3.94
521.497	4.08
521.698	3.97
521.898	3.91
522.099	3.91
522.299	4
522.499	3.9
522.7	4.01
522.9	4.01
523.101	4.04
523.301	3.99
523.501	4.01
523.702	4.02
523.902	4.15
524.102	4.21
524.302	4.19
524.503	4.24
524.703	4.25
524.903	4.15
525.103	4.02
525.304	4.09
525.504	4.19
525.704	4.19
525.904	4.22
526.104	4.26
526.304	4.27
526.504	4.24
526.705	4.28
526.905	4.37
527.105	4.45
527.305	4.43
527.505	4.33
527.705	4.27
527.905	4.25
528.105	4.17
528.305	4.05
528.505	4.15
528.705	4.25
528.905	4.14
529.105	4.14
529.304	4.34
529.504	4.41
529.704	4.32
529.904	4.37
530.104	4.43
530.304	4.46
530.503	4.37
530.703	4.34
530.903	4.34
531.103	4.39
531.303	4.23
531.502	4.26
531.702	4.39
531.902	4.5
532.101	4.38
532.301	4.39
532.501	4.39
532.7	4.4
532.9	4.28
533.1	4.38
533.299	4.36
533.499	4.44
533.698	4.34
533.898	4.38
534.097	4.4
534.297	4.53
534.496	4.54
534.696	4.62
534.895	4.77
535.095	4.8
535.294	4.78
535.494	4.67
535.693	4.65
535.892	4.63
536.092	4.53
536.291	4.5
536.491	4.5
536.69	4.59
536.889	4.43
537.088	4.44
537.288	4.58
537.487	4.74
537.686	4.65
537.886	4.8
538.085	4.86
538.284	4.84
538.483	4.74
538.682	4.86
538.882	4.88
539.081	4.96
539.28	4.88
539.479	4.89
539.678	4.85
539.877	4.97
540.076	4.96
540.275	5.07
540.474	5.17
540.673	5.22
540.872	5.11
541.071	5.13
541.27	5.05
541.469	5.03
541.668	5.08
541.867	5.09
542.066	5.17
542.265	5.29
542.464	5.24
542.663	5.27
542.862	5.43
543.06	5.38
543.259	5.35
543.458	5.46
543.657	5.47
543.856	5.42
544.054	5.47
544.253	5.46
544.452	5.39
544.651	5.43
544.849	5.37
545.048	5.37
545.247	5.4
545.445	5.52
545.644	5.48
545.843	5.48
546.041	5.55
546.24	5.72
546.438	5.72
546.637	5.76
546.836	5.98
547.034	6.05
547.233	6.07
547.431	6.09
547.63	6.17
547.828	6.09
548.027	6.09
548.225	5.99
548.423	6.06
548.622	6.12
548.82	6.12
549.019	6.1
549.217	6.28
549.415	6.33
549.614	6.37
549.812	6.43
550.01	6.44
550.209	6.5
550.407	6.52
550.605	6.56
550.803	6.62
551.002	6.67
551.2	6.57
551.398	6.72
551.596	6.8
551.794	6.92
551.993	7.05
552.191	7.09
552.389	7.11
552.587	7.13
552.785	7.1
552.983	7.15
553.181	7.35
553.379	7.35
553.577	7.3
553.775	7.45
553.973	7.48
554.171	7.54
554.369	7.55
554.567	7.61
554.765	7.62
554.963	7.72
555.161	7.65
555.359	7.83
555.557	8.01
555.755	8.04
555.952	8.13
556.15	8.24
556.348	8.26
556.546	8.36
556.744	8.41
556.941	8.44
557.139	8.53
557.337	8.62
557.535	8.6
557.732	8.76
557.93	8.89
558.128	8.98
558.325	9.06
558.523	9.11
558.721	9.23
558.918	9.24
559.116	9.22
559.313	9.19
559.511	9.33
559.708	9.27
559.906	9.31
560.104	9.42
560.301	9.68
560.498	9.81
560.696	9.91
560.893	10.01
561.091	10.16
561.288	10.16
561.486	10.24
561.683	10.34
561.88	10.48
562.078	10.56
562.275	10.52
562.473	10.52
562.67	10.74
562.867	10.89
563.064	11.05
563.262	11.25
563.459	11.36
563.656	11.44
563.853	11.41
564.051	11.36
564.248	11.52
564.445	11.65
564.642	11.67
564.839	11.74
565.036	12
565.234	12.14
565.431	12.2
565.628	12.28
565.825	12.43
566.022	12.57
566.219	12.57
566.416	12.6
566.613	12.62
566.81	12.75
567.007	12.63
567.204	12.61
567.401	12.67
567.598	12.72
567.795	12.69
567.991	12.81
568.188	12.96
568.385	13.08
568.582	13.27
568.779	13.31
568.976	13.4
569.172	13.62
569.369	13.68
569.566	13.69
569.763	13.82
569.96	13.88
570.156	13.76
570.353	13.77
570.55	13.82
570.746	13.95
570.943	13.96
571.14	14.01
571.336	14.12
571.533	14.21
571.729	14.2
571.926	14.27
572.123	14.36
572.319	14.38
572.516	14.41
572.712	14.46
572.909	14.59
573.105	14.72
573.302	14.78
573.498	14.87
573.695	14.81
573.891	14.84
574.087	14.82
574.284	14.84
574.48	14.75
574.677	14.83
574.873	14.82
575.069	14.9
575.266	15.01
575.462	14.98
575.658	15.15
575.854	15.28
576.051	15.3
576.247	15.32
576.443	15.43
576.639	15.38
576.835	15.29
577.032	15.24
577.228	15.32
577.424	15.42
577.62	15.4
577.816	15.45
578.012	15.5
578.208	15.39
578.404	15.42
578.6	15.49
578.796	15.54
578.993	15.51
579.189	15.6
579.384	15.49
579.58	15.4
579.776	15.35
579.972	15.21
580.168	15.13
580.364	15.15
580.56	15.21
580.756	15.25
580.952	15.23
581.148	15.23
581.343	15.21
581.539	15.18
581.735	15.13
581.931	15.31
582.127	15.3
582.322	15.22
582.518	15.32
582.714	15.38
582.909	15.22
583.105	15.26
583.301	15.23
583.496	15.22
583.692	14.99
583.888	15.08
584.083	15.11
584.279	15.26
584.474	15.27
584.67	15.39
584.866	15.35
585.061	15.27
585.257	15.31
585.452	15.17
585.648	15.06
585.843	15.09
586.039	15.01
586.234	14.87
586.429	14.89
586.625	15.11
586.82	15.05
587.015	15.05
587.211	14.96
587.406	14.9
587.601	14.75
587.797	14.69
587.992	14.69
588.187	14.95
588.383	15.05
588.578	15.1
588.773	15.2
588.968	15.26
589.163	15.19
589.359	15.07
589.554	15.05
589.749	15.2
589.944	15.31
590.139	15.3
590.334	15.33
590.529	15.41
590.724	15.36
590.919	15.34
591.114	15.29
591.309	15.48
591.504	15.51
591.699	15.38
591.894	15.38
592.089	15.35
592.284	15.31
592.479	15.34
592.674	15.37
592.869	15.46
593.064	15.65
593.259	15.76
593.454	15.79
593.648	15.88
593.843	15.94
594.038	15.9
594.233	15.78
594.428	15.82
594.622	15.87
594.817	15.87
595.012	15.9
595.206	15.95
595.401	16.1
595.596	16.15
595.79	16.21
595.985	16.37
596.18	16.49
596.374	16.47
596.569	16.54
596.763	16.54
596.958	16.45
597.153	16.5
597.347	16.49
597.542	16.7
597.736	16.74
597.931	16.86
598.125	16.93
598.319	17.15
598.514	17.03
598.708	17.08
598.903	17.09
599.097	17.14
599.291	17.1
599.486	17.1
599.68	17.11
599.874	17.22
600.069	17.19
600.263	17.19
600.457	17.26
600.651	17.37
600.846	17.33
601.04	17.4
601.234	17.29
601.428	17.44
601.622	17.45
601.817	17.55
602.011	17.56
602.205	17.74
602.399	17.58
602.593	17.58
602.787	17.49
602.981	17.46
603.175	17.46
603.369	17.41
603.563	17.46
603.757	17.62
603.951	17.72
604.145	17.67
604.339	17.81
604.533	17.65
604.727	17.52
604.921	17.37
605.115	17.37
605.309	17.35
605.502	17.33
605.696	17.28
605.89	17.22
606.084	17.18
606.278	17.06
606.471	17.02
606.665	16.93
606.859	16.88
607.053	16.82
607.246	16.84
607.44	16.76
607.634	16.71
607.827	16.71
608.021	16.54
608.214	16.49
608.408	16.55
608.602	16.53
608.795	16.38
608.989	16.44
609.182	16.35
609.376	16.23
609.569	16.25
609.763	16.14
609.956	16.06
610.15	15.95
610.343	15.77
610.537	15.63
610.73	15.82
610.923	15.62
611.117	15.58
611.31	15.54
611.504	15.5
611.697	15.29
611.89	15.33
612.083	15.21
612.277	15.21
612.47	15.06
612.663	14.89
612.856	14.76
613.05	14.67
613.243	14.52
613.436	14.39
613.629	14.41
613.822	14.45
614.015	14.46
614.209	14.4
614.402	14.41
614.595	14.33
614.788	14.24
614.981	14.17
615.174	14.05
615.367	13.92
615.56	13.77
615.753	13.6
615.946	13.46
616.139	13.57
616.332	13.73
616.525	13.74
616.718	13.82
616.911	13.85
617.103	13.82
617.296	13.74
617.489	13.66
617.682	13.6
617.875	13.61
618.067	13.51
618.26	13.29
618.453	13.42
618.646	13.35
618.838	13.26
619.031	13.27
619.224	13.33
619.417	13.16
619.609	13.09
619.802	13.06
619.994	13
620.187	12.98
620.38	12.9
620.572	12.88
620.765	12.87
620.957	12.82
621.15	12.65
621.342	12.6
621.535	12.7
621.727	12.63
621.92	12.55
622.112	12.54
622.305	12.64
622.497	12.43
622.69	12.37
622.882	12.43
623.074	12.5
623.267	12.46
623.459	12.36
623.651	12.29
623.844	12.24
624.036	12.2
624.228	12.12
624.42	12.19
624.613	12.41
624.805	12.34
624.997	12.3
625.189	12.34
625.381	12.44
625.574	12.28
625.766	12.19
625.958	12.18
626.15	12.22
626.342	12.08
626.534	12.11
626.726	12.15
626.918	12.21
627.11	12.12
627.302	12.02
627.494	11.92
627.686	11.94
627.878	11.81
628.07	11.68
628.262	11.72
628.454	11.72
628.646	11.68
628.838	11.66
629.029	11.65
629.221	11.67
629.413	11.55
629.605	11.45
629.797	11.42
629.989	11.48
630.18	11.47
630.372	11.52
630.564	11.53
630.755	11.53
630.947	11.55
631.139	11.43
631.33	11.37
631.522	11.48
631.714	11.48
631.905	11.38
632.097	11.41
632.289	11.36
632.48	11.28
632.672	11.15
632.863	10.95
633.055	10.92
633.246	11.01
633.438	10.86
633.629	10.9
633.821	11.05
634.012	11.09
634.203	10.94
634.395	11.01
634.586	11.04
634.777	10.91
634.969	10.75
635.16	10.81
635.351	10.78
635.543	10.72
635.734	10.74
635.925	10.79
636.117	10.82
636.308	10.69
636.499	10.64
636.69	10.58
636.881	10.58
637.073	10.64
637.264	10.68
637.455	10.68
637.646	10.84
637.837	10.84
638.028	10.62
638.219	10.74
638.41	10.78
638.601	10.63
638.792	10.72
638.983	10.66
639.174	10.41
639.365	10.41
639.556	10.42
639.747	10.28
639.938	10.38
640.129	10.54
640.32	10.33
640.511	10.29
640.701	10.34
640.892	10.35
641.083	10.37
641.274	10.49
641.465	10.53
641.655	10.36
641.846	10.28
642.037	10.22
642.228	10.13
642.418	10.15
642.609	10.14
642.8	10.12
642.99	9.94
643.181	10.1
643.372	10.11
643.562	10.09
643.753	10.09
643.943	10.09
644.134	9.9
644.324	9.8
644.515	9.8
644.705	9.92
644.896	9.99
645.086	10.13
645.277	10.06
645.467	10.09
645.658	9.91
645.848	9.91
646.038	9.89
646.229	9.86
646.419	9.79
646.61	9.79
646.8	9.71
646.99	9.62
647.18	9.6
647.371	9.68
647.561	9.55
647.751	9.54
647.941	9.54
648.132	9.51
648.322	9.46
648.512	9.63
648.702	9.64
648.892	9.51
649.082	9.55
649.272	9.35
649.462	9.14
649.653	9.06
649.843	9.11
650.033	9.08
650.223	9.11
650.413	9.2
650.603	9.18
650.793	9.17
650.983	9.12
651.172	9.08
651.362	9
651.552	8.94
651.742	8.8
651.932	8.69
652.122	8.77
652.312	8.75
652.502	8.75
652.691	8.8
652.881	8.85
653.071	8.78
653.261	8.64
653.45	8.49
653.64	8.43
653.83	8.33
654.019	8.33
654.209	8.46
654.399	8.69
654.588	8.62
654.778	8.54
654.968	8.33
655.157	8.23
655.347	7.95
655.536	7.86
655.726	7.81
655.915	7.78
656.105	7.69
656.294	7.66
656.484	7.41
656.673	7.36
656.863	7.36
657.052	7.13
657.241	6.89
657.431	6.89
657.62	6.58
657.809	6.32
657.999	6.22
658.188	6.13
658.377	6.1
658.567	6.14
658.756	6.07
658.945	5.94
659.134	5.87
659.324	5.74
659.513	5.72
659.702	5.49
659.891	5.49
660.08	5.45
660.269	5.26
660.458	5.23
660.648	5.35
660.837	5.22
661.026	5.12
661.215	5.12
661.404	4.76
661.593	4.83
661.782	4.62
661.971	4.64
662.16	4.61
662.349	4.72
662.538	4.39
662.726	4.63
662.915	4.5
663.104	4.28
663.293	4.24
663.482	4.44
663.671	4.23
663.86	4
664.048	3.99
664.237	4
664.426	3.66
664.615	3.7
664.803	3.85
664.992	3.97
665.181	3.88
665.369	3.83
665.558	3.8
665.747	3.65
665.935	3.68
666.124	3.68
666.312	3.85
666.501	3.78
666.69	3.68
666.878	3.57
667.067	3.44
667.255	3.42
667.444	3.72
667.632	3.94
667.82	4.02
668.009	4.05
668.197	4.02
668.386	3.79
668.574	3.93
668.762	3.89
668.951	3.85
669.139	3.84
669.327	3.76
669.516	3.78
669.704	3.81
669.892	4.02
670.08	4.16
670.269	4.13
670.457	3.95
670.645	3.84
670.833	3.77
671.021	3.75
671.21	3.85
671.398	4.03
671.586	4.03
671.774	4.05
671.962	3.99
672.15	3.87
672.338	3.66
672.526	3.78
672.714	3.63
672.902	3.64
673.09	3.96
673.278	4.28
673.466	4.31
673.654	4.73
673.842	4.76
674.03	4.75
674.218	4.48
674.405	4.44
674.593	4.2
674.781	4.41
674.969	4.26
675.157	4.58
675.344	4.65
675.532	4.61
675.72	4.67
675.908	4.92
676.095	4.67
676.283	4.9
676.471	5.16
676.658	5.15
676.846	5
677.033	5.22
677.221	5.01
677.409	4.9
677.596	4.83
677.784	4.99
677.971	5.01
678.159	5.25
678.346	5.41
678.534	5.44
678.721	5.66
678.909	5.67
679.096	5.66
679.283	5.83
679.471	5.92
679.658	5.92
679.846	6.22
680.033	6.54
680.22	6.45
680.408	6.53
680.595	6.59
680.782	6.39
680.969	6.33
681.157	6.23
681.344	6.31
681.531	6.23
681.718	6.25
681.905	6.35
682.093	6.55
682.28	6.74
682.467	6.97
682.654	7.16
682.841	7.06
683.028	7.35
683.215	7.51
683.402	7.42
683.589	7.7
683.776	7.91
683.963	7.75
684.15	7.95
684.337	7.98
684.524	7.87
684.711	8.03
684.898	8.15
685.085	8.03
685.271	8.47
685.458	8.81
685.645	8.82
685.832	9.12
686.019	9.34
686.205	9.47
686.392	9.46
686.579	9.72
686.766	9.96
686.952	10.23
687.139	10.6
687.326	10.74
687.512	11.07
687.699	11.12
687.886	11.25
688.072	11.11
688.259	11.67
688.445	11.95
688.632	12.05
688.818	12.64
689.005	12.89
689.191	13.22
689.378	13.55
689.564	14.25
689.751	14.19
689.937	14.96
690.124	15.12
690.31	15.44
690.496	15.73
690.683	16.58
690.869	16.91
691.055	17.53
691.242	18.22
691.428	18.81
691.614	19.28
691.8	19.79
691.987	20.2
692.173	20.71
692.359	21.36
692.545	21.91
692.731	22.12
692.918	22.77
693.104	22.96
693.29	23.5
693.476	23.81
693.662	24.73
693.848	25.11
694.034	25.9
694.22	26.21
694.406	26.96
694.592	27.64
694.778	28.06
694.964	28.38
695.15	28.89
695.336	29.42
695.522	30.02
695.708	30.93
695.894	31.71
696.08	32.51
696.265	32.97
696.451	33.03
696.637	33.8
696.823	34.29
697.009	34.78
697.194	35.28
697.38	36.07
697.566	36.29
697.751	36.74
697.937	37.25
698.123	37.98
698.308	38.97
698.494	39.45
698.68	40.21
698.865	40.69
699.051	41.56
699.236	41.87
699.422	42.61
699.607	42.85
699.793	43.47
699.978	43.21
700.164	43.39
700.349	44.17
700.535	44.96
700.72	45.21
700.906	46.2
701.091	46.71
701.276	46.83
701.462	47.59
701.647	48.57
701.832	48.93
702.018	49.7
702.203	50.28
702.388	50.22
702.573	50.25
702.759	50.9
702.944	50.83
703.129	51.12
703.314	51.58
703.499	52.2
703.684	52.53
703.87	53.56
704.055	54.27
704.24	54.88
704.425	55.18
704.61	55.54
704.795	55.5
704.98	55.25
705.165	55.36
705.35	55.63
705.535	55.53
705.72	56.31
705.905	56.78
706.09	57.67
706.275	57.86
706.459	58.12
706.644	58.03
706.829	58.64
707.014	58.3
707.199	58.67
707.384	59.52
707.568	59.71
707.753	60.36
707.938	61.02
708.123	61.29
708.307	60.81
708.492	61.05
708.677	60.13
708.861	59.55
709.046	59.38
709.231	59.9
709.415	60.42
709.6	61.14
709.784	61.3
709.969	62.26
710.153	62.23
710.338	62.23
710.522	62.2
710.707	63.2
710.891	62.58
711.076	62.95
711.26	62.63
711.445	62.91
711.629	62.91
711.813	63.23
711.998	63.5
712.182	63.57
712.366	64.24
712.551	64.56
712.735	64.66
712.919	64.78
713.103	65.82
713.288	65.29
713.472	64.84
713.656	65.81
713.84	66.14
714.024	65.82
714.208	66.47
714.393	67.01
714.577	67.07
714.761	66.89
714.945	67.59
715.129	67.29
715.313	67.33
715.497	67.1
715.681	67.52
715.865	67.09
716.049	67.53
716.233	68
716.417	68.28
716.601	68.73
716.785	68.75
716.968	68.86
717.152	69.01
717.336	69.18
717.52	68.41
717.704	68.98
717.888	69.18
718.071	68.52
718.255	68.64
718.439	69.26
718.622	69.84
718.806	69.85
718.99	69.53
719.174	69.83
719.357	70.24
719.541	69.29
719.724	69.76
719.908	71.18
720.092	71.55
720.275	71.71
720.459	72.9
720.642	72.37
720.826	71.92
721.009	71.61
721.193	70.68
721.376	70.28
721.559	71.44
721.743	72.23
721.926	72.48
722.11	72.57
722.293	72.33
722.476	70.93
722.66	71.13
722.843	70.89
723.026	71.41
723.21	71.53
723.393	73
723.576	72.97
723.759	72.49
723.942	72.93
724.126	73.44
724.309	73.02
724.492	72.7
724.675	73.28
724.858	73.45
725.041	74.1
725.224	74.33
725.407	74.02
725.59	74.44
725.774	74.15
725.957	73.1
726.14	72.99
726.322	73.83
726.505	73.64
726.688	74.34
726.871	74.17
727.054	74.77
727.237	74.79
727.42	75.53
727.603	75.83
727.786	76.46
727.968	76.52
728.151	76.32
728.334	75.94
728.517	75.84
728.699	76.43
728.882	76.18
729.065	76.9
729.248	77.99
729.43	78.63
729.613	79.86
729.796	80.22
729.978	78.77
730.161	77.49
730.343	78.07
730.526	76.93
730.708	76.51
730.891	78.2
731.073	78.27
731.256	76.88
731.438	77.61
731.621	78.49
731.803	78.94
731.986	79.88
732.168	80.32
732.35	80
732.533	79.68
732.715	78.67
732.898	79.96
733.08	79.98
733.262	79.61
733.444	79.37
733.627	78.95
733.809	78.47
733.991	79.52
734.173	80.29
734.355	81.14
734.538	81.78
734.72	80.51
734.902	80.2
735.084	79.42
735.266	79.98
735.448	80.47
735.63	80.47
735.812	80.59
735.994	81.91
736.176	81.55
736.358	81.85
736.54	83.56
736.722	83.09
736.904	82.17
737.086	81.15
737.268	82.71
737.45	82.58
737.632	83.06
737.814	82.8
737.995	84.27
738.177	83.66
738.359	82.97
738.541	82.9
738.723	83.79
738.904	83.61
739.086	82.81
739.268	82.31
739.449	82.41
739.631	82.61
739.813	82.52
739.994	83.18
740.176	84.44
740.358	84.45
740.539	85.96
740.721	86.33
740.902	87.5
741.084	87.46
741.265	87.27
741.447	86.42
741.628	86.68
741.81	84.27
741.991	85.07
742.172	86.8
742.354	86.83
742.535	86.69
742.717	88.56
742.898	86.78
743.079	86.47
743.261	86.85
743.442	86.72
743.623	86.08
743.804	87.6
743.986	87.52
744.167	84.99
744.348	85.75
744.529	86.83
744.71	86.5
744.891	86.67
745.073	87.46
745.254	87.19
745.435	86.77
745.616	85.32
745.797	84.53
745.978	85.13
746.159	84.72
746.34	82.73
746.521	84.46
746.702	83.98
746.883	84.53
747.064	83.01
747.245	83.72
747.426	82.58
747.606	83.48
747.787	83.46
747.968	84.62
748.149	86.83
748.33	88.22
748.51	86.16
748.691	84.89
748.872	87.14
749.053	84.78
749.233	83.54
749.414	85.07
749.595	85.96
749.775	83.35
749.956	81.92
750.137	80.6
750.317	82
750.498	83.35
750.678	83.1
750.859	84.93
751.04	87.57
751.22	85.71
751.4	83.64
751.581	83.81
751.761	84.71
751.942	85.78
752.122	87.4
752.303	86.59
752.483	87.52
752.663	88.44
752.844	87.16
753.024	87.12
753.204	89.06
753.385	87.91
753.565	84.9
753.745	85.08
753.925	85.18
754.106	84.66
754.286	86.01
754.466	85.93
754.646	87.31
754.826	86.88
755.006	86.06
755.187	86.87
755.367	88.22
755.547	87.78
755.727	88.47
755.907	87.88
756.087	89.32
756.267	88.89
756.447	87.92
756.627	86.57
756.807	89.1
756.987	86.59
757.167	87.87
757.346	86.86
757.526	85.4
757.706	85.62
757.886	85.12
758.066	86.61
758.246	89.71
758.425	92.81
758.605	90.64
758.785	91.37
758.965	89.6
759.144	84.15
759.324	81.95
759.504	84.15
759.683	83.93
759.863	82.88
760.043	86.05
760.222	86.07
760.402	84.63
760.581	85.81
760.761	87.94
760.94	83.97
761.12	85.66
761.299	87.67
761.479	85.67
761.658	82.7
761.838	85.21
762.017	84.63
762.197	83.86
762.376	84.98
762.555	87.35
762.735	89.12
762.914	86.93
763.093	87.95
763.273	85.19
763.452	86.11
763.631	83.47
763.81	83
763.99	81.06
764.169	84.67
764.348	80.74
764.527	82.43
764.706	86.9
764.885	89.71
765.064	86.14
765.243	87.06
765.423	86.33
765.602	85.02
765.781	81
765.96	80.22
766.139	80.86
766.318	82.67
766.497	83.29
766.676	85.3
766.854	89.59
767.033	89.81
767.212	89.36
767.391	86.9
767.57	87.83
767.749	87.49
767.928	87.24
768.106	82.8
768.285	82.53
768.464	82.64
768.643	82.92
768.821	84.41
769	89.5
769.179	89.92
769.357	85.14
769.536	81.65
769.715	82.18
769.893	83.14
770.072	81.88
770.25	82.5
770.429	84.3
770.607	82.18
770.786	80.25
770.964	83.61
771.143	86.84
771.321	88.68
771.5	90.79
771.678	88.36
771.857	84.9
772.035	86.57
772.213	85.32
772.392	80.94
772.57	85.19
772.748	88.56
772.927	83.85
773.105	84.09
773.283	87.97
773.461	87.53
773.64	83.48
773.818	82.18
773.996	82.92
774.174	82.25
774.352	78.04
774.531	78.55
774.709	82.26
774.887	80.06
775.065	77.36
775.243	77.5
775.421	80.53
775.599	83.88
775.777	81.95
775.955	81.58
776.133	81.27
776.311	77.59
776.489	71.53
776.667	72.43
776.844	76.1
777.022	76.31
777.2	76.38
777.378	76.16
777.556	79.42
777.734	81.58
777.911	83.34
778.089	83.75
778.267	88.52
778.445	84.1
778.622	78.33
778.8	78.12
778.978	81.74
779.155	77.81
779.333	79.76
779.511	77.23
779.688	78.85
779.866	69.71
780.043	66.98
780.221	66.34
780.398	67.92
780.576	68.98
780.753	75.62
780.931	78.27
781.108	76.6
781.286	81.46
781.463	73.3
781.64	73.01
781.818	80.53
781.995	84.82
782.172	81.33
782.35	87.96
782.527	89.25
782.704	81.53
782.882	82.47
783.059	82.89
783.236	83.17
783.413	84.56
783.59	86.27
783.768	80.24
783.945	81.05
784.122	82.49
784.299	79.59
784.476	79.53
784.653	82.32
784.83	78.07
785.007	68.4
785.184	68.82
785.361	68.08
785.538	74.26
785.715	79.05
785.892	86.36
786.069	89.42
786.246	91.66
786.423	81.99
786.6	82.26
786.776	83.07
786.953	81.39
787.13	83.84
787.307	87.62
787.484	89.22
787.66	86.1
787.837	80.19
788.014	76.61
788.191	74.39
788.367	70.93
788.544	76.62
788.721	80.57
788.897	79.67
789.074	84.85
789.25	83.38
789.427	80.66
789.603	77.95
789.78	82.51
789.956	70.41
790.133	70.05
790.309	65.62
790.486	70.72
790.662	66.24
790.839	71.92
791.015	80.7
791.192	77.68
791.368	77.37
791.544	73.45
791.721	79.6
791.897	68.91
792.073	70.64
792.249	65.83
792.426	72.69
792.602	71.24
792.778	68.73
792.954	66.18
793.13	64.22
793.307	58.83
793.483	48.69
793.659	52.32
793.835	60.18
794.011	64.9
794.187	60.15
794.363	58.56
794.539	63.4
794.715	56.91
794.891	54.73
795.067	56.08
795.243	69.53
795.419	66.91
795.595	67.9
795.771	67.74
795.947	76.73
796.122	62.99
796.298	66.74
796.474	68.76
796.65	71.18
796.826	63.16
797.001	76.4
797.177	65.71
797.353	71.38
797.529	75.01
797.704	72.97
797.88	66.56
798.056	65.56
798.231	57.53
798.407	58.45
798.582	61.48
798.758	69.37
798.934	83.01
799.109	78.85
799.285	70.53
799.46	81.79
799.636	78.2
799.811	71.77
799.986	84.04
800.162	95.53
800.337	89.38
800.513	83.15
800.688	83.23
800.863	84.04
801.039	70.25
801.214	62.03
801.389	67.9
801.565	70.29
801.74	58.72
801.915	67.84
802.09	76.69
802.265	79.32
802.441	72.72
802.616	74.81
802.791	73.82
802.966	71.74
803.141	68.11
803.316	57.96
803.491	63.7
803.666	60.79
803.841	59.62
804.016	53.46
804.191	66.43
804.366	60.89
804.541	58.62
804.716	45.2
804.891	44.82
805.066	47.19
805.241	54.39
805.416	53.48
805.591	57.58
805.765	64
805.94	68.06
806.115	63.87
806.29	59.69
806.464	71.23
806.639	63.77
806.814	45.9
806.989	35.87
807.163	46.52
807.338	34.73
807.512	36.93
807.687	39.06
807.862	54.02
808.036	54.88
808.211	61.08
808.385	69.26
808.56	79.57
808.734	75.81
808.909	77.31
809.083	70.89
809.258	76.82
809.432	76.33
809.606	57.37
809.781	54.77
809.955	65.26
810.13	61.15
810.304	52.13
810.478	55.86
810.652	64.21
810.827	68.89
811.001	69.88
811.175	65.83
811.349	74.94
811.524	62.66
811.698	44.72
811.872	38.03
812.046	48.62
812.22	50.3
812.394	47.79
812.568	52.83
812.742	56.38
812.916	45.83
813.09	39.02
813.264	44.15
813.438	44.28
813.612	37.92
813.786	25.39
813.96	43.37
814.134	49.86
814.308	59.62
814.482	66.96
814.656	84.62
814.83	87.77
815.003	82.78
815.177	75.08
815.351	64.02
815.525	75.14
815.698	64.47
815.872	51.33
816.046	37.63
816.219	43.41
816.393	49.85
816.567	54.62
816.74	54.22
816.914	78.18
817.088	81.18
817.261	59.65
817.435	46.92
817.608	41.06
817.782	26.05
817.955	24.87
818.129	17.82
818.302	26.83
818.475	53.91
818.649	55.76
818.822	37.45
818.996	60.88
819.169	62.93
819.342	44.36
819.516	58.39
819.689	88
819.862	64.16
820.035	46.29
820.209	32.88
820.382	33.03
820.555	29.95
820.728	34.03
820.901	38.13
821.075	64.73
821.248	68.88
821.421	53.43
821.594	39.62
821.767	65.88
821.94	91.87
822.113	41.84
822.286	45.96
822.459	79.12
822.632	61.9
822.805	37.16
822.978	57.1
823.151	53.26
823.324	24.49
823.496	-11.48
823.669	1.31
823.842	6.59
824.015	-4.57
824.188	-10.65
824.361	-7.01
824.533	-24.02
824.706	5.68
824.879	14.32
825.051	60.27
825.224	70.88
825.397	69.08
825.569	45.12
825.742	50.26
825.915	56.07
826.087	51.03
826.26	33.58
826.432	28.03
826.605	39
826.777	25.09
826.95	6.83
827.122	16.03
827.295	35.84
827.467	19.15
827.64	-17.32
827.812	-13.79
827.984	3.08
828.157	-13.49
828.329	-22.32
828.501	-4.51
828.674	13.83
828.846	6.64
829.018	20.92
829.19	27.86
829.363	45.42
829.535	41.74
829.707	51.38
829.879	14.84
830.051	9.32
830.223	3.36
830.395	-20.81
830.568	-35.16
830.74	-10.69
830.912	18.91
831.084	-3.66
831.256	-7.46
831.428	-22.82
831.6	-37.76
831.772	-70.76
831.943	-70.26
832.115	-35.61
832.287	18.56
832.459	3.81
832.631	18.09
832.803	48.79
832.975	45.75
833.146	16.06
833.318	38.34
833.49	37.35
833.662	19.83
833.833	3.29
834.005	10.62
834.177	33.93
834.348	13.54
834.52	-10.67
834.692	-5.41
834.863	-29.76
835.035	-49.82
835.206	-32.39
835.378	-1.89
835.549	-26.86
835.721	3.19
835.892	-21.22
836.064	-26.26
836.235	-17.43
836.407	38.57
836.578	8.99
836.749	50.45
836.921	54.2
837.092	24.26
837.264	-29.21
837.435	-55.81
837.606	-39.95
837.777	-0.44
837.949	30.78
838.12	8.3
838.291	37.68
838.462	37.63
838.633	-0.54
838.805	-36.12
838.976	-2.72
839.147	-8.33
839.318	-70.01
839.489	-86.79
839.66	-45.24
839.831	-31.83
840.002	-28.48
840.173	-29.91
840.344	-9.4
840.515	11.72
840.686	-34.11
840.857	-51.89
841.028	-54.45
841.199	-7.4
841.369	-67.98
841.54	-82.71
841.711	-15.82
841.882	7.12
842.053	-32.74
842.223	-53.51
842.394	-3.42
842.565	-1.87
842.736	19.3
842.906	17.75
843.077	43.02
843.248	52.78
843.418	21.73
843.589	-5.07
843.759	46.93
843.93	61.52
844.101	30.61
844.271	43.44
844.442	73.54
844.612	80.34
844.783	35.02
844.953	4.97
845.123	34.14
845.294	21.27
845.464	-25.95
845.635	6.23
845.805	48.37
845.975	39.86
846.146	-7.18
846.316	-13.93
846.486	-4.45
846.656	1.98
846.827	-57.04
846.997	-35.37
847.167	15.46
847.337	-12.75
847.507	-31.49
847.677	-18.96
847.848	5.12
848.018	0.26
848.188	9.16
848.358	1.57
848.528	18.39
848.698	22.24
848.868	-17.06
849.038	-38.26
849.208	-0.5
849.378	12.21
849.548	-52.16
849.718	-46.26
849.887	1.01
850.057	-116.3
850.227	-156.74
850.397	-119.17
850.567	-107.56
850.737	-89.4
850.906	-97.05
851.076	-112.11
851.246	-112.3
851.415	-56.65
851.585	-43.96
851.755	-14.83
851.924	26.05
852.094	41.57
852.264	6.09
852.433	-38.55
852.603	-17.6
852.772	-6.95
852.942	-43.52
853.111	-75.5
853.281	15.18
853.45	19.05
853.62	-33.1
853.789	-84.06
853.959	-0.3
854.128	-63.63
854.297	-123.4
854.467	-116.58
854.636	-28.61
854.805	-27.51
854.975	-36.24
855.144	-8.19
855.313	74.25
855.482	38.96
855.652	-24.57
855.821	-16.19
855.99	39.43
856.159	10.09
856.328	-37.59
856.497	-24.9
856.667	-7.13
856.836	-41.15
857.005	-98.37
857.174	-133.5
857.343	-122.53
857.512	-57.25
857.681	-159.58
857.85	-151.43
858.019	-89.49
858.188	-75.05
858.356	-132.55
858.525	-113.4
858.694	-111.33
858.863	-116.32
859.032	-140.39
859.201	-129.9
859.369	-106.15
859.538	-58.17
859.707	-92.58
859.876	-98.78
860.044	-71.28
860.213	-34.89
860.382	-54.42
860.55	-30.33
860.719	22.9
860.888	21.11
861.056	-67.15
861.225	-91.46
861.393	-30.62
861.562	31.14
861.73	-8.87
861.899	4.36
862.067	-14.44
862.236	-16.38
862.404	-99.69
862.572	-121.86
862.741	-60.47
862.909	-71.95
863.078	-98.75
863.246	-108.51
863.414	-73.77
863.582	-159.23
863.751	-111.54
863.919	-127.64
864.087	-19.34
864.255	-18.02
864.424	-62.01
864.592	-28.39
864.76	29.05
864.928	33.29
865.096	-1.82
865.264	5.59
865.432	0.37
865.6	-11.92
865.768	-127.16
865.936	-238.16
866.104	-149.27
866.272	-218.35
866.44	-177.7
866.608	-173.83
866.776	-201.12
866.944	-336.76
867.112	-453.83
867.28	-745.24
867.448	-1240.7
867.615	-474.09
867.783	-78.2
867.951	-90.03
868.119	32.11
868.286	-20.32
868.454	-73.62
868.622	-171.1
868.789	-170.43
868.957	-72.54
869.125	-91.31
869.292	-79.76
869.46	-33.11
869.627	11.81
869.795	-72.52
869.963	-41.63
870.13	2.86
870.298	1.09
870.465	-86.85
870.632	-96.8
870.8	-148.42
870.967	-158.6
871.135	-304.57
871.302	-198.96
871.469	-117.88
871.637	-51.4
871.804	-27.83
871.971	-22.77
872.139	-11.51
872.306	26.74
872.473	-6.73
872.64	-68.93
872.807	-16.53
872.975	-10.96
873.142	-140.48
873.309	-128.79
873.476	42.02
873.643	64.28
873.81	44.73
873.977	42.49
874.144	49.99
874.311	7.1
874.478	-118.57
874.645	-185
874.812	-565.63
874.979	31566.67
875.146	-819.21
875.313	-226.34
875.48	-94.62
875.647	-72.12
875.813	-106.95
875.98	-155.5
876.147	-250.11
876.314	-238.25
876.481	-287.36
876.647	-331.16
876.814	-183.73
876.981	-110.25
877.147	-225.44
877.314	-277.04
877.481	-123
877.647	-53.78
877.814	-209.69
877.98	-173.68
878.147	-15.72
878.314	-1.3
878.48	-98.29
878.647	-59.09
878.813	45.66
878.979	60.66
879.146	22.29
879.312	47.66
879.479	51.2
879.645	31.4
879.811	-96.86
879.978	-110.41
880.144	-102.55
880.31	-126.93
880.477	-230.59
880.643	-178.27
880.809	-117.57
880.975	-48.4
881.142	-98.82
881.308	-49.06
881.474	-5.88
881.64	4.71
881.806	-79.63
881.972	-22.35
882.138	-12.5
882.304	18
882.47	-77.16
882.636	-119.97
882.802	-118.78
882.968	-30.69
883.134	-204.88
883.3	-278.62
883.466	1.35
883.632	42.43
883.798	-68.11
883.964	-30.84
884.129	-25.89
884.295	-54.63
884.461	-116.66
884.627	-172.67
884.793	-119.26
884.958	-56.79
885.124	-126.28
885.29	-134.64
885.455	-44.7
885.621	-45.37
885.787	-248.08
885.952	-129.62
886.118	-138.72
886.283	-141.76
886.449	-197.74
886.614	-121.46
886.78	-127.65
886.945	-85.08
887.111	-261.1
887.276	-248.55
887.442	-486.74
887.607	-263.58
887.773	-326.41
887.938	-270.33
888.103	-134.99
888.269	-71.08
888.434	-56.22
888.599	-67.59
888.764	25.12
888.93	22.96
889.095	-2.87
889.26	-59.36
889.425	30.65
889.59	60.25
889.756	14.41
889.921	20.98
890.086	57.49
890.251	1.34
890.416	-126.91
890.581	-116.19
890.746	-92.38
890.911	-27.24
891.076	-48.63
891.241	-44.36
891.406	11.84
891.571	19.59
891.736	-52.98
891.901	-88.76
892.065	-46.94
892.23	-45.75
892.395	-169.67
892.56	-218.08
892.725	-103.31
892.889	-78.23
893.054	-213.58
893.219	-216.03
893.384	-200.58
893.548	-261.94
893.713	-328.54
893.878	-261.16
