Data from Ofra_PP_Phys_6GT17_Reflection_2.txt Node
Date: Sat Jul 24 20:11:23 EDT 2021
User: USUARIO
Spectrometer: FLMT01687
Trigger mode: 0
Integration Time (sec): 1.100000E0
Scans to average: 2
Electric dark correction enabled: true
Nonlinearity correction enabled: false
Boxcar width: 2
XAxis mode: Wavelengths
Number of Pixels in Spectrum: 3648
>>>>>Begin Spectral Data<<<<<
179.494	742.52
179.716	929.12
179.937	1630.28
180.158	1373.8
180.38	629.4
180.601	-844.39
180.823	-72.41
181.044	1148.06
181.265	-65.73
181.486	-42.69
181.708	27.22
181.929	-998.67
182.15	136.95
182.372	-74.1
182.593	52233.33
182.814	1160.51
183.035	278.98
183.257	180.14
183.478	85.2
183.699	190.92
183.92	71.68
184.141	84.23
184.363	58.76
184.584	132.69
184.805	66.81
185.026	96.37
185.247	105.07
185.468	63.11
185.689	49.9
185.91	58.18
186.132	49.31
186.353	48.18
186.574	77.38
186.795	89.59
187.016	30.63
187.237	42.44
187.458	40.25
187.679	76.64
187.9	64.56
188.121	157.43
188.342	164.23
188.563	161
188.784	169.48
189.005	198.17
189.226	152.59
189.447	153.55
189.667	131.53
189.888	77.95
190.109	40.75
190.33	3.56
190.551	-41.18
190.772	-41.14
190.993	-40.03
191.214	-14.06
191.434	-0.12
191.655	72.49
191.876	50.12
192.097	33.65
192.318	31.46
192.538	7.23
192.759	-13.92
192.98	16.53
193.201	35.43
193.421	1.66
193.642	35.64
193.863	26.37
194.083	2.94
194.304	9.52
194.525	41.01
194.745	54.69
194.966	4.75
195.187	-27.75
195.407	-59.26
195.628	-98.5
195.848	-118.79
196.069	-109.34
196.29	-44.78
196.51	-116.37
196.731	-157.1
196.951	-101.03
197.172	-63.09
197.392	-74.76
197.613	-33.82
197.833	-15.4
198.054	-70.91
198.274	-53.15
198.495	-97.65
198.715	-44.83
198.936	-63.88
199.156	-20.96
199.377	-42.58
199.597	-39
199.817	-52.6
200.038	3.12
200.258	33.19
200.479	69.19
200.699	82.62
200.919	83.7
201.14	34.11
201.36	7.94
201.58	17.72
201.801	31.33
202.021	16.64
202.241	51.93
202.461	41.34
202.682	-2.61
202.902	-1.89
203.122	4.33
203.342	2
203.563	50.7
203.783	93.99
204.003	17.55
204.223	-29.32
204.443	55.74
204.663	40.94
204.884	9.58
205.104	67.41
205.324	84.77
205.544	48.47
205.764	41.56
205.984	53.55
206.204	58.82
206.424	90.36
206.644	84.71
206.864	74.15
207.084	69.35
207.304	119.28
207.525	35.68
207.745	42.65
207.964	41.61
208.184	27.03
208.404	-10.99
208.624	1.7
208.844	15.47
209.064	-28.73
209.284	-29.24
209.504	-17.11
209.724	17.79
209.944	24.56
210.164	73.58
210.384	85.32
210.604	81.82
210.823	2.6
211.043	-49.19
211.263	-39.04
211.483	-62.71
211.703	-65.2
211.922	1.71
212.142	80.91
212.362	92.31
212.582	74.39
212.801	66.18
213.021	29.94
213.241	13.41
213.461	-36.76
213.68	-61.77
213.9	-55.34
214.12	-39.54
214.339	-67.3
214.559	-37.71
214.779	16.01
214.998	33.98
215.218	13.97
215.438	20.43
215.657	6.03
215.877	32.9
216.096	23.29
216.316	47.14
216.535	41.95
216.755	49.48
216.974	21.54
217.194	23.47
217.413	-0.91
217.633	6.91
217.852	-60.99
218.072	-50.26
218.291	-63.02
218.511	-16.88
218.73	-80.54
218.95	-59.86
219.169	-65.89
219.389	-93.76
219.608	-131.14
219.827	-55.7
220.047	-25.43
220.266	-34.98
220.485	-34.46
220.705	1.38
220.924	-30.8
221.143	-9.73
221.363	-56.1
221.582	-0.82
221.801	10.59
222.021	53.52
222.24	55.67
222.459	118.38
222.678	93.55
222.897	71.48
223.117	39.48
223.336	29.43
223.555	34.22
223.774	58.51
223.993	55.45
224.213	118.93
224.432	85.26
224.651	103.79
224.87	79.45
225.089	91.08
225.308	74.6
225.527	104.47
225.746	88.61
225.965	83.74
226.184	75.6
226.404	72.51
226.623	27.73
226.842	28.91
227.061	64.89
227.28	70
227.499	74.25
227.718	102.95
227.936	81.37
228.155	84
228.374	33.75
228.593	28.35
228.812	18.78
229.031	43.57
229.25	8.19
229.469	48.72
229.688	47.83
229.907	59.03
230.125	69.87
230.344	63.82
230.563	65.48
230.782	92.6
231.001	39.91
231.22	50.93
231.438	80.81
231.657	61.15
231.876	37.41
232.095	80.32
232.313	66.84
232.532	50.8
232.751	52.54
232.969	45.46
233.188	35.03
233.407	34.09
233.625	26.45
233.844	17.18
234.063	28.06
234.281	75.96
234.5	71.63
234.719	84.61
234.937	86.62
235.156	85.36
235.374	69.06
235.593	94.06
235.811	85.66
236.03	86.68
236.249	69.86
236.467	67.25
236.686	26.38
236.904	42.95
237.123	-13.76
237.341	-2.01
237.559	-27.83
237.778	-27.05
237.996	-47.53
238.215	5.92
238.433	8.26
238.652	46.53
238.87	6.93
239.088	40.87
239.307	46.59
239.525	34.56
239.743	-18.21
239.962	26.63
240.18	-14.52
240.398	-61.95
240.617	-79.59
240.835	-35.84
241.053	-46.67
241.271	38.3
241.49	52.37
241.708	58.47
241.926	68.96
242.144	57.05
242.363	16.7
242.581	10.12
242.799	31.85
243.017	32.47
243.235	-18.81
243.453	5.01
243.672	-20.33
243.89	-18.11
244.108	-4.33
244.326	43.05
244.544	29.28
244.762	24.51
244.98	28.94
245.198	23.28
245.416	-0.74
245.634	2.18
245.852	41.96
246.07	47.11
246.288	49.14
246.506	36.29
246.724	62.81
246.942	46.18
247.16	54.33
247.378	69.98
247.596	91.2
247.814	79.2
248.032	47.57
248.25	31.93
248.468	31.8
248.685	50.62
248.903	63.44
249.121	80.63
249.339	52.85
249.557	37.47
249.775	12.22
249.992	-73.78
250.21	-71.77
250.428	-38.17
250.646	-35.26
250.863	-32.27
251.081	4.2
251.299	30.37
251.517	32.31
251.734	30.32
251.952	20.8
252.17	33.81
252.387	38.28
252.605	23.43
252.823	33.7
253.04	58.42
253.258	71.33
253.475	57.39
253.693	96.52
253.911	103.81
254.128	98.26
254.346	85.4
254.563	64.84
254.781	12.74
254.998	7.43
255.216	-1.7
255.433	2.45
255.651	47.44
255.868	80.88
256.086	84.77
256.303	77.23
256.521	81.53
256.738	50.54
256.956	18.18
257.173	28.59
257.39	34.18
257.608	25.45
257.825	45.85
258.043	58.55
258.26	36.67
258.477	41.43
258.695	30.11
258.912	-17.87
259.129	-12.9
259.346	-30.39
259.564	-34.46
259.781	-3.56
259.998	19.3
260.216	52.61
260.433	75.76
260.65	72.39
260.867	81.62
261.084	63.42
261.302	51.36
261.519	64.87
261.736	35.13
261.953	26.57
262.17	40.85
262.387	26.43
262.604	-3.42
262.822	7.29
263.039	-9.64
263.256	-19.18
263.473	-2.36
263.69	-11.17
263.907	12.34
264.124	51.68
264.341	99
264.558	71.57
264.775	72.18
264.992	90.38
265.209	71.14
265.426	46.31
265.643	54.76
265.86	58.08
266.077	53.56
266.294	36.44
266.51	25.36
266.727	20.2
266.944	50.95
267.161	19
267.378	31.38
267.595	53.66
267.812	15.09
268.028	1.08
268.245	35.64
268.462	4.59
268.679	0.32
268.896	59.77
269.112	44.38
269.329	45.46
269.546	68.17
269.763	66.22
269.979	68.11
270.196	56.26
270.413	35.88
270.629	15.03
270.846	-4.05
271.063	0.08
271.279	-2.85
271.496	-34.05
271.712	-21.96
271.929	-13.33
272.146	-6.9
272.362	-1.37
272.579	72.66
272.795	71.2
273.012	85.08
273.228	74.13
273.445	57.12
273.661	-12.82
273.878	-84.6
274.094	-74.04
274.311	-94.62
274.527	-43.74
274.744	-11.15
274.96	45.26
275.177	52.64
275.393	62.72
275.609	72.86
275.826	89.38
276.042	86.02
276.259	73.85
276.475	68.12
276.691	66.53
276.908	42.78
277.124	76.11
277.34	70.49
277.557	73.6
277.773	63.17
277.989	61.47
278.205	46.3
278.422	53.41
278.638	58.71
278.854	55.52
279.07	56
279.286	19.88
279.503	12.35
279.719	1.01
279.935	-9.44
280.151	-24.98
280.367	17.69
280.583	26.55
280.799	25.13
281.016	27.64
281.232	45.58
281.448	48.64
281.664	51.28
281.88	38.24
282.096	42.92
282.312	61.24
282.528	62.6
282.744	64.66
282.96	74.41
283.176	76.06
283.392	56.85
283.608	42.16
283.824	25.96
284.04	28.04
284.256	48.99
284.471	45.38
284.687	54.22
284.903	62.63
285.119	90.07
285.335	46.99
285.551	65.73
285.767	53.2
285.982	46.57
286.198	17.11
286.414	59.05
286.63	51.81
286.846	66.52
287.061	35.7
287.277	32.79
287.493	23.52
287.709	31.84
287.924	13.89
288.14	58.83
288.356	78.78
288.571	90.3
288.787	76.31
289.003	83.56
289.218	66.56
289.434	10.21
289.65	27.63
289.865	32.9
290.081	36.07
290.296	34.02
290.512	35.44
290.727	25.07
290.943	11.71
291.159	2.08
291.374	12.43
291.59	8.76
291.805	0.89
292.021	11.56
292.236	5.13
292.451	2.82
292.667	15.55
292.882	23.99
293.098	44.88
293.313	43.31
293.529	17.61
293.744	-9.79
293.959	-31.91
294.175	-41.83
294.39	-13.04
294.605	16.87
294.821	48.53
295.036	50.06
295.251	71.38
295.467	57.53
295.682	45.21
295.897	16.24
296.112	4.72
296.328	-6
296.543	-18.46
296.758	-28.81
296.973	38.8
297.188	93.56
297.404	54.91
297.619	72.07
297.834	63.77
298.049	43.77
298.264	15.72
298.479	55.96
298.694	55.56
298.909	73.69
299.125	70.28
299.34	82.38
299.555	52.07
299.77	74.25
299.985	9.91
300.2	-20.89
300.415	-48.43
300.63	-19.83
300.845	-34.67
301.06	-7.24
301.275	13.61
301.49	33.95
301.704	40.1
301.919	-0.3
302.134	-21.24
302.349	23.61
302.564	-7.52
302.779	0.23
302.994	55.03
303.209	54.66
303.423	40.97
303.638	82.13
303.853	49.99
304.068	-12.25
304.283	5.94
304.497	-7.73
304.712	-12.24
304.927	9.31
305.142	14.61
305.356	17.15
305.571	33.69
305.786	22.76
306	11.32
306.215	41.63
306.43	21.4
306.644	38.25
306.859	48.89
307.074	28.02
307.288	-11.69
307.503	6.83
307.717	-25.51
307.932	-24.9
308.147	-17.24
308.361	27.39
308.576	14.33
308.79	-27.04
309.005	2.15
309.219	21.84
309.434	20.37
309.648	3.71
309.863	51.62
310.077	30.97
310.292	33.37
310.506	12.78
310.72	40.96
310.935	56.1
311.149	55.74
311.364	63.19
311.578	89.94
311.792	86.84
312.007	80.89
312.221	47.49
312.435	62.36
312.649	35.32
312.864	79.46
313.078	67.67
313.292	117.35
313.507	90.34
313.721	81.36
313.935	63.89
314.149	89.87
314.363	72.23
314.578	47.03
314.792	41.52
315.006	31.4
315.22	9.18
315.434	16.61
315.648	37.7
315.862	44.14
316.077	51.94
316.291	62.74
316.505	71.9
316.719	75.12
316.933	18.73
317.147	40.11
317.361	10.17
317.575	12.23
317.789	-12.04
318.003	20.96
318.217	11.85
318.431	34.25
318.645	45.79
318.859	38.72
319.073	56.68
319.287	42.24
319.5	15.02
319.714	-24
319.928	-29.07
320.142	-46.03
320.356	10.24
320.57	38.01
320.784	32.7
320.997	62.58
321.211	55.97
321.425	13.07
321.639	-30.37
321.853	20.32
322.066	0.53
322.28	-10.98
322.494	4.01
322.707	66.63
322.921	32.05
323.135	39.14
323.349	65.28
323.562	36.67
323.776	-1.58
323.989	18.89
324.203	-0.79
324.417	-2.89
324.63	-13.23
324.844	-16.34
325.057	-29.72
325.271	-21.01
325.485	-26.12
325.698	20.49
325.912	45.12
326.125	32.9
326.339	51.53
326.552	55.97
326.766	66.94
326.979	70.97
327.193	86.63
327.406	65.75
327.619	54.7
327.833	55.25
328.046	35.41
328.26	20.71
328.473	19.8
328.686	6.37
328.9	7.26
329.113	12.71
329.326	0.41
329.54	27.9
329.753	39.65
329.966	34.36
330.179	49.09
330.393	63.23
330.606	51.46
330.819	62.17
331.032	69.03
331.246	72.12
331.459	84.65
331.672	58.13
331.885	45.31
332.098	12.13
332.311	30.22
332.525	6.7
332.738	23.5
332.951	41.56
333.164	57.07
333.377	46.31
333.59	74.34
333.803	66.1
334.016	59.33
334.229	63.15
334.442	73.07
334.655	77.3
334.868	93.26
335.081	85.05
335.294	64.8
335.507	69.49
335.72	58.83
335.933	18.62
336.146	17.65
336.359	36.71
336.572	3.57
336.785	-18.06
336.997	2.95
337.21	17.66
337.423	4.98
337.636	20.86
337.849	36.49
338.062	44.83
338.274	50.06
338.487	32.08
338.7	41.98
338.913	14.75
339.125	-7.05
339.338	-2.44
339.551	26.02
339.763	41.5
339.976	69.23
340.189	72.07
340.402	66.83
340.614	47.22
340.827	21.13
341.039	2.6
341.252	-10.65
341.465	-9.34
341.677	-15.44
341.89	-42.42
342.102	-28.49
342.315	-14.26
342.527	-22.01
342.74	-6.07
342.952	46.61
343.165	47.66
343.377	73.93
343.59	59.14
343.802	81.53
344.015	87.91
344.227	108.18
344.44	88.32
344.652	86.12
344.864	72.31
345.077	68.04
345.289	45.1
345.502	67.54
345.714	60.4
345.926	65.86
346.139	53.24
346.351	57
346.563	39.71
346.775	61.27
346.988	31.54
347.2	23.51
347.412	-5.38
347.624	-1.8
347.837	-3.71
348.049	40.92
348.261	65.31
348.473	77.99
348.685	34.7
348.897	20.32
349.11	2.23
349.322	-5.77
349.534	16.54
349.746	41.8
349.958	60.24
350.17	51.93
350.382	49.41
350.594	41.05
350.806	50.81
351.018	32.58
351.23	31.37
351.442	22.05
351.654	33.07
351.866	22.28
352.078	31.67
352.29	37.46
352.502	63.25
352.714	65.65
352.926	63.33
353.138	57.75
353.35	36.96
353.561	15.92
353.773	-11.41
353.985	3.62
354.197	-4.02
354.409	3.93
354.621	17.22
354.832	29.78
355.044	17.29
355.256	20.86
355.468	24.7
355.679	8.74
355.891	19.52
356.103	1.51
356.314	-1.65
356.526	18.14
356.738	44.67
356.949	31.79
357.161	65.44
357.373	63.49
357.584	49.42
357.796	40.92
358.008	32.97
358.219	42.86
358.431	49.01
358.642	56.73
358.854	64.16
359.065	63.44
359.277	24.18
359.488	19.04
359.7	6
359.911	-10.9
360.123	-5.81
360.334	-10.71
360.546	-11.4
360.757	-11.78
360.969	-7.6
361.18	8.67
361.391	25.22
361.603	7.18
361.814	39.06
362.025	18.19
362.237	10.77
362.448	21.64
362.659	46.39
362.871	32.93
363.082	44.02
363.293	49.28
363.504	39.53
363.716	21.64
363.927	25
364.138	9.7
364.349	-27.5
364.56	-22.97
364.772	-38.42
364.983	-14.09
365.194	-20.02
365.405	13.62
365.616	15.72
365.827	24.49
366.038	-12.08
366.25	16.24
366.461	-7.03
366.672	20.77
366.883	36.49
367.094	25.35
367.305	-0.04
367.516	25.97
367.727	5.97
367.938	-12.71
368.149	-7.46
368.36	13.88
368.571	10.94
368.781	5.94
368.992	4.27
369.203	27.96
369.414	14.23
369.625	3.09
369.836	3.74
370.047	4.69
370.258	-8.91
370.468	-5.77
370.679	-37.22
370.89	-29.35
371.101	0.71
371.312	-14.96
371.522	7.54
371.733	30.44
371.944	33.96
372.155	37.05
372.365	18.19
372.576	9.99
372.787	0.6
372.997	-12.83
373.208	-19.39
373.419	6.39
373.629	-12.14
373.84	-2.01
374.05	-6.41
374.261	3.74
374.472	-21.27
374.682	0.64
374.893	-6.5
375.103	28.2
375.314	17.71
375.524	41.33
375.735	52.84
375.945	59.55
376.156	22.97
376.366	33.6
376.577	36.66
376.787	24.18
376.997	37.82
377.208	53.41
377.418	28.48
377.629	28.6
377.839	17.84
378.049	11.84
378.26	23.21
378.47	50.55
378.68	42.81
378.89	51
379.101	42.17
379.311	16.06
379.521	-15.41
379.732	-6.43
379.942	-28.53
380.152	-23.44
380.362	-6.23
380.572	2.06
380.783	21.14
380.993	33.25
381.203	43.18
381.413	45.17
381.623	51.9
381.833	39.53
382.043	19.86
382.253	8.78
382.463	14.53
382.674	3.58
382.884	-12.95
383.094	3.49
383.304	6.17
383.514	8.23
383.724	26.6
383.934	18.3
384.144	8.54
384.353	13.94
384.563	13.78
384.773	12.65
384.983	22.11
385.193	29.91
385.403	16.91
385.613	11.23
385.823	4.01
386.033	13.27
386.242	8.78
386.452	16.95
386.662	11.72
386.872	15.28
387.082	12.04
387.291	0.03
387.501	5.88
387.711	10.5
387.921	0.96
388.13	4.35
388.34	19.81
388.55	11.8
388.759	10.86
388.969	18.26
389.179	14.75
389.388	14.21
389.598	11.8
389.807	9.23
390.017	7.33
390.227	6.02
390.436	1.03
390.646	10.23
390.855	12.51
391.065	13.44
391.274	9.68
391.484	8.46
391.693	8.84
391.903	9.72
392.112	11.87
392.322	16.72
392.531	20.77
392.74	17.51
392.95	12.87
393.159	10.12
393.369	11.49
393.578	7.79
393.787	6.58
393.997	10.27
394.206	11.12
394.415	11.03
394.625	12.31
394.834	11.4
395.043	10.31
395.252	11.29
395.462	11.91
395.671	13.71
395.88	15.95
396.089	17.01
396.298	15.81
396.508	14.64
396.717	14.02
396.926	12.59
397.135	12.53
397.344	12.36
397.553	12.79
397.762	13.15
397.971	13.1
398.181	12.67
398.39	11.23
398.599	10.9
398.808	10.16
399.017	11.21
399.226	11.77
399.435	13.43
399.644	13.26
399.853	13.39
400.062	12.8
400.27	12.48
400.479	11.95
400.688	11.28
400.897	11.47
401.106	11.27
401.315	10.51
401.524	10.56
401.733	11.05
401.941	10.94
402.15	10.95
402.359	11.23
402.568	11.32
402.777	11.26
402.985	11.14
403.194	11.19
403.403	11.2
403.612	10.88
403.82	10.91
404.029	11.05
404.238	10.75
404.446	10.74
404.655	10.45
404.864	10.38
405.072	10.14
405.281	10.41
405.489	10.16
405.698	10.34
405.906	10.17
406.115	10.09
406.324	9.8
406.532	10.01
406.741	10.22
406.949	10.07
407.158	10.05
407.366	10.18
407.574	10.21
407.783	9.93
407.991	9.95
408.2	10.03
408.408	9.86
408.617	9.65
408.825	9.5
409.033	9.76
409.242	9.78
409.45	9.81
409.658	9.71
409.867	9.98
410.075	9.72
410.283	9.47
410.491	9.43
410.7	9.24
410.908	9.16
411.116	9.25
411.324	9.26
411.533	9.35
411.741	9.62
411.949	9.61
412.157	9.29
412.365	9.44
412.573	9.28
412.781	9.34
412.99	9.19
413.198	9.45
413.406	9.37
413.614	9.49
413.822	9.48
414.03	9.54
414.238	9.31
414.446	9.38
414.654	9.01
414.862	8.91
415.07	8.87
415.278	9.14
415.486	8.72
415.694	9.05
415.902	8.96
416.109	8.86
416.317	8.81
416.525	8.85
416.733	8.86
416.941	8.99
417.149	8.99
417.357	8.97
417.564	9.22
417.772	9.07
417.98	8.97
418.188	8.88
418.395	8.66
418.603	8.75
418.811	8.41
419.019	8.23
419.226	8.58
419.434	8.78
419.642	8.37
419.849	8.61
420.057	8.8
420.265	8.7
420.472	8.35
420.68	8.59
420.887	8.37
421.095	8.4
421.302	8.17
421.51	8.58
421.717	8.66
421.925	8.91
422.132	8.82
422.34	8.68
422.547	8.42
422.755	8.31
422.962	8.21
423.17	8.13
423.377	8.25
423.585	8.43
423.792	8.35
423.999	8.52
424.207	8.45
424.414	8.49
424.621	8.47
424.829	8.3
425.036	8.1
425.243	8.11
425.451	8.02
425.658	7.75
425.865	7.83
426.072	7.88
426.28	8.02
426.487	7.94
426.694	8.22
426.901	8.23
427.108	8.1
427.315	8.09
427.523	8.42
427.73	8.19
427.937	7.97
428.144	7.83
428.351	7.61
428.558	7.62
428.765	7.5
428.972	7.63
429.179	7.95
429.386	8.27
429.593	8.06
429.8	8.16
430.007	8.36
430.214	8.34
430.421	8.3
430.628	8.25
430.835	8.06
431.042	8.24
431.249	8.2
431.456	8.3
431.662	8.49
431.869	8.73
432.076	8.64
432.283	8.65
432.49	8.41
432.697	8.36
432.903	8.11
433.11	7.95
433.317	8.07
433.524	8.21
433.73	8.08
433.937	8.45
434.144	8.39
434.35	8.49
434.557	8.33
434.764	8.26
434.97	8.19
435.177	8.41
435.384	7.98
435.59	8.17
435.797	8.4
436.003	8.46
436.21	8.36
436.416	8.56
436.623	8.42
436.829	8.48
437.036	8.38
437.242	8.23
437.449	8.35
437.655	8.33
437.862	8.16
438.068	8.23
438.275	8.39
438.481	8.41
438.687	8.41
438.894	8.41
439.1	8.24
439.307	8.38
439.513	8.23
439.719	8.41
439.926	8.46
440.132	8.51
440.338	8.43
440.544	8.52
440.751	8.27
440.957	8.37
441.163	8.13
441.369	8.15
441.575	7.99
441.782	7.97
441.988	7.74
442.194	7.92
442.4	7.85
442.606	8.17
442.812	8.26
443.018	8.46
443.224	8.59
443.431	8.75
443.637	8.56
443.843	8.46
444.049	8.52
444.255	8.42
444.461	8.28
444.667	8.11
444.873	8.22
445.079	8.17
445.284	8.15
445.49	7.93
445.696	7.81
445.902	7.83
446.108	7.71
446.314	7.58
446.52	7.92
446.726	8.28
446.931	8.18
447.137	8.3
447.343	8.52
447.549	8.18
447.755	8.07
447.96	8.19
448.166	8.09
448.372	8.1
448.578	8.15
448.783	8.04
448.989	8.06
449.195	8.33
449.4	8.16
449.606	8.21
449.812	8.24
450.017	8.29
450.223	8.08
450.428	7.9
450.634	8.05
450.84	8.17
451.045	7.96
451.251	7.81
451.456	8.24
451.662	8.25
451.867	8.27
452.073	8.21
452.278	8.46
452.483	8.44
452.689	8.28
452.894	8.27
453.1	8.36
453.305	8.05
453.51	7.84
453.716	7.83
453.921	7.84
454.127	7.83
454.332	7.88
454.537	7.84
454.742	7.85
454.948	7.87
455.153	7.8
455.358	7.89
455.563	8.04
455.769	8.18
455.974	8.09
456.179	8.1
456.384	8.04
456.589	8.02
456.795	7.79
457	7.8
457.205	8.02
457.41	7.98
457.615	7.93
457.82	8.06
458.025	8.12
458.23	7.83
458.435	7.99
458.64	7.77
458.845	7.88
459.05	7.77
459.255	7.8
459.46	7.78
459.665	7.92
459.87	7.87
460.075	7.7
460.28	7.76
460.485	7.89
460.69	8.01
460.895	7.68
461.099	7.71
461.304	7.9
461.509	7.92
461.714	7.75
461.919	8.04
462.123	8.06
462.328	8.04
462.533	7.61
462.738	7.78
462.942	7.58
463.147	7.78
463.352	7.68
463.556	7.73
463.761	7.64
463.966	7.89
464.17	7.81
464.375	7.7
464.58	7.78
464.784	7.77
464.989	7.5
465.193	7.45
465.398	7.48
465.602	7.76
465.807	7.64
466.011	7.86
466.216	8
466.42	8.1
466.625	8.01
466.829	8.21
467.034	8.2
467.238	8.27
467.443	8.2
467.647	7.97
467.851	7.94
468.056	8.01
468.26	7.8
468.464	7.77
468.669	7.97
468.873	8.06
469.077	7.98
469.282	8.04
469.486	8.12
469.69	8.12
469.894	7.99
470.099	8.11
470.303	8.19
470.507	8
470.711	7.94
470.915	7.89
471.119	7.78
471.324	7.73
471.528	7.78
471.732	7.81
471.936	7.83
472.14	7.97
472.344	8.01
472.548	8.18
472.752	8.31
472.956	8.47
473.16	8.35
473.364	8.22
473.568	8.23
473.772	8.18
473.976	8.15
474.18	8.13
474.384	8.11
474.588	7.91
474.792	7.73
474.995	7.73
475.199	7.82
475.403	8.04
475.607	8.14
475.811	8.23
476.015	8.26
476.218	8.25
476.422	8.08
476.626	8.2
476.83	8.41
477.033	8.36
477.237	8.18
477.441	8.29
477.644	8.14
477.848	7.95
478.052	7.72
478.255	7.75
478.459	7.77
478.663	7.98
478.866	8.01
479.07	8.2
479.273	8.45
479.477	8.45
479.681	8.32
479.884	8.39
480.088	8.21
480.291	8.11
480.495	7.99
480.698	8.02
480.901	8.06
481.105	8.28
481.308	8.25
481.512	8.27
481.715	8.3
481.919	8.28
482.122	8.26
482.325	8.27
482.529	8.33
482.732	8.29
482.935	8.19
483.138	8.11
483.342	8.21
483.545	8.38
483.748	8.44
483.952	8.48
484.155	8.65
484.358	8.61
484.561	8.42
484.764	8.47
484.967	8.54
485.171	8.54
485.374	8.4
485.577	8.53
485.78	8.49
485.983	8.52
486.186	8.47
486.389	8.5
486.592	8.52
486.795	8.58
486.998	8.51
487.201	8.56
487.404	8.69
487.607	8.81
487.81	8.82
488.013	8.85
488.216	8.83
488.419	8.84
488.622	8.56
488.825	8.47
489.028	8.48
489.231	8.46
489.433	8.35
489.636	8.4
489.839	8.31
490.042	8.2
490.245	8.07
490.447	8.2
490.65	8.22
490.853	8.41
491.056	8.48
491.258	8.57
491.461	8.61
491.664	8.75
491.866	8.54
492.069	8.64
492.272	8.72
492.474	8.7
492.677	8.74
492.879	8.94
493.082	8.98
493.285	9.13
493.487	8.99
493.69	8.81
493.892	8.62
494.095	8.6
494.297	8.47
494.5	8.71
494.702	8.83
494.905	9.05
495.107	9.04
495.309	9.16
495.512	9.13
495.714	9.29
495.917	9.28
496.119	9.29
496.321	9.35
496.524	9.37
496.726	9.33
496.928	9.4
497.13	9.35
497.333	9.35
497.535	9.47
497.737	9.35
497.939	9.27
498.142	9.51
498.344	9.45
498.546	9.27
498.748	9.4
498.95	9.47
499.152	9.3
499.355	9.39
499.557	9.56
499.759	9.68
499.961	9.73
500.163	9.9
500.365	9.86
500.567	9.78
500.769	9.62
500.971	9.64
501.173	9.48
501.375	9.55
501.577	9.52
501.779	9.58
501.981	9.54
502.183	9.67
502.385	9.62
502.587	9.59
502.788	9.65
502.99	9.72
503.192	9.77
503.394	9.73
503.596	9.79
503.798	9.87
503.999	9.89
504.201	9.87
504.403	10
504.605	10.11
504.806	10.03
505.008	9.95
505.21	9.99
505.411	10.01
505.613	9.92
505.815	10
506.016	10.12
506.218	10.19
506.42	10.04
506.621	10.04
506.823	10.04
507.024	10
507.226	9.85
507.427	9.89
507.629	10.07
507.83	10.05
508.032	9.96
508.233	10.08
508.435	10.19
508.636	10.19
508.838	10.1
509.039	10.17
509.24	10.19
509.442	10.19
509.643	10.07
509.845	10.19
510.046	10.24
510.247	10.17
510.448	10.13
510.65	10.25
510.851	10.4
511.052	10.41
511.254	10.42
511.455	10.56
511.656	10.51
511.857	10.4
512.058	10.34
512.26	10.4
512.461	10.35
512.662	10.4
512.863	10.3
513.064	10.32
513.265	10.29
513.466	10.28
513.667	10.2
513.868	10.37
514.069	10.48
514.27	10.59
514.471	10.5
514.672	10.55
514.873	10.6
515.074	10.65
515.275	10.56
515.476	10.69
515.677	10.8
515.878	10.84
516.079	10.67
516.28	10.74
516.481	10.84
516.682	10.75
516.882	10.59
517.083	10.71
517.284	10.6
517.485	10.48
517.686	10.51
517.886	10.57
518.087	10.63
518.288	10.83
518.488	10.77
518.689	10.77
518.89	10.67
519.091	10.61
519.291	10.52
519.492	10.67
519.692	10.74
519.893	10.96
520.094	11.05
520.294	10.99
520.495	10.96
520.695	10.97
520.896	10.89
521.096	10.94
521.297	11.06
521.497	11.1
521.698	11.02
521.898	11.03
522.099	10.97
522.299	11.02
522.499	11
522.7	11.13
522.9	11.11
523.101	11.19
523.301	11.16
523.501	11.14
523.702	11.09
523.902	11.17
524.102	11.23
524.302	11.18
524.503	11.25
524.703	11.31
524.903	11.31
525.103	11.22
525.304	11.33
525.504	11.39
525.704	11.4
525.904	11.36
526.104	11.38
526.304	11.42
526.504	11.4
526.705	11.43
526.905	11.53
527.105	11.58
527.305	11.54
527.505	11.51
527.705	11.52
527.905	11.5
528.105	11.47
528.305	11.38
528.505	11.44
528.705	11.53
528.905	11.45
529.105	11.49
529.304	11.67
529.504	11.75
529.704	11.62
529.904	11.66
530.104	11.71
530.304	11.74
530.503	11.67
530.703	11.66
530.903	11.66
531.103	11.71
531.303	11.6
531.502	11.69
531.702	11.87
531.902	12.02
532.101	11.95
532.301	11.98
532.501	11.99
532.7	11.99
532.9	11.91
533.1	12.01
533.299	12.01
533.499	12.07
533.698	11.95
533.898	11.97
534.097	11.93
534.297	12.01
534.496	11.98
534.696	12.13
534.895	12.26
535.095	12.35
535.294	12.37
535.494	12.28
535.693	12.24
535.892	12.23
536.092	12.16
536.291	12.15
536.491	12.28
536.69	12.35
536.889	12.26
537.088	12.25
537.288	12.35
537.487	12.43
537.686	12.39
537.886	12.48
538.085	12.54
538.284	12.52
538.483	12.46
538.682	12.56
538.882	12.66
539.081	12.83
539.28	12.78
539.479	12.83
539.678	12.77
539.877	12.84
540.076	12.78
540.275	12.89
540.474	12.93
540.673	13.04
540.872	12.97
541.071	13.07
541.27	13.06
541.469	13.13
541.668	13.15
541.867	13.18
542.066	13.22
542.265	13.36
542.464	13.31
542.663	13.44
542.862	13.66
543.06	13.67
543.259	13.67
543.458	13.78
543.657	13.69
543.856	13.64
544.054	13.68
544.253	13.62
544.452	13.57
544.651	13.62
544.849	13.58
545.048	13.61
545.247	13.68
545.445	13.86
545.644	13.9
545.843	13.91
546.041	13.96
546.24	14.2
546.438	14.19
546.637	14.27
546.836	14.49
547.034	14.61
547.233	14.61
547.431	14.63
547.63	14.76
547.828	14.7
548.027	14.66
548.225	14.6
548.423	14.71
548.622	14.77
548.82	14.79
549.019	14.88
549.217	15.12
549.415	15.16
549.614	15.2
549.812	15.25
550.01	15.26
550.209	15.2
550.407	15.34
550.605	15.44
550.803	15.55
551.002	15.68
551.2	15.7
551.398	15.79
551.596	15.92
551.794	16.11
551.993	16.26
552.191	16.35
552.389	16.37
552.587	16.34
552.785	16.38
552.983	16.46
553.181	16.65
553.379	16.76
553.577	16.78
553.775	16.85
553.973	16.86
554.171	16.95
554.369	16.9
554.567	16.96
554.765	17.01
554.963	17.19
555.161	17.12
555.359	17.37
555.557	17.63
555.755	17.75
555.952	17.87
556.15	18.03
556.348	18.13
556.546	18.17
556.744	18.22
556.941	18.21
557.139	18.33
557.337	18.34
557.535	18.44
557.732	18.6
557.93	18.8
558.128	18.93
558.325	18.98
558.523	18.95
558.721	19.08
558.918	18.98
559.116	18.95
559.313	19.02
559.511	19.23
559.708	19.21
559.906	19.37
560.104	19.54
560.301	19.84
560.498	19.99
560.696	20.14
560.893	20.33
561.091	20.46
561.288	20.49
561.486	20.52
561.683	20.66
561.88	20.81
562.078	20.96
562.275	20.92
562.473	21.09
562.67	21.38
562.867	21.49
563.064	21.59
563.262	21.82
563.459	21.94
563.656	21.95
563.853	21.99
564.051	21.98
564.248	22.12
564.445	22.31
564.642	22.41
564.839	22.51
565.036	22.86
565.234	23.02
565.431	23
565.628	23.01
565.825	23.2
566.022	23.26
566.219	23.33
566.416	23.43
566.613	23.5
566.81	23.61
567.007	23.53
567.204	23.55
567.401	23.59
567.598	23.74
567.795	23.71
567.991	23.86
568.188	24.05
568.385	24.21
568.582	24.34
568.779	24.46
568.976	24.66
569.172	24.81
569.369	24.88
569.566	25
569.763	25.18
569.96	25.26
570.156	25.18
570.353	25.2
570.55	25.22
570.746	25.27
570.943	25.25
571.14	25.38
571.336	25.47
571.533	25.61
571.729	25.68
571.926	25.71
572.123	25.74
572.319	25.83
572.516	25.78
572.712	25.86
572.909	26.11
573.105	26.3
573.302	26.41
573.498	26.53
573.695	26.41
573.891	26.37
574.087	26.37
574.284	26.23
574.48	26.12
574.677	26.17
574.873	26.13
575.069	26.26
575.266	26.45
575.462	26.52
575.658	26.78
575.854	26.94
576.051	26.9
576.247	26.92
576.443	26.99
576.639	26.94
576.835	26.91
577.032	26.87
577.228	26.96
577.424	27.01
577.62	26.98
577.816	27.03
578.012	27.03
578.208	26.94
578.404	27.05
578.6	27.07
578.796	27.16
578.993	27.16
579.189	27.14
579.384	27.03
579.58	26.92
579.776	26.88
579.972	26.84
580.168	26.83
580.364	26.86
580.56	27
580.756	26.94
580.952	26.86
581.148	26.93
581.343	26.92
581.539	26.85
581.735	26.78
581.931	26.93
582.127	26.96
582.322	26.84
582.518	26.9
582.714	26.98
582.909	26.88
583.105	26.75
583.301	26.76
583.496	26.74
583.692	26.57
583.888	26.56
584.083	26.62
584.279	26.74
584.474	26.68
584.67	26.85
584.866	26.84
585.061	26.7
585.257	26.68
585.452	26.59
585.648	26.48
585.843	26.64
586.039	26.67
586.234	26.58
586.429	26.6
586.625	26.71
586.82	26.52
587.015	26.57
587.211	26.5
587.406	26.58
587.601	26.43
587.797	26.34
587.992	26.32
588.187	26.49
588.383	26.43
588.578	26.5
588.773	26.62
588.968	26.71
589.163	26.68
589.359	26.63
589.554	26.59
589.749	26.69
589.944	26.65
590.139	26.64
590.334	26.69
590.529	26.74
590.724	26.75
590.919	26.8
591.114	26.78
591.309	26.9
591.504	26.99
591.699	26.95
591.894	26.98
592.089	26.96
592.284	26.91
592.479	26.91
592.674	26.88
592.869	26.92
593.064	27.12
593.259	27.22
593.454	27.25
593.648	27.32
593.843	27.33
594.038	27.32
594.233	27.25
594.428	27.27
594.622	27.35
594.817	27.41
595.012	27.47
595.206	27.63
595.401	27.77
595.596	27.82
595.79	27.92
595.985	28.06
596.18	28.07
596.374	28.07
596.569	28.07
596.763	28.06
596.958	27.98
597.153	28.01
597.347	28.1
597.542	28.38
597.736	28.37
597.931	28.48
598.125	28.68
598.319	28.76
598.514	28.64
598.708	28.71
598.903	28.75
599.097	28.72
599.291	28.79
599.486	28.78
599.68	28.74
599.874	28.83
600.069	28.84
600.263	28.7
600.457	28.72
600.651	28.88
600.846	28.78
601.04	28.72
601.234	28.69
601.428	28.82
601.622	28.92
601.817	29.02
602.011	29.07
602.205	29.24
602.399	29.1
602.593	29.01
602.787	29
602.981	29.05
603.175	28.98
603.369	28.96
603.563	28.99
603.757	29.09
603.951	29.11
604.145	29.11
604.339	29.2
604.533	29.06
604.727	28.97
604.921	28.91
605.115	28.84
605.309	28.78
605.502	28.81
605.696	28.73
605.89	28.75
606.084	28.73
606.278	28.69
606.471	28.63
606.665	28.45
606.859	28.36
607.053	28.39
607.246	28.44
607.44	28.27
607.634	28.32
607.827	28.32
608.021	28.1
608.214	28.08
608.408	28.22
608.602	28.23
608.795	28.08
608.989	28.05
609.182	27.88
609.376	27.8
609.569	27.74
609.763	27.69
609.956	27.63
610.15	27.53
610.343	27.32
610.537	27.11
610.73	27.14
610.923	27
611.117	26.92
611.31	26.85
611.504	26.91
611.697	26.76
611.89	26.71
612.083	26.58
612.277	26.66
612.47	26.52
612.663	26.35
612.856	26.28
613.05	26.21
613.243	26
613.436	25.84
613.629	25.8
613.822	25.73
614.015	25.71
614.209	25.55
614.402	25.5
614.595	25.49
614.788	25.47
614.981	25.41
615.174	25.37
615.367	25.31
615.56	25.08
615.753	24.92
615.946	24.69
616.139	24.72
616.332	24.79
616.525	24.85
616.718	24.93
616.911	24.99
617.103	24.94
617.296	24.83
617.489	24.69
617.682	24.63
617.875	24.59
618.067	24.52
618.26	24.31
618.453	24.34
618.646	24.28
618.838	24.26
619.031	24.23
619.224	24.33
619.417	24.24
619.609	24.25
619.802	24.25
619.994	24.28
620.187	24.2
620.38	24.19
620.572	24.03
620.765	23.95
620.957	23.82
621.15	23.69
621.342	23.6
621.535	23.72
621.727	23.62
621.92	23.61
622.112	23.71
622.305	23.77
622.497	23.55
622.69	23.54
622.882	23.6
623.074	23.52
623.267	23.45
623.459	23.37
623.651	23.28
623.844	23.14
624.036	23.13
624.228	23.11
624.42	23.21
624.613	23.36
624.805	23.35
624.997	23.28
625.189	23.2
625.381	23.27
625.574	23.21
625.766	23.13
625.958	23.13
626.15	23.23
626.342	23.08
626.534	23.02
626.726	22.97
626.918	23.04
627.11	22.93
627.302	22.92
627.494	22.86
627.686	22.91
627.878	22.75
628.07	22.68
628.262	22.59
628.454	22.58
628.646	22.57
628.838	22.69
629.029	22.62
629.221	22.67
629.413	22.52
629.605	22.38
629.797	22.16
629.989	22.22
630.18	22.21
630.372	22.23
630.564	22.21
630.755	22.36
630.947	22.27
631.139	22.02
631.33	21.98
631.522	22.11
631.714	21.99
631.905	21.98
632.097	22.1
632.289	22.15
632.48	22.03
632.672	21.78
632.863	21.5
633.055	21.4
633.246	21.36
633.438	21.27
633.629	21.35
633.821	21.49
634.012	21.56
634.203	21.43
634.395	21.34
634.586	21.4
634.777	21.26
634.969	21.07
635.16	21.08
635.351	21.14
635.543	21.11
635.734	21.13
635.925	21.07
636.117	21.07
636.308	20.89
636.499	20.73
636.69	20.6
636.881	20.66
637.073	20.76
637.264	20.8
637.455	20.82
637.646	21.01
637.837	21.06
638.028	20.83
638.219	20.87
638.41	20.91
638.601	20.69
638.792	20.67
638.983	20.61
639.174	20.39
639.365	20.36
639.556	20.45
639.747	20.34
639.938	20.38
640.129	20.47
640.32	20.31
640.511	20.16
640.701	20.12
640.892	20.09
641.083	20.09
641.274	20.19
641.465	20.3
641.655	20.13
641.846	20.07
642.037	20.01
642.228	19.89
642.418	19.85
642.609	19.85
642.8	19.83
642.99	19.7
643.181	19.78
643.372	19.69
643.562	19.73
643.753	19.62
643.943	19.63
644.134	19.48
644.324	19.44
644.515	19.33
644.705	19.48
644.896	19.49
645.086	19.55
645.277	19.45
645.467	19.53
645.658	19.3
645.848	19.28
646.038	19.22
646.229	19.27
646.419	19.12
646.61	19
646.8	18.89
646.99	18.88
647.18	18.87
647.371	18.93
647.561	18.88
647.751	18.88
647.941	18.77
648.132	18.77
648.322	18.67
648.512	18.91
648.702	18.87
648.892	18.92
649.082	18.86
649.272	18.75
649.462	18.5
649.653	18.48
649.843	18.32
650.033	18.32
650.223	18.41
650.413	18.47
650.603	18.47
650.793	18.49
650.983	18.35
651.172	18.19
651.362	18.12
651.552	17.98
651.742	17.8
651.932	17.81
652.122	17.82
652.312	17.85
652.502	17.87
652.691	17.93
652.881	17.85
653.071	17.85
653.261	17.5
653.45	17.32
653.64	17.35
653.83	17.28
654.019	17.26
654.209	17.48
654.399	17.6
654.588	17.42
654.778	17.37
654.968	17.16
655.157	17.09
655.347	16.9
655.536	16.78
655.726	16.62
655.915	16.39
656.105	16.26
656.294	16.08
656.484	15.82
656.673	15.72
656.863	15.79
657.052	15.51
657.241	15.37
657.431	15.33
657.62	14.99
657.809	14.71
657.999	14.49
658.188	14.27
658.377	14.19
658.567	14.18
658.756	14.12
658.945	13.97
659.134	13.85
659.324	13.75
659.513	13.62
659.702	13.3
659.891	13.23
660.08	13.13
660.269	12.95
660.458	12.83
660.648	12.79
660.837	12.64
661.026	12.47
661.215	12.22
661.404	11.88
661.593	11.89
661.782	11.63
661.971	11.59
662.16	11.67
662.349	11.77
662.538	11.4
662.726	11.56
662.915	11.4
663.104	11
663.293	10.92
663.482	11.01
663.671	10.69
663.86	10.49
664.048	10.35
664.237	10.21
664.426	9.91
664.615	9.93
664.803	10.03
664.992	10.16
665.181	10.03
665.369	9.92
665.558	9.82
665.747	9.55
665.935	9.48
666.124	9.52
666.312	9.62
666.501	9.52
666.69	9.41
666.878	9.27
667.067	8.99
667.255	9
667.444	9.27
667.632	9.35
667.82	9.46
668.009	9.48
668.197	9.34
668.386	9.07
668.574	9.18
668.762	9.08
668.951	9.03
669.139	9.02
669.327	8.94
669.516	8.89
669.704	8.91
669.892	8.92
670.08	9.03
670.269	8.99
670.457	8.94
670.645	8.83
670.833	8.91
671.021	8.79
671.21	8.84
671.398	8.92
671.586	8.89
671.774	8.91
671.962	8.91
672.15	8.82
672.338	8.58
672.526	8.68
672.714	8.52
672.902	8.53
673.09	8.76
673.278	9.08
673.466	9.04
673.654	9.43
673.842	9.45
674.03	9.56
674.218	9.44
674.405	9.49
674.593	9.33
674.781	9.61
674.969	9.44
675.157	9.63
675.344	9.74
675.532	9.7
675.72	9.65
675.908	9.82
676.095	9.62
676.283	9.73
676.471	10.1
676.658	10.14
676.846	10.09
677.033	10.4
677.221	10.3
677.409	10.14
677.596	10.04
677.784	10.16
677.971	10.22
678.159	10.52
678.346	10.7
678.534	10.82
678.721	11.1
678.909	11.12
679.096	11.06
679.283	11.18
679.471	11.37
679.658	11.43
679.846	11.61
680.033	11.99
680.22	12.08
680.408	12.22
680.595	12.37
680.782	12.32
680.969	12.28
681.157	12.2
681.344	12.23
681.531	12.16
681.718	12.28
681.905	12.56
682.093	12.89
682.28	13.23
682.467	13.58
682.654	13.8
682.841	13.71
683.028	13.96
683.215	14.14
683.402	14.09
683.589	14.51
683.776	14.66
683.963	14.76
684.15	15.01
684.337	15.05
684.524	15.03
684.711	15.4
684.898	15.34
685.085	15.43
685.271	15.92
685.458	16.33
685.645	16.45
685.832	17.01
686.019	17.21
686.205	17.56
686.392	17.77
686.579	18.17
686.766	18.55
686.952	19.08
687.139	19.53
687.326	19.7
687.512	20.19
687.699	20.51
687.886	20.69
688.072	20.81
688.259	21.52
688.445	21.83
688.632	21.96
688.818	22.66
689.005	23.03
689.191	23.37
689.378	23.98
689.564	24.71
689.751	24.81
689.937	25.57
690.124	25.83
690.31	26.27
690.496	26.74
690.683	27.58
690.869	28.12
691.055	28.72
691.242	29.29
691.428	29.69
691.614	30.18
691.8	30.65
691.987	31.1
692.173	31.63
692.359	32.34
692.545	32.86
692.731	33
692.918	33.78
693.104	34.21
693.29	34.99
693.476	35.56
693.662	36.58
693.848	37.07
694.034	37.7
694.22	37.92
694.406	38.67
694.592	39.29
694.778	39.68
694.964	39.98
695.15	40.54
695.336	40.93
695.522	41.44
695.708	42.06
695.894	42.65
696.08	43.23
696.265	43.6
696.451	43.99
696.637	44.67
696.823	45.14
697.009	45.69
697.194	46.09
697.38	46.26
697.566	46.39
697.751	46.71
697.937	47.16
698.123	47.76
698.308	48.64
698.494	49.28
698.68	49.98
698.865	50.16
699.051	50.75
699.236	51.02
699.422	51.46
699.607	51.58
699.793	52.13
699.978	52.31
700.164	52.5
700.349	53.29
700.535	54.02
700.72	54.41
700.906	55.13
701.091	55.72
701.276	55.64
701.462	56.35
701.647	57.01
701.832	57.13
702.018	57.42
702.203	57.95
702.388	57.6
702.573	57.68
702.759	58.3
702.944	58.52
703.129	58.62
703.314	59.36
703.499	59.86
703.684	60.06
703.87	60.58
704.055	61.48
704.24	61.84
704.425	61.94
704.61	61.71
704.795	61.63
704.98	60.85
705.165	60.59
705.35	60.61
705.535	60.78
705.72	61.33
705.905	62.3
706.09	63.04
706.275	63.05
706.459	63.14
706.644	63.09
706.829	63.26
707.014	63.18
707.199	63.89
707.384	64.68
707.568	64.87
707.753	65.46
707.938	65.79
708.123	65.38
708.307	64.96
708.492	65.14
708.677	64.16
708.861	63.65
709.046	63.71
709.231	64.36
709.415	64.37
709.6	64.95
709.784	64.93
709.969	65.77
710.153	65.29
710.338	65.6
710.522	65.41
710.707	66.11
710.891	65.8
711.076	66.36
711.26	66.02
711.445	66.53
711.629	66.42
711.813	66.58
711.998	66.92
712.182	66.89
712.366	67.17
712.551	67.68
712.735	67.27
712.919	66.95
713.103	67.34
713.288	66.77
713.472	66.59
713.656	67.56
713.84	68.34
714.024	68.57
714.208	68.95
714.393	69.28
714.577	69.27
714.761	68.81
714.945	69.14
715.129	69.24
715.313	69.06
715.497	69.03
715.681	69.19
715.865	69.17
716.049	69.38
716.233	69.84
716.417	69.67
716.601	69.76
716.785	69.75
716.968	70.01
717.152	70
717.336	70.16
717.52	69.86
717.704	70.31
717.888	71.04
718.071	70.63
718.255	71.09
718.439	71.83
718.622	72.11
718.806	71.78
718.99	71.49
719.174	71.64
719.357	71.23
719.541	70.67
719.724	70.6
719.908	72.04
720.092	72.26
720.275	72.98
720.459	73.89
720.642	73.22
720.826	72.79
721.009	72.05
721.193	70.79
721.376	70.19
721.559	71.42
721.743	71.75
721.926	72.31
722.11	72.34
722.293	72.17
722.476	70.46
722.66	69.91
722.843	69.69
723.026	70.31
723.21	70.73
723.393	72.6
723.576	73.24
723.759	72.55
723.942	73.29
724.126	72.93
724.309	72.39
724.492	72.15
724.675	72.98
724.858	72.63
725.041	73.63
725.224	73.37
725.407	73.29
725.59	73.02
725.774	73.08
725.957	72.28
726.14	72.61
726.322	72.87
726.505	73.08
726.688	73.33
726.871	73.25
727.054	73.5
727.237	73.5
727.42	73.98
727.603	74.45
727.786	74.82
727.968	75.34
728.151	74.79
728.334	75.16
728.517	75.01
728.699	75.5
728.882	74.53
729.065	75.26
729.248	75.69
729.43	75.85
729.613	76.47
729.796	77.35
729.978	76.45
730.161	75.45
730.343	76.15
730.526	75.95
730.708	75.54
730.891	76.47
731.073	76.67
731.256	75.36
731.438	75.3
731.621	76.14
731.803	77.22
731.986	77.62
732.168	77.77
732.35	77.57
732.533	76.91
732.715	76.15
732.898	76.44
733.08	76.38
733.262	76.59
733.444	76.21
733.627	75.35
733.809	75.86
733.991	77.39
734.173	77.49
734.355	78.54
734.538	79.62
734.72	78.9
734.902	78.18
735.084	77.32
735.266	77.53
735.448	77.2
735.63	76.75
735.812	76.87
735.994	78.18
736.176	78.04
736.358	78.33
736.54	80.24
736.722	80.05
736.904	79.76
737.086	78.53
737.268	80.09
737.45	80.16
737.632	80.73
737.814	80.33
737.995	82.43
738.177	81.79
738.359	80.58
738.541	80.19
738.723	80.86
738.904	80.68
739.086	80.23
739.268	80.39
739.449	80.13
739.631	80.15
739.813	79.72
739.994	80.38
740.176	80.91
740.358	81.36
740.539	82.78
740.721	82.86
740.902	83.36
741.084	83.19
741.265	82.98
741.447	82.04
741.628	82.28
741.81	80.51
741.991	81.11
742.172	82.25
742.354	82.65
742.535	82.24
742.717	84.64
742.898	82.62
743.079	82.97
743.261	82.6
743.442	82.45
743.623	80.83
743.804	82.75
743.986	83.02
744.167	81.14
744.348	82.06
744.529	82.73
744.71	82.47
744.891	81.6
745.073	82.4
745.254	82.64
745.435	82.42
745.616	80.91
745.797	80.66
745.978	80.75
746.159	79.8
746.34	79.45
746.521	80.78
746.702	80.67
746.883	81.13
747.064	79.08
747.245	78.93
747.426	78.94
747.606	78.54
747.787	78.02
747.968	80.03
748.149	81.57
748.33	82.37
748.51	81.48
748.691	80.09
748.872	81.23
749.053	80.04
749.233	78.85
749.414	79.46
749.595	81.32
749.775	78.8
749.956	76.69
750.137	75.71
750.317	77.08
750.498	78.41
750.678	79.1
750.859	81.58
751.04	83
751.22	81.48
751.4	79.08
751.581	79.79
751.761	79.84
751.942	81.08
752.122	83.12
752.303	82.35
752.483	82.39
752.663	82.04
752.844	80.89
753.024	80.6
753.204	81.77
753.385	80.84
753.565	78.46
753.745	78.94
753.925	78.66
754.106	79.65
754.286	80.8
754.466	81.43
754.646	82.16
754.826	81.97
755.006	79.67
755.187	80.86
755.367	81.78
755.547	81.32
755.727	81.51
755.907	81.69
756.087	81.31
756.267	81.08
756.447	80.86
756.627	79.62
756.807	82.81
756.987	82.65
757.167	83.7
757.346	82.47
757.526	81.4
757.706	80.87
757.886	79.33
758.066	79.3
758.246	81.62
758.425	82.74
758.605	80.5
758.785	82.09
758.965	81.37
759.144	78.06
759.324	78.2
759.504	79.45
759.683	77.97
759.863	76.22
760.043	77.69
760.222	77.41
760.402	76.5
760.581	77.35
760.761	80.05
760.94	75.93
761.12	76.76
761.299	79.29
761.479	78.77
761.658	77.14
761.838	81.29
762.017	80.89
762.197	79.35
762.376	78.93
762.555	80.5
762.735	80.58
762.914	77.32
763.093	79.08
763.273	77.16
763.452	77.17
763.631	75.47
763.81	75.85
763.99	74.38
764.169	77.1
764.348	73.73
764.527	74.35
764.706	78.35
764.885	78.97
765.064	76.75
765.243	78.82
765.423	77.95
765.602	76.86
765.781	74
765.96	72.73
766.139	72.84
766.318	74.36
766.497	75.2
766.676	77.37
766.854	80.03
767.033	79.05
767.212	79.41
767.391	76.51
767.57	77.77
767.749	78.33
767.928	80.25
768.106	74.84
768.285	74.14
768.464	73.85
768.643	73.36
768.821	72.69
769	77.98
769.179	78.32
769.357	73.59
769.536	71.61
769.715	73.38
769.893	73.82
770.072	74.43
770.25	74.46
770.429	74.09
770.607	72.6
770.786	70.71
770.964	72.74
771.143	75.72
771.321	79.32
771.5	79.52
771.678	78.35
771.857	73.93
772.035	76.19
772.213	73.67
772.392	69.37
772.57	72.15
772.748	76.39
772.927	72.17
773.105	73.06
773.283	76.85
773.461	78.06
773.64	75.19
773.818	74.1
773.996	75.46
774.174	74.31
774.352	69.08
774.531	69.32
774.709	73.55
774.887	72.93
775.065	70.46
775.243	71.76
775.421	74.48
775.599	75.45
775.777	72.27
775.955	70.29
776.133	70.44
776.311	67.15
776.489	62.9
776.667	65.34
776.844	71.47
777.022	69.66
777.2	70.91
777.378	72.39
777.556	73.14
777.734	71.79
777.911	74.74
778.089	73.25
778.267	75.93
778.445	70.35
778.622	68.75
778.8	68.05
778.978	74.05
779.155	71.54
779.333	74.96
779.511	70.5
779.688	72.99
779.866	63.89
780.043	61.8
780.221	62.94
780.398	64.13
780.576	63.42
780.753	67.91
780.931	67.28
781.108	64.43
781.286	70.74
781.463	62.85
781.64	61.56
781.818	67.13
781.995	69.31
782.172	65.62
782.35	72.91
782.527	78.47
782.704	73.66
782.882	76.91
783.059	77.96
783.236	77.99
783.413	74.25
783.59	74.21
783.768	65.9
783.945	67.87
784.122	69.12
784.299	68.31
784.476	67.03
784.653	71.53
784.83	67.11
785.007	58.16
785.184	59.9
785.361	63.65
785.538	68.2
785.715	71.51
785.892	77.64
786.069	79.97
786.246	81.14
786.423	73.45
786.6	69.89
786.776	74.05
786.953	71.77
787.13	74.17
787.307	78.66
787.484	84.33
787.66	78.72
787.837	73.88
788.014	69.63
788.191	67.37
788.367	64.69
788.544	68
788.721	70.78
788.897	70.87
789.074	72.84
789.25	70.35
789.427	71.26
789.603	64.9
789.78	69.33
789.956	61.82
790.133	63.95
790.309	61.07
790.486	71.11
790.662	65.36
790.839	69.11
791.015	76.29
791.192	70.74
791.368	68.61
791.544	62.23
791.721	68.99
791.897	59.58
792.073	59.21
792.249	55.88
792.426	64.5
792.602	63.71
792.778	60.32
792.954	61.67
793.13	57.87
793.307	53.78
793.483	41.92
793.659	45.13
793.835	48.17
794.011	53.95
794.187	46.62
794.363	47.75
794.539	50.7
794.715	47.81
794.891	45
795.067	47.36
795.243	57.33
795.419	58.02
795.595	57.88
795.771	59.42
795.947	69.12
796.122	56.81
796.298	58.73
796.474	63.59
796.65	65.28
796.826	60.99
797.001	72.4
797.177	62.62
797.353	63.84
797.529	68.09
797.704	62.55
797.88	54.68
798.056	54.82
798.231	50.73
798.407	48.57
798.582	53.22
798.758	61.63
798.934	73.12
799.109	71.14
799.285	60.25
799.46	69.87
799.636	65.22
799.811	61.5
799.986	68.88
800.162	82.77
800.337	75.65
800.513	72.31
800.688	68.53
800.863	71.08
801.039	60.5
801.214	53.74
801.389	61.33
801.565	64.47
801.74	58.35
801.915	64
802.09	73.95
802.265	73.02
802.441	72.14
802.616	66.67
802.791	63.36
802.966	63.78
803.141	65.16
803.316	48.8
803.491	51.41
803.666	57.04
803.841	52.82
804.016	50.94
804.191	69.52
804.366	69.03
804.541	69.24
804.716	56.92
804.891	47.41
805.066	49.89
805.241	56.42
805.416	54.54
805.591	57.94
805.765	62.78
805.94	67.12
806.115	64.07
806.29	55.58
806.464	69.16
806.639	63.77
806.814	42.48
806.989	27.11
807.163	37.55
807.338	28.8
807.512	32.57
807.687	30.35
807.862	48.5
808.036	48.55
808.211	52.12
808.385	60.18
808.56	75.81
808.734	69.58
808.909	72.07
809.083	65.16
809.258	69.09
809.432	66.74
809.606	49.78
809.781	46.57
809.955	56.56
810.13	53.3
810.304	43.43
810.478	50.39
810.652	60.21
810.827	65.05
811.001	62.47
811.175	61.49
811.349	67.6
811.524	57.33
811.698	41.49
811.872	37.27
812.046	47.64
812.22	50.18
812.394	40.29
812.568	46.24
812.742	54.59
812.916	46.1
813.09	41.14
813.264	55.58
813.438	55.62
813.612	46.92
813.786	27.1
813.96	41.81
814.134	46.98
814.308	55.93
814.482	60.69
814.656	81.11
814.83	89.54
815.003	84.24
815.177	73.45
815.351	65.35
815.525	76.86
815.698	64.05
815.872	40.74
816.046	35.91
816.219	43.2
816.393	44.73
816.567	51.58
816.74	59.55
816.914	78.4
817.088	76.17
817.261	67.06
817.435	46.27
817.608	48.05
817.782	35.52
817.955	38.85
818.129	26.11
818.302	38.36
818.475	57.68
818.649	56.85
818.822	38.33
818.996	50.73
819.169	48.44
819.342	28.98
819.516	34.96
819.689	55.07
819.862	49.01
820.035	45.14
820.209	36.71
820.382	44.15
820.555	45.75
820.728	37.23
820.901	31.14
821.075	45.46
821.248	51.65
821.421	30.8
821.594	28.03
821.767	61.14
821.94	83.3
822.113	41.55
822.286	48.2
822.459	83.41
822.632	65.02
822.805	43.51
822.978	60.04
823.151	59.98
823.324	23.41
823.496	-30.82
823.669	-12.42
823.842	-4.16
824.015	-17.48
824.188	-18.35
824.361	-2.49
824.533	-19.56
824.706	-6.3
824.879	8.66
825.051	53.34
825.224	64.63
825.397	73.23
825.569	62.7
825.742	69.46
825.915	62.83
826.087	54.84
826.26	37.97
826.432	25.35
826.605	37.63
826.777	31.05
826.95	19.55
827.122	20.59
827.295	37.38
827.467	22.02
827.64	-12.59
827.812	-13.03
827.984	0.81
828.157	-9.43
828.329	-25.32
828.501	-5.59
828.674	18.21
828.846	17.66
829.018	21.46
829.19	28.53
829.363	48.71
829.535	44.71
829.707	52.96
829.879	23.35
830.051	17.56
830.223	27.24
830.395	-1.09
830.568	-19.42
830.74	0.86
830.912	30.39
831.084	-1.69
831.256	-9.02
831.428	-20.45
831.6	-35.42
831.772	-65.9
831.943	-64.13
832.115	-33.29
832.287	15.75
832.459	22.49
832.631	29.66
832.803	64.07
832.975	62.11
833.146	48.94
833.318	51.25
833.49	60.19
833.662	34.15
833.833	18.36
834.005	14.1
834.177	30.09
834.348	11.94
834.52	-10.67
834.692	-6.09
834.863	-19.65
835.035	-33.38
835.206	-16.96
835.378	17.46
835.549	3.63
835.721	24.09
835.892	20.79
836.064	19.21
836.235	15.29
836.407	62.96
836.578	25.5
836.749	39.43
836.921	32.73
837.092	12.72
837.264	-57.24
837.435	-66.41
837.606	-54.88
837.777	-5.71
837.949	20.18
838.12	17.64
838.291	36.89
838.462	47.13
838.633	11.54
838.805	-5.98
838.976	27.64
839.147	35.32
839.318	-17.89
839.489	-35.25
839.66	-3.1
839.831	6.13
840.002	-12.03
840.173	-4.21
840.344	17.52
840.515	23.18
840.686	-23.49
840.857	-23.04
841.028	0.43
841.199	12.54
841.369	-38.05
841.54	-20.97
841.711	19.27
841.882	13.82
842.053	-7.28
842.223	-30.33
842.394	-2.11
842.565	-7.13
842.736	9.99
842.906	2.86
843.077	31.79
843.248	32.03
843.418	5.63
843.589	-9.36
843.759	36.37
843.93	45.05
844.101	35.58
844.271	60.72
844.442	93.68
844.612	101.19
844.783	62.09
844.953	34.7
845.123	52.07
845.294	18.95
845.464	-25.95
845.635	4.3
845.805	42.46
845.975	37.5
846.146	11.36
846.316	-4.64
846.486	32.8
846.656	17.52
846.827	-43.34
846.997	-14.08
847.167	19.98
847.337	-28.37
847.507	-13.9
847.677	-0.18
847.848	33.1
848.018	48.12
848.188	56.15
848.358	34.34
848.528	51.87
848.698	19.39
848.868	-12.52
849.038	-24.29
849.208	2.79
849.378	20.08
849.548	-27.85
849.718	2.62
849.887	74.83
850.057	0.48
850.227	-35.91
850.397	3.01
850.567	-14.91
850.737	-9.81
850.906	-35.11
851.076	-83.67
851.246	-94.18
851.415	-46.17
851.585	-48.98
851.755	-31.43
851.924	28.23
852.094	47.37
852.264	13.8
852.433	-27.75
852.603	-4.88
852.772	-5.61
852.942	-34.87
853.111	-32.28
853.281	39.21
853.45	55.43
853.62	5.34
853.789	-39.59
853.959	6.91
854.128	-26.32
854.297	-86.07
854.467	-82.83
854.636	-16.54
854.805	-22.84
854.975	-45.16
855.144	-21.01
855.313	49.77
855.482	16.68
855.652	-10.62
855.821	-2.56
855.99	36.72
856.159	28.73
856.328	22.15
856.497	-1.32
856.667	6.62
856.836	-3.47
857.005	-81.49
857.174	-155.25
857.343	-122.07
857.512	-26.67
857.681	-152.85
857.85	-117.93
858.019	-77.12
858.188	-63.45
858.356	-131.68
858.525	-112.34
858.694	-107.73
858.863	-80.41
859.032	-103.95
859.201	-76.22
859.369	-21.5
859.538	8.33
859.707	-30.17
859.876	-37.56
860.044	-43.12
860.213	-27.42
860.382	-66.57
860.55	-26.43
860.719	50.5
860.888	94.72
861.056	57.15
861.225	26.79
861.393	85.53
861.562	74.97
861.73	9.66
861.899	15.94
862.067	2.22
862.236	6.43
862.404	-70.55
862.572	-95.52
862.741	-39.77
862.909	-44.58
863.078	-73.48
863.246	-69.65
863.414	-40.45
863.582	-79.16
863.751	-44.07
863.919	-51.32
864.087	31.95
864.255	26.65
864.424	-35
864.592	4.67
864.76	42.81
864.928	40.62
865.096	12.24
865.264	31.81
865.432	13.09
865.6	30.59
865.768	-75.98
865.936	-109.3
866.104	-38.55
866.272	-48.05
866.44	-89.22
866.608	-84.36
866.776	-153.27
866.944	-285.78
867.112	-367.38
867.28	-594.34
867.448	-1026.34
867.615	-274.68
867.783	-23.91
867.951	-62.02
868.119	53.49
868.286	32.27
868.454	-15.28
868.622	-71.95
868.789	-76.62
868.957	-22.85
869.125	-72.76
869.292	-68.72
869.46	-35.96
869.627	4.15
869.795	-53.29
869.963	-43.52
870.13	2.86
870.298	16.72
870.465	-56.06
870.632	-95.06
870.8	-85.1
870.967	-108.63
871.135	-220.73
871.302	-113.56
871.469	-17.99
871.637	11.62
871.804	33.48
871.971	11.8
872.139	16.21
872.306	40.44
872.473	7.55
872.64	-54.55
872.807	27.53
872.975	36.59
873.142	-31.05
873.309	-6.83
873.476	116.03
873.643	79.05
873.81	65.76
873.977	46.19
874.144	42.69
874.311	10.31
874.478	-77.03
874.645	-156.14
874.812	-596.8
874.979	27738.1
875.146	-729.49
875.313	-204.72
875.48	-48.9
875.647	2.16
875.813	-63.77
875.98	-62.98
876.147	-110.86
876.314	-130.69
876.481	-227.67
876.647	-266.97
876.814	-160.13
876.981	-119.26
877.147	-174.48
877.314	-124.75
877.481	21.99
877.647	67.72
877.814	-11.57
877.98	-67.1
878.147	30.34
878.314	35.68
878.48	-79.12
878.647	-41.92
878.813	45.38
878.979	59.03
879.146	9.44
879.312	32.01
879.479	47.1
879.645	29.74
879.811	-70.47
879.978	-33.33
880.144	-18.24
880.31	-63.97
880.477	-179.68
880.643	-120.54
880.809	-85.64
880.975	-33.52
881.142	-69.91
881.308	-31.15
881.474	-6.84
881.64	-10.23
881.806	-85.04
881.972	-41.39
882.138	-5.44
882.304	14.83
882.47	-87.37
882.636	-141.11
882.802	-145.84
882.968	-98.93
883.134	-223.58
883.3	-219.12
883.466	39.81
883.632	105.16
883.798	5.98
883.964	24.24
884.129	18.55
884.295	-2.96
884.461	-80.5
884.627	-102.02
884.793	-81.72
884.958	-27.45
885.124	-78.6
885.29	-87.74
885.455	-15.28
885.621	3.13
885.787	-195.69
885.952	-98.4
886.118	-96.29
886.283	-95.74
886.449	-153.17
886.614	-89.47
886.78	-81.42
886.945	25.81
887.111	-188.75
887.276	-164.71
887.442	-362.37
887.607	-124.23
887.773	-265.46
887.938	-211.98
888.103	-81.95
888.269	15.18
888.434	-16.95
888.599	-19.76
888.764	44.2
888.93	26.84
889.095	-9.2
889.26	-56.07
889.425	11.3
889.59	25.75
889.756	2.4
889.921	-1.84
890.086	38.28
890.251	28.8
890.416	-56.1
890.581	-68.21
890.746	-36.28
890.911	3.65
891.076	-76.58
891.241	-92.63
891.406	-79.24
891.571	-15.6
891.736	-89.83
891.901	-113.54
892.065	-54.65
892.23	-22.42
892.395	-118.89
892.56	-145.66
892.725	3.12
892.889	14.7
893.054	-95.76
893.219	-109.56
893.384	-90.42
893.548	-181.74
893.713	-262.85
893.878	-216.34
