Data from Ofra_PP_Phys_0GT1H_Reflection_3.txt Node
Date: Sat Jul 24 20:06:13 EDT 2021
User: USUARIO
Spectrometer: FLMT01687
Trigger mode: 0
Integration Time (sec): 1.100000E0
Scans to average: 2
Electric dark correction enabled: true
Nonlinearity correction enabled: false
Boxcar width: 2
XAxis mode: Wavelengths
Number of Pixels in Spectrum: 3648
>>>>>Begin Spectral Data<<<<<
179.494	575.99
179.716	747.72
179.937	1337.43
180.158	1110.79
180.38	527.87
180.601	-355.61
180.823	169.07
181.044	-515.5
181.265	11.54
181.486	-20.61
181.708	-280.49
181.929	-4329.33
182.15	711.24
182.372	23.52
182.593	24166.67
182.814	-206.67
183.035	97.03
183.257	52.94
183.478	-21.76
183.699	-94.27
183.92	-82.89
184.141	-8.92
184.363	-44.72
184.584	41.94
184.805	49.28
185.026	66.6
185.247	55.9
185.468	29.66
185.689	20.33
185.91	20.93
186.132	-11.23
186.353	-13.31
186.574	17.57
186.795	6.56
187.016	-38.62
187.237	-8.74
187.458	-20.77
187.679	-6.58
187.9	50.07
188.121	73.88
188.342	86.67
188.563	64.45
188.784	67.06
189.005	34.57
189.226	47.12
189.447	16
189.667	31.17
189.888	1.15
190.109	-21.86
190.33	-39.37
190.551	-56.78
190.772	-71.87
190.993	-99.33
191.214	-77.55
191.434	-96.95
191.655	-8.05
191.876	-9.47
192.097	14.18
192.318	16.67
192.538	15.61
192.759	-7.97
192.98	-12.43
193.201	-11.37
193.421	-38.41
193.642	0.71
193.863	-7.11
194.083	-12.15
194.304	-1.98
194.525	20.53
194.745	-3.8
194.966	-36.19
195.187	-41.2
195.407	-103.94
195.628	-156.89
195.848	-152.14
196.069	-162.56
196.29	-132.05
196.51	-159.25
196.731	-152.55
196.951	-113.13
197.172	-86.03
197.392	-72.48
197.613	-31.3
197.833	-15.82
198.054	-32.12
198.274	-24.38
198.495	-89.81
198.715	-51.3
198.936	-89.6
199.156	-65.14
199.377	-72.34
199.597	-46.52
199.817	-61.07
200.038	-11.2
200.258	7.43
200.479	36.5
200.699	35.63
200.919	15.6
201.14	-35.05
201.36	-38.8
201.58	-64.22
201.801	-49.69
202.021	-61.96
202.241	-23.86
202.461	-47.3
202.682	-59.26
202.902	-29.47
203.122	-34.42
203.342	-16.57
203.563	13.5
203.783	21.58
204.003	-77.83
204.223	-168.42
204.443	-76.7
204.663	-93.56
204.884	-81
205.104	-17.29
205.324	39.25
205.544	32.61
205.764	28.12
205.984	54.8
206.204	48.23
206.424	59.52
206.644	18.15
206.864	28.85
207.084	1.83
207.304	21.31
207.525	-17.79
207.745	-9.84
207.964	-28.09
208.184	-11.28
208.404	-21.43
208.624	-9.89
208.844	1.97
209.064	-26.2
209.284	-41.04
209.504	-45.95
209.724	-42.12
209.944	-60.84
210.164	-7.05
210.384	10.02
210.604	19.76
210.823	-15.4
211.043	-45.95
211.263	-60.7
211.483	-69.74
211.703	-61.82
211.922	-31.4
212.142	24.88
212.362	43.14
212.582	36.08
212.801	27.39
213.021	5.32
213.241	0.72
213.461	-27.54
213.68	-50.22
213.9	-57.17
214.12	-42.03
214.339	-66.9
214.559	-61.34
214.779	-28.63
214.998	-5.46
215.218	-33.69
215.438	-38.74
215.657	-45.3
215.877	-18.05
216.096	-8.64
216.316	26.45
216.535	32.03
216.755	31.1
216.974	4.22
217.194	-1.9
217.413	-22.9
217.633	-24.48
217.852	-85.43
218.072	-71.22
218.291	-78.95
218.511	-43.54
218.73	-99.86
218.95	-83.96
219.169	-82.37
219.389	-104.41
219.608	-120.29
219.827	-56.67
220.047	-31.67
220.266	-32.28
220.485	-30.59
220.705	-3.02
220.924	-36.94
221.143	-17.67
221.363	-75.25
221.582	-26.49
221.801	-35.49
222.021	-6.77
222.24	-7.62
222.459	33.65
222.678	7.75
222.897	5.36
223.117	-3.88
223.336	-18.57
223.555	8.7
223.774	18.54
223.993	18.14
224.213	61.48
224.432	51.61
224.651	53.47
224.87	49.62
225.089	60.09
225.308	39.91
225.527	68.22
225.746	67.94
225.965	54.12
226.184	32.07
226.404	32.99
226.623	-5.13
226.842	-2.94
227.061	30.82
227.28	42.42
227.499	52.11
227.718	83.93
227.936	57.26
228.155	31.39
228.374	-13.6
228.593	-14.98
228.812	-7.61
229.031	12.05
229.25	0.07
229.469	36.5
229.688	26.32
229.907	17.67
230.125	23.91
230.344	33.55
230.563	23.25
230.782	42.27
231.001	-6.1
231.22	-7.83
231.438	-14.18
231.657	-3.98
231.876	-22.28
232.095	10.41
232.313	13.54
232.532	7.84
232.751	13.61
232.969	19.92
233.188	18.28
233.407	5.21
233.625	0.23
233.844	-14.69
234.063	-42.95
234.281	-16.14
234.5	-2.53
234.719	16.34
234.937	41.06
235.156	60.89
235.374	49.63
235.593	62.76
235.811	60.14
236.03	60.77
236.249	42.89
236.467	60.44
236.686	46.5
236.904	44.42
237.123	-22.67
237.341	-5.15
237.559	-27.86
237.778	-38.84
237.996	-56.45
238.215	-13
238.433	-32.23
238.652	-16.9
238.87	-40.38
239.088	-26.7
239.307	-22.82
239.525	-17.08
239.743	-48.78
239.962	-17.59
240.18	-38.58
240.398	-58.14
240.617	-75.33
240.835	-34.16
241.053	-67.49
241.271	-17.87
241.49	7.99
241.708	1.17
241.926	-1.89
242.144	27.06
242.363	-10.21
242.581	-14.41
242.799	17.46
243.017	0.7
243.235	-38.74
243.453	1.13
243.672	-47.19
243.89	-35.74
244.108	-16.97
244.326	7.67
244.544	11.86
244.762	19.68
244.98	25.09
245.198	32.69
245.416	6.97
245.634	-12.53
245.852	7.92
246.07	-6.53
246.288	-18.03
246.506	-3.22
246.724	20.38
246.942	11.06
247.16	24.93
247.378	32.47
247.596	33.86
247.814	29.53
248.032	-2.97
248.25	-11.88
248.468	-4.29
248.685	19.09
248.903	15.86
249.121	26.42
249.339	-0.73
249.557	-8.8
249.775	-37.08
249.992	-77.65
250.21	-80.41
250.428	-49.42
250.646	-56.47
250.863	-46.63
251.081	-30.13
251.299	-0.58
251.517	-1.59
251.734	-2.33
251.952	-8.56
252.17	7.75
252.387	16.61
252.605	-7.57
252.823	8.08
253.04	31.53
253.258	37.76
253.475	29.49
253.693	57.54
253.911	58.07
254.128	46.74
254.346	46.45
254.563	24.71
254.781	-2.07
254.998	-3.56
255.216	-5.78
255.433	-7.58
255.651	27.3
255.868	43.29
256.086	36.19
256.303	30.24
256.521	12.9
256.738	-13.45
256.956	-33.19
257.173	-21.7
257.39	-17.7
257.608	-13.02
257.825	1.24
258.043	24.87
258.26	24.1
258.477	15.29
258.695	24.66
258.912	-14.8
259.129	-14.83
259.346	-44.22
259.564	-40.33
259.781	-22.23
259.998	6.66
260.216	21.28
260.433	35.48
260.65	25.33
260.867	29.35
261.084	6.63
261.302	-8.13
261.519	10.62
261.736	3.74
261.953	-13.57
262.17	9.64
262.387	4.73
262.604	-15.15
262.822	-12.95
263.039	-16.91
263.256	-37.19
263.473	-16.46
263.69	-30
263.907	-0.1
264.124	12.76
264.341	45.48
264.558	18.72
264.775	35.59
264.992	31.91
265.209	33.62
265.426	18.8
265.643	33.69
265.86	18.65
266.077	28.07
266.294	9.15
266.51	19.4
266.727	4.08
266.944	31.37
267.161	10.87
267.378	16.65
267.595	7.41
267.812	-17.91
268.028	-22.95
268.245	-5.54
268.462	-11.98
268.679	-13.08
268.896	21.97
269.112	10.48
269.329	0.63
269.546	20.21
269.763	25.07
269.979	19.17
270.196	16.93
270.413	13.13
270.629	-6.56
270.846	-12.69
271.063	0.49
271.279	-20.81
271.496	-46.01
271.712	-38.59
271.929	-41.7
272.146	-28.38
272.362	-13.02
272.579	24.9
272.795	43.04
273.012	59.62
273.228	44.3
273.445	28.11
273.661	-8.2
273.878	-94.13
274.094	-95.7
274.311	-108.53
274.527	-75.79
274.744	-48.91
274.96	15.8
275.177	21.62
275.393	13.8
275.609	15.88
275.826	24.29
276.042	6.71
276.259	2.03
276.475	-12.77
276.691	4.38
276.908	-8.63
277.124	22.28
277.34	22
277.557	40.36
277.773	31.76
277.989	27.16
278.205	16.45
278.422	26.94
278.638	32.77
278.854	29.6
279.07	26.95
279.286	-3.43
279.503	-25.31
279.719	-23.21
279.935	-27.38
280.151	-29.13
280.367	1.68
280.583	14.02
280.799	8.98
281.016	7.77
281.232	18.85
281.448	22.5
281.664	34.01
281.88	22.28
282.096	22.74
282.312	28.14
282.528	25.83
282.744	14.91
282.96	26.19
283.176	28.34
283.392	7.46
283.608	11.33
283.824	7.13
284.04	8.26
284.256	16.14
284.471	24.01
284.687	21.56
284.903	23.45
285.119	39.67
285.335	11.38
285.551	15.09
285.767	2.79
285.982	-8.81
286.198	-29.95
286.414	-12.89
286.63	-10.26
286.846	-5.36
287.061	-23.42
287.277	-19.91
287.493	-10.05
287.709	-1.92
287.924	-8.99
288.14	25.32
288.356	30.36
288.571	31.42
288.787	14.9
289.003	28.73
289.218	18.23
289.434	-28.87
289.65	-21.26
289.865	-6.15
290.081	-5.13
290.296	-1.41
290.512	11.77
290.727	12.36
290.943	-0.49
291.159	-9.68
291.374	-14.43
291.59	-36.54
291.805	-47.27
292.021	-33.26
292.236	-36.96
292.451	-28.66
292.667	1.15
292.882	6.06
293.098	18.89
293.313	6.88
293.529	7.95
293.744	-17.86
293.959	-19.1
294.175	-23.24
294.39	8.34
294.605	16.12
294.821	35.7
295.036	19.66
295.251	30.34
295.467	16.8
295.682	13
295.897	-5.07
296.112	-10.04
296.328	-17.03
296.543	-24.17
296.758	-34.74
296.973	-4.83
297.188	36.99
297.404	3.42
297.619	18.92
297.834	24.56
298.049	13.11
298.264	-14.83
298.479	20.41
298.694	18.38
298.909	20.85
299.125	28.06
299.34	39.82
299.555	24.38
299.77	29.76
299.985	-14.28
300.2	-50.16
300.415	-81.33
300.63	-57.07
300.845	-58.54
301.06	-48.31
301.275	-27.11
301.49	-14.7
301.704	-23.78
301.919	-44.52
302.134	-45.09
302.349	-6.56
302.564	-16.85
302.779	-10.23
302.994	25.61
303.209	17.58
303.423	1.38
303.638	42.51
303.853	22.75
304.068	-19.81
304.283	-3.8
304.497	-10.11
304.712	-26.36
304.927	-16.24
305.142	-4.3
305.356	-0.94
305.571	-2.21
305.786	-1.69
306	-5.16
306.215	-0.22
306.43	-6.71
306.644	7.39
306.859	4.21
307.074	-7.4
307.288	-32.55
307.503	-31.06
307.717	-47.04
307.932	-43.63
308.147	-30.14
308.361	2.21
308.576	-10.19
308.79	-51.05
309.005	-25.93
309.219	-12.96
309.434	-2.87
309.648	-16.76
309.863	21.2
310.077	13.08
310.292	-1.07
310.506	-33.84
310.72	0.91
310.935	27.46
311.149	20.63
311.364	31.62
311.578	52.32
311.792	40.74
312.007	34.4
312.221	2.81
312.435	11.85
312.649	-17.72
312.864	41.54
313.078	28.25
313.292	75.41
313.507	55.33
313.721	61.13
313.935	25.05
314.149	42.11
314.363	29.85
314.578	17.05
314.792	-4.3
315.006	10.62
315.22	-5.01
315.434	-5.66
315.648	-2.9
315.862	-19.22
316.077	-37.13
316.291	-25.6
316.505	-37.92
316.719	-18.26
316.933	-25.18
317.147	-1.71
317.361	-49.02
317.575	-28.4
317.789	-38.02
318.003	-31.09
318.217	-23.76
318.431	20.58
318.645	30.93
318.859	28.96
319.073	52.24
319.287	33.44
319.5	6.71
319.714	-27.94
319.928	-25.96
320.142	-34.18
320.356	5.95
320.57	26.58
320.784	21.89
320.997	25.22
321.211	13.2
321.425	-22.44
321.639	-61.3
321.853	-29.52
322.066	-32.76
322.28	-47.61
322.494	-32.37
322.707	18.93
322.921	-2.95
323.135	-2.65
323.349	32.51
323.562	17.45
323.776	-1.74
323.989	3.4
324.203	-15.92
324.417	-19.51
324.63	-28.83
324.844	-48.63
325.057	-52.5
325.271	-46.03
325.485	-68.92
325.698	-34.77
325.912	-3.5
326.125	-8.56
326.339	5.27
326.552	8.82
326.766	10.37
326.979	7.17
327.193	37.9
327.406	26.51
327.619	31.2
327.833	36.48
328.046	19.12
328.26	-0.46
328.473	-3.36
328.686	-17.33
328.9	-24.07
329.113	-13.34
329.326	-17.83
329.54	-1.54
329.753	17.63
329.966	16.01
330.179	21.84
330.393	38.96
330.606	25.75
330.819	33.67
331.032	40.08
331.246	38.44
331.459	45.56
331.672	36.91
331.885	16.65
332.098	-4.1
332.311	0.41
332.525	-15.65
332.738	-1.09
332.951	10.21
333.164	11.47
333.377	22.98
333.59	31.52
333.803	26.05
334.016	22.23
334.229	30.84
334.442	24.54
334.655	34.34
334.868	40.87
335.081	36.29
335.294	19.63
335.507	19.69
335.72	20.17
335.933	-0.94
336.146	-1.15
336.359	5.93
336.572	-14.67
336.785	-30.46
336.997	-22.58
337.21	-10.15
337.423	3.79
337.636	12.91
337.849	13.15
338.062	16.21
338.274	18.88
338.487	-2.68
338.7	-4.74
338.913	-15.42
339.125	-19.44
339.338	-20.06
339.551	-8.53
339.763	22.78
339.976	43.94
340.189	47.97
340.402	56.69
340.614	46.98
340.827	23.83
341.039	4.14
341.252	-22.32
341.465	-29.45
341.677	-24.06
341.89	-61.85
342.102	-41.66
342.315	-24.67
342.527	-42.68
342.74	-38.78
342.952	7.86
343.165	-0.07
343.377	18.58
343.59	6.69
343.802	32.99
344.015	35.21
344.227	50.83
344.44	31.4
344.652	35.26
344.864	11.22
345.077	26.85
345.289	9.29
345.502	31.03
345.714	35.22
345.926	35.4
346.139	16.91
346.351	19.44
346.563	12.62
346.775	12.19
346.988	-5.02
347.2	-5.91
347.412	-12.24
347.624	-23.43
347.837	-9.56
348.049	-2.14
348.261	3.31
348.473	-3.11
348.685	-27.52
348.897	-41.44
349.11	-31.61
349.322	-33.79
349.534	-6.58
349.746	14.99
349.958	23.79
350.17	21.2
350.382	26.11
350.594	24.25
350.806	31.09
351.018	29.29
351.23	29.14
351.442	20.52
351.654	15.12
351.866	7.54
352.078	3.61
352.29	8.6
352.502	24.97
352.714	57.47
352.926	45.85
353.138	50.1
353.35	28.33
353.561	17.91
353.773	-12.72
353.985	-4.06
354.197	-11.88
354.409	6
354.621	11.51
354.832	19.92
355.044	6.27
355.256	7.04
355.468	-7.8
355.679	-24.52
355.891	-12.58
356.103	-11.32
356.314	-18.17
356.526	-1.64
356.738	25.31
356.949	18.88
357.161	36.56
357.373	43.83
357.584	35.03
357.796	24.3
358.008	6.38
358.219	9.43
358.431	5.54
358.642	12.57
358.854	18.61
359.065	33.59
359.277	15.95
359.488	8.76
359.7	-5.53
359.911	-16.03
360.123	-23.45
360.334	-24.79
360.546	-33.48
360.757	-31.91
360.969	-30.53
361.18	-13.98
361.391	-4.24
361.603	-12.11
361.814	18.61
362.025	6.14
362.237	-1.57
362.448	-4.68
362.659	24.54
362.871	21.04
363.082	23.83
363.293	37.7
363.504	36.44
363.716	31.68
363.927	25.1
364.138	22.63
364.349	-8.28
364.56	-17.3
364.772	-34.18
364.983	-24.81
365.194	-33.35
365.405	-10.15
365.616	8.81
365.827	9.04
366.038	-0.85
366.25	11.1
366.461	-9.46
366.672	-0.9
366.883	12.69
367.094	15.67
367.305	3.65
367.516	17.22
367.727	6.43
367.938	-15.76
368.149	-27.07
368.36	-6.92
368.571	-6.63
368.781	-9.62
368.992	-8.01
369.203	11.61
369.414	-4.3
369.625	-3.19
369.836	-5.68
370.047	-6.03
370.258	-16.56
370.468	-10.11
370.679	-45.51
370.89	-34.89
371.101	-13.65
371.312	-32.4
371.522	-35.06
371.733	-14.28
371.944	-9.72
372.155	8.06
372.365	-0.95
372.576	9.56
372.787	3.42
372.997	1.43
373.208	-7.92
373.419	14.91
373.629	-8.32
373.84	0.15
374.05	-26.25
374.261	-10.44
374.472	-32.77
374.682	-4.67
374.893	-16.19
375.103	27.07
375.314	14.68
375.524	24.19
375.735	25.45
375.945	36.31
376.156	2.84
376.366	3.25
376.577	8.32
376.787	3.67
376.997	17.98
377.208	27.97
377.418	15.55
377.629	22.6
377.839	19.88
378.049	6.23
378.26	15.71
378.47	32.29
378.68	30.34
378.89	28.46
379.101	27.07
379.311	3.52
379.521	-18.14
379.732	-19.61
379.942	-38.78
380.152	-31.56
380.362	-10
380.572	-5.34
380.783	3.52
380.993	18.97
381.203	23.58
381.413	21.94
381.623	22.15
381.833	12.28
382.043	-4.87
382.253	-11.72
382.463	-9.79
382.674	-1.2
382.884	-10.09
383.094	-1.17
383.304	-0.32
383.514	2.6
383.724	2.57
383.934	-1.16
384.144	-7.94
384.353	-3.09
384.563	-2.64
384.773	-0.41
384.983	12.26
385.193	18.41
385.403	9.32
385.613	3.44
385.823	-2.94
386.033	1.27
386.242	-3.02
386.452	9.22
386.662	8.96
386.872	14.44
387.082	12.33
387.291	5.84
387.501	5.39
387.711	5.16
387.921	-5.62
388.13	-2.36
388.34	10.33
388.55	4.8
388.759	5.77
388.969	11.96
389.179	10.5
389.388	7
389.598	6.35
389.807	5.35
390.017	8.27
390.227	8.03
390.436	4.96
390.646	11.25
390.855	15.06
391.065	15.4
391.274	12.04
391.484	11.57
391.693	9.16
391.903	7.72
392.112	7.82
392.322	11.02
392.531	15.2
392.74	15.61
392.95	12.36
393.159	11.22
393.369	14.3
393.578	11.55
393.787	10.45
393.997	13.01
394.206	13.56
394.415	12.79
394.625	14.19
394.834	13.03
395.043	12.58
395.252	12.72
395.462	12.01
395.671	13.41
395.88	15.36
396.089	16.87
396.298	17.37
396.508	17.85
396.717	17.73
396.926	16.89
397.135	16.07
397.344	15.01
397.553	14.87
397.762	14.74
397.971	14.81
398.181	14.87
398.39	13.81
398.599	13.39
398.808	13.13
399.017	14.36
399.226	14.54
399.435	15.51
399.644	15.55
399.853	15.41
400.062	14.55
400.27	14.53
400.479	14.64
400.688	14.09
400.897	14.19
401.106	14.16
401.315	13.67
401.524	13.51
401.733	13.99
401.941	14.08
402.15	14.04
402.359	14.25
402.568	14.41
402.777	14.2
402.985	13.99
403.194	14.18
403.403	14.04
403.612	13.77
403.82	13.94
404.029	14.01
404.238	13.45
404.446	13.47
404.655	13.3
404.864	13.07
405.072	12.88
405.281	13.26
405.489	13.04
405.698	12.87
405.906	12.69
406.115	12.64
406.324	12.29
406.532	12.28
406.741	12.68
406.949	12.62
407.158	12.48
407.366	12.62
407.574	12.79
407.783	12.56
407.991	12.64
408.2	12.75
408.408	12.56
408.617	12.39
408.825	12.24
409.033	12.3
409.242	12.24
409.45	12.31
409.658	12.14
409.867	12.28
410.075	11.96
410.283	11.79
410.491	11.7
410.7	11.56
410.908	11.54
411.116	11.64
411.324	11.58
411.533	11.6
411.741	11.63
411.949	11.61
412.157	11.45
412.365	11.56
412.573	11.39
412.781	11.45
412.99	11.27
413.198	11.43
413.406	11.41
413.614	11.49
413.822	11.52
414.03	11.49
414.238	11.22
414.446	11.19
414.654	10.9
414.862	10.82
415.07	10.88
415.278	11.11
415.486	10.67
415.694	10.94
415.902	11.01
416.109	10.87
416.317	10.81
416.525	10.67
416.733	10.68
416.941	10.67
417.149	10.67
417.357	10.77
417.564	11.09
417.772	10.84
417.98	10.77
418.188	10.62
418.395	10.43
418.603	10.48
418.811	10.42
419.019	10.27
419.226	10.61
419.434	10.62
419.642	10.56
419.849	10.64
420.057	10.81
420.265	10.73
420.472	10.57
420.68	10.75
420.887	10.62
421.095	10.58
421.302	10.32
421.51	10.44
421.717	10.35
421.925	10.51
422.132	10.37
422.34	10.34
422.547	10.35
422.755	10.39
422.962	10.34
423.17	10.32
423.377	10.45
423.585	10.58
423.792	10.49
423.999	10.58
424.207	10.5
424.414	10.51
424.621	10.38
424.829	10.44
425.036	10.42
425.243	10.43
425.451	10.35
425.658	10.24
425.865	10.1
426.072	9.96
426.28	10.13
426.487	10
426.694	10.08
426.901	10.22
427.108	10.21
427.315	10.08
427.523	10.35
427.73	10.28
427.937	9.85
428.144	9.79
428.351	9.88
428.558	9.8
428.765	9.77
428.972	10.01
429.179	10.17
429.386	10.28
429.593	10.26
429.8	10.29
430.007	10.52
430.214	10.64
430.421	10.51
430.628	10.46
430.835	10.31
431.042	10.32
431.249	10.25
431.456	10.47
431.662	10.7
431.869	10.91
432.076	10.78
432.283	10.74
432.49	10.43
432.697	10.21
432.903	9.9
433.11	9.88
433.317	9.95
433.524	10.18
433.73	10.06
433.937	10.37
434.144	10.42
434.35	10.41
434.557	10.22
434.764	10.43
434.97	10.37
435.177	10.32
435.384	10.01
435.59	10.18
435.797	10.19
436.003	10.23
436.21	10.21
436.416	10.39
436.623	10.22
436.829	10.26
437.036	10.23
437.242	10.2
437.449	10.23
437.655	10.26
437.862	10.28
438.068	10.26
438.275	10.38
438.481	10.49
438.687	10.5
438.894	10.43
439.1	10.31
439.307	10.32
439.513	10.13
439.719	10.11
439.926	10.07
440.132	10.17
440.338	10.14
440.544	10.26
440.751	10.18
440.957	10.22
441.163	10.08
441.369	10.19
441.575	10.04
441.782	10.05
441.988	9.96
442.194	10.09
442.4	9.98
442.606	10.23
442.812	10.31
443.018	10.4
443.224	10.43
443.431	10.47
443.637	10.39
443.843	10.29
444.049	10.27
444.255	10.25
444.461	10.17
444.667	10.09
444.873	10.26
445.079	10.36
445.284	10.41
445.49	10.37
445.696	10.28
445.902	10.23
446.108	10.12
446.314	10
446.52	10.21
446.726	10.48
446.931	10.44
447.137	10.53
447.343	10.72
447.549	10.56
447.755	10.45
447.96	10.53
448.166	10.44
448.372	10.52
448.578	10.54
448.783	10.51
448.989	10.62
449.195	10.81
449.4	10.63
449.606	10.69
449.812	10.74
450.017	10.71
450.223	10.61
450.428	10.54
450.634	10.61
450.84	10.68
451.045	10.6
451.251	10.6
451.456	10.79
451.662	10.87
451.867	10.86
452.073	10.94
452.278	10.99
452.483	11.09
452.689	11.03
452.894	11.19
453.1	11.26
453.305	11.12
453.51	11
453.716	10.88
453.921	10.84
454.127	10.77
454.332	10.87
454.537	10.86
454.742	10.98
454.948	10.97
455.153	10.94
455.358	11
455.563	11.17
455.769	11.21
455.974	11.11
456.179	11.07
456.384	11.09
456.589	11.09
456.795	10.94
457	11.06
457.205	11.1
457.41	11.07
457.615	11.05
457.82	11.2
458.025	11.22
458.23	11.21
458.435	11.28
458.64	11.12
458.845	11.14
459.05	11.1
459.255	11.15
459.46	11.14
459.665	11.22
459.87	11.24
460.075	11.15
460.28	11.25
460.485	11.3
460.69	11.44
460.895	11.29
461.099	11.31
461.304	11.38
461.509	11.58
461.714	11.39
461.919	11.58
462.123	11.56
462.328	11.68
462.533	11.41
462.738	11.68
462.942	11.64
463.147	11.87
463.352	11.79
463.556	11.85
463.761	11.79
463.966	11.94
464.17	11.87
464.375	11.83
464.58	11.84
464.784	11.88
464.989	11.72
465.193	11.73
465.398	11.8
465.602	12.02
465.807	11.99
466.011	12.16
466.216	12.3
466.42	12.35
466.625	12.25
466.829	12.39
467.034	12.46
467.238	12.56
467.443	12.52
467.647	12.47
467.851	12.47
468.056	12.64
468.26	12.46
468.464	12.44
468.669	12.66
468.873	12.71
469.077	12.68
469.282	12.81
469.486	12.91
469.69	12.86
469.894	12.86
470.099	12.79
470.303	12.84
470.507	12.72
470.711	12.7
470.915	12.71
471.119	12.74
471.324	12.64
471.528	12.73
471.732	12.91
471.936	12.98
472.14	13.09
472.344	13.25
472.548	13.33
472.752	13.26
472.956	13.33
473.16	13.18
473.364	13.07
473.568	13.17
473.772	13.18
473.976	13.21
474.18	13.28
474.384	13.23
474.588	13.07
474.792	13.01
474.995	12.97
475.199	13.09
475.403	13.29
475.607	13.43
475.811	13.43
476.015	13.48
476.218	13.4
476.422	13.32
476.626	13.43
476.83	13.62
477.033	13.54
477.237	13.5
477.441	13.55
477.644	13.38
477.848	13.25
478.052	13.18
478.255	13.26
478.459	13.35
478.663	13.6
478.866	13.69
479.07	13.79
479.273	13.93
479.477	13.9
479.681	13.78
479.884	13.79
480.088	13.69
480.291	13.64
480.495	13.58
480.698	13.59
480.901	13.66
481.105	13.9
481.308	13.82
481.512	13.87
481.715	13.93
481.919	13.95
482.122	13.81
482.325	13.91
482.529	13.93
482.732	13.96
482.935	13.9
483.138	13.96
483.342	14
483.545	14.08
483.748	14.08
483.952	14.15
484.155	14.31
484.358	14.24
484.561	14.16
484.764	14.21
484.967	14.28
485.171	14.25
485.374	14.24
485.577	14.37
485.78	14.35
485.983	14.26
486.186	14.23
486.389	14.25
486.592	14.29
486.795	14.41
486.998	14.44
487.201	14.46
487.404	14.59
487.607	14.66
487.81	14.71
488.013	14.85
488.216	14.85
488.419	14.98
488.622	14.81
488.825	14.71
489.028	14.67
489.231	14.73
489.433	14.62
489.636	14.73
489.839	14.66
490.042	14.64
490.245	14.59
490.447	14.67
490.65	14.68
490.853	14.88
491.056	14.93
491.258	15.01
491.461	15.07
491.664	15.08
491.866	14.98
492.069	15.05
492.272	15.1
492.474	15.15
492.677	15.21
492.879	15.37
493.082	15.45
493.285	15.61
493.487	15.52
493.69	15.46
493.892	15.3
494.095	15.26
494.297	15.16
494.5	15.36
494.702	15.5
494.905	15.76
495.107	15.79
495.309	15.91
495.512	15.91
495.714	16.02
495.917	15.99
496.119	16.05
496.321	16.1
496.524	16.17
496.726	16.22
496.928	16.33
497.13	16.36
497.333	16.36
497.535	16.47
497.737	16.38
497.939	16.35
498.142	16.52
498.344	16.48
498.546	16.36
498.748	16.53
498.95	16.56
499.152	16.43
499.355	16.62
499.557	16.74
499.759	16.82
499.961	16.92
500.163	17.13
500.365	17.12
500.567	17.13
500.769	16.96
500.971	17.08
501.173	17.02
501.375	17.14
501.577	17.16
501.779	17.37
501.981	17.38
502.183	17.53
502.385	17.51
502.587	17.54
502.788	17.62
502.99	17.7
503.192	17.65
503.394	17.7
503.596	17.77
503.798	17.86
503.999	17.91
504.201	18.04
504.403	18.16
504.605	18.25
504.806	18.2
505.008	18.2
505.21	18.33
505.411	18.34
505.613	18.35
505.815	18.5
506.016	18.68
506.218	18.71
506.42	18.7
506.621	18.77
506.823	18.85
507.024	18.8
507.226	18.84
507.427	18.94
507.629	19.08
507.83	19.11
508.032	19.1
508.233	19.22
508.435	19.36
508.636	19.48
508.838	19.5
509.039	19.57
509.24	19.6
509.442	19.62
509.643	19.53
509.845	19.57
510.046	19.66
510.247	19.62
510.448	19.66
510.65	19.79
510.851	19.9
511.052	19.92
511.254	19.96
511.455	20.12
511.656	20.19
511.857	20.18
512.058	20.2
512.26	20.34
512.461	20.3
512.662	20.45
512.863	20.44
513.064	20.49
513.265	20.54
513.466	20.59
513.667	20.54
513.868	20.64
514.069	20.82
514.27	20.85
514.471	20.86
514.672	20.92
514.873	20.95
515.074	20.96
515.275	20.94
515.476	21.07
515.677	21.14
515.878	21.34
516.079	21.3
516.28	21.45
516.481	21.52
516.682	21.53
516.882	21.46
517.083	21.61
517.284	21.48
517.485	21.45
517.686	21.49
517.886	21.41
518.087	21.4
518.288	21.58
518.488	21.51
518.689	21.53
518.89	21.58
519.091	21.59
519.291	21.55
519.492	21.67
519.692	21.74
519.893	21.87
520.094	21.9
520.294	21.95
520.495	21.93
520.695	21.97
520.896	21.96
521.096	22.04
521.297	22.08
521.497	22.23
521.698	22.15
521.898	22.15
522.099	22.12
522.299	22.22
522.499	22.1
522.7	22.2
522.9	22.23
523.101	22.33
523.301	22.26
523.501	22.27
523.702	22.32
523.902	22.39
524.102	22.47
524.302	22.52
524.503	22.64
524.703	22.59
524.903	22.6
525.103	22.47
525.304	22.5
525.504	22.63
525.704	22.69
525.904	22.65
526.104	22.69
526.304	22.73
526.504	22.66
526.705	22.64
526.905	22.75
527.105	22.85
527.305	22.82
527.505	22.76
527.705	22.84
527.905	22.82
528.105	22.81
528.305	22.71
528.505	22.81
528.705	22.86
528.905	22.86
529.105	22.83
529.304	23.02
529.504	23.11
529.704	23.06
529.904	23.09
530.104	23.15
530.304	23.25
530.503	23.16
530.703	23.12
530.903	23.12
531.103	23.25
531.303	23.16
531.502	23.24
531.702	23.34
531.902	23.46
532.101	23.33
532.301	23.32
532.501	23.29
532.7	23.4
532.9	23.3
533.1	23.41
533.299	23.44
533.499	23.54
533.698	23.47
533.898	23.57
534.097	23.58
534.297	23.64
534.496	23.62
534.696	23.66
534.895	23.71
535.095	23.72
535.294	23.74
535.494	23.7
535.693	23.71
535.892	23.75
536.092	23.76
536.291	23.76
536.491	23.85
536.69	24.03
536.889	23.88
537.088	23.85
537.288	23.97
537.487	24.05
537.686	23.94
537.886	24.14
538.085	24.23
538.284	24.19
538.483	24.21
538.682	24.36
538.882	24.41
539.081	24.47
539.28	24.46
539.479	24.47
539.678	24.43
539.877	24.45
540.076	24.47
540.275	24.59
540.474	24.64
540.673	24.66
540.872	24.67
541.071	24.79
541.27	24.78
541.469	24.83
541.668	24.87
541.867	24.88
542.066	24.92
542.265	25.11
542.464	25.11
542.663	25.33
542.862	25.53
543.06	25.52
543.259	25.5
543.458	25.67
543.657	25.55
543.856	25.55
544.054	25.59
544.253	25.55
544.452	25.42
544.651	25.51
544.849	25.52
545.048	25.61
545.247	25.67
545.445	25.82
545.644	25.84
545.843	25.82
546.041	25.79
546.24	26
546.438	25.97
546.637	25.95
546.836	26.09
547.034	26.2
547.233	26.13
547.431	26.18
547.63	26.37
547.828	26.38
548.027	26.4
548.225	26.42
548.423	26.57
548.622	26.68
548.82	26.7
549.019	26.77
549.217	26.92
549.415	26.98
549.614	26.93
549.812	26.93
550.01	26.94
550.209	26.99
550.407	27.06
550.605	27.18
550.803	27.38
551.002	27.48
551.2	27.55
551.398	27.61
551.596	27.69
551.794	27.77
551.993	27.87
552.191	27.91
552.389	28.02
552.587	28.05
552.785	28.08
552.983	28.23
553.181	28.45
553.379	28.56
553.577	28.59
553.775	28.72
553.973	28.68
554.171	28.73
554.369	28.66
554.567	28.81
554.765	28.87
554.963	29.03
555.161	28.92
555.359	29.15
555.557	29.2
555.755	29.29
555.952	29.42
556.15	29.52
556.348	29.52
556.546	29.72
556.744	29.69
556.941	29.73
557.139	29.84
557.337	30
557.535	30.11
557.732	30.3
557.93	30.48
558.128	30.59
558.325	30.65
558.523	30.58
558.721	30.68
558.918	30.64
559.116	30.66
559.313	30.68
559.511	30.9
559.708	30.96
559.906	31.11
560.104	31.26
560.301	31.44
560.498	31.4
560.696	31.49
560.893	31.6
561.091	31.75
561.288	31.8
561.486	31.96
561.683	32.08
561.88	32.14
562.078	32.26
562.275	32.29
562.473	32.45
562.67	32.62
562.867	32.75
563.064	32.85
563.262	32.97
563.459	33.01
563.656	33.03
563.853	33.11
564.051	33.03
564.248	33.17
564.445	33.35
564.642	33.5
564.839	33.56
565.036	33.89
565.234	34
565.431	33.95
565.628	33.93
565.825	34
566.022	34
566.219	34.13
566.416	34.18
566.613	34.2
566.81	34.34
567.007	34.28
567.204	34.25
567.401	34.36
567.598	34.48
567.795	34.5
567.991	34.64
568.188	34.76
568.385	34.73
568.582	34.83
568.779	34.85
568.976	34.93
569.172	34.97
569.369	35.13
569.566	35.2
569.763	35.3
569.96	35.25
570.156	35.28
570.353	35.31
570.55	35.32
570.746	35.46
570.943	35.52
571.14	35.48
571.336	35.54
571.533	35.57
571.729	35.4
571.926	35.46
572.123	35.45
572.319	35.45
572.516	35.41
572.712	35.52
572.909	35.57
573.105	35.7
573.302	35.74
573.498	35.8
573.695	35.75
573.891	35.8
574.087	35.81
574.284	35.65
574.48	35.53
574.677	35.47
574.873	35.42
575.069	35.51
575.266	35.58
575.462	35.66
575.658	35.84
575.854	35.93
576.051	35.88
576.247	35.91
576.443	35.89
576.639	35.84
576.835	35.7
577.032	35.54
577.228	35.64
577.424	35.62
577.62	35.52
577.816	35.47
578.012	35.57
578.208	35.46
578.404	35.52
578.6	35.48
578.796	35.57
578.993	35.44
579.189	35.47
579.384	35.35
579.58	35.19
579.776	35.21
579.972	35.1
580.168	34.96
580.364	34.86
580.56	35.02
580.756	34.88
580.952	34.89
581.148	34.91
581.343	35
581.539	34.85
581.735	34.79
581.931	34.85
582.127	34.86
582.322	34.64
582.518	34.78
582.714	34.81
582.909	34.7
583.105	34.61
583.301	34.68
583.496	34.58
583.692	34.5
583.888	34.51
584.083	34.45
584.279	34.46
584.474	34.39
584.67	34.3
584.866	34.31
585.061	34.3
585.257	34.41
585.452	34.35
585.648	34.3
585.843	34.27
586.039	34.2
586.234	34.01
586.429	33.96
586.625	34.07
586.82	33.93
587.015	33.89
587.211	33.89
587.406	33.89
587.601	33.79
587.797	33.74
587.992	33.74
588.187	33.78
588.383	33.81
588.578	33.84
588.773	33.84
588.968	33.89
589.163	33.87
589.359	33.79
589.554	33.69
589.749	33.85
589.944	33.9
590.139	33.95
590.334	33.9
590.529	34.01
590.724	33.97
590.919	33.89
591.114	33.83
591.309	34.02
591.504	34.09
591.699	33.96
591.894	34.01
592.089	33.84
592.284	33.83
592.479	33.66
592.674	33.64
592.869	33.61
593.064	33.78
593.259	33.73
593.454	33.88
593.648	34.03
593.843	34.08
594.038	34.08
594.233	34.03
594.428	33.94
594.622	33.86
594.817	33.84
595.012	33.9
595.206	34.06
595.401	34.19
595.596	34.22
595.79	34.27
595.985	34.22
596.18	34.16
596.374	34.17
596.569	34.15
596.763	34.07
596.958	34.03
597.153	33.94
597.347	33.85
597.542	34.04
597.736	34.04
597.931	34.03
598.125	34.23
598.319	34.35
598.514	34.28
598.708	34.39
598.903	34.42
599.097	34.37
599.291	34.35
599.486	34.32
599.68	34.23
599.874	34.45
600.069	34.45
600.263	34.31
600.457	34.34
600.651	34.5
600.846	34.27
601.04	34.33
601.234	34.21
601.428	34.21
601.622	34.14
601.817	34.21
602.011	34.01
602.205	34.12
602.399	33.95
602.593	33.81
602.787	33.76
602.981	33.82
603.175	33.92
603.369	33.85
603.563	33.95
603.757	33.92
603.951	33.87
604.145	33.77
604.339	33.88
604.533	33.71
604.727	33.61
604.921	33.46
605.115	33.27
605.309	33.2
605.502	33.17
605.696	33.07
605.89	33.03
606.084	33.02
606.278	32.91
606.471	32.8
606.665	32.65
606.859	32.6
607.053	32.44
607.246	32.33
607.44	32.16
607.634	32.16
607.827	32.08
608.021	31.99
608.214	31.95
608.408	31.88
608.602	31.82
608.795	31.68
608.989	31.68
609.182	31.44
609.376	31.44
609.569	31.33
609.763	31.29
609.956	31.24
610.15	31.2
610.343	31.06
610.537	30.87
610.73	30.87
610.923	30.61
611.117	30.55
611.31	30.39
611.504	30.41
611.697	30.16
611.89	30.01
612.083	29.93
612.277	30.02
612.47	29.85
612.663	29.68
612.856	29.58
613.05	29.45
613.243	29.2
613.436	29.05
613.629	28.99
613.822	29.03
614.015	28.96
614.209	28.75
614.402	28.68
614.595	28.62
614.788	28.41
614.981	28.36
615.174	28.26
615.367	28.13
615.56	27.95
615.753	27.94
615.946	27.72
616.139	27.77
616.332	27.78
616.525	27.76
616.718	27.73
616.911	27.67
617.103	27.67
617.296	27.59
617.489	27.52
617.682	27.39
617.875	27.34
618.067	27.16
618.26	26.99
618.453	26.98
618.646	26.95
618.838	26.9
619.031	26.81
619.224	26.8
619.417	26.67
619.609	26.54
619.802	26.53
619.994	26.58
620.187	26.55
620.38	26.5
620.572	26.48
620.765	26.32
620.957	26.12
621.15	26.03
621.342	25.94
621.535	25.92
621.727	25.92
621.92	25.86
622.112	25.72
622.305	25.79
622.497	25.67
622.69	25.55
622.882	25.5
623.074	25.56
623.267	25.38
623.459	25.29
623.651	25.21
623.844	25.17
624.036	25.17
624.228	25.07
624.42	25.1
624.613	25.15
624.805	25.07
624.997	24.94
625.189	24.97
625.381	24.98
625.574	24.94
625.766	24.88
625.958	24.81
626.15	24.79
626.342	24.64
626.534	24.67
626.726	24.68
626.918	24.72
627.11	24.67
627.302	24.6
627.494	24.47
627.686	24.45
627.878	24.35
628.07	24.3
628.262	24.28
628.454	24.18
628.646	24.11
628.838	24.16
629.029	24
629.221	23.93
629.413	23.85
629.605	23.7
629.797	23.53
629.989	23.64
630.18	23.72
630.372	23.78
630.564	23.84
630.755	23.93
630.947	23.88
631.139	23.73
631.33	23.68
631.522	23.72
631.714	23.58
631.905	23.57
632.097	23.62
632.289	23.57
632.48	23.55
632.672	23.47
632.863	23.32
633.055	23.25
633.246	23.24
633.438	23.08
633.629	23.06
633.821	23.11
634.012	23.16
634.203	23.15
634.395	23.13
634.586	23.2
634.777	23.15
634.969	23.03
635.16	23.05
635.351	23.15
635.543	23.14
635.734	23.15
635.925	23.13
636.117	23.09
636.308	22.98
636.499	22.98
636.69	22.89
636.881	22.91
637.073	22.93
637.264	22.88
637.455	22.79
637.646	22.93
637.837	22.97
638.028	22.83
638.219	22.92
638.41	22.92
638.601	22.78
638.792	22.72
638.983	22.75
639.174	22.58
639.365	22.59
639.556	22.64
639.747	22.62
639.938	22.67
640.129	22.74
640.32	22.59
640.511	22.58
640.701	22.6
640.892	22.54
641.083	22.65
641.274	22.74
641.465	22.78
641.655	22.71
641.846	22.69
642.037	22.58
642.228	22.55
642.418	22.47
642.609	22.35
642.8	22.31
642.99	22.27
643.181	22.32
643.372	22.24
643.562	22.25
643.753	22.2
643.943	22.14
644.134	22.06
644.324	22.14
644.515	22.14
644.705	22.29
644.896	22.34
645.086	22.29
645.277	22.19
645.467	22.24
645.658	22.11
645.848	22.18
646.038	22.21
646.229	22.15
646.419	22.11
646.61	22.07
646.8	21.9
646.99	21.93
647.18	22
647.371	22.01
647.561	21.95
647.751	21.94
647.941	21.94
648.132	21.91
648.322	21.9
648.512	21.9
648.702	21.94
648.892	21.85
649.082	21.85
649.272	21.69
649.462	21.54
649.653	21.43
649.843	21.38
650.033	21.39
650.223	21.4
650.413	21.45
650.603	21.45
650.793	21.4
650.983	21.17
651.172	20.98
651.362	20.94
651.552	20.89
651.742	20.75
651.932	20.72
652.122	20.75
652.312	20.79
652.502	20.71
652.691	20.68
652.881	20.66
653.071	20.72
653.261	20.38
653.45	20.12
653.64	20.12
653.83	20.05
654.019	19.94
654.209	20.03
654.399	20.2
654.588	20.01
654.778	19.88
654.968	19.73
655.157	19.59
655.347	19.37
655.536	19.21
655.726	19.1
655.915	18.92
656.105	18.77
656.294	18.58
656.484	18.32
656.673	18.15
656.863	18.06
657.052	17.84
657.241	17.66
657.431	17.59
657.62	17.25
657.809	17.04
657.999	16.88
658.188	16.7
658.377	16.59
658.567	16.47
658.756	16.29
658.945	16.09
659.134	15.98
659.324	15.88
659.513	15.88
659.702	15.63
659.891	15.53
660.08	15.31
660.269	15.04
660.458	14.94
660.648	14.95
660.837	14.79
661.026	14.71
661.215	14.65
661.404	14.22
661.593	14.18
661.782	13.91
661.971	13.79
662.16	13.7
662.349	13.75
662.538	13.41
662.726	13.61
662.915	13.5
663.104	13.29
663.293	13.19
663.482	13.23
663.671	12.96
663.86	12.75
664.048	12.6
664.237	12.58
664.426	12.37
664.615	12.31
664.803	12.37
664.992	12.37
665.181	12.24
665.369	12.1
665.558	12.03
665.747	11.85
665.935	11.84
666.124	11.79
666.312	11.91
666.501	11.79
666.69	11.71
666.878	11.55
667.067	11.48
667.255	11.44
667.444	11.58
667.632	11.62
667.82	11.7
668.009	11.7
668.197	11.65
668.386	11.48
668.574	11.64
668.762	11.59
668.951	11.51
669.139	11.48
669.327	11.53
669.516	11.48
669.704	11.49
669.892	11.59
670.08	11.67
670.269	11.62
670.457	11.48
670.645	11.46
670.833	11.47
671.021	11.41
671.21	11.46
671.398	11.73
671.586	11.77
671.774	11.8
671.962	11.83
672.15	11.75
672.338	11.52
672.526	11.62
672.714	11.39
672.902	11.52
673.09	11.72
673.278	11.95
673.466	11.86
673.654	12.32
673.842	12.23
674.03	12.33
674.218	12.27
674.405	12.32
674.593	12.27
674.781	12.49
674.969	12.41
675.157	12.63
675.344	12.75
675.532	12.69
675.72	12.92
675.908	13.12
676.095	13
676.283	13.21
676.471	13.43
676.658	13.37
676.846	13.47
677.033	13.75
677.221	13.68
677.409	13.67
677.596	13.78
677.784	13.85
677.971	13.87
678.159	14.07
678.346	14.31
678.534	14.2
678.721	14.5
678.909	14.68
679.096	14.8
679.283	14.97
679.471	15.27
679.658	15.34
679.846	15.52
680.033	15.86
680.22	15.96
680.408	16.05
680.595	16.2
680.782	16.13
680.969	16.19
681.157	16.22
681.344	16.39
681.531	16.45
681.718	16.71
681.905	16.85
682.093	16.97
682.28	17.27
682.467	17.47
682.654	17.73
682.841	17.83
683.028	18.27
683.215	18.59
683.402	18.72
683.589	19.01
683.776	19.31
683.963	19.43
684.15	19.7
684.337	19.8
684.524	19.84
684.711	20.08
684.898	20.17
685.085	20.23
685.271	20.79
685.458	21.31
685.645	21.49
685.832	22.03
686.019	22.43
686.205	22.71
686.392	22.91
686.579	23.24
686.766	23.63
686.952	23.79
687.139	24.23
687.326	24.4
687.512	24.98
687.699	25.16
687.886	25.56
688.072	25.71
688.259	26.32
688.445	26.62
688.632	27.04
688.818	27.87
689.005	28.37
689.191	28.83
689.378	29.44
689.564	30.06
689.751	30.03
689.937	30.79
690.124	31.12
690.31	31.64
690.496	31.99
690.683	32.96
690.869	33.29
691.055	33.98
691.242	34.69
691.428	35.35
691.614	35.81
691.8	36.48
691.987	36.87
692.173	37.25
692.359	37.77
692.545	38.29
692.731	38.45
692.918	39.36
693.104	39.76
693.29	40.58
693.476	41.2
693.662	42.08
693.848	42.44
694.034	43.24
694.22	43.55
694.406	44.23
694.592	44.79
694.778	45.27
694.964	45.45
695.15	45.97
695.336	46.24
695.522	46.96
695.708	47.59
695.894	48.37
696.08	49.05
696.265	49.46
696.451	49.93
696.637	50.67
696.823	51.15
697.009	51.77
697.194	52.51
697.38	53.11
697.566	53.54
697.751	54.03
697.937	54.54
698.123	55.25
698.308	55.87
698.494	56.41
698.68	57.16
698.865	57.33
699.051	57.96
699.236	58.55
699.422	58.99
699.607	59.3
699.793	60.02
699.978	59.97
700.164	60.2
700.349	61.05
700.535	61.74
700.72	62.11
700.906	63
701.091	63.39
701.276	63.67
701.462	64.46
701.647	65.51
701.832	66
702.018	66.48
702.203	67.02
702.388	67.09
702.573	67.01
702.759	67.47
702.944	67.7
703.129	67.92
703.314	68.36
703.499	69.09
703.684	69.8
703.87	70.5
704.055	71.19
704.24	71.3
704.425	71.39
704.61	71.34
704.795	71.51
704.98	71.12
705.165	71.47
705.35	71.55
705.535	71.51
705.72	72.22
705.905	72.77
706.09	73.36
706.275	73.85
706.459	74.2
706.644	74.06
706.829	74.67
707.014	74.84
707.199	75.19
707.384	75.69
707.568	75.94
707.753	76.46
707.938	76.89
708.123	77.17
708.307	76.95
708.492	76.8
708.677	76.42
708.861	76.22
709.046	76.15
709.231	76.88
709.415	77.74
709.6	78.37
709.784	78.56
709.969	79.33
710.153	79.4
710.338	79.78
710.522	79.64
710.707	80.42
710.891	80.39
711.076	81.15
711.26	80.75
711.445	80.88
711.629	80.78
711.813	81.18
711.998	81.37
712.182	81.83
712.366	82.17
712.551	82.56
712.735	81.95
712.919	81.88
713.103	82.1
713.288	81.84
713.472	81.76
713.656	82.56
713.84	82.76
714.024	83.02
714.208	83.85
714.393	84.35
714.577	84.83
714.761	84.55
714.945	84.9
715.129	84.52
715.313	84.47
715.497	84
715.681	84.47
715.865	84.41
716.049	85.06
716.233	85.17
716.417	85.33
716.601	85.6
716.785	85.75
716.968	85.82
717.152	86.23
717.336	86.55
717.52	86.14
717.704	86.39
717.888	86.95
718.071	86.31
718.255	86.56
718.439	86.69
718.622	86.81
718.806	86.38
718.99	86.55
719.174	87.13
719.357	87.8
719.541	87.26
719.724	87.78
719.908	88.92
720.092	88.86
720.275	89
720.459	90
720.642	89.68
720.826	89.37
721.009	88.64
721.193	87.58
721.376	87.21
721.559	87.94
721.743	88.14
721.926	88.69
722.11	88.97
722.293	89.33
722.476	88.22
722.66	87.99
722.843	88.18
723.026	88.63
723.21	88.38
723.393	89.86
723.576	90.26
723.759	89.8
723.942	90.18
724.126	90.44
724.309	90.01
724.492	89.58
724.675	90.66
724.858	91.31
725.041	91.8
725.224	91.73
725.407	91.5
725.59	90.73
725.774	90.01
725.957	89.11
726.14	89.43
726.322	90.16
726.505	90.52
726.688	90.68
726.871	90.97
727.054	91.08
727.237	91.36
727.42	92.23
727.603	93.2
727.786	93.54
727.968	93.78
728.151	93.7
728.334	92.77
728.517	92.46
728.699	92.83
728.882	92.47
729.065	92.74
729.248	93.29
729.43	93.83
729.613	94.7
729.796	95
729.978	93.54
730.161	93.3
730.343	93.17
730.526	92.88
730.708	92.89
730.891	94.39
731.073	94.46
731.256	93.76
731.438	93.94
731.621	93.92
731.803	94.44
731.986	95.05
732.168	95.49
732.35	95.55
732.533	95.47
732.715	95.14
732.898	95.25
733.08	95.76
733.262	95.95
733.444	96.33
733.627	95.66
733.809	96.05
733.991	96.67
734.173	96.2
734.355	96.9
734.538	97.83
734.72	96.85
734.902	96.14
735.084	95.72
735.266	95.64
735.448	95.66
735.63	95.85
735.812	96.01
735.994	96.8
736.176	96.28
736.358	95.92
736.54	97.42
736.722	97.3
736.904	97.55
737.086	97.01
737.268	99.14
737.45	98.51
737.632	98.72
737.814	97.81
737.995	98.94
738.177	97.83
738.359	98.1
738.541	98.02
738.723	99.33
738.904	99.63
739.086	98.75
739.268	98.1
739.449	97.84
739.631	97.43
739.813	96.68
739.994	98.15
740.176	97.91
740.358	98.4
740.539	98.45
740.721	98.66
740.902	99.07
741.084	100.01
741.265	99.19
741.447	100.33
741.628	100.46
741.81	98.37
741.991	99.14
742.172	100.82
742.354	100.09
742.535	100.56
742.717	102.23
742.898	100.71
743.079	101
743.261	100.38
743.442	99.19
743.623	98.41
743.804	99.57
743.986	99.19
744.167	97.93
744.348	100.16
744.529	100.84
744.71	99.21
744.891	99.17
745.073	99.5
745.254	98.94
745.435	98.33
745.616	98.6
745.797	97.01
745.978	97.96
746.159	97.63
746.34	96.91
746.521	97.62
746.702	98.85
746.883	99.31
747.064	96.61
747.245	96.98
747.426	96.1
747.606	95.78
747.787	95.56
747.968	97.49
748.149	98.13
748.33	99.46
748.51	98.35
748.691	96.54
748.872	97.57
749.053	97.8
749.233	97.16
749.414	97.47
749.595	98.38
749.775	96.73
749.956	94.65
750.137	93.71
750.317	94.11
750.498	94.52
750.678	93.67
750.859	95.2
751.04	96.71
751.22	96.74
751.4	95.35
751.581	96.88
751.761	97.55
751.942	97.94
752.122	98.67
752.303	99.42
752.483	99.42
752.663	98.4
752.844	97.69
753.024	97.85
753.204	98.74
753.385	97.99
753.565	96.18
753.745	96.12
753.925	95.6
754.106	96.07
754.286	97.38
754.466	98.59
754.646	98.71
754.826	98.2
755.006	95.7
755.187	96.67
755.367	97.56
755.547	98.48
755.727	98.9
755.907	98.74
756.087	98.82
756.267	97.66
756.447	96.98
756.627	96.68
756.807	99.49
756.987	97.93
757.167	99.71
757.346	98.93
757.526	97.7
757.706	97.54
757.886	97.5
758.066	98.4
758.246	100.44
758.425	102.55
758.605	100.73
758.785	100.47
758.965	100.04
759.144	96.41
759.324	95.27
759.504	97.33
759.683	97.17
759.863	95.22
760.043	97.67
760.222	97.82
760.402	95.61
760.581	96.61
760.761	97.68
760.94	94.34
761.12	94.6
761.299	97.14
761.479	95.88
761.658	95.08
761.838	96.99
762.017	96.81
762.197	94.45
762.376	95.28
762.555	95.49
762.735	96.77
762.914	94.63
763.093	97.76
763.273	96.14
763.452	96.86
763.631	94.96
763.81	94.28
763.99	91.57
764.169	92.88
764.348	89.14
764.527	89.59
764.706	93.45
764.885	94.55
765.064	93.48
765.243	94.49
765.423	94.34
765.602	92.93
765.781	90.55
765.96	89.18
766.139	90.73
766.318	91.4
766.497	92.12
766.676	94.32
766.854	95.98
767.033	95.8
767.212	96.44
767.391	94.21
767.57	93.8
767.749	94.51
767.928	95.72
768.106	92.09
768.285	92.16
768.464	94.07
768.643	93.49
768.821	93.02
769	95.59
769.179	95.6
769.357	90.07
769.536	87.25
769.715	87.46
769.893	86.91
770.072	86.45
770.25	87.58
770.429	89.44
770.607	87.68
770.786	87.97
770.964	90.78
771.143	94.33
771.321	96.81
771.5	98.87
771.678	97.71
771.857	94.66
772.035	94.65
772.213	91.92
772.392	86.97
772.57	89.52
772.748	91.86
772.927	87.45
773.105	87.14
773.283	91.37
773.461	90.99
773.64	88.85
773.818	88.17
773.996	91.12
774.174	90.32
774.352	86.08
774.531	86.29
774.709	89.77
774.887	87.25
775.065	85.83
775.243	86.32
775.421	87.19
775.599	88.43
775.777	85.74
775.955	84.01
776.133	85.63
776.311	84.12
776.489	81.25
776.667	83.11
776.844	87.09
777.022	84.74
777.2	84.91
777.378	84.24
777.556	85.16
777.734	83.28
777.911	84.91
778.089	84.66
778.267	88.46
778.445	85.96
778.622	85.6
778.8	86.28
778.978	88.81
779.155	84.52
779.333	85.76
779.511	81.05
779.688	81.19
779.866	74.67
780.043	73.88
780.221	75.35
780.398	76.81
780.576	78.41
780.753	84.29
780.931	84.94
781.108	82.58
781.286	87.54
781.463	81.51
781.64	80.59
781.818	84.1
781.995	87.21
782.172	83.87
782.35	89.88
782.527	87.39
782.704	86.09
782.882	86.87
783.059	87.18
783.236	85.6
783.413	89.35
783.59	88.15
783.768	82.53
783.945	84.22
784.122	84.6
784.299	82.16
784.476	81.46
784.653	85.72
784.83	83.92
785.007	78.19
785.184	81.18
785.361	82.62
785.538	83.98
785.715	83.22
785.892	88.92
786.069	89.74
786.246	90.47
786.423	86.29
786.6	88.11
786.776	87.5
786.953	85.82
787.13	86.64
787.307	88.77
787.484	90.8
787.66	88.83
787.837	83.07
788.014	82.08
788.191	76.72
788.367	71.57
788.544	72.08
788.721	74.58
788.897	76.61
789.074	81.2
789.25	80.43
789.427	83.12
789.603	82.83
789.78	83.36
789.956	72.62
790.133	75.36
790.309	72.89
790.486	74.9
790.662	70.31
790.839	76.08
791.015	78.07
791.192	70.51
791.368	71.84
791.544	67.91
791.721	73.47
791.897	73.16
792.073	80.73
792.249	79.59
792.426	83.27
792.602	84.74
792.778	79.11
792.954	76.82
793.13	71.86
793.307	69.49
793.483	58.56
793.659	60.4
793.835	60.4
794.011	65.99
794.187	62.82
794.363	62.62
794.539	67.94
794.715	65.78
794.891	63.38
795.067	63.07
795.243	73.55
795.419	72.46
795.595	74.96
795.771	76.12
795.947	84.3
796.122	73.58
796.298	73.34
796.474	71.27
796.65	69.85
796.826	67.16
797.001	75.91
797.177	69.68
797.353	72.25
797.529	77.24
797.704	73.17
797.88	65.85
798.056	64.62
798.231	65.95
798.407	64.35
798.582	63.77
798.758	69.91
798.934	79.12
799.109	74.39
799.285	69.83
799.46	79.57
799.636	80.6
799.811	77.77
799.986	85.85
800.162	94.16
800.337	88.08
800.513	82.89
800.688	80.41
800.863	80.87
801.039	72.09
801.214	66.08
801.389	68.37
801.565	71.47
801.74	66.18
801.915	68.07
802.09	75.58
802.265	80.57
802.441	80.18
802.616	77.72
802.791	80.14
802.966	78.34
803.141	72.03
803.316	59.1
803.491	62.48
803.666	58.48
803.841	57.91
804.016	59.26
804.191	70.67
804.366	69.89
804.541	73.07
804.716	61.92
804.891	56.33
805.066	57.93
805.241	61.34
805.416	61.33
805.591	63.75
805.765	67.49
805.94	69.09
806.115	67.07
806.29	61.21
806.464	71.81
806.639	69.75
806.814	52.32
806.989	37.69
807.163	43.19
807.338	34.88
807.512	36.87
807.687	43.93
807.862	56.69
808.036	60.93
808.211	64.47
808.385	67
808.56	72.97
808.734	67.86
808.909	65.07
809.083	62.92
809.258	66.15
809.432	68.03
809.606	55.87
809.781	60.59
809.955	70.39
810.13	69.3
810.304	59.91
810.478	70
810.652	75.71
810.827	71.13
811.001	73.51
811.175	68.35
811.349	69.58
811.524	56.63
811.698	46.05
811.872	36.18
812.046	50.68
812.22	54.09
812.394	48.21
812.568	51.95
812.742	58.79
812.916	50.85
813.09	48.77
813.264	59.52
813.438	64.52
813.612	53.9
813.786	42.41
813.96	49.05
814.134	43.87
814.308	46.03
814.482	51.24
814.656	60.13
814.83	69.37
815.003	78.52
815.177	73.37
815.351	69.83
815.525	84.4
815.698	68.01
815.872	47.72
816.046	42.22
816.219	42.63
816.393	37.53
816.567	43.27
816.74	53.58
816.914	67.65
817.088	71.9
817.261	64.43
817.435	51.6
817.608	43.89
817.782	34.73
817.955	34.63
818.129	23.04
818.302	35.07
818.475	54.04
818.649	53.37
818.822	45.44
818.996	66.2
819.169	64.65
819.342	49.71
819.516	50.65
819.689	62.22
819.862	48.37
820.035	36.57
820.209	30.96
820.382	32.92
820.555	30.74
820.728	29.92
820.901	31.21
821.075	48.5
821.248	61.95
821.421	54.37
821.594	44.75
821.767	71.46
821.94	80.53
822.113	43.27
822.286	42.54
822.459	67.32
822.632	53
822.805	41.55
822.978	53.01
823.151	58.58
823.324	29.33
823.496	-1.2
823.669	9.13
823.842	15.41
824.015	0.04
824.188	3.55
824.361	12.56
824.533	-4.21
824.706	11.92
824.879	8.64
825.051	45.9
825.224	50.31
825.397	49.68
825.569	34.27
825.742	50.78
825.915	36.47
826.087	32.23
826.26	21.89
826.432	31.23
826.605	40.03
826.777	44.14
826.95	36.28
827.122	36.07
827.295	37.14
827.467	18.25
827.64	-9.73
827.812	-10.37
827.984	6.65
828.157	1.3
828.329	4.11
828.501	22.24
828.674	40.73
828.846	30.9
829.018	22.26
829.19	14.94
829.363	23.21
829.535	20.71
829.707	22.87
829.879	10.92
830.051	5.25
830.223	20.28
830.395	-4.59
830.568	-12.91
830.74	-3.24
830.912	18.13
831.084	-1.49
831.256	-1.74
831.428	-17.21
831.6	-19.14
831.772	-43.33
831.943	-43.98
832.115	-16.4
832.287	20.52
832.459	20.49
832.631	31.47
832.803	50.82
832.975	45.85
833.146	40.73
833.318	39.51
833.49	50.15
833.662	37.31
833.833	23.98
834.005	18.6
834.177	35.15
834.348	14.05
834.52	1.78
834.692	18.43
834.863	17.17
835.035	2.26
835.206	16.96
835.378	29.42
835.549	8
835.721	21.09
835.892	15.11
836.064	10.33
836.235	24.33
836.407	49.02
836.578	21.48
836.749	27.92
836.921	16.04
837.092	-2.59
837.264	-46.35
837.435	-45.97
837.606	-18.68
837.777	0.98
837.949	14.66
838.12	12.94
838.291	36.86
838.462	33.53
838.633	30.13
838.805	11.19
838.976	28.35
839.147	15.86
839.318	-32.85
839.489	-62.44
839.66	-31.1
839.831	-24.58
840.002	-18.23
840.173	8.19
840.344	26.65
840.515	19.66
840.686	-17.9
840.857	-40.55
841.028	-62.14
841.199	-35.89
841.369	-50.58
841.54	-31.57
841.711	20.18
841.882	16.73
842.053	-11.86
842.223	-39.21
842.394	-16.75
842.565	-23.09
842.736	0.96
842.906	-2.31
843.077	27.06
843.248	44.9
843.418	29.59
843.589	2.22
843.759	36.5
843.93	50.33
844.101	30.3
844.271	36.56
844.442	65.96
844.612	66.89
844.783	33.23
844.953	4.94
845.123	27.63
845.294	16.89
845.464	-18.21
845.635	-0.72
845.805	24.98
845.975	17.66
846.146	-12.1
846.316	-7.22
846.486	-1.78
846.656	-3.85
846.827	-39.59
846.997	-12.14
847.167	11.66
847.337	-13.89
847.507	-16.28
847.677	-10.6
847.848	0.38
848.018	-8.4
848.188	0.27
848.358	-7.8
848.528	-0.72
848.698	-15.12
848.868	-44.64
849.038	-55.84
849.208	-39.73
849.378	-30.67
849.548	-59.32
849.718	-3.44
849.887	26.22
850.057	-20.34
850.227	-52.85
850.397	-30.03
850.567	-64.1
850.737	-37.38
850.906	-57.57
851.076	-77.66
851.246	-98.76
851.415	-61.57
851.585	-59.93
851.755	-54.33
851.924	-14.66
852.094	9.83
852.264	-3.08
852.433	-42.48
852.603	-17.32
852.772	-33.11
852.942	-55.7
853.111	-82.52
853.281	-5.45
853.45	6.45
853.62	-3.6
853.789	-48.91
853.959	2.42
854.128	-47.84
854.297	-103.93
854.467	-121.25
854.636	-68.42
854.805	-68.38
854.975	-64.8
855.144	-42.17
855.313	24.57
855.482	33.83
855.652	14.27
855.821	4.42
855.99	49.94
856.159	35.65
856.328	6.09
856.497	-3.06
856.667	9.66
856.836	-12.72
857.005	-97.07
857.174	-170.63
857.343	-132.23
857.512	-94.02
857.681	-153.62
857.85	-96.4
858.019	-41.62
858.188	-48.09
858.356	-88.94
858.525	-87.34
858.694	-108.25
858.863	-107.44
859.032	-115.94
859.201	-88.16
859.369	-55.16
859.538	-31.76
859.707	-43.32
859.876	-60.14
860.044	-52.56
860.213	-40.53
860.382	-51.71
860.55	-49.38
860.719	-3.47
860.888	7.9
861.056	-52.5
861.225	-39.51
861.393	-10.09
861.562	31.68
861.73	-5.41
861.899	10.31
862.067	-6.24
862.236	-1.36
862.404	-64.65
862.572	-91.76
862.741	-47.77
862.909	-67.39
863.078	-81.82
863.246	-83.46
863.414	-67.18
863.582	-138.74
863.751	-82.71
863.919	-82.18
864.087	-22.01
864.255	-16.77
864.424	-50.34
864.592	-23.48
864.76	1.3
864.928	-9.39
865.096	-9.21
865.264	0.35
865.432	-16.79
865.6	-21.28
865.768	-102.23
865.936	-223.12
866.104	-181.02
866.272	-261.02
866.44	-214.57
866.608	-191.89
866.776	-217.26
866.944	-311.88
867.112	-425.93
867.28	-596.07
867.448	-1143.83
867.615	-544.31
867.783	-137.07
867.951	-124.56
868.119	-39.47
868.286	-60.23
868.454	-94.33
868.622	-176.48
868.789	-171.81
868.957	-115.53
869.125	-109.67
869.292	-88.83
869.46	-49.24
869.627	-13.37
869.795	-77.95
869.963	-71.18
870.13	-24.53
870.298	-18.85
870.465	-86.4
870.632	-78.4
870.8	-87.7
870.967	-102.86
871.135	-203.95
871.302	-114.63
871.469	-78.86
871.637	-42.97
871.804	-24.34
871.971	-29.63
872.139	-22.5
872.306	2.59
872.473	-20.46
872.64	-82.87
872.807	-53.16
872.975	-29.37
873.142	-80.3
873.309	-77.25
873.476	45.09
873.643	62.66
873.81	29.83
873.977	36.9
874.144	29.48
874.311	-6.57
874.478	-96.16
874.645	-180.42
874.812	-609.44
874.979	30204.76
875.146	-706.02
875.313	-185.77
875.48	-70.35
875.647	-70.86
875.813	-99.1
875.98	-147.84
876.147	-233.2
876.314	-227.97
876.481	-275.21
876.647	-303.95
876.814	-185.62
876.981	-167.52
877.147	-219.41
877.314	-215.22
877.481	-113.57
877.647	-28.62
877.814	-85.99
877.98	-125.01
878.147	-40.04
878.314	-5.56
878.48	-80.53
878.647	-50.96
878.813	33.42
878.979	25.14
879.146	-1.68
879.312	2.93
879.479	16.67
879.645	4.36
879.811	-57.56
879.978	-57.45
880.144	-33.28
880.31	-72.86
880.477	-153.33
880.643	-147.22
880.809	-99.43
880.975	-47.6
881.142	-79.26
881.308	-55.92
881.474	-3.99
881.64	-9.49
881.806	-70.29
881.972	-30.57
882.138	-18.74
882.304	-12.79
882.47	-117.74
882.636	-173.09
882.802	-211.36
882.968	-119.73
883.134	-265.48
883.3	-317.74
883.466	-96.73
883.632	-53.66
883.798	-154.83
883.964	-119.75
884.129	-92.92
884.295	-116.84
884.461	-142.25
884.627	-174.41
884.793	-124.95
884.958	-77.79
885.124	-121.51
885.29	-131.35
885.455	-70.19
885.621	-88.45
885.787	-317.58
885.952	-192.13
886.118	-183.6
886.283	-199.25
886.449	-218.97
886.614	-152.7
886.78	-149.33
886.945	-177.1
887.111	-271.89
887.276	-289.23
887.442	-535.11
887.607	-418.57
887.773	-468.25
887.938	-366.07
888.103	-204.46
888.269	-96.45
888.434	-56.54
888.599	-31.4
888.764	44.84
888.93	42.95
889.095	2.87
889.26	-28.59
889.425	5.81
889.59	7.26
889.756	-19.79
889.921	7.79
890.086	17.83
890.251	0.71
890.416	-54.38
890.581	-72.23
890.746	-72.46
890.911	-36.43
891.076	-80.31
891.241	-147.71
891.406	-176.45
891.571	-80.95
891.736	-101.32
891.901	-142.49
892.065	-85.53
892.23	-47.54
892.395	-141.87
892.56	-211.76
892.725	-95.88
892.889	-59.69
893.054	-179.26
893.219	-169.56
893.384	-135.01
893.548	-188.53
893.713	-262.31
893.878	-203.83
