Data from Ofra_PP_Phys_8HS23B_Reflection_1.txt Node
Date: Sat Jul 24 20:08:07 EDT 2021
User: USUARIO
Spectrometer: FLMT01687
Trigger mode: 0
Integration Time (sec): 1.100000E0
Scans to average: 2
Electric dark correction enabled: true
Nonlinearity correction enabled: false
Boxcar width: 2
XAxis mode: Wavelengths
Number of Pixels in Spectrum: 3648
>>>>>Begin Spectral Data<<<<<
179.494	596.3
179.716	768.42
179.937	1343.86
180.158	1166.84
180.38	552.67
180.601	-730.05
180.823	-52.7
181.044	979.07
181.265	-20
181.486	-1.47
181.708	15.28
181.929	-916
182.15	242.17
182.372	-73.33
182.593	33100
182.814	656.92
183.035	198.65
183.257	125.73
183.478	13.88
183.699	31.54
183.92	-33.72
184.141	13.91
184.363	-44.59
184.584	70.33
184.805	68.01
185.026	80.45
185.247	76.73
185.468	68.16
185.689	47.28
185.91	31.9
186.132	29.1
186.353	30.14
186.574	42.82
186.795	55.94
187.016	-1.81
187.237	20.86
187.458	7.55
187.679	43.79
187.9	39.13
188.121	94.85
188.342	105.76
188.563	116.74
188.784	106.21
189.005	112.86
189.226	116.36
189.447	80.58
189.667	73.99
189.888	48.13
190.109	14.17
190.33	-23.72
190.551	-36.99
190.772	-40.07
190.993	-62.08
191.214	-21.37
191.434	-40.73
191.655	27.53
191.876	19.09
192.097	10.62
192.318	-0.23
192.538	8.73
192.759	-13.89
192.98	-14.52
193.201	18.97
193.421	-20.7
193.642	0.77
193.863	5.98
194.083	-12.1
194.304	-9.94
194.525	17.09
194.745	8.42
194.966	-36.1
195.187	-28.54
195.407	-76.74
195.628	-95.66
195.848	-84.24
196.069	-82.16
196.29	-62.58
196.51	-89.12
196.731	-99.29
196.951	-81.77
197.172	-50.03
197.392	-57.33
197.613	-13.54
197.833	-6.14
198.054	-28.74
198.274	-15.15
198.495	-55.71
198.715	-41.27
198.936	-57.76
199.156	-20.12
199.377	-39.35
199.597	-20.51
199.817	-31.13
200.038	7.47
200.258	13.66
200.479	37.89
200.699	53.8
200.919	56.38
201.14	23.68
201.36	-1.02
201.58	-3.99
201.801	5.25
202.021	-14.7
202.241	3.81
202.461	-17.38
202.682	-18.1
202.902	-11.79
203.122	-0.26
203.342	-3.8
203.563	25.81
203.783	47.12
204.003	-29.89
204.223	-107.03
204.443	-23.12
204.663	-24.77
204.884	-45.01
205.104	2.98
205.324	65.22
205.544	55.66
205.764	54.8
205.984	56.38
206.204	80.4
206.424	55.85
206.644	22.19
206.864	27.75
207.084	39.79
207.304	25.98
207.525	-13.42
207.745	3.18
207.964	4.63
208.184	-11.21
208.404	-20.71
208.624	-13.21
208.844	-4.19
209.064	-33.48
209.284	-18.98
209.504	3
209.724	43.83
209.944	29.37
210.164	50.56
210.384	54.14
210.604	32.48
210.823	-20.5
211.043	-37.22
211.263	-31.26
211.483	-47.5
211.703	-65.55
211.922	-25.26
212.142	34.61
212.362	50.17
212.582	39.05
212.801	55.73
213.021	25.49
213.241	24.36
213.461	-20.48
213.68	-35.21
213.9	-41.95
214.12	-23.58
214.339	-57.94
214.559	-39.45
214.779	-8.39
214.998	13.49
215.218	-13.13
215.438	-14.84
215.657	-26.74
215.877	13.61
216.096	20.5
216.316	68.7
216.535	95.52
216.755	82.43
216.974	37.78
217.194	43.89
217.413	13.49
217.633	-4.02
217.852	-53.53
218.072	-56.53
218.291	-75.83
218.511	-47.36
218.73	-98.15
218.95	-75.2
219.169	-61.61
219.389	-89.55
219.608	-102.38
219.827	-39.33
220.047	-10.02
220.266	-9.07
220.485	-10.89
220.705	17.83
220.924	-20.22
221.143	-13.36
221.363	-51.24
221.582	1.63
221.801	-4.54
222.021	33.2
222.24	34.21
222.459	79.69
222.678	55.54
222.897	41.1
223.117	29.08
223.336	32.55
223.555	33.15
223.774	48.07
223.993	74.48
224.213	112
224.432	57.66
224.651	80.86
224.87	62.62
225.089	63.97
225.308	58.26
225.527	87.99
225.746	79.73
225.965	70.03
226.184	53.47
226.404	44.12
226.623	23.36
226.842	10.71
227.061	42.26
227.28	54.64
227.499	66.75
227.718	84.63
227.936	79.76
228.155	80.07
228.374	35.49
228.593	20.32
228.812	13.68
229.031	22.72
229.25	-9.16
229.469	43.33
229.688	37.56
229.907	49.87
230.125	58.12
230.344	70.46
230.563	50.38
230.782	73.26
231.001	20.85
231.22	3.53
231.438	-2.2
231.657	2.54
231.876	-10.6
232.095	27.02
232.313	46.01
232.532	38.21
232.751	51.11
232.969	51.98
233.188	49.47
233.407	57.97
233.625	49.69
233.844	23.61
234.063	12.69
234.281	36.86
234.5	22.89
234.719	47.11
234.937	54.99
235.156	56.55
235.374	41.9
235.593	55.37
235.811	43.15
236.03	54.82
236.249	41.58
236.467	47.8
236.686	20.31
236.904	25.88
237.123	-42.24
237.341	-45.38
237.559	-51.86
237.778	-53.31
237.996	-78.2
238.215	-29.32
238.433	-32.51
238.652	-20.83
238.87	-60.74
239.088	-19.26
239.307	-9.83
239.525	-2.49
239.743	-33.76
239.962	6.32
240.18	-24.08
240.398	-75.65
240.617	-93.47
240.835	-55.84
241.053	-93.44
241.271	-39.94
241.49	4.36
241.708	18.01
241.926	23.55
242.144	37.4
242.363	7.06
242.581	0.85
242.799	20.17
243.017	6.75
243.235	-31.79
243.453	-4.92
243.672	-8.35
243.89	-10.32
244.108	1.55
244.326	28.87
244.544	26.06
244.762	13.24
244.98	16.45
245.198	17.07
245.416	6.69
245.634	2.02
245.852	25.55
246.07	21.09
246.288	19.94
246.506	7.86
246.724	23.15
246.942	17.03
247.16	19.76
247.378	23.9
247.596	47.11
247.814	40.19
248.032	9.06
248.25	10.14
248.468	8.98
248.685	17.74
248.903	32.41
249.121	47.03
249.339	5.47
249.557	5.2
249.775	-30.85
249.992	-102.42
250.21	-99.39
250.428	-55.13
250.646	-46.82
250.863	-35.07
251.081	-11.13
251.299	14.99
251.517	11.05
251.734	-3.63
251.952	-16.3
252.17	4.01
252.387	13.34
252.605	-12.2
252.823	-1.41
253.04	24.27
253.258	15.9
253.475	3.23
253.693	38.92
253.911	55.39
254.128	39.62
254.346	46.9
254.563	27.98
254.781	12.91
254.998	2.03
255.216	0.86
255.433	-3.91
255.651	30.2
255.868	45.98
256.086	45.23
256.303	56.64
256.521	56.92
256.738	24.26
256.956	2.17
257.173	20.43
257.39	1.26
257.608	1.12
257.825	10.62
258.043	25.63
258.26	21.4
258.477	21.32
258.695	20.4
258.912	-4.61
259.129	-3.52
259.346	-33.57
259.564	-25.21
259.781	-9.51
259.998	5.27
260.216	34.95
260.433	66.66
260.65	55.65
260.867	65.01
261.084	45.54
261.302	23.58
261.519	26.8
261.736	8.01
261.953	-6.62
262.17	19.26
262.387	11.52
262.604	-14.56
262.822	-7.67
263.039	-7.29
263.256	-29.04
263.473	-14.93
263.69	-22.81
263.907	-4.4
264.124	3.34
264.341	34.98
264.558	20.33
264.775	28.71
264.992	35.69
265.209	48.61
265.426	37.59
265.643	37.98
265.86	46.1
266.077	53.33
266.294	28.95
266.51	29.62
266.727	20.48
266.944	36.15
267.161	-1.6
267.378	6.85
267.595	5.58
267.812	-19.44
268.028	-30.29
268.245	1.96
268.462	-10.94
268.679	-7.23
268.896	30.05
269.112	7.39
269.329	5.78
269.546	34.47
269.763	41.1
269.979	50.4
270.196	49.94
270.413	39.47
270.629	11.98
270.846	-4.03
271.063	8.51
271.279	-0.18
271.496	-22.25
271.712	-17.37
271.929	-20.6
272.146	-19.75
272.362	-3
272.579	42.25
272.795	57.09
273.012	82.05
273.228	51.96
273.445	28
273.661	-10.21
273.878	-81.2
274.094	-82.55
274.311	-72.25
274.527	0.36
274.744	29
274.96	63.55
275.177	60.37
275.393	59.42
275.609	47.57
275.826	39.74
276.042	39.31
276.259	34.19
276.475	24.28
276.691	25.29
276.908	28.68
277.124	55.84
277.34	49.07
277.557	47.17
277.773	40.19
277.989	30.27
278.205	19.58
278.422	34.98
278.638	43.77
278.854	34.7
279.07	31.57
279.286	-6.31
279.503	-24.72
279.719	-26.09
279.935	-34.76
280.151	-38.08
280.367	2.95
280.583	9.19
280.799	5.67
281.016	11.47
281.232	23.61
281.448	19.23
281.664	26.86
281.88	29.01
282.096	33.01
282.312	45.09
282.528	59.34
282.744	54.86
282.96	51.74
283.176	59.94
283.392	42.34
283.608	30.9
283.824	34.89
284.04	38.02
284.256	46.87
284.471	47.15
284.687	39.65
284.903	32
285.119	55.46
285.335	22.2
285.551	35.23
285.767	34.14
285.982	23.09
286.198	10.72
286.414	32.45
286.63	21.54
286.846	42.05
287.061	20.95
287.277	8.46
287.493	14.11
287.709	19.92
287.924	4.99
288.14	44.04
288.356	58
288.571	57.09
288.787	44.32
289.003	44.52
289.218	19.05
289.434	-23.86
289.65	0.47
289.865	10.17
290.081	14.73
290.296	15.61
290.512	20.6
290.727	15.19
290.943	2.73
291.159	7.69
291.374	7.58
291.59	-3.12
291.805	-11.56
292.021	1.62
292.236	-13.58
292.451	-0.69
292.667	16.67
292.882	29.9
293.098	48.54
293.313	37.47
293.529	27.94
293.744	-7.79
293.959	-33.47
294.175	-41.66
294.39	-13.84
294.605	2.71
294.821	42.85
295.036	38.89
295.251	44.95
295.467	39.77
295.682	30.88
295.897	6.37
296.112	2.96
296.328	7.56
296.543	-5.96
296.758	-15.05
296.973	28.74
297.188	74.43
297.404	39.8
297.619	50.66
297.834	45.54
298.049	27.43
298.264	0.48
298.479	24.73
298.694	29.67
298.909	42.33
299.125	39.4
299.34	51.28
299.555	27.1
299.77	28.36
299.985	-35.75
300.2	-55.27
300.415	-84.5
300.63	-40.22
300.845	-41.12
301.06	-14.38
301.275	-4.77
301.49	-1.99
301.704	-20.65
301.919	-37.59
302.134	-43.46
302.349	10.36
302.564	-6.25
302.779	8.49
302.994	49.75
303.209	50.58
303.423	49.04
303.638	83.93
303.853	50.36
304.068	7.68
304.283	11.98
304.497	-2.1
304.712	4.37
304.927	16.52
305.142	16
305.356	21.62
305.571	21.12
305.786	14.3
306	17.77
306.215	28.08
306.43	-0.03
306.644	15.45
306.859	24.58
307.074	12.17
307.288	-12.12
307.503	24.35
307.717	8.6
307.932	10.39
308.147	13.9
308.361	40.4
308.576	-6.17
308.79	-52.89
309.005	-42.41
309.219	-30.85
309.434	-25.68
309.648	-20.65
309.863	20.6
310.077	25.57
310.292	15.62
310.506	-0.06
310.72	38.74
310.935	36.24
311.149	24.16
311.364	24.43
311.578	51.23
311.792	32.53
312.007	38.44
312.221	5.6
312.435	26.15
312.649	-5.16
312.864	32.94
313.078	22.69
313.292	69.31
313.507	49.09
313.721	57.65
313.935	35.66
314.149	52.34
314.363	33.15
314.578	19.34
314.792	-7.91
315.006	14.1
315.22	-4.08
315.434	0.45
315.648	10.31
315.862	9.9
316.077	2.92
316.291	20.09
316.505	24.99
316.719	20.5
316.933	4.97
317.147	16.16
317.361	-19.65
317.575	-14.11
317.789	-14.84
318.003	-10.78
318.217	-1.97
318.431	27.73
318.645	37.61
318.859	35.24
319.073	49.12
319.287	25.78
319.5	-6.28
319.714	-45.89
319.928	-52.6
320.142	-59.58
320.356	0.99
320.57	26.11
320.784	39.3
320.997	52.09
321.211	64.22
321.425	22.9
321.639	-13.61
321.853	7.03
322.066	-5.38
322.28	-32.64
322.494	-24.48
322.707	37.24
322.921	21.37
323.135	19.86
323.349	44.3
323.562	35.04
323.776	-0.31
323.989	-2.2
324.203	-5.9
324.417	-0.46
324.63	-23.68
324.844	-41.38
325.057	-32.95
325.271	-29.25
325.485	-55.43
325.698	1.86
325.912	29.86
326.125	14.07
326.339	28.6
326.552	26.52
326.766	26.2
326.979	38.35
327.193	68.3
327.406	55.53
327.619	60.3
327.833	56.01
328.046	36.1
328.26	3.68
328.473	3.5
328.686	-13.33
328.9	-11.97
329.113	-6.6
329.326	3.29
329.54	15.07
329.753	14.18
329.966	11.3
330.179	19.42
330.393	26.93
330.606	23.26
330.819	39.74
331.032	43.71
331.246	50.08
331.459	58.85
331.672	31.77
331.885	15.99
332.098	-15.96
332.311	-3.04
332.525	-8.03
332.738	6.23
332.951	20.62
333.164	40.32
333.377	40.17
333.59	49.31
333.803	41.5
334.016	32.79
334.229	21.16
334.442	9.1
334.655	21.05
334.868	37.06
335.081	38.94
335.294	42.43
335.507	52.64
335.72	39.23
335.933	19.64
336.146	20.9
336.359	35.62
336.572	5.46
336.785	-6.16
336.997	1.8
337.21	12.08
337.423	-4.62
337.636	6.46
337.849	17.19
338.062	22.96
338.274	17.75
338.487	11.95
338.7	13.85
338.913	-9.02
339.125	-22.15
339.338	-14.16
339.551	-4.72
339.763	26.54
339.976	48.95
340.189	55.03
340.402	54.56
340.614	50.5
340.827	28.25
341.039	4.06
341.252	-11.15
341.465	-23.77
341.677	-43.76
341.89	-81.83
342.102	-54.45
342.315	-32.53
342.527	-33.36
342.74	-12.79
342.952	26.22
343.165	30.49
343.377	45.77
343.59	25.14
343.802	51.2
344.015	65.91
344.227	68.58
344.44	51.6
344.652	55.14
344.864	39.16
345.077	44.22
345.289	35.75
345.502	39.28
345.714	28.55
345.926	18.13
346.139	4.29
346.351	-3.45
346.563	-25.74
346.775	-5.36
346.988	-5.74
347.2	-22.83
347.412	-32.55
347.624	-1.93
347.837	9.31
348.049	18.12
348.261	34.94
348.473	37.47
348.685	-1.18
348.897	-21.46
349.11	-18.26
349.322	-30
349.534	-4.28
349.746	19.68
349.958	32.67
350.17	27.03
350.382	42.59
350.594	43.09
350.806	48.33
351.018	32.01
351.23	34.14
351.442	24.19
351.654	23.05
351.866	15.34
352.078	26.22
352.29	22.47
352.502	42.35
352.714	68.61
352.926	61.16
353.138	62.53
353.35	43.85
353.561	20.67
353.773	-8.68
353.985	7.41
354.197	-0.38
354.409	3.95
354.621	10.2
354.832	13.58
355.044	1.64
355.256	-12.9
355.468	-12.95
355.679	-19.9
355.891	0.22
356.103	-10.45
356.314	8.96
356.526	26.47
356.738	46.88
356.949	41.51
357.161	45.62
357.373	44.5
357.584	33.57
357.796	18.36
358.008	-0.16
358.219	28.11
358.431	34.97
358.642	48.23
358.854	56.26
359.065	54.97
359.277	27.4
359.488	10.42
359.7	-5.87
359.911	-24.45
360.123	-26.12
360.334	-22.57
360.546	-20.97
360.757	-15.46
360.969	-14.22
361.18	10.21
361.391	1.61
361.603	-11.92
361.814	4.28
362.025	5.52
362.237	-0.44
362.448	20.16
362.659	43.64
362.871	36.87
363.082	44.48
363.293	49.81
363.504	46.34
363.716	35.33
363.927	35.66
364.138	12.3
364.349	-17.21
364.56	-24.05
364.772	-44.31
364.983	-30.42
365.194	-32.64
365.405	-22.15
365.616	-13.52
365.827	0.28
366.038	1.33
366.25	36.69
366.461	30.67
366.672	34.24
366.883	44.11
367.094	31.52
367.305	10.03
367.516	30.3
367.727	19.24
367.938	7.92
368.149	1.88
368.36	13.9
368.571	7.7
368.781	1.91
368.992	-10.79
369.203	13.25
369.414	-1.08
369.625	-12.33
369.836	-10.21
370.047	-7.13
370.258	-12.03
370.468	-11.05
370.679	-37.2
370.89	-23.81
371.101	1.59
371.312	-22.22
371.522	-20.08
371.733	7.5
371.944	8.17
372.155	13.65
372.365	2.75
372.576	14.1
372.787	7.56
372.997	-4.47
373.208	-8.63
373.419	13.22
373.629	-4.83
373.84	8.36
374.05	12.56
374.261	18.99
374.472	-2
374.682	19.44
374.893	-0.49
375.103	16.43
375.314	5.89
375.524	24.97
375.735	28.27
375.945	38.79
376.156	8
376.366	14.53
376.577	15.15
376.787	14.6
376.997	29.89
377.208	39.5
377.418	17.51
377.629	24.73
377.839	14
378.049	3.54
378.26	20.76
378.47	40.09
378.68	34.58
378.89	31.88
379.101	29.97
379.311	9.67
379.521	-6.76
379.732	-7.71
379.942	-16.85
380.152	-20.42
380.362	-12.31
380.572	-7.74
380.783	10.9
380.993	22.49
381.203	34.07
381.413	37.72
381.623	44.12
381.833	31.26
382.043	15.54
382.253	6.52
382.463	9.63
382.674	10.33
382.884	-5.28
383.094	4.78
383.304	5.97
383.514	5.47
383.724	5.5
383.934	3.21
384.144	-7.18
384.353	-5.58
384.563	-1.77
384.773	-0.27
384.983	8.41
385.193	20.35
385.403	9.84
385.613	14.89
385.823	11.43
386.033	17.99
386.242	11.35
386.452	16.96
386.662	4.94
386.872	11.15
387.082	8.23
387.291	-1.86
387.501	2.96
387.711	5.47
387.921	-9.91
388.13	-3.64
388.34	12.83
388.55	9.07
388.759	13.73
388.969	23.85
389.179	17.84
389.388	12.58
389.598	13.51
389.807	9.18
390.017	6.7
390.227	6.43
390.436	4.97
390.646	7.89
390.855	10.27
391.065	12.48
391.274	11.17
391.484	9.89
391.693	9
391.903	9.7
392.112	10.92
392.322	14.61
392.531	18.33
392.74	17.37
392.95	12.98
393.159	11.36
393.369	12.11
393.578	8.78
393.787	9.09
393.997	12.57
394.206	12.04
394.415	13.22
394.625	14.54
394.834	13.54
395.043	12.54
395.252	13.84
395.462	13.52
395.671	14.47
395.88	15.29
396.089	15.76
396.298	15.3
396.508	14.34
396.717	14.21
396.926	13.97
397.135	13.92
397.344	13.39
397.553	13.81
397.762	14.46
397.971	14.2
398.181	13.87
398.39	13.06
398.599	12.43
398.808	11.57
399.017	12.09
399.226	12.29
399.435	13.57
399.644	13.57
399.853	13.24
400.062	12.47
400.27	12.54
400.479	11.98
400.688	11.26
400.897	11.63
401.106	11.89
401.315	11.28
401.524	11.11
401.733	11.75
401.941	11.63
402.15	11.79
402.359	11.99
402.568	12.29
402.777	12.24
402.985	12.25
403.194	12.27
403.403	12.32
403.612	11.87
403.82	11.8
404.029	11.79
404.238	11.33
404.446	11.39
404.655	11.07
404.864	11.13
405.072	11.01
405.281	11.15
405.489	10.77
405.698	11.01
405.906	10.78
406.115	10.51
406.324	10.46
406.532	10.61
406.741	10.86
406.949	10.67
407.158	10.77
407.366	10.74
407.574	10.7
407.783	10.41
407.991	10.39
408.2	10.46
408.408	10.29
408.617	10.23
408.825	10.03
409.033	10.24
409.242	10.32
409.45	10.41
409.658	10.27
409.867	10.54
410.075	10.31
410.283	10.05
410.491	9.96
410.7	9.9
410.908	9.76
411.116	9.87
411.324	9.76
411.533	9.84
411.741	9.96
411.949	10.07
412.157	9.87
412.365	10.07
412.573	9.96
412.781	9.95
412.99	9.82
413.198	9.85
413.406	9.8
413.614	9.7
413.822	9.64
414.03	9.54
414.238	9.5
414.446	9.54
414.654	9.46
414.862	9.38
415.07	9.45
415.278	9.51
415.486	9.05
415.694	9.28
415.902	9.24
416.109	9.03
416.317	9.15
416.525	9.1
416.733	8.99
416.941	9.11
417.149	9.11
417.357	8.99
417.564	9.33
417.772	9.29
417.98	9.19
418.188	9.32
418.395	9.29
418.603	9.3
418.811	9.15
419.019	8.93
419.226	9.06
419.434	9.23
419.642	9.06
419.849	9.18
420.057	9.49
420.265	9.41
420.472	9.02
420.68	9.11
420.887	8.98
421.095	8.99
421.302	8.85
421.51	9.05
421.717	9.05
421.925	9.15
422.132	9.03
422.34	8.81
422.547	8.85
422.755	8.9
422.962	8.94
423.17	8.86
423.377	9.14
423.585	9.1
423.792	8.96
423.999	8.82
424.207	8.78
424.414	8.79
424.621	8.83
424.829	8.69
425.036	8.77
425.243	8.73
425.451	8.66
425.658	8.49
425.865	8.55
426.072	8.46
426.28	8.54
426.487	8.35
426.694	8.41
426.901	8.49
427.108	8.46
427.315	8.41
427.523	8.67
427.73	8.6
427.937	8.29
428.144	8.15
428.351	8.08
428.558	8.04
428.765	7.98
428.972	8.15
429.179	8.24
429.386	8.51
429.593	8.45
429.8	8.36
430.007	8.38
430.214	8.44
430.421	8.31
430.628	8.2
430.835	8.09
431.042	8.24
431.249	8.27
431.456	8.39
431.662	8.65
431.869	8.88
432.076	8.86
432.283	8.72
432.49	8.4
432.697	8.28
432.903	7.98
433.11	7.99
433.317	8.27
433.524	8.53
433.73	8.42
433.937	8.79
434.144	8.74
434.35	8.72
434.557	8.66
434.764	8.8
434.97	8.69
435.177	8.79
435.384	8.42
435.59	8.58
435.797	8.61
436.003	8.75
436.21	8.58
436.416	8.81
436.623	8.6
436.829	8.56
437.036	8.47
437.242	8.43
437.449	8.25
437.655	8.28
437.862	8.24
438.068	8.29
438.275	8.45
438.481	8.67
438.687	8.62
438.894	8.57
439.1	8.41
439.307	8.45
439.513	8.33
439.719	8.39
439.926	8.32
440.132	8.41
440.338	8.29
440.544	8.46
440.751	8.34
440.957	8.54
441.163	8.2
441.369	8.3
441.575	8.14
441.782	8.1
441.988	7.87
442.194	8.12
442.4	8.07
442.606	8.21
442.812	8.42
443.018	8.6
443.224	8.74
443.431	8.84
443.637	8.78
443.843	8.54
444.049	8.56
444.255	8.43
444.461	8.38
444.667	8.25
444.873	8.4
445.079	8.47
445.284	8.55
445.49	8.41
445.696	8.34
445.902	8.34
446.108	8.25
446.314	8.1
446.52	8.35
446.726	8.69
446.931	8.57
447.137	8.62
447.343	8.71
447.549	8.37
447.755	8.23
447.96	8.4
448.166	8.31
448.372	8.38
448.578	8.39
448.783	8.38
448.989	8.48
449.195	8.63
449.4	8.54
449.606	8.64
449.812	8.58
450.017	8.54
450.223	8.48
450.428	8.37
450.634	8.57
450.84	8.64
451.045	8.43
451.251	8.33
451.456	8.55
451.662	8.57
451.867	8.62
452.073	8.65
452.278	8.8
452.483	8.93
452.689	8.74
452.894	8.85
453.1	9.02
453.305	8.87
453.51	8.73
453.716	8.75
453.921	8.66
454.127	8.59
454.332	8.5
454.537	8.39
454.742	8.44
454.948	8.53
455.153	8.39
455.358	8.5
455.563	8.69
455.769	8.71
455.974	8.54
456.179	8.64
456.384	8.57
456.589	8.55
456.795	8.37
457	8.45
457.205	8.52
457.41	8.55
457.615	8.48
457.82	8.63
458.025	8.66
458.23	8.46
458.435	8.62
458.64	8.43
458.845	8.58
459.05	8.48
459.255	8.5
459.46	8.37
459.665	8.48
459.87	8.39
460.075	8.32
460.28	8.44
460.485	8.57
460.69	8.66
460.895	8.41
461.099	8.42
461.304	8.69
461.509	8.73
461.714	8.59
461.919	8.9
462.123	8.98
462.328	8.85
462.533	8.6
462.738	8.65
462.942	8.43
463.147	8.48
463.352	8.4
463.556	8.41
463.761	8.54
463.966	8.67
464.17	8.73
464.375	8.59
464.58	8.58
464.784	8.46
464.989	8.3
465.193	8.17
465.398	8.28
465.602	8.54
465.807	8.51
466.011	8.73
466.216	8.82
466.42	8.87
466.625	8.77
466.829	8.88
467.034	8.94
467.238	9.04
467.443	9
467.647	8.79
467.851	8.75
468.056	8.72
468.26	8.56
468.464	8.49
468.669	8.73
468.873	8.77
469.077	8.73
469.282	8.82
469.486	8.93
469.69	8.92
469.894	8.95
470.099	8.98
470.303	8.92
470.507	8.8
470.711	8.7
470.915	8.58
471.119	8.51
471.324	8.53
471.528	8.59
471.732	8.73
471.936	8.84
472.14	8.94
472.344	9
472.548	9.09
472.752	9.07
472.956	9.13
473.16	9.04
473.364	8.88
473.568	8.93
473.772	8.95
473.976	8.95
474.18	8.98
474.384	8.98
474.588	8.82
474.792	8.69
474.995	8.64
475.199	8.66
475.403	8.8
475.607	8.81
475.811	8.8
476.015	8.91
476.218	8.96
476.422	8.85
476.626	8.98
476.83	9.15
477.033	9.01
477.237	8.85
477.441	8.87
477.644	8.8
477.848	8.74
478.052	8.57
478.255	8.58
478.459	8.62
478.663	8.85
478.866	8.92
479.07	9.04
479.273	9.22
479.477	9.25
479.681	9.04
479.884	8.99
480.088	8.99
480.291	8.9
480.495	8.84
480.698	8.84
480.901	8.93
481.105	9.01
481.308	8.95
481.512	8.94
481.715	9.02
481.919	8.96
482.122	8.89
482.325	8.98
482.529	9.04
482.732	9.03
482.935	8.95
483.138	8.89
483.342	8.95
483.545	9.02
483.748	9.06
483.952	9.19
484.155	9.44
484.358	9.37
484.561	9.22
484.764	9.24
484.967	9.2
485.171	9.15
485.374	9.08
485.577	9.27
485.78	9.29
485.983	9.28
486.186	9.15
486.389	9.14
486.592	9.08
486.795	9.08
486.998	9.08
487.201	9.18
487.404	9.38
487.607	9.51
487.81	9.45
488.013	9.49
488.216	9.46
488.419	9.44
488.622	9.17
488.825	9.16
489.028	9.17
489.231	9.19
489.433	9.07
489.636	9.13
489.839	8.99
490.042	8.92
490.245	8.88
490.447	8.98
490.65	9.04
490.853	9.3
491.056	9.3
491.258	9.28
491.461	9.27
491.664	9.31
491.866	9.08
492.069	9.21
492.272	9.32
492.474	9.35
492.677	9.37
492.879	9.56
493.082	9.57
493.285	9.65
493.487	9.55
493.69	9.5
493.892	9.32
494.095	9.26
494.297	9.18
494.5	9.41
494.702	9.52
494.905	9.72
495.107	9.78
495.309	9.84
495.512	9.82
495.714	9.88
495.917	9.9
496.119	9.92
496.321	9.95
496.524	9.91
496.726	9.9
496.928	9.94
497.13	9.92
497.333	9.98
497.535	10.06
497.737	10
497.939	9.93
498.142	10.05
498.344	9.93
498.546	9.88
498.748	9.94
498.95	10.02
499.152	9.93
499.355	10.02
499.557	10.04
499.759	10.06
499.961	10
500.163	10.06
500.365	10.12
500.567	10.08
500.769	9.99
500.971	10.11
501.173	9.98
501.375	9.94
501.577	9.89
501.779	9.99
501.981	9.93
502.183	10.02
502.385	9.98
502.587	9.99
502.788	10
502.99	10.1
503.192	10.13
503.394	10.15
503.596	10.22
503.798	10.32
503.999	10.32
504.201	10.36
504.403	10.47
504.605	10.53
504.806	10.47
505.008	10.37
505.21	10.46
505.411	10.42
505.613	10.35
505.815	10.41
506.016	10.54
506.218	10.68
506.42	10.66
506.621	10.69
506.823	10.82
507.024	10.85
507.226	10.73
507.427	10.74
507.629	10.91
507.83	10.81
508.032	10.68
508.233	10.72
508.435	10.83
508.636	10.82
508.838	10.73
509.039	10.84
509.24	10.9
509.442	10.89
509.643	10.81
509.845	11.02
510.046	11.02
510.247	11.02
510.448	11.07
510.65	11.15
510.851	11.3
511.052	11.37
511.254	11.35
511.455	11.39
511.656	11.39
511.857	11.31
512.058	11.27
512.26	11.34
512.461	11.26
512.662	11.41
512.863	11.26
513.064	11.25
513.265	11.32
513.466	11.42
513.667	11.34
513.868	11.53
514.069	11.65
514.27	11.68
514.471	11.64
514.672	11.67
514.873	11.68
515.074	11.71
515.275	11.6
515.476	11.68
515.677	11.68
515.878	11.78
516.079	11.72
516.28	11.82
516.481	11.9
516.682	11.96
516.882	11.89
517.083	11.99
517.284	11.91
517.485	11.85
517.686	11.84
517.886	11.87
518.087	11.89
518.288	12.04
518.488	11.97
518.689	11.99
518.89	11.88
519.091	11.82
519.291	11.73
519.492	11.83
519.692	11.93
519.893	12.1
520.094	12.12
520.294	12.14
520.495	12.22
520.695	12.2
520.896	12.22
521.096	12.34
521.297	12.45
521.497	12.47
521.698	12.4
521.898	12.38
522.099	12.35
522.299	12.38
522.499	12.36
522.7	12.45
522.9	12.49
523.101	12.56
523.301	12.54
523.501	12.52
523.702	12.47
523.902	12.52
524.102	12.57
524.302	12.62
524.503	12.73
524.703	12.78
524.903	12.78
525.103	12.72
525.304	12.75
525.504	12.81
525.704	12.84
525.904	12.8
526.104	12.78
526.304	12.78
526.504	12.76
526.705	12.78
526.905	12.91
527.105	13.02
527.305	13.04
527.505	12.95
527.705	12.99
527.905	13.02
528.105	12.97
528.305	12.94
528.505	13.06
528.705	13.12
528.905	13.05
529.105	13.13
529.304	13.25
529.504	13.36
529.704	13.31
529.904	13.35
530.104	13.35
530.304	13.38
530.503	13.3
530.703	13.31
530.903	13.32
531.103	13.39
531.303	13.3
531.502	13.39
531.702	13.46
531.902	13.47
532.101	13.39
532.301	13.44
532.501	13.43
532.7	13.45
532.9	13.46
533.1	13.55
533.299	13.58
533.499	13.62
533.698	13.57
533.898	13.62
534.097	13.67
534.297	13.74
534.496	13.77
534.696	13.9
534.895	14.02
535.095	14.04
535.294	14.04
535.494	13.98
535.693	13.95
535.892	13.98
536.092	13.94
536.291	13.9
536.491	13.94
536.69	14.05
536.889	13.89
537.088	13.87
537.288	14.03
537.487	14.16
537.686	14.1
537.886	14.25
538.085	14.38
538.284	14.44
538.483	14.35
538.682	14.42
538.882	14.52
539.081	14.57
539.28	14.48
539.479	14.51
539.678	14.47
539.877	14.49
540.076	14.45
540.275	14.53
540.474	14.65
540.673	14.72
540.872	14.72
541.071	14.8
541.27	14.81
541.469	14.8
541.668	14.82
541.867	14.76
542.066	14.82
542.265	14.89
542.464	14.88
542.663	15.04
542.862	15.31
543.06	15.34
543.259	15.41
543.458	15.53
543.657	15.45
543.856	15.39
544.054	15.43
544.253	15.32
544.452	15.24
544.651	15.33
544.849	15.26
545.048	15.29
545.247	15.36
545.445	15.55
545.644	15.52
545.843	15.63
546.041	15.72
546.24	15.88
546.438	15.9
546.637	15.97
546.836	16.15
547.034	16.26
547.233	16.34
547.431	16.38
547.63	16.5
547.828	16.4
548.027	16.39
548.225	16.37
548.423	16.43
548.622	16.5
548.82	16.54
549.019	16.55
549.217	16.71
549.415	16.8
549.614	16.85
549.812	16.9
550.01	16.92
550.209	16.94
550.407	17.03
550.605	17.1
550.803	17.21
551.002	17.32
551.2	17.37
551.398	17.46
551.596	17.56
551.794	17.72
551.993	17.91
552.191	17.93
552.389	17.94
552.587	17.97
552.785	18.01
552.983	17.98
553.181	18.18
553.379	18.32
553.577	18.39
553.775	18.47
553.973	18.56
554.171	18.6
554.369	18.59
554.567	18.61
554.765	18.65
554.963	18.74
555.161	18.73
555.359	18.89
555.557	19.06
555.755	19.2
555.952	19.38
556.15	19.5
556.348	19.53
556.546	19.65
556.744	19.72
556.941	19.66
557.139	19.73
557.337	19.82
557.535	19.91
557.732	20.04
557.93	20.29
558.128	20.45
558.325	20.59
558.523	20.58
558.721	20.64
558.918	20.6
559.116	20.69
559.313	20.71
559.511	20.92
559.708	20.94
559.906	21.05
560.104	21.11
560.301	21.33
560.498	21.44
560.696	21.53
560.893	21.68
561.091	21.88
561.288	21.85
561.486	21.93
561.683	22.1
561.88	22.19
562.078	22.27
562.275	22.32
562.473	22.47
562.67	22.62
562.867	22.8
563.064	22.94
563.262	23.07
563.459	23.21
563.656	23.28
563.853	23.24
564.051	23.24
564.248	23.46
564.445	23.44
564.642	23.57
564.839	23.7
565.036	23.91
565.234	24.03
565.431	24.19
565.628	24.22
565.825	24.35
566.022	24.45
566.219	24.48
566.416	24.47
566.613	24.55
566.81	24.67
567.007	24.62
567.204	24.61
567.401	24.71
567.598	24.69
567.795	24.58
567.991	24.61
568.188	24.81
568.385	24.97
568.582	25.17
568.779	25.35
568.976	25.55
569.172	25.64
569.369	25.61
569.566	25.62
569.763	25.74
569.96	25.76
570.156	25.6
570.353	25.62
570.55	25.69
570.746	25.74
570.943	25.74
571.14	25.93
571.336	26.05
571.533	26.1
571.729	26.13
571.926	26.16
572.123	26.18
572.319	26.14
572.516	26.1
572.712	26.07
572.909	26.24
573.105	26.35
573.302	26.46
573.498	26.58
573.695	26.54
573.891	26.56
574.087	26.57
574.284	26.5
574.48	26.41
574.677	26.46
574.873	26.38
575.069	26.44
575.266	26.61
575.462	26.64
575.658	26.85
575.854	27.01
576.051	27
576.247	26.87
576.443	26.89
576.639	26.77
576.835	26.63
577.032	26.54
577.228	26.67
577.424	26.71
577.62	26.59
577.816	26.64
578.012	26.62
578.208	26.54
578.404	26.54
578.6	26.65
578.796	26.58
578.993	26.64
579.189	26.66
579.384	26.54
579.58	26.49
579.776	26.6
579.972	26.43
580.168	26.35
580.364	26.34
580.56	26.36
580.756	26.27
580.952	26.2
581.148	26.2
581.343	26.31
581.539	26.23
581.735	26.24
581.931	26.38
582.127	26.35
582.322	26.15
582.518	26.24
582.714	26.2
582.909	26.07
583.105	26.09
583.301	26.07
583.496	26.01
583.692	25.87
583.888	25.77
584.083	25.83
584.279	25.88
584.474	25.88
584.67	25.87
584.866	25.99
585.061	25.87
585.257	25.89
585.452	25.8
585.648	25.76
585.843	25.78
586.039	25.69
586.234	25.66
586.429	25.57
586.625	25.65
586.82	25.5
587.015	25.49
587.211	25.48
587.406	25.6
587.601	25.57
587.797	25.6
587.992	25.61
588.187	25.63
588.383	25.61
588.578	25.63
588.773	25.69
588.968	25.76
589.163	25.7
589.359	25.6
589.554	25.56
589.749	25.62
589.944	25.63
590.139	25.61
590.334	25.61
590.529	25.57
590.724	25.51
590.919	25.42
591.114	25.44
591.309	25.57
591.504	25.67
591.699	25.54
591.894	25.6
592.089	25.48
592.284	25.42
592.479	25.41
592.674	25.44
592.869	25.49
593.064	25.66
593.259	25.63
593.454	25.61
593.648	25.63
593.843	25.63
594.038	25.6
594.233	25.58
594.428	25.57
594.622	25.64
594.817	25.75
595.012	25.78
595.206	25.89
595.401	26.06
595.596	26.08
595.79	25.98
595.985	26.2
596.18	26.24
596.374	26.26
596.569	26.26
596.763	26.3
596.958	26.15
597.153	26.2
597.347	26.18
597.542	26.4
597.736	26.5
597.931	26.64
598.125	26.71
598.319	26.83
598.514	26.78
598.708	26.73
598.903	26.7
599.097	26.7
599.291	26.68
599.486	26.67
599.68	26.64
599.874	26.68
600.069	26.63
600.263	26.59
600.457	26.67
600.651	26.89
600.846	26.85
601.04	26.9
601.234	26.8
601.428	26.82
601.622	26.84
601.817	26.94
602.011	26.96
602.205	27.17
602.399	27.11
602.593	27.03
602.787	26.99
602.981	27.01
603.175	26.95
603.369	26.84
603.563	26.9
603.757	26.98
603.951	26.99
604.145	27.01
604.339	27.07
604.533	26.95
604.727	26.85
604.921	26.83
605.115	26.77
605.309	26.82
605.502	26.81
605.696	26.72
605.89	26.62
606.084	26.53
606.278	26.33
606.471	26.19
606.665	26.14
606.859	26.05
607.053	26.04
607.246	26.09
607.44	26.11
607.634	26.08
607.827	26.04
608.021	25.86
608.214	25.85
608.408	25.84
608.602	25.81
608.795	25.73
608.989	25.79
609.182	25.68
609.376	25.53
609.569	25.49
609.763	25.44
609.956	25.36
610.15	25.33
610.343	25.21
610.537	25.05
610.73	25.12
610.923	25.04
611.117	24.96
611.31	24.97
611.504	24.89
611.697	24.73
611.89	24.62
612.083	24.57
612.277	24.58
612.47	24.46
612.663	24.31
612.856	24.23
613.05	24.07
613.243	23.85
613.436	23.74
613.629	23.62
613.822	23.57
614.015	23.5
614.209	23.42
614.402	23.43
614.595	23.37
614.788	23.31
614.981	23.33
615.174	23.22
615.367	23.06
615.56	22.92
615.753	22.87
615.946	22.62
616.139	22.69
616.332	22.75
616.525	22.76
616.718	22.78
616.911	22.85
617.103	22.92
617.296	22.9
617.489	22.93
617.682	22.72
617.875	22.7
618.067	22.52
618.26	22.29
618.453	22.26
618.646	22.31
618.838	22.32
619.031	22.23
619.224	22.26
619.417	22.16
619.609	22.17
619.802	22.06
619.994	22.16
620.187	22.15
620.38	22.15
620.572	22
620.765	22.07
620.957	21.94
621.15	21.85
621.342	21.78
621.535	21.91
621.727	21.76
621.92	21.7
622.112	21.71
622.305	21.76
622.497	21.53
622.69	21.46
622.882	21.41
623.074	21.41
623.267	21.34
623.459	21.31
623.651	21.23
623.844	21.27
624.036	21.29
624.228	21.24
624.42	21.18
624.613	21.3
624.805	21.21
624.997	21.1
625.189	21.11
625.381	21.22
625.574	21.15
625.766	21.06
625.958	20.98
626.15	20.97
626.342	20.85
626.534	20.83
626.726	20.89
626.918	20.96
627.11	20.94
627.302	20.89
627.494	20.76
627.686	20.64
627.878	20.52
628.07	20.38
628.262	20.37
628.454	20.44
628.646	20.43
628.838	20.39
629.029	20.28
629.221	20.3
629.413	20.13
629.605	20.02
629.797	19.95
629.989	20.05
630.18	19.88
630.372	19.87
630.564	19.86
630.755	19.9
630.947	19.91
631.139	19.78
631.33	19.78
631.522	19.9
631.714	19.85
631.905	19.65
632.097	19.77
632.289	19.75
632.48	19.64
632.672	19.47
632.863	19.32
633.055	19.27
633.246	19.26
633.438	19.14
633.629	19.15
633.821	19.23
634.012	19.2
634.203	19
634.395	18.95
634.586	19.01
634.777	18.88
634.969	18.76
635.16	18.73
635.351	18.76
635.543	18.64
635.734	18.68
635.925	18.68
636.117	18.79
636.308	18.65
636.499	18.62
636.69	18.53
636.881	18.42
637.073	18.37
637.264	18.36
637.455	18.27
637.646	18.38
637.837	18.47
638.028	18.29
638.219	18.29
638.41	18.22
638.601	18.01
638.792	17.88
638.983	17.84
639.174	17.71
639.365	17.73
639.556	17.75
639.747	17.76
639.938	17.74
640.129	17.8
640.32	17.61
640.511	17.54
640.701	17.44
640.892	17.39
641.083	17.28
641.274	17.36
641.465	17.34
641.655	17.26
641.846	17.17
642.037	17.15
642.228	17.06
642.418	17.09
642.609	16.99
642.8	16.89
642.99	16.72
643.181	16.75
643.372	16.67
643.562	16.63
643.753	16.68
643.943	16.69
644.134	16.53
644.324	16.41
644.515	16.38
644.705	16.47
644.896	16.51
645.086	16.54
645.277	16.48
645.467	16.48
645.658	16.25
645.848	16.22
646.038	16.17
646.229	16.16
646.419	16.06
646.61	16
646.8	15.88
646.99	15.82
647.18	15.8
647.371	15.89
647.561	15.83
647.751	15.78
647.941	15.72
648.132	15.63
648.322	15.58
648.512	15.57
648.702	15.55
648.892	15.51
649.082	15.51
649.272	15.29
649.462	15.2
649.653	15.1
649.843	15.07
650.033	15.11
650.223	15.13
650.413	15.13
650.603	15.07
650.793	14.95
650.983	14.8
651.172	14.63
651.362	14.6
651.552	14.6
651.742	14.42
651.932	14.38
652.122	14.43
652.312	14.37
652.502	14.37
652.691	14.56
652.881	14.49
653.071	14.49
653.261	14.39
653.45	14.22
653.64	14.18
653.83	14.17
654.019	14.16
654.209	14.26
654.399	14.36
654.588	14.29
654.778	14.17
654.968	13.98
655.157	13.91
655.347	13.84
655.536	13.74
655.726	13.66
655.915	13.6
656.105	13.48
656.294	13.3
656.484	13.06
656.673	12.99
656.863	13.04
657.052	12.81
657.241	12.73
657.431	12.66
657.62	12.45
657.809	12.2
657.999	12.15
658.188	11.93
658.377	11.93
658.567	11.86
658.756	11.77
658.945	11.58
659.134	11.55
659.324	11.45
659.513	11.51
659.702	11.28
659.891	11.31
660.08	11.2
660.269	11.03
660.458	10.89
660.648	10.97
660.837	10.78
661.026	10.7
661.215	10.71
661.404	10.52
661.593	10.47
661.782	10.28
661.971	10.29
662.16	10.18
662.349	10.17
662.538	9.95
662.726	10.12
662.915	9.96
663.104	9.77
663.293	9.68
663.482	9.74
663.671	9.57
663.86	9.45
664.048	9.34
664.237	9.35
664.426	9.17
664.615	9.16
664.803	9.26
664.992	9.39
665.181	9.29
665.369	9.15
665.558	9.11
665.747	8.92
665.935	8.93
666.124	8.88
666.312	9.07
666.501	9
666.69	8.96
666.878	8.83
667.067	8.77
667.255	8.68
667.444	8.93
667.632	9.01
667.82	9.12
668.009	9.12
668.197	9.08
668.386	8.83
668.574	8.86
668.762	8.74
668.951	8.75
669.139	8.78
669.327	8.72
669.516	8.79
669.704	8.79
669.892	8.9
670.08	9.01
670.269	9.04
670.457	9.05
670.645	8.99
670.833	9.05
671.021	8.95
671.21	9.07
671.398	9.18
671.586	9.27
671.774	9.25
671.962	9.27
672.15	9.2
672.338	8.95
672.526	9.04
672.714	8.91
672.902	8.93
673.09	9.13
673.278	9.56
673.466	9.61
673.654	9.97
673.842	9.98
674.03	10.15
674.218	9.98
674.405	9.98
674.593	9.89
674.781	10.15
674.969	10
675.157	10.19
675.344	10.27
675.532	10.21
675.72	10.24
675.908	10.47
676.095	10.29
676.283	10.37
676.471	10.66
676.658	10.61
676.846	10.58
677.033	10.77
677.221	10.82
677.409	10.74
677.596	10.8
677.784	10.84
677.971	10.88
678.159	11.09
678.346	11.27
678.534	11.35
678.721	11.61
678.909	11.7
679.096	11.65
679.283	11.79
679.471	11.85
679.658	11.82
679.846	11.97
680.033	12.27
680.22	12.26
680.408	12.48
680.595	12.58
680.782	12.54
680.969	12.57
681.157	12.53
681.344	12.5
681.531	12.58
681.718	12.65
681.905	12.68
682.093	12.88
682.28	13.2
682.467	13.39
682.654	13.48
682.841	13.51
683.028	13.9
683.215	14.03
683.402	13.98
683.589	14.37
683.776	14.65
683.963	14.65
684.15	14.9
684.337	15.09
684.524	15.14
684.711	15.24
684.898	15.42
685.085	15.56
685.271	15.99
685.458	16.36
685.645	16.59
685.832	16.85
686.019	17.05
686.205	17.21
686.392	17.35
686.579	17.71
686.766	17.99
686.952	18.23
687.139	18.79
687.326	19.06
687.512	19.42
687.699	19.79
687.886	20.19
688.072	20.23
688.259	20.77
688.445	21.2
688.632	21.4
688.818	21.99
689.005	22.4
689.191	22.77
689.378	23.31
689.564	23.99
689.751	24.15
689.937	24.89
690.124	25.2
690.31	25.53
690.496	25.84
690.683	26.67
690.869	27.06
691.055	27.76
691.242	28.49
691.428	29.09
691.614	29.56
691.8	30.23
691.987	30.59
692.173	31.19
692.359	32
692.545	32.77
692.731	32.93
692.918	33.71
693.104	34.06
693.29	34.73
693.476	35.13
693.662	36.04
693.848	36.42
694.034	37.15
694.22	37.69
694.406	38.55
694.592	39.24
694.778	39.9
694.964	40.41
695.15	40.82
695.336	41.21
695.522	41.68
695.708	42.71
695.894	43.32
696.08	43.94
696.265	44.65
696.451	45.27
696.637	46
696.823	46.6
697.009	47.35
697.194	47.9
697.38	48.68
697.566	48.84
697.751	49.19
697.937	49.66
698.123	50.17
698.308	50.7
698.494	51.52
698.68	52.14
698.865	52.49
699.051	53.21
699.236	53.79
699.422	54.28
699.607	54.74
699.793	55.41
699.978	55.6
700.164	55.79
700.349	56.47
700.535	57.05
700.72	57.36
700.906	58.16
701.091	58.72
701.276	58.78
701.462	59.62
701.647	60.85
701.832	60.99
702.018	61.47
702.203	62.16
702.388	62.34
702.573	62.44
702.759	63.24
702.944	63.56
703.129	63.84
703.314	64.5
703.499	64.79
703.684	65.23
703.87	65.86
704.055	66.45
704.24	66.88
704.425	67.12
704.61	67.03
704.795	67.21
704.98	67.01
705.165	66.92
705.35	67.37
705.535	67.62
705.72	68.01
705.905	68.93
706.09	69.63
706.275	69.53
706.459	69.76
706.644	69.9
706.829	70.2
707.014	70.17
707.199	71.04
707.384	71.69
707.568	71.9
707.753	72.69
707.938	73.41
708.123	73.24
708.307	73.29
708.492	73.46
708.677	72.42
708.861	71.99
709.046	71.92
709.231	72.36
709.415	72.76
709.6	73.54
709.784	73.44
709.969	74.16
710.153	73.92
710.338	73.96
710.522	73.53
710.707	74.29
710.891	74.12
711.076	74.52
711.26	74.17
711.445	74.9
711.629	74.88
711.813	75.33
711.998	75.47
712.182	75.81
712.366	76.24
712.551	76.74
712.735	76.32
712.919	76.58
713.103	77.11
713.288	76.76
713.472	76.49
713.656	77.33
713.84	77.62
714.024	77.92
714.208	78.16
714.393	78.73
714.577	78.7
714.761	78.38
714.945	78.7
715.129	78.67
715.313	78.57
715.497	78.2
715.681	78.76
715.865	78.66
716.049	79.17
716.233	79.21
716.417	79.58
716.601	79.5
716.785	79.44
716.968	79.14
717.152	79.24
717.336	79.32
717.52	79.03
717.704	79.61
717.888	80.26
718.071	80.29
718.255	80.7
718.439	81.18
718.622	81.46
718.806	81.34
718.99	80.78
719.174	80.85
719.357	81.06
719.541	80.47
719.724	80.81
719.908	82.24
720.092	82.74
720.275	82.93
720.459	83.73
720.642	82.85
720.826	82.33
721.009	81.87
721.193	81.13
721.376	80.61
721.559	81.77
721.743	81.82
721.926	82.13
722.11	82.12
722.293	82.1
722.476	80.91
722.66	81
722.843	81.05
723.026	81.64
723.21	81.64
723.393	82.96
723.576	83.74
723.759	82.79
723.942	83.23
724.126	83.63
724.309	83.29
724.492	82.68
724.675	83.78
724.858	83.98
725.041	84.62
725.224	84.39
725.407	84.27
725.59	84.11
725.774	83.73
725.957	82.95
726.14	83.71
726.322	84.31
726.505	84.1
726.688	84.49
726.871	84.15
727.054	84.31
727.237	84.67
727.42	85.49
727.603	85.72
727.786	86.25
727.968	86.53
728.151	85.9
728.334	85.32
728.517	85.24
728.699	85.8
728.882	85.05
729.065	85.36
729.248	86.54
729.43	87.1
729.613	87.93
729.796	87.99
729.978	87.05
730.161	86.34
730.343	86.59
730.526	86.4
730.708	86.71
730.891	88.73
731.073	88.42
731.256	87.71
731.438	88.09
731.621	88.44
731.803	88.34
731.986	89.3
732.168	89.65
732.35	89.33
732.533	89.48
732.715	88.78
732.898	89.22
733.08	89.99
733.262	90.16
733.444	90.15
733.627	90.34
733.809	90.68
733.991	90.97
734.173	90.33
734.355	90.79
734.538	90.99
734.72	89.61
734.902	89.67
735.084	90.03
735.266	89.99
735.448	90.06
735.63	90.89
735.812	90.82
735.994	91.06
736.176	90.97
736.358	91.19
736.54	92.23
736.722	91.89
736.904	91.97
737.086	91.42
737.268	92.78
737.45	92.56
737.632	92.73
737.814	92.27
737.995	93.27
738.177	92.85
738.359	92.37
738.541	92.47
738.723	93.34
738.904	93.52
739.086	92.56
739.268	92.74
739.449	92.81
739.631	92.58
739.813	92.52
739.994	93.46
740.176	93.3
740.358	93.04
740.539	94.04
740.721	93.9
740.902	94.92
741.084	95.52
741.265	95.5
741.447	95.59
741.628	95.99
741.81	92.69
741.991	93.36
742.172	93.89
742.354	93.77
742.535	93.91
742.717	97.38
742.898	95.67
743.079	96.23
743.261	95.4
743.442	94.39
743.623	93.27
743.804	94.76
743.986	95.07
744.167	93.55
744.348	94.75
744.529	94.99
744.71	93.47
744.891	92.84
745.073	93.73
745.254	93.52
745.435	93.85
745.616	93.4
745.797	92.97
745.978	94.03
746.159	93.14
746.34	91.69
746.521	93.27
746.702	93.22
746.883	92.55
747.064	91.51
747.245	92.31
747.426	92
747.606	92.07
747.787	92.78
747.968	93.85
748.149	94.65
748.33	95.3
748.51	94.88
748.691	92.7
748.872	94.26
749.053	92.9
749.233	91.91
749.414	91.66
749.595	93.33
749.775	91.68
749.956	90.34
750.137	89.83
750.317	90.56
750.498	91.66
750.678	91.56
750.859	93.88
751.04	95.51
751.22	94.77
751.4	92.04
751.581	92.4
751.761	92.24
751.942	92.82
752.122	94.24
752.303	94.92
752.483	94.77
752.663	94.08
752.844	93.63
753.024	92.92
753.204	93.14
753.385	92.76
753.565	90.77
753.745	89.96
753.925	90.06
754.106	91.71
754.286	92.36
754.466	93
754.646	93.11
754.826	92.87
755.006	89.72
755.187	90.94
755.367	92.81
755.547	93.77
755.727	93.58
755.907	94.56
756.087	95.33
756.267	94.63
756.447	94.22
756.627	94.41
756.807	96.06
756.987	93.34
757.167	93.78
757.346	92.13
757.526	89.77
757.706	89.92
757.886	89.7
758.066	90.34
758.246	91.68
758.425	95.68
758.605	94
758.785	95.56
758.965	95.02
759.144	92.98
759.324	91.02
759.504	93.23
759.683	91.89
759.863	90.33
760.043	92.07
760.222	93.14
760.402	90.64
760.581	92.47
760.761	94.1
760.94	91.01
761.12	89.92
761.299	92.8
761.479	91.62
761.658	89.6
761.838	91.51
762.017	92
762.197	89.81
762.376	90.09
762.555	91.17
762.735	92.66
762.914	90.23
763.093	92.74
763.273	89.51
763.452	90.8
763.631	88.63
763.81	88.26
763.99	85.72
764.169	88.58
764.348	85.79
764.527	85.44
764.706	88.2
764.885	90.22
765.064	88.4
765.243	88.93
765.423	89.24
765.602	89.68
765.781	85.92
765.96	84.95
766.139	85.35
766.318	87.17
766.497	86.78
766.676	89.43
766.854	92.44
767.033	90.91
767.212	89.79
767.391	87.77
767.57	87.86
767.749	87.22
767.928	89.04
768.106	86.17
768.285	85.01
768.464	86.51
768.643	86.32
768.821	86.63
769	88.86
769.179	90.69
769.357	83.31
769.536	80.26
769.715	81.06
769.893	81.65
770.072	81.01
770.25	83.55
770.429	86.26
770.607	85.36
770.786	85.32
770.964	86.71
771.143	89.59
771.321	91.68
771.5	92.84
771.678	91.65
771.857	89.18
772.035	89.78
772.213	86.47
772.392	81.53
772.57	84.57
772.748	86.82
772.927	83.06
773.105	84.12
773.283	87.53
773.461	87.03
773.64	84.66
773.818	84.88
773.996	86.35
774.174	85.87
774.352	80.81
774.531	81.25
774.709	84.53
774.887	83.21
775.065	80.79
775.243	82.69
775.421	85.36
775.599	86.5
775.777	83.88
775.955	83.49
776.133	83.43
776.311	80.2
776.489	76.17
776.667	77.44
776.844	81.79
777.022	79.46
777.2	79.87
777.378	80
777.556	82.06
777.734	80.79
777.911	84.84
778.089	84.82
778.267	87.05
778.445	83.73
778.622	81.1
778.8	80.46
778.978	83.34
779.155	80.9
779.333	82.01
779.511	80.12
779.688	80.9
779.866	73.3
780.043	70.93
780.221	70.09
780.398	70.48
780.576	69.18
780.753	75.19
780.931	76.08
781.108	75.51
781.286	78.96
781.463	74.41
781.64	73.05
781.818	80.28
781.995	83.12
782.172	82.82
782.35	87.9
782.527	89.12
782.704	83.64
782.882	85.09
783.059	83.97
783.236	83.15
783.413	83.36
783.59	82.92
783.768	77.05
783.945	78.35
784.122	80.38
784.299	78.43
784.476	78.18
784.653	81.92
784.83	80.61
785.007	73.16
785.184	75.06
785.361	74.86
785.538	76.64
785.715	77.95
785.892	84.19
786.069	85.35
786.246	87.08
786.423	80.2
786.6	79.18
786.776	81.04
786.953	78.91
787.13	78.94
787.307	83.34
787.484	84.74
787.66	77.75
787.837	75.01
788.014	73.57
788.191	71.82
788.367	69.26
788.544	74.81
788.721	77.21
788.897	79.79
789.074	84.48
789.25	83.3
789.427	82.21
789.603	79.4
789.78	80.39
789.956	65.86
790.133	65.68
790.309	63.8
790.486	69.2
790.662	65.52
790.839	73.53
791.015	78.86
791.192	73.96
791.368	74.08
791.544	70.91
791.721	76
791.897	71.43
792.073	73.71
792.249	69.98
792.426	74.32
792.602	71.81
792.778	66.67
792.954	67.97
793.13	65.04
793.307	61.55
793.483	52.45
793.659	57.49
793.835	56.17
794.011	59.24
794.187	53.1
794.363	54.49
794.539	59.03
794.715	56.21
794.891	53.7
795.067	57.95
795.243	72.06
795.419	69.53
795.595	74.19
795.771	77.04
795.947	83.75
796.122	65.82
796.298	67
796.474	65.33
796.65	67.3
796.826	63.59
797.001	75.2
797.177	67.48
797.353	75.35
797.529	79.18
797.704	75.12
797.88	69.57
798.056	65.69
798.231	60.48
798.407	56.59
798.582	58.17
798.758	63.54
798.934	75.05
799.109	73.77
799.285	65.7
799.46	77.11
799.636	76.34
799.811	73.39
799.986	79.46
800.162	89.68
800.337	82.74
800.513	78.6
800.688	75.89
800.863	74.59
801.039	63.26
801.214	54.73
801.389	55.79
801.565	61.14
801.74	56.18
801.915	60.32
802.09	68.34
802.265	77.47
802.441	75.52
802.616	71.25
802.791	74.77
802.966	75.58
803.141	70.83
803.316	56.13
803.491	61.45
803.666	60.55
803.841	58.61
804.016	53.85
804.191	68.22
804.366	67.17
804.541	67.7
804.716	56.61
804.891	51.91
805.066	51.7
805.241	54.14
805.416	51.47
805.591	52.19
805.765	56.74
805.94	61.42
806.115	58.2
806.29	53.39
806.464	63.77
806.639	60.82
806.814	45.13
806.989	30.24
807.163	42.01
807.338	34.26
807.512	35.27
807.687	34.14
807.862	50.11
808.036	51.51
808.211	55.05
808.385	61.56
808.56	71.53
808.734	71.29
808.909	74.14
809.083	69.24
809.258	74.76
809.432	77.84
809.606	59.63
809.781	53.68
809.955	62.31
810.13	57.03
810.304	41.12
810.478	42.64
810.652	50.8
810.827	51.23
811.001	54.19
811.175	56.91
811.349	61.64
811.524	53.79
811.698	43.39
811.872	40.91
812.046	50.35
812.22	58.14
812.394	48.72
812.568	53.4
812.742	56.32
812.916	47.35
813.09	39.72
813.264	43.56
813.438	44.04
813.612	36.76
813.786	29.85
813.96	38.79
814.134	51.91
814.308	57.99
814.482	58.13
814.656	69.16
814.83	76.41
815.003	66.64
815.177	58.37
815.351	52.99
815.525	63.93
815.698	57.18
815.872	45.94
816.046	41.1
816.219	45.09
816.393	50.22
816.567	55.37
816.74	61.91
816.914	78.05
817.088	81.04
817.261	61.63
817.435	44.59
817.608	37.26
817.782	31.34
817.955	30
818.129	23.79
818.302	29.26
818.475	48.66
818.649	47.13
818.822	35.78
818.996	54.1
819.169	61.69
819.342	39.88
819.516	38.64
819.689	55
819.862	40.87
820.035	28.7
820.209	32.73
820.382	39.85
820.555	39.26
820.728	36.09
820.901	34.29
821.075	41.47
821.248	50.56
821.421	43.04
821.594	35.19
821.767	57.55
821.94	84.03
822.113	50.25
822.286	45.1
822.459	76.27
822.632	62.81
822.805	45.56
822.978	53.33
823.151	58.42
823.324	30.56
823.496	-2.54
823.669	1.9
823.842	8.41
824.015	6.77
824.188	1.09
824.361	9.39
824.533	1.01
824.706	24.57
824.879	13.28
825.051	54.7
825.224	59.51
825.397	64.45
825.569	44.14
825.742	65.21
825.915	63.44
826.087	57.42
826.26	45.67
826.432	47.01
826.605	41.75
826.777	29.49
826.95	18.53
827.122	20.49
827.295	25.65
827.467	16.63
827.64	-5.79
827.812	1.31
827.984	14.04
828.157	3.17
828.329	-4.48
828.501	6.5
828.674	17.52
828.846	16.94
829.018	30.47
829.19	30.01
829.363	42.64
829.535	46.75
829.707	49.16
829.879	30.46
830.051	34.81
830.223	48.19
830.395	13.66
830.568	5.57
830.74	13.44
830.912	38.97
831.084	7.21
831.256	17.55
831.428	-1.66
831.6	-8.62
831.772	-41.71
831.943	-43.94
832.115	-23.78
832.287	15.77
832.459	15.15
832.631	22.37
832.803	47.25
832.975	37.66
833.146	29.81
833.318	40.51
833.49	51.24
833.662	41.2
833.833	27.81
834.005	32.21
834.177	45.49
834.348	15.96
834.52	-12.94
834.692	-3.74
834.863	-23.51
835.035	-38.06
835.206	-16.45
835.378	24.39
835.549	20.24
835.721	27.49
835.892	25.14
836.064	34.98
836.235	33.27
836.407	54.57
836.578	38.05
836.749	53.54
836.921	33.45
837.092	14.15
837.264	-42.28
837.435	-60.71
837.606	-71.42
837.777	-20.58
837.949	-13.49
838.12	-0.52
838.291	21.59
838.462	29.97
838.633	5.15
838.805	-8.5
838.976	9.93
839.147	1.98
839.318	-38.29
839.489	-66.74
839.66	-45.77
839.831	-43.81
840.002	-40.03
840.173	-34.19
840.344	-17.82
840.515	-0.37
840.686	-30.03
840.857	-45.56
841.028	-36.93
841.199	-14.65
841.369	-46.73
841.54	-51.52
841.711	15.5
841.882	15.97
842.053	0.99
842.223	-27.89
842.394	4.93
842.565	-12.66
842.736	-0.94
842.906	-8.31
843.077	17.34
843.248	28.22
843.418	15.22
843.589	7.45
843.759	59.66
843.93	71.14
844.101	60.17
844.271	77.88
844.442	112.07
844.612	99.36
844.783	67.56
844.953	41.5
845.123	55.25
845.294	21.73
845.464	-12.17
845.635	11.12
845.805	49.24
845.975	46.69
846.146	22.65
846.316	15.06
846.486	28.28
846.656	-1.92
846.827	-28.65
846.997	-22.33
847.167	9.23
847.337	-20.07
847.507	-13.74
847.677	-19.95
847.848	6.72
848.018	7.77
848.188	27.49
848.358	18.15
848.528	33.44
848.698	15.94
848.868	-21.14
849.038	-41.49
849.208	-22.42
849.378	11.51
849.548	-8.66
849.718	32.7
849.887	87.79
850.057	5.64
850.227	-49.03
850.397	-47.4
850.567	-61.2
850.737	-62.52
850.906	-70.1
851.076	-94.54
851.246	-105.86
851.415	-48.08
851.585	-40.71
851.755	-30.66
851.924	23.57
852.094	41.45
852.264	1.14
852.433	-34.61
852.603	3.69
852.772	-21.79
852.942	-49.56
853.111	-49.13
853.281	5.48
853.45	6.7
853.62	-16.3
853.789	-58.99
853.959	-11.09
854.128	-34.88
854.297	-91.57
854.467	-79.04
854.636	-21.5
854.805	-33.37
854.975	-54.06
855.144	-30.22
855.313	1.52
855.482	-2.6
855.652	-21.78
855.821	-3.15
855.99	46.51
856.159	40.46
856.328	26
856.497	9.18
856.667	2.46
856.836	-10.96
857.005	-68.27
857.174	-136.25
857.343	-120.16
857.512	-57.59
857.681	-150.66
857.85	-121.01
858.019	-94.5
858.188	-79.25
858.356	-110.04
858.525	-125.89
858.694	-109.85
858.863	-76.35
859.032	-94.21
859.201	-82.63
859.369	-23.57
859.538	-18.68
859.707	-48.22
859.876	-44.17
860.044	-14.61
860.213	9.98
860.382	9.8
860.55	24.31
860.719	64.6
860.888	62.26
861.056	-4.74
861.225	-51.73
861.393	-3.39
861.562	38.79
861.73	5.45
861.899	29.09
862.067	1.29
862.236	-1.31
862.404	-66.62
862.572	-93.69
862.741	-56.15
862.909	-56.03
863.078	-72.81
863.246	-78.45
863.414	-70.74
863.582	-146.77
863.751	-88.5
863.919	-98.76
864.087	-18.5
864.255	1.24
864.424	-55.27
864.592	-39.95
864.76	2.98
864.928	-14.73
865.096	-29.69
865.264	12.8
865.432	18.68
865.6	33.44
865.768	-82.64
865.936	-199.48
866.104	-133.92
866.272	-213.01
866.44	-201.47
866.608	-174.66
866.776	-171.96
866.944	-302.34
867.112	-353.88
867.28	-535.13
867.448	-1023.76
867.615	-393.18
867.783	-88.31
867.951	-133.9
868.119	-67.05
868.286	-35.5
868.454	-60.5
868.622	-92.02
868.789	-86.97
868.957	-1.75
869.125	-53.74
869.292	-49.02
869.46	-35.26
869.627	20.42
869.795	-58.65
869.963	-30.63
870.13	3.1
870.298	31.44
870.465	-43.8
870.632	-41.18
870.8	-39.22
870.967	-51.57
871.135	-169.74
871.302	-95.61
871.469	-4.89
871.637	8.41
871.804	13.78
871.971	-1.6
872.139	15.32
872.306	25.42
872.473	-1.42
872.64	-72.66
872.807	-12.46
872.975	5.64
873.142	-85.13
873.309	-55.05
873.476	80.8
873.643	83.5
873.81	41.07
873.977	58.77
874.144	39.89
874.311	10.35
874.478	-76.7
874.645	-119.33
874.812	-375.32
874.979	15842.86
875.146	-486.29
875.313	-139.35
875.48	-52.3
875.647	-53.66
875.813	-102.47
875.98	-112.75
876.147	-175.6
876.314	-194.93
876.481	-244.77
876.647	-256.47
876.814	-168.66
876.981	-118.41
877.147	-190.19
877.314	-194.79
877.481	-96.82
877.647	-19.4
877.814	-115.76
877.98	-122.94
878.147	-27.27
878.314	0.67
878.48	-104.01
878.647	-86.34
878.813	22.95
878.979	37.51
879.146	23.66
879.312	55.21
879.479	49.18
879.645	37.36
879.811	-57.48
879.978	-82.64
880.144	-78.45
880.31	-78.59
880.477	-180.77
880.643	-155.27
880.809	-85.58
880.975	-35.16
881.142	-69.87
881.308	-12.18
881.474	35.82
881.64	22.16
881.806	-51.48
881.972	-18.51
882.138	-0.27
882.304	20.75
882.47	-86.7
882.636	-127.77
882.802	-79.34
882.968	-61.92
883.134	-176.75
883.3	-191.9
883.466	21.02
883.632	-1.65
883.798	-52.42
883.964	-48.51
884.129	-29.11
884.295	-43.51
884.461	-76.31
884.627	-130.68
884.793	-79.88
884.958	-23
885.124	-93.44
885.29	-112.3
885.455	-43.02
885.621	-102.55
885.787	-314.51
885.952	-135.8
886.118	-123.95
886.283	-119.67
886.449	-108.54
886.614	-98.15
886.78	-104.47
886.945	-114.26
887.111	-292.1
887.276	-284.25
887.442	-516.81
887.607	-339.14
887.773	-369.71
887.938	-217.89
888.103	-130.5
888.269	-48.38
888.434	-29.19
888.599	-33.69
888.764	39.47
888.93	41.73
889.095	9.45
889.26	-28.51
889.425	36.39
889.59	43.64
889.756	-5.14
889.921	2.17
890.086	29.03
890.251	13.95
890.416	-74.14
890.581	-76.59
890.746	-31.22
890.911	-6.7
891.076	-45.95
891.241	-52.07
891.406	-11.11
891.571	8.37
891.736	-48.78
891.901	-82.38
892.065	-49.18
892.23	-23.57
892.395	-138.77
892.56	-187.18
892.725	-72.34
892.889	-50.17
893.054	-184.87
893.219	-174.04
893.384	-140.93
893.548	-199.69
893.713	-257.84
893.878	-194.12
