Data from Ofra_PP_Phys_9CX6B_Reflection_3.txt Node
Date: Sat Jul 24 20:05:18 EDT 2021
User: USUARIO
Spectrometer: FLMT01687
Trigger mode: 0
Integration Time (sec): 1.100000E0
Scans to average: 2
Electric dark correction enabled: true
Nonlinearity correction enabled: false
Boxcar width: 2
XAxis mode: Wavelengths
Number of Pixels in Spectrum: 3648
>>>>>Begin Spectral Data<<<<<
179.494	574.49
179.716	737.89
179.937	1302.17
180.158	1128.98
180.38	508.29
180.601	-611.4
180.823	21.59
181.044	688.37
181.265	-64.52
181.486	-63.3
181.708	-36.68
181.929	-1504
182.15	293.98
182.372	-99.31
182.593	53600
182.814	473.85
183.035	223.6
183.257	182.92
183.478	108.49
183.699	191.68
183.92	106.88
184.141	96.88
184.363	61.27
184.584	108.84
184.805	72.34
185.026	90.76
185.247	88.09
185.468	63.02
185.689	36.54
185.91	54.75
186.132	53.21
186.353	46.57
186.574	64.58
186.795	86.11
187.016	17.24
187.237	24.17
187.458	30.2
187.679	81.05
187.9	50.46
188.121	119.14
188.342	146.93
188.563	128.94
188.784	124.78
189.005	156.13
189.226	127.19
189.447	103.98
189.667	91.62
189.888	55.37
190.109	42.25
190.33	19.83
190.551	-0.36
190.772	10.16
190.993	7.28
191.214	-12.49
191.434	-7.44
191.655	50.65
191.876	45.31
192.097	36.09
192.318	50.9
192.538	36
192.759	18.79
192.98	27.2
193.201	44.01
193.421	5.54
193.642	20.24
193.863	7.78
194.083	-2.51
194.304	-1.26
194.525	28.77
194.745	29.34
194.966	2.81
195.187	5.58
195.407	-26.31
195.628	-58.96
195.848	-49.37
196.069	-43.53
196.29	-44.64
196.51	-76.81
196.731	-69.8
196.951	-38.41
197.172	-8.59
197.392	-11.36
197.613	25.72
197.833	35.54
198.054	0.44
198.274	8.69
198.495	-7.21
198.715	-0.29
198.936	-29.81
199.156	10.24
199.377	4.79
199.597	13.89
199.817	21.19
200.038	71.11
200.258	91.75
200.479	94.43
200.699	102.75
200.919	94.35
201.14	50.26
201.36	21.07
201.58	24.06
201.801	25.5
202.021	19.99
202.241	50.57
202.461	33.41
202.682	17.78
202.902	32.12
203.122	19.78
203.342	21.03
203.563	50.79
203.783	56.99
204.003	-45.54
204.223	-86.32
204.443	-52.21
204.663	-67.42
204.884	-83.49
205.104	8.86
205.324	45.89
205.544	53.77
205.764	60.74
205.984	90.9
206.204	80.92
206.424	93.32
206.644	48.16
206.864	49.97
207.084	44.41
207.304	53.83
207.525	26.71
207.745	39.29
207.964	45.55
208.184	25.15
208.404	21.67
208.624	19.92
208.844	31.94
209.064	-6.99
209.284	5.97
209.504	13.97
209.724	30.53
209.944	19.93
210.164	82.17
210.384	81.31
210.604	67.64
210.823	21.89
211.043	-1.54
211.263	-5.92
211.483	-11.56
211.703	-12.87
211.922	33.62
212.142	75.15
212.362	79.94
212.582	59.42
212.801	65.28
213.021	36.04
213.241	33.59
213.461	11.34
213.68	5.09
213.9	-2.99
214.12	8.33
214.339	-0.87
214.559	8.01
214.779	25.52
214.998	47.41
215.218	34.55
215.438	24.93
215.657	19.63
215.877	24.28
216.096	17.25
216.316	49.86
216.535	62.26
216.755	61.04
216.974	59.97
217.194	78.77
217.413	68.55
217.633	59.52
217.852	14.85
218.072	6.91
218.291	-22.43
218.511	-11.88
218.73	-61.98
218.95	-47.2
219.169	-37.86
219.389	-54.33
219.608	-69.7
219.827	-10.37
220.047	11.45
220.266	3.58
220.485	13.38
220.705	43.23
220.924	7.96
221.143	17.95
221.363	-15.6
221.582	19.69
221.801	11.42
222.021	46.35
222.24	49.1
222.459	93.28
222.678	65.05
222.897	47.24
223.117	53.03
223.336	60.72
223.555	48.97
223.774	88.59
223.993	115.13
224.213	158.24
224.432	118.52
224.651	146.71
224.87	105.07
225.089	104.96
225.308	79.97
225.527	93.39
225.746	92.54
225.965	81.09
226.184	58.92
226.404	57.12
226.623	43.2
226.842	29.92
227.061	61.79
227.28	83.99
227.499	99.67
227.718	117.02
227.936	117.82
228.155	111.22
228.374	58.72
228.593	49.02
228.812	34.6
229.031	34.4
229.25	28.22
229.469	66.92
229.688	58.63
229.907	72.71
230.125	76.85
230.344	79.97
230.563	83.26
230.782	122.17
231.001	78.87
231.22	88.47
231.438	95.42
231.657	68.23
231.876	46.28
232.095	76.88
232.313	91.3
232.532	75.95
232.751	84.95
232.969	69.18
233.188	66.24
233.407	52.55
233.625	43.6
233.844	41.8
234.063	35.61
234.281	71.14
234.5	80.1
234.719	107.04
234.937	88.98
235.156	109.14
235.374	80.9
235.593	84.73
235.811	81.59
236.03	90.36
236.249	69.94
236.467	85.34
236.686	66.77
236.904	65.57
237.123	16.3
237.341	21.47
237.559	3.88
237.778	15.56
237.996	-3.02
238.215	30.7
238.433	22.44
238.652	33.43
238.87	-1.6
239.088	11.84
239.307	15.2
239.525	27.28
239.743	-6.35
239.962	18.36
240.18	-8.06
240.398	-31.49
240.617	-50.84
240.835	-18.83
241.053	-49.86
241.271	7.63
241.49	27.8
241.708	32.47
241.926	45.89
242.144	62.86
242.363	37.9
242.581	50.6
242.799	76.52
243.017	74.39
243.235	51.87
243.453	86.39
243.672	53.14
243.89	50.71
244.108	53.08
244.326	65.76
244.544	45.71
244.762	40.38
244.98	35.48
245.198	48.78
245.416	31.13
245.634	45.55
245.852	63.33
246.07	53.39
246.288	34.89
246.506	49.31
246.724	61.37
246.942	46.72
247.16	50.68
247.378	59.18
247.596	68.8
247.814	60.14
248.032	39.59
248.25	39.22
248.468	40.42
248.685	50.84
248.903	61.43
249.121	77.16
249.339	48.44
249.557	39.58
249.775	12.31
249.992	-49.27
250.21	-49.97
250.428	-5.61
250.646	-5.33
250.863	-8.58
251.081	16.51
251.299	34.21
251.517	28.03
251.734	32.92
251.952	28.08
252.17	28.47
252.387	38.97
252.605	26.31
252.823	18.13
253.04	41.32
253.258	64.43
253.475	59.17
253.693	73.06
253.911	101.32
254.128	78.21
254.346	71.21
254.563	51.13
254.781	40.53
254.998	21.28
255.216	19.92
255.433	17.27
255.651	45.34
255.868	60.89
256.086	67.55
256.303	67.13
256.521	64.07
256.738	43.86
256.956	21.32
257.173	37.41
257.39	40.99
257.608	34.6
257.825	40.12
258.043	51.76
258.26	38.55
258.477	30.47
258.695	36.57
258.912	13.56
259.129	9.35
259.346	-14.92
259.564	-7.98
259.781	-8.6
259.998	11.19
260.216	26.07
260.433	54.34
260.65	41.66
260.867	40.43
261.084	15.1
261.302	25.55
261.519	35.59
261.736	28.91
261.953	32.12
262.17	55.71
262.387	31.42
262.604	1.48
262.822	12.02
263.039	13.35
263.256	-4.86
263.473	11.62
263.69	6.53
263.907	22.81
264.124	49.56
264.341	76.9
264.558	79.24
264.775	72.54
264.992	90.27
265.209	61.9
265.426	42.49
265.643	39.38
265.86	57.99
266.077	47.76
266.294	37.76
266.51	51.82
266.727	35.96
266.944	52.29
267.161	36.83
267.378	45.73
267.595	37.8
267.812	19.22
268.028	4.6
268.245	30.71
268.462	28.39
268.679	40.1
268.896	71.04
269.112	58.98
269.329	34.31
269.546	40.04
269.763	43.48
269.979	43.56
270.196	43.48
270.413	45.45
270.629	32.65
270.846	23.6
271.063	28.4
271.279	14.99
271.496	5.14
271.712	15.14
271.929	17.74
272.146	17
272.362	43.89
272.579	71.61
272.795	68.15
273.012	84.8
273.228	73.88
273.445	53.54
273.661	16.72
273.878	-33.65
274.094	-29.44
274.311	-31.22
274.527	5.1
274.744	24.28
274.96	61.56
275.177	49.98
275.393	52.66
275.609	50.05
275.826	53.61
276.042	54.54
276.259	63.92
276.475	54.9
276.691	44.69
276.908	39.58
277.124	61.43
277.34	46.56
277.557	51.67
277.773	65.37
277.989	60.01
278.205	43.94
278.422	47.95
278.638	63.4
278.854	58.59
279.07	71.51
279.286	39.6
279.503	30.75
279.719	9.44
279.935	11.2
280.151	-15.19
280.367	20.18
280.583	28.71
280.799	33.49
281.016	22.88
281.232	43.15
281.448	41.36
281.664	55.42
281.88	46.39
282.096	51.24
282.312	42.04
282.528	47.28
282.744	49.86
282.96	59.93
283.176	70.26
283.392	77.61
283.608	74.11
283.824	70.55
284.04	74.35
284.256	86.16
284.471	79.38
284.687	73.86
284.903	70.69
285.119	77.8
285.335	46.51
285.551	46.18
285.767	41.24
285.982	21.29
286.198	17.53
286.414	30.18
286.63	26.12
286.846	42.25
287.061	25.27
287.277	11.61
287.493	18.19
287.709	28.41
287.924	24.99
288.14	57.39
288.356	73.54
288.571	80.88
288.787	76.38
289.003	78.57
289.218	77.12
289.434	48.47
289.65	48
289.865	50.47
290.081	44.16
290.296	40.66
290.512	34.23
290.727	37.06
290.943	29.44
291.159	16.1
291.374	12.48
291.59	13.67
291.805	4.8
292.021	10.09
292.236	20.02
292.451	21.53
292.667	24.33
292.882	23.43
293.098	28.79
293.313	29.19
293.529	15.66
293.744	9.42
293.959	-2.06
294.175	0
294.39	13.95
294.605	34.29
294.821	50.12
295.036	42.28
295.251	44.1
295.467	32.42
295.682	29.28
295.897	24.67
296.112	21.95
296.328	33.91
296.543	31.76
296.758	43.75
296.973	61.85
297.188	90.54
297.404	39.31
297.619	43.5
297.834	37.39
298.049	25.76
298.264	-2.16
298.479	25.54
298.694	29.09
298.909	43.37
299.125	44.71
299.34	56.59
299.555	54.13
299.77	70.1
299.985	14
300.2	-4.82
300.415	-21.12
300.63	-0.82
300.845	-7.45
301.06	10.07
301.275	25.33
301.49	61.25
301.704	61.6
301.919	37.75
302.134	40.73
302.349	44.68
302.564	7.3
302.779	15.58
302.994	47
303.209	53.96
303.423	65.33
303.638	92.68
303.853	70.22
304.068	47.76
304.283	29.89
304.497	16.37
304.712	31.71
304.927	40.04
305.142	31.95
305.356	44.54
305.571	54.77
305.786	39.02
306	34.79
306.215	64.18
306.43	35.88
306.644	47.95
306.859	65.4
307.074	51.54
307.288	35.64
307.503	68.03
307.717	44.68
307.932	38.02
308.147	61.33
308.361	82.86
308.576	49.89
308.79	18.04
309.005	26.57
309.219	10.58
309.434	-9.87
309.648	-15.63
309.863	21.62
310.077	13.78
310.292	19.88
310.506	31.6
310.72	64.65
310.935	51.64
311.149	38.26
311.364	60.2
311.578	68.07
311.792	66.94
312.007	72.81
312.221	51.91
312.435	37.83
312.649	23.28
312.864	54.31
313.078	48.58
313.292	82.49
313.507	78.11
313.721	71.19
313.935	53.08
314.149	73.48
314.363	61.98
314.578	37.81
314.792	21.14
315.006	30.82
315.22	14.81
315.434	17.26
315.648	31.84
315.862	34.85
316.077	28.88
316.291	46
316.505	55.9
316.719	60.34
316.933	29.56
317.147	45.52
317.361	21.9
317.575	37.36
317.789	36.42
318.003	44.46
318.217	46.8
318.431	58.79
318.645	52.15
318.859	44.37
319.073	59.77
319.287	37.19
319.5	19.97
319.714	6.49
319.928	1.63
320.142	4.78
320.356	45.93
320.57	64.21
320.784	51.83
320.997	63.46
321.211	58.94
321.425	31.16
321.639	-10.1
321.853	24.66
322.066	15.45
322.28	4.46
322.494	19.58
322.707	59.56
322.921	39.15
323.135	38.75
323.349	39.12
323.562	22.92
323.776	3.04
323.989	24.12
324.203	8.06
324.417	25.1
324.63	9.63
324.844	-0.43
325.057	-5.01
325.271	5.07
325.485	-19.34
325.698	18.07
325.912	43.99
326.125	35.57
326.339	53.28
326.552	64.39
326.766	64.82
326.979	54.97
327.193	55.91
327.406	43.07
327.619	46.73
327.833	51.11
328.046	42.41
328.26	31.14
328.473	28.25
328.686	11.67
328.9	9.05
329.113	13.4
329.326	12.99
329.54	23.3
329.753	42.68
329.966	37.23
330.179	59.38
330.393	58.6
330.606	52.58
330.819	60.09
331.032	71.74
331.246	66.81
331.459	80.7
331.672	72.11
331.885	59.27
332.098	31.01
332.311	35.21
332.525	20.44
332.738	34.23
332.951	45.27
333.164	65.18
333.377	56.42
333.59	66.43
333.803	60.05
334.016	55
334.229	34.65
334.442	31.26
334.655	41.26
334.868	37.49
335.081	34.93
335.294	44.42
335.507	61.53
335.72	51.33
335.933	44.07
336.146	38.51
336.359	45.3
336.572	18.1
336.785	17.62
336.997	20.94
337.21	35.3
337.423	29.72
337.636	43.26
337.849	45.13
338.062	48.94
338.274	52.32
338.487	38.99
338.7	38.25
338.913	20.76
339.125	8.5
339.338	7.9
339.551	27.02
339.763	26.42
339.976	48.85
340.189	51.43
340.402	49.13
340.614	31.8
340.827	19.64
341.039	4.33
341.252	7.07
341.465	8.67
341.677	17.64
341.89	-13.71
342.102	2.29
342.315	3.22
342.527	-1.14
342.74	-2.64
342.952	39.78
343.165	39.52
343.377	53.65
343.59	40.9
343.802	58.79
344.015	65.81
344.227	75.43
344.44	57.69
344.652	53.99
344.864	40.41
345.077	42.47
345.289	27.41
345.502	43.06
345.714	42.22
345.926	48.17
346.139	45.46
346.351	45.63
346.563	46.39
346.775	66.27
346.988	57.85
347.2	46.68
347.412	34.94
347.624	27.12
347.837	17.34
348.049	21.73
348.261	37.99
348.473	41.2
348.685	16.37
348.897	21.27
349.11	18.71
349.322	13.35
349.534	35.05
349.746	58.79
349.958	59.47
350.17	58.42
350.382	65.79
350.594	57.98
350.806	56.09
351.018	56.16
351.23	52.69
351.442	41.97
351.654	52.74
351.866	42.3
352.078	41.03
352.29	45.2
352.502	63.87
352.714	63.43
352.926	64.35
353.138	62.43
353.35	46.44
353.561	29.7
353.773	15.9
353.985	15.44
354.197	15.9
354.409	26.14
354.621	34.32
354.832	34.84
355.044	40.07
355.256	34.29
355.468	37.67
355.679	32.4
355.891	45.34
356.103	34.12
356.314	31.27
356.526	45.89
356.738	60.53
356.949	55.12
357.161	54.21
357.373	58.81
357.584	48.19
357.796	43
358.008	29.48
358.219	43.94
358.431	44.29
358.642	45.24
358.854	46.27
359.065	46.83
359.277	36.63
359.488	27.8
359.7	21.26
359.911	3.55
360.123	18.41
360.334	3.39
360.546	2.74
360.757	-4.57
360.969	10.93
361.18	17.69
361.391	37.28
361.603	44.33
361.814	68.03
362.025	48.93
362.237	45.72
362.448	50.11
362.659	46.83
362.871	37.85
363.082	51.96
363.293	41.24
363.504	33.43
363.716	22.82
363.927	30.8
364.138	17.92
364.349	3.03
364.56	0.9
364.772	-7.47
364.983	-0.19
365.194	-0.34
365.405	24.44
365.616	33.7
365.827	47.07
366.038	35.15
366.25	48.74
366.461	30.45
366.672	40.37
366.883	49.18
367.094	42.49
367.305	17.09
367.516	33.08
367.727	17.57
367.938	5.86
368.149	-2.57
368.36	20.13
368.571	13.52
368.781	12.97
368.992	6.27
369.203	31.14
369.414	5.78
369.625	-0.5
369.836	0.29
370.047	4.74
370.258	-6.51
370.468	6.16
370.679	-14.33
370.89	-3.94
371.101	24.16
371.312	5.96
371.522	18.21
371.733	44.09
371.944	47.27
372.155	43.88
372.365	36.47
372.576	42.16
372.787	30.86
372.997	23.81
373.208	15.83
373.419	28.88
373.629	7.39
373.84	16.01
374.05	5.98
374.261	11.13
374.472	-0.44
374.682	17.16
374.893	13.13
375.103	30.18
375.314	30.83
375.524	41.9
375.735	46.27
375.945	49.01
376.156	38.39
376.366	44.79
376.577	47.37
376.787	43.46
376.997	52.13
377.208	55.26
377.418	28.43
377.629	36.4
377.839	27.2
378.049	16.11
378.26	25.07
378.47	50.75
378.68	39.37
378.89	41.12
379.101	43.14
379.311	29.37
379.521	6.63
379.732	10.58
379.942	-0.88
380.152	3.55
380.362	15.38
380.572	13.85
380.783	20.95
380.993	34.69
381.203	37.26
381.413	33.27
381.623	43.63
381.833	42.34
382.043	27.73
382.253	21.15
382.463	31.09
382.674	28.1
382.884	20.57
383.094	24.97
383.304	30.51
383.514	27.56
383.724	29.75
383.934	23.8
384.144	19.96
384.353	14.86
384.563	15.57
384.773	19.46
384.983	24.17
385.193	29.31
385.403	20.22
385.613	15.69
385.823	12.69
386.033	22.21
386.242	18.73
386.452	29.44
386.662	26.2
386.872	31.14
387.082	29.34
387.291	21.2
387.501	21.19
387.711	24.49
387.921	10.88
388.13	14.09
388.34	25.98
388.55	24.01
388.759	22.13
388.969	27.88
389.179	24.06
389.388	21.47
389.598	20.74
389.807	20.44
390.017	19.25
390.227	17.28
390.436	13.19
390.646	18.04
390.855	18.37
391.065	19.91
391.274	18.48
391.484	17.5
391.693	14.49
391.903	16.4
392.112	17.7
392.322	20.34
392.531	25.54
392.74	25.22
392.95	21.02
393.159	19.67
393.369	21.41
393.578	18.37
393.787	16.76
393.997	19.53
394.206	19.6
394.415	18.39
394.625	18.39
394.834	17.27
395.043	15.83
395.252	16.88
395.462	17.67
395.671	18.65
395.88	20.97
396.089	22.2
396.298	21.66
396.508	21.26
396.717	20.22
396.926	19.16
397.135	18.97
397.344	18.35
397.553	18.11
397.762	19.08
397.971	19.52
398.181	19.19
398.39	17.74
398.599	17.5
398.808	16.94
399.017	17.16
399.226	17.37
399.435	18.78
399.644	18.59
399.853	18.64
400.062	18.25
400.27	18.15
400.479	17.81
400.688	17.41
400.897	17.5
401.106	17.19
401.315	16.68
401.524	16.69
401.733	16.73
401.941	16.84
402.15	17.23
402.359	17.49
402.568	17.69
402.777	17.99
402.985	17.63
403.194	17.3
403.403	17.35
403.612	16.79
403.82	16.69
404.029	16.63
404.238	16.37
404.446	16.27
404.655	16.16
404.864	15.96
405.072	15.89
405.281	16
405.489	15.67
405.698	15.78
405.906	15.82
406.115	15.59
406.324	15.53
406.532	15.6
406.741	15.75
406.949	15.55
407.158	15.64
407.366	15.71
407.574	15.82
407.783	15.7
407.991	15.71
408.2	15.75
408.408	15.49
408.617	15.23
408.825	14.94
409.033	15.02
409.242	15.03
409.45	15.09
409.658	15.1
409.867	15.37
410.075	15.1
410.283	14.89
410.491	14.84
410.7	14.72
410.908	14.72
411.116	14.88
411.324	14.9
411.533	14.73
411.741	14.84
411.949	14.7
412.157	14.48
412.365	14.51
412.573	14.6
412.781	14.58
412.99	14.46
413.198	14.77
413.406	14.74
413.614	14.71
413.822	14.63
414.03	14.59
414.238	14.21
414.446	14.16
414.654	14.06
414.862	14.17
415.07	14.22
415.278	14.46
415.486	14.18
415.694	14.26
415.902	14.18
416.109	14.04
416.317	13.91
416.525	13.81
416.733	13.93
416.941	13.96
417.149	13.95
417.357	14
417.564	14.42
417.772	14.1
417.98	14
418.188	13.92
418.395	13.78
418.603	13.81
418.811	13.84
419.019	13.72
419.226	13.97
419.434	14.14
419.642	13.89
419.849	13.89
420.057	14.06
420.265	13.95
420.472	13.65
420.68	13.77
420.887	13.79
421.095	13.83
421.302	13.49
421.51	13.62
421.717	13.68
421.925	13.71
422.132	13.63
422.34	13.76
422.547	13.6
422.755	13.58
422.962	13.53
423.17	13.35
423.377	13.47
423.585	13.65
423.792	13.58
423.999	13.68
424.207	13.66
424.414	13.56
424.621	13.65
424.829	13.43
425.036	13.35
425.243	13.32
425.451	13.35
425.658	13.1
425.865	13.19
426.072	13.15
426.28	13.31
426.487	13.14
426.694	13.14
426.901	13.32
427.108	13.31
427.315	13.12
427.523	13.39
427.73	13.34
427.937	12.93
428.144	12.83
428.351	13.03
428.558	13.08
428.765	13.14
428.972	13.35
429.179	13.53
429.386	13.52
429.593	13.52
429.8	13.42
430.007	13.54
430.214	13.57
430.421	13.59
430.628	13.38
430.835	13.39
431.042	13.53
431.249	13.48
431.456	13.62
431.662	13.98
431.869	14.14
432.076	14.17
432.283	14.06
432.49	13.86
432.697	13.65
432.903	13.43
433.11	13.26
433.317	13.44
433.524	13.54
433.73	13.51
433.937	13.84
434.144	13.89
434.35	14.02
434.557	14.02
434.764	14.07
434.97	14.03
435.177	14.06
435.384	13.82
435.59	13.91
435.797	14.08
436.003	14.06
436.21	14.03
436.416	14.09
436.623	14.01
436.829	13.89
437.036	13.95
437.242	13.92
437.449	13.96
437.655	13.89
437.862	13.95
438.068	13.97
438.275	14.02
438.481	14.12
438.687	14.16
438.894	14.15
439.1	14.02
439.307	14.04
439.513	13.99
439.719	14.04
439.926	13.99
440.132	14.08
440.338	14.09
440.544	14.11
440.751	14.07
440.957	14.11
441.163	13.81
441.369	13.82
441.575	13.72
441.782	13.65
441.988	13.52
442.194	13.81
442.4	13.8
442.606	14.02
442.812	14.15
443.018	14.31
443.224	14.37
443.431	14.48
443.637	14.47
443.843	14.33
444.049	14.32
444.255	14.2
444.461	14.13
444.667	13.94
444.873	14
445.079	14.01
445.284	14.13
445.49	14.02
445.696	13.96
445.902	14.05
446.108	13.89
446.314	13.77
446.52	14.06
446.726	14.29
446.931	14.2
447.137	14.39
447.343	14.53
447.549	14.21
447.755	14.01
447.96	14.04
448.166	13.91
448.372	14.01
448.578	14.03
448.783	14.12
448.989	14.23
449.195	14.38
449.4	14.18
449.606	14.18
449.812	14.09
450.017	14.08
450.223	13.99
450.428	13.86
450.634	13.95
450.84	14.02
451.045	13.88
451.251	13.8
451.456	13.96
451.662	13.97
451.867	14.01
452.073	13.96
452.278	13.95
452.483	14.01
452.689	13.97
452.894	14.07
453.1	14.24
453.305	14.21
453.51	14.07
453.716	13.96
453.921	13.83
454.127	13.76
454.332	13.7
454.537	13.68
454.742	13.73
454.948	13.72
455.153	13.63
455.358	13.77
455.563	13.75
455.769	13.68
455.974	13.69
456.179	13.63
456.384	13.46
456.589	13.52
456.795	13.35
457	13.31
457.205	13.39
457.41	13.35
457.615	13.3
457.82	13.42
458.025	13.41
458.23	13.22
458.435	13.33
458.64	13.06
458.845	13.21
459.05	13.23
459.255	13.28
459.46	13.28
459.665	13.4
459.87	13.32
460.075	13.12
460.28	13.08
460.485	13.15
460.69	13.2
460.895	13.03
461.099	13.05
461.304	13.2
461.509	13.14
461.714	13
461.919	13.15
462.123	13.16
462.328	13.16
462.533	12.91
462.738	12.98
462.942	12.89
463.147	13
463.352	12.8
463.556	12.86
463.761	12.79
463.966	12.88
464.17	12.93
464.375	12.99
464.58	13.02
464.784	13.09
464.989	12.86
465.193	12.73
465.398	12.73
465.602	13.01
465.807	12.98
466.011	13.21
466.216	13.34
466.42	13.37
466.625	13.25
466.829	13.38
467.034	13.48
467.238	13.42
467.443	13.39
467.647	13.16
467.851	13.15
468.056	13.06
468.26	13.06
468.464	13
468.669	13.23
468.873	13.21
469.077	13.18
469.282	13.14
469.486	13.29
469.69	13.31
469.894	13.3
470.099	13.39
470.303	13.38
470.507	13.24
470.711	13.18
470.915	13.12
471.119	13.14
471.324	13.14
471.528	13.08
471.732	13.13
471.936	13.21
472.14	13.26
472.344	13.34
472.548	13.58
472.752	13.62
472.956	13.69
473.16	13.57
473.364	13.48
473.568	13.5
473.772	13.44
473.976	13.4
474.18	13.47
474.384	13.55
474.588	13.43
474.792	13.33
474.995	13.29
475.199	13.3
475.403	13.28
475.607	13.36
475.811	13.43
476.015	13.46
476.218	13.46
476.422	13.49
476.626	13.55
476.83	13.68
477.033	13.61
477.237	13.45
477.441	13.43
477.644	13.31
477.848	13.25
478.052	13.17
478.255	13.29
478.459	13.38
478.663	13.62
478.866	13.59
479.07	13.75
479.273	13.81
479.477	13.81
479.681	13.63
479.884	13.7
480.088	13.61
480.291	13.63
480.495	13.51
480.698	13.62
480.901	13.66
481.105	13.81
481.308	13.76
481.512	13.8
481.715	13.79
481.919	13.77
482.122	13.66
482.325	13.67
482.529	13.77
482.732	13.78
482.935	13.71
483.138	13.66
483.342	13.65
483.545	13.72
483.748	13.72
483.952	13.83
484.155	14.07
484.358	14.2
484.561	14.13
484.764	14.17
484.967	14.21
485.171	14.17
485.374	14
485.577	13.99
485.78	14.01
485.983	14
486.186	14.07
486.389	14.16
486.592	14.28
486.795	14.28
486.998	14.33
487.201	14.31
487.404	14.36
487.607	14.46
487.81	14.53
488.013	14.58
488.216	14.69
488.419	14.82
488.622	14.7
488.825	14.71
489.028	14.75
489.231	14.78
489.433	14.79
489.636	14.91
489.839	14.88
490.042	14.96
490.245	14.98
490.447	15.09
490.65	15.15
490.853	15.42
491.056	15.54
491.258	15.66
491.461	15.83
491.664	16.02
491.866	16.1
492.069	16.26
492.272	16.5
492.474	16.61
492.677	16.81
492.879	17.05
493.082	17.31
493.285	17.51
493.487	17.63
493.69	17.74
493.892	17.77
494.095	17.86
494.297	17.98
494.5	18.33
494.702	18.59
494.905	18.96
495.107	19.15
495.309	19.39
495.512	19.51
495.714	19.73
495.917	19.93
496.119	20.16
496.321	20.49
496.524	20.79
496.726	21.01
496.928	21.21
497.13	21.4
497.333	21.48
497.535	21.76
497.737	21.92
497.939	22.11
498.142	22.42
498.344	22.63
498.546	22.73
498.748	22.95
498.95	23.13
499.152	23.24
499.355	23.44
499.557	23.59
499.759	23.75
499.961	23.94
500.163	24.14
500.365	24.32
500.567	24.45
500.769	24.58
500.971	24.75
501.173	24.73
501.375	24.93
501.577	24.99
501.779	25.14
501.981	25.21
502.183	25.41
502.385	25.44
502.587	25.53
502.788	25.62
502.99	25.73
503.192	25.83
503.394	25.75
503.596	25.88
503.798	25.96
503.999	25.97
504.201	26.03
504.403	26.22
504.605	26.33
504.806	26.24
505.008	26.25
505.21	26.15
505.411	26.05
505.613	25.85
505.815	25.95
506.016	25.95
506.218	25.97
506.42	26.03
506.621	26.07
506.823	26.04
507.024	25.93
507.226	25.94
507.427	25.78
507.629	25.79
507.83	25.7
508.032	25.64
508.233	25.63
508.435	25.72
508.636	25.72
508.838	25.61
509.039	25.61
509.24	25.5
509.442	25.4
509.643	25.27
509.845	25.38
510.046	25.32
510.247	25.32
510.448	25.28
510.65	25.22
510.851	25.21
511.052	25.29
511.254	25.17
511.455	25.15
511.656	25.2
511.857	25.05
512.058	24.91
512.26	24.99
512.461	24.95
512.662	25.02
512.863	24.88
513.064	24.84
513.265	24.79
513.466	24.79
513.667	24.63
513.868	24.81
514.069	24.86
514.27	24.91
514.471	24.84
514.672	24.82
514.873	24.73
515.074	24.7
515.275	24.58
515.476	24.61
515.677	24.6
515.878	24.66
516.079	24.55
516.28	24.62
516.481	24.65
516.682	24.6
516.882	24.52
517.083	24.56
517.284	24.36
517.485	24.26
517.686	24.26
517.886	24.22
518.087	24.26
518.288	24.46
518.488	24.39
518.689	24.38
518.89	24.32
519.091	24.25
519.291	24.09
519.492	24.1
519.692	24.05
519.893	24.11
520.094	24.15
520.294	24.19
520.495	24.25
520.695	24.3
520.896	24.27
521.096	24.22
521.297	24.32
521.497	24.31
521.698	24.25
521.898	24.2
522.099	24.21
522.299	24.15
522.499	24.08
522.7	24.08
522.9	24.02
523.101	24.05
523.301	23.95
523.501	23.96
523.702	23.92
523.902	24.08
524.102	24.07
524.302	24.12
524.503	24.13
524.703	24.17
524.903	24
525.103	23.96
525.304	23.93
525.504	23.96
525.704	23.99
525.904	24.13
526.104	24.12
526.304	24.16
526.504	24.1
526.705	24.15
526.905	24.19
527.105	24.19
527.305	24.26
527.505	24.31
527.705	24.22
527.905	24.23
528.105	24.24
528.305	24.15
528.505	24.19
528.705	24.3
528.905	24.15
529.105	24.12
529.304	24.22
529.504	24.29
529.704	24.23
529.904	24.36
530.104	24.47
530.304	24.55
530.503	24.46
530.703	24.38
530.903	24.41
531.103	24.45
531.303	24.34
531.502	24.43
531.702	24.59
531.902	24.62
532.101	24.55
532.301	24.58
532.501	24.54
532.7	24.62
532.9	24.59
533.1	24.61
533.299	24.6
533.499	24.69
533.698	24.59
533.898	24.61
534.097	24.71
534.297	24.81
534.496	24.84
534.696	24.87
534.895	24.99
535.095	25.01
535.294	25.03
535.494	24.98
535.693	25.03
535.892	25.09
536.092	25.04
536.291	25.08
536.491	25.11
536.69	25.19
536.889	25.02
537.088	25.07
537.288	25.16
537.487	25.25
537.686	25.29
537.886	25.5
538.085	25.56
538.284	25.55
538.483	25.51
538.682	25.54
538.882	25.56
539.081	25.62
539.28	25.55
539.479	25.63
539.678	25.67
539.877	25.76
540.076	25.68
540.275	25.83
540.474	25.86
540.673	25.83
540.872	25.8
541.071	25.88
541.27	25.87
541.469	25.93
541.668	26.01
541.867	26
542.066	26.11
542.265	26.2
542.464	26.2
542.663	26.35
542.862	26.59
543.06	26.62
543.259	26.61
543.458	26.66
543.657	26.53
543.856	26.42
544.054	26.4
544.253	26.41
544.452	26.34
544.651	26.43
544.849	26.43
545.048	26.47
545.247	26.56
545.445	26.75
545.644	26.82
545.843	26.88
546.041	26.98
546.24	27.05
546.438	27.1
546.637	27.13
546.836	27.36
547.034	27.31
547.233	27.36
547.431	27.35
547.63	27.46
547.828	27.38
548.027	27.64
548.225	27.69
548.423	27.82
548.622	27.99
548.82	28.04
549.019	28.01
549.217	28.17
549.415	28.22
549.614	28.17
549.812	28.19
550.01	28.24
550.209	28.28
550.407	28.37
550.605	28.47
550.803	28.57
551.002	28.65
551.2	28.72
551.398	28.81
551.596	28.92
551.794	29.06
551.993	29.19
552.191	29.26
552.389	29.39
552.587	29.4
552.785	29.49
552.983	29.62
553.181	29.76
553.379	29.85
553.577	29.96
553.775	30.09
553.973	30.15
554.171	30.29
554.369	30.32
554.567	30.33
554.765	30.34
554.963	30.49
555.161	30.4
555.359	30.64
555.557	30.8
555.755	30.91
555.952	31.01
556.15	31.13
556.348	31.07
556.546	31.21
556.744	31.25
556.941	31.29
557.139	31.43
557.337	31.63
557.535	31.74
557.732	31.94
557.93	32.1
558.128	32.25
558.325	32.29
558.523	32.34
558.721	32.47
558.918	32.48
559.116	32.53
559.313	32.6
559.511	32.86
559.708	32.82
559.906	33.05
560.104	33.19
560.301	33.39
560.498	33.44
560.696	33.64
560.893	33.64
561.091	33.75
561.288	33.89
561.486	34.07
561.683	34.2
561.88	34.49
562.078	34.67
562.275	34.69
562.473	34.76
562.67	35.06
562.867	35.07
563.064	35.29
563.262	35.49
563.459	35.76
563.656	35.82
563.853	35.96
564.051	35.96
564.248	36.11
564.445	36.2
564.642	36.31
564.839	36.41
565.036	36.71
565.234	36.94
565.431	37.04
565.628	37.22
565.825	37.38
566.022	37.52
566.219	37.49
566.416	37.4
566.613	37.41
566.81	37.65
567.007	37.64
567.204	37.83
567.401	38.04
567.598	38.2
567.795	38.2
567.991	38.34
568.188	38.51
568.385	38.7
568.582	38.82
568.779	38.96
568.976	39.14
569.172	39.19
569.369	39.26
569.566	39.35
569.763	39.44
569.96	39.54
570.156	39.61
570.353	39.64
570.55	39.69
570.746	39.8
570.943	39.78
571.14	39.82
571.336	39.9
571.533	39.95
571.729	40
571.926	40.06
572.123	39.98
572.319	40.07
572.516	40.14
572.712	40.15
572.909	40.26
573.105	40.58
573.302	40.66
573.498	40.87
573.695	40.82
573.891	40.94
574.087	40.89
574.284	40.84
574.48	40.63
574.677	40.67
574.873	40.57
575.069	40.7
575.266	40.83
575.462	40.9
575.658	41.17
575.854	41.27
576.051	41.31
576.247	41.39
576.443	41.52
576.639	41.46
576.835	41.29
577.032	41.27
577.228	41.17
577.424	41.17
577.62	41.05
577.816	41.22
578.012	41.17
578.208	41.24
578.404	41.35
578.6	41.41
578.796	41.44
578.993	41.39
579.189	41.41
579.384	41.26
579.58	41.28
579.776	41.29
579.972	41.19
580.168	41.08
580.364	41.01
580.56	40.99
580.756	40.93
580.952	40.95
581.148	40.94
581.343	40.95
581.539	40.8
581.735	40.8
581.931	40.88
582.127	40.91
582.322	40.89
582.518	41.1
582.714	41.11
582.909	41.04
583.105	41.03
583.301	40.97
583.496	40.88
583.692	40.71
583.888	40.73
584.083	40.62
584.279	40.69
584.474	40.6
584.67	40.61
584.866	40.56
585.061	40.57
585.257	40.69
585.452	40.64
585.648	40.51
585.843	40.58
586.039	40.5
586.234	40.41
586.429	40.43
586.625	40.63
586.82	40.45
587.015	40.49
587.211	40.37
587.406	40.33
587.601	40.18
587.797	40.2
587.992	40.15
588.187	40.21
588.383	40.26
588.578	40.32
588.773	40.4
588.968	40.39
589.163	40.38
589.359	40.33
589.554	40.25
589.749	40.34
589.944	40.39
590.139	40.37
590.334	40.34
590.529	40.45
590.724	40.43
590.919	40.49
591.114	40.52
591.309	40.71
591.504	40.73
591.699	40.44
591.894	40.38
592.089	40.36
592.284	40.26
592.479	40.23
592.674	40.53
592.869	40.48
593.064	40.64
593.259	40.61
593.454	40.7
593.648	40.67
593.843	40.8
594.038	40.63
594.233	40.65
594.428	40.65
594.622	40.69
594.817	40.78
595.012	40.97
595.206	41.04
595.401	41.26
595.596	41.24
595.79	41.26
595.985	41.34
596.18	41.48
596.374	41.38
596.569	41.45
596.763	41.41
596.958	41.35
597.153	41.39
597.347	41.51
597.542	41.86
597.736	41.98
597.931	42.16
598.125	42.31
598.319	42.37
598.514	42.19
598.708	42.24
598.903	42.23
599.097	42.22
599.291	42.15
599.486	42.04
599.68	42.06
599.874	42.2
600.069	42.22
600.263	42.26
600.457	42.46
600.651	42.54
600.846	42.28
601.04	42.4
601.234	42.36
601.428	42.36
601.622	42.49
601.817	42.78
602.011	42.63
602.205	42.81
602.399	42.7
602.593	42.64
602.787	42.53
602.981	42.66
603.175	42.6
603.369	42.63
603.563	42.68
603.757	42.72
603.951	42.62
604.145	42.57
604.339	42.59
604.533	42.44
604.727	42.34
604.921	42.37
605.115	42.29
605.309	42.35
605.502	42.33
605.696	42.31
605.89	42.2
606.084	42.2
606.278	42.03
606.471	41.93
606.665	41.87
606.859	41.77
607.053	41.68
607.246	41.7
607.44	41.65
607.634	41.65
607.827	41.64
608.021	41.46
608.214	41.34
608.408	41.31
608.602	41.21
608.795	41.05
608.989	41.11
609.182	41.02
609.376	40.95
609.569	40.86
609.763	40.78
609.956	40.82
610.15	40.78
610.343	40.72
610.537	40.57
610.73	40.61
610.923	40.32
611.117	40.23
611.31	40.06
611.504	40.18
611.697	40.03
611.89	40.01
612.083	39.8
612.277	39.75
612.47	39.52
612.663	39.3
612.856	39.21
613.05	39.2
613.243	39.1
613.436	38.95
613.629	38.94
613.822	38.85
614.015	38.83
614.209	38.76
614.402	38.78
614.595	38.77
614.788	38.69
614.981	38.64
615.174	38.46
615.367	38.31
615.56	38.1
615.753	38.05
615.946	37.82
616.139	37.94
616.332	37.99
616.525	38.03
616.718	38.03
616.911	38.04
617.103	37.95
617.296	37.82
617.489	37.75
617.682	37.61
617.875	37.63
618.067	37.54
618.26	37.35
618.453	37.38
618.646	37.34
618.838	37.26
619.031	37.17
619.224	37.27
619.417	37.14
619.609	37.1
619.802	37
619.994	37.01
620.187	36.98
620.38	36.89
620.572	36.77
620.765	36.81
620.957	36.62
621.15	36.48
621.342	36.5
621.535	36.57
621.727	36.49
621.92	36.47
622.112	36.39
622.305	36.44
622.497	36.36
622.69	36.3
622.882	36.32
623.074	36.28
623.267	36.16
623.459	36.05
623.651	35.9
623.844	35.86
624.036	35.95
624.228	35.88
624.42	35.91
624.613	36.01
624.805	36.02
624.997	35.87
625.189	35.87
625.381	35.89
625.574	35.87
625.766	35.66
625.958	35.7
626.15	35.63
626.342	35.54
626.534	35.49
626.726	35.6
626.918	35.64
627.11	35.67
627.302	35.59
627.494	35.56
627.686	35.54
627.878	35.45
628.07	35.29
628.262	35.25
628.454	35.12
628.646	35.06
628.838	35.05
629.029	34.93
629.221	34.89
629.413	34.75
629.605	34.66
629.797	34.47
629.989	34.53
630.18	34.45
630.372	34.53
630.564	34.52
630.755	34.59
630.947	34.59
631.139	34.54
631.33	34.49
631.522	34.56
631.714	34.45
631.905	34.33
632.097	34.26
632.289	34.25
632.48	34.13
632.672	33.99
632.863	33.81
633.055	33.73
633.246	33.69
633.438	33.5
633.629	33.55
633.821	33.61
634.012	33.74
634.203	33.7
634.395	33.65
634.586	33.66
634.777	33.65
634.969	33.46
635.16	33.33
635.351	33.38
635.543	33.24
635.734	33.18
635.925	33.11
636.117	33.1
636.308	32.96
636.499	32.95
636.69	32.84
636.881	32.84
637.073	32.89
637.264	32.82
637.455	32.65
637.646	32.6
637.837	32.66
638.028	32.44
638.219	32.45
638.41	32.43
638.601	32.43
638.792	32.25
638.983	32.17
639.174	32.04
639.365	32.07
639.556	32.01
639.747	31.97
639.938	32.06
640.129	32.07
640.32	31.9
640.511	31.84
640.701	31.74
640.892	31.64
641.083	31.61
641.274	31.64
641.465	31.61
641.655	31.55
641.846	31.49
642.037	31.4
642.228	31.29
642.418	31.16
642.609	31.03
642.8	30.98
642.99	30.91
643.181	30.96
643.372	31.03
643.562	31.01
643.753	30.95
643.943	30.87
644.134	30.69
644.324	30.57
644.515	30.54
644.705	30.63
644.896	30.6
645.086	30.59
645.277	30.51
645.467	30.43
645.658	30.15
645.848	30.09
646.038	30.07
646.229	30
646.419	29.99
646.61	29.99
646.8	29.96
646.99	29.87
647.18	29.88
647.371	29.93
647.561	29.89
647.751	29.88
647.941	29.84
648.132	29.77
648.322	29.81
648.512	29.87
648.702	29.8
648.892	29.74
649.082	29.71
649.272	29.52
649.462	29.36
649.653	29.34
649.843	29.38
650.033	29.42
650.223	29.34
650.413	29.25
650.603	29.19
650.793	29.03
650.983	28.91
651.172	28.84
651.362	28.95
651.552	28.86
651.742	28.83
651.932	28.76
652.122	28.79
652.312	28.72
652.502	28.79
652.691	28.86
652.881	28.77
653.071	28.74
653.261	28.51
653.45	28.32
653.64	28.24
653.83	28.21
654.019	28.18
654.209	28.28
654.399	28.34
654.588	28.16
654.778	27.97
654.968	27.82
655.157	27.77
655.347	27.52
655.536	27.43
655.726	27.36
655.915	27.15
656.105	26.89
656.294	26.68
656.484	26.4
656.673	26.24
656.863	26.2
657.052	25.96
657.241	25.77
657.431	25.7
657.62	25.38
657.809	25.09
657.999	24.9
658.188	24.69
658.377	24.56
658.567	24.5
658.756	24.38
658.945	24.16
659.134	23.97
659.324	23.73
659.513	23.57
659.702	23.14
659.891	23.05
660.08	22.91
660.269	22.74
660.458	22.55
660.648	22.54
660.837	22.31
661.026	22.1
661.215	21.91
661.404	21.56
661.593	21.43
661.782	21.15
661.971	21.05
662.16	20.91
662.349	20.95
662.538	20.68
662.726	20.83
662.915	20.67
663.104	20.31
663.293	20.12
663.482	19.98
663.671	19.65
663.86	19.29
664.048	19.2
664.237	18.98
664.426	18.84
664.615	18.72
664.803	18.77
664.992	18.73
665.181	18.69
665.369	18.45
665.558	18.33
665.747	18.14
665.935	18.13
666.124	17.97
666.312	17.98
666.501	17.77
666.69	17.55
666.878	17.44
667.067	17.21
667.255	17.19
667.444	17.3
667.632	17.43
667.82	17.24
668.009	17.35
668.197	17.2
668.386	17.12
668.574	17.14
668.762	17.11
668.951	16.99
669.139	16.87
669.327	16.73
669.516	16.71
669.704	16.76
669.892	16.8
670.08	16.96
670.269	16.93
670.457	16.79
670.645	16.71
670.833	16.72
671.021	16.73
671.21	16.79
671.398	16.88
671.586	16.88
671.774	16.94
671.962	16.79
672.15	16.61
672.338	16.44
672.526	16.58
672.714	16.47
672.902	16.58
673.09	16.78
673.278	17.06
673.466	17.02
673.654	17.32
673.842	17.44
674.03	17.62
674.218	17.52
674.405	17.45
674.593	17.38
674.781	17.54
674.969	17.42
675.157	17.59
675.344	17.86
675.532	17.82
675.72	17.8
675.908	17.98
676.095	17.9
676.283	17.99
676.471	18.16
676.658	18.2
676.846	18.24
677.033	18.46
677.221	18.39
677.409	18.5
677.596	18.64
677.784	18.83
677.971	18.99
678.159	19.34
678.346	19.54
678.534	19.56
678.721	19.85
678.909	19.93
679.096	19.98
679.283	20.08
679.471	20.24
679.658	20.32
679.846	20.6
680.033	20.86
680.22	20.92
680.408	21.16
680.595	21.18
680.782	21.19
680.969	21.3
681.157	21.42
681.344	21.64
681.531	21.85
681.718	22.07
681.905	22.24
682.093	22.52
682.28	22.75
682.467	23.04
682.654	23.23
682.841	23.31
683.028	23.81
683.215	24.05
683.402	24.17
683.589	24.51
683.776	24.89
683.963	24.96
684.15	25.31
684.337	25.55
684.524	25.79
684.711	26.16
684.898	26.43
685.085	26.69
685.271	27.34
685.458	27.91
685.645	28.15
685.832	28.53
686.019	28.92
686.205	29.17
686.392	29.31
686.579	29.77
686.766	30.27
686.952	30.72
687.139	31.37
687.326	31.76
687.512	32.37
687.699	32.69
687.886	33
688.072	33.17
688.259	34.03
688.445	34.38
688.632	34.87
688.818	35.79
689.005	36.49
689.191	36.97
689.378	37.7
689.564	38.54
689.751	38.75
689.937	39.38
690.124	39.84
690.31	40.38
690.496	40.8
690.683	41.87
690.869	42.49
691.055	43.17
691.242	44.03
691.428	44.74
691.614	45.18
691.8	46.03
691.987	46.65
692.173	47.08
692.359	47.6
692.545	48.43
692.731	48.46
692.918	49.18
693.104	49.66
693.29	50.67
693.476	51.25
693.662	52.27
693.848	52.99
694.034	53.97
694.22	54.42
694.406	54.95
694.592	55.74
694.778	56.11
694.964	56.42
695.15	56.94
695.336	57.53
695.522	58.07
695.708	58.85
695.894	59.6
696.08	60.14
696.265	60.52
696.451	60.76
696.637	61.26
696.823	61.88
697.009	62.69
697.194	63.35
697.38	63.77
697.566	64.04
697.751	64.12
697.937	64.5
698.123	64.91
698.308	65.99
698.494	66.63
698.68	67.3
698.865	67.75
699.051	68.19
699.236	68.54
699.422	69
699.607	69.2
699.793	69.52
699.978	69.75
700.164	69.96
700.349	70.69
700.535	71.51
700.72	71.64
700.906	72.21
701.091	72.52
701.276	72.48
701.462	73.13
701.647	74.36
701.832	74.91
702.018	75.3
702.203	76.04
702.388	76.23
702.573	76.23
702.759	76.67
702.944	77.02
703.129	77.2
703.314	77.22
703.499	77.36
703.684	78.21
703.87	78.45
704.055	78.8
704.24	79.27
704.425	79.52
704.61	79.16
704.795	79.37
704.98	79.43
705.165	79.87
705.35	80.01
705.535	80.12
705.72	80.58
705.905	80.82
706.09	80.88
706.275	81.15
706.459	81.23
706.644	81.31
706.829	81.61
707.014	81.61
707.199	82.16
707.384	82.48
707.568	82.85
707.753	83.44
707.938	84.07
708.123	84.2
708.307	84.32
708.492	84.13
708.677	83.44
708.861	82.84
709.046	82.73
709.231	83.36
709.415	83.99
709.6	84.83
709.784	84.89
709.969	85.29
710.153	84.78
710.338	85.02
710.522	84.64
710.707	85.48
710.891	85.08
711.076	85.79
711.26	85.36
711.445	85.69
711.629	85.9
711.813	86.75
711.998	87.14
712.182	87.38
712.366	87.62
712.551	87.65
712.735	86.91
712.919	86.85
713.103	87.03
713.288	87.11
713.472	87.03
713.656	87.9
713.84	87.78
714.024	88.09
714.208	88.37
714.393	88.69
714.577	88.64
714.761	88.57
714.945	88.76
715.129	88.6
715.313	88.6
715.497	88.6
715.681	89.11
715.865	89.16
716.049	89.78
716.233	89.64
716.417	89.67
716.601	89.66
716.785	89.32
716.968	89.35
717.152	89.67
717.336	90.13
717.52	89.9
717.704	90.74
717.888	90.63
718.071	90.33
718.255	90.13
718.439	90.5
718.622	90.22
718.806	90.04
718.99	89.98
719.174	89.98
719.357	90.07
719.541	89.75
719.724	90.22
719.908	91.54
720.092	92.12
720.275	92.17
720.459	93.15
720.642	92.88
720.826	92.56
721.009	92.33
721.193	91.66
721.376	91.14
721.559	92.08
721.743	92.03
721.926	92.05
722.11	92.29
722.293	92.3
722.476	90.88
722.66	90.99
722.843	91.11
723.026	91.28
723.21	91.8
723.393	93.56
723.576	93.8
723.759	93.15
723.942	94.06
724.126	93.68
724.309	93.14
724.492	92.73
724.675	93.83
724.858	93.74
725.041	94.42
725.224	94.52
725.407	94.4
725.59	94.06
725.774	93.64
725.957	92.67
726.14	92.14
726.322	92.94
726.505	92.96
726.688	93.22
726.871	93.26
727.054	94.06
727.237	93.76
727.42	94.3
727.603	95.23
727.786	95.88
727.968	96.08
728.151	95.63
728.334	95.71
728.517	95.07
728.699	95.44
728.882	94.38
729.065	95.39
729.248	95.34
729.43	95.53
729.613	96.53
729.796	97.5
729.978	96.52
730.161	96.46
730.343	97.1
730.526	96.3
730.708	95.79
730.891	96.74
731.073	96.35
731.256	94.98
731.438	95.06
731.621	95.58
731.803	96.72
731.986	97.65
732.168	98.2
732.35	98.42
732.533	98.46
732.715	96.91
732.898	97.02
733.08	97.36
733.262	96.92
733.444	96.93
733.627	96.51
733.809	96.75
733.991	97.16
734.173	97.9
734.355	98.12
734.538	98.8
734.72	97.61
734.902	97.53
735.084	96.6
735.266	96.85
735.448	97.07
735.63	97.81
735.812	97.55
735.994	98.05
736.176	98.58
736.358	98.46
736.54	99.3
736.722	99.81
736.904	100.22
737.086	99.5
737.268	100.78
737.45	100.66
737.632	100.7
737.814	99.94
737.995	100.17
738.177	99.29
738.359	99.23
738.541	98.77
738.723	99.38
738.904	99.27
739.086	99.23
739.268	98.76
739.449	98.81
739.631	98.67
739.813	98.66
739.994	99.17
740.176	99.69
740.358	100.56
740.539	101.82
740.721	102.65
740.902	102.98
741.084	103.09
741.265	102.17
741.447	100.97
741.628	100.28
741.81	98.87
741.991	99.17
742.172	99.53
742.354	100.01
742.535	99.91
742.717	101.87
742.898	101.14
743.079	102.31
743.261	102.22
743.442	102.13
743.623	101.4
743.804	102.55
743.986	102.38
744.167	101.3
744.348	102.35
744.529	102.7
744.71	101.04
744.891	101.16
745.073	101.72
745.254	101.73
745.435	102.44
745.616	102.16
745.797	101
745.978	101.08
746.159	100.6
746.34	99.45
746.521	100.06
746.702	101.17
746.883	101.67
747.064	99.72
747.245	99.09
747.426	100.15
747.606	99.15
747.787	99.42
747.968	101.29
748.149	102.81
748.33	103.05
748.51	102.17
748.691	100.84
748.872	101.57
749.053	100.49
749.233	99.46
749.414	100.31
749.595	100.95
749.775	99.36
749.956	97.67
750.137	95.8
750.317	96.04
750.498	96.32
750.678	96.6
750.859	98.66
751.04	101.02
751.22	100.06
751.4	98.42
751.581	99.11
751.761	99.1
751.942	97.89
752.122	99.96
752.303	101.19
752.483	101.25
752.663	100.59
752.844	102.33
753.024	101.12
753.204	101.43
753.385	99.71
753.565	98.38
753.745	97.02
753.925	97.61
754.106	98.57
754.286	99.72
754.466	100.63
754.646	100.76
754.826	99.19
755.006	96.05
755.187	98.1
755.367	98.69
755.547	100.64
755.727	102.36
755.907	103.65
756.087	102.51
756.267	101.54
756.447	100.98
756.627	100.83
756.807	102.24
756.987	102.17
757.167	103.74
757.346	101.62
757.526	99.39
757.706	99.16
757.886	98.59
758.066	98.41
758.246	100.86
758.425	102.73
758.605	101.94
758.785	102.13
758.965	101.66
759.144	98.18
759.324	98.21
759.504	98.81
759.683	98.74
759.863	97.14
760.043	99.33
760.222	98.36
760.402	96.96
760.581	97.08
760.761	97.88
760.94	95.63
761.12	95.17
761.299	97.93
761.479	97.49
761.658	97.42
761.838	98.76
762.017	99.41
762.197	96.6
762.376	97.02
762.555	98.21
762.735	98.49
762.914	96.41
763.093	98.21
763.273	95.63
763.452	95.98
763.631	94.29
763.81	94.36
763.99	92.52
764.169	95.58
764.348	92.65
764.527	94.25
764.706	97.41
764.885	99.95
765.064	98.03
765.243	99.18
765.423	98.3
765.602	97.72
765.781	95.86
765.96	93.4
766.139	94.35
766.318	95.15
766.497	94.66
766.676	95.14
766.854	98.13
767.033	96.72
767.212	95.65
767.391	94.64
767.57	96.07
767.749	96.87
767.928	97.99
768.106	96.04
768.285	95.65
768.464	95.86
768.643	95.49
768.821	96.44
769	98.74
769.179	99.44
769.357	94.3
769.536	91.4
769.715	91.47
769.893	92.45
770.072	92.14
770.25	91.14
770.429	93.78
770.607	92.58
770.786	92.57
770.964	93.27
771.143	97.47
771.321	98.73
771.5	99.53
771.678	96.49
771.857	93.44
772.035	94.54
772.213	91.44
772.392	87.69
772.57	89.9
772.748	94.16
772.927	90.89
773.105	91.77
773.283	96.44
773.461	97.57
773.64	94.03
773.818	92.13
773.996	94.45
774.174	93.63
774.352	88.33
774.531	89.41
774.709	94.13
774.887	91.57
775.065	89.52
775.243	91.62
775.421	94.11
775.599	95.44
775.777	93.39
775.955	90.28
776.133	91.46
776.311	88
776.489	83.54
776.667	86.08
776.844	89.33
777.022	88.38
777.2	88.75
777.378	90.69
777.556	92.11
777.734	92.99
777.911	93.97
778.089	92.47
778.267	95.61
778.445	90.77
778.622	89.41
778.8	90.6
778.978	96.48
779.155	91.84
779.333	93.45
779.511	90.38
779.688	90.64
779.866	83.92
780.043	82.67
780.221	82.5
780.398	83.97
780.576	83.71
780.753	88.2
780.931	90.48
781.108	89.8
781.286	91.33
781.463	84.34
781.64	82.18
781.818	83.79
781.995	86.51
782.172	85.67
782.35	91.97
782.527	90.6
782.704	88.01
782.882	88.14
783.059	88.4
783.236	87.15
783.413	90.63
783.59	91.94
783.768	86.93
783.945	87.33
784.122	89.74
784.299	87.35
784.476	85.52
784.653	90.58
784.83	88.29
785.007	83.18
785.184	85.11
785.361	86.6
785.538	87.13
785.715	87.94
785.892	91.52
786.069	92.25
786.246	93.59
786.423	88.8
786.6	89.95
786.776	90.18
786.953	89.04
787.13	88.62
787.307	90.87
787.484	93.49
787.66	91.5
787.837	85.37
788.014	84.74
788.191	84.46
788.367	80.06
788.544	82.27
788.721	87.95
788.897	86.89
789.074	89.56
789.25	88.67
789.427	90.88
789.603	89.92
789.78	94.78
789.956	82.78
790.133	85.66
790.309	83.01
790.486	85.94
790.662	81.63
790.839	86.45
791.015	88.4
791.192	83.23
791.368	81.9
791.544	78.29
791.721	85.93
791.897	82.39
792.073	84.77
792.249	83.43
792.426	82.52
792.602	79.11
792.778	78.6
792.954	78.3
793.13	74.59
793.307	76.38
793.483	69.2
793.659	66.97
793.835	69.11
794.011	75.39
794.187	68.62
794.363	67.04
794.539	73.05
794.715	70.45
794.891	65.74
795.067	72.33
795.243	84.93
795.419	82.79
795.595	86.1
795.771	87.28
795.947	90.38
796.122	78.25
796.298	78.77
796.474	79.42
796.65	78.45
796.826	74.31
797.001	83.97
797.177	80.18
797.353	83.73
797.529	89.77
797.704	87.42
797.88	81.54
798.056	77.9
798.231	70.38
798.407	69.97
798.582	73.43
798.758	76.24
798.934	83.86
799.109	81.14
799.285	72.34
799.46	82.31
799.636	84.02
799.811	80.84
799.986	87.52
800.162	97.35
800.337	87.1
800.513	82.74
800.688	80.84
800.863	82.06
801.039	73.47
801.214	69.99
801.389	77.68
801.565	85.42
801.74	81.1
801.915	83.99
802.09	91.38
802.265	91.17
802.441	87.15
802.616	84.4
802.791	83.72
802.966	79.78
803.141	77.16
803.316	65.7
803.491	68.49
803.666	68.83
803.841	69.95
804.016	71.43
804.191	83.1
804.366	83.04
804.541	83.1
804.716	73.51
804.891	66.31
805.066	66.64
805.241	67.56
805.416	71.45
805.591	77.13
805.765	81.09
805.94	82.22
806.115	80.78
806.29	73.4
806.464	81.72
806.639	79.28
806.814	67.02
806.989	56.47
807.163	64.7
807.338	57.17
807.512	60.24
807.687	60.08
807.862	68.3
808.036	68.82
808.211	70.34
808.385	76.98
808.56	85.35
808.734	81.38
808.909	83.1
809.083	81.21
809.258	81.11
809.432	83.08
809.606	75.27
809.781	72.35
809.955	79.07
810.13	72.87
810.304	69.8
810.478	73.72
810.652	80.27
810.827	82.8
811.001	84.88
811.175	80.02
811.349	83.38
811.524	71.45
811.698	60.6
811.872	51.04
812.046	59.28
812.22	67.5
812.394	66.68
812.568	65.41
812.742	75.55
812.916	65.3
813.09	58.73
813.264	73.42
813.438	72.97
813.612	71.7
813.786	64.71
813.96	72.39
814.134	70.47
814.308	78.83
814.482	75.76
814.656	92.35
814.83	97.54
815.003	93.11
815.177	90.27
815.351	89.53
815.525	96.53
815.698	91.33
815.872	75.71
816.046	59.44
816.219	64.15
816.393	56.64
816.567	53.77
816.74	62.07
816.914	80.23
817.088	80
817.261	76.17
817.435	64.52
817.608	64.41
817.782	59.07
817.955	54.08
818.129	44.56
818.302	55.13
818.475	66.68
818.649	66.39
818.822	54.5
818.996	74.35
819.169	74.47
819.342	62.84
819.516	70.77
819.689	91.96
819.862	82.49
820.035	76.1
820.209	61.85
820.382	59.53
820.555	56.72
820.728	46.96
820.901	45.24
821.075	61.91
821.248	81.04
821.421	77.06
821.594	68.25
821.767	92.58
821.94	114.66
822.113	70.45
822.286	70.02
822.459	96.01
822.632	82.12
822.805	65.07
822.978	83.2
823.151	89.1
823.324	70.79
823.496	43.33
823.669	45.16
823.842	46.32
824.015	29.06
824.188	21.57
824.361	28.71
824.533	26.06
824.706	37.85
824.879	37.68
825.051	73.46
825.224	85.23
825.397	77.43
825.569	57.73
825.742	69.85
825.915	66.71
826.087	58.51
826.26	56.97
826.432	66.33
826.605	67.46
826.777	71.3
826.95	65.69
827.122	61.1
827.295	52.46
827.467	47.45
827.64	25.82
827.812	24.54
827.984	32.19
828.157	31.07
828.329	24.7
828.501	30.46
828.674	47.2
828.846	56.24
829.018	72.86
829.19	71.52
829.363	86.44
829.535	82.64
829.707	79.66
829.879	56.96
830.051	49.16
830.223	43.52
830.395	23.08
830.568	18.13
830.74	28.76
830.912	54.59
831.084	44.72
831.256	43.41
831.428	26.02
831.6	15.4
831.772	-18.75
831.943	-19.73
832.115	4.98
832.287	38.24
832.459	41.11
832.631	61.61
832.803	71.94
832.975	69.19
833.146	63.12
833.318	69.6
833.49	72.12
833.662	77.69
833.833	63.62
834.005	67.85
834.177	83.6
834.348	75.17
834.52	50.63
834.692	58.14
834.863	48.81
835.035	26.13
835.206	18.5
835.378	41.35
835.549	24.96
835.721	38.17
835.892	27.41
836.064	46.17
836.235	61.9
836.407	76.94
836.578	55.33
836.749	80.21
836.921	81.58
837.092	56.92
837.264	32.23
837.435	7.86
837.606	9.1
837.777	33.26
837.949	39.56
838.12	24.47
838.291	46.59
838.462	38.45
838.633	18.12
838.805	8.23
838.976	28.67
839.147	36.63
839.318	6.55
839.489	-9.75
839.66	7.18
839.831	27.45
840.002	7.66
840.173	23.04
840.344	31.5
840.515	28.39
840.686	1.87
840.857	-0.2
841.028	-4.37
841.199	23.1
841.369	24.99
841.54	23.02
841.711	44.95
841.882	49.49
842.053	27.53
842.223	1.45
842.394	29.81
842.565	30.06
842.736	41.13
842.906	42.26
843.077	74.97
843.248	57.39
843.418	50.82
843.589	42.12
843.759	78.38
843.93	80.77
844.101	88.32
844.271	94.6
844.442	115.81
844.612	117.82
844.783	83.62
844.953	56.67
845.123	63.1
845.294	49.04
845.464	25.72
845.635	38.19
845.805	71.1
845.975	81.48
846.146	48.94
846.316	35.57
846.486	44.5
846.656	41.74
846.827	4.49
846.997	31.94
847.167	46.7
847.337	41.34
847.507	32.4
847.677	33.49
847.848	58.94
848.018	67.07
848.188	74.53
848.358	46.54
848.528	67.89
848.698	44.76
848.868	8.5
849.038	-4.39
849.208	32.02
849.378	26.34
849.548	0
849.718	60.89
849.887	108.07
850.057	48.76
850.227	19.47
850.397	48.77
850.567	39.04
850.737	60.38
850.906	27.76
851.076	-6.04
851.246	-29.58
851.415	-10.48
851.585	-7.34
851.755	7.56
851.924	50.57
852.094	69.1
852.264	56.84
852.433	21.74
852.603	43.62
852.772	38.15
852.942	14.73
853.111	-2.7
853.281	49.59
853.45	52.13
853.62	34.08
853.789	-0.22
853.959	38.62
854.128	15.83
854.297	-18.54
854.467	-30.45
854.636	17.7
854.805	21.13
854.975	9.8
855.144	25.27
855.313	82.43
855.482	71.51
855.652	34.76
855.821	42.95
855.99	59.85
856.159	53.2
856.328	56.48
856.497	64.19
856.667	76.35
856.836	74.25
857.005	38.82
857.174	-10.88
857.343	12.83
857.512	18.76
857.681	-48.54
857.85	-43.72
858.019	-24.99
858.188	-20.75
858.356	-56.74
858.525	-41.17
858.694	-35.08
858.863	-14.72
859.032	-41.85
859.201	-27.53
859.369	4
859.538	24.04
859.707	1.13
859.876	24.43
860.044	17.87
860.213	23.35
860.382	13.07
860.55	27.06
860.719	56.74
860.888	77.9
861.056	52.27
861.225	17.21
861.393	96.07
861.562	89.7
861.73	65.62
861.899	59.62
862.067	35.81
862.236	29.47
862.404	-26.09
862.572	-60.8
862.741	-16.1
862.909	-2.47
863.078	-31.03
863.246	-36.2
863.414	20.29
863.582	-38.62
863.751	-31.69
863.919	-38.28
864.087	27.77
864.255	18.86
864.424	0.17
864.592	27.36
864.76	62.11
864.928	19.82
865.096	-6.06
865.264	-6.68
865.432	-9.02
865.6	-17.69
865.768	-59.41
865.936	-94.44
866.104	-46.23
866.272	-67.81
866.44	-109.51
866.608	-75.82
866.776	-123.25
866.944	-225.23
867.112	-316.59
867.28	-396.01
867.448	-804.42
867.615	-294.36
867.783	-28.28
867.951	-61.9
868.119	21.03
868.286	3.32
868.454	-13.34
868.622	-68.76
868.789	-27.36
868.957	3.09
869.125	-4.15
869.292	-3.61
869.46	11.24
869.627	30.46
869.795	-28.76
869.963	-3.16
870.13	14.31
870.298	44.05
870.465	-15.64
870.632	-17.94
870.8	-52.82
870.967	-35.86
871.135	-140.25
871.302	-57.05
871.469	22.58
871.637	53.22
871.804	35.67
871.971	30.82
872.139	32.15
872.306	50.94
872.473	28.95
872.64	5.89
872.807	59.61
872.975	92.1
873.142	44.61
873.309	71.18
873.476	147.7
873.643	142.34
873.81	124.98
873.977	89.87
874.144	90.83
874.311	51.04
874.478	-18.81
874.645	-82.78
874.812	-248.31
874.979	16342.86
875.146	-316.51
875.313	-68.32
875.48	44.22
875.647	32.54
875.813	4.44
875.98	-13.05
876.147	-52.07
876.314	-55.89
876.481	-137.18
876.647	-176.93
876.814	-93.49
876.981	-58.37
877.147	-134.52
877.314	-109.32
877.481	-13.99
877.647	13.83
877.814	-13.51
877.98	-14.34
878.147	49.94
878.314	59.1
878.48	-0.45
878.647	-29.66
878.813	35.48
878.979	51.48
879.146	20.39
879.312	41.44
879.479	58
879.645	65.36
879.811	6.6
879.978	38.08
880.144	56.52
880.31	82.69
880.477	-26.79
880.643	9.01
880.809	9.61
880.975	21.61
881.142	-19.6
881.308	9.09
881.474	34.2
881.64	29.68
881.806	-16.45
881.972	33.13
882.138	53.93
882.304	68.29
882.47	16.4
882.636	1.66
882.802	-50.68
882.968	-8.29
883.134	-110.21
883.3	-90.58
883.466	55.8
883.632	90.22
883.798	-38.74
883.964	-39.58
884.129	-49.43
884.295	-82.9
884.461	-100.16
884.627	-124.98
884.793	-85.25
884.958	-33.76
885.124	-77.86
885.29	-88.66
885.455	-9.81
885.621	24.43
885.787	-140.18
885.952	-74.92
886.118	-51.33
886.283	-71.98
886.449	-109.94
886.614	-47.59
886.78	-25.72
886.945	-7.13
887.111	-151.34
887.276	-160.21
887.442	-331.65
887.607	-151.4
887.773	-252.95
887.938	-159.4
888.103	-85.75
888.269	-5.66
888.434	-1.07
888.599	17.05
888.764	65.19
888.93	68.07
889.095	34.25
889.26	3.76
889.425	49.85
889.59	88.33
889.756	67.67
889.921	61
890.086	96.32
890.251	66.33
890.416	-30.38
890.581	-33.24
890.746	3.84
890.911	15.13
891.076	-12.66
891.241	20.25
891.406	67.49
891.571	48.98
891.736	-3.12
891.901	-16.52
892.065	4
892.23	10
892.395	-74.54
892.56	-86.84
892.725	12.04
892.889	29.63
893.054	-57.3
893.219	-58.31
893.384	-66.22
893.548	-131.42
893.713	-202.94
893.878	-150.14
