Data from Ofra_PP_Phys_0GT15_Reflection_1.txt Node
Date: Sat Jul 24 20:00:08 EDT 2021
User: USUARIO
Spectrometer: FLMT01687
Trigger mode: 0
Integration Time (sec): 1.100000E0
Scans to average: 2
Electric dark correction enabled: true
Nonlinearity correction enabled: false
Boxcar width: 2
XAxis mode: Wavelengths
Number of Pixels in Spectrum: 3648
>>>>>Begin Spectral Data<<<<<
179.494	350.89
179.716	431.4
179.937	756.47
180.158	646.3
180.38	318.85
180.601	-320.9
180.823	51.59
181.044	-559.69
181.265	86.16
181.486	94.73
181.708	3.78
181.929	-717.33
182.15	635.34
182.372	87.2
182.593	-28333.33
182.814	333.33
183.035	-22.31
183.257	5.26
183.478	-9.46
183.699	-38.03
183.92	-72.27
184.141	-19.24
184.363	-19.84
184.584	9.58
184.805	19.87
185.026	34.06
185.247	36.56
185.468	18.58
185.689	15.18
185.91	2.96
186.132	-16.43
186.353	-9.53
186.574	14.26
186.795	19.89
187.016	9.79
187.237	42.11
187.458	52.55
187.679	50.28
187.9	71.08
188.121	88.84
188.342	51.73
188.563	68.6
188.784	70.26
189.005	40.6
189.226	40.01
189.447	48.84
189.667	50.19
189.888	44.07
190.109	19.94
190.33	1.85
190.551	-10.11
190.772	-37.71
190.993	-49.68
191.214	-24.7
191.434	-16.27
191.655	0.49
191.876	1.08
192.097	8.36
192.318	-3.1
192.538	-19.16
192.759	-18.34
192.98	-20.9
193.201	-26.55
193.421	-23.12
193.642	2.1
193.863	-3.27
194.083	0.7
194.304	6.47
194.525	18.66
194.745	-4.32
194.966	-31.65
195.187	-44.62
195.407	-70.48
195.628	-78.15
195.848	-39.5
196.069	-30.98
196.29	-28.44
196.51	-63.15
196.731	-100.92
196.951	-90.43
197.172	-66.84
197.392	-55.38
197.613	-38.27
197.833	-34.53
198.054	-69.46
198.274	-51.88
198.495	-103.29
198.715	-41.15
198.936	-50.2
199.156	-15.42
199.377	-30.49
199.597	-13.31
199.817	-29.1
200.038	18.9
200.258	52.06
200.479	41.51
200.699	48.93
200.919	29.33
201.14	-3.14
201.36	-9.94
201.58	-21.71
201.801	-34.03
202.021	-10.89
202.241	5.36
202.461	-7.11
202.682	13.32
202.902	43.89
203.122	16.66
203.342	13.57
203.563	12.27
203.783	19.39
204.003	-39.26
204.223	-132.41
204.443	-89.96
204.663	-72.29
204.884	-62.64
205.104	-30.81
205.324	35.73
205.544	39.71
205.764	20.76
205.984	7.57
206.204	-1.34
206.424	-30.11
206.644	-41.88
206.864	-7.03
207.084	-31.27
207.304	-34.6
207.525	-47.66
207.745	-38.39
207.964	-57.85
208.184	-26.64
208.404	-4
208.624	-5.31
208.844	-2.91
209.064	-20.78
209.284	-11.57
209.504	-30.95
209.724	-9.74
209.944	-20.17
210.164	-13.47
210.384	-11.57
210.604	-6.75
210.823	-27.64
211.043	-45.23
211.263	-23.22
211.483	-28.62
211.703	-26.09
211.922	-12.49
212.142	27.21
212.362	24.9
212.582	11.19
212.801	23.96
213.021	15.28
213.241	13.08
213.461	-4.9
213.68	-2.29
213.9	-33.08
214.12	-30.82
214.339	-36.17
214.559	-15.32
214.779	-20.37
214.998	-3.87
215.218	-1.33
215.438	-19.16
215.657	-57.09
215.877	-31.31
216.096	-16.26
216.316	-17.32
216.535	-6.17
216.755	17.52
216.974	18.76
217.194	11.12
217.413	-3.66
217.633	-17.16
217.852	-55.56
218.072	-63.35
218.291	-66.81
218.511	-30.48
218.73	-50.45
218.95	-35.32
219.169	-24.74
219.389	-39.5
219.608	-58.11
219.827	-25.75
220.047	-25.82
220.266	-34.54
220.485	-21.66
220.705	2.22
220.924	-15.15
221.143	5.43
221.363	-22.81
221.582	-10.19
221.801	-33.47
222.021	-15.89
222.24	-17.1
222.459	9.38
222.678	-19.32
222.897	15.85
223.117	5.78
223.336	3.11
223.555	25.34
223.774	55.42
223.993	26.86
224.213	39.23
224.432	34.31
224.651	26.11
224.87	28.47
225.089	47.51
225.308	39.23
225.527	51.01
225.746	50.08
225.965	46.23
226.184	17.75
226.404	23.19
226.623	10.26
226.842	1.25
227.061	9.77
227.28	22.01
227.499	32.9
227.718	48.96
227.936	39.19
228.155	24.45
228.374	8.39
228.593	-11.85
228.812	-15.71
229.031	8.07
229.25	-5.65
229.469	13.07
229.688	17.33
229.907	17.17
230.125	11.8
230.344	21.18
230.563	20.77
230.782	42.87
231.001	13.12
231.22	20.36
231.438	14.08
231.657	10.91
231.876	-14.75
232.095	0.19
232.313	-9.28
232.532	-0.38
232.751	0.75
232.969	15.97
233.188	7.37
233.407	0.81
233.625	3.51
233.844	-0.5
234.063	-17.76
234.281	13.58
234.5	25.14
234.719	9.93
234.937	-1.83
235.156	-12.28
235.374	-11.91
235.593	0.03
235.811	9.13
236.03	16.15
236.249	23.06
236.467	39.21
236.686	14.69
236.904	12.81
237.123	-25.12
237.341	-20.23
237.559	-35.87
237.778	-21.07
237.996	-32.68
238.215	2.23
238.433	-0.82
238.652	-5.69
238.87	-30.01
239.088	-18.6
239.307	-10.11
239.525	-13.69
239.743	-12.38
239.962	4.26
240.18	-12.3
240.398	-45.92
240.617	-50.12
240.835	-43.1
241.053	-75.85
241.271	-59.04
241.49	-26.37
241.708	-9.64
241.926	-23.79
242.144	8.91
242.363	4.86
242.581	4.14
242.799	6.08
243.017	5.8
243.235	-9.67
243.453	2.09
243.672	-4.83
243.89	0.66
244.108	30.03
244.326	47.94
244.544	45.73
244.762	36.45
244.98	38.74
245.198	25.78
245.416	9.45
245.634	-14.84
245.852	10.49
246.07	-1.67
246.288	-6.38
246.506	4.49
246.724	25.12
246.942	10.79
247.16	17.95
247.378	23.72
247.596	11.25
247.814	5.6
248.032	-0.88
248.25	-16.49
248.468	-23.29
248.685	0.34
248.903	11.66
249.121	14.6
249.339	-7.53
249.557	-9.86
249.775	-61.3
249.992	-112.43
250.21	-105.65
250.428	-61.99
250.646	-51.02
250.863	-29.63
251.081	-5.27
251.299	1.79
251.517	-7.17
251.734	-16.59
251.952	-7.35
252.17	10.41
252.387	17.6
252.605	14.65
252.823	20.33
253.04	7.18
253.258	-0.3
253.475	1.27
253.693	6.93
253.911	25.27
254.128	35.69
254.346	34.75
254.563	13.34
254.781	8.56
254.998	-3.72
255.216	-19.64
255.433	-31.26
255.651	-7.83
255.868	-8.68
256.086	-14.69
256.303	17.99
256.521	19.75
256.738	2.41
256.956	3.95
257.173	10.64
257.39	-10.08
257.608	0.28
257.825	5.68
258.043	13
258.26	14.27
258.477	7.64
258.695	6.41
258.912	-11.24
259.129	-19.78
259.346	-41.21
259.564	-31.34
259.781	-11.49
259.998	1.17
260.216	15.48
260.433	32.36
260.65	14.03
260.867	7.59
261.084	-2.49
261.302	-0.78
261.519	3.64
261.736	17.07
261.953	8.33
262.17	25.12
262.387	23.52
262.604	18.59
262.822	14.02
263.039	16.71
263.256	-1.76
263.473	-5.7
263.69	-18.18
263.907	-3.16
264.124	-4.2
264.341	9.88
264.558	5.9
264.775	11.97
264.992	3.57
265.209	8.48
265.426	-1.37
265.643	-3.46
265.86	-3.98
266.077	-0.87
266.294	-4.52
266.51	4.4
266.727	6.25
266.944	10.12
267.161	7.42
267.378	11.22
267.595	16.89
267.812	-4.55
268.028	19.92
268.245	16.89
268.462	10.34
268.679	6.82
268.896	24.1
269.112	-0.3
269.329	0.17
269.546	18.99
269.763	17.49
269.979	22.65
270.196	24.63
270.413	40.43
270.629	15.58
270.846	19.64
271.063	20.89
271.279	6.79
271.496	-17.05
271.712	-4.35
271.929	-5.77
272.146	-13.8
272.362	-9.37
272.579	19.89
272.795	20.1
273.012	10.13
273.228	24.49
273.445	30.28
273.661	1.75
273.878	-35
274.094	-30.32
274.311	-46.36
274.527	-35.66
274.744	-10.15
274.96	26.58
275.177	27.59
275.393	34.02
275.609	32.82
275.826	26.63
276.042	11.16
276.259	16.69
276.475	0.62
276.691	3.45
276.908	13.06
277.124	30.74
277.34	18.94
277.557	25.71
277.773	13.59
277.989	4.46
278.205	1.77
278.422	3.22
278.638	7.12
278.854	-0.61
279.07	-7.13
279.286	-23.12
279.503	-16.25
279.719	-23.24
279.935	-18.18
280.151	-19.14
280.367	4.22
280.583	11.22
280.799	15.15
281.016	21.75
281.232	29.4
281.448	25.31
281.664	23.38
281.88	20.97
282.096	16.26
282.312	28.4
282.528	33.91
282.744	34.77
282.96	39.55
283.176	42.15
283.392	25.67
283.608	26.01
283.824	23.78
284.04	18.76
284.256	28.97
284.471	29.85
284.687	36.63
284.903	29.3
285.119	38.59
285.335	15.71
285.551	12.36
285.767	-6.55
285.982	-5.34
286.198	-6.57
286.414	16.36
286.63	5.65
286.846	7.26
287.061	-10.33
287.277	-15.13
287.493	-19.65
287.709	6.63
287.924	5.92
288.14	33.01
288.356	50.42
288.571	43.67
288.787	27.67
289.003	29.58
289.218	8.45
289.434	-32.99
289.65	5.19
289.865	14.78
290.081	13.1
290.296	13.2
290.512	18.13
290.727	18.13
290.943	5.52
291.159	-1.88
291.374	-0.48
291.59	-14.09
291.805	-14.53
292.021	-1.91
292.236	7.23
292.451	8.37
292.667	19.26
292.882	13.15
293.098	14.02
293.313	4.66
293.529	-0.51
293.744	-15.47
293.959	-12.65
294.175	-6.28
294.39	3.2
294.605	15.65
294.821	16.59
295.036	7.58
295.251	3.55
295.467	12.54
295.682	12.62
295.897	3.51
296.112	-1.31
296.328	-4.53
296.543	-3.69
296.758	-27.12
296.973	2.1
297.188	27.99
297.404	21.49
297.619	17.09
297.834	36.07
298.049	29.56
298.264	12.36
298.479	25.69
298.694	23
298.909	28.13
299.125	38.58
299.34	38.95
299.555	31.56
299.77	34.27
299.985	-3.47
300.2	-35.07
300.415	-44.93
300.63	-30.93
300.845	-34.31
301.06	-33.55
301.275	-25.64
301.49	-7.36
301.704	-19.96
301.919	-18.62
302.134	-27.12
302.349	2
302.564	-28.38
302.779	-12.62
302.994	22.27
303.209	30.36
303.423	11.85
303.638	30.92
303.853	28.42
304.068	-5.27
304.283	5.66
304.497	7.99
304.712	12.65
304.927	6.95
305.142	2.19
305.356	0.02
305.571	-1.11
305.786	-0.98
306	-10.42
306.215	-5.05
306.43	-20.66
306.644	-4.19
306.859	-4.95
307.074	-0.66
307.288	-3.9
307.503	7.09
307.717	-1.03
307.932	-9.94
308.147	0.39
308.361	12.19
308.576	15.34
308.79	-17.37
309.005	9.88
309.219	-1.67
309.434	3.15
309.648	2.26
309.863	22.94
310.077	15.56
310.292	19.72
310.506	11.51
310.72	14.4
310.935	15.73
311.149	12.12
311.364	12.1
311.578	16.97
311.792	22.69
312.007	32.44
312.221	20.66
312.435	24.47
312.649	7.04
312.864	-8.03
313.078	-36.56
313.292	-25.59
313.507	-30.82
313.721	-4.71
313.935	-22.64
314.149	15.89
314.363	23.46
314.578	23.09
314.792	-8.71
315.006	20.65
315.22	-11.87
315.434	-14.5
315.648	-12.74
315.862	-6.95
316.077	-18.29
316.291	17.58
316.505	9.65
316.719	9.93
316.933	-3.73
317.147	5.37
317.361	-19.75
317.575	-17.44
317.789	-21.09
318.003	-9.8
318.217	-18.25
318.431	6.11
318.645	4.67
318.859	8.07
319.073	19.28
319.287	10.64
319.5	-1.88
319.714	-9.99
319.928	-9.78
320.142	-15.71
320.356	14.01
320.57	10.66
320.784	13.31
320.997	13.57
321.211	10.38
321.425	1.03
321.639	-4.8
321.853	6.6
322.066	0.32
322.28	1.72
322.494	-10.31
322.707	17.11
322.921	12.29
323.135	15.55
323.349	12.92
323.562	15.21
323.776	-9.78
323.989	-12.95
324.203	-21.08
324.417	-8.63
324.63	-26.88
324.844	-31.38
325.057	-32.08
325.271	-40.66
325.485	-61.75
325.698	-14.69
325.912	9.11
326.125	12.5
326.339	24.33
326.552	32.42
326.766	23.3
326.979	4.59
327.193	18.38
327.406	12.12
327.619	21.99
327.833	25.63
328.046	25.6
328.26	12.84
328.473	14.63
328.686	4.57
328.9	-4.85
329.113	-0.48
329.326	-10.43
329.54	3.24
329.753	-5.51
329.966	-4.55
330.179	16.03
330.393	35.23
330.606	27.18
330.819	41.91
331.032	38.55
331.246	34.05
331.459	32.54
331.672	17.15
331.885	3.43
332.098	1.96
332.311	-0.22
332.525	-1.98
332.738	5.36
332.951	11.86
333.164	16.68
333.377	21
333.59	25.07
333.803	26.14
334.016	12.17
334.229	5.51
334.442	10.64
334.655	7.46
334.868	19.3
335.081	20.88
335.294	15.56
335.507	6.38
335.72	11.6
335.933	-8.32
336.146	-8.83
336.359	0.86
336.572	-4.35
336.785	-15.43
336.997	-4.03
337.21	4.39
337.423	6.75
337.636	12.31
337.849	16.43
338.062	13.22
338.274	22.74
338.487	14.94
338.7	10.12
338.913	-5
339.125	-2.48
339.338	4.57
339.551	3.93
339.763	17.64
339.976	32.4
340.189	28.74
340.402	15.37
340.614	29.64
340.827	13.74
341.039	-0.34
341.252	-8.61
341.465	-18.38
341.677	-50.79
341.89	-64.97
342.102	-31.16
342.315	-17.83
342.527	-12.81
342.74	8.67
342.952	23.12
343.165	6.92
343.377	0.54
343.59	2.7
343.802	7.58
344.015	16.04
344.227	21.93
344.44	25.05
344.652	24.98
344.864	18.72
345.077	10.97
345.289	17.06
345.502	22.9
345.714	19.31
345.926	19.88
346.139	13.08
346.351	12.25
346.563	-1.12
346.775	-4.32
346.988	-11.27
347.2	-11.13
347.412	-19.27
347.624	-7.54
347.837	10.59
348.049	21.06
348.261	26.67
348.473	26.17
348.685	17.55
348.897	8.06
349.11	1.18
349.322	-8.76
349.534	0.69
349.746	5.44
349.958	16.08
350.17	18.38
350.382	29.82
350.594	28.61
350.806	40.66
351.018	31.25
351.23	32.64
351.442	32.7
351.654	33.14
351.866	28.79
352.078	28.47
352.29	22.71
352.502	15.01
352.714	41.12
352.926	40.86
353.138	32.55
353.35	25.27
353.561	21.2
353.773	3.37
353.985	14.46
354.197	22.12
354.409	33.27
354.621	29.13
354.832	29.35
355.044	18.5
355.256	5.99
355.468	0.35
355.679	-5.88
355.891	1.75
356.103	-0.94
356.314	8.27
356.526	16.76
356.738	31.22
356.949	26.95
357.161	26.84
357.373	27.32
357.584	23.65
357.796	26.89
358.008	20.65
358.219	25.98
358.431	23.5
358.642	16.94
358.854	19.07
359.065	26.26
359.277	22.83
359.488	22.93
359.7	16.17
359.911	1.48
360.123	-3.26
360.334	-13.43
360.546	-16.43
360.757	-8
360.969	3.93
361.18	14.3
361.391	21.25
361.603	19.58
361.814	16.85
362.025	-2.89
362.237	-4.04
362.448	2.89
362.659	9.99
362.871	-0.83
363.082	12.3
363.293	12.5
363.504	3.96
363.716	-2.47
363.927	11.87
364.138	9.65
364.349	-5.28
364.56	0.61
364.772	-2.68
364.983	-5.05
365.194	-20.07
365.405	-10.17
365.616	-26.51
365.827	-21.54
366.038	-10.78
366.25	18.11
366.461	4.33
366.672	12.21
366.883	16.66
367.094	8.84
367.305	-6.13
367.516	14.9
367.727	19.47
367.938	12.78
368.149	9.91
368.36	14.43
368.571	4.67
368.781	-0.63
368.992	-8.13
369.203	11.16
369.414	-1.43
369.625	-8.05
369.836	-6.19
370.047	-4.72
370.258	-17.04
370.468	-8.74
370.679	-14.55
370.89	-14.18
371.101	12.2
371.312	-1.05
371.522	7.1
371.733	17.51
371.944	25.22
372.155	13.46
372.365	14.14
372.576	16.59
372.787	12.8
372.997	-1.75
373.208	-1.47
373.419	2.8
373.629	-10.45
373.84	-2.81
374.05	-2.47
374.261	4.02
374.472	-0.31
374.682	1.75
374.893	-11.73
375.103	5.6
375.314	-8.58
375.524	-4.45
375.735	6.42
375.945	8.05
376.156	5.04
376.366	18.25
376.577	16.39
376.787	19.27
376.997	31.38
377.208	27.43
377.418	14.52
377.629	26.22
377.839	19
378.049	12.82
378.26	21.19
378.47	28.05
378.68	19.7
378.89	26.97
379.101	23.81
379.311	10.84
379.521	5.54
379.732	9.4
379.942	-15.82
380.152	-5.99
380.362	-1.39
380.572	-4.1
380.783	0.9
380.993	11.38
381.203	11.27
381.413	10.97
381.623	14.08
381.833	3.87
382.043	1.52
382.253	-5.2
382.463	5.46
382.674	5.44
382.884	6.23
383.094	8.66
383.304	18.75
383.514	12.09
383.724	8.5
383.934	4.79
384.144	0.08
384.353	-6.57
384.563	-2.4
384.773	5.22
384.983	13.35
385.193	19.82
385.403	12.27
385.613	13.06
385.823	9.68
386.033	6.77
386.242	3.69
386.452	9.16
386.662	3.53
386.872	6.2
387.082	5.64
387.291	-0.87
387.501	1.11
387.711	2.29
387.921	-5.48
388.13	2.51
388.34	8.72
388.55	4.26
388.759	4.71
388.969	6.78
389.179	1.67
389.388	0.53
389.598	2.81
389.807	3.03
390.017	6
390.227	4.81
390.436	5.39
390.646	8.82
390.855	8.33
391.065	9.56
391.274	9.09
391.484	6.72
391.693	3.35
391.903	2.82
392.112	1.06
392.322	3.84
392.531	7.06
392.74	6.27
392.95	5.08
393.159	5.16
393.369	5.04
393.578	2.6
393.787	2.96
393.997	4.52
394.206	4.44
394.415	4.48
394.625	5.19
394.834	4.44
395.043	4.18
395.252	4.12
395.462	3.84
395.671	3.71
395.88	5.14
396.089	5.61
396.298	5.8
396.508	5.64
396.717	6.42
396.926	5.43
397.135	5.3
397.344	5.01
397.553	5.02
397.762	4.95
397.971	5.46
398.181	5.39
398.39	5.08
398.599	4.78
398.808	4.33
399.017	4.32
399.226	4.19
399.435	4.56
399.644	4.81
399.853	4.72
400.062	4.39
400.27	4.41
400.479	4.26
400.688	4.03
400.897	4.31
401.106	4.26
401.315	3.95
401.524	4.05
401.733	4.17
401.941	4.07
402.15	4.15
402.359	4.42
402.568	4.19
402.777	4.07
402.985	3.91
403.194	4
403.403	3.71
403.612	3.74
403.82	3.98
404.029	3.92
404.238	3.95
404.446	4.08
404.655	4.01
404.864	3.79
405.072	3.77
405.281	3.8
405.489	3.57
405.698	3.67
405.906	3.65
406.115	3.63
406.324	3.31
406.532	3.48
406.741	3.62
406.949	3.54
407.158	3.61
407.366	3.75
407.574	3.75
407.783	3.45
407.991	3.57
408.2	3.57
408.408	3.54
408.617	3.45
408.825	3.45
409.033	3.44
409.242	3.42
409.45	3.46
409.658	3.39
409.867	3.5
410.075	3.52
410.283	3.44
410.491	3.48
410.7	3.43
410.908	3.41
411.116	3.26
411.324	3.14
411.533	3.07
411.741	3.19
411.949	3.23
412.157	3.25
412.365	3.48
412.573	3.36
412.781	3.35
412.99	3.26
413.198	3.26
413.406	3.11
413.614	3.22
413.822	3.17
414.03	3.25
414.238	3.13
414.446	3.21
414.654	3.08
414.862	3.09
415.07	3.03
415.278	3.21
415.486	2.94
415.694	3.13
415.902	3.14
416.109	3.08
416.317	3.03
416.525	3.06
416.733	3
416.941	2.97
417.149	2.96
417.357	2.92
417.564	3.02
417.772	2.86
417.98	2.82
418.188	2.89
418.395	2.83
418.603	2.93
418.811	3.01
419.019	2.85
419.226	2.86
419.434	3.01
419.642	2.91
419.849	2.83
420.057	3.07
420.265	2.92
420.472	2.74
420.68	2.83
420.887	2.9
421.095	2.89
421.302	2.98
421.51	3.09
421.717	3.13
421.925	3.06
422.132	3.12
422.34	3.02
422.547	2.88
422.755	2.87
422.962	3.01
423.17	2.88
423.377	3.02
423.585	3.07
423.792	2.98
423.999	2.9
424.207	2.81
424.414	2.61
424.621	2.67
424.829	2.64
425.036	2.54
425.243	2.54
425.451	2.51
425.658	2.4
425.865	2.4
426.072	2.55
426.28	2.54
426.487	2.49
426.694	2.54
426.901	2.59
427.108	2.54
427.315	2.61
427.523	2.79
427.73	2.77
427.937	2.61
428.144	2.48
428.351	2.51
428.558	2.37
428.765	2.29
428.972	2.27
429.179	2.33
429.386	2.36
429.593	2.59
429.8	2.58
430.007	2.74
430.214	2.74
430.421	2.7
430.628	2.51
430.835	2.46
431.042	2.6
431.249	2.64
431.456	2.74
431.662	2.94
431.869	2.97
432.076	2.84
432.283	2.83
432.49	2.66
432.697	2.56
432.903	2.53
433.11	2.62
433.317	2.64
433.524	2.71
433.73	2.61
433.937	2.7
434.144	2.59
434.35	2.56
434.557	2.48
434.764	2.45
434.97	2.53
435.177	2.58
435.384	2.43
435.59	2.57
435.797	2.67
436.003	2.46
436.21	2.46
436.416	2.6
436.623	2.46
436.829	2.52
437.036	2.62
437.242	2.46
437.449	2.44
437.655	2.47
437.862	2.45
438.068	2.48
438.275	2.54
438.481	2.66
438.687	2.6
438.894	2.56
439.1	2.52
439.307	2.62
439.513	2.48
439.719	2.56
439.926	2.53
440.132	2.51
440.338	2.49
440.544	2.57
440.751	2.55
440.957	2.59
441.163	2.44
441.369	2.47
441.575	2.41
441.782	2.39
441.988	2.29
442.194	2.44
442.4	2.31
442.606	2.37
442.812	2.45
443.018	2.46
443.224	2.53
443.431	2.67
443.637	2.58
443.843	2.53
444.049	2.58
444.255	2.49
444.461	2.4
444.667	2.36
444.873	2.44
445.079	2.46
445.284	2.52
445.49	2.48
445.696	2.46
445.902	2.38
446.108	2.39
446.314	2.35
446.52	2.4
446.726	2.54
446.931	2.5
447.137	2.48
447.343	2.5
447.549	2.34
447.755	2.25
447.96	2.34
448.166	2.36
448.372	2.43
448.578	2.49
448.783	2.52
448.989	2.5
449.195	2.53
449.4	2.43
449.606	2.53
449.812	2.51
450.017	2.56
450.223	2.52
450.428	2.4
450.634	2.34
450.84	2.36
451.045	2.31
451.251	2.22
451.456	2.36
451.662	2.4
451.867	2.42
452.073	2.35
452.278	2.45
452.483	2.45
452.689	2.48
452.894	2.52
453.1	2.64
453.305	2.56
453.51	2.49
453.716	2.42
453.921	2.43
454.127	2.39
454.332	2.41
454.537	2.42
454.742	2.48
454.948	2.44
455.153	2.4
455.358	2.4
455.563	2.51
455.769	2.52
455.974	2.43
456.179	2.46
456.384	2.42
456.589	2.38
456.795	2.24
457	2.32
457.205	2.32
457.41	2.29
457.615	2.26
457.82	2.38
458.025	2.39
458.23	2.32
458.435	2.43
458.64	2.38
458.845	2.41
459.05	2.31
459.255	2.34
459.46	2.34
459.665	2.35
459.87	2.35
460.075	2.32
460.28	2.36
460.485	2.37
460.69	2.35
460.895	2.22
461.099	2.24
461.304	2.29
461.509	2.28
461.714	2.27
461.919	2.35
462.123	2.34
462.328	2.34
462.533	2.26
462.738	2.29
462.942	2.24
463.147	2.33
463.352	2.32
463.556	2.28
463.761	2.24
463.966	2.27
464.17	2.32
464.375	2.29
464.58	2.39
464.784	2.41
464.989	2.4
465.193	2.31
465.398	2.29
465.602	2.34
465.807	2.32
466.011	2.41
466.216	2.57
466.42	2.58
466.625	2.54
466.829	2.69
467.034	2.68
467.238	2.56
467.443	2.62
467.647	2.58
467.851	2.49
468.056	2.52
468.26	2.49
468.464	2.37
468.669	2.39
468.873	2.39
469.077	2.35
469.282	2.34
469.486	2.49
469.69	2.51
469.894	2.51
470.099	2.47
470.303	2.49
470.507	2.38
470.711	2.38
470.915	2.39
471.119	2.46
471.324	2.5
471.528	2.49
471.732	2.53
471.936	2.57
472.14	2.65
472.344	2.62
472.548	2.65
472.752	2.64
472.956	2.65
473.16	2.53
473.364	2.54
473.568	2.6
473.772	2.61
473.976	2.61
474.18	2.62
474.384	2.54
474.588	2.41
474.792	2.34
474.995	2.3
475.199	2.31
475.403	2.43
475.607	2.46
475.811	2.45
476.015	2.53
476.218	2.51
476.422	2.51
476.626	2.59
476.83	2.7
477.033	2.59
477.237	2.6
477.441	2.49
477.644	2.42
477.848	2.35
478.052	2.33
478.255	2.34
478.459	2.43
478.663	2.54
478.866	2.56
479.07	2.67
479.273	2.73
479.477	2.72
479.681	2.66
479.884	2.63
480.088	2.58
480.291	2.58
480.495	2.55
480.698	2.62
480.901	2.69
481.105	2.71
481.308	2.71
481.512	2.72
481.715	2.68
481.919	2.65
482.122	2.66
482.325	2.66
482.529	2.68
482.732	2.66
482.935	2.63
483.138	2.58
483.342	2.59
483.545	2.66
483.748	2.71
483.952	2.73
484.155	2.84
484.358	2.81
484.561	2.74
484.764	2.77
484.967	2.77
485.171	2.73
485.374	2.69
485.577	2.69
485.78	2.66
485.983	2.67
486.186	2.61
486.389	2.59
486.592	2.61
486.795	2.57
486.998	2.58
487.201	2.69
487.404	2.76
487.607	2.79
487.81	2.84
488.013	2.81
488.216	2.74
488.419	2.8
488.622	2.73
488.825	2.76
489.028	2.8
489.231	2.86
489.433	2.78
489.636	2.8
489.839	2.72
490.042	2.71
490.245	2.63
490.447	2.72
490.65	2.79
490.853	2.92
491.056	2.92
491.258	2.93
491.461	2.87
491.664	2.84
491.866	2.7
492.069	2.73
492.272	2.79
492.474	2.83
492.677	2.83
492.879	2.94
493.082	2.95
493.285	3.01
493.487	2.99
493.69	2.94
493.892	2.82
494.095	2.81
494.297	2.75
494.5	2.86
494.702	2.89
494.905	2.96
495.107	2.99
495.309	3.02
495.512	2.93
495.714	3.01
495.917	3.07
496.119	3.05
496.321	3.11
496.524	3.13
496.726	3.11
496.928	3.07
497.13	3.09
497.333	3.05
497.535	3.1
497.737	3.06
497.939	3.03
498.142	3.12
498.344	3.08
498.546	3.06
498.748	3.15
498.95	3.22
499.152	3.12
499.355	3.21
499.557	3.23
499.759	3.19
499.961	3.22
500.163	3.27
500.365	3.25
500.567	3.18
500.769	3.19
500.971	3.21
501.173	3.19
501.375	3.21
501.577	3.25
501.779	3.31
501.981	3.33
502.183	3.32
502.385	3.28
502.587	3.23
502.788	3.25
502.99	3.23
503.192	3.26
503.394	3.28
503.596	3.31
503.798	3.32
503.999	3.31
504.201	3.28
504.403	3.34
504.605	3.44
504.806	3.38
505.008	3.41
505.21	3.47
505.411	3.45
505.613	3.39
505.815	3.45
506.016	3.48
506.218	3.53
506.42	3.49
506.621	3.53
506.823	3.57
507.024	3.61
507.226	3.59
507.427	3.64
507.629	3.64
507.83	3.62
508.032	3.55
508.233	3.63
508.435	3.67
508.636	3.7
508.838	3.7
509.039	3.79
509.24	3.74
509.442	3.74
509.643	3.77
509.845	3.8
510.046	3.78
510.247	3.78
510.448	3.75
510.65	3.81
510.851	3.87
511.052	3.9
511.254	3.9
511.455	3.98
511.656	4.01
511.857	3.99
512.058	4.03
512.26	4.12
512.461	4.05
512.662	4.01
512.863	3.96
513.064	3.9
513.265	3.88
513.466	3.98
513.667	3.98
513.868	4.07
514.069	4.17
514.27	4.17
514.471	4.11
514.672	4.15
514.873	4.16
515.074	4.15
515.275	4.16
515.476	4.24
515.677	4.25
515.878	4.24
516.079	4.22
516.28	4.26
516.481	4.33
516.682	4.35
516.882	4.35
517.083	4.42
517.284	4.34
517.485	4.26
517.686	4.28
517.886	4.26
518.087	4.27
518.288	4.39
518.488	4.42
518.689	4.41
518.89	4.42
519.091	4.33
519.291	4.27
519.492	4.27
519.692	4.34
519.893	4.42
520.094	4.52
520.294	4.55
520.495	4.55
520.695	4.59
520.896	4.6
521.096	4.61
521.297	4.68
521.497	4.76
521.698	4.75
521.898	4.76
522.099	4.73
522.299	4.72
522.499	4.66
522.7	4.66
522.9	4.66
523.101	4.72
523.301	4.77
523.501	4.81
523.702	4.85
523.902	4.92
524.102	4.98
524.302	5.02
524.503	5.08
524.703	5.06
524.903	4.97
525.103	4.95
525.304	4.92
525.504	4.91
525.704	4.96
525.904	5.03
526.104	5.05
526.304	5.05
526.504	5.09
526.705	5.09
526.905	5.15
527.105	5.17
527.305	5.2
527.505	5.16
527.705	5.24
527.905	5.21
528.105	5.2
528.305	5.17
528.505	5.21
528.705	5.23
528.905	5.25
529.105	5.3
529.304	5.4
529.504	5.48
529.704	5.41
529.904	5.44
530.104	5.45
530.304	5.52
530.503	5.45
530.703	5.5
530.903	5.58
531.103	5.63
531.303	5.52
531.502	5.59
531.702	5.67
531.902	5.61
532.101	5.59
532.301	5.65
532.501	5.64
532.7	5.69
532.9	5.71
533.1	5.74
533.299	5.76
533.499	5.82
533.698	5.75
533.898	5.79
534.097	5.82
534.297	5.81
534.496	5.85
534.696	5.91
534.895	5.94
535.095	5.96
535.294	6.04
535.494	5.98
535.693	5.98
535.892	5.99
536.092	5.99
536.291	5.98
536.491	6.05
536.69	6.15
536.889	6.11
537.088	6.11
537.288	6.17
537.487	6.17
537.686	6.12
537.886	6.24
538.085	6.32
538.284	6.3
538.483	6.33
538.682	6.42
538.882	6.4
539.081	6.46
539.28	6.49
539.479	6.53
539.678	6.49
539.877	6.56
540.076	6.54
540.275	6.61
540.474	6.64
540.673	6.74
540.872	6.7
541.071	6.78
541.27	6.74
541.469	6.82
541.668	6.84
541.867	6.9
542.066	6.93
542.265	7.05
542.464	7.06
542.663	7.08
542.862	7.18
543.06	7.17
543.259	7.15
543.458	7.17
543.657	7.25
543.856	7.3
544.054	7.36
544.253	7.38
544.452	7.36
544.651	7.34
544.849	7.34
545.048	7.41
545.247	7.52
545.445	7.65
545.644	7.72
545.843	7.74
546.041	7.75
546.24	7.77
546.438	7.79
546.637	7.88
546.836	8.03
547.034	8.09
547.233	8.19
547.431	8.24
547.63	8.3
547.828	8.23
548.027	8.33
548.225	8.31
548.423	8.41
548.622	8.45
548.82	8.54
549.019	8.57
549.217	8.7
549.415	8.72
549.614	8.8
549.812	8.84
550.01	8.84
550.209	8.89
550.407	8.93
550.605	8.98
550.803	9.08
551.002	9.23
551.2	9.23
551.398	9.32
551.596	9.35
551.794	9.42
551.993	9.49
552.191	9.57
552.389	9.61
552.587	9.7
552.785	9.76
552.983	9.86
553.181	10.01
553.379	10.08
553.577	10.15
553.775	10.28
553.973	10.28
554.171	10.34
554.369	10.44
554.567	10.47
554.765	10.49
554.963	10.6
555.161	10.6
555.359	10.73
555.557	10.87
555.755	11.03
555.952	11.16
556.15	11.27
556.348	11.35
556.546	11.42
556.744	11.43
556.941	11.46
557.139	11.52
557.337	11.61
557.535	11.72
557.732	11.82
557.93	11.97
558.128	12.09
558.325	12.16
558.523	12.21
558.721	12.36
558.918	12.44
559.116	12.55
559.313	12.62
559.511	12.76
559.708	12.78
559.906	12.86
560.104	12.99
560.301	13.17
560.498	13.25
560.696	13.36
560.893	13.39
561.091	13.46
561.288	13.5
561.486	13.53
561.683	13.61
561.88	13.72
562.078	13.76
562.275	13.82
562.473	14.02
562.67	14.16
562.867	14.26
563.064	14.36
563.262	14.46
563.459	14.51
563.656	14.56
563.853	14.7
564.051	14.74
564.248	14.84
564.445	14.93
564.642	14.99
564.839	15
565.036	15.19
565.234	15.35
565.431	15.42
565.628	15.58
565.825	15.66
566.022	15.74
566.219	15.78
566.416	15.8
566.613	15.75
566.81	15.81
567.007	15.83
567.204	15.87
567.401	16
567.598	16.17
567.795	16.22
567.991	16.22
568.188	16.33
568.385	16.32
568.582	16.38
568.779	16.48
568.976	16.62
569.172	16.74
569.369	16.8
569.566	16.83
569.763	16.88
569.96	16.93
570.156	16.91
570.353	16.93
570.55	17
570.746	17.13
570.943	17.11
571.14	17.09
571.336	17.17
571.533	17.22
571.729	17.16
571.926	17.25
572.123	17.34
572.319	17.39
572.516	17.37
572.712	17.39
572.909	17.44
573.105	17.49
573.302	17.57
573.498	17.64
573.695	17.6
573.891	17.61
574.087	17.61
574.284	17.47
574.48	17.41
574.677	17.49
574.873	17.52
575.069	17.62
575.266	17.74
575.462	17.8
575.658	17.86
575.854	17.94
576.051	17.87
576.247	17.82
576.443	17.81
576.639	17.84
576.835	17.72
577.032	17.7
577.228	17.76
577.424	17.76
577.62	17.71
577.816	17.7
578.012	17.72
578.208	17.74
578.404	17.7
578.6	17.79
578.796	17.87
578.993	17.82
579.189	17.76
579.384	17.72
579.58	17.61
579.776	17.62
579.972	17.6
580.168	17.64
580.364	17.65
580.56	17.63
580.756	17.61
580.952	17.53
581.148	17.45
581.343	17.52
581.539	17.51
581.735	17.42
581.931	17.51
582.127	17.53
582.322	17.43
582.518	17.44
582.714	17.42
582.909	17.34
583.105	17.28
583.301	17.24
583.496	17.16
583.692	17.07
583.888	17.02
584.083	16.98
584.279	17
584.474	17.04
584.67	17.12
584.866	17.15
585.061	17.12
585.257	17.1
585.452	17.07
585.648	16.95
585.843	16.95
586.039	16.96
586.234	16.93
586.429	16.87
586.625	16.96
586.82	16.87
587.015	16.84
587.211	16.78
587.406	16.74
587.601	16.7
587.797	16.69
587.992	16.68
588.187	16.69
588.383	16.75
588.578	16.8
588.773	16.85
588.968	16.9
589.163	16.93
589.359	16.76
589.554	16.62
589.749	16.72
589.944	16.7
590.139	16.74
590.334	16.85
590.529	16.93
590.724	16.82
590.919	16.85
591.114	16.81
591.309	16.81
591.504	16.92
591.699	16.9
591.894	16.9
592.089	16.92
592.284	16.93
592.479	16.83
592.674	16.84
592.869	16.84
593.064	16.87
593.259	16.99
593.454	17.02
593.648	17.11
593.843	17.17
594.038	17.18
594.233	17.14
594.428	17.16
594.622	17.14
594.817	17.04
595.012	17.02
595.206	17.04
595.401	17.14
595.596	17.16
595.79	17.36
595.985	17.48
596.18	17.5
596.374	17.53
596.569	17.53
596.763	17.49
596.958	17.45
597.153	17.47
597.347	17.5
597.542	17.69
597.736	17.68
597.931	17.78
598.125	17.91
598.319	17.92
598.514	17.9
598.708	17.98
598.903	17.98
599.097	17.94
599.291	17.95
599.486	17.97
599.68	17.99
599.874	18.11
600.069	18.15
600.263	18.15
600.457	18.15
600.651	18.17
600.846	18.06
601.04	18.07
601.234	18.08
601.428	18.13
601.622	18.17
601.817	18.28
602.011	18.29
602.205	18.44
602.399	18.42
602.593	18.36
602.787	18.26
602.981	18.33
603.175	18.29
603.369	18.24
603.563	18.34
603.757	18.44
603.951	18.41
604.145	18.35
604.339	18.46
604.533	18.38
604.727	18.34
604.921	18.34
605.115	18.26
605.309	18.14
605.502	18.12
605.696	18.06
605.89	17.94
606.084	18
606.278	17.97
606.471	17.92
606.665	17.91
606.859	17.94
607.053	17.84
607.246	17.87
607.44	17.84
607.634	17.74
607.827	17.68
608.021	17.62
608.214	17.5
608.408	17.44
608.602	17.52
608.795	17.45
608.989	17.45
609.182	17.37
609.376	17.39
609.569	17.3
609.763	17.2
609.956	17.09
610.15	17.14
610.343	16.94
610.537	16.81
610.73	16.74
610.923	16.68
611.117	16.55
611.31	16.54
611.504	16.57
611.697	16.57
611.89	16.57
612.083	16.48
612.277	16.46
612.47	16.33
612.663	16.21
612.856	16.09
613.05	16.09
613.243	15.93
613.436	15.88
613.629	15.84
613.822	15.79
614.015	15.78
614.209	15.71
614.402	15.63
614.595	15.64
614.788	15.59
614.981	15.5
615.174	15.48
615.367	15.39
615.56	15.23
615.753	15.1
615.946	15.02
616.139	15.04
616.332	15.04
616.525	15.02
616.718	15.05
616.911	14.96
617.103	14.87
617.296	14.84
617.489	14.84
617.682	14.86
617.875	14.85
618.067	14.81
618.26	14.72
618.453	14.66
618.646	14.64
618.838	14.61
619.031	14.57
619.224	14.58
619.417	14.61
619.609	14.49
619.802	14.42
619.994	14.33
620.187	14.33
620.38	14.22
620.572	14.14
620.765	14.15
620.957	14.1
621.15	14.01
621.342	13.94
621.535	13.98
621.727	13.88
621.92	13.87
622.112	13.83
622.305	13.93
622.497	13.85
622.69	13.8
622.882	13.76
623.074	13.79
623.267	13.73
623.459	13.69
623.651	13.76
623.844	13.82
624.036	13.81
624.228	13.8
624.42	13.86
624.613	13.89
624.805	13.84
624.997	13.79
625.189	13.72
625.381	13.64
625.574	13.59
625.766	13.51
625.958	13.47
626.15	13.44
626.342	13.44
626.534	13.43
626.726	13.38
626.918	13.37
627.11	13.33
627.302	13.25
627.494	13.17
627.686	13.15
627.878	13.08
628.07	12.98
628.262	12.99
628.454	12.9
628.646	12.92
628.838	12.92
629.029	12.87
629.221	12.72
629.413	12.68
629.605	12.58
629.797	12.47
629.989	12.52
630.18	12.52
630.372	12.55
630.564	12.52
630.755	12.47
630.947	12.43
631.139	12.43
631.33	12.31
631.522	12.39
631.714	12.36
631.905	12.28
632.097	12.26
632.289	12.21
632.48	12.09
632.672	12.06
632.863	12
633.055	11.94
633.246	11.96
633.438	11.89
633.629	11.81
633.821	11.76
634.012	11.68
634.203	11.59
634.395	11.51
634.586	11.59
634.777	11.6
634.969	11.6
635.16	11.59
635.351	11.61
635.543	11.53
635.734	11.51
635.925	11.39
636.117	11.47
636.308	11.35
636.499	11.37
636.69	11.26
636.881	11.29
637.073	11.21
637.264	11.24
637.455	11.12
637.646	11.13
637.837	11.11
638.028	10.98
638.219	10.96
638.41	10.95
638.601	10.85
638.792	10.78
638.983	10.72
639.174	10.59
639.365	10.53
639.556	10.48
639.747	10.48
639.938	10.54
640.129	10.51
640.32	10.45
640.511	10.48
640.701	10.42
640.892	10.28
641.083	10.28
641.274	10.31
641.465	10.25
641.655	10.22
641.846	10.21
642.037	10.12
642.228	10.06
642.418	9.99
642.609	9.9
642.8	9.86
642.99	9.84
643.181	9.81
643.372	9.76
643.562	9.77
643.753	9.66
643.943	9.63
644.134	9.55
644.324	9.56
644.515	9.48
644.705	9.52
644.896	9.55
645.086	9.48
645.277	9.44
645.467	9.47
645.658	9.42
645.848	9.3
646.038	9.28
646.229	9.25
646.419	9.14
646.61	9.11
646.8	9.05
646.99	9.07
647.18	9.06
647.371	9.13
647.561	9.04
647.751	9.01
647.941	9.01
648.132	8.98
648.322	8.82
648.512	8.84
648.702	8.85
648.892	8.79
649.082	8.7
649.272	8.63
649.462	8.57
649.653	8.5
649.843	8.46
650.033	8.46
650.223	8.45
650.413	8.49
650.603	8.49
650.793	8.45
650.983	8.37
651.172	8.34
651.362	8.28
651.552	8.23
651.742	8.14
651.932	8.16
652.122	8.21
652.312	8.2
652.502	8.16
652.691	8.12
652.881	8
653.071	7.99
653.261	7.83
653.45	7.76
653.64	7.77
653.83	7.81
654.019	7.72
654.209	7.84
654.399	7.93
654.588	7.85
654.778	7.8
654.968	7.77
655.157	7.72
655.347	7.63
655.536	7.59
655.726	7.55
655.915	7.5
656.105	7.37
656.294	7.2
656.484	7.06
656.673	6.96
656.863	6.93
657.052	6.84
657.241	6.82
657.431	6.78
657.62	6.69
657.809	6.51
657.999	6.41
658.188	6.27
658.377	6.27
658.567	6.22
658.756	6.15
658.945	6
659.134	5.99
659.324	5.88
659.513	5.81
659.702	5.64
659.891	5.66
660.08	5.58
660.269	5.48
660.458	5.41
660.648	5.47
660.837	5.37
661.026	5.22
661.215	5.15
661.404	4.99
661.593	4.99
661.782	4.91
661.971	4.91
662.16	4.88
662.349	4.91
662.538	4.69
662.726	4.72
662.915	4.7
663.104	4.6
663.293	4.56
663.482	4.67
663.671	4.56
663.86	4.44
664.048	4.32
664.237	4.23
664.426	4.06
664.615	4.05
664.803	4.14
664.992	4.2
665.181	4.2
665.369	4.15
665.558	4.11
665.747	3.98
665.935	4.13
666.124	4.18
666.312	4.29
666.501	4.24
666.69	4.2
666.878	4.08
667.067	3.98
667.255	3.95
667.444	4.06
667.632	4.18
667.82	4.24
668.009	4.25
668.197	4.2
668.386	4.15
668.574	4.18
668.762	4.1
668.951	4.07
669.139	4.13
669.327	4.15
669.516	4.02
669.704	4.08
669.892	4.12
670.08	4.19
670.269	4.25
670.457	4.31
670.645	4.31
670.833	4.43
671.021	4.43
671.21	4.35
671.398	4.49
671.586	4.53
671.774	4.46
671.962	4.44
672.15	4.43
672.338	4.35
672.526	4.38
672.714	4.35
672.902	4.4
673.09	4.55
673.278	4.66
673.466	4.6
673.654	4.82
673.842	4.8
674.03	4.9
674.218	4.9
674.405	5.02
674.593	5.04
674.781	5.21
674.969	5.13
675.157	5.24
675.344	5.24
675.532	5.2
675.72	5.16
675.908	5.28
676.095	5.21
676.283	5.34
676.471	5.49
676.658	5.52
676.846	5.51
677.033	5.62
677.221	5.62
677.409	5.6
677.596	5.7
677.784	5.89
677.971	6.01
678.159	6.1
678.346	6.16
678.534	6.16
678.721	6.22
678.909	6.25
679.096	6.24
679.283	6.38
679.471	6.45
679.658	6.47
679.846	6.58
680.033	6.66
680.22	6.7
680.408	6.78
680.595	6.81
680.782	6.69
680.969	6.8
681.157	6.62
681.344	6.67
681.531	6.7
681.718	6.83
681.905	6.86
682.093	6.99
682.28	7.12
682.467	7.26
682.654	7.34
682.841	7.49
683.028	7.75
683.215	8.01
683.402	7.97
683.589	8.12
683.776	8.21
683.963	8.39
684.15	8.38
684.337	8.56
684.524	8.69
684.711	8.66
684.898	8.62
685.085	8.55
685.271	8.78
685.458	8.98
685.645	9.3
685.832	9.67
686.019	9.9
686.205	10.13
686.392	10.17
686.579	10.33
686.766	10.52
686.952	10.92
687.139	11.22
687.326	11.44
687.512	11.72
687.699	11.93
687.886	12.08
688.072	12.21
688.259	12.62
688.445	12.93
688.632	13.06
688.818	13.5
689.005	13.82
689.191	14.24
689.378	14.55
689.564	15.26
689.751	15.54
689.937	16.12
690.124	16.45
690.31	17.05
690.496	17.24
690.683	17.92
690.869	18.38
691.055	18.97
691.242	19.52
691.428	20.03
691.614	20.45
691.8	21.07
691.987	21.55
692.173	22.08
692.359	22.71
692.545	23.28
692.731	23.48
692.918	24.15
693.104	24.46
693.29	25.13
693.476	25.62
693.662	26.47
693.848	27
694.034	27.86
694.22	28.23
694.406	29.09
694.592	29.61
694.778	30.19
694.964	30.63
695.15	31.45
695.336	31.89
695.522	32.65
695.708	33.3
695.894	34
696.08	34.67
696.265	35.24
696.451	35.76
696.637	36.41
696.823	36.97
697.009	37.53
697.194	38.27
697.38	38.89
697.566	39.51
697.751	39.87
697.937	40.5
698.123	41.18
698.308	41.99
698.494	42.46
698.68	43.35
698.865	43.81
699.051	44.31
699.236	44.77
699.422	45.29
699.607	45.74
699.793	46.64
699.978	46.99
700.164	47.39
700.349	48.39
700.535	49.17
700.72	49.45
700.906	50.28
701.091	50.91
701.276	51.23
701.462	51.86
701.647	52.67
701.832	53.07
702.018	53.82
702.203	54.33
702.388	54.81
702.573	55
702.759	55.68
702.944	55.86
703.129	56.4
703.314	56.95
703.499	57.41
703.684	57.95
703.87	58.5
704.055	59.17
704.24	59.37
704.425	59.95
704.61	59.95
704.795	60.11
704.98	59.89
705.165	60.27
705.35	60.71
705.535	61.07
705.72	61.81
705.905	62.58
706.09	63.3
706.275	63.4
706.459	63.87
706.644	63.93
706.829	64.16
707.014	64.1
707.199	64.5
707.384	64.86
707.568	65.43
707.753	66.16
707.938	66.73
708.123	67.26
708.307	67.56
708.492	67.52
708.677	67.08
708.861	67.13
709.046	67.39
709.231	68.03
709.415	68.49
709.6	69.29
709.784	69.19
709.969	69.53
710.153	69.19
710.338	69.49
710.522	69.35
710.707	70.08
710.891	69.86
711.076	70.57
711.26	70.56
711.445	70.98
711.629	71.16
711.813	71.82
711.998	72.2
712.182	72.37
712.366	72.31
712.551	72.38
712.735	72.11
712.919	71.98
713.103	72.34
713.288	72.78
713.472	73.2
713.656	73.54
713.84	73.82
714.024	74.36
714.208	74.7
714.393	74.79
714.577	75.44
714.761	75.22
714.945	75.27
715.129	74.98
715.313	75.2
715.497	74.93
715.681	75.2
715.865	75.43
716.049	75.73
716.233	75.72
716.417	75.86
716.601	76.22
716.785	76.3
716.968	76.67
717.152	77.19
717.336	77.53
717.52	77.48
717.704	77.8
717.888	78.24
718.071	77.82
718.255	77.82
718.439	78.03
718.622	78.17
718.806	77.79
718.99	77.81
719.174	78.37
719.357	78.72
719.541	78.46
719.724	78.94
719.908	79.55
720.092	79.44
720.275	79.75
720.459	80.01
720.642	79.89
720.826	80.21
721.009	80.08
721.193	79.25
721.376	79.2
721.559	79.79
721.743	79.73
721.926	79.76
722.11	80.09
722.293	80.29
722.476	79.39
722.66	79.46
722.843	79.97
723.026	80.02
723.21	79.83
723.393	80.93
723.576	81.22
723.759	80.59
723.942	81.11
724.126	81.61
724.309	81.54
724.492	81.4
724.675	82.35
724.858	82.51
725.041	82.76
725.224	82.72
725.407	82.28
725.59	81.95
725.774	82.05
725.957	81.77
726.14	82.45
726.322	83.21
726.505	83.85
726.688	83.94
726.871	83.86
727.054	83.7
727.237	83.74
727.42	83.57
727.603	84.06
727.786	84.57
727.968	84.77
728.151	84.51
728.334	84.37
728.517	84.34
728.699	84.17
728.882	83.57
729.065	83.97
729.248	84.21
729.43	84.14
729.613	84.76
729.796	84.98
729.978	84.25
730.161	83.92
730.343	84.58
730.526	84.77
730.708	85.17
730.891	86.67
731.073	87.19
731.256	86.83
731.438	86.76
731.621	86.89
731.803	87.23
731.986	87.69
732.168	87.82
732.35	88.06
732.533	88.34
732.715	88.04
732.898	87.64
733.08	87.71
733.262	87.37
733.444	87.05
733.627	86.47
733.809	87.31
733.991	88.08
734.173	88.82
734.355	89.07
734.538	89.77
734.72	89.19
734.902	88.92
735.084	88.64
735.266	88.91
735.448	89.3
735.63	89.17
735.812	89.08
735.994	89.57
736.176	89.53
736.358	89.27
736.54	90.42
736.722	90.56
736.904	90.27
737.086	89.86
737.268	90.76
737.45	90.36
737.632	90.08
737.814	89.68
737.995	90.59
738.177	89.81
738.359	90.04
738.541	90.13
738.723	91.03
738.904	90.82
739.086	91.17
739.268	90.24
739.449	90.05
739.631	90.04
739.813	90.22
739.994	90.38
740.176	91.09
740.358	92.08
740.539	92.79
740.721	92.98
740.902	93.14
741.084	93.61
741.265	92.97
741.447	92.97
741.628	92.74
741.81	91.41
741.991	91.31
742.172	91.94
742.354	91.57
742.535	92.16
742.717	93.55
742.898	92.92
743.079	93.28
743.261	93.05
743.442	91.58
743.623	90.84
743.804	92.23
743.986	92.32
744.167	91.71
744.348	93.56
744.529	94.73
744.71	93.31
744.891	93.26
745.073	93.59
745.254	92.75
745.435	92.13
745.616	91.68
745.797	91.04
745.978	91.58
746.159	92.2
746.34	92.11
746.521	92.67
746.702	93.26
746.883	93.98
747.064	92.29
747.245	92.35
747.426	92.85
747.606	92.23
747.787	91.39
747.968	92.04
748.149	92.58
748.33	93.77
748.51	93.19
748.691	92.27
748.872	93.65
749.053	93.16
749.233	92.01
749.414	92.15
749.595	92.71
749.775	91.8
749.956	90.76
750.137	90.28
750.317	89.97
750.498	90.26
750.678	90.26
750.859	90.61
751.04	91.83
751.22	91.38
751.4	90.57
751.581	91.32
751.761	91.05
751.942	90.02
752.122	92.37
752.303	93.26
752.483	93.13
752.663	94.15
752.844	95.22
753.024	94.29
753.204	94.46
753.385	93.36
753.565	92.51
753.745	92.04
753.925	92.38
754.106	92.26
754.286	92.62
754.466	92.48
754.646	92.74
754.826	92.21
755.006	91.78
755.187	92
755.367	93.4
755.547	92.79
755.727	94
755.907	93.1
756.087	94.02
756.267	92.39
756.447	93.38
756.627	91.54
756.807	93.33
756.987	92.28
757.167	93.68
757.346	91.86
757.526	92.05
757.706	91.46
757.886	90.84
758.066	90.34
758.246	92.04
758.425	92.31
758.605	92.01
758.785	93.12
758.965	93.33
759.144	91.01
759.324	92.15
759.504	92.76
759.683	92.88
759.863	91.65
760.043	93.09
760.222	92
760.402	89.97
760.581	89.21
760.761	89.63
760.94	87.46
761.12	86.25
761.299	88.78
761.479	88.24
761.658	87.83
761.838	89.28
762.017	90.59
762.197	89.19
762.376	89.87
762.555	90.34
762.735	90.64
762.914	90.07
763.093	90.53
763.273	89.5
763.452	91.15
763.631	91.39
763.81	90.39
763.99	89.23
764.169	90.5
764.348	87.85
764.527	88.86
764.706	89.95
764.885	92.44
765.064	91.26
765.243	92.21
765.423	90.16
765.602	91.99
765.781	90.06
765.96	89.18
766.139	89.44
766.318	89.28
766.497	88.17
766.676	88.45
766.854	89.67
767.033	89.27
767.212	88.97
767.391	88.09
767.57	88.08
767.749	89.48
767.928	89.43
768.106	88.83
768.285	88.01
768.464	89.56
768.643	87.82
768.821	89.28
769	91.33
769.179	93.23
769.357	87.99
769.536	87.77
769.715	88.12
769.893	86.8
770.072	85.32
770.25	86.52
770.429	86.38
770.607	84.53
770.786	85.9
770.964	86.13
771.143	88.88
771.321	89.9
771.5	90.34
771.678	88.22
771.857	88.04
772.035	88.42
772.213	87.57
772.392	85.57
772.57	87.19
772.748	86.93
772.927	84.41
773.105	84.37
773.283	88.51
773.461	89.42
773.64	88.55
773.818	88.32
773.996	89.72
774.174	87.26
774.352	86.31
774.531	88.33
774.709	91.16
774.887	88.1
775.065	87.61
775.243	87.21
775.421	87.67
775.599	87.04
775.777	88.94
775.955	88.87
776.133	87.91
776.311	86.15
776.489	83.81
776.667	84.84
776.844	85.42
777.022	85.8
777.2	85.48
777.378	86.52
777.556	86.07
777.734	86.26
777.911	86.42
778.089	85.72
778.267	88.69
778.445	87.52
778.622	85.5
778.8	84.7
778.978	85.39
779.155	82.14
779.333	82.72
779.511	81.64
779.688	82.42
779.866	79.47
780.043	79.76
780.221	78.49
780.398	79.21
780.576	80.32
780.753	82.78
780.931	79.79
781.108	78.86
781.286	82.93
781.463	79.97
781.64	82.15
781.818	86.32
781.995	88.63
782.172	84.65
782.35	88.08
782.527	86
782.704	85.48
782.882	87.84
783.059	88.81
783.236	87.43
783.413	87.44
783.59	85.86
783.768	83.21
783.945	83.25
784.122	82.87
784.299	82.93
784.476	83.36
784.653	83.56
784.83	83.16
785.007	79.82
785.184	80.35
785.361	79.8
785.538	79.4
785.715	78.28
785.892	81.86
786.069	81.36
786.246	81.67
786.423	79.87
786.6	80.5
786.776	80.24
786.953	81.52
787.13	81.41
787.307	83.56
787.484	84.46
787.66	84.94
787.837	80.1
788.014	82.05
788.191	82.22
788.367	81.66
788.544	81.1
788.721	83.17
788.897	80.71
789.074	81.51
789.25	81.96
789.427	83.23
789.603	82.92
789.78	87.36
789.956	76.23
790.133	77.63
790.309	74.92
790.486	75.59
790.662	70.03
790.839	75.06
791.015	73.66
791.192	73.66
791.368	73.91
791.544	73.44
791.721	79.15
791.897	78.51
792.073	77.49
792.249	79.2
792.426	80.56
792.602	79.62
792.778	77.98
792.954	77.86
793.13	73.3
793.307	72.92
793.483	67.78
793.659	69.45
793.835	71.05
794.011	76.06
794.187	73.03
794.363	73.49
794.539	77.04
794.715	75.95
794.891	71.29
795.067	73
795.243	77.68
795.419	71
795.595	71.08
795.771	74.75
795.947	76.61
796.122	70.67
796.298	73.44
796.474	76.28
796.65	75.37
796.826	74.35
797.001	78.84
797.177	75.14
797.353	71.52
797.529	72.75
797.704	75.65
797.88	73.28
798.056	72.15
798.231	75.4
798.407	77.39
798.582	74.31
798.758	76.53
798.934	81.04
799.109	78.36
799.285	77.47
799.46	81.1
799.636	80.34
799.811	82.66
799.986	86.01
800.162	82.88
800.337	80.12
800.513	77.31
800.688	73.25
800.863	72.56
801.039	74.01
801.214	74.4
801.389	78.55
801.565	85.52
801.74	83.2
801.915	81.29
802.09	83.73
802.265	86.63
802.441	81.53
802.616	80.37
802.791	83.73
802.966	80.44
803.141	75.2
803.316	64.01
803.491	67.45
803.666	60.02
803.841	60.43
804.016	61.33
804.191	69.84
804.366	68.97
804.541	74.92
804.716	70.43
804.891	68.69
805.066	68.13
805.241	67.52
805.416	67.02
805.591	71.17
805.765	72.31
805.94	79.5
806.115	75.7
806.29	73.79
806.464	72.71
806.639	71.01
806.814	60.14
806.989	56.1
807.163	62.05
807.338	62.41
807.512	65.9
807.687	68.04
807.862	72.71
808.036	66.54
808.211	63.71
808.385	66.07
808.56	68.37
808.734	72.53
808.909	75.54
809.083	74.24
809.258	71.62
809.432	76.56
809.606	58.03
809.781	61.3
809.955	73.82
810.13	70.97
810.304	65.25
810.478	76.76
810.652	75.32
810.827	75.2
811.001	79.88
811.175	77.5
811.349	76.96
811.524	68.42
811.698	57.26
811.872	53.47
812.046	55.21
812.22	60.94
812.394	64.66
812.568	71.02
812.742	70.84
812.916	65.93
813.09	59.58
813.264	64.83
813.438	57.4
813.612	62.54
813.786	58.91
813.96	64.46
814.134	66.55
814.308	65.6
814.482	61.98
814.656	75.51
814.83	79.32
815.003	69.66
815.177	72.22
815.351	71.57
815.525	76.69
815.698	64.51
815.872	57.21
816.046	55.5
816.219	60.95
816.393	52.96
816.567	53.51
816.74	59.52
816.914	61.64
817.088	53.19
817.261	56.14
817.435	63
817.608	59.79
817.782	59.94
817.955	58.98
818.129	46.58
818.302	44.55
818.475	58.15
818.649	55.01
818.822	53.41
818.996	69.76
819.169	72.54
819.342	59.54
819.516	61.09
819.689	72.69
819.862	68.34
820.035	58.71
820.209	51.78
820.382	57.05
820.555	46.98
820.728	41.2
820.901	45.43
821.075	63.84
821.248	65.83
821.421	66.09
821.594	57.46
821.767	62.43
821.94	66.43
822.113	52.9
822.286	52.82
822.459	72.91
822.632	60.98
822.805	54.24
822.978	63.22
823.151	70.92
823.324	53.52
823.496	48
823.669	47.57
823.842	43.93
824.015	32.32
824.188	34.34
824.361	32.87
824.533	28.36
824.706	37.97
824.879	40.41
825.051	49.4
825.224	59.33
825.397	62.91
825.569	52.19
825.742	54.85
825.915	54.66
826.087	43.96
826.26	34.44
826.432	37.09
826.605	42.85
826.777	41.2
826.95	53.38
827.122	57.81
827.295	59.39
827.467	51.66
827.64	47.33
827.812	45.28
827.984	44.58
828.157	42.6
828.329	40.99
828.501	51.47
828.674	63.82
828.846	71.25
829.018	68.8
829.19	68.48
829.363	57.44
829.535	49.65
829.707	45.26
829.879	38.31
830.051	34.99
830.223	55.65
830.395	40.84
830.568	32.13
830.74	35
830.912	39.01
831.084	16.02
831.256	11.86
831.428	1.9
831.6	5.26
831.772	-3.6
831.943	-2.43
832.115	16.12
832.287	43.56
832.459	45.33
832.631	55.79
832.803	59.93
832.975	63.39
833.146	58.39
833.318	57.3
833.49	51.52
833.662	46.56
833.833	30.85
834.005	23.45
834.177	32.52
834.348	38.68
834.52	26.7
834.692	39.52
834.863	50.4
835.035	34.96
835.206	26.36
835.378	46.66
835.549	41
835.721	31.31
835.892	28.03
836.064	32.05
836.235	37.1
836.407	49.32
836.578	57.17
836.749	74.58
836.921	78
837.092	63.81
837.264	32.26
837.435	13.37
837.606	1.67
837.777	18.2
837.949	18.39
838.12	23.85
838.291	24.66
838.462	33.5
838.633	27.14
838.805	17.69
838.976	28.08
839.147	29.75
839.318	1.09
839.489	-13.9
839.66	-7.72
839.831	19.77
840.002	30.48
840.173	27.05
840.344	19.74
840.515	14.14
840.686	-18.56
840.857	-44.25
841.028	-33.81
841.199	11.96
841.369	25.5
841.54	27.4
841.711	56.55
841.882	49.19
842.053	24.17
842.223	2.12
842.394	20.19
842.565	10.55
842.736	23.89
842.906	26.31
843.077	54.53
843.248	51.49
843.418	51.68
843.589	42.69
843.759	67.84
843.93	63.04
844.101	61.08
844.271	64.98
844.442	65.48
844.612	50.58
844.783	34.47
844.953	24.02
845.123	28.92
845.294	31.51
845.464	21.86
845.635	25.01
845.805	48.03
845.975	42.46
846.146	26.28
846.316	18.61
846.486	29.36
846.656	9.58
846.827	-2.09
846.997	12.26
847.167	36.95
847.337	23.92
847.507	24.95
847.677	21.08
847.848	19.99
848.018	20.05
848.188	18.91
848.358	33.46
848.528	38.67
848.698	43.36
848.868	12.63
849.038	7.5
849.208	1.06
849.378	-6.11
849.548	-31.88
849.718	-1.05
849.887	14.64
850.057	-23.73
850.227	-20.28
850.397	21.08
850.567	33.67
850.737	54.17
850.906	29.93
851.076	1.4
851.246	-3.69
851.415	-4.1
851.585	-0.87
851.755	10.17
851.924	46.24
852.094	33.58
852.264	22.76
852.433	-2.79
852.603	14
852.772	-4.74
852.942	-13.78
853.111	-11.44
853.281	22.54
853.45	22.72
853.62	27.12
853.789	12.34
853.959	34.62
854.128	17.22
854.297	-16.82
854.467	-15.19
854.636	23.36
854.805	13.44
854.975	-10.42
855.144	17.19
855.313	34.18
855.482	30.38
855.652	20.85
855.821	50.83
855.99	76.15
856.159	55.73
856.328	50.28
856.497	47.94
856.667	53.66
856.836	38.29
857.005	32.12
857.174	-23.3
857.343	-54.91
857.512	-54.16
857.681	-87.81
857.85	-58.15
858.019	-31.37
858.188	1.82
858.356	-20.48
858.525	-13.97
858.694	-32.39
858.863	-10.45
859.032	-29.49
859.201	-8.36
859.369	7.56
859.538	19.66
859.707	4.11
859.876	-7.24
860.044	-12.36
860.213	-2.3
860.382	2.56
860.55	15.15
860.719	48.6
860.888	40.61
861.056	37.63
861.225	34.49
861.393	37
861.562	39.49
861.73	46.13
861.899	58.31
862.067	33.16
862.236	32.82
862.404	-8.27
862.572	-35.87
862.741	-37.38
862.909	-23.99
863.078	-35.32
863.246	-32.82
863.414	-18.54
863.582	-44.23
863.751	-38.04
863.919	-32.77
864.087	13.41
864.255	37.56
864.424	24.46
864.592	32.34
864.76	53.65
864.928	55.99
865.096	34.43
865.264	56.44
865.432	57.88
865.6	67.08
865.768	-2.39
865.936	-51.56
866.104	-42.06
866.272	-84.01
866.44	-78.83
866.608	-34.52
866.776	-63.48
866.944	-135.15
867.112	-197.77
867.28	-300.07
867.448	-686.92
867.615	-231.26
867.783	-36.51
867.951	-24.71
868.119	10.58
868.286	-15.46
868.454	-52.8
868.622	-119.21
868.789	-116.76
868.957	-26.06
869.125	-12.18
869.292	23.52
869.46	33.57
869.627	49.85
869.795	9.56
869.963	19.86
870.13	16.87
870.298	24.2
870.465	-6.8
870.632	6.77
870.8	0.05
870.967	9.25
871.135	-17.56
871.302	29.76
871.469	101.27
871.637	75.48
871.804	71.68
871.971	49.13
872.139	27.53
872.306	20.1
872.473	6.88
872.64	-17.64
872.807	13.87
872.975	30.15
873.142	-5.66
873.309	27.12
873.476	40.65
873.643	5.71
873.81	-23.77
873.977	12.99
874.144	6.12
874.311	-7.17
874.478	-16.8
874.645	-26.09
874.812	-211.77
874.979	12676.19
875.146	-240.29
875.313	-56.14
875.48	-27.25
875.647	5.31
875.813	-9.09
875.98	-12.11
876.147	-36.97
876.314	-20.99
876.481	-71.17
876.647	-86.99
876.814	-53.9
876.981	-82.6
877.147	-138.51
877.314	-177.46
877.481	-134.71
877.647	-88.32
877.814	-98.94
877.98	-79.25
878.147	0.57
878.314	38.96
878.48	-31.59
878.647	-0.72
878.813	33.36
878.979	23.23
879.146	10.9
879.312	41.27
879.479	37.89
879.645	49.3
879.811	19.59
879.978	25.64
880.144	37.21
880.31	50.02
880.477	-8.74
880.643	-35.55
880.809	-38.74
880.975	-21.57
881.142	-40.38
881.308	-41.6
881.474	1.24
881.64	3.1
881.806	-37.45
881.972	-7.96
882.138	21.65
882.304	32.82
882.47	18.3
882.636	12.92
882.802	-4.35
882.968	-9.74
883.134	-73.23
883.3	-111.63
883.466	28.34
883.632	41.5
883.798	-7.08
883.964	4.2
884.129	1.99
884.295	-51.05
884.461	-51.91
884.627	-61.88
884.793	-59.66
884.958	-31.73
885.124	-56.83
885.29	-62.74
885.455	-54.84
885.621	-75.42
885.787	-225.72
885.952	-101.91
886.118	-111.83
886.283	-115.57
886.449	-107.64
886.614	-69.49
886.78	-85.68
886.945	-131.35
887.111	-113.55
887.276	-166.53
887.442	-380.77
887.607	-259.64
887.773	-236.06
887.938	-168.92
888.103	-31.31
888.269	27.03
888.434	32.64
888.599	19.93
888.764	32.29
888.93	0.68
889.095	-12.44
889.26	-43.46
889.425	-38.64
889.59	-42.18
889.756	-49.91
889.921	-29.47
890.086	-2.05
890.251	32.19
890.416	-12.51
890.581	19.23
890.746	58.47
890.911	56.16
891.076	2.15
891.241	-5.01
891.406	-51.49
891.571	-37.39
891.736	-57.64
891.901	-62.45
892.065	-46.49
892.23	-25.64
892.395	-76.13
892.56	-116.96
892.725	-64.71
892.889	-31.47
893.054	-104.86
893.219	-90.04
893.384	-58.94
893.548	-86.9
893.713	-120.15
893.878	-75.26
