Data from Ofra_PP_Phys_2CX12O_Reflection_2.txt Node
Date: Sat Jul 24 20:06:52 EDT 2021
User: USUARIO
Spectrometer: FLMT01687
Trigger mode: 0
Integration Time (sec): 1.100000E0
Scans to average: 2
Electric dark correction enabled: true
Nonlinearity correction enabled: false
Boxcar width: 2
XAxis mode: Wavelengths
Number of Pixels in Spectrum: 3648
>>>>>Begin Spectral Data<<<<<
179.494	651.85
179.716	826.32
179.937	1397.59
180.158	1124.8
180.38	521.55
180.601	-511.92
180.823	89.46
181.044	1237.21
181.265	-110.97
181.486	-42.41
181.708	-110.04
181.929	-1648
182.15	-106.02
182.372	-47.82
182.593	46000
182.814	689.23
183.035	221.28
183.257	153.08
183.478	82.16
183.699	118.12
183.92	72.81
184.141	69.63
184.363	40.2
184.584	106.07
184.805	71.75
185.026	76.2
185.247	54.33
185.468	20.89
185.689	5.11
185.91	5.85
186.132	-7.29
186.353	29.56
186.574	62.47
186.795	57.33
187.016	-4
187.237	9.76
187.458	-18.35
187.679	-38.17
187.9	41.4
188.121	90.74
188.342	77.82
188.563	83.06
188.784	78.37
189.005	66.8
189.226	75.26
189.447	67.9
189.667	67.38
189.888	52.31
190.109	26.61
190.33	-5.46
190.551	-18.29
190.772	-33.18
190.993	-57
191.214	-55.6
191.434	-68.15
191.655	-7.01
191.876	-10.36
192.097	-23.06
192.318	-13.09
192.538	-8.77
192.759	-15.69
192.98	-10.79
193.201	25.67
193.421	-5.79
193.642	8.26
193.863	5.25
194.083	2.01
194.304	2.83
194.525	41.41
194.745	54.1
194.966	-7.67
195.187	-21.77
195.407	-49.19
195.628	-96.82
195.848	-91.9
196.069	-82.43
196.29	-62.83
196.51	-108.41
196.731	-105.58
196.951	-66.07
197.172	-29.41
197.392	-18.78
197.613	0.91
197.833	1.18
198.054	-35.52
198.274	-31.56
198.495	-95.79
198.715	-26.88
198.936	-64.6
199.156	-23.88
199.377	-33.32
199.597	-20.65
199.817	-40.22
200.038	21.01
200.258	18.7
200.479	31.11
200.699	43.51
200.919	36.4
201.14	2.99
201.36	-6.04
201.58	-4.16
201.801	-10.4
202.021	-20.22
202.241	0.48
202.461	-17.6
202.682	-23.54
202.902	-4.84
203.122	-8.42
203.342	-1.67
203.563	17.87
203.783	32.07
204.003	-29.81
204.223	-97.37
204.443	-9.04
204.663	-8.63
204.884	7.38
205.104	54.39
205.324	91.18
205.544	69.16
205.764	72.73
205.984	64.62
206.204	73.81
206.424	60.33
206.644	41.93
206.864	13.91
207.084	3.7
207.304	-1.43
207.525	-30.53
207.745	-20.72
207.964	-1.76
208.184	-23.84
208.404	-26.88
208.624	-8.54
208.844	-2.07
209.064	-34.29
209.284	-11.26
209.504	15.49
209.724	26.48
209.944	27.66
210.164	45.86
210.384	55.66
210.604	33.94
210.823	-28.91
211.043	-52.77
211.263	-30.8
211.483	-42.14
211.703	-58.68
211.922	-2.5
212.142	41.95
212.362	28.52
212.582	16.75
212.801	33.73
213.021	10.26
213.241	6
213.461	-17.16
213.68	-41.96
213.9	-47.88
214.12	-47.27
214.339	-68.08
214.559	-44.74
214.779	3.22
214.998	19.91
215.218	11.32
215.438	26.7
215.657	17.58
215.877	15.79
216.096	2.6
216.316	29.43
216.535	23.66
216.755	29.83
216.974	26.65
217.194	32.26
217.413	14.16
217.633	23.62
217.852	-15.92
218.072	-24.78
218.291	-32.23
218.511	-0.2
218.73	-66.91
218.95	-69.04
219.169	-68.11
219.389	-102.05
219.608	-121.38
219.827	-51.24
220.047	-23.23
220.266	-26.22
220.485	1.69
220.705	28.09
220.924	-15.36
221.143	17.95
221.363	-14.28
221.582	5.95
221.801	-3.93
222.021	24.38
222.24	10.14
222.459	43.87
222.678	12.83
222.897	3.24
223.117	-0
223.336	-4.96
223.555	10.09
223.774	33.02
223.993	57.21
224.213	122.4
224.432	104.37
224.651	114.64
224.87	104.73
225.089	109.44
225.308	83.48
225.527	102.38
225.746	95.36
225.965	67.65
226.184	31.84
226.404	50.13
226.623	16.88
226.842	20.27
227.061	57.54
227.28	77.39
227.499	80.06
227.718	113.16
227.936	106.02
228.155	92.85
228.374	53.21
228.593	42.65
228.812	19.22
229.031	28.24
229.25	18.06
229.469	30.5
229.688	35.06
229.907	39.49
230.125	50.64
230.344	61.15
230.563	61.36
230.782	59.34
231.001	15.27
231.22	9.98
231.438	-7.14
231.657	7.38
231.876	2.46
232.095	39.16
232.313	32.57
232.532	39.32
232.751	44.3
232.969	45.75
233.188	41.35
233.407	42.88
233.625	22.38
233.844	5.69
234.063	9.83
234.281	36.43
234.5	34.67
234.719	54.28
234.937	44.9
235.156	46.85
235.374	38.96
235.593	53.95
235.811	52.96
236.03	71.67
236.249	55.44
236.467	62.47
236.686	36.23
236.904	37.76
237.123	-8.15
237.341	-3.82
237.559	-24.27
237.778	-15.39
237.996	-35.89
238.215	11.02
238.433	12.07
238.652	41.06
238.87	6.21
239.088	27.17
239.307	10.14
239.525	3.92
239.743	-48.09
239.962	-21.04
240.18	-47.77
240.398	-76.7
240.617	-86.9
240.835	-34.92
241.053	-59.7
241.271	-3.94
241.49	16.72
241.708	20.25
241.926	18.53
242.144	37.79
242.363	6.49
242.581	3.58
242.799	8.88
243.017	-2.47
243.235	-35.76
243.453	-6.65
243.672	-33.15
243.89	-9.22
244.108	-0
244.326	22.47
244.544	21.38
244.762	18.92
244.98	19.87
245.198	34.55
245.416	19.52
245.634	18.26
245.852	34.56
246.07	30.11
246.288	20.37
246.506	12.96
246.724	26.32
246.942	27.23
247.16	37.37
247.378	39.26
247.596	58.77
247.814	45.93
248.032	15.47
248.25	-0.59
248.468	-2.95
248.685	6.24
248.903	22.39
249.121	35.68
249.339	23.71
249.557	34.12
249.775	17.53
249.992	-65.02
250.21	-85
250.428	-51.96
250.646	-64.91
250.863	-52.68
251.081	-22.44
251.299	16.28
251.517	18.43
251.734	11.97
251.952	7.09
252.17	16.05
252.387	15.92
252.605	-10.08
252.823	6.66
253.04	27.02
253.258	38.85
253.475	26
253.693	62.04
253.911	76.25
254.128	59.62
254.346	54.39
254.563	41.03
254.781	14.17
254.998	3.48
255.216	0.25
255.433	4.38
255.651	29.75
255.868	48.16
256.086	59.69
256.303	57.71
256.521	66.04
256.738	48.42
256.956	23.03
257.173	19.73
257.39	10.48
257.608	-2.05
257.825	8.68
258.043	26.95
258.26	23
258.477	27.88
258.695	27.47
258.912	-13.23
259.129	-19.96
259.346	-48.46
259.564	-55.12
259.781	-26.96
259.998	-9.61
260.216	16.12
260.433	31.67
260.65	26.15
260.867	23.1
261.084	13.28
261.302	8.36
261.519	32.53
261.736	12
261.953	-0.63
262.17	18.57
262.387	8.05
262.604	-12.78
262.822	-12.73
263.039	-15.23
263.256	-26.25
263.473	-23.56
263.69	-50.67
263.907	-3.35
264.124	11.33
264.341	33.26
264.558	28.66
264.775	49.54
264.992	48.58
265.209	41.45
265.426	24.85
265.643	16.05
265.86	5.77
266.077	11.46
266.294	0.16
266.51	14.68
266.727	8.44
266.944	30.04
267.161	13.51
267.378	10.52
267.595	1.09
267.812	-32.79
268.028	-42.42
268.245	-25.89
268.462	-18.28
268.679	-10.17
268.896	42.12
269.112	28.09
269.329	18.57
269.546	31.08
269.763	32.83
269.979	20.02
270.196	19.19
270.413	6.54
270.629	-9.7
270.846	-12.75
271.063	10.14
271.279	-8.97
271.496	-23.87
271.712	-19.88
271.929	-22.21
272.146	-29.24
272.362	-11.25
272.579	37.48
272.795	45.39
273.012	49.26
273.228	38.07
273.445	24.08
273.661	-22.06
273.878	-94.01
274.094	-73.24
274.311	-82.17
274.527	-59.97
274.744	-29.7
274.96	25.54
275.177	27.13
275.393	32.84
275.609	56.53
275.826	60.98
276.042	68.43
276.259	68.61
276.475	52.52
276.691	30.09
276.908	6.36
277.124	31.06
277.34	22.73
277.557	25.84
277.773	35.81
277.989	32.76
278.205	8.87
278.422	-2.32
278.638	15.58
278.854	20.21
279.07	27.46
279.286	3.9
279.503	-0.14
279.719	-1.2
279.935	-13.3
280.151	-18.43
280.367	18.83
280.583	32.66
280.799	24.93
281.016	30.19
281.232	45.62
281.448	42.3
281.664	44.14
281.88	39.32
282.096	35.28
282.312	34.11
282.528	29.76
282.744	38.53
282.96	42.21
283.176	40.56
283.392	29.62
283.608	44.14
283.824	36.06
284.04	30.44
284.256	50.92
284.471	54.66
284.687	37.63
284.903	38.16
285.119	63.89
285.335	28.64
285.551	35.59
285.767	31.93
285.982	22.03
286.198	-9.72
286.414	8.7
286.63	8.89
286.846	30.09
287.061	5.8
287.277	24.92
287.493	25.73
287.709	29.23
287.924	22.35
288.14	61.62
288.356	61.91
288.571	71.54
288.787	59.51
289.003	58.52
289.218	40.8
289.434	10.94
289.65	35.1
289.865	35.3
290.081	31.47
290.296	28.93
290.512	27.11
290.727	19.79
290.943	9.74
291.159	-0.56
291.374	5.37
291.59	-14.41
291.805	-31.03
292.021	-12.17
292.236	-9.36
292.451	-15.27
292.667	8.07
292.882	18.28
293.098	26.91
293.313	22.23
293.529	16.46
293.744	-15.19
293.959	-41.35
294.175	-50.86
294.39	-23.89
294.605	-0.43
294.821	29.1
295.036	18.48
295.251	36.46
295.467	22.01
295.682	22.63
295.897	3.14
296.112	7.54
296.328	3.16
296.543	1.98
296.758	-4.47
296.973	36.48
297.188	65.82
297.404	31.81
297.619	39.65
297.834	32.69
298.049	22.34
298.264	7
298.479	38.77
298.694	34.83
298.909	34.67
299.125	40.94
299.34	55.63
299.555	39.16
299.77	53.23
299.985	16.81
300.2	-16.52
300.415	-53.98
300.63	-26.35
300.845	-45.36
301.06	-40.9
301.275	-33.77
301.49	-17.31
301.704	-23.66
301.919	-26.38
302.134	-10.02
302.349	27.64
302.564	1.71
302.779	14.11
302.994	47.8
303.209	43.02
303.423	33.65
303.638	67.29
303.853	46.03
304.068	15.26
304.283	25.81
304.497	11.94
304.712	19.08
304.927	16.17
305.142	11.45
305.356	16.21
305.571	23.67
305.786	15.46
306	14.05
306.215	40.18
306.43	18.51
306.644	35.86
306.859	37.19
307.074	26.99
307.288	-3.47
307.503	12.52
307.717	-20.6
307.932	-26.06
308.147	-28.97
308.361	-5.1
308.576	-19.63
308.79	-39.26
309.005	-6.5
309.219	2.65
309.434	8.66
309.648	-6.53
309.863	18.53
310.077	-6.6
310.292	-6.69
310.506	-12.87
310.72	17.86
310.935	23.38
311.149	28.73
311.364	37.99
311.578	49.98
311.792	34.67
312.007	42.16
312.221	14.19
312.435	17.46
312.649	-21.2
312.864	26.41
313.078	16.5
313.292	58.21
313.507	55.98
313.721	61.63
313.935	46.57
314.149	61.05
314.363	54.5
314.578	29.96
314.792	24.29
315.006	29.29
315.22	11.89
315.434	2.86
315.648	25.53
315.862	13.64
316.077	18.51
316.291	30.67
316.505	40.25
316.719	28.06
316.933	-3.94
317.147	-6.16
317.361	-27.73
317.575	-19.73
317.789	-28.11
318.003	0.76
318.217	12.46
318.431	32.72
318.645	41.96
318.859	37.81
319.073	62.72
319.287	42.07
319.5	15.21
319.714	-28.81
319.928	-27.51
320.142	-62.32
320.356	-5.15
320.57	24.22
320.784	33.02
320.997	48.81
321.211	49.78
321.425	3.17
321.639	-40.56
321.853	-6.74
322.066	-15.6
322.28	-17.69
322.494	-1.25
322.707	54.21
322.921	21.01
323.135	13.57
323.349	15.5
323.562	5.8
323.776	-15.88
323.989	-4.32
324.203	-9.38
324.417	2.27
324.63	-21.66
324.844	-42.78
325.057	-44.84
325.271	-45.59
325.485	-47.52
325.698	9.18
325.912	37.8
326.125	35.2
326.339	50.55
326.552	47.39
326.766	40.3
326.979	40.76
327.193	61.28
327.406	49.85
327.619	61.73
327.833	65.47
328.046	53.52
328.26	36.65
328.473	35.31
328.686	6.53
328.9	9.63
329.113	11.37
329.326	-2.85
329.54	3.86
329.753	23.65
329.966	9.56
330.179	30.35
330.393	42.97
330.606	31.41
330.819	45.02
331.032	45.01
331.246	43.25
331.459	57.41
331.672	48.2
331.885	26.66
332.098	22.98
332.311	24.72
332.525	3.16
332.738	21.95
332.951	32.28
333.164	31.23
333.377	34.32
333.59	54.89
333.803	35.86
334.016	27.94
334.229	19.69
334.442	30.22
334.655	39.29
334.868	46.39
335.081	50.05
335.294	57.88
335.507	60.28
335.72	44.25
335.933	34.61
336.146	24.28
336.359	31.74
336.572	-1.5
336.785	-7.15
336.997	-4.06
337.21	15.13
337.423	9.84
337.636	20.32
337.849	23.92
338.062	27.5
338.274	48.95
338.487	33.76
338.7	33.07
338.913	24.2
339.125	9.37
339.338	-6.11
339.551	-0
339.763	28.74
339.976	39.05
340.189	44.4
340.402	48.68
340.614	42.04
340.827	20.11
341.039	1.08
341.252	-5.89
341.465	-25.26
341.677	-30.61
341.89	-65.92
342.102	-38.98
342.315	-26.64
342.527	-22.59
342.74	-11.87
342.952	31.26
343.165	21.98
343.377	40.27
343.59	32.51
343.802	57.55
344.015	63.81
344.227	83.17
344.44	60.06
344.652	57.67
344.864	36.94
345.077	36.1
345.289	21.87
345.502	35.55
345.714	28.46
345.926	27.77
346.139	9.98
346.351	16.07
346.563	9.14
346.775	32.46
346.988	24.87
347.2	29.23
347.412	7.14
347.624	4.57
347.837	-8.4
348.049	2.89
348.261	35.94
348.473	42.13
348.685	14.36
348.897	4.46
349.11	10.01
349.322	-20.19
349.534	1.86
349.746	27.01
349.958	39.34
350.17	31.68
350.382	42.94
350.594	29.61
350.806	29.29
351.018	22.14
351.23	23.26
351.442	16.54
351.654	24.16
351.866	25.09
352.078	17.23
352.29	15.35
352.502	34.1
352.714	51.37
352.926	31.08
353.138	32.53
353.35	14.66
353.561	-0.12
353.773	-23.69
353.985	-3.89
354.197	-3.16
354.409	15.48
354.621	17.64
354.832	33.39
355.044	20.66
355.256	15.44
355.468	14.47
355.679	6.14
355.891	1.36
356.103	5.03
356.314	13.67
356.526	22.76
356.738	40.98
356.949	35.72
357.161	32.57
357.373	35.07
357.584	16.8
357.796	10.27
358.008	-5.57
358.219	18.25
358.431	18.56
358.642	36.03
358.854	43.67
359.065	58.15
359.277	40.93
359.488	34.12
359.7	22.09
359.911	8.97
360.123	8.59
360.334	3.27
360.546	-5.48
360.757	-7.16
360.969	-10.8
361.18	-3.16
361.391	-9.61
361.603	-12.89
361.814	0.14
362.025	-5.82
362.237	-8.52
362.448	17.2
362.659	30.92
362.871	33.71
363.082	51.63
363.293	54.54
363.504	46.92
363.716	36.04
363.927	30.06
364.138	11.19
364.349	-6.16
364.56	-8.97
364.772	-27.9
364.983	-13.76
365.194	-14.1
365.405	-0.12
365.616	5.31
365.827	15.11
366.038	9.59
366.25	27.48
366.461	7.48
366.672	11.67
366.883	29.77
367.094	17.48
367.305	-3.51
367.516	16.36
367.727	8.83
367.938	-4.82
368.149	-10.94
368.36	3.4
368.571	2.63
368.781	-1.2
368.992	-10.02
369.203	15.91
369.414	6.36
369.625	-4.64
369.836	-3.68
370.047	-1.34
370.258	-20.2
370.468	-19.67
370.679	-49.99
370.89	-38.88
371.101	-18.98
371.312	-32.33
371.522	-31.58
371.733	-4.62
371.944	-1.69
372.155	10.11
372.365	0.56
372.576	10.85
372.787	6.03
372.997	-0
373.208	-3.89
373.419	19.86
373.629	0.1
373.84	6.75
374.05	-17.95
374.261	-0.22
374.472	-18.38
374.682	4.15
374.893	-11.4
375.103	26.92
375.314	0.34
375.524	5.96
375.735	18.9
375.945	34.21
376.156	7.83
376.366	17.1
376.577	20.05
376.787	6.61
376.997	17.43
377.208	31.91
377.418	13.67
377.629	23.46
377.839	19.24
378.049	9.33
378.26	13.37
378.47	34.87
378.68	28.75
378.89	30.95
379.101	28.79
379.311	18.17
379.521	-2.81
379.732	5.19
379.942	-11
380.152	-9.65
380.362	-1.03
380.572	3.61
380.783	11.29
380.993	25.48
381.203	37.26
381.413	39.76
381.623	41.86
381.833	40.86
382.043	30.56
382.253	21.91
382.463	19.21
382.674	21.2
382.884	4.86
383.094	10.81
383.304	10.78
383.514	13.12
383.724	19.37
383.934	14.74
384.144	7.7
384.353	7.19
384.563	3.52
384.773	0.82
384.983	9.84
385.193	14.66
385.403	7.9
385.613	9.64
385.823	7.47
386.033	15.4
386.242	11.52
386.452	14.16
386.662	8.83
386.872	12.08
387.082	10.45
387.291	0.15
387.501	7.24
387.711	11.4
387.921	-2.25
388.13	0.73
388.34	16.21
388.55	11.04
388.759	13.43
388.969	25.02
389.179	18.36
389.388	14.13
389.598	14.4
389.807	10.1
390.017	8.42
390.227	10.05
390.436	5.73
390.646	9.17
390.855	12.74
391.065	13.64
391.274	9.71
391.484	9.14
391.693	7.38
391.903	7.06
392.112	6.97
392.322	10.47
392.531	15.16
392.74	15.43
392.95	10.5
393.159	9.36
393.369	10.97
393.578	7.74
393.787	6.85
393.997	11.11
394.206	10.18
394.415	10.63
394.625	11.34
394.834	9.63
395.043	7.58
395.252	9.28
395.462	8.8
395.671	10.22
395.88	12.91
396.089	14.8
396.298	13.77
396.508	13.11
396.717	12.81
396.926	11.76
397.135	11.12
397.344	11.4
397.553	11.59
397.762	11.71
397.971	11.18
398.181	10.76
398.39	9.21
398.599	9.03
398.808	8.46
399.017	9.1
399.226	9.41
399.435	10.49
399.644	10.23
399.853	10.02
400.062	9.74
400.27	9.63
400.479	9.64
400.688	9.38
400.897	9.77
401.106	9.76
401.315	9.25
401.524	8.98
401.733	9.43
401.941	9.57
402.15	9.31
402.359	9.41
402.568	9.5
402.777	9.27
402.985	8.96
403.194	9.07
403.403	9.12
403.612	9
403.82	8.92
404.029	9.12
404.238	8.79
404.446	8.99
404.655	8.83
404.864	8.8
405.072	8.51
405.281	8.81
405.489	8.48
405.698	8.36
405.906	8.35
406.115	8.22
406.324	8
406.532	8.01
406.741	8.28
406.949	8.15
407.158	8.23
407.366	8.37
407.574	8.46
407.783	8.26
407.991	8.28
408.2	8.3
408.408	8.15
408.617	8.06
408.825	8.03
409.033	8.04
409.242	8.18
409.45	8.13
409.658	8
409.867	8.06
410.075	7.99
410.283	7.7
410.491	7.73
410.7	7.66
410.908	7.71
411.116	7.84
411.324	7.84
411.533	7.83
411.741	8
411.949	7.94
412.157	7.71
412.365	7.87
412.573	7.79
412.781	7.79
412.99	7.71
413.198	7.91
413.406	7.82
413.614	7.97
413.822	7.89
414.03	7.89
414.238	7.65
414.446	7.66
414.654	7.34
414.862	7.4
415.07	7.47
415.278	7.64
415.486	7.25
415.694	7.53
415.902	7.48
416.109	7.31
416.317	7.32
416.525	7.24
416.733	7.25
416.941	7.35
417.149	7.31
417.357	7.28
417.564	7.73
417.772	7.57
417.98	7.41
418.188	7.42
418.395	7.22
418.603	7.24
418.811	7.16
419.019	7.06
419.226	7.27
419.434	7.45
419.642	7.22
419.849	7.27
420.057	7.47
420.265	7.36
420.472	7.17
420.68	7.32
420.887	7.17
421.095	7.1
421.302	6.97
421.51	7.17
421.717	7.07
421.925	7.09
422.132	7.02
422.34	7.02
422.547	6.89
422.755	6.87
422.962	6.94
423.17	6.88
423.377	6.99
423.585	7.18
423.792	7.15
423.999	7.25
424.207	7.17
424.414	7.13
424.621	6.98
424.829	6.96
425.036	6.83
425.243	6.92
425.451	6.85
425.658	6.67
425.865	6.63
426.072	6.68
426.28	6.6
426.487	6.49
426.694	6.66
426.901	6.77
427.108	6.75
427.315	6.82
427.523	7.08
427.73	7.03
427.937	6.78
428.144	6.65
428.351	6.63
428.558	6.62
428.765	6.54
428.972	6.64
429.179	6.77
429.386	6.82
429.593	6.59
429.8	6.54
430.007	6.84
430.214	6.88
430.421	6.82
430.628	6.81
430.835	6.81
431.042	6.71
431.249	6.65
431.456	6.91
431.662	7.19
431.869	7.28
432.076	7.17
432.283	7.11
432.49	6.84
432.697	6.77
432.903	6.52
433.11	6.59
433.317	6.81
433.524	6.99
433.73	6.82
433.937	7.15
434.144	7.04
434.35	6.93
434.557	6.82
434.764	6.81
434.97	6.81
435.177	6.94
435.384	6.7
435.59	6.82
435.797	6.93
436.003	6.87
436.21	6.74
436.416	6.89
436.623	6.72
436.829	6.72
437.036	6.71
437.242	6.76
437.449	6.78
437.655	6.81
437.862	6.79
438.068	6.88
438.275	6.92
438.481	7.02
438.687	6.98
438.894	6.93
439.1	6.82
439.307	6.94
439.513	6.83
439.719	6.88
439.926	6.87
440.132	6.92
440.338	6.71
440.544	6.78
440.751	6.73
440.957	6.89
441.163	6.69
441.369	6.75
441.575	6.63
441.782	6.54
441.988	6.34
442.194	6.42
442.4	6.45
442.606	6.63
442.812	6.8
443.018	6.91
443.224	7.06
443.431	7.11
443.637	7.08
443.843	6.89
444.049	6.85
444.255	6.85
444.461	6.78
444.667	6.63
444.873	6.74
445.079	6.85
445.284	6.78
445.49	6.7
445.696	6.53
445.902	6.5
446.108	6.36
446.314	6.22
446.52	6.38
446.726	6.78
446.931	6.74
447.137	6.87
447.343	7.09
447.549	6.88
447.755	6.72
447.96	6.82
448.166	6.73
448.372	6.77
448.578	6.81
448.783	6.76
448.989	6.86
449.195	6.97
449.4	6.8
449.606	6.84
449.812	6.81
450.017	6.75
450.223	6.68
450.428	6.6
450.634	6.69
450.84	6.86
451.045	6.76
451.251	6.71
451.456	6.89
451.662	6.97
451.867	6.94
452.073	6.93
452.278	6.95
452.483	7
452.689	6.97
452.894	6.97
453.1	7.09
453.305	6.96
453.51	6.88
453.716	6.75
453.921	6.78
454.127	6.78
454.332	6.74
454.537	6.65
454.742	6.75
454.948	6.76
455.153	6.67
455.358	6.86
455.563	6.97
455.769	6.9
455.974	6.77
456.179	6.67
456.384	6.58
456.589	6.58
456.795	6.4
457	6.47
457.205	6.55
457.41	6.44
457.615	6.4
457.82	6.62
458.025	6.72
458.23	6.65
458.435	6.89
458.64	6.7
458.845	6.75
459.05	6.58
459.255	6.57
459.46	6.39
459.665	6.53
459.87	6.47
460.075	6.38
460.28	6.47
460.485	6.64
460.69	6.67
460.895	6.45
461.099	6.46
461.304	6.64
461.509	6.71
461.714	6.58
461.919	6.81
462.123	6.87
462.328	6.78
462.533	6.53
462.738	6.63
462.942	6.49
463.147	6.54
463.352	6.51
463.556	6.49
463.761	6.5
463.966	6.6
464.17	6.63
464.375	6.53
464.58	6.6
464.784	6.57
464.989	6.44
465.193	6.39
465.398	6.44
465.602	6.64
465.807	6.53
466.011	6.65
466.216	6.72
466.42	6.78
466.625	6.67
466.829	6.87
467.034	6.9
467.238	6.97
467.443	6.88
467.647	6.77
467.851	6.68
468.056	6.64
468.26	6.55
468.464	6.57
468.669	6.71
468.873	6.81
469.077	6.87
469.282	6.81
469.486	6.96
469.69	7.02
469.894	6.94
470.099	6.99
470.303	7.1
470.507	6.93
470.711	6.79
470.915	6.71
471.119	6.66
471.324	6.59
471.528	6.53
471.732	6.64
471.936	6.72
472.14	6.86
472.344	6.88
472.548	7.07
472.752	7.07
472.956	7.17
473.16	7.01
473.364	6.99
473.568	6.95
473.772	6.87
473.976	6.92
474.18	6.85
474.384	6.79
474.588	6.66
474.792	6.64
474.995	6.59
475.199	6.73
475.403	6.88
475.607	6.9
475.811	6.93
476.015	6.92
476.218	6.87
476.422	6.81
476.626	6.93
476.83	7.15
477.033	7.01
477.237	6.94
477.441	6.94
477.644	6.83
477.848	6.59
478.052	6.48
478.255	6.47
478.459	6.52
478.663	6.74
478.866	6.88
479.07	7.01
479.273	7.25
479.477	7.33
479.681	7.22
479.884	7.17
480.088	7.12
480.291	6.98
480.495	6.83
480.698	6.82
480.901	6.88
481.105	7.11
481.308	7.08
481.512	7.06
481.715	7.12
481.919	7.17
482.122	6.98
482.325	7.08
482.529	7.21
482.732	7.13
482.935	6.95
483.138	6.95
483.342	6.93
483.545	7
483.748	7.09
483.952	7.27
484.155	7.46
484.358	7.51
484.561	7.4
484.764	7.49
484.967	7.45
485.171	7.43
485.374	7.27
485.577	7.31
485.78	7.23
485.983	7.27
486.186	7.13
486.389	7.16
486.592	7.14
486.795	7.17
486.998	7.13
487.201	7.18
487.404	7.32
487.607	7.47
487.81	7.5
488.013	7.56
488.216	7.64
488.419	7.7
488.622	7.53
488.825	7.46
489.028	7.44
489.231	7.33
489.433	7.2
489.636	7.22
489.839	7.13
490.042	7.04
490.245	7.04
490.447	7.11
490.65	7.16
490.853	7.36
491.056	7.49
491.258	7.54
491.461	7.57
491.664	7.64
491.866	7.47
492.069	7.47
492.272	7.55
492.474	7.63
492.677	7.62
492.879	7.83
493.082	7.96
493.285	8.07
493.487	7.93
493.69	7.87
493.892	7.76
494.095	7.74
494.297	7.64
494.5	7.83
494.702	7.92
494.905	8.05
495.107	8.09
495.309	8.19
495.512	8.12
495.714	8.21
495.917	8.28
496.119	8.3
496.321	8.41
496.524	8.56
496.726	8.61
496.928	8.63
497.13	8.62
497.333	8.57
497.535	8.6
497.737	8.5
497.939	8.46
498.142	8.62
498.344	8.57
498.546	8.53
498.748	8.68
498.95	8.75
499.152	8.56
499.355	8.68
499.557	8.74
499.759	8.75
499.961	8.83
500.163	9.01
500.365	9.09
500.567	9.08
500.769	9.05
500.971	9.08
501.173	8.97
501.375	9.03
501.577	9
501.779	9.12
501.981	9.1
502.183	9.21
502.385	9.2
502.587	9.26
502.788	9.35
502.99	9.41
503.192	9.44
503.394	9.36
503.596	9.4
503.798	9.46
503.999	9.53
504.201	9.6
504.403	9.71
504.605	9.8
504.806	9.68
505.008	9.6
505.21	9.7
505.411	9.72
505.613	9.65
505.815	9.75
506.016	9.91
506.218	9.89
506.42	9.86
506.621	9.9
506.823	9.91
507.024	9.91
507.226	9.87
507.427	9.87
507.629	9.98
507.83	9.99
508.032	9.86
508.233	10.01
508.435	10.11
508.636	10.11
508.838	10.04
509.039	10.15
509.24	10.11
509.442	10.18
509.643	10.16
509.845	10.32
510.046	10.39
510.247	10.36
510.448	10.36
510.65	10.45
510.851	10.5
511.052	10.51
511.254	10.49
511.455	10.52
511.656	10.59
511.857	10.54
512.058	10.55
512.26	10.65
512.461	10.68
512.662	10.71
512.863	10.62
513.064	10.59
513.265	10.69
513.466	10.71
513.667	10.59
513.868	10.77
514.069	10.97
514.27	11.01
514.471	10.98
514.672	11.13
514.873	11.15
515.074	11.14
515.275	11.03
515.476	11.09
515.677	11.1
515.878	11.19
516.079	11.08
516.28	11.19
516.481	11.35
516.682	11.37
516.882	11.3
517.083	11.44
517.284	11.4
517.485	11.31
517.686	11.3
517.886	11.27
518.087	11.27
518.288	11.38
518.488	11.32
518.689	11.36
518.89	11.41
519.091	11.37
519.291	11.34
519.492	11.42
519.692	11.47
519.893	11.64
520.094	11.68
520.294	11.68
520.495	11.7
520.695	11.74
520.896	11.67
521.096	11.72
521.297	11.8
521.497	11.88
521.698	11.86
521.898	11.8
522.099	11.8
522.299	11.83
522.499	11.78
522.7	11.82
522.9	11.85
523.101	11.94
523.301	11.92
523.501	11.93
523.702	11.91
523.902	12.02
524.102	12.07
524.302	12.12
524.503	12.23
524.703	12.29
524.903	12.29
525.103	12.21
525.304	12.18
525.504	12.21
525.704	12.28
525.904	12.24
526.104	12.26
526.304	12.31
526.504	12.29
526.705	12.22
526.905	12.32
527.105	12.38
527.305	12.35
527.505	12.36
527.705	12.39
527.905	12.42
528.105	12.38
528.305	12.4
528.505	12.42
528.705	12.5
528.905	12.44
529.105	12.47
529.304	12.57
529.504	12.69
529.704	12.66
529.904	12.71
530.104	12.77
530.304	12.8
530.503	12.75
530.703	12.72
530.903	12.74
531.103	12.82
531.303	12.74
531.502	12.77
531.702	12.87
531.902	12.9
532.101	12.83
532.301	12.86
532.501	12.85
532.7	12.96
532.9	12.96
533.1	13.05
533.299	13.12
533.499	13.18
533.698	13.04
533.898	13.09
534.097	13.08
534.297	13.07
534.496	13.11
534.696	13.16
534.895	13.26
535.095	13.34
535.294	13.38
535.494	13.27
535.693	13.33
535.892	13.39
536.092	13.3
536.291	13.37
536.491	13.47
536.69	13.57
536.889	13.43
537.088	13.46
537.288	13.54
537.487	13.65
537.686	13.57
537.886	13.69
538.085	13.76
538.284	13.78
538.483	13.72
538.682	13.87
538.882	13.88
539.081	13.95
539.28	13.85
539.479	13.9
539.678	13.83
539.877	13.94
540.076	13.96
540.275	14.16
540.474	14.24
540.673	14.35
540.872	14.33
541.071	14.36
541.27	14.28
541.469	14.39
541.668	14.37
541.867	14.4
542.066	14.45
542.265	14.57
542.464	14.51
542.663	14.61
542.862	14.8
543.06	14.88
543.259	14.96
543.458	15.06
543.657	15.05
543.856	15.03
544.054	15.02
544.253	14.95
544.452	14.94
544.651	15.01
544.849	14.91
545.048	15.04
545.247	15.11
545.445	15.23
545.644	15.27
545.843	15.37
546.041	15.36
546.24	15.45
546.438	15.46
546.637	15.51
546.836	15.65
547.034	15.73
547.233	15.79
547.431	15.87
547.63	15.97
547.828	15.94
548.027	16.07
548.225	16.05
548.423	16.15
548.622	16.2
548.82	16.24
549.019	16.26
549.217	16.46
549.415	16.53
549.614	16.56
549.812	16.6
550.01	16.57
550.209	16.59
550.407	16.66
550.605	16.79
550.803	16.91
551.002	17.01
551.2	17
551.398	17.11
551.596	17.22
551.794	17.35
551.993	17.58
552.191	17.68
552.389	17.71
552.587	17.7
552.785	17.77
552.983	17.87
553.181	18.02
553.379	18.12
553.577	18.19
553.775	18.29
553.973	18.27
554.171	18.37
554.369	18.35
554.567	18.45
554.765	18.53
554.963	18.63
555.161	18.65
555.359	18.8
555.557	18.94
555.755	19
555.952	19.15
556.15	19.29
556.348	19.43
556.546	19.52
556.744	19.65
556.941	19.71
557.139	19.72
557.337	19.79
557.535	19.92
557.732	20.02
557.93	20.16
558.128	20.3
558.325	20.47
558.523	20.52
558.721	20.62
558.918	20.6
559.116	20.71
559.313	20.69
559.511	20.85
559.708	20.9
559.906	21.15
560.104	21.24
560.301	21.47
560.498	21.54
560.696	21.66
560.893	21.72
561.091	21.82
561.288	21.92
561.486	22.06
561.683	22.14
561.88	22.2
562.078	22.32
562.275	22.31
562.473	22.41
562.67	22.69
562.867	22.81
563.064	22.98
563.262	23.12
563.459	23.32
563.656	23.34
563.853	23.46
564.051	23.4
564.248	23.5
564.445	23.47
564.642	23.54
564.839	23.59
565.036	23.9
565.234	24.06
565.431	24.21
565.628	24.27
565.825	24.46
566.022	24.48
566.219	24.54
566.416	24.53
566.613	24.59
566.81	24.64
567.007	24.64
567.204	24.61
567.401	24.68
567.598	24.7
567.795	24.64
567.991	24.76
568.188	24.96
568.385	25.01
568.582	25.23
568.779	25.43
568.976	25.62
569.172	25.72
569.369	25.84
569.566	25.87
569.763	25.96
569.96	25.99
570.156	26
570.353	25.96
570.55	26.03
570.746	26.1
570.943	25.99
571.14	25.96
571.336	26.14
571.533	26.2
571.729	26.21
571.926	26.24
572.123	26.31
572.319	26.32
572.516	26.27
572.712	26.21
572.909	26.4
573.105	26.53
573.302	26.54
573.498	26.66
573.695	26.62
573.891	26.63
574.087	26.68
574.284	26.66
574.48	26.61
574.677	26.77
574.873	26.74
575.069	26.82
575.266	26.97
575.462	26.97
575.658	26.97
575.854	27.12
576.051	27.01
576.247	26.91
576.443	26.93
576.639	26.98
576.835	26.81
577.032	26.79
577.228	26.89
577.424	26.82
577.62	26.72
577.816	26.77
578.012	26.74
578.208	26.67
578.404	26.79
578.6	26.82
578.796	26.84
578.993	26.82
579.189	26.81
579.384	26.66
579.58	26.57
579.776	26.58
579.972	26.52
580.168	26.5
580.364	26.55
580.56	26.58
580.756	26.47
580.952	26.42
581.148	26.38
581.343	26.49
581.539	26.44
581.735	26.44
581.931	26.6
582.127	26.57
582.322	26.35
582.518	26.49
582.714	26.49
582.909	26.35
583.105	26.31
583.301	26.28
583.496	26.24
583.692	26.13
583.888	26.08
584.083	26.09
584.279	26.23
584.474	26.12
584.67	26.1
584.866	26.12
585.061	26.06
585.257	25.98
585.452	25.95
585.648	25.89
585.843	25.87
586.039	25.86
586.234	25.82
586.429	25.82
586.625	25.97
586.82	25.8
587.015	25.71
587.211	25.62
587.406	25.55
587.601	25.4
587.797	25.4
587.992	25.49
588.187	25.63
588.383	25.62
588.578	25.66
588.773	25.72
588.968	25.76
589.163	25.64
589.359	25.6
589.554	25.52
589.749	25.74
589.944	25.71
590.139	25.8
590.334	25.8
590.529	25.87
590.724	25.68
590.919	25.66
591.114	25.65
591.309	25.79
591.504	25.85
591.699	25.8
591.894	25.85
592.089	25.73
592.284	25.68
592.479	25.76
592.674	25.74
592.869	25.77
593.064	25.96
593.259	26.03
593.454	25.95
593.648	26.01
593.843	26.1
594.038	26.07
594.233	25.99
594.428	26.03
594.622	26.13
594.817	26.08
595.012	26.03
595.206	26.13
595.401	26.24
595.596	26.26
595.79	26.24
595.985	26.39
596.18	26.48
596.374	26.46
596.569	26.52
596.763	26.52
596.958	26.55
597.153	26.55
597.347	26.6
597.542	26.79
597.736	26.87
597.931	26.9
598.125	26.93
598.319	26.99
598.514	26.85
598.708	26.85
598.903	26.87
599.097	26.91
599.291	26.98
599.486	26.9
599.68	26.86
599.874	26.97
600.069	26.9
600.263	26.77
600.457	26.93
600.651	27.1
600.846	26.92
601.04	27.08
601.234	27.03
601.428	27.08
601.622	27.13
601.817	27.25
602.011	27.22
602.205	27.42
602.399	27.34
602.593	27.19
602.787	27.23
602.981	27.26
603.175	27.2
603.369	27.16
603.563	27.31
603.757	27.43
603.951	27.35
604.145	27.34
604.339	27.45
604.533	27.3
604.727	27.15
604.921	27.15
605.115	27.06
605.309	27.03
605.502	27.08
605.696	26.95
605.89	26.9
606.084	26.99
606.278	26.91
606.471	26.73
606.665	26.68
606.859	26.66
607.053	26.55
607.246	26.59
607.44	26.66
607.634	26.71
607.827	26.6
608.021	26.4
608.214	26.31
608.408	26.21
608.602	26.14
608.795	26.1
608.989	26.13
609.182	26.01
609.376	26
609.569	26.01
609.763	25.9
609.956	25.88
610.15	25.87
610.343	25.72
610.537	25.51
610.73	25.46
610.923	25.38
611.117	25.28
611.31	25.27
611.504	25.24
611.697	25.14
611.89	25.07
612.083	24.94
612.277	24.92
612.47	24.79
612.663	24.72
612.856	24.55
613.05	24.52
613.243	24.36
613.436	24.32
613.629	24.28
613.822	24.26
614.015	24.17
614.209	24.13
614.402	24.1
614.595	23.98
614.788	23.96
614.981	23.98
615.174	23.78
615.367	23.62
615.56	23.55
615.753	23.45
615.946	23.21
616.139	23.37
616.332	23.49
616.525	23.46
616.718	23.47
616.911	23.58
617.103	23.53
617.296	23.39
617.489	23.32
617.682	23.2
617.875	23.03
618.067	22.91
618.26	22.86
618.453	22.92
618.646	23
618.838	22.99
619.031	22.97
619.224	22.97
619.417	22.82
619.609	22.77
619.802	22.76
619.994	22.71
620.187	22.66
620.38	22.73
620.572	22.53
620.765	22.47
620.957	22.44
621.15	22.27
621.342	22.2
621.535	22.4
621.727	22.37
621.92	22.25
622.112	22.26
622.305	22.21
622.497	21.95
622.69	21.92
622.882	21.95
623.074	21.97
623.267	21.92
623.459	21.91
623.651	21.77
623.844	21.8
624.036	21.76
624.228	21.64
624.42	21.68
624.613	21.79
624.805	21.76
624.997	21.68
625.189	21.82
625.381	21.77
625.574	21.74
625.766	21.67
625.958	21.72
626.15	21.66
626.342	21.68
626.534	21.58
626.726	21.48
626.918	21.47
627.11	21.39
627.302	21.22
627.494	21.16
627.686	21.17
627.878	21.03
628.07	20.87
628.262	20.86
628.454	20.83
628.646	20.74
628.838	20.83
629.029	20.82
629.221	20.75
629.413	20.7
629.605	20.67
629.797	20.45
629.989	20.46
630.18	20.53
630.372	20.51
630.564	20.45
630.755	20.49
630.947	20.5
631.139	20.37
631.33	20.3
631.522	20.36
631.714	20.42
631.905	20.28
632.097	20.31
632.289	20.28
632.48	20.13
632.672	19.9
632.863	19.84
633.055	19.74
633.246	19.78
633.438	19.71
633.629	19.71
633.821	19.69
634.012	19.65
634.203	19.44
634.395	19.4
634.586	19.37
634.777	19.34
634.969	19.18
635.16	19.26
635.351	19.25
635.543	19.22
635.734	19.15
635.925	19.24
636.117	19.23
636.308	19.1
636.499	19.05
636.69	18.85
636.881	18.77
637.073	18.7
637.264	18.68
637.455	18.67
637.646	18.74
637.837	18.69
638.028	18.52
638.219	18.56
638.41	18.45
638.601	18.4
638.792	18.44
638.983	18.38
639.174	18.21
639.365	18.26
639.556	18.26
639.747	18.17
639.938	18.26
640.129	18.25
640.32	18.02
640.511	17.89
640.701	17.82
640.892	17.7
641.083	17.71
641.274	17.77
641.465	17.85
641.655	17.72
641.846	17.6
642.037	17.55
642.228	17.47
642.418	17.32
642.609	17.23
642.8	17.21
642.99	17.04
643.181	17
643.372	17.03
643.562	17.04
643.753	17.01
643.943	16.97
644.134	16.81
644.324	16.64
644.515	16.53
644.705	16.59
644.896	16.68
645.086	16.65
645.277	16.58
645.467	16.63
645.658	16.44
645.848	16.29
646.038	16.31
646.229	16.31
646.419	16.19
646.61	16.1
646.8	16.09
646.99	16.06
647.18	15.99
647.371	15.96
647.561	15.85
647.751	15.74
647.941	15.71
648.132	15.65
648.322	15.67
648.512	15.83
648.702	15.68
648.892	15.65
649.082	15.63
649.272	15.44
649.462	15.26
649.653	15.26
649.843	15.13
650.033	15.13
650.223	15.17
650.413	15.16
650.603	15.18
650.793	15.12
650.983	15.03
651.172	14.84
651.362	14.81
651.552	14.77
651.742	14.7
651.932	14.7
652.122	14.83
652.312	14.85
652.502	14.87
652.691	14.9
652.881	14.86
653.071	14.81
653.261	14.55
653.45	14.35
653.64	14.38
653.83	14.32
654.019	14.32
654.209	14.49
654.399	14.65
654.588	14.49
654.778	14.41
654.968	14.17
655.157	14.14
655.347	13.9
655.536	13.84
655.726	13.79
655.915	13.72
656.105	13.58
656.294	13.54
656.484	13.38
656.673	13.3
656.863	13.37
657.052	13.19
657.241	13.13
657.431	13.01
657.62	12.81
657.809	12.55
657.999	12.39
658.188	12.17
658.377	12.14
658.567	11.97
658.756	11.93
658.945	11.81
659.134	11.75
659.324	11.64
659.513	11.69
659.702	11.42
659.891	11.41
660.08	11.25
660.269	11.13
660.458	10.97
660.648	11.09
660.837	10.89
661.026	10.84
661.215	10.67
661.404	10.39
661.593	10.26
661.782	10.11
661.971	10.04
662.16	10.05
662.349	10.18
662.538	9.95
662.726	10.11
662.915	10.05
663.104	9.79
663.293	9.62
663.482	9.73
663.671	9.5
663.86	9.27
664.048	9.19
664.237	9.17
664.426	8.84
664.615	8.84
664.803	8.93
664.992	9.02
665.181	8.98
665.369	8.92
665.558	8.82
665.747	8.68
665.935	8.71
666.124	8.66
666.312	8.85
666.501	8.78
666.69	8.67
666.878	8.56
667.067	8.44
667.255	8.35
667.444	8.6
667.632	8.7
667.82	8.65
668.009	8.62
668.197	8.61
668.386	8.43
668.574	8.49
668.762	8.49
668.951	8.48
669.139	8.5
669.327	8.42
669.516	8.41
669.704	8.49
669.892	8.63
670.08	8.6
670.269	8.66
670.457	8.6
670.645	8.48
670.833	8.54
671.021	8.54
671.21	8.58
671.398	8.7
671.586	8.82
671.774	8.82
671.962	8.91
672.15	8.8
672.338	8.61
672.526	8.65
672.714	8.46
672.902	8.34
673.09	8.51
673.278	8.79
673.466	8.85
673.654	9.24
673.842	9.36
674.03	9.53
674.218	9.45
674.405	9.45
674.593	9.28
674.781	9.5
674.969	9.36
675.157	9.54
675.344	9.61
675.532	9.61
675.72	9.61
675.908	9.82
676.095	9.68
676.283	9.77
676.471	10.03
676.658	10.08
676.846	9.98
677.033	10.25
677.221	10.19
677.409	10.18
677.596	10.19
677.784	10.41
677.971	10.51
678.159	10.82
678.346	10.92
678.534	10.97
678.721	11.22
678.909	11.27
679.096	11.32
679.283	11.47
679.471	11.63
679.658	11.65
679.846	11.77
680.033	12.01
680.22	12.12
680.408	12.2
680.595	12.32
680.782	12.25
680.969	12.29
681.157	12.27
681.344	12.37
681.531	12.37
681.718	12.52
681.905	12.72
682.093	12.82
682.28	13.04
682.467	13.25
682.654	13.54
682.841	13.44
683.028	13.8
683.215	14.02
683.402	14.06
683.589	14.3
683.776	14.53
683.963	14.57
684.15	14.9
684.337	15.07
684.524	15.1
684.711	15.31
684.898	15.43
685.085	15.44
685.271	15.84
685.458	16.18
685.645	16.32
685.832	16.68
686.019	16.85
686.205	17.12
686.392	17.4
686.579	17.8
686.766	18.23
686.952	18.61
687.139	19.15
687.326	19.33
687.512	19.76
687.699	20.15
687.886	20.44
688.072	20.58
688.259	21.2
688.445	21.68
688.632	21.81
688.818	22.51
689.005	22.82
689.191	23.25
689.378	23.68
689.564	24.38
689.751	24.55
689.937	25.2
690.124	25.56
690.31	25.97
690.496	26.33
690.683	27.3
690.869	27.88
691.055	28.56
691.242	29.15
691.428	29.88
691.614	30.26
691.8	30.75
691.987	31.21
692.173	31.84
692.359	32.31
692.545	32.82
692.731	33.02
692.918	33.79
693.104	33.96
693.29	34.68
693.476	35.2
693.662	36.34
693.848	36.75
694.034	37.78
694.22	38.31
694.406	39.01
694.592	39.49
694.778	39.87
694.964	40.13
695.15	40.47
695.336	41.13
695.522	41.79
695.708	42.56
695.894	43.26
696.08	44.1
696.265	44.56
696.451	44.85
696.637	45.67
696.823	46.25
697.009	46.95
697.194	47.61
697.38	48.22
697.566	48.41
697.751	48.72
697.937	49
698.123	49.27
698.308	50.04
698.494	50.75
698.68	51.43
698.865	51.74
699.051	52.32
699.236	52.76
699.422	53.08
699.607	53.28
699.793	54.18
699.978	54.57
700.164	54.76
700.349	55.48
700.535	56.41
700.72	56.55
700.906	57.4
701.091	58.06
701.276	58.4
701.462	59.15
701.647	60.09
701.832	60.31
702.018	60.71
702.203	61.25
702.388	61.29
702.573	61.51
702.759	62.11
702.944	62.38
703.129	62.7
703.314	63.2
703.499	63.63
703.684	63.87
703.87	64.49
704.055	65.08
704.24	65.33
704.425	65.5
704.61	65.83
704.795	65.93
704.98	65.71
705.165	65.86
705.35	66.11
705.535	66.24
705.72	66.92
705.905	67.67
706.09	68.4
706.275	68.71
706.459	68.82
706.644	68.65
706.829	68.83
707.014	68.76
707.199	68.91
707.384	69.42
707.568	69.98
707.753	70.94
707.938	71.44
708.123	72.04
708.307	71.69
708.492	71.53
708.677	70.5
708.861	70.41
709.046	70.24
709.231	71.12
709.415	71.45
709.6	72.26
709.784	72
709.969	72.43
710.153	72.55
710.338	73.14
710.522	73.08
710.707	74.3
710.891	74.05
711.076	74.45
711.26	73.81
711.445	74.33
711.629	74.1
711.813	74.6
711.998	74.83
712.182	75.01
712.366	75.19
712.551	75.51
712.735	75.05
712.919	75.14
713.103	75.75
713.288	75.39
713.472	75.23
713.656	76.39
713.84	76.59
714.024	76.73
714.208	77.22
714.393	77.51
714.577	77.59
714.761	77.25
714.945	77.56
715.129	77.62
715.313	77.81
715.497	77.37
715.681	77.77
715.865	77.94
716.049	78.23
716.233	78.48
716.417	79.17
716.601	79.21
716.785	78.96
716.968	79.05
717.152	78.98
717.336	78.91
717.52	78.75
717.704	79.48
717.888	79.96
718.071	79.82
718.255	80
718.439	80.48
718.622	80.71
718.806	80.5
718.99	80.3
719.174	80.5
719.357	81.1
719.541	80.47
719.724	80.49
719.908	81.5
720.092	81.72
720.275	81.67
720.459	82.63
720.642	82.52
720.826	82.18
721.009	81.66
721.193	80.74
721.376	80.3
721.559	81.19
721.743	82.15
721.926	82.55
722.11	82.49
722.293	82.38
722.476	81.42
722.66	80.78
722.843	81.16
723.026	81.69
723.21	82.18
723.393	83.12
723.576	83.25
723.759	82.49
723.942	83.05
724.126	83.21
724.309	82.93
724.492	83.03
724.675	84.12
724.858	84.1
725.041	84.67
725.224	85
725.407	84.93
725.59	84.75
725.774	84.45
725.957	83.55
726.14	83.9
726.322	84.26
726.505	83.95
726.688	84.73
726.871	84.42
727.054	84.03
727.237	84.01
727.42	84.56
727.603	84.86
727.786	85.63
727.968	86.31
728.151	86.08
728.334	85.39
728.517	84.92
728.699	85.04
728.882	84.52
729.065	85.71
729.248	86.97
729.43	87.59
729.613	88.55
729.796	88.45
729.978	87.17
730.161	86.46
730.343	87.51
730.526	87.36
730.708	87.6
730.891	88.34
731.073	88.14
731.256	86.73
731.438	86.7
731.621	87.17
731.803	88.15
731.986	89.17
732.168	89.78
732.35	89.82
732.533	89.76
732.715	89.21
732.898	89.8
733.08	90.16
733.262	90.03
733.444	90.12
733.627	89.64
733.809	89.76
733.991	89.53
734.173	90.04
734.355	90.42
734.538	90.68
734.72	89.6
734.902	89.89
735.084	89.49
735.266	89.53
735.448	89.52
735.63	90.18
735.812	90.26
735.994	90.98
736.176	91.24
736.358	91.81
736.54	92.9
736.722	92.73
736.904	92.69
737.086	92.41
737.268	94.21
737.45	93.42
737.632	93.38
737.814	93
737.995	94.46
738.177	93.27
738.359	93.25
738.541	93.67
738.723	94.63
738.904	93.69
739.086	93.78
739.268	93.34
739.449	93.18
739.631	92.66
739.813	93.08
739.994	93.7
740.176	94.65
740.358	94.96
740.539	95.94
740.721	95.73
740.902	95.85
741.084	95.67
741.265	95.17
741.447	95.03
741.628	94.64
741.81	93.22
741.991	93.82
742.172	95.56
742.354	95.15
742.535	95.79
742.717	97.19
742.898	95.76
743.079	94.87
743.261	94.29
743.442	93.48
743.623	93.13
743.804	94.81
743.986	95.55
744.167	94.56
744.348	96.08
744.529	96.42
744.71	95.58
744.891	95.16
745.073	96.07
745.254	95.71
745.435	95.86
745.616	94.35
745.797	93.88
745.978	93.71
746.159	92.6
746.34	91.53
746.521	92.97
746.702	93.38
746.883	93.98
747.064	92.2
747.245	92.58
747.426	92.07
747.606	92.38
747.787	92.37
747.968	93.67
748.149	95.07
748.33	96.63
748.51	94.56
748.691	92.77
748.872	95
749.053	93.09
749.233	91.55
749.414	92.5
749.595	94.37
749.775	92.46
749.956	91.37
750.137	90.97
750.317	91.96
750.498	92.75
750.678	93.11
750.859	94.73
751.04	96.73
751.22	95.75
751.4	93.41
751.581	93.03
751.761	92.64
751.942	91.93
752.122	92.67
752.303	93.24
752.483	93.98
752.663	94.45
752.844	94.91
753.024	94.34
753.204	95.71
753.385	94.82
753.565	93.57
753.745	93.13
753.925	94.39
754.106	95.03
754.286	96.72
754.466	96.58
754.646	96.37
754.826	95.6
755.006	93.17
755.187	92.65
755.367	94.31
755.547	95.81
755.727	96.51
755.907	95.87
756.087	96.86
756.267	95.49
756.447	95.09
756.627	94.32
756.807	97.13
756.987	94.72
757.167	95.25
757.346	93.15
757.526	90.94
757.706	89.75
757.886	90.84
758.066	91.51
758.246	94.97
758.425	96.55
758.605	96.23
758.785	96.9
758.965	97.61
759.144	93.03
759.324	93.8
759.504	94.71
759.683	92.93
759.863	90.24
760.043	92.6
760.222	91.3
760.402	89.84
760.581	91.07
760.761	93.17
760.94	90.58
761.12	90.3
761.299	92.83
761.479	92.54
761.658	91.83
761.838	93.43
762.017	94.29
762.197	92.2
762.376	93.19
762.555	93.96
762.735	94.82
762.914	93.32
763.093	95.6
763.273	92.12
763.452	92.27
763.631	90.95
763.81	90.89
763.99	89.34
764.169	92.11
764.348	89.09
764.527	88.48
764.706	91.54
764.885	92.84
765.064	90.41
765.243	91.66
765.423	92.69
765.602	91.5
765.781	88.28
765.96	87.22
766.139	87.61
766.318	88.78
766.497	89.33
766.676	91.46
766.854	95.1
767.033	95.3
767.212	93.81
767.391	92.39
767.57	93.42
767.749	93.23
767.928	93.5
768.106	91.7
768.285	90.16
768.464	89.64
768.643	89.2
768.821	88.67
769	91.56
769.179	92.51
769.357	88.67
769.536	86.35
769.715	87.39
769.893	86.93
770.072	86.01
770.25	85.91
770.429	86.65
770.607	85.49
770.786	85.07
770.964	86.46
771.143	90.28
771.321	91.81
771.5	93.35
771.678	92.76
771.857	90.83
772.035	90.28
772.213	89.03
772.392	83.04
772.57	85.5
772.748	88.75
772.927	85.83
773.105	85.43
773.283	91.55
773.461	91.55
773.64	88.18
773.818	86.37
773.996	89.26
774.174	88.77
774.352	84.04
774.531	85.47
774.709	91.43
774.887	89.52
775.065	86.7
775.243	87.3
775.421	89.9
775.599	90.18
775.777	87.4
775.955	84.92
776.133	86.63
776.311	82.67
776.489	78.29
776.667	80.77
776.844	84.68
777.022	82.04
777.2	82.62
777.378	82.93
777.556	85.26
777.734	85.8
777.911	87.41
778.089	86.79
778.267	90.33
778.445	86.2
778.622	82.96
778.8	83.5
778.978	86.18
779.155	83.2
779.333	82.68
779.511	81.32
779.688	82.25
779.866	76.26
780.043	74.01
780.221	76.34
780.398	77.16
780.576	78.1
780.753	82.37
780.931	84.69
781.108	83.51
781.286	86.5
781.463	79.9
781.64	79.16
781.818	82.88
781.995	84.06
782.172	82.97
782.35	87.84
782.527	88.48
782.704	83.95
782.882	84.64
783.059	83.46
783.236	82.27
783.413	81.72
783.59	81.32
783.768	74.12
783.945	76.74
784.122	79.91
784.299	77.89
784.476	80.8
784.653	86.54
784.83	82.41
785.007	74.83
785.184	79.13
785.361	78.21
785.538	81.22
785.715	83.94
785.892	91.32
786.069	89.07
786.246	90.48
786.423	84.44
786.6	83.55
786.776	83.21
786.953	85.36
787.13	81.38
787.307	86.56
787.484	89.09
787.66	84.83
787.837	79.02
788.014	80.76
788.191	76.9
788.367	71.99
788.544	76.15
788.721	78.8
788.897	79.49
789.074	82.77
789.25	83.45
789.427	81.92
789.603	80.42
789.78	83.98
789.956	71.73
790.133	71.91
790.309	70.82
790.486	75.43
790.662	70.33
790.839	76
791.015	80.62
791.192	74.88
791.368	74.21
791.544	70.18
791.721	76.63
791.897	73.21
792.073	76.63
792.249	75.17
792.426	80.01
792.602	77.91
792.778	74.56
792.954	72.99
793.13	68.53
793.307	62.64
793.483	54.69
793.659	56.61
793.835	59.5
794.011	65.08
794.187	62.17
794.363	64.55
794.539	69.16
794.715	66.64
794.891	64.7
795.067	70.61
795.243	79.55
795.419	74.55
795.595	77.65
795.771	75.89
795.947	77.31
796.122	63.83
796.298	66.83
796.474	67.56
796.65	67.97
796.826	68.51
797.001	78.31
797.177	71.89
797.353	73.18
797.529	77.85
797.704	72.75
797.88	70.28
798.056	68.46
798.231	67.92
798.407	66.36
798.582	70.94
798.758	73.74
798.934	83.7
799.109	79.63
799.285	74.21
799.46	77.25
799.636	75.36
799.811	71.54
799.986	76.81
800.162	85.08
800.337	80.82
800.513	73.21
800.688	72.06
800.863	71.26
801.039	62.74
801.214	59.69
801.389	67.58
801.565	68.61
801.74	63.33
801.915	67.16
802.09	75.36
802.265	78.52
802.441	78.11
802.616	78.18
802.791	76.14
802.966	72.67
803.141	69.44
803.316	58.38
803.491	61.93
803.666	61.62
803.841	57.36
804.016	58.85
804.191	70.17
804.366	67.33
804.541	70.46
804.716	64.72
804.891	59.48
805.066	61.35
805.241	63.92
805.416	64.69
805.591	66.85
805.765	68.33
805.94	70.86
806.115	72.68
806.29	64.91
806.464	75.21
806.639	66.91
806.814	49.24
806.989	38.31
807.163	48.06
807.338	42.33
807.512	48.25
807.687	48.35
807.862	55.6
808.036	59.33
808.211	61.8
808.385	69.94
808.56	82.96
808.734	84.74
808.909	81.51
809.083	75.66
809.258	74.11
809.432	76.55
809.606	52.3
809.781	52.73
809.955	64.68
810.13	67.18
810.304	58.12
810.478	68.72
810.652	79.95
810.827	81.4
811.001	75.57
811.175	71.76
811.349	79.34
811.524	60.45
811.698	44.2
811.872	48.81
812.046	59.22
812.22	58.16
812.394	61.33
812.568	64.92
812.742	66.49
812.916	58.4
813.09	59.49
813.264	56.57
813.438	58.26
813.612	53.36
813.786	43.48
813.96	46.68
814.134	57.9
814.308	63.27
814.482	61.9
814.656	70.69
814.83	79.68
815.003	74.26
815.177	65.19
815.351	65.08
815.525	73.94
815.698	65.35
815.872	44.66
816.046	39.75
816.219	39.6
816.393	39.07
816.567	37.92
816.74	49.96
816.914	66.1
817.088	65.57
817.261	58.16
817.435	48.01
817.608	43.94
817.782	28.02
817.955	31.7
818.129	23.97
818.302	43.29
818.475	59.56
818.649	66.25
818.822	44.67
818.996	57.77
819.169	51.45
819.342	34.14
819.516	40.15
819.689	64.58
819.862	59.36
820.035	50.23
820.209	46.73
820.382	49.65
820.555	46.33
820.728	38.34
820.901	37.27
821.075	53.04
821.248	62.61
821.421	54.52
821.594	43.84
821.767	62.51
821.94	82.63
822.113	38.21
822.286	39
822.459	67.82
822.632	63.99
822.805	46.01
822.978	58.56
823.151	66.95
823.324	45.61
823.496	5.53
823.669	12.48
823.842	18.39
824.015	3.15
824.188	-3
824.361	12.24
824.533	2.91
824.706	24.7
824.879	25.67
825.051	55.58
825.224	58.53
825.397	56.96
825.569	41.98
825.742	55.28
825.915	57.47
826.087	51.07
826.26	34.02
826.432	35.9
826.605	31.47
826.777	22.71
826.95	25.71
827.122	42.41
827.295	47.52
827.467	44.8
827.64	23.25
827.812	9.64
827.984	18.69
828.157	12
828.329	6.88
828.501	25.56
828.674	48.27
828.846	44.35
829.018	50.66
829.19	48.26
829.363	54.74
829.535	48.8
829.707	55.52
829.879	38.4
830.051	32.18
830.223	27.99
830.395	-2.44
830.568	-12.74
830.74	-4.3
830.912	28.16
831.084	8.22
831.256	10.64
831.428	-3.38
831.6	-18.63
831.772	-57.05
831.943	-54.28
832.115	-23.52
832.287	13.93
832.459	14.25
832.631	33.12
832.803	49.56
832.975	36.23
833.146	26.41
833.318	38.51
833.49	30.41
833.662	21.88
833.833	15.65
834.005	8.12
834.177	23.94
834.348	17.33
834.52	-5.02
834.692	3.57
834.863	5.13
835.035	-12.92
835.206	-2.7
835.378	27.53
835.549	15.17
835.721	24.02
835.892	-0.74
836.064	-2.83
836.235	-3.55
836.407	43.62
836.578	18.32
836.749	47.46
836.921	51.7
837.092	23.55
837.264	-31.13
837.435	-37.28
837.606	-13.65
837.777	18.9
837.949	36.16
838.12	22.05
838.291	28.42
838.462	15.38
838.633	-1.73
838.805	-13.8
838.976	7.17
839.147	6.15
839.318	-28.95
839.489	-56.07
839.66	-28.91
839.831	3
840.002	-8.22
840.173	-6.96
840.344	-5.63
840.515	5.81
840.686	-40.61
840.857	-40.02
841.028	-28.4
841.199	27.23
841.369	-24.28
841.54	-19.5
841.711	21.24
841.882	25.64
842.053	-1.91
842.223	-16.1
842.394	10.52
842.565	-4.36
842.736	-3.6
842.906	-15.43
843.077	19.01
843.248	20.93
843.418	16.94
843.589	19.1
843.759	55.26
843.93	55.57
844.101	54.1
844.271	72.7
844.442	97
844.612	93.97
844.783	61.19
844.953	22.08
845.123	41.34
845.294	21.04
845.464	-13.1
845.635	21.66
845.805	67.3
845.975	59.59
846.146	37.97
846.316	38.13
846.486	54.45
846.656	35.38
846.827	1.65
846.997	-4.93
847.167	4.02
847.337	-21.86
847.507	-28.8
847.677	-30.45
847.848	-2.99
848.018	12.37
848.188	23.88
848.358	25.24
848.528	40.2
848.698	17.56
848.868	-16.12
849.038	-41.93
849.208	-11.7
849.378	9.6
849.548	-29.47
849.718	-7.37
849.887	28.63
850.057	-57.79
850.227	-115.39
850.397	-75.55
850.567	-85.83
850.737	-62.23
850.906	-61.08
851.076	-72.67
851.246	-81.01
851.415	-42.66
851.585	-34.21
851.755	-23.05
851.924	19.92
852.094	30.02
852.264	11.5
852.433	-26.28
852.603	-1.09
852.772	-1.53
852.942	-9.76
853.111	-37.37
853.281	16.6
853.45	15.94
853.62	-9.09
853.789	-68
853.959	-4.03
854.128	-40.02
854.297	-98.74
854.467	-107
854.636	-47.27
854.805	-51.8
854.975	-60.97
855.144	-30.17
855.313	20.44
855.482	19.1
855.652	-18.52
855.821	6.2
855.99	62.29
856.159	54.69
856.328	26.61
856.497	23.59
856.667	16.84
856.836	-32.38
857.005	-107.34
857.174	-147.03
857.343	-127.84
857.512	-72.99
857.681	-127.9
857.85	-103.9
858.019	-77.94
858.188	-53.76
858.356	-83.14
858.525	-70.45
858.694	-42.76
858.863	-18.74
859.032	-43.9
859.201	-47.05
859.369	-18.34
859.538	-16.02
859.707	-54.04
859.876	-76.13
860.044	-46.33
860.213	-11.68
860.382	-13.52
860.55	10.97
860.719	40.38
860.888	55.34
861.056	-17.81
861.225	-65.11
861.393	-47.22
861.562	16.36
861.73	-32.06
861.899	8.3
862.067	-11.11
862.236	1.43
862.404	-44.05
862.572	-65.31
862.741	-39.56
862.909	-36.73
863.078	-67.33
863.246	-78.76
863.414	-37.37
863.582	-90.35
863.751	-51.63
863.919	-47.73
864.087	7.7
864.255	15.93
864.424	-14.97
864.592	1.52
864.76	31.97
864.928	37.75
865.096	4.76
865.264	17.56
865.432	42.34
865.6	46.86
865.768	-70.37
865.936	-149.42
866.104	-99.91
866.272	-185.55
866.44	-155.3
866.608	-114.74
866.776	-137.8
866.944	-230.43
867.112	-320.24
867.28	-460.68
867.448	-864.09
867.615	-318.1
867.783	-33.93
867.951	-64.26
868.119	13.32
868.286	-3.6
868.454	-39.24
868.622	-105.98
868.789	-87.3
868.957	-39.86
869.125	-39.06
869.292	-22.88
869.46	-14.26
869.627	21.24
869.795	-34.52
869.963	-41.96
870.13	-10.73
870.298	12.79
870.465	-54.25
870.632	-68.29
870.8	-82.74
870.967	-99.92
871.135	-195.49
871.302	-100.25
871.469	-30.4
871.637	-3.92
871.804	-9.73
871.971	-23.34
872.139	-24
872.306	5.02
872.473	-4.11
872.64	-30.88
872.807	21.6
872.975	34.91
873.142	-33.56
873.309	-17.48
873.476	77.13
873.643	73.84
873.81	69.91
873.977	72.19
874.144	84.74
874.311	67.87
874.478	-1.96
874.645	-95.03
874.812	-357.4
874.979	26171.43
875.146	-621.81
875.313	-170.38
875.48	-75.03
875.647	-68.04
875.813	-80.44
875.98	-119.2
876.147	-199.04
876.314	-164.21
876.481	-222.92
876.647	-238.31
876.814	-133.03
876.981	-83.84
877.147	-189.55
877.314	-165.56
877.481	-98.57
877.647	-31.88
877.814	-66.04
877.98	-55.91
878.147	61.58
878.314	115.16
878.48	32.55
878.647	-1.56
878.813	76.64
878.979	70.26
879.146	6.65
879.312	29.05
879.479	31.89
879.645	8.05
879.811	-54.73
879.978	-37.78
880.144	-25.29
880.31	-28.96
880.477	-109.47
880.643	-114.23
880.809	-76.57
880.975	-40.14
881.142	-79.85
881.308	-63.6
881.474	-5.06
881.64	1.72
881.806	-56.85
881.972	-15.04
882.138	7.49
882.304	22.16
882.47	-81.67
882.636	-130.57
882.802	-129.4
882.968	-66.73
883.134	-203.2
883.3	-263.8
883.466	-17.34
883.632	19.36
883.798	-66.61
883.964	-27.68
884.129	-30.57
884.295	-63.31
884.461	-104.1
884.627	-162.7
884.793	-137.93
884.958	-56.48
885.124	-96.88
885.29	-107.11
885.455	-17.28
885.621	-6.2
885.787	-174.87
885.952	-84.08
886.118	-70.49
886.283	-76.7
886.449	-127.02
886.614	-93.59
886.78	-95.81
886.945	-37.23
887.111	-211.97
887.276	-162.35
887.442	-309.24
887.607	-253.76
887.773	-416
887.938	-307.97
888.103	-205.08
888.269	-90.59
888.434	-40.08
888.599	-17.53
888.764	62.24
888.93	58.37
889.095	18.8
889.26	-11.05
889.425	32.73
889.59	25.28
889.756	5.06
889.921	22.07
890.086	54.31
890.251	49.38
890.416	-17.83
890.581	-44.94
890.746	-16.52
890.911	-3.78
891.076	-56.95
891.241	-82.36
891.406	-53.22
891.571	-16.05
891.736	-60.8
891.901	-77.36
892.065	-36.26
892.23	-19.01
892.395	-113.86
892.56	-185.75
892.725	-100.9
892.889	-72.73
893.054	-193.38
893.219	-184.44
893.384	-149.29
893.548	-197.63
893.713	-265.69
893.878	-212.89
