Data from Ofra_PP_Phys_2GT10K_Reflection_2.txt Node
Date: Sat Jul 24 20:12:24 EDT 2021
User: USUARIO
Spectrometer: FLMT01687
Trigger mode: 0
Integration Time (sec): 1.100000E0
Scans to average: 2
Electric dark correction enabled: true
Nonlinearity correction enabled: false
Boxcar width: 2
XAxis mode: Wavelengths
Number of Pixels in Spectrum: 3648
>>>>>Begin Spectral Data<<<<<
179.494	741.56
179.716	930.53
179.937	1630.36
180.158	1441.78
180.38	648.62
180.601	-761.66
180.823	14.91
181.044	488.37
181.265	25.38
181.486	-8.81
181.708	-44.54
181.929	-1864
182.15	431.33
182.372	-21.61
182.593	41400
182.814	1092.31
183.035	245.65
183.257	175.78
183.478	72.8
183.699	102.28
183.92	-25.9
184.141	27.44
184.363	-19.32
184.584	70.56
184.805	43.07
185.026	71.06
185.247	53.13
185.468	15.46
185.689	-3.12
185.91	11.59
186.132	2.3
186.353	16.48
186.574	53.53
186.795	72.17
187.016	-1.62
187.237	18.71
187.458	3.81
187.679	47.32
187.9	59.15
188.121	115.94
188.342	124.98
188.563	115.62
188.784	102.49
189.005	74.88
189.226	89.66
189.447	74.8
189.667	77.83
189.888	30.29
190.109	6.6
190.33	-30.25
190.551	-52.6
190.772	-56.71
190.993	-60.89
191.214	-51.56
191.434	-57.12
191.655	1.02
191.876	-14.63
192.097	-2.67
192.318	7.65
192.538	-7.95
192.759	-25.09
192.98	-17.59
193.201	-7.22
193.421	-39.14
193.642	-0.72
193.863	3.21
194.083	-20.34
194.304	-4.32
194.525	19.21
194.745	12.49
194.966	-52.27
195.187	-64.34
195.407	-172.93
195.628	-193.79
195.848	-176.51
196.069	-181.45
196.29	-131.33
196.51	-172.47
196.731	-196.46
196.951	-192.51
197.172	-166.95
197.392	-161.28
197.613	-83.08
197.833	-72.56
198.054	-94.98
198.274	-49.97
198.495	-92.88
198.715	-72.61
198.936	-118.84
199.156	-60.71
199.377	-92.07
199.597	-81.96
199.817	-111.14
200.038	-22.76
200.258	-17.68
200.479	29.9
200.699	28.54
200.919	37.59
201.14	-35.59
201.36	-51.69
201.58	-59.34
201.801	-38.65
202.021	-59.62
202.241	-5.69
202.461	-29.98
202.682	-50.72
202.902	-29.96
203.122	-33.14
203.342	-19.89
203.563	12.11
203.783	17.89
204.003	-84.68
204.223	-160.35
204.443	-75.03
204.663	-102.57
204.884	-94.38
205.104	-7.49
205.324	43.35
205.544	19.19
205.764	22.04
205.984	55.47
206.204	66.59
206.424	61.12
206.644	34.89
206.864	52.21
207.084	9.25
207.304	19.04
207.525	-8.23
207.745	-8.31
207.964	-19.84
208.184	-27.88
208.404	-42.92
208.624	-52.91
208.844	-23.39
209.064	-65.07
209.284	-50.23
209.504	-28.26
209.724	1.31
209.944	-25.13
210.164	27.97
210.384	69.57
210.604	60.97
210.823	-0.72
211.043	-35.15
211.263	-37.23
211.483	-90.43
211.703	-116.52
211.922	-55.88
212.142	18.88
212.362	39.36
212.582	30.11
212.801	34.21
213.021	-1.25
213.241	-15.93
213.461	-66.32
213.68	-95.72
213.9	-88.68
214.12	-71.89
214.339	-104.61
214.559	-82.69
214.779	-29.68
214.998	-20.42
215.218	-60.22
215.438	-41.81
215.657	-72.53
215.877	-48.2
216.096	-32.01
216.316	21.86
216.535	6.55
216.755	22.89
216.974	1.89
217.194	-1.88
217.413	-28.22
217.633	-14.45
217.852	-78.41
218.072	-81.36
218.291	-85.9
218.511	-37.99
218.73	-125.5
218.95	-100.23
219.169	-86.42
219.389	-119.02
219.608	-146.45
219.827	-57.45
220.047	-31.98
220.266	-48.96
220.485	-52.6
220.705	-16.87
220.924	-75.24
221.143	-53.16
221.363	-100.49
221.582	-45.24
221.801	-48.2
222.021	13.2
222.24	32.24
222.459	87.84
222.678	61.56
222.897	35.38
223.117	10.34
223.336	-16.66
223.555	11.46
223.774	42.7
223.993	56.14
224.213	129.23
224.432	70.65
224.651	84.12
224.87	48.62
225.089	67.26
225.308	40.57
225.527	74.14
225.746	47.6
225.965	30.28
226.184	1.07
226.404	19.02
226.623	-5.12
226.842	1.7
227.061	50.74
227.28	62.95
227.499	58.9
227.718	72.68
227.936	53.83
228.155	17.42
228.374	-35.44
228.593	-56.34
228.812	-48.97
229.031	-32.43
229.25	-48.43
229.469	-2.8
229.688	20.51
229.907	27.17
230.125	48.21
230.344	54.85
230.563	54.23
230.782	66.88
231.001	8.63
231.22	2.54
231.438	9.64
231.657	4.33
231.876	-12.58
232.095	31.12
232.313	35.06
232.532	25.96
232.751	36.79
232.969	20.06
233.188	13.26
233.407	3.66
233.625	-8.54
233.844	-30.86
234.063	-27.24
234.281	20.8
234.5	13.03
234.719	42.23
234.937	52.46
235.156	50.07
235.374	35.23
235.593	54.35
235.811	39.47
236.03	42.95
236.249	37.27
236.467	24.03
236.686	6.62
236.904	21.89
237.123	-55.96
237.341	-60.94
237.559	-54.97
237.778	-44.19
237.996	-68.85
238.215	-11.26
238.433	-8.07
238.652	3.9
238.87	-59.79
239.088	-26.49
239.307	-19.66
239.525	-30.62
239.743	-76.14
239.962	-29.72
240.18	-79.5
240.398	-128.6
240.617	-135.77
240.835	-78.82
241.053	-115.8
241.271	-30.89
241.49	5.54
241.708	4.29
241.926	3.2
242.144	26.73
242.363	-6.72
242.581	-26.2
242.799	7.27
243.017	-0.1
243.235	-71.17
243.453	-41.28
243.672	-36.44
243.89	-34.26
244.108	-26.54
244.326	22.88
244.544	14.23
244.762	1.62
244.98	0.07
245.198	-0.56
245.416	-36.43
245.634	-40.75
245.852	-10.37
246.07	-14.84
246.288	-3.87
246.506	-0.82
246.724	18.75
246.942	15.43
247.16	24.47
247.378	27.88
247.596	52.1
247.814	35.51
248.032	-17.06
248.25	-13.64
248.468	-13.29
248.685	-8.03
248.903	14.14
249.121	48.11
249.339	0.72
249.557	-14.84
249.775	-10.54
249.992	-94.19
250.21	-119.3
250.428	-72.49
250.646	-53.41
250.863	-59.72
251.081	-40.05
251.299	14.83
251.517	7.57
251.734	11.6
251.952	1.18
252.17	27.86
252.387	18.15
252.605	-6.95
252.823	-10.96
253.04	11.2
253.258	16.36
253.475	7.24
253.693	51.67
253.911	60.47
254.128	54.6
254.346	63
254.563	59.93
254.781	24.3
254.998	15.03
255.216	11.48
255.433	-7.82
255.651	13.63
255.868	37.38
256.086	46.77
256.303	37.91
256.521	56.68
256.738	35.18
256.956	-2.47
257.173	-1.4
257.39	-13.76
257.608	-17.24
257.825	-5.59
258.043	26.88
258.26	22.41
258.477	29.45
258.695	25.15
258.912	-15.11
259.129	-27.8
259.346	-63.14
259.564	-63.36
259.781	-40.87
259.998	-20.58
260.216	13.56
260.433	46.63
260.65	33.72
260.867	41.73
261.084	23.28
261.302	3.94
261.519	12.58
261.736	-7.43
261.953	-30
262.17	-5.01
262.387	-12.27
262.604	-34.38
262.822	-27.22
263.039	-27.64
263.256	-51.76
263.473	-23.48
263.69	-44.83
263.907	-10.15
264.124	19.7
264.341	58.16
264.558	17.35
264.775	28.82
264.992	31.36
265.209	11.49
265.426	-0.21
265.643	14.77
265.86	16.42
266.077	18.91
266.294	18.88
266.51	23.79
266.727	14.22
266.944	27.17
267.161	1.64
267.378	11.8
267.595	3.36
267.812	-42.04
268.028	-41.18
268.245	-35.62
268.462	-59.21
268.679	-51.37
268.896	18.3
269.112	10
269.329	18.5
269.546	46.95
269.763	42.06
269.979	37.98
270.196	20.5
270.413	7.2
270.629	-31.96
270.846	-42.49
271.063	-34.7
271.279	-36.82
271.496	-81.14
271.712	-65.39
271.929	-50.64
272.146	-34.41
272.362	-25.73
272.579	47.98
272.795	47.72
273.012	67.93
273.228	52.41
273.445	23.21
273.661	-33.35
273.878	-127.36
274.094	-127.31
274.311	-166.83
274.527	-90.06
274.744	-43.47
274.96	32.39
275.177	42.63
275.393	48.25
275.609	44.37
275.826	48.14
276.042	42.89
276.259	30.37
276.475	27.83
276.691	33.45
276.908	3.8
277.124	34.79
277.34	29
277.557	26.07
277.773	19.43
277.989	19.82
278.205	9.2
278.422	8.06
278.638	25.99
278.854	19.03
279.07	32.25
279.286	-7.04
279.503	-16.61
279.719	-25.99
279.935	-43.47
280.151	-68.19
280.367	-19.44
280.583	-4.41
280.799	-14.33
281.016	5.17
281.232	31.29
281.448	30.66
281.664	41.49
281.88	40.54
282.096	28.49
282.312	26.24
282.528	31.97
282.744	30.28
282.96	32.96
283.176	35.63
283.392	35.17
283.608	32.11
283.824	24.53
284.04	19.98
284.256	42.95
284.471	36.51
284.687	18.88
284.903	29.21
285.119	63.96
285.335	11.8
285.551	16.53
285.767	21.26
285.982	-13.79
286.198	-38.44
286.414	3.11
286.63	6.62
286.846	30.17
287.061	10.29
287.277	14.23
287.493	4.65
287.709	8.06
287.924	-10.99
288.14	38.03
288.356	58.33
288.571	74.67
288.787	64.58
289.003	74.64
289.218	45.02
289.434	-28.63
289.65	7.66
289.865	19.65
290.081	22.08
290.296	31.11
290.512	34.18
290.727	17.04
290.943	-3.87
291.159	-18.06
291.374	-15.16
291.59	-34.33
291.805	-50.78
292.021	-24.13
292.236	-20.67
292.451	-29.95
292.667	-3.37
292.882	17.72
293.098	23.75
293.313	8.25
293.529	0.74
293.744	-22.56
293.959	-58.22
294.175	-52.11
294.39	-13.32
294.605	17.29
294.821	39.47
295.036	37.73
295.251	47.56
295.467	19.53
295.682	0.52
295.897	-22.4
296.112	-27.54
296.328	-43.97
296.543	-48.01
296.758	-70.82
296.973	-14.02
297.188	32.68
297.404	0.97
297.619	10.46
297.834	21.44
298.049	4.46
298.264	-23.08
298.479	19.51
298.694	27.07
298.909	48.47
299.125	48.67
299.34	65.67
299.555	38.56
299.77	50.55
299.985	-26.35
300.2	-61.33
300.415	-108.56
300.63	-74.85
300.845	-73.7
301.06	-61.43
301.275	-33.52
301.49	-5.74
301.704	-2.75
301.919	-38.71
302.134	-39.07
302.349	-5.11
302.564	-30.81
302.779	-18.74
302.994	34.23
303.209	48.31
303.423	52.28
303.638	98.62
303.853	75.01
304.068	32.84
304.283	25.13
304.497	-1.84
304.712	-2.57
304.927	8.02
305.142	2.58
305.356	7.86
305.571	10.76
305.786	-7.92
306	-16.66
306.215	12.14
306.43	-18.07
306.644	13.79
306.859	40.03
307.074	33.16
307.288	-4
307.503	27.52
307.717	-14.16
307.932	-19.55
308.147	-29.77
308.361	14.88
308.576	-20.62
308.79	-59.95
309.005	-57.69
309.219	-32.03
309.434	-28.84
309.648	-39.42
309.863	2.68
310.077	-1.46
310.292	-16.34
310.506	-29.14
310.72	25.76
310.935	30.79
311.149	25.33
311.364	35.01
311.578	53.9
311.792	28.74
312.007	34.09
312.221	-4.27
312.435	21.75
312.649	-25.65
312.864	38.72
313.078	9.89
313.292	82.91
313.507	44.77
313.721	53.01
313.935	27.4
314.149	57.69
314.363	36.78
314.578	25.23
314.792	17.91
315.006	13.94
315.22	2.34
315.434	4.58
315.648	25.19
315.862	18.32
316.077	13.98
316.291	16.54
316.505	12.41
316.719	11.65
316.933	-23.56
317.147	-3.65
317.361	-34.88
317.575	-24.67
317.789	-47.32
318.003	-23.67
318.217	-17.79
318.431	15.85
318.645	25.19
318.859	24.31
319.073	55.51
319.287	28.68
319.5	-17.05
319.714	-62.43
319.928	-66.12
320.142	-109.29
320.356	-40.12
320.57	-1.47
320.784	-7.3
320.997	9.06
321.211	9.49
321.425	-43.92
321.639	-99.74
321.853	-52.69
322.066	-67.95
322.28	-72.51
322.494	-30.16
322.707	53.25
322.921	19.77
323.135	26.31
323.349	49.76
323.562	9.32
323.776	-31.41
323.989	-23.87
324.203	-40.97
324.417	-34.53
324.63	-47.65
324.844	-63.02
325.057	-66.31
325.271	-60.87
325.485	-84.15
325.698	-28.63
325.912	5.6
326.125	-7.93
326.339	17.55
326.552	19.05
326.766	20.07
326.979	14.12
327.193	46.52
327.406	29.44
327.619	38.65
327.833	36.91
328.046	10.15
328.26	-14.42
328.473	-17.84
328.686	-39.6
328.9	-24.53
329.113	-8.15
329.326	-30.65
329.54	-19.37
329.753	-20.05
329.966	-42.71
330.179	-10.64
330.393	23.21
330.606	18.17
330.819	33.01
331.032	39.4
331.246	40.45
331.459	58.28
331.672	39.01
331.885	13.54
332.098	-18.76
332.311	-11.03
332.525	-35.77
332.738	-19.73
332.951	8.86
333.164	29.6
333.377	33.9
333.59	56.68
333.803	45.33
334.016	37.52
334.229	31.47
334.442	31.18
334.655	55.59
334.868	60.29
335.081	54.28
335.294	33.1
335.507	36.71
335.72	18.71
335.933	6.41
336.146	7.35
336.359	27.61
336.572	-8.92
336.785	-26.24
336.997	-15.77
337.21	0.5
337.423	-7.54
337.636	8.47
337.849	18.96
338.062	19.41
338.274	28.24
338.487	14.21
338.7	18.37
338.913	-8.53
339.125	-26.8
339.338	-24.12
339.551	-10.23
339.763	15.84
339.976	39.12
340.189	51.36
340.402	46.46
340.614	38.17
340.827	8.22
341.039	-7.04
341.252	-30.81
341.465	-62
341.677	-76.97
341.89	-118.68
342.102	-95.3
342.315	-59.2
342.527	-52.58
342.74	-40.38
342.952	33.54
343.165	29.52
343.377	42.26
343.59	29.3
343.802	69.34
344.015	60.12
344.227	84.29
344.44	56.96
344.652	48.93
344.864	23.6
345.077	34.22
345.289	19.1
345.502	37.49
345.714	41.46
345.926	40.96
346.139	21.24
346.351	22.76
346.563	13.54
346.775	39.33
346.988	15.92
347.2	8.88
347.412	-16.79
347.624	-17.74
347.837	-22.28
348.049	4.61
348.261	26.47
348.473	15.25
348.685	-15.3
348.897	-33.25
349.11	-39.8
349.322	-45.01
349.534	-1.13
349.746	28.4
349.958	34.86
350.17	25.83
350.382	29.75
350.594	19.65
350.806	13.77
351.018	1.22
351.23	-0.61
351.442	-4.19
351.654	-7
351.866	-6.11
352.078	5.4
352.29	12.54
352.502	28.6
352.714	45.9
352.926	31.83
353.138	38.47
353.35	11.58
353.561	-11.54
353.773	-33.16
353.985	-11.83
354.197	-14.67
354.409	2.14
354.621	12.29
354.832	24.95
355.044	2.02
355.256	-3.86
355.468	5.25
355.679	-2.71
355.891	3.41
356.103	-2.21
356.314	-8.8
356.526	-2.35
356.738	22.69
356.949	12.27
357.161	23.27
357.373	38.17
357.584	31.68
357.796	14.15
358.008	-4.87
358.219	10.86
358.431	-3.44
358.642	-0.07
358.854	22.46
359.065	35.99
359.277	10.56
359.488	1.29
359.7	-9.61
359.911	-42.73
360.123	-45.58
360.334	-48.77
360.546	-53.79
360.757	-52.88
360.969	-34.82
361.18	-2.21
361.391	6.64
361.603	1.23
361.814	15.75
362.025	-9.72
362.237	-31.72
362.448	-23
362.659	7.06
362.871	2.17
363.082	24.17
363.293	35.56
363.504	26.8
363.716	9.32
363.927	5.32
364.138	-21.6
364.349	-61.66
364.56	-59.96
364.772	-73.17
364.983	-52.9
365.194	-56.93
365.405	-22.42
365.616	-5.67
365.827	4.64
366.038	-20.92
366.25	9.32
366.461	-13.89
366.672	-0.26
366.883	17.17
367.094	13.57
367.305	-14.79
367.516	8.87
367.727	-6.91
367.938	-32.4
368.149	-35.05
368.36	-3.69
368.571	-14.97
368.781	-24.42
368.992	-21.67
369.203	1.23
369.414	-25.98
369.625	-33.44
369.836	-31.76
370.047	-37.73
370.258	-51.22
370.468	-40.69
370.679	-78.59
370.89	-63.06
371.101	-24.32
371.312	-49.81
371.522	-42.65
371.733	-13.3
371.944	-7.42
372.155	1.91
372.365	-7.73
372.576	-11.61
372.787	-13.28
372.997	-24.42
373.208	-40.04
373.419	-5.13
373.629	-19.16
373.84	-12.58
374.05	-31.97
374.261	-14.75
374.472	-41.4
374.682	-17.68
374.893	-25.51
375.103	14.27
375.314	-3.63
375.524	6.86
375.735	19.47
375.945	27.3
376.156	-2.95
376.366	9.78
376.577	14.67
376.787	3.18
376.997	21.66
377.208	34.72
377.418	13.29
377.629	22.29
377.839	12.87
378.049	0.3
378.26	12.54
378.47	25.54
378.68	13.6
378.89	19.34
379.101	14.12
379.311	-17.27
379.521	-45.16
379.732	-41.26
379.942	-69.67
380.152	-63.78
380.362	-46.75
380.572	-28.16
380.783	-12.89
380.993	7.47
381.203	17.32
381.413	17.89
381.623	20.46
381.833	11.99
382.043	-6.46
382.253	-14.84
382.463	-8.89
382.674	-10.8
382.884	-28.74
383.094	-16.37
383.304	-11.94
383.514	-6.77
383.724	3.88
383.934	0.81
384.144	-5.26
384.353	-1.53
384.563	2.18
384.773	-0.09
384.983	14.05
385.193	19.72
385.403	7.74
385.613	-1.53
385.823	-2.88
386.033	4.06
386.242	-5.1
386.452	4.52
386.662	-1.81
386.872	1.73
387.082	-4.9
387.291	-10.84
387.501	-9.51
387.711	-2.3
387.921	-19.43
388.13	-15.71
388.34	-0.69
388.55	-5.87
388.759	-2.24
388.969	9.42
389.179	7.11
389.388	4.74
389.598	4.16
389.807	-2.27
390.017	-0.73
390.227	-2.4
390.436	-7.99
390.646	-0.29
390.855	3.33
391.065	2.08
391.274	-0.59
391.484	-0.97
391.693	-1.65
391.903	-0.14
392.112	1.36
392.322	8.66
392.531	13.85
392.74	11.81
392.95	6.12
393.159	3.49
393.369	2.43
393.578	-0.78
393.787	-1.93
393.997	3.32
394.206	3.3
394.415	3.09
394.625	3.41
394.834	0.9
395.043	-0.98
395.252	1.04
395.462	2.4
395.671	4.19
395.88	7.52
396.089	8.33
396.298	7.15
396.508	6.3
396.717	5.83
396.926	4.6
397.135	4.15
397.344	3.66
397.553	3.81
397.762	3.98
397.971	4.29
398.181	4.4
398.39	3.26
398.599	2.81
398.808	2.44
399.017	3.33
399.226	3.7
399.435	5.54
399.644	5.6
399.853	5.41
400.062	4.79
400.27	4.64
400.479	4.18
400.688	3.51
400.897	3.88
401.106	3.73
401.315	2.89
401.524	2.62
401.733	3.21
401.941	3.54
402.15	3.54
402.359	4.02
402.568	4.61
402.777	4.47
402.985	4.16
403.194	4.26
403.403	4.37
403.612	3.66
403.82	3.68
404.029	3.74
404.238	3.39
404.446	3.38
404.655	3.22
404.864	3.02
405.072	2.77
405.281	3.14
405.489	2.71
405.698	2.85
405.906	2.85
406.115	2.94
406.324	2.74
406.532	3.04
406.741	3.44
406.949	3.31
407.158	3.18
407.366	3.3
407.574	3.32
407.783	3.21
407.991	3.32
408.2	3.54
408.408	3.35
408.617	3.24
408.825	2.97
409.033	3.1
409.242	2.95
409.45	3.07
409.658	2.88
409.867	3.11
410.075	2.87
410.283	2.76
410.491	2.65
410.7	2.65
410.908	2.6
411.116	2.76
411.324	2.74
411.533	2.81
411.741	3.05
411.949	3.08
412.157	2.85
412.365	3.01
412.573	2.94
412.781	2.88
412.99	2.71
413.198	2.97
413.406	2.89
413.614	2.91
413.822	2.92
414.03	2.96
414.238	2.72
414.446	2.83
414.654	2.61
414.862	2.64
415.07	2.65
415.278	2.92
415.486	2.48
415.694	2.65
415.902	2.42
416.109	2.32
416.317	2.4
416.525	2.36
416.733	2.36
416.941	2.55
417.149	2.56
417.357	2.48
417.564	2.81
417.772	2.81
417.98	2.81
418.188	2.75
418.395	2.61
418.603	2.69
418.811	2.46
419.019	2.2
419.226	2.56
419.434	2.69
419.642	2.42
419.849	2.62
420.057	2.91
420.265	2.69
420.472	2.35
420.68	2.58
420.887	2.36
421.095	2.46
421.302	2.44
421.51	2.86
421.717	2.78
421.925	3.01
422.132	2.79
422.34	2.59
422.547	2.44
422.755	2.49
422.962	2.47
423.17	2.43
423.377	2.5
423.585	2.56
423.792	2.43
423.999	2.53
424.207	2.52
424.414	2.65
424.621	2.7
424.829	2.62
425.036	2.45
425.243	2.42
425.451	2.21
425.658	1.93
425.865	2.07
426.072	2.13
426.28	2.29
426.487	2.24
426.694	2.45
426.901	2.48
427.108	2.52
427.315	2.45
427.523	2.77
427.73	2.76
427.937	2.43
428.144	2.28
428.351	2.29
428.558	2.15
428.765	1.98
428.972	2.1
429.179	2.18
429.386	2.31
429.593	2.21
429.8	2.05
430.007	2.13
430.214	2.32
430.421	2.23
430.628	2.17
430.835	2.03
431.042	2.29
431.249	2.17
431.456	2.33
431.662	2.59
431.869	2.83
432.076	2.83
432.283	2.73
432.49	2.64
432.697	2.63
432.903	2.42
433.11	2.21
433.317	2.48
433.524	2.55
433.73	2.36
433.937	2.73
434.144	2.7
434.35	2.56
434.557	2.45
434.764	2.51
434.97	2.48
435.177	2.62
435.384	2.34
435.59	2.44
435.797	2.61
436.003	2.62
436.21	2.65
436.416	2.83
436.623	2.64
436.829	2.57
437.036	2.57
437.242	2.42
437.449	2.47
437.655	2.45
437.862	2.39
438.068	2.39
438.275	2.53
438.481	2.65
438.687	2.69
438.894	2.69
439.1	2.54
439.307	2.58
439.513	2.38
439.719	2.41
439.926	2.41
440.132	2.46
440.338	2.31
440.544	2.49
440.751	2.41
440.957	2.5
441.163	2.33
441.369	2.42
441.575	2.13
441.782	2.01
441.988	1.73
442.194	1.83
442.4	1.78
442.606	2.08
442.812	2.28
443.018	2.42
443.224	2.59
443.431	2.7
443.637	2.57
443.843	2.33
444.049	2.37
444.255	2.23
444.461	2.11
444.667	1.9
444.873	2.09
445.079	2.16
445.284	2.21
445.49	2.02
445.696	1.96
445.902	1.94
446.108	1.79
446.314	1.67
446.52	1.95
446.726	2.28
446.931	2.25
447.137	2.32
447.343	2.44
447.549	2.12
447.755	2.01
447.96	2.12
448.166	2.03
448.372	2.11
448.578	2.19
448.783	2.21
448.989	2.23
449.195	2.45
449.4	2.24
449.606	2.24
449.812	2.15
450.017	2.22
450.223	2.07
450.428	2.02
450.634	2.23
450.84	2.41
451.045	2.16
451.251	2.1
451.456	2.26
451.662	2.31
451.867	2.23
452.073	2.19
452.278	2.31
452.483	2.42
452.689	2.3
452.894	2.38
453.1	2.55
453.305	2.37
453.51	2.13
453.716	2.05
453.921	2.05
454.127	2.01
454.332	2
454.537	1.98
454.742	2.05
454.948	2.09
455.153	2.03
455.358	2.18
455.563	2.47
455.769	2.5
455.974	2.29
456.179	2.24
456.384	2.16
456.589	2.01
456.795	1.83
457	1.96
457.205	2.17
457.41	2.08
457.615	2.05
457.82	2.27
458.025	2.27
458.23	1.95
458.435	2.2
458.64	2.03
458.845	2.08
459.05	2.02
459.255	2.07
459.46	1.93
459.665	2.06
459.87	2.03
460.075	1.89
460.28	2
460.485	2.13
460.69	2.14
460.895	1.78
461.099	1.77
461.304	1.9
461.509	1.92
461.714	1.8
461.919	2.12
462.123	2.08
462.328	2.15
462.533	1.85
462.738	2.01
462.942	1.8
463.147	2.01
463.352	2
463.556	2.08
463.761	2.16
463.966	2.42
464.17	2.46
464.375	2.24
464.58	2.23
464.784	2.18
464.989	1.92
465.193	1.82
465.398	1.91
465.602	2.2
465.807	2.12
466.011	2.27
466.216	2.4
466.42	2.45
466.625	2.38
466.829	2.51
467.034	2.6
467.238	2.68
467.443	2.66
467.647	2.41
467.851	2.38
468.056	2.46
468.26	2.25
468.464	2.16
468.669	2.47
468.873	2.58
469.077	2.57
469.282	2.6
469.486	2.75
469.69	2.65
469.894	2.52
470.099	2.5
470.303	2.62
470.507	2.44
470.711	2.29
470.915	2.22
471.119	2.16
471.324	2
471.528	1.97
471.732	2.19
471.936	2.18
472.14	2.33
472.344	2.45
472.548	2.61
472.752	2.68
472.956	2.84
473.16	2.64
473.364	2.5
473.568	2.54
473.772	2.47
473.976	2.43
474.18	2.47
474.384	2.5
474.588	2.3
474.792	2.19
474.995	2.21
475.199	2.26
475.403	2.37
475.607	2.49
475.811	2.49
476.015	2.54
476.218	2.54
476.422	2.46
476.626	2.58
476.83	2.74
477.033	2.61
477.237	2.44
477.441	2.48
477.644	2.27
477.848	2.16
478.052	2
478.255	2.06
478.459	2.13
478.663	2.4
478.866	2.46
479.07	2.64
479.273	2.92
479.477	2.93
479.681	2.77
479.884	2.72
480.088	2.59
480.291	2.4
480.495	2.32
480.698	2.35
480.901	2.45
481.105	2.67
481.308	2.63
481.512	2.51
481.715	2.59
481.919	2.57
482.122	2.48
482.325	2.53
482.529	2.65
482.732	2.55
482.935	2.43
483.138	2.38
483.342	2.51
483.545	2.63
483.748	2.72
483.952	2.87
484.155	3.06
484.358	3.02
484.561	2.87
484.764	2.85
484.967	2.8
485.171	2.83
485.374	2.67
485.577	2.78
485.78	2.79
485.983	2.81
486.186	2.63
486.389	2.62
486.592	2.62
486.795	2.62
486.998	2.54
487.201	2.65
487.404	2.88
487.607	2.99
487.81	3.01
488.013	3.07
488.216	3.04
488.419	3.05
488.622	2.8
488.825	2.72
489.028	2.69
489.231	2.67
489.433	2.48
489.636	2.46
489.839	2.35
490.042	2.29
490.245	2.22
490.447	2.28
490.65	2.36
490.853	2.58
491.056	2.64
491.258	2.69
491.461	2.71
491.664	2.8
491.866	2.58
492.069	2.71
492.272	2.71
492.474	2.71
492.677	2.79
492.879	2.95
493.082	2.96
493.285	3.13
493.487	3
493.69	2.85
493.892	2.66
494.095	2.59
494.297	2.42
494.5	2.65
494.702	2.74
494.905	2.93
495.107	2.88
495.309	2.95
495.512	2.91
495.714	2.93
495.917	2.94
496.119	2.95
496.321	3
496.524	3.01
496.726	2.97
496.928	3.01
497.13	2.98
497.333	2.99
497.535	3.05
497.737	2.99
497.939	2.91
498.142	3.04
498.344	2.84
498.546	2.69
498.748	2.83
498.95	2.91
499.152	2.78
499.355	2.95
499.557	3.09
499.759	3.08
499.961	3.03
500.163	3.11
500.365	3.1
500.567	3.07
500.769	2.9
500.971	2.96
501.173	2.86
501.375	2.89
501.577	2.75
501.779	2.88
501.981	2.83
502.183	2.87
502.385	2.8
502.587	2.79
502.788	2.81
502.99	2.85
503.192	2.93
503.394	2.92
503.596	2.98
503.798	3.07
503.999	3.05
504.201	3.04
504.403	3.16
504.605	3.25
504.806	3.11
505.008	3.05
505.21	3.09
505.411	3.06
505.613	2.92
505.815	3.04
506.016	3.14
506.218	3.18
506.42	3.06
506.621	3.11
506.823	3.08
507.024	3.09
507.226	3
507.427	3
507.629	3.14
507.83	3.16
508.032	3.02
508.233	3.13
508.435	3.24
508.636	3.24
508.838	3.15
509.039	3.22
509.24	3.22
509.442	3.2
509.643	3.09
509.845	3.18
510.046	3.26
510.247	3.21
510.448	3.21
510.65	3.35
510.851	3.45
511.052	3.45
511.254	3.4
511.455	3.53
511.656	3.5
511.857	3.5
512.058	3.45
512.26	3.48
512.461	3.4
512.662	3.46
512.863	3.3
513.064	3.3
513.265	3.37
513.466	3.44
513.667	3.31
513.868	3.43
514.069	3.53
514.27	3.58
514.471	3.45
514.672	3.56
514.873	3.6
515.074	3.63
515.275	3.47
515.476	3.54
515.677	3.55
515.878	3.63
516.079	3.55
516.28	3.68
516.481	3.78
516.682	3.78
516.882	3.68
517.083	3.74
517.284	3.59
517.485	3.56
517.686	3.53
517.886	3.54
518.087	3.57
518.288	3.78
518.488	3.69
518.689	3.73
518.89	3.66
519.091	3.61
519.291	3.48
519.492	3.53
519.692	3.59
519.893	3.77
520.094	3.78
520.294	3.74
520.495	3.73
520.695	3.7
520.896	3.62
521.096	3.71
521.297	3.85
521.497	3.94
521.698	3.84
521.898	3.81
522.099	3.77
522.299	3.79
522.499	3.71
522.7	3.85
522.9	3.9
523.101	3.96
523.301	3.95
523.501	3.95
523.702	3.89
523.902	4.02
524.102	4.06
524.302	4.05
524.503	4.13
524.703	4.15
524.903	4.07
525.103	3.95
525.304	4
525.504	4.06
525.704	4.12
525.904	4.12
526.104	4.17
526.304	4.22
526.504	4.2
526.705	4.16
526.905	4.27
527.105	4.33
527.305	4.32
527.505	4.2
527.705	4.22
527.905	4.17
528.105	4.1
528.305	3.97
528.505	4.13
528.705	4.23
528.905	4.15
529.105	4.23
529.304	4.39
529.504	4.49
529.704	4.36
529.904	4.43
530.104	4.43
530.304	4.55
530.503	4.43
530.703	4.44
530.903	4.46
531.103	4.53
531.303	4.34
531.502	4.35
531.702	4.46
531.902	4.55
532.101	4.4
532.301	4.42
532.501	4.49
532.7	4.52
532.9	4.4
533.1	4.52
533.299	4.51
533.499	4.56
533.698	4.42
533.898	4.52
534.097	4.53
534.297	4.65
534.496	4.64
534.696	4.78
534.895	4.88
535.095	4.91
535.294	4.88
535.494	4.7
535.693	4.67
535.892	4.67
536.092	4.62
536.291	4.64
536.491	4.76
536.69	4.82
536.889	4.64
537.088	4.63
537.288	4.72
537.487	4.81
537.686	4.76
537.886	4.91
538.085	4.94
538.284	4.96
538.483	4.88
538.682	5.01
538.882	5.04
539.081	5.18
539.28	5.07
539.479	5.08
539.678	5.02
539.877	5.14
540.076	5.08
540.275	5.22
540.474	5.37
540.673	5.45
540.872	5.37
541.071	5.4
541.27	5.35
541.469	5.36
541.668	5.39
541.867	5.38
542.066	5.38
542.265	5.51
542.464	5.43
542.663	5.45
542.862	5.63
543.06	5.68
543.259	5.6
543.458	5.76
543.657	5.79
543.856	5.76
544.054	5.78
544.253	5.81
544.452	5.71
544.651	5.74
544.849	5.68
545.048	5.76
545.247	5.77
545.445	5.91
545.644	5.9
545.843	5.91
546.041	5.95
546.24	6.13
546.438	6.18
546.637	6.23
546.836	6.42
547.034	6.47
547.233	6.49
547.431	6.49
547.63	6.59
547.828	6.52
548.027	6.59
548.225	6.51
548.423	6.62
548.622	6.62
548.82	6.66
549.019	6.63
549.217	6.82
549.415	6.81
549.614	6.92
549.812	6.89
550.01	6.89
550.209	6.92
550.407	6.98
550.605	6.96
550.803	7.13
551.002	7.19
551.2	7.15
551.398	7.24
551.596	7.4
551.794	7.47
551.993	7.6
552.191	7.65
552.389	7.7
552.587	7.81
552.785	7.86
552.983	7.93
553.181	8.17
553.379	8.25
553.577	8.1
553.775	8.2
553.973	8.26
554.171	8.32
554.369	8.26
554.567	8.37
554.765	8.46
554.963	8.56
555.161	8.47
555.359	8.67
555.557	8.8
555.755	8.91
555.952	9.05
556.15	9.17
556.348	9.27
556.546	9.39
556.744	9.34
556.941	9.33
557.139	9.46
557.337	9.52
557.535	9.55
557.732	9.7
557.93	9.86
558.128	9.96
558.325	10.02
558.523	10.07
558.721	10.28
558.918	10.25
559.116	10.27
559.313	10.26
559.511	10.45
559.708	10.35
559.906	10.46
560.104	10.55
560.301	10.79
560.498	10.81
560.696	10.93
560.893	11.01
561.091	11.14
561.288	11.13
561.486	11.3
561.683	11.44
561.88	11.63
562.078	11.74
562.275	11.81
562.473	11.87
562.67	12.06
562.867	12.17
563.064	12.29
563.262	12.4
563.459	12.5
563.656	12.59
563.853	12.55
564.051	12.58
564.248	12.8
564.445	12.88
564.642	12.91
564.839	13.04
565.036	13.29
565.234	13.48
565.431	13.56
565.628	13.73
565.825	13.86
566.022	13.89
566.219	13.78
566.416	13.84
566.613	13.82
566.81	13.93
567.007	13.94
567.204	13.97
567.401	14.02
567.598	14.13
567.795	14.11
567.991	14.19
568.188	14.44
568.385	14.6
568.582	14.76
568.779	14.87
568.976	15.06
569.172	15.22
569.369	15.27
569.566	15.3
569.763	15.41
569.96	15.37
570.156	15.27
570.353	15.3
570.55	15.35
570.746	15.44
570.943	15.49
571.14	15.63
571.336	15.76
571.533	15.85
571.729	15.87
571.926	15.98
572.123	16
572.319	16
572.516	15.97
572.712	16.04
572.909	16.13
573.105	16.23
573.302	16.31
573.498	16.44
573.695	16.36
573.891	16.38
574.087	16.42
574.284	16.32
574.48	16.21
574.677	16.34
574.873	16.35
575.069	16.46
575.266	16.68
575.462	16.71
575.658	16.81
575.854	16.93
576.051	16.93
576.247	16.87
576.443	17
576.639	16.89
576.835	16.83
577.032	16.77
577.228	16.9
577.424	16.95
577.62	17.01
577.816	17
578.012	17
578.208	16.94
578.404	17
578.6	17.03
578.796	17.12
578.993	17.19
579.189	17.19
579.384	17.07
579.58	16.97
579.776	16.97
579.972	16.8
580.168	16.69
580.364	16.65
580.56	16.81
580.756	16.77
580.952	16.76
581.148	16.77
581.343	16.9
581.539	16.73
581.735	16.75
581.931	16.92
582.127	17
582.322	16.91
582.518	17.1
582.714	17.12
582.909	16.88
583.105	16.84
583.301	16.74
583.496	16.72
583.692	16.5
583.888	16.59
584.083	16.6
584.279	16.75
584.474	16.64
584.67	16.77
584.866	16.81
585.061	16.77
585.257	16.82
585.452	16.76
585.648	16.68
585.843	16.71
586.039	16.67
586.234	16.59
586.429	16.55
586.625	16.73
586.82	16.62
587.015	16.61
587.211	16.45
587.406	16.59
587.601	16.38
587.797	16.34
587.992	16.29
588.187	16.52
588.383	16.51
588.578	16.67
588.773	16.72
588.968	16.89
589.163	16.84
589.359	16.75
589.554	16.66
589.749	16.8
589.944	16.81
590.139	16.84
590.334	16.87
590.529	16.98
590.724	16.96
590.919	16.93
591.114	16.92
591.309	17.08
591.504	17.12
591.699	16.97
591.894	17.06
592.089	17.02
592.284	16.98
592.479	17.03
592.674	17.1
592.869	17.13
593.064	17.28
593.259	17.38
593.454	17.43
593.648	17.54
593.843	17.61
594.038	17.62
594.233	17.47
594.428	17.41
594.622	17.48
594.817	17.62
595.012	17.65
595.206	17.82
595.401	17.99
595.596	18.06
595.79	17.95
595.985	18.12
596.18	18.17
596.374	18.2
596.569	18.23
596.763	18.15
596.958	18.07
597.153	18.13
597.347	18.12
597.542	18.22
597.736	18.37
597.931	18.51
598.125	18.62
598.319	18.79
598.514	18.77
598.708	18.81
598.903	18.79
599.097	18.81
599.291	18.78
599.486	18.77
599.68	18.76
599.874	18.9
600.069	18.9
600.263	18.85
600.457	18.94
600.651	19.07
600.846	18.93
601.04	18.93
601.234	18.87
601.428	18.94
601.622	18.95
601.817	19.16
602.011	19.15
602.205	19.31
602.399	19.21
602.593	19.14
602.787	19.09
602.981	19.14
603.175	19.12
603.369	19.05
603.563	19.16
603.757	19.13
603.951	19.18
604.145	19.19
604.339	19.35
604.533	19.22
604.727	19.13
604.921	19.03
605.115	18.97
605.309	18.97
605.502	19.05
605.696	19.06
605.89	19.03
606.084	19.03
606.278	18.88
606.471	18.73
606.665	18.59
606.859	18.55
607.053	18.43
607.246	18.46
607.44	18.41
607.634	18.4
607.827	18.25
608.021	18.09
608.214	17.98
608.408	17.92
608.602	17.88
608.795	17.79
608.989	17.8
609.182	17.7
609.376	17.72
609.569	17.69
609.763	17.62
609.956	17.59
610.15	17.56
610.343	17.33
610.537	17.17
610.73	17.22
610.923	17.1
611.117	17.01
611.31	16.98
611.504	16.98
611.697	16.81
611.89	16.77
612.083	16.67
612.277	16.68
612.47	16.59
612.663	16.47
612.856	16.33
613.05	16.21
613.243	16.05
613.436	15.86
613.629	15.88
613.822	15.89
614.015	15.83
614.209	15.72
614.402	15.75
614.595	15.66
614.788	15.56
614.981	15.46
615.174	15.34
615.367	15.2
615.56	15.06
615.753	15
615.946	14.89
616.139	15.05
616.332	15.15
616.525	15.15
616.718	15.13
616.911	15.16
617.103	15.1
617.296	14.98
617.489	14.93
617.682	14.87
617.875	14.81
618.067	14.7
618.26	14.56
618.453	14.58
618.646	14.55
618.838	14.55
619.031	14.57
619.224	14.61
619.417	14.45
619.609	14.45
619.802	14.41
619.994	14.33
620.187	14.37
620.38	14.37
620.572	14.17
620.765	14.1
620.957	14
621.15	13.75
621.342	13.64
621.535	13.82
621.727	13.83
621.92	13.78
622.112	13.88
622.305	13.97
622.497	13.78
622.69	13.79
622.882	13.81
623.074	13.82
623.267	13.76
623.459	13.71
623.651	13.59
623.844	13.55
624.036	13.51
624.228	13.47
624.42	13.51
624.613	13.58
624.805	13.57
624.997	13.54
625.189	13.59
625.381	13.62
625.574	13.58
625.766	13.43
625.958	13.46
626.15	13.48
626.342	13.39
626.534	13.4
626.726	13.52
626.918	13.5
627.11	13.37
627.302	13.31
627.494	13.21
627.686	13.15
627.878	13
628.07	12.9
628.262	12.85
628.454	12.82
628.646	12.79
628.838	12.83
629.029	12.8
629.221	12.87
629.413	12.71
629.605	12.61
629.797	12.47
629.989	12.61
630.18	12.57
630.372	12.63
630.564	12.63
630.755	12.8
630.947	12.75
631.139	12.59
631.33	12.55
631.522	12.64
631.714	12.49
631.905	12.37
632.097	12.45
632.289	12.5
632.48	12.45
632.672	12.33
632.863	12.18
633.055	12.15
633.246	12.12
633.438	12.01
633.629	11.99
633.821	12.13
634.012	12.12
634.203	11.94
634.395	11.93
634.586	12.04
634.777	11.93
634.969	11.81
635.16	11.93
635.351	11.95
635.543	11.9
635.734	11.89
635.925	11.97
636.117	11.97
636.308	11.83
636.499	11.77
636.69	11.73
636.881	11.64
637.073	11.68
637.264	11.66
637.455	11.7
637.646	11.82
637.837	11.92
638.028	11.77
638.219	11.9
638.41	11.8
638.601	11.65
638.792	11.62
638.983	11.54
639.174	11.33
639.365	11.35
639.556	11.36
639.747	11.25
639.938	11.31
640.129	11.38
640.32	11.31
640.511	11.25
640.701	11.37
640.892	11.4
641.083	11.44
641.274	11.5
641.465	11.59
641.655	11.42
641.846	11.33
642.037	11.28
642.228	11.25
642.418	11.27
642.609	11.2
642.8	11.27
642.99	11.15
643.181	11.16
643.372	11.08
643.562	11.07
643.753	10.94
643.943	10.93
644.134	10.78
644.324	10.76
644.515	10.77
644.705	10.91
644.896	10.98
645.086	11.07
645.277	10.97
645.467	11
645.658	10.83
645.848	10.78
646.038	10.77
646.229	10.82
646.419	10.7
646.61	10.57
646.8	10.54
646.99	10.45
647.18	10.46
647.371	10.58
647.561	10.55
647.751	10.55
647.941	10.58
648.132	10.49
648.322	10.43
648.512	10.49
648.702	10.4
648.892	10.36
649.082	10.39
649.272	10.19
649.462	10.11
649.653	10.06
649.843	10.02
650.033	10.03
650.223	10.06
650.413	10.08
650.603	10.12
650.793	10.03
650.983	9.87
651.172	9.77
651.362	9.72
651.552	9.54
651.742	9.4
651.932	9.44
652.122	9.51
652.312	9.57
652.502	9.64
652.691	9.66
652.881	9.57
653.071	9.51
653.261	9.24
653.45	9.07
653.64	9.09
653.83	9.02
654.019	9.07
654.209	9.26
654.399	9.42
654.588	9.32
654.778	9.23
654.968	8.96
655.157	8.85
655.347	8.68
655.536	8.51
655.726	8.43
655.915	8.33
656.105	8.17
656.294	8.06
656.484	7.86
656.673	7.74
656.863	7.85
657.052	7.63
657.241	7.41
657.431	7.33
657.62	7.08
657.809	6.81
657.999	6.66
658.188	6.46
658.377	6.47
658.567	6.53
658.756	6.46
658.945	6.29
659.134	6.26
659.324	6.18
659.513	6.09
659.702	5.78
659.891	5.9
660.08	5.82
660.269	5.71
660.458	5.66
660.648	5.74
660.837	5.49
661.026	5.41
661.215	5.26
661.404	4.94
661.593	5.06
661.782	4.92
661.971	4.86
662.16	4.89
662.349	5
662.538	4.63
662.726	4.76
662.915	4.73
663.104	4.47
663.293	4.4
663.482	4.62
663.671	4.44
663.86	4.27
664.048	4.24
664.237	4.18
664.426	3.81
664.615	3.88
664.803	3.98
664.992	4.03
665.181	3.99
665.369	3.95
665.558	3.88
665.747	3.72
665.935	3.76
666.124	3.78
666.312	3.98
666.501	3.87
666.69	3.84
666.878	3.8
667.067	3.61
667.255	3.59
667.444	3.85
667.632	3.92
667.82	3.92
668.009	3.96
668.197	3.93
668.386	3.83
668.574	3.97
668.762	3.89
668.951	3.87
669.139	3.73
669.327	3.53
669.516	3.46
669.704	3.53
669.892	3.69
670.08	3.88
670.269	3.91
670.457	3.87
670.645	3.82
670.833	3.84
671.021	3.81
671.21	4.02
671.398	4.22
671.586	4.18
671.774	4.14
671.962	4.1
672.15	3.88
672.338	3.57
672.526	3.77
672.714	3.52
672.902	3.52
673.09	3.83
673.278	4.22
673.466	4.16
673.654	4.65
673.842	4.64
674.03	4.71
674.218	4.5
674.405	4.49
674.593	4.33
674.781	4.58
674.969	4.37
675.157	4.57
675.344	4.71
675.532	4.65
675.72	4.65
675.908	4.88
676.095	4.67
676.283	4.75
676.471	5.04
676.658	5.08
676.846	5
677.033	5.21
677.221	5.03
677.409	4.87
677.596	4.85
677.784	4.93
677.971	4.98
678.159	5.25
678.346	5.4
678.534	5.41
678.721	5.62
678.909	5.66
679.096	5.72
679.283	5.83
679.471	5.96
679.658	6.01
679.846	6.27
680.033	6.49
680.22	6.49
680.408	6.62
680.595	6.72
680.782	6.54
680.969	6.52
681.157	6.4
681.344	6.39
681.531	6.26
681.718	6.34
681.905	6.41
682.093	6.62
682.28	6.86
682.467	7.18
682.654	7.39
682.841	7.37
683.028	7.68
683.215	7.72
683.402	7.58
683.589	7.77
683.776	7.85
683.963	7.78
684.15	8.02
684.337	8.15
684.524	8.11
684.711	8.3
684.898	8.39
685.085	8.39
685.271	8.75
685.458	9.07
685.645	9.25
685.832	9.6
686.019	9.83
686.205	10.01
686.392	10.09
686.579	10.36
686.766	10.59
686.952	10.72
687.139	11.12
687.326	11.23
687.512	11.58
687.699	11.68
687.886	11.94
688.072	11.79
688.259	12.34
688.445	12.56
688.632	12.65
688.818	13.23
689.005	13.55
689.191	13.91
689.378	14.55
689.564	15.32
689.751	15.31
689.937	15.99
690.124	16.11
690.31	16.06
690.496	16.16
690.683	16.99
690.869	17.45
691.055	18.11
691.242	18.86
691.428	19.55
691.614	20.01
691.8	20.43
691.987	20.82
692.173	21.3
692.359	21.95
692.545	22.47
692.731	22.73
692.918	23.39
693.104	23.75
693.29	24.34
693.476	24.64
693.662	25.55
693.848	25.99
694.034	26.56
694.22	26.86
694.406	27.58
694.592	28.29
694.778	28.63
694.964	29.05
695.15	29.61
695.336	30.15
695.522	30.48
695.708	31.24
695.894	31.88
696.08	32.4
696.265	32.98
696.451	33.41
696.637	34.27
696.823	34.76
697.009	35.39
697.194	35.82
697.38	36.35
697.566	36.46
697.751	36.87
697.937	37.32
698.123	37.83
698.308	38.51
698.494	39.01
698.68	39.93
698.865	40.31
699.051	40.93
699.236	41.2
699.422	41.76
699.607	41.93
699.793	42.48
699.978	42.69
700.164	43.05
700.349	43.89
700.535	44.39
700.72	44.65
700.906	45.33
701.091	45.82
701.276	45.87
701.462	46.59
701.647	47.59
701.832	47.8
702.018	48.3
702.203	49.05
702.388	49
702.573	48.68
702.759	49.41
702.944	49.41
703.129	49.17
703.314	50.06
703.499	50.97
703.684	51.25
703.87	52.15
704.055	53.15
704.24	53.22
704.425	53.38
704.61	53.41
704.795	53.42
704.98	53.22
705.165	53.05
705.35	53.16
705.535	53.19
705.72	53.85
705.905	54.3
706.09	54.99
706.275	55.33
706.459	55.4
706.644	55.4
706.829	55.67
707.014	55.66
707.199	56.05
707.384	56.91
707.568	57.02
707.753	57.72
707.938	57.95
708.123	58.13
708.307	57.82
708.492	57.85
708.677	56.88
708.861	56.86
709.046	56.68
709.231	57.44
709.415	57.46
709.6	58.37
709.784	58.45
709.969	59.13
710.153	58.83
710.338	59.76
710.522	59.49
710.707	60.27
710.891	60.08
711.076	60.7
711.26	59.68
711.445	60.23
711.629	60.05
711.813	60.29
711.998	60.15
712.182	60.56
712.366	61.01
712.551	62.1
712.735	61.93
712.919	62.12
713.103	62.89
713.288	62.36
713.472	61.7
713.656	62.68
713.84	63.11
714.024	63.11
714.208	63.63
714.393	64.13
714.577	64.14
714.761	63.83
714.945	64.5
715.129	64.09
715.313	63.73
715.497	63.29
715.681	64.24
715.865	64.15
716.049	64.94
716.233	65.5
716.417	65.82
716.601	65.2
716.785	65.03
716.968	65.53
717.152	65.8
717.336	65.98
717.52	65.86
717.704	66.33
717.888	66.43
718.071	66.32
718.255	66.7
718.439	67.23
718.622	67.76
718.806	67.21
718.99	66.51
719.174	66.96
719.357	67.36
719.541	66.33
719.724	66.9
719.908	68.78
720.092	69.01
720.275	69.4
720.459	70.82
720.642	70.86
720.826	70.29
721.009	69.57
721.193	68.63
721.376	68.12
721.559	68.7
721.743	69.15
721.926	69.7
722.11	69.97
722.293	69.88
722.476	69
722.66	68.79
722.843	68.58
723.026	68.91
723.21	69.22
723.393	70.53
723.576	71.03
723.759	70.78
723.942	71.44
724.126	71.46
724.309	71.59
724.492	71.12
724.675	72.04
724.858	72.04
725.041	73.04
725.224	72.27
725.407	72.53
725.59	72.42
725.774	71.91
725.957	71.11
726.14	71.53
726.322	71.94
726.505	71.9
726.688	73.19
726.871	73.35
727.054	74.12
727.237	73.94
727.42	74.87
727.603	74.7
727.786	74.99
727.968	75.1
728.151	75.15
728.334	74.47
728.517	74.67
728.699	75.41
728.882	74.59
729.065	75.06
729.248	75.9
729.43	76.56
729.613	77.18
729.796	77.59
729.978	76.8
730.161	76.21
730.343	76.31
730.526	75.75
730.708	75.37
730.891	76.26
731.073	76.11
731.256	75.25
731.438	75.95
731.621	77.24
731.803	77.93
731.986	78.51
732.168	79.06
732.35	78.82
732.533	78.26
732.715	77.84
732.898	79.33
733.08	79.3
733.262	79.24
733.444	78.71
733.627	78.49
733.809	78.63
733.991	79.62
734.173	79.74
734.355	80.87
734.538	81.54
734.72	79.92
734.902	79.38
735.084	78.54
735.266	79.36
735.448	79.48
735.63	79.61
735.812	79.36
735.994	81.13
736.176	80.91
736.358	81.37
736.54	82.7
736.722	83.24
736.904	81.96
737.086	80.82
737.268	82.24
737.45	82.04
737.632	81.49
737.814	81.19
737.995	82.64
738.177	81.32
738.359	81.23
738.541	82.35
738.723	83.4
738.904	83.53
739.086	83.12
739.268	83.05
739.449	82.42
739.631	82.96
739.813	82.28
739.994	82.68
740.176	82.91
740.358	83.48
740.539	84.33
740.721	84.19
740.902	85.51
741.084	85.45
741.265	84.73
741.447	84.54
741.628	84.7
741.81	82.39
741.991	83.64
742.172	85.21
742.354	85.69
742.535	85.61
742.717	88.1
742.898	86.31
743.079	86.59
743.261	85.69
743.442	85.4
743.623	84.18
743.804	85.46
743.986	85.47
744.167	83.22
744.348	84.47
744.529	84.84
744.71	84.24
744.891	83.81
745.073	85.86
745.254	85.89
745.435	86.1
745.616	85.18
745.797	84.27
745.978	83.44
746.159	82.58
746.34	81.27
746.521	82.48
746.702	82.46
746.883	83.41
747.064	81.83
747.245	82.45
747.426	82.59
747.606	83.4
747.787	83.83
747.968	85.62
748.149	86.27
748.33	86.46
748.51	85.17
748.691	82.81
748.872	84.94
749.053	83.59
749.233	82.56
749.414	82.32
749.595	83.5
749.775	80.52
749.956	79.51
750.137	79.09
750.317	80.31
750.498	82.17
750.678	82.61
750.859	84.59
751.04	86.07
751.22	85.24
751.4	82.01
751.581	82.58
751.761	83.24
751.942	84.73
752.122	85.78
752.303	86.45
752.483	86.68
752.663	86.46
752.844	85.35
753.024	85.73
753.204	87.01
753.385	85.59
753.565	83.49
753.745	82.88
753.925	82.35
754.106	83.26
754.286	85.1
754.466	86.26
754.646	87.87
754.826	88
755.006	85.95
755.187	87.5
755.367	88.2
755.547	88.26
755.727	89.63
755.907	89.36
756.087	89.7
756.267	88.58
756.447	87.43
756.627	86.05
756.807	88.72
756.987	86.14
757.167	89.02
757.346	88.52
757.526	86.55
757.706	86.21
757.886	86.62
758.066	86.5
758.246	88.73
758.425	91.42
758.605	89.5
758.785	89.28
758.965	87.65
759.144	83.63
759.324	82.24
759.504	84.74
759.683	84.57
759.863	83.45
760.043	84.64
760.222	84.71
760.402	82.67
760.581	84.08
760.761	86.06
760.94	83.73
761.12	83.98
761.299	86.38
761.479	85.3
761.658	83.62
761.838	85.56
762.017	86.67
762.197	84.55
762.376	84.66
762.555	85.89
762.735	87.72
762.914	84.4
763.093	86.5
763.273	84.32
763.452	85.08
763.631	82.65
763.81	83.54
763.99	82.19
764.169	84.84
764.348	80.43
764.527	80.8
764.706	84.96
764.885	86.81
765.064	85.33
765.243	87.59
765.423	87.86
765.602	86.09
765.781	82.78
765.96	80.56
766.139	81.88
766.318	81.88
766.497	82.85
766.676	84.21
766.854	87.58
767.033	86.58
767.212	86.5
767.391	83.63
767.57	84.7
767.749	85.9
767.928	87.08
768.106	84.97
768.285	83.56
768.464	84.76
768.643	83.08
768.821	82.81
769	87.03
769.179	88.71
769.357	83.39
769.536	79.75
769.715	82.22
769.893	82.06
770.072	81.04
770.25	80.48
770.429	82.19
770.607	80.74
770.786	80.32
770.964	81.56
771.143	85.01
771.321	89.56
771.5	89.46
771.678	86.56
771.857	83.16
772.035	85.59
772.213	82.29
772.392	77.66
772.57	82.07
772.748	86.9
772.927	81.76
773.105	82.15
773.283	87.59
773.461	86.7
773.64	83.53
773.818	82.26
773.996	83.4
774.174	82.02
774.352	77.43
774.531	78.5
774.709	82.94
774.887	82.21
775.065	79.34
775.243	81.93
775.421	84.93
775.599	87.02
775.777	83.81
775.955	82.83
776.133	81.82
776.311	77.23
776.489	70.71
776.667	73.87
776.844	78.79
777.022	76.81
777.2	77.72
777.378	80.34
777.556	82.27
777.734	80.95
777.911	83.94
778.089	83.16
778.267	86.21
778.445	81.84
778.622	79.22
778.8	80.16
778.978	86.35
779.155	83.08
779.333	84.64
779.511	81.5
779.688	82.8
779.866	72.9
780.043	70.79
780.221	71.3
780.398	73.26
780.576	72.35
780.753	78.78
780.931	80.04
781.108	78.21
781.286	81.12
781.463	74
781.64	71.93
781.818	76.43
781.995	80.01
782.172	77.56
782.35	83.59
782.527	85.6
782.704	80.54
782.882	80.07
783.059	81.31
783.236	82.35
783.413	82.44
783.59	83.6
783.768	77
783.945	79.83
784.122	79.94
784.299	77.67
784.476	75.57
784.653	80.71
784.83	75.36
785.007	67.58
785.184	70.69
785.361	74.81
785.538	77.43
785.715	80.57
785.892	85.73
786.069	85.31
786.246	85.65
786.423	77.34
786.6	75.56
786.776	78.45
786.953	78.02
787.13	78.67
787.307	84.83
787.484	88.97
787.66	85.31
787.837	79.59
788.014	78.18
788.191	75.86
788.367	72.63
788.544	78.5
788.721	80.87
788.897	80.61
789.074	82.55
789.25	79.05
789.427	76.21
789.603	75.68
789.78	79.58
789.956	68.83
790.133	70.62
790.309	67.22
790.486	74.6
790.662	68.77
790.839	74.16
791.015	81.07
791.192	77.77
791.368	74.9
791.544	70.19
791.721	79.01
791.897	71.02
792.073	71.81
792.249	67.22
792.426	71.23
792.602	67.47
792.778	65.17
792.954	64.69
793.13	60.64
793.307	60.65
793.483	50.72
793.659	52.12
793.835	52.84
794.011	56.86
794.187	49.8
794.363	48.86
794.539	53.6
794.715	53.5
794.891	50.15
795.067	55.3
795.243	69.05
795.419	70.65
795.595	71.34
795.771	76.63
795.947	80.94
796.122	68.61
796.298	70.85
796.474	74.6
796.65	70.37
796.826	65.68
797.001	73.38
797.177	61.12
797.353	63.65
797.529	73.12
797.704	69.05
797.88	65.49
798.056	63.25
798.231	56.29
798.407	54.52
798.582	58.87
798.758	64.41
798.934	75.67
799.109	71.02
799.285	60.57
799.46	72.34
799.636	68.86
799.811	66.53
799.986	75.74
800.162	86.46
800.337	81.72
800.513	77.32
800.688	77.64
800.863	82.75
801.039	73.74
801.214	66.72
801.389	74.05
801.565	71.75
801.74	63.54
801.915	68.96
802.09	69.47
802.265	70.12
802.441	71.14
802.616	66.99
802.791	61.42
802.966	64.58
803.141	62.91
803.316	49.2
803.491	58.6
803.666	63.79
803.841	62.15
804.016	55.68
804.191	68.26
804.366	61.27
804.541	59.24
804.716	46.85
804.891	46.72
805.066	51.85
805.241	58.39
805.416	58.21
805.591	62.93
805.765	65.92
805.94	67.96
806.115	61.65
806.29	55.34
806.464	64.63
806.639	57.53
806.814	41.08
806.989	28.93
807.163	44.34
807.338	35.69
807.512	40.9
807.687	36.59
807.862	50.58
808.036	47.07
808.211	52.43
808.385	58.28
808.56	78
808.734	76.83
808.909	77.46
809.083	68.08
809.258	76.63
809.432	69.15
809.606	48.9
809.781	44.98
809.955	65.92
810.13	64.03
810.304	50.66
810.478	59.01
810.652	71.01
810.827	71.87
811.001	67.06
811.175	68.48
811.349	75.5
811.524	63.23
811.698	36.37
811.872	30.9
812.046	45.34
812.22	49.33
812.394	45.2
812.568	52.01
812.742	54.52
812.916	41.41
813.09	36.52
813.264	36.41
813.438	51.55
813.612	41.03
813.786	26.24
813.96	38.61
814.134	46.76
814.308	47.74
814.482	59.03
814.656	77.05
814.83	79.34
815.003	76.19
815.177	68.98
815.351	57.39
815.525	71.97
815.698	63.54
815.872	43.69
816.046	40.65
816.219	53.79
816.393	54.62
816.567	54.75
816.74	64.52
816.914	82.14
817.088	77.23
817.261	60.74
817.435	50.56
817.608	49.26
817.782	29.15
817.955	31.74
818.129	23.69
818.302	36.95
818.475	61.38
818.649	63.9
818.822	44.71
818.996	61.97
819.169	61.19
819.342	36.7
819.516	45.58
819.689	68.63
819.862	54.2
820.035	35.34
820.209	25.58
820.382	32.93
820.555	25.33
820.728	15.43
820.901	12.95
821.075	33.91
821.248	37.92
821.421	36.43
821.594	36.65
821.767	63.6
821.94	88.09
822.113	44.44
822.286	45.76
822.459	78.34
822.632	73.81
822.805	46.56
822.978	64.77
823.151	71.15
823.324	37.88
823.496	-16.39
823.669	1.65
823.842	1.76
824.015	-14.82
824.188	-14.85
824.361	-3.15
824.533	-27.77
824.706	-10.34
824.879	-10.3
825.051	39.22
825.224	50.32
825.397	56.61
825.569	34.19
825.742	46.52
825.915	39.81
826.087	37.7
826.26	28.49
826.432	36.81
826.605	40.67
826.777	32.25
826.95	20.84
827.122	28.56
827.295	34.4
827.467	23.89
827.64	-0.77
827.812	-5.78
827.984	4.3
828.157	6.44
828.329	-10.22
828.501	-4.19
828.674	15.36
828.846	3.16
829.018	8.92
829.19	15.62
829.363	42
829.535	43.99
829.707	54.93
829.879	20.27
830.051	13.11
830.223	8.64
830.395	-19.66
830.568	-30.72
830.74	-18.74
830.912	15.76
831.084	-6.41
831.256	-15.61
831.428	-22.33
831.6	-26.61
831.772	-65.69
831.943	-60.46
832.115	-18.01
832.287	17.2
832.459	4.26
832.631	15.65
832.803	44.69
832.975	21.75
833.146	14.06
833.318	29.48
833.49	38.74
833.662	16.24
833.833	7.42
834.005	8.18
834.177	24.87
834.348	18.59
834.52	-16.57
834.692	1.71
834.863	-21.53
835.035	-36.62
835.206	-39.75
835.378	2.48
835.549	-26.3
835.721	2.79
835.892	-10.06
836.064	8.58
836.235	13.9
836.407	64.15
836.578	33.29
836.749	51.82
836.921	37.36
837.092	7.56
837.264	-49.43
837.435	-72.45
837.606	-57.26
837.777	5
837.949	44.58
838.12	21.97
838.291	48.24
838.462	42.44
838.633	-1.05
838.805	-32.74
838.976	0.06
839.147	-4.58
839.318	-47.01
839.489	-73.92
839.66	-31.27
839.831	-15.98
840.002	-29.05
840.173	-42.35
840.344	-11.88
840.515	-19.01
840.686	-74.74
840.857	-88.07
841.028	-83.69
841.199	-66.75
841.369	-93.69
841.54	-90.86
841.711	-23.99
841.882	-0.24
842.053	-24.81
842.223	-53.2
842.394	-6.36
842.565	-12.4
842.736	3.68
842.906	-2.66
843.077	45.18
843.248	63.93
843.418	40
843.589	17.4
843.759	72.33
843.93	73.83
844.101	49.49
844.271	59.37
844.442	94.26
844.612	88.75
844.783	53.74
844.953	17.99
845.123	39.44
845.294	7.33
845.464	-36.31
845.635	0.7
845.805	37.52
845.975	31.57
846.146	10.01
846.316	10.71
846.486	1.43
846.656	-6.64
846.827	-50.68
846.997	-31.64
847.167	-16.45
847.337	-25.45
847.507	-31.36
847.677	-23.03
847.848	9.82
848.018	11.97
848.188	23.59
848.358	13.85
848.528	32.62
848.698	-7.51
848.868	-47.86
849.038	-71.43
849.208	-34.58
849.378	-28.18
849.548	-71.33
849.718	-31.26
849.887	34.11
850.057	-67.87
850.227	-129.28
850.397	-76.87
850.567	-75.37
850.737	-79.01
850.906	-106.46
851.076	-117
851.246	-107.26
851.415	-73.74
851.585	-59.38
851.755	-32.55
851.924	30.72
852.094	37.03
852.264	6.6
852.433	-30.11
852.603	0.08
852.772	-3.91
852.942	-47.03
853.111	-76.65
853.281	-6.01
853.45	-21.47
853.62	-63.35
853.789	-114.3
853.959	-35.12
854.128	-71.34
854.297	-115.47
854.467	-130.28
854.636	-65.28
854.805	-65.11
854.975	-86.12
855.144	-54.79
855.313	20.33
855.482	4.56
855.652	-33.96
855.821	-20.13
855.99	15.3
856.159	-4.1
856.328	-31.36
856.497	-49.48
856.667	-54.32
856.836	-61.83
857.005	-143.63
857.174	-209.26
857.343	-170.68
857.512	-103.77
857.681	-184.77
857.85	-139.53
858.019	-86.76
858.188	-94.48
858.356	-145.44
858.525	-153.1
858.694	-146.91
858.863	-146.68
859.032	-158.71
859.201	-137.73
859.369	-91.36
859.538	-48.57
859.707	-79.93
859.876	-80.73
860.044	-69.8
860.213	-31.87
860.382	-67.28
860.55	-21.08
860.719	41.28
860.888	48.22
861.056	-12.2
861.225	-54.44
861.393	-4.61
861.562	39.88
861.73	15.4
861.899	4.53
862.067	-7.56
862.236	-6.26
862.404	-89.54
862.572	-132.34
862.741	-58.03
862.909	-59.78
863.078	-97.16
863.246	-91.04
863.414	-62.04
863.582	-144.02
863.751	-95.21
863.919	-90.86
864.087	-11.66
864.255	-5.58
864.424	-45.51
864.592	-19.67
864.76	10.22
864.928	20.77
865.096	-4.43
865.264	6.8
865.432	-4.51
865.6	11.02
865.768	-117.75
865.936	-191.19
866.104	-145.57
866.272	-186.33
866.44	-181.75
866.608	-178.5
866.776	-229.09
866.944	-342
867.112	-452.05
867.28	-665.47
867.448	-1041.99
867.615	-334.12
867.783	-39.02
867.951	-83.86
868.119	18.4
868.286	-16.75
868.454	-73.64
868.622	-160.87
868.789	-154.4
868.957	-83.51
869.125	-114.02
869.292	-98.04
869.46	-58.45
869.627	-5.39
869.795	-75.96
869.963	-55.77
870.13	-4.73
870.298	5.57
870.465	-81.73
870.632	-87.85
870.8	-111.54
870.967	-126.74
871.135	-256.42
871.302	-161.86
871.469	-70.58
871.637	-18.12
871.804	-22.55
871.971	-31.15
872.139	-11.53
872.306	9.17
872.473	-22.98
872.64	-66.12
872.807	11.09
872.975	5.57
873.142	-89.8
873.309	-64.31
873.476	83.53
873.643	61.43
873.81	42.54
873.977	36.5
874.144	36.8
874.311	-14.56
874.478	-128.7
874.645	-191.56
874.812	-582.34
874.979	27057.14
875.146	-757.01
875.313	-205.62
875.48	-59.38
875.647	-41.25
875.813	-95.37
875.98	-114.6
876.147	-159.11
876.314	-198.09
876.481	-265.62
876.647	-296.29
876.814	-172.72
876.981	-117.34
877.147	-185.22
877.314	-209.48
877.481	-88.08
877.647	-37.59
877.814	-168.48
877.98	-163.68
878.147	-53.58
878.314	-23.45
878.48	-154.52
878.647	-118.44
878.813	2.57
878.979	21.91
879.146	-17.4
879.312	17.78
879.479	20.23
879.645	-3.2
879.811	-96.15
879.978	-94.29
880.144	-79.16
880.31	-114.38
880.477	-218.37
880.643	-177.89
880.809	-123.43
880.975	-91.65
881.142	-129.7
881.308	-88.71
881.474	-57.68
881.64	-34.18
881.806	-76.31
881.972	-25.04
882.138	2.46
882.304	39.46
882.47	-82.13
882.636	-155.65
882.802	-189.67
882.968	-84.64
883.134	-231.49
883.3	-268.1
883.466	-13.38
883.632	31.56
883.798	-89.89
883.964	-44.71
884.129	-50.62
884.295	-94.11
884.461	-138.7
884.627	-210.7
884.793	-166.76
884.958	-87.48
885.124	-149.48
885.29	-151.06
885.455	-44.25
885.621	-58.52
885.787	-273.63
885.952	-108.01
886.118	-99.4
886.283	-106
886.449	-135.38
886.614	-78.65
886.78	-93.01
886.945	-85.94
887.111	-325.86
887.276	-344.19
887.442	-667.23
887.607	-411.61
887.773	-525.33
887.938	-384.66
888.103	-238.01
888.269	-116.4
888.434	-86.71
888.599	-67.61
888.764	26.92
888.93	40.82
889.095	-5.12
889.26	-52.56
889.425	23.43
889.59	44.46
889.756	-10.91
889.921	-18.23
890.086	16.95
890.251	4.24
890.416	-92.03
890.581	-89.99
890.746	-60.13
890.911	-32.62
891.076	-94.79
891.241	-124.73
891.406	-163.24
891.571	-61.51
891.736	-100.88
891.901	-128.97
892.065	-79.23
892.23	-39.88
892.395	-166.69
892.56	-220.79
892.725	-93.25
892.889	-61.01
893.054	-218.26
893.219	-192.47
893.384	-172.91
893.548	-246.97
893.713	-333.66
893.878	-254.9
