Data from Ofra_PP_Phys_2CX12S_Reflection_1.txt Node
Date: Sat Jul 24 20:04:03 EDT 2021
User: USUARIO
Spectrometer: FLMT01687
Trigger mode: 0
Integration Time (sec): 1.100000E0
Scans to average: 2
Electric dark correction enabled: true
Nonlinearity correction enabled: false
Boxcar width: 2
XAxis mode: Wavelengths
Number of Pixels in Spectrum: 3648
>>>>>Begin Spectral Data<<<<<
179.494	468.59
179.716	600.35
179.937	1031.65
180.158	865.1
180.38	389.2
180.601	-458.72
180.823	124.08
181.044	-182.95
181.265	55.63
181.486	-2.18
181.708	37.85
181.929	-2021.33
182.15	406.43
182.372	37.09
182.593	12266.67
182.814	-174.36
183.035	96.45
183.257	101.91
183.478	36.37
183.699	106.67
183.92	104.4
184.141	106.97
184.363	47.09
184.584	88.14
184.805	51.86
185.026	54.99
185.247	63.17
185.468	45.74
185.689	40.45
185.91	46.11
186.132	59.06
186.353	31.19
186.574	58.18
186.795	72.65
187.016	20.4
187.237	40.6
187.458	54.67
187.679	47.41
187.9	62.14
188.121	107.35
188.342	90.17
188.563	85.61
188.784	97.44
189.005	82.35
189.226	65.59
189.447	54.25
189.667	61.95
189.888	55.49
190.109	49.7
190.33	62.65
190.551	43.4
190.772	38.71
190.993	6.95
191.214	17.06
191.434	-2.67
191.655	36.56
191.876	21.66
192.097	42
192.318	46.6
192.538	29.54
192.759	23.89
192.98	32.52
193.201	38.89
193.421	6.46
193.642	53.62
193.863	57.88
194.083	49.34
194.304	55.59
194.525	67.64
194.745	52.87
194.966	10.14
195.187	1.58
195.407	-51.99
195.628	-54.41
195.848	-31.92
196.069	-31.16
196.29	-54.02
196.51	-74.54
196.731	-103.93
196.951	-96.12
197.172	-82.85
197.392	-51.32
197.613	-6.63
197.833	10.73
198.054	14.27
198.274	43.61
198.495	36.28
198.715	54.54
198.936	20.89
199.156	23.01
199.377	9.91
199.597	8.53
199.817	-11.4
200.038	26.31
200.258	13.34
200.479	34.79
200.699	39.13
200.919	32.67
201.14	2.74
201.36	4.03
201.58	-0.77
201.801	23.8
202.021	21.31
202.241	45.65
202.461	28.54
202.682	12.44
202.902	12.92
203.122	15.92
203.342	27.42
203.563	53.3
203.783	59.82
204.003	9.06
204.223	-11.21
204.443	68.11
204.663	83.32
204.884	59.91
205.104	75.68
205.324	67.65
205.544	50.01
205.764	37.11
205.984	60.24
206.204	81.07
206.424	101.07
206.644	63.12
206.864	28.68
207.084	11.58
207.304	-10.98
207.525	-39.44
207.745	-8.49
207.964	-4.51
208.184	4.08
208.404	8.51
208.624	21.46
208.844	3.91
209.064	-7.56
209.284	-3.64
209.504	-0.95
209.724	3.26
209.944	0.2
210.164	18.47
210.384	26.3
210.604	26.6
210.823	-2.75
211.043	-11.62
211.263	-11.49
211.483	-26.09
211.703	-22.97
211.922	-0.42
212.142	43.71
212.362	52.13
212.582	39.17
212.801	31.78
213.021	25.08
213.241	15.55
213.461	-1.99
213.68	-9.77
213.9	3.92
214.12	23.19
214.339	4.7
214.559	11.72
214.779	50.15
214.998	60.06
215.218	31.56
215.438	40.08
215.657	44.44
215.877	14.06
216.096	11.97
216.316	53.96
216.535	38.52
216.755	52.24
216.974	60.99
217.194	66.44
217.413	44.26
217.633	45.85
217.852	7.14
218.072	0.14
218.291	-26.2
218.511	-14.2
218.73	-52.61
218.95	-60.59
219.169	-57.02
219.389	-56.13
219.608	-67.2
219.827	-12.63
220.047	15.98
220.266	17.65
220.485	7.06
220.705	31.49
220.924	-1.91
221.143	7.46
221.363	-24.46
221.582	18.7
221.801	14.91
222.021	42.45
222.24	41.53
222.459	79.86
222.678	53.72
222.897	43.72
223.117	38.41
223.336	50.48
223.555	57.53
223.774	74.51
223.993	101.05
224.213	107.11
224.432	72.23
224.651	74.22
224.87	51.88
225.089	55.51
225.308	53.06
225.527	71.61
225.746	63.97
225.965	64.58
226.184	48.37
226.404	44.54
226.623	19.36
226.842	20.76
227.061	35.11
227.28	55.94
227.499	69.98
227.718	94.11
227.936	94.99
228.155	94.24
228.374	54.09
228.593	23.06
228.812	7.44
229.031	-7.59
229.25	-18.29
229.469	13.16
229.688	23.37
229.907	24.14
230.125	47.8
230.344	62.53
230.563	56.13
230.782	76.42
231.001	45.37
231.22	35.7
231.438	23.95
231.657	21.15
231.876	11.38
232.095	44.04
232.313	43.43
232.532	30.01
232.751	19.33
232.969	18.36
233.188	7.44
233.407	14.92
233.625	20.83
233.844	35.87
234.063	62.1
234.281	84.59
234.5	72.6
234.719	86.41
234.937	71.53
235.156	55.06
235.374	47.85
235.593	54.06
235.811	53.73
236.03	63.21
236.249	65.79
236.467	77.01
236.686	57.34
236.904	54.61
237.123	14.06
237.341	4.69
237.559	-6.39
237.778	-9.05
237.996	-27.56
238.215	-2.89
238.433	-8.73
238.652	3.41
238.87	-30.71
239.088	3.23
239.307	-0.93
239.525	6.48
239.743	-16.84
239.962	17.6
240.18	-6.9
240.398	-21.48
240.617	-25.13
240.835	13.46
241.053	-8.6
241.271	13.21
241.49	15.43
241.708	15.26
241.926	5.66
242.144	19.27
242.363	9.46
242.581	27.12
242.799	43.21
243.017	37.44
243.235	23.13
243.453	46.69
243.672	23.32
243.89	17.32
244.108	26.57
244.326	44.22
244.544	43.15
244.762	44.71
244.98	39.7
245.198	52.57
245.416	36.63
245.634	44.93
245.852	52.44
246.07	59.09
246.288	48.59
246.506	49.11
246.724	38
246.942	27.07
247.16	38.14
247.378	34.27
247.596	36.27
247.814	52
248.032	35.9
248.25	20.15
248.468	23.11
248.685	36.44
248.903	33.26
249.121	38.61
249.339	38.15
249.557	25.37
249.775	-0.32
249.992	-57.21
250.21	-63.97
250.428	-45.58
250.646	-40.13
250.863	-23.32
251.081	-2.36
251.299	22.93
251.517	35.17
251.734	34.52
251.952	17.05
252.17	34.09
252.387	40.96
252.605	12.38
252.823	10.87
253.04	29.35
253.258	20.2
253.475	17.39
253.693	39.94
253.911	61.18
254.128	58.06
254.346	59.5
254.563	47.86
254.781	36.06
254.998	16.6
255.216	15.94
255.433	16.6
255.651	27.93
255.868	34.12
256.086	39.94
256.303	29.98
256.521	20.04
256.738	21.87
256.956	11.71
257.173	5.52
257.39	9.86
257.608	12.13
257.825	18.11
258.043	31.9
258.26	41.25
258.477	42.93
258.695	54.24
258.912	21.02
259.129	17.37
259.346	-10.8
259.564	-2.54
259.781	-11.27
259.998	4.54
260.216	24.46
260.433	50.81
260.65	29.24
260.867	29.11
261.084	18.69
261.302	11.2
261.519	13.44
261.736	21.23
261.953	39.59
262.17	51.6
262.387	45.27
262.604	23.5
262.822	22.58
263.039	11.56
263.256	-2.16
263.473	11.23
263.69	16.16
263.907	18.9
264.124	31.74
264.341	84.06
264.558	70.03
264.775	73.08
264.992	98.22
265.209	71.15
265.426	45.63
265.643	51.45
265.86	51.21
266.077	56.88
266.294	46.01
266.51	41.32
266.727	28.26
266.944	35.5
267.161	3.93
267.378	24.37
267.595	27.28
267.812	11.93
268.028	20.5
268.245	36.06
268.462	39.41
268.679	26.87
268.896	43.74
269.112	22.91
269.329	21.51
269.546	23.53
269.763	29.81
269.979	20.43
270.196	23.78
270.413	24.46
270.629	2.1
270.846	-4.68
271.063	16.03
271.279	9.95
271.496	-8.01
271.712	19.46
271.929	20.17
272.146	15.52
272.362	14.69
272.579	52.65
272.795	39.12
273.012	61.64
273.228	61.19
273.445	56.18
273.661	16.66
273.878	-27.58
274.094	-45.13
274.311	-77.25
274.527	-44.74
274.744	-27.17
274.96	28.02
275.177	24.94
275.393	33.95
275.609	37.92
275.826	52.51
276.042	48.7
276.259	58.72
276.475	39.79
276.691	41.51
276.908	28.35
277.124	50.61
277.34	38.72
277.557	58.39
277.773	52.22
277.989	47.4
278.205	33.41
278.422	46.74
278.638	60.73
278.854	62.48
279.07	61.73
279.286	33.83
279.503	24.22
279.719	12.85
279.935	-0.75
280.151	-5.21
280.367	16.07
280.583	21.42
280.799	22.41
281.016	31.83
281.232	33.77
281.448	36.95
281.664	46.68
281.88	35.94
282.096	24.59
282.312	29.35
282.528	38.69
282.744	28.03
282.96	30.82
283.176	37.37
283.392	38.76
283.608	39.83
283.824	51.28
284.04	59.67
284.256	61.73
284.471	62.61
284.687	44.63
284.903	48.75
285.119	60.17
285.335	41
285.551	40.6
285.767	36.05
285.982	6.05
286.198	6.36
286.414	11.3
286.63	-3.69
286.846	27.24
287.061	18.04
287.277	1.51
287.493	12.35
287.709	20.95
287.924	15.15
288.14	42.41
288.356	59.52
288.571	64.29
288.787	70.86
289.003	64.41
289.218	47.86
289.434	19.23
289.65	44.67
289.865	43.8
290.081	33.24
290.296	39.06
290.512	43.62
290.727	28.81
290.943	18.71
291.159	19.42
291.374	14.69
291.59	-2.99
291.805	-4.85
292.021	6.31
292.236	0.38
292.451	1.65
292.667	11.8
292.882	15.91
293.098	22.42
293.313	20.96
293.529	19.23
293.744	9.06
293.959	-15.42
294.175	-25.11
294.39	-6.26
294.605	0.39
294.821	12.48
295.036	13.81
295.251	27.29
295.467	17.89
295.682	23.52
295.897	-0.97
296.112	-2.7
296.328	-10.92
296.543	-6.34
296.758	-25.76
296.973	21.6
297.188	56.19
297.404	34.1
297.619	32.81
297.834	40.82
298.049	30.48
298.264	16.62
298.479	31.85
298.694	32.71
298.909	33.74
299.125	34.62
299.34	35.89
299.555	33.1
299.77	48.47
299.985	15.7
300.2	-1.43
300.415	-30.37
300.63	-20.31
300.845	-28.73
301.06	-21.26
301.275	-17.62
301.49	-4.34
301.704	-8.84
301.919	-32.24
302.134	-29.46
302.349	-0.24
302.564	-6.57
302.779	8.92
302.994	49.48
303.209	46.71
303.423	43.11
303.638	63.5
303.853	42.78
304.068	1.7
304.283	7.5
304.497	9.68
304.712	7.29
304.927	13.18
305.142	13.02
305.356	15.55
305.571	16.7
305.786	12.92
306	9.32
306.215	27.79
306.43	14.9
306.644	25.35
306.859	41.57
307.074	38.07
307.288	18.82
307.503	23.37
307.717	4.19
307.932	-7.26
308.147	-10.97
308.361	14.58
308.576	11.11
308.79	1.63
309.005	24.09
309.219	38.1
309.434	29.22
309.648	15.23
309.863	35.54
310.077	14.49
310.292	0.13
310.506	-3.59
310.72	32.97
310.935	35.35
311.149	38.97
311.364	55.64
311.578	71.29
311.792	65.84
312.007	73.88
312.221	45.09
312.435	37.78
312.649	8.08
312.864	19.05
313.078	-0.05
313.292	32.21
313.507	32.8
313.721	32.7
313.935	20.9
314.149	46.34
314.363	38.92
314.578	18.21
314.792	25.28
315.006	39.56
315.22	14.26
315.434	14.6
315.648	32.34
315.862	22.49
316.077	24.74
316.291	33.38
316.505	33.46
316.719	38.45
316.933	18.93
317.147	14.85
317.361	4
317.575	3.99
317.789	-18.18
318.003	-8.82
318.217	-1.29
318.431	22.87
318.645	36.94
318.859	40.31
319.073	56.48
319.287	38.35
319.5	16.8
319.714	-9.78
319.928	-13.39
320.142	-28.28
320.356	9.52
320.57	19.18
320.784	10.74
320.997	32.72
321.211	43.63
321.425	9.62
321.639	-14.83
321.853	12.93
322.066	-9.85
322.28	-28.96
322.494	-21.05
322.707	29.36
322.921	29.32
323.135	32.06
323.349	47.91
323.562	54.22
323.776	26.05
323.989	20.73
324.203	8.45
324.417	3.64
324.63	-15.48
324.844	-30.3
325.057	-42.58
325.271	-53.24
325.485	-54.46
325.698	-11.56
325.912	15.5
326.125	28.16
326.339	51.77
326.552	52.93
326.766	51.49
326.979	53.22
327.193	64.62
327.406	53
327.619	58.32
327.833	50.54
328.046	34.97
328.26	14.7
328.473	0.81
328.686	-9.02
328.9	-5.84
329.113	5.27
329.326	3.91
329.54	30
329.753	26.73
329.966	23.63
330.179	30.79
330.393	46.5
330.606	41.22
330.819	58.83
331.032	64.06
331.246	68.02
331.459	72.62
331.672	45.32
331.885	24.34
332.098	4.94
332.311	15.64
332.525	3.23
332.738	16.79
332.951	26.79
333.164	38.95
333.377	30.75
333.59	36.99
333.803	35.07
334.016	29.4
334.229	30.12
334.442	44.77
334.655	55.62
334.868	60.44
335.081	65.39
335.294	50.62
335.507	44.06
335.72	27.88
335.933	12.03
336.146	12.52
336.359	21.62
336.572	9.32
336.785	8.13
336.997	15.79
337.21	19.91
337.423	14.4
337.636	26.58
337.849	36.19
338.062	33.95
338.274	35.14
338.487	24.9
338.7	21.16
338.913	8.02
339.125	5.83
339.338	8.22
339.551	20.25
339.763	29.15
339.976	45.11
340.189	46.24
340.402	42.04
340.614	39.6
340.827	22.79
341.039	1.28
341.252	-6.46
341.465	-11.61
341.677	-24.63
341.89	-47.49
342.102	-32.45
342.315	-25.37
342.527	-32.4
342.74	-4.3
342.952	35.31
343.165	35.27
343.377	50.39
343.59	41.32
343.802	43.86
344.015	38.49
344.227	51.65
344.44	37.49
344.652	41.2
344.864	30.71
345.077	36.21
345.289	23.38
345.502	31.76
345.714	31.72
345.926	36.49
346.139	31.85
346.351	32.01
346.563	30.58
346.775	37.25
346.988	27.49
347.2	18.49
347.412	13.93
347.624	13.35
347.837	24.88
348.049	39.28
348.261	46.63
348.473	43.8
348.685	27.38
348.897	8.88
349.11	-5.47
349.322	-5.1
349.534	18.94
349.746	41.15
349.958	49.54
350.17	48.29
350.382	54.54
350.594	45.67
350.806	37.85
351.018	26.76
351.23	34.02
351.442	25.19
351.654	34.52
351.866	41.34
352.078	51.1
352.29	41.73
352.502	47.39
352.714	48.05
352.926	40.52
353.138	36.12
353.35	24.87
353.561	18.89
353.773	4.51
353.985	9.63
354.197	0.66
354.409	15.44
354.621	8.45
354.832	7.11
355.044	-1.7
355.256	0.48
355.468	-6.33
355.679	2.37
355.891	22.26
356.103	25.22
356.314	24.83
356.526	42.48
356.738	55.66
356.949	50.75
357.161	47.86
357.373	48.06
357.584	42.01
357.796	29.94
358.008	12.61
358.219	22.57
358.431	25.82
358.642	28.83
358.854	37.45
359.065	45.16
359.277	29.39
359.488	19.23
359.7	7.49
359.911	-2.96
360.123	-9.07
360.334	-12.52
360.546	-6.52
360.757	-16.21
360.969	-26.99
361.18	-16.72
361.391	-12.3
361.603	-25.84
361.814	-1.34
362.025	-1.63
362.237	-2.62
362.448	3.32
362.659	21.4
362.871	10.14
363.082	12.24
363.293	18.49
363.504	11.8
363.716	4.03
363.927	14.99
364.138	10.84
364.349	-8.14
364.56	-10.7
364.772	-21.4
364.983	-8.54
365.194	-12.34
365.405	-8.38
365.616	-5.35
365.827	-3.99
366.038	-12.98
366.25	10.17
366.461	-1.31
366.672	17.42
366.883	22.8
367.094	19.19
367.305	5.63
367.516	33.6
367.727	25.53
367.938	18.03
368.149	9.58
368.36	13.64
368.571	3.57
368.781	-1.13
368.992	-2.65
369.203	17.93
369.414	10.96
369.625	9.55
369.836	8.02
370.047	6.86
370.258	-2.62
370.468	-2.95
370.679	-23.34
370.89	-17.39
371.101	5.36
371.312	-10.3
371.522	4.28
371.733	21.34
371.944	17.45
372.155	16.6
372.365	10.19
372.576	16.34
372.787	9.83
372.997	6.83
373.208	4.32
373.419	15.13
373.629	-4.07
373.84	5.52
374.05	-7.4
374.261	-1.77
374.472	-2.99
374.682	18.16
374.893	5.14
375.103	32.78
375.314	28.11
375.524	25.49
375.735	18.76
375.945	23.59
376.156	3.64
376.366	8.95
376.577	17.26
376.787	19.72
376.997	28.77
377.208	36.12
377.418	18.76
377.629	23.84
377.839	20.33
378.049	16
378.26	22.82
378.47	40.08
378.68	37.69
378.89	34.31
379.101	31.54
379.311	12.96
379.521	-1.24
379.732	-0.93
379.942	-11.36
380.152	-6.22
380.362	12.16
380.572	18.78
380.783	22.63
380.993	33.7
381.203	37.24
381.413	27.89
381.623	27.34
381.833	21.98
382.043	11.1
382.253	8.03
382.463	21.68
382.674	18.54
382.884	2.92
383.094	2.53
383.304	1.53
383.514	-2.59
383.724	0.63
383.934	3.98
384.144	4.26
384.353	8.46
384.563	13.27
384.773	12.47
384.983	18.3
385.193	26.68
385.403	14.77
385.613	12.61
385.823	11.31
386.033	14.87
386.242	2.44
386.452	10.51
386.662	5.86
386.872	8.8
387.082	8.27
387.291	5.76
387.501	10.39
387.711	9.29
387.921	-4.18
388.13	-0.4
388.34	9.75
388.55	4.4
388.759	5.41
388.969	14.49
389.179	10.37
389.388	8.84
389.598	8.94
389.807	10.27
390.017	10.82
390.227	9.94
390.436	8.28
390.646	10.56
390.855	10.92
391.065	10.7
391.274	7.93
391.484	6.97
391.693	7.98
391.903	8.14
392.112	8.98
392.322	12.44
392.531	15.82
392.74	13.89
392.95	10.04
393.159	8.19
393.369	8.68
393.578	4.57
393.787	4.49
393.997	8.32
394.206	7.74
394.415	8.24
394.625	9.3
394.834	8.66
395.043	6.83
395.252	7.58
395.462	7.74
395.671	8.92
395.88	9.92
396.089	10.93
396.298	11.04
396.508	9.88
396.717	9.69
396.926	9.23
397.135	9.14
397.344	9.03
397.553	9.33
397.762	9.52
397.971	9.09
398.181	8.43
398.39	7.1
398.599	6.75
398.808	6.27
399.017	6.77
399.226	6.96
399.435	8
399.644	7.99
399.853	7.67
400.062	7.47
400.27	7.46
400.479	7.35
400.688	7.03
400.897	7.34
401.106	7.21
401.315	6.83
401.524	6.71
401.733	6.77
401.941	6.86
402.15	6.87
402.359	7.28
402.568	7.4
402.777	7.42
402.985	7.25
403.194	7.32
403.403	7.24
403.612	7.01
403.82	7.06
404.029	6.98
404.238	6.66
404.446	6.59
404.655	6.46
404.864	6.57
405.072	6.37
405.281	6.69
405.489	6.5
405.698	6.5
405.906	6.38
406.115	6.31
406.324	5.95
406.532	6.01
406.741	6.28
406.949	6.1
407.158	6.29
407.366	6.42
407.574	6.57
407.783	6.38
407.991	6.46
408.2	6.46
408.408	6.38
408.617	6.22
408.825	6.16
409.033	6.21
409.242	6.23
409.45	6.22
409.658	6.18
409.867	6.27
410.075	6.18
410.283	5.96
410.491	6.01
410.7	5.82
410.908	5.79
411.116	5.86
411.324	5.9
411.533	5.95
411.741	6.07
411.949	6.11
412.157	5.93
412.365	6.12
412.573	6.02
412.781	6.01
412.99	5.91
413.198	5.98
413.406	5.86
413.614	5.93
413.822	5.92
414.03	5.95
414.238	5.84
414.446	5.91
414.654	5.69
414.862	5.72
415.07	5.66
415.278	5.81
415.486	5.4
415.694	5.63
415.902	5.62
416.109	5.55
416.317	5.61
416.525	5.63
416.733	5.55
416.941	5.55
417.149	5.59
417.357	5.63
417.564	5.75
417.772	5.66
417.98	5.77
418.188	5.71
418.395	5.45
418.603	5.66
418.811	5.53
419.019	5.31
419.226	5.45
419.434	5.57
419.642	5.35
419.849	5.41
420.057	5.54
420.265	5.43
420.472	5.34
420.68	5.52
420.887	5.48
421.095	5.47
421.302	5.46
421.51	5.46
421.717	5.29
421.925	5.39
422.132	5.37
422.34	5.23
422.547	5.23
422.755	5.24
422.962	5.27
423.17	5.22
423.377	5.41
423.585	5.45
423.792	5.44
423.999	5.39
424.207	5.38
424.414	5.26
424.621	5.17
424.829	5.11
425.036	5.01
425.243	4.93
425.451	4.98
425.658	4.92
425.865	4.88
426.072	4.95
426.28	4.92
426.487	4.78
426.694	4.87
426.901	5.04
427.108	4.98
427.315	5.09
427.523	5.42
427.73	5.43
427.937	5.17
428.144	5.15
428.351	5.2
428.558	4.95
428.765	4.85
428.972	4.91
429.179	5.01
429.386	4.98
429.593	5.03
429.8	5.01
430.007	5.17
430.214	5.09
430.421	5.1
430.628	4.96
430.835	4.89
431.042	4.94
431.249	5.01
431.456	5.11
431.662	5.32
431.869	5.38
432.076	5.31
432.283	5.27
432.49	4.99
432.697	4.92
432.903	4.91
433.11	4.88
433.317	5.02
433.524	5.28
433.73	5.2
433.937	5.33
434.144	5.4
434.35	5.39
434.557	5.25
434.764	5.32
434.97	5.28
435.177	5.27
435.384	4.98
435.59	5.2
435.797	5.35
436.003	5.33
436.21	5.26
436.416	5.34
436.623	5.11
436.829	4.96
437.036	5
437.242	4.95
437.449	5.03
437.655	5.02
437.862	5
438.068	4.98
438.275	5.14
438.481	5.23
438.687	5.24
438.894	5.27
439.1	5.19
439.307	5.17
439.513	5.09
439.719	5.21
439.926	5.21
440.132	5.25
440.338	5.11
440.544	5.15
440.751	4.92
440.957	5
441.163	4.82
441.369	4.97
441.575	4.87
441.782	4.99
441.988	4.83
442.194	4.91
442.4	4.84
442.606	5.01
442.812	5.09
443.018	5.16
443.224	5.32
443.431	5.35
443.637	5.26
443.843	5.12
444.049	5.1
444.255	5
444.461	4.97
444.667	4.84
444.873	4.85
445.079	4.97
445.284	5
445.49	4.93
445.696	4.9
445.902	4.99
446.108	4.9
446.314	4.86
446.52	4.99
446.726	5.22
446.931	5.18
447.137	5.23
447.343	5.26
447.549	5.13
447.755	5.01
447.96	5
448.166	4.91
448.372	4.97
448.578	4.98
448.783	4.98
448.989	5.02
449.195	5.15
449.4	5.09
449.606	5.12
449.812	5.12
450.017	5.2
450.223	5.21
450.428	5.01
450.634	5.08
450.84	5.14
451.045	4.96
451.251	4.82
451.456	5.1
451.662	5.1
451.867	5.04
452.073	5.12
452.278	5.17
452.483	5.16
452.689	5.17
452.894	5.33
453.1	5.33
453.305	5.23
453.51	5.24
453.716	5.2
453.921	5.13
454.127	5.13
454.332	5.19
454.537	5.04
454.742	5.03
454.948	4.98
455.153	4.93
455.358	4.96
455.563	5.07
455.769	5.11
455.974	5.04
456.179	5.08
456.384	5.01
456.589	5.05
456.795	4.96
457	5.01
457.205	5.06
457.41	5.09
457.615	5.01
457.82	5.08
458.025	5.17
458.23	5.07
458.435	5.2
458.64	5.06
458.845	5.12
459.05	5.03
459.255	5.07
459.46	4.92
459.665	5.03
459.87	5.02
460.075	4.99
460.28	5.01
460.485	5.14
460.69	5.18
460.895	5.05
461.099	4.99
461.304	5.1
461.509	5.14
461.714	5.11
461.919	5.21
462.123	5.32
462.328	5.28
462.533	5.04
462.738	5.05
462.942	5.02
463.147	5
463.352	4.94
463.556	4.99
463.761	4.94
463.966	5.01
464.17	5.06
464.375	5.08
464.58	5.17
464.784	5.28
464.989	5.18
465.193	5.14
465.398	5.14
465.602	5.24
465.807	5.11
466.011	5.27
466.216	5.34
466.42	5.42
466.625	5.4
466.829	5.57
467.034	5.52
467.238	5.53
467.443	5.48
467.647	5.34
467.851	5.3
468.056	5.34
468.26	5.26
468.464	5.19
468.669	5.33
468.873	5.34
469.077	5.37
469.282	5.34
469.486	5.42
469.69	5.39
469.894	5.37
470.099	5.37
470.303	5.4
470.507	5.34
470.711	5.29
470.915	5.27
471.119	5.23
471.324	5.16
471.528	5.12
471.732	5.22
471.936	5.27
472.14	5.32
472.344	5.43
472.548	5.5
472.752	5.48
472.956	5.41
473.16	5.34
473.364	5.26
473.568	5.29
473.772	5.31
473.976	5.42
474.18	5.44
474.384	5.48
474.588	5.34
474.792	5.28
474.995	5.22
475.199	5.2
475.403	5.25
475.607	5.38
475.811	5.39
476.015	5.43
476.218	5.47
476.422	5.42
476.626	5.43
476.83	5.49
477.033	5.34
477.237	5.21
477.441	5.18
477.644	5.05
477.848	4.99
478.052	4.97
478.255	5.04
478.459	5.07
478.663	5.23
478.866	5.24
479.07	5.33
479.273	5.43
479.477	5.44
479.681	5.38
479.884	5.38
480.088	5.31
480.291	5.24
480.495	5.22
480.698	5.24
480.901	5.3
481.105	5.4
481.308	5.38
481.512	5.32
481.715	5.35
481.919	5.34
482.122	5.29
482.325	5.33
482.529	5.46
482.732	5.4
482.935	5.36
483.138	5.3
483.342	5.28
483.545	5.3
483.748	5.36
483.952	5.37
484.155	5.51
484.358	5.53
484.561	5.46
484.764	5.44
484.967	5.48
485.171	5.47
485.374	5.35
485.577	5.38
485.78	5.43
485.983	5.4
486.186	5.35
486.389	5.4
486.592	5.41
486.795	5.39
486.998	5.35
487.201	5.38
487.404	5.51
487.607	5.54
487.81	5.53
488.013	5.59
488.216	5.57
488.419	5.55
488.622	5.39
488.825	5.34
489.028	5.31
489.231	5.38
489.433	5.25
489.636	5.24
489.839	5.17
490.042	5.14
490.245	5.01
490.447	5.1
490.65	5.14
490.853	5.31
491.056	5.34
491.258	5.39
491.461	5.34
491.664	5.37
491.866	5.22
492.069	5.23
492.272	5.22
492.474	5.24
492.677	5.3
492.879	5.45
493.082	5.52
493.285	5.61
493.487	5.58
493.69	5.48
493.892	5.32
494.095	5.27
494.297	5.22
494.5	5.35
494.702	5.36
494.905	5.46
495.107	5.48
495.309	5.55
495.512	5.47
495.714	5.57
495.917	5.66
496.119	5.66
496.321	5.65
496.524	5.72
496.726	5.7
496.928	5.71
497.13	5.69
497.333	5.68
497.535	5.67
497.737	5.63
497.939	5.52
498.142	5.64
498.344	5.61
498.546	5.58
498.748	5.69
498.95	5.74
499.152	5.64
499.355	5.7
499.557	5.79
499.759	5.75
499.961	5.67
500.163	5.7
500.365	5.71
500.567	5.69
500.769	5.63
500.971	5.8
501.173	5.72
501.375	5.76
501.577	5.7
501.779	5.78
501.981	5.7
502.183	5.79
502.385	5.7
502.587	5.7
502.788	5.7
502.99	5.8
503.192	5.77
503.394	5.75
503.596	5.71
503.798	5.76
503.999	5.73
504.201	5.78
504.403	5.88
504.605	6.03
504.806	6.01
505.008	5.96
505.21	5.92
505.411	5.94
505.613	5.83
505.815	5.82
506.016	5.91
506.218	6.01
506.42	5.93
506.621	5.98
506.823	6.05
507.024	6.02
507.226	5.91
507.427	5.93
507.629	6.03
507.83	6.05
508.032	5.96
508.233	6.08
508.435	6.19
508.636	6.15
508.838	6.03
509.039	6.13
509.24	6.14
509.442	6.12
509.643	6.06
509.845	6.14
510.046	6.1
510.247	6.04
510.448	6.06
510.65	6.15
510.851	6.21
511.052	6.29
511.254	6.3
511.455	6.34
511.656	6.32
511.857	6.31
512.058	6.29
512.26	6.36
512.461	6.32
512.662	6.37
512.863	6.26
513.064	6.21
513.265	6.18
513.466	6.27
513.667	6.25
513.868	6.42
514.069	6.59
514.27	6.68
514.471	6.59
514.672	6.66
514.873	6.62
515.074	6.57
515.275	6.48
515.476	6.58
515.677	6.55
515.878	6.6
516.079	6.55
516.28	6.62
516.481	6.64
516.682	6.67
516.882	6.62
517.083	6.7
517.284	6.65
517.485	6.58
517.686	6.56
517.886	6.59
518.087	6.57
518.288	6.69
518.488	6.67
518.689	6.73
518.89	6.66
519.091	6.67
519.291	6.6
519.492	6.71
519.692	6.74
519.893	6.9
520.094	6.93
520.294	6.93
520.495	6.89
520.695	6.89
520.896	6.84
521.096	6.85
521.297	6.91
521.497	6.96
521.698	6.97
521.898	6.95
522.099	6.95
522.299	6.98
522.499	6.93
522.7	6.9
522.9	6.93
523.101	6.99
523.301	6.98
523.501	7.01
523.702	7.05
523.902	7.12
524.102	7.15
524.302	7.19
524.503	7.25
524.703	7.24
524.903	7.18
525.103	7.11
525.304	7.1
525.504	7.14
525.704	7.18
525.904	7.17
526.104	7.23
526.304	7.25
526.504	7.21
526.705	7.18
526.905	7.26
527.105	7.3
527.305	7.33
527.505	7.29
527.705	7.35
527.905	7.33
528.105	7.3
528.305	7.24
528.505	7.33
528.705	7.36
528.905	7.35
529.105	7.37
529.304	7.44
529.504	7.51
529.704	7.45
529.904	7.5
530.104	7.48
530.304	7.55
530.503	7.47
530.703	7.47
530.903	7.46
531.103	7.52
531.303	7.43
531.502	7.47
531.702	7.55
531.902	7.6
532.101	7.55
532.301	7.55
532.501	7.52
532.7	7.59
532.9	7.53
533.1	7.58
533.299	7.65
533.499	7.75
533.698	7.65
533.898	7.71
534.097	7.76
534.297	7.77
534.496	7.75
534.696	7.85
534.895	7.95
535.095	7.97
535.294	8.02
535.494	7.92
535.693	7.86
535.892	7.85
536.092	7.81
536.291	7.77
536.491	7.84
536.69	7.97
536.889	7.89
537.088	7.94
537.288	8.02
537.487	8.11
537.686	8
537.886	8.1
538.085	8.08
538.284	8.07
538.483	8.05
538.682	8.16
538.882	8.21
539.081	8.29
539.28	8.3
539.479	8.31
539.678	8.27
539.877	8.3
540.076	8.34
540.275	8.46
540.474	8.49
540.673	8.57
540.872	8.59
541.071	8.63
541.27	8.59
541.469	8.68
541.668	8.66
541.867	8.67
542.066	8.66
542.265	8.71
542.464	8.65
542.663	8.74
542.862	8.89
543.06	8.92
543.259	8.89
543.458	9.01
543.657	8.97
543.856	8.97
544.054	9.03
544.253	9.08
544.452	9.02
544.651	9.12
544.849	9.06
545.048	9.1
545.247	9.16
545.445	9.24
545.644	9.28
545.843	9.35
546.041	9.42
546.24	9.48
546.438	9.54
546.637	9.54
546.836	9.64
547.034	9.63
547.233	9.68
547.431	9.69
547.63	9.81
547.828	9.8
548.027	9.87
548.225	9.89
548.423	10.02
548.622	10.06
548.82	10.07
549.019	10.12
549.217	10.21
549.415	10.31
549.614	10.41
549.812	10.47
550.01	10.44
550.209	10.52
550.407	10.5
550.605	10.56
550.803	10.64
551.002	10.79
551.2	10.81
551.398	10.96
551.596	10.97
551.794	11.07
551.993	11.22
552.191	11.34
552.389	11.39
552.587	11.48
552.785	11.52
552.983	11.52
553.181	11.61
553.379	11.67
553.577	11.7
553.775	11.86
553.973	11.89
554.171	11.97
554.369	12
554.567	12.06
554.765	12.1
554.963	12.16
555.161	12.15
555.359	12.38
555.557	12.55
555.755	12.59
555.952	12.77
556.15	12.88
556.348	12.85
556.546	12.91
556.744	12.98
556.941	12.99
557.139	13.06
557.337	13.12
557.535	13.2
557.732	13.33
557.93	13.55
558.128	13.72
558.325	13.84
558.523	13.91
558.721	14
558.918	13.97
559.116	14.03
559.313	14.07
559.511	14.18
559.708	14.19
559.906	14.3
560.104	14.33
560.301	14.52
560.498	14.66
560.696	14.8
560.893	14.96
561.091	15.12
561.288	15.18
561.486	15.24
561.683	15.36
561.88	15.42
562.078	15.54
562.275	15.6
562.473	15.78
562.67	15.99
562.867	16.13
563.064	16.31
563.262	16.4
563.459	16.53
563.656	16.63
563.853	16.71
564.051	16.68
564.248	16.8
564.445	16.85
564.642	16.9
564.839	16.97
565.036	17.23
565.234	17.42
565.431	17.47
565.628	17.6
565.825	17.65
566.022	17.73
566.219	17.82
566.416	17.9
566.613	17.9
566.81	18.09
567.007	18.02
567.204	17.97
567.401	18.03
567.598	18.14
567.795	18.13
567.991	18.26
568.188	18.41
568.385	18.52
568.582	18.7
568.779	18.8
568.976	18.96
569.172	19.07
569.369	19.15
569.566	19.17
569.763	19.2
569.96	19.23
570.156	19.23
570.353	19.28
570.55	19.35
570.746	19.54
570.943	19.56
571.14	19.62
571.336	19.72
571.533	19.68
571.729	19.69
571.926	19.72
572.123	19.8
572.319	19.82
572.516	19.9
572.712	19.91
572.909	20.04
573.105	20.07
573.302	20.09
573.498	20.19
573.695	20.15
573.891	20.18
574.087	20.34
574.284	20.28
574.48	20.18
574.677	20.28
574.873	20.31
575.069	20.26
575.266	20.4
575.462	20.44
575.658	20.56
575.854	20.61
576.051	20.63
576.247	20.62
576.443	20.62
576.639	20.52
576.835	20.45
577.032	20.42
577.228	20.47
577.424	20.52
577.62	20.48
577.816	20.51
578.012	20.46
578.208	20.41
578.404	20.44
578.6	20.53
578.796	20.59
578.993	20.59
579.189	20.59
579.384	20.55
579.58	20.47
579.776	20.41
579.972	20.34
580.168	20.33
580.364	20.33
580.56	20.35
580.756	20.32
580.952	20.35
581.148	20.35
581.343	20.44
581.539	20.39
581.735	20.31
581.931	20.4
582.127	20.41
582.322	20.25
582.518	20.31
582.714	20.32
582.909	20.18
583.105	20.12
583.301	20.1
583.496	20.08
583.692	19.96
583.888	19.93
584.083	19.88
584.279	20.01
584.474	19.95
584.67	20.01
584.866	20.02
585.061	19.97
585.257	19.93
585.452	19.91
585.648	19.79
585.843	19.78
586.039	19.75
586.234	19.67
586.429	19.59
586.625	19.84
586.82	19.74
587.015	19.8
587.211	19.77
587.406	19.83
587.601	19.63
587.797	19.67
587.992	19.6
588.187	19.68
588.383	19.63
588.578	19.68
588.773	19.65
588.968	19.71
589.163	19.57
589.359	19.54
589.554	19.48
589.749	19.69
589.944	19.74
590.139	19.9
590.334	19.87
590.529	19.96
590.724	19.82
590.919	19.78
591.114	19.69
591.309	19.85
591.504	19.93
591.699	19.92
591.894	19.93
592.089	19.9
592.284	19.96
592.479	19.89
592.674	19.94
592.869	19.96
593.064	20.1
593.259	19.99
593.454	20.05
593.648	20.07
593.843	20.13
594.038	20.17
594.233	20.12
594.428	20.14
594.622	20.21
594.817	20.31
595.012	20.31
595.206	20.51
595.401	20.6
595.596	20.61
595.79	20.57
595.985	20.65
596.18	20.72
596.374	20.75
596.569	20.78
596.763	20.8
596.958	20.74
597.153	20.76
597.347	20.77
597.542	20.99
597.736	21.09
597.931	21.2
598.125	21.31
598.319	21.43
598.514	21.32
598.708	21.31
598.903	21.39
599.097	21.37
599.291	21.41
599.486	21.45
599.68	21.51
599.874	21.6
600.069	21.6
600.263	21.51
600.457	21.58
600.651	21.67
600.846	21.52
601.04	21.56
601.234	21.63
601.428	21.68
601.622	21.77
601.817	21.95
602.011	21.96
602.205	22
602.399	21.95
602.593	21.84
602.787	21.81
602.981	21.85
603.175	21.87
603.369	21.84
603.563	21.95
603.757	21.97
603.951	21.93
604.145	21.92
604.339	21.95
604.533	21.76
604.727	21.75
604.921	21.71
605.115	21.72
605.309	21.68
605.502	21.67
605.696	21.53
605.89	21.45
606.084	21.4
606.278	21.33
606.471	21.28
606.665	21.16
606.859	21.17
607.053	21.1
607.246	21.09
607.44	21.09
607.634	21.22
607.827	21.2
608.021	21.07
608.214	21.01
608.408	20.87
608.602	20.87
608.795	20.65
608.989	20.68
609.182	20.58
609.376	20.57
609.569	20.48
609.763	20.53
609.956	20.45
610.15	20.44
610.343	20.36
610.537	20.28
610.73	20.3
610.923	20.2
611.117	20.09
611.31	20.03
611.504	20
611.697	19.83
611.89	19.79
612.083	19.69
612.277	19.61
612.47	19.48
612.663	19.38
612.856	19.19
613.05	19.17
613.243	19.13
613.436	18.94
613.629	18.94
613.822	18.96
614.015	18.91
614.209	18.8
614.402	18.86
614.595	18.73
614.788	18.71
614.981	18.6
615.174	18.5
615.367	18.39
615.56	18.25
615.753	18.2
615.946	18.09
616.139	18.14
616.332	18.09
616.525	18.11
616.718	18.12
616.911	18.13
617.103	18.11
617.296	18.09
617.489	18.09
617.682	17.97
617.875	17.86
618.067	17.82
618.26	17.69
618.453	17.69
618.646	17.61
618.838	17.6
619.031	17.48
619.224	17.53
619.417	17.35
619.609	17.3
619.802	17.25
619.994	17.21
620.187	17.16
620.38	17.2
620.572	17.16
620.765	17.21
620.957	17.15
621.15	16.96
621.342	16.9
621.535	16.89
621.727	16.77
621.92	16.73
622.112	16.81
622.305	16.81
622.497	16.74
622.69	16.75
622.882	16.72
623.074	16.65
623.267	16.62
623.459	16.55
623.651	16.49
623.844	16.51
624.036	16.58
624.228	16.55
624.42	16.53
624.613	16.56
624.805	16.6
624.997	16.5
625.189	16.49
625.381	16.54
625.574	16.51
625.766	16.32
625.958	16.33
626.15	16.3
626.342	16.21
626.534	16.19
626.726	16.23
626.918	16.18
627.11	16.17
627.302	16.14
627.494	15.99
627.686	15.93
627.878	15.87
628.07	15.74
628.262	15.73
628.454	15.76
628.646	15.76
628.838	15.78
629.029	15.71
629.221	15.61
629.413	15.54
629.605	15.43
629.797	15.35
629.989	15.4
630.18	15.37
630.372	15.32
630.564	15.35
630.755	15.32
630.947	15.29
631.139	15.22
631.33	15.15
631.522	15.11
631.714	15.03
631.905	14.92
632.097	14.93
632.289	14.92
632.48	14.88
632.672	14.76
632.863	14.66
633.055	14.6
633.246	14.6
633.438	14.55
633.629	14.54
633.821	14.58
634.012	14.53
634.203	14.39
634.395	14.34
634.586	14.41
634.777	14.31
634.969	14.26
635.16	14.25
635.351	14.27
635.543	14.19
635.734	14.18
635.925	14.21
636.117	14.24
636.308	14.13
636.499	14.07
636.69	13.97
636.881	13.89
637.073	13.91
637.264	13.86
637.455	13.79
637.646	13.88
637.837	13.94
638.028	13.73
638.219	13.79
638.41	13.78
638.601	13.64
638.792	13.5
638.983	13.51
639.174	13.34
639.365	13.33
639.556	13.35
639.747	13.3
639.938	13.3
640.129	13.31
640.32	13.17
640.511	13.13
640.701	13.16
640.892	13.12
641.083	13.12
641.274	13.16
641.465	13.17
641.655	13.08
641.846	13.03
642.037	13
642.228	12.91
642.418	12.84
642.609	12.75
642.8	12.69
642.99	12.63
643.181	12.65
643.372	12.58
643.562	12.58
643.753	12.51
643.943	12.47
644.134	12.38
644.324	12.35
644.515	12.35
644.705	12.33
644.896	12.29
645.086	12.29
645.277	12.2
645.467	12.2
645.658	12.14
645.848	12.12
646.038	12.14
646.229	12.16
646.419	12.1
646.61	12.08
646.8	12
646.99	11.9
647.18	11.87
647.371	11.86
647.561	11.7
647.751	11.74
647.941	11.74
648.132	11.7
648.322	11.65
648.512	11.77
648.702	11.63
648.892	11.61
649.082	11.58
649.272	11.45
649.462	11.33
649.653	11.34
649.843	11.16
650.033	11.14
650.223	11.13
650.413	11.16
650.603	11.18
650.793	11.18
650.983	11.11
651.172	11.07
651.362	11.03
651.552	10.92
651.742	10.79
651.932	10.76
652.122	10.8
652.312	10.8
652.502	10.82
652.691	10.91
652.881	10.82
653.071	10.72
653.261	10.55
653.45	10.43
653.64	10.43
653.83	10.42
654.019	10.46
654.209	10.61
654.399	10.64
654.588	10.51
654.778	10.5
654.968	10.36
655.157	10.31
655.347	10.18
655.536	10.15
655.726	10.05
655.915	9.92
656.105	9.78
656.294	9.68
656.484	9.56
656.673	9.47
656.863	9.47
657.052	9.32
657.241	9.27
657.431	9.17
657.62	8.98
657.809	8.78
657.999	8.67
658.188	8.49
658.377	8.42
658.567	8.43
658.756	8.42
658.945	8.26
659.134	8.19
659.324	8.11
659.513	8.05
659.702	7.81
659.891	7.86
660.08	7.79
660.269	7.76
660.458	7.7
660.648	7.76
660.837	7.61
661.026	7.53
661.215	7.36
661.404	7.07
661.593	7.06
661.782	6.91
661.971	6.91
662.16	6.88
662.349	7
662.538	6.79
662.726	6.86
662.915	6.84
663.104	6.72
663.293	6.53
663.482	6.61
663.671	6.49
663.86	6.28
664.048	6.23
664.237	6.31
664.426	6.12
664.615	6.13
664.803	6.27
664.992	6.36
665.181	6.33
665.369	6.31
665.558	6.28
665.747	6.1
665.935	6.07
666.124	6.08
666.312	6.17
666.501	6.12
666.69	6.06
666.878	5.98
667.067	5.91
667.255	5.9
667.444	6.07
667.632	6.22
667.82	6.29
668.009	6.26
668.197	6.31
668.386	6.28
668.574	6.35
668.762	6.35
668.951	6.37
669.139	6.33
669.327	6.23
669.516	6.26
669.704	6.34
669.892	6.41
670.08	6.52
670.269	6.59
670.457	6.6
670.645	6.57
670.833	6.68
671.021	6.64
671.21	6.72
671.398	6.89
671.586	6.92
671.774	6.94
671.962	6.97
672.15	6.93
672.338	6.76
672.526	6.85
672.714	6.76
672.902	6.86
673.09	6.98
673.278	7.17
673.466	7.22
673.654	7.53
673.842	7.53
674.03	7.64
674.218	7.6
674.405	7.62
674.593	7.55
674.781	7.72
674.969	7.65
675.157	7.83
675.344	7.9
675.532	7.94
675.72	7.89
675.908	8.06
676.095	7.89
676.283	8.01
676.471	8.16
676.658	8.29
676.846	8.27
677.033	8.54
677.221	8.57
677.409	8.48
677.596	8.55
677.784	8.72
677.971	8.77
678.159	8.93
678.346	9.2
678.534	9.23
678.721	9.33
678.909	9.19
679.096	9.21
679.283	9.13
679.471	9.29
679.658	9.31
679.846	9.62
680.033	9.73
680.22	9.83
680.408	9.88
680.595	9.99
680.782	9.96
680.969	9.99
681.157	9.94
681.344	9.96
681.531	10.07
681.718	10.12
681.905	10.27
682.093	10.45
682.28	10.6
682.467	10.72
682.654	10.83
682.841	10.9
683.028	11.11
683.215	11.36
683.402	11.26
683.589	11.58
683.776	11.78
683.963	11.83
684.15	11.83
684.337	11.91
684.524	11.86
684.711	11.97
684.898	11.99
685.085	12.08
685.271	12.54
685.458	12.85
685.645	13.03
685.832	13.46
686.019	13.79
686.205	13.86
686.392	14
686.579	14.12
686.766	14.4
686.952	14.66
687.139	15.11
687.326	15.32
687.512	15.76
687.699	16.02
687.886	16.32
688.072	16.49
688.259	17.06
688.445	17.32
688.632	17.34
688.818	17.85
689.005	18.07
689.191	18.44
689.378	19.08
689.564	19.85
689.751	20.23
689.937	21.14
690.124	21.47
690.31	21.93
690.496	22.39
690.683	23.02
690.869	23.52
691.055	24.14
691.242	24.71
691.428	25.37
691.614	25.98
691.8	26.46
691.987	27.2
692.173	27.86
692.359	28.57
692.545	29.09
692.731	29.55
692.918	30.06
693.104	30.69
693.29	31.35
693.476	32.06
693.662	33.05
693.848	33.83
694.034	34.57
694.22	35.22
694.406	35.96
694.592	36.52
694.778	37.13
694.964	37.39
695.15	37.99
695.336	38.79
695.522	39.69
695.708	40.52
695.894	41.52
696.08	42.25
696.265	42.66
696.451	43.14
696.637	44
696.823	44.79
697.009	45.62
697.194	46.43
697.38	47.29
697.566	47.73
697.751	48.15
697.937	48.66
698.123	49.48
698.308	50.04
698.494	50.49
698.68	51.44
698.865	51.98
699.051	52.65
699.236	53.48
699.422	54.22
699.607	54.5
699.793	55.49
699.978	55.81
700.164	56.06
700.349	57
700.535	57.94
700.72	58.1
700.906	59.04
701.091	59.71
701.276	60.15
701.462	61.01
701.647	62
701.832	62.33
702.018	63.04
702.203	63.79
702.388	64.08
702.573	64.49
702.759	65.25
702.944	65.6
703.129	65.74
703.314	66.23
703.499	66.75
703.684	67.61
703.87	68.29
704.055	69.22
704.24	69.87
704.425	70.48
704.61	70.48
704.795	70.82
704.98	70.86
705.165	71.23
705.35	71.53
705.535	71.94
705.72	73.01
705.905	73.69
706.09	73.93
706.275	74.16
706.459	74.38
706.644	73.89
706.829	74.29
707.014	74.64
707.199	74.86
707.384	75.53
707.568	76.18
707.753	76.86
707.938	77.65
708.123	78.07
708.307	78.32
708.492	78.59
708.677	78.21
708.861	78.13
709.046	78.29
709.231	78.61
709.415	79.08
709.6	79.63
709.784	79.6
709.969	80.26
710.153	80.02
710.338	80.3
710.522	80.25
710.707	81.04
710.891	80.91
711.076	81.63
711.26	81.22
711.445	81.73
711.629	81.61
711.813	82.22
711.998	82.54
712.182	82.63
712.366	82.71
712.551	83.22
712.735	82.86
712.919	83.17
713.103	83.88
713.288	84.22
713.472	84.07
713.656	84.84
713.84	84.82
714.024	85.14
714.208	85.21
714.393	85.95
714.577	86.03
714.761	85.81
714.945	86.15
715.129	85.71
715.313	85.34
715.497	85.43
715.681	85.78
715.865	85.87
716.049	86.98
716.233	87.37
716.417	87.5
716.601	87.74
716.785	87.54
716.968	87.34
717.152	87.26
717.336	87.46
717.52	87.45
717.704	88.11
717.888	88.36
718.071	88.61
718.255	89.1
718.439	89.46
718.622	89.93
718.806	89.77
718.99	89.35
719.174	89.33
719.357	89.77
719.541	89.07
719.724	89.73
719.908	90.97
720.092	91.34
720.275	91.26
720.459	92.02
720.642	91.57
720.826	91.48
721.009	90.85
721.193	90.42
721.376	89.71
721.559	91.14
721.743	91.2
721.926	91.54
722.11	91.41
722.293	91.72
722.476	90.29
722.66	90.02
722.843	90.56
723.026	91
723.21	91.3
723.393	92.41
723.576	93.03
723.759	92.17
723.942	92.94
724.126	93.04
724.309	92.66
724.492	92.22
724.675	93.33
724.858	93.12
725.041	94.11
725.224	94.64
725.407	94.73
725.59	94.34
725.774	94.29
725.957	93.01
726.14	92.77
726.322	93.7
726.505	93.63
726.688	93.88
726.871	93.89
727.054	94.48
727.237	94.02
727.42	94.65
727.603	94.74
727.786	95.25
727.968	95.04
728.151	94.26
728.334	94.41
728.517	95.23
728.699	95.66
728.882	95.37
729.065	96.71
729.248	96.68
729.43	96.77
729.613	97.76
729.796	98.44
729.978	98.16
730.161	97.91
730.343	97.85
730.526	97.72
730.708	97.5
730.891	98.08
731.073	98.24
731.256	97.42
731.438	97.53
731.621	98.01
731.803	98.23
731.986	98.42
732.168	99.12
732.35	98.63
732.533	98.67
732.715	98.5
732.898	98.76
733.08	98.78
733.262	98.87
733.444	98.21
733.627	97.55
733.809	98.35
733.991	98.8
734.173	99.53
734.355	100.69
734.538	101.3
734.72	100.68
734.902	100.98
735.084	100.08
735.266	99.96
735.448	99.97
735.63	100.2
735.812	100.38
735.994	100.98
736.176	100.69
736.358	100.93
736.54	101.53
736.722	101.64
736.904	101.25
737.086	101.22
737.268	102.71
737.45	103.12
737.632	102.82
737.814	102.77
737.995	104.31
738.177	103.62
738.359	102.94
738.541	102.56
738.723	102.81
738.904	101.96
739.086	101.75
739.268	101.19
739.449	102.1
739.631	102.07
739.813	102.18
739.994	102.72
740.176	103.44
740.358	103.33
740.539	105.16
740.721	105.13
740.902	105.43
741.084	106.06
741.265	105.39
741.447	104.78
741.628	104.58
741.81	102.96
741.991	103.04
742.172	104.18
742.354	104.05
742.535	104.15
742.717	105.8
742.898	104.99
743.079	105.65
743.261	105.07
743.442	104.91
743.623	104.68
743.804	105.87
743.986	106.04
744.167	105.45
744.348	106.87
744.529	106.83
744.71	105.2
744.891	104.38
745.073	104.9
745.254	104.49
745.435	104.4
745.616	104.43
745.797	103.4
745.978	104
746.159	102.52
746.34	102.11
746.521	102.74
746.702	103.82
746.883	103.61
747.064	102.15
747.245	102.08
747.426	102.5
747.606	102.34
747.787	102.09
747.968	103.67
748.149	103.86
748.33	104.01
748.51	102.54
748.691	100.82
748.872	102.38
749.053	101.03
749.233	101.2
749.414	101.56
749.595	103.52
749.775	101.27
749.956	101.02
750.137	99.78
750.317	100.05
750.498	100.59
750.678	100.22
750.859	102.08
751.04	103.78
751.22	103.04
751.4	101.59
751.581	103.73
751.761	102.13
751.942	101.86
752.122	103.15
752.303	103.19
752.483	103.14
752.663	104.62
752.844	104.67
753.024	104.42
753.204	104.81
753.385	103.79
753.565	102.63
753.745	101.09
753.925	100.41
754.106	101.52
754.286	101.55
754.466	101.05
754.646	102.52
754.826	104.31
755.006	102.63
755.187	102.93
755.367	104.21
755.547	103.72
755.727	102.81
755.907	102.4
756.087	104.21
756.267	103.43
756.447	103.89
756.627	103.62
756.807	106
756.987	103.81
757.167	104.73
757.346	103.8
757.526	101.58
757.706	100.99
757.886	101.55
758.066	102.04
758.246	103.98
758.425	105.62
758.605	105
758.785	105.42
758.965	103.63
759.144	99.26
759.324	99.04
759.504	99.65
759.683	98.74
759.863	98.54
760.043	100.45
760.222	101.18
760.402	99.78
760.581	100.36
760.761	102.09
760.94	100.2
761.12	98.78
761.299	100.42
761.479	100.72
761.658	98.65
761.838	99.78
762.017	101
762.197	100.15
762.376	99.33
762.555	101.4
762.735	102.21
762.914	99.55
763.093	101.21
763.273	99.14
763.452	99.43
763.631	98.4
763.81	98.94
763.99	95.94
764.169	98.24
764.348	95.01
764.527	95.75
764.706	97.87
764.885	99.96
765.064	98.89
765.243	99.85
765.423	100.08
765.602	100.02
765.781	98.43
765.96	96.45
766.139	96.9
766.318	97.28
766.497	96.72
766.676	97.44
766.854	100.46
767.033	100.09
767.212	98.42
767.391	97.48
767.57	97.15
767.749	95.93
767.928	95.18
768.106	95.08
768.285	95.49
768.464	95.93
768.643	95.64
768.821	97.94
769	98.57
769.179	98.6
769.357	94.59
769.536	93.66
769.715	94.25
769.893	93.71
770.072	94.14
770.25	94.9
770.429	94.91
770.607	92.84
770.786	92.89
770.964	92.75
771.143	96.46
771.321	99.27
771.5	100.27
771.678	99.49
771.857	98.3
772.035	97.36
772.213	95.36
772.392	91.34
772.57	92.35
772.748	93.71
772.927	90.73
773.105	89.75
773.283	94.15
773.461	95.21
773.64	92
773.818	91.17
773.996	93.47
774.174	93.27
774.352	89.88
774.531	92.19
774.709	95.96
774.887	95.35
775.065	93.59
775.243	94.86
775.421	95.75
775.599	97.77
775.777	96.43
775.955	94.17
776.133	95.62
776.311	93.49
776.489	89.26
776.667	89.19
776.844	91.23
777.022	89.54
777.2	89.86
777.378	90.34
777.556	91.69
777.734	92.06
777.911	92.05
778.089	91
778.267	94.86
778.445	91.62
778.622	89.1
778.8	90.16
778.978	94.49
779.155	89.64
779.333	90.46
779.511	89.42
779.688	90.97
779.866	84.23
780.043	83.69
780.221	83.92
780.398	84.34
780.576	81.23
780.753	85.67
780.931	85.78
781.108	87.16
781.286	90.61
781.463	88.43
781.64	88.18
781.818	92.07
781.995	90.99
782.172	87.86
782.35	92.7
782.527	91.07
782.704	87.21
782.882	88.83
783.059	91.5
783.236	90.42
783.413	91.7
783.59	91.35
783.768	88.41
783.945	88.26
784.122	89.83
784.299	87.06
784.476	88.16
784.653	90.31
784.83	87.17
785.007	78.27
785.184	81.99
785.361	82.9
785.538	84.78
785.715	87.05
785.892	94.8
786.069	95.53
786.246	96.12
786.423	91.18
786.6	89.79
786.776	88.43
786.953	85.61
787.13	85.1
787.307	86.4
787.484	87.71
787.66	86.97
787.837	85.86
788.014	85.56
788.191	86.92
788.367	85.78
788.544	86.62
788.721	88
788.897	88.92
789.074	90.3
789.25	89.11
789.427	92.51
789.603	92.09
789.78	94.93
789.956	84.77
790.133	87.6
790.309	83.06
790.486	85.23
790.662	82.22
790.839	85.84
791.015	85.51
791.192	82.56
791.368	82.53
791.544	79.82
791.721	85.8
791.897	82.96
792.073	84.79
792.249	83
792.426	89.05
792.602	88.8
792.778	84.97
792.954	83.65
793.13	81.75
793.307	76.67
793.483	69.67
793.659	73.2
793.835	74.19
794.011	75.61
794.187	69.79
794.363	67.85
794.539	71.47
794.715	70
794.891	69.9
795.067	72.28
795.243	81.92
795.419	79.15
795.595	80.58
795.771	79.77
795.947	84.24
796.122	74.9
796.298	77.57
796.474	80.22
796.65	78.47
796.826	77.08
797.001	86
797.177	82.89
797.353	81.28
797.529	88.46
797.704	88.76
797.88	84.81
798.056	79.39
798.231	78.95
798.407	78.08
798.582	76.11
798.758	79.72
798.934	86.47
799.109	85.3
799.285	81.56
799.46	87.14
799.636	84.42
799.811	83.23
799.986	86.24
800.162	91.04
800.337	87.46
800.513	84.58
800.688	82.79
800.863	82.3
801.039	74.12
801.214	71.56
801.389	73.92
801.565	77.76
801.74	76.45
801.915	79.96
802.09	84
802.265	92.52
802.441	87.92
802.616	83.85
802.791	85.07
802.966	83.94
803.141	79.62
803.316	71.1
803.491	73.57
803.666	65.11
803.841	60.4
804.016	55.01
804.191	68.12
804.366	67.41
804.541	72.98
804.716	69.07
804.891	63.64
805.066	63.18
805.241	65.93
805.416	64.93
805.591	62.42
805.765	65.17
805.94	64.39
806.115	60.47
806.29	59.98
806.464	73.5
806.639	76.76
806.814	66.69
806.989	61.77
807.163	61.04
807.338	53.42
807.512	47.47
807.687	44
807.862	53.92
808.036	59.53
808.211	62.15
808.385	67.88
808.56	75.82
808.734	69.48
808.909	67.52
809.083	59.67
809.258	62.15
809.432	68.57
809.606	60.43
809.781	67.71
809.955	77.11
810.13	75.85
810.304	64
810.478	67.51
810.652	70.13
810.827	72.73
811.001	73.88
811.175	74.46
811.349	77.79
811.524	64.56
811.698	54.36
811.872	51.59
812.046	56.67
812.22	63.38
812.394	63.77
812.568	67.13
812.742	70.29
812.916	67.69
813.09	59.54
813.264	69.09
813.438	69.13
813.612	66.2
813.786	53.56
813.96	67.69
814.134	67.71
814.308	61.88
814.482	68.28
814.656	81.74
814.83	77.58
815.003	75.33
815.177	80.54
815.351	74.63
815.525	78.81
815.698	75.9
815.872	64.23
816.046	59.13
816.219	60.5
816.393	59.82
816.567	62.25
816.74	66.89
816.914	81.72
817.088	78.76
817.261	75.63
817.435	71.94
817.608	70.88
817.782	59.67
817.955	59.55
818.129	52.74
818.302	57.98
818.475	66.01
818.649	67.38
818.822	55.21
818.996	66.07
819.169	65.85
819.342	57.69
819.516	57.31
819.689	78.03
819.862	75.29
820.035	64.37
820.209	54.35
820.382	62.56
820.555	52.71
820.728	44.09
820.901	45.75
821.075	58.35
821.248	70.29
821.421	68.62
821.594	63.78
821.767	84.58
821.94	110.55
822.113	67.62
822.286	62.89
822.459	84.96
822.632	70.27
822.805	51.15
822.978	64.41
823.151	72.35
823.324	49.68
823.496	24.57
823.669	23
823.842	34.93
824.015	22.82
824.188	14.69
824.361	15.97
824.533	17.93
824.706	24.03
824.879	31.16
825.051	73.05
825.224	89.66
825.397	74.43
825.569	61.61
825.742	66.8
825.915	60.87
826.087	51.78
826.26	46.76
826.432	49.36
826.605	59.11
826.777	66.89
826.95	69.28
827.122	73.03
827.295	75.57
827.467	60.87
827.64	29.28
827.812	24.7
827.984	28.29
828.157	18.84
828.329	15.66
828.501	35.43
828.674	50.95
828.846	56.82
829.018	70.09
829.19	67.62
829.363	66.4
829.535	60.04
829.707	64.58
829.879	40.61
830.051	40.76
830.223	47.01
830.395	29.77
830.568	22.65
830.74	36.64
830.912	52.39
831.084	31.64
831.256	30.69
831.428	16.1
831.6	13.46
831.772	-1.96
831.943	6.09
832.115	23.82
832.287	53.49
832.459	54.38
832.631	57.43
832.803	69.49
832.975	78
833.146	75.62
833.318	74.1
833.49	78.73
833.662	65.72
833.833	47.7
834.005	39.97
834.177	52.55
834.348	36.48
834.52	27.06
834.692	28.48
834.863	29.33
835.035	11.99
835.206	21.52
835.378	39.24
835.549	33.84
835.721	37.22
835.892	41.96
836.064	45.05
836.235	45.67
836.407	59.88
836.578	43.48
836.749	53.68
836.921	56.28
837.092	48.14
837.264	16.87
837.435	-5.54
837.606	-3.34
837.777	23.93
837.949	39.5
838.12	24.41
838.291	50.95
838.462	51.06
838.633	26.83
838.805	11.34
838.976	35.79
839.147	24.92
839.318	-8.89
839.489	-27.57
839.66	-7.24
839.831	5.72
840.002	20.12
840.173	27.13
840.344	39.71
840.515	27.18
840.686	-8.49
840.857	-30.13
841.028	-42.41
841.199	-21.24
841.369	-24.59
841.54	-23.92
841.711	30.66
841.882	44.21
842.053	27.63
842.223	8.16
842.394	28.74
842.565	26.11
842.736	31.92
842.906	31.54
843.077	59.15
843.248	74.25
843.418	46.9
843.589	26
843.759	45.41
843.93	46.5
844.101	18.98
844.271	22.15
844.442	54.6
844.612	72.36
844.783	43.84
844.953	30.54
845.123	46.94
845.294	30.42
845.464	-7.49
845.635	16.62
845.805	47.68
845.975	40.17
846.146	6.62
846.316	9.25
846.486	9.55
846.656	-1.19
846.827	-34.1
846.997	-10.32
847.167	-7.87
847.337	-12.56
847.507	-9.18
847.677	5.03
847.848	39.71
848.018	42.11
848.188	54.44
848.358	55.99
848.528	64.4
848.698	32.85
848.868	2.44
849.038	-11.92
849.208	2.19
849.378	18.13
849.548	-19.73
849.718	22.57
849.887	76.26
850.057	23.68
850.227	-23
850.397	23.35
850.567	6.04
850.737	-1
850.906	-34.67
851.076	-56.37
851.246	-69.64
851.415	-35.18
851.585	-3.28
851.755	18.01
851.924	64.57
852.094	62.82
852.264	47.26
852.433	6.52
852.603	33.79
852.772	23.59
852.942	4.36
853.111	0.38
853.281	38.85
853.45	13.63
853.62	-0.58
853.789	-37.2
853.959	5.02
854.128	-17.49
854.297	-32.83
854.467	-44.86
854.636	4.3
854.805	-18.76
854.975	-25.77
855.144	-10.81
855.313	30.47
855.482	13.09
855.652	4.27
855.821	12.11
855.99	31.05
856.159	19.56
856.328	38.74
856.497	40.53
856.667	44.54
856.836	10.23
857.005	-51.76
857.174	-120.17
857.343	-148.61
857.512	-91.88
857.681	-89.4
857.85	-48.64
858.019	-34.69
858.188	-32.2
858.356	-48.74
858.525	-40.18
858.694	-40.44
858.863	-27.51
859.032	-34.63
859.201	-27.98
859.369	-22.42
859.538	0.73
859.707	-12.29
859.876	-11.21
860.044	-5.25
860.213	29.58
860.382	14.82
860.55	24.54
860.719	56.91
860.888	53.1
861.056	-3.23
861.225	-16.21
861.393	39.44
861.562	76.45
861.73	51.26
861.899	58.79
862.067	40.72
862.236	30.84
862.404	-13.1
862.572	-23.33
862.741	10.83
862.909	27.14
863.078	11.94
863.246	7.01
863.414	33.67
863.582	10.87
863.751	5.03
863.919	-17.98
864.087	30.14
864.255	51.75
864.424	24.54
864.592	38.7
864.76	72.37
864.928	70.79
865.096	15.94
865.264	27.87
865.432	37.17
865.6	26.27
865.768	-62.25
865.936	-97.1
866.104	-80.27
866.272	-136.31
866.44	-88.27
866.608	-79.11
866.776	-103.86
866.944	-140.62
867.112	-216.34
867.28	-349.17
867.448	-223.94
867.615	-11.08
867.783	8.55
867.951	6.39
868.119	88.23
868.286	33.68
868.454	-4.27
868.622	-6.58
868.789	3.76
868.957	15.06
869.125	-13.82
869.292	-0.07
869.46	11.68
869.627	21.97
869.795	-36.91
869.963	-0.07
870.13	22.87
870.298	28.34
870.465	-1.3
870.632	4.4
870.8	-30.65
870.967	-45.16
871.135	-133.33
871.302	-95.64
871.469	-54.43
871.637	-22.97
871.804	-13.66
871.971	-25.61
872.139	-11.49
872.306	13.44
872.473	-9.85
872.64	-55
872.807	-0.38
872.975	24.58
873.142	-22.62
873.309	18.59
873.476	96.7
873.643	100.13
873.81	70.12
873.977	48.88
874.144	53.05
874.311	46.4
874.478	-20.02
874.645	-70.61
874.812	-286.06
874.979	15219.05
875.146	-482.66
875.313	-111.28
875.48	-32.96
875.647	22.9
875.813	-32.16
875.98	-42.5
876.147	-97.72
876.314	-77.07
876.481	-145.2
876.647	-152.99
876.814	-89.3
876.981	-87.5
877.147	-160.68
877.314	-172.72
877.481	-59.35
877.647	-16.44
877.814	-30.27
877.98	-60.37
878.147	-2.1
878.314	-4.7
878.48	-75.07
878.647	-43.84
878.813	33.22
878.979	61.84
879.146	23.64
879.312	60.88
879.479	65.21
879.645	60.55
879.811	-10.34
879.978	4.16
880.144	-3.23
880.31	-0.56
880.477	-54.86
880.643	-36.98
880.809	-7.32
880.975	15.35
881.142	-12.57
881.308	-7.91
881.474	47.12
881.64	49.34
881.806	23.25
881.972	30.21
882.138	45.94
882.304	45.37
882.47	-27.95
882.636	-57.34
882.802	-44.44
882.968	-0.88
883.134	-82.82
883.3	-62.37
883.466	54.54
883.632	77.7
883.798	12.46
883.964	24.82
884.129	23.78
884.295	4.16
884.461	-26.87
884.627	-35.84
884.793	-23.59
884.958	16.47
885.124	-25
885.29	-23.66
885.455	21.87
885.621	60.41
885.787	-63.95
885.952	5.69
886.118	-4.22
886.283	21.11
886.449	-40.98
886.614	-16.74
886.78	-1.99
886.945	46.47
887.111	-152.02
887.276	-128.35
887.442	-260.32
887.607	-194.7
887.773	-263.87
887.938	-159.6
888.103	-102.69
888.269	-34.08
888.434	-22.53
888.599	-7.89
888.764	45.81
888.93	50.12
889.095	17.06
889.26	0.16
889.425	24.96
889.59	32.91
889.756	10.96
889.921	48.27
890.086	69.22
890.251	74.7
890.416	-5.61
890.581	-4.29
890.746	9.09
890.911	15.66
891.076	-19.07
891.241	-22.05
891.406	11.34
891.571	38.19
891.736	-1.11
891.901	-32.85
892.065	18.75
892.23	1.5
892.395	-83.37
892.56	-118.13
892.725	-30.7
892.889	-34.57
893.054	-85.71
893.219	-95.77
893.384	-101.83
893.548	-145.99
893.713	-198.91
893.878	-191.22
