Data from Ofra_PP_Phys_2CX12O_Reflection_1.txt Node
Date: Sat Jul 24 20:06:35 EDT 2021
User: USUARIO
Spectrometer: FLMT01687
Trigger mode: 0
Integration Time (sec): 1.100000E0
Scans to average: 2
Electric dark correction enabled: true
Nonlinearity correction enabled: false
Boxcar width: 2
XAxis mode: Wavelengths
Number of Pixels in Spectrum: 3648
>>>>>Begin Spectral Data<<<<<
179.494	624.14
179.716	765.61
179.937	1331.89
180.158	1162.23
180.38	545
180.601	-248.36
180.823	156.47
181.044	82.17
181.265	51.76
181.486	77.11
181.708	-144.69
181.929	-2477.33
182.15	-34.54
182.372	-10.27
182.593	-733.33
182.814	37.95
183.035	109.22
183.257	47.64
183.478	18.45
183.699	33.91
183.92	-18.13
184.141	3.09
184.363	-47.93
184.584	20.96
184.805	1.98
185.026	30.54
185.247	25.07
185.468	15.24
185.689	7.98
185.91	14.06
186.132	0.32
186.353	10.88
186.574	47.12
186.795	47.78
187.016	15.53
187.237	33.74
187.458	9.64
187.679	-16.64
187.9	23.31
188.121	61.01
188.342	75.69
188.563	93.12
188.784	100.59
189.005	120.65
189.226	104.88
189.447	84.07
189.667	81.66
189.888	51.99
190.109	9.38
190.33	-14.13
190.551	-42.34
190.772	-57.2
190.993	-72.02
191.214	-43.07
191.434	-35.46
191.655	32.15
191.876	49.23
192.097	31
192.318	28.98
192.538	24.7
192.759	20.89
192.98	7.81
193.201	39.47
193.421	6.34
193.642	9.12
193.863	4.12
194.083	0.53
194.304	-2.65
194.525	24.48
194.745	14.94
194.966	-38.04
195.187	-63.04
195.407	-116.62
195.628	-129.97
195.848	-96.31
196.069	-102.35
196.29	-60.72
196.51	-89.66
196.731	-106.58
196.951	-93.68
197.172	-64.5
197.392	-73.7
197.613	-22.77
197.833	-6.25
198.054	-31.29
198.274	3.47
198.495	-26.38
198.715	-11.64
198.936	-41.64
199.156	-3.98
199.377	-42.46
199.597	-29.02
199.817	-53.18
200.038	-3.73
200.258	-7.55
200.479	32.47
200.699	42.04
200.919	50.87
201.14	-1.28
201.36	-16.8
201.58	-26.57
201.801	-37.09
202.021	-68.99
202.241	-18.83
202.461	-36.94
202.682	-37.28
202.902	-4.8
203.122	-10.7
203.342	-31.62
203.563	-21.83
203.783	2.43
204.003	-68.09
204.223	-93.27
204.443	42.41
204.663	59.27
204.884	-17.38
205.104	24.5
205.324	51.64
205.544	19.98
205.764	17.3
205.984	42.47
206.204	65.37
206.424	42.79
206.644	-3.88
206.864	30.92
207.084	14.85
207.304	-3.67
207.525	-23.1
207.745	-12.92
207.964	-59.91
208.184	-47.2
208.404	-51.55
208.624	-40.34
208.844	-31.56
209.064	-57.63
209.284	-45.52
209.504	-20.26
209.724	-8.79
209.944	-20.17
210.164	5.88
210.384	0.28
210.604	-28.52
210.823	-68.32
211.043	-90.87
211.263	-77.89
211.483	-99.18
211.703	-81.18
211.922	-30.55
212.142	36.51
212.362	43.26
212.582	27.27
212.801	36.74
213.021	9.76
213.241	-11.44
213.461	-38.17
213.68	-50.88
213.9	-65.4
214.12	-58.01
214.339	-59.58
214.559	-51.16
214.779	-7.48
214.998	21.38
215.218	9.6
215.438	21.44
215.657	27.59
215.877	29.74
216.096	22.96
216.316	38.26
216.535	43.23
216.755	37.75
216.974	16.78
217.194	31.5
217.413	24.46
217.633	2.49
217.852	-60.23
218.072	-60.91
218.291	-108.18
218.511	-86.6
218.73	-119.62
218.95	-89.93
219.169	-74.27
219.389	-84.78
219.608	-87.01
219.827	-18.52
220.047	1.99
220.266	-3.04
220.485	-14.71
220.705	2.95
220.924	-46.8
221.143	-32.19
221.363	-66.96
221.582	-17.43
221.801	-30.29
222.021	1.65
222.24	14.71
222.459	42.19
222.678	23.45
222.897	15.44
223.117	8.12
223.336	22.25
223.555	39.65
223.774	66.43
223.993	83.6
224.213	112.73
224.432	51.11
224.651	44.11
224.87	29.66
225.089	45.72
225.308	35.33
225.527	51.68
225.746	55.58
225.965	44.87
226.184	22.68
226.404	35.87
226.623	18.37
226.842	19.88
227.061	52.34
227.28	73.31
227.499	80.97
227.718	107.39
227.936	101.13
228.155	94.56
228.374	44.69
228.593	11.92
228.812	-0.15
229.031	0.37
229.25	-17.52
229.469	19.68
229.688	32.55
229.907	49.47
230.125	54.2
230.344	58.44
230.563	47.85
230.782	59.05
231.001	-3.97
231.22	-1.66
231.438	5.75
231.657	12.39
231.876	2.14
232.095	38.71
232.313	47.84
232.532	32.9
232.751	36.16
232.969	38.9
233.188	39.87
233.407	25.29
233.625	21.74
233.844	1.45
234.063	-19.89
234.281	4.47
234.5	10.8
234.719	7.65
234.937	32.94
235.156	32.55
235.374	28.87
235.593	40.69
235.811	52.49
236.03	44.95
236.249	33.29
236.467	34.34
236.686	-7.7
236.904	-6.73
237.123	-49.81
237.341	-28.11
237.559	-39.54
237.778	-12.42
237.996	-30.66
238.215	-2.34
238.433	-10.68
238.652	0.72
238.87	-28.01
239.088	-3.85
239.307	3.87
239.525	10.48
239.743	-31.43
239.962	-13.67
240.18	-39.08
240.398	-67.52
240.617	-79.49
240.835	-23.08
241.053	-42.61
241.271	-19.65
241.49	10.06
241.708	12.8
241.926	3.79
242.144	21.1
242.363	21.62
242.581	20.24
242.799	31.02
243.017	20.23
243.235	4.78
243.453	12.82
243.672	-9.71
243.89	15.96
244.108	24.71
244.326	47.78
244.544	28.19
244.762	17.25
244.98	6.8
245.198	8.02
245.416	-23.36
245.634	-18.98
245.852	8.81
246.07	-0.82
246.288	-10.34
246.506	12.84
246.724	27.57
246.942	21.2
247.16	29.64
247.378	39.75
247.596	39.37
247.814	36.13
248.032	6.7
248.25	-1.6
248.468	-3.86
248.685	21.08
248.903	21.55
249.121	36.28
249.339	9.44
249.557	12.96
249.775	-17.01
249.992	-69.43
250.21	-79.43
250.428	-34.28
250.646	-34.41
250.863	-25.95
251.081	7.12
251.299	36.12
251.517	30.15
251.734	30.1
251.952	7.67
252.17	12.43
252.387	19.38
252.605	-4.04
252.823	-3.88
253.04	9.88
253.258	15.64
253.475	9.68
253.693	37.07
253.911	53.25
254.128	49.59
254.346	50.89
254.563	32.94
254.781	30.04
254.998	17.44
255.216	14.1
255.433	10.66
255.651	47.98
255.868	57.76
256.086	62.14
256.303	68.04
256.521	71.99
256.738	44.98
256.956	22.2
257.173	21.25
257.39	19.31
257.608	16.81
257.825	20.41
258.043	23.41
258.26	20.54
258.477	23.01
258.695	8.81
258.912	-35.74
259.129	-20.57
259.346	-46.5
259.564	-63.42
259.781	-27.23
259.998	-1.27
260.216	21.9
260.433	60.54
260.65	53.57
260.867	52.96
261.084	40.01
261.302	24.45
261.519	31.72
261.736	17.07
261.953	6.92
262.17	21.5
262.387	23.13
262.604	-6.44
262.822	11.33
263.039	11.49
263.256	7.64
263.473	1.34
263.69	-8.48
263.907	9.08
264.124	16.94
264.341	38.39
264.558	31.79
264.775	38.95
264.992	42.1
265.209	31.75
265.426	11.69
265.643	21.08
265.86	26.62
266.077	33.77
266.294	33.24
266.51	36.45
266.727	12.36
266.944	19.32
267.161	-13.34
267.378	-8.21
267.595	2.06
267.812	-20.77
268.028	-25.95
268.245	-10.6
268.462	-18.44
268.679	-28.69
268.896	21.26
269.112	13.25
269.329	9.81
269.546	35.45
269.763	33.84
269.979	32.73
270.196	30.51
270.413	26.76
270.629	-11.68
270.846	-18.15
271.063	-15.33
271.279	-25.11
271.496	-54.51
271.712	-43.38
271.929	-42.24
272.146	-30.33
272.362	-18.96
272.579	26.46
272.795	38.77
273.012	63
273.228	59
273.445	45.49
273.661	7.44
273.878	-41.53
274.094	-65.39
274.311	-86.9
274.527	-45.66
274.744	-23.38
274.96	3.24
275.177	21.44
275.393	22.74
275.609	21.02
275.826	36.24
276.042	41.69
276.259	48.19
276.475	43.44
276.691	34.44
276.908	18.81
277.124	44.8
277.34	37.05
277.557	31.71
277.773	33.7
277.989	28.19
278.205	15.61
278.422	8.89
278.638	17.77
278.854	17.71
279.07	33.35
279.286	9.36
279.503	-0.11
279.719	-2.24
279.935	-9.64
280.151	-30.35
280.367	2.73
280.583	17.14
280.799	15.4
281.016	17.46
281.232	26.01
281.448	19.16
281.664	25.56
281.88	20.32
282.096	16.4
282.312	38.25
282.528	50.43
282.744	45.6
282.96	61.35
283.176	74.43
283.392	60.63
283.608	47.19
283.824	35.8
284.04	24.47
284.256	38.08
284.471	27.35
284.687	20.63
284.903	26.3
285.119	38.59
285.335	6.3
285.551	13.47
285.767	17.03
285.982	-2.19
286.198	-17.15
286.414	5.36
286.63	3.66
286.846	17.45
287.061	2.92
287.277	5.83
287.493	7.57
287.709	15.79
287.924	4.79
288.14	43.47
288.356	61.46
288.571	60.22
288.787	52.19
289.003	57.06
289.218	21.93
289.434	-26.34
289.65	0.54
289.865	6.64
290.081	8.31
290.296	26.38
290.512	24.83
290.727	21.95
290.943	6.27
291.159	-0.32
291.374	-5.1
291.59	-16.73
291.805	-34.84
292.021	-13.25
292.236	-12.22
292.451	-9.11
292.667	16.16
292.882	29.21
293.098	40.39
293.313	46.12
293.529	46.86
293.744	27.07
293.959	-2.03
294.175	-11.12
294.39	4.44
294.605	6.68
294.821	15.9
295.036	15.98
295.251	29.13
295.467	12.09
295.682	16.12
295.897	-1.49
296.112	10.99
296.328	4.83
296.543	0.27
296.758	1.94
296.973	32.06
297.188	46.84
297.404	18.77
297.619	24.92
297.834	16.48
298.049	8.44
298.264	-10.03
298.479	17.78
298.694	16.64
298.909	37.21
299.125	45.61
299.34	58.42
299.555	46.4
299.77	58.93
299.985	5.46
300.2	-27.33
300.415	-56.68
300.63	-35.21
300.845	-43.82
301.06	-37.36
301.275	-14.16
301.49	3.53
301.704	-5.47
301.919	-25.7
302.134	-21.78
302.349	4.88
302.564	-13.48
302.779	8.99
302.994	46.1
303.209	50.63
303.423	49.6
303.638	82.94
303.853	50.59
304.068	19.72
304.283	16.92
304.497	1.35
304.712	-2.91
304.927	8.62
305.142	2.65
305.356	6.95
305.571	19.16
305.786	12.86
306	15.95
306.215	48.98
306.43	25.43
306.644	32.21
306.859	36.66
307.074	27.29
307.288	-6.92
307.503	2.59
307.717	-8.46
307.932	-12.09
308.147	-15.35
308.361	14.17
308.576	-7.71
308.79	-60.23
309.005	-24.68
309.219	-23.59
309.434	-15.91
309.648	-17.32
309.863	20.99
310.077	3.72
310.292	16.09
310.506	10.57
310.72	33.69
310.935	23.06
311.149	22.26
311.364	24.01
311.578	33.2
311.792	26.29
312.007	42.18
312.221	6.15
312.435	8.46
312.649	-10.95
312.864	34.49
313.078	21.98
313.292	74.04
313.507	63.57
313.721	55.83
313.935	36.19
314.149	57.34
314.363	39.98
314.578	28.38
314.792	23.45
315.006	28.04
315.22	12.8
315.434	15.02
315.648	17.36
315.862	18.27
316.077	-5.89
316.291	7.79
316.505	2.5
316.719	14.7
316.933	-14.66
317.147	13.64
317.361	-22.4
317.575	-10
317.789	-25.59
318.003	-13.89
318.217	-13.68
318.431	15.82
318.645	16.51
318.859	17.07
319.073	37.48
319.287	22.46
319.5	-7.31
319.714	-40.56
319.928	-36.61
320.142	-66.15
320.356	-19.7
320.57	4.76
320.784	7.78
320.997	6.11
321.211	23.52
321.425	-5.02
321.639	-35.1
321.853	3.97
322.066	1.81
322.28	-9.05
322.494	-0.13
322.707	51.12
322.921	22.47
323.135	30.03
323.349	42.04
323.562	30.54
323.776	4.3
323.989	19.15
324.203	0.9
324.417	-3.8
324.63	-23.34
324.844	-35.41
325.057	-44.81
325.271	-39.99
325.485	-41.43
325.698	10.08
325.912	30.45
326.125	25.36
326.339	42.73
326.552	46.22
326.766	35.95
326.979	35.72
327.193	47.75
327.406	23.82
327.619	26.06
327.833	31.2
328.046	11.13
328.26	2.58
328.473	7.2
328.686	-13.05
328.9	-15.52
329.113	-10.47
329.326	-22.31
329.54	-13.31
329.753	10.19
329.966	8.99
330.179	40.6
330.393	61.7
330.606	54.73
330.819	53.52
331.032	56.48
331.246	45.39
331.459	45.52
331.672	35.27
331.885	19.73
332.098	2.24
332.311	20.52
332.525	-3.14
332.738	10.37
332.951	32.4
333.164	42.46
333.377	45.15
333.59	65.47
333.803	52.36
334.016	33.84
334.229	27.69
334.442	21.7
334.655	26.27
334.868	41.23
335.081	41.86
335.294	34.89
335.507	30.16
335.72	21.96
335.933	9.73
336.146	12.46
336.359	21.41
336.572	5.76
336.785	0.66
336.997	-0.63
337.21	17.95
337.423	22.9
337.636	29.44
337.849	33.44
338.062	35.21
338.274	36.76
338.487	18.42
338.7	13.78
338.913	-3.94
339.125	-11.6
339.338	-15.3
339.551	-4.82
339.763	29.84
339.976	56.11
340.189	70.14
340.402	65.3
340.614	48.15
340.827	28.06
341.039	6.52
341.252	-18.43
341.465	-26.14
341.677	-23.65
341.89	-61.43
342.102	-49.19
342.315	-43.01
342.527	-66.45
342.74	-59.34
342.952	-10.25
343.165	-7.93
343.377	8.26
343.59	14.7
343.802	36.92
344.015	29.55
344.227	45.15
344.44	26.76
344.652	21.57
344.864	16.16
345.077	23.55
345.289	17.63
345.502	36.04
345.714	33.54
345.926	30.57
346.139	20.79
346.351	11.63
346.563	9.5
346.775	30.87
346.988	16.51
347.2	13.7
347.412	6.71
347.624	9.01
347.837	12.48
348.049	23.95
348.261	53.44
348.473	51.52
348.685	27.74
348.897	12.37
349.11	-1.45
349.322	-25.21
349.534	-0.24
349.746	13.53
349.958	15.5
350.17	25.68
350.382	30.35
350.594	23.1
350.806	21.96
351.018	8.87
351.23	11.04
351.442	4.46
351.654	13.05
351.866	6.2
352.078	15.07
352.29	10.26
352.502	15.55
352.714	14.87
352.926	27.94
353.138	31.43
353.35	9.33
353.561	6.29
353.773	-15.56
353.985	-8.98
354.197	-15.41
354.409	1.48
354.621	0.31
354.832	18.93
355.044	7.8
355.256	8.77
355.468	4.66
355.679	3.27
355.891	3.74
356.103	1.82
356.314	-2.44
356.526	17.61
356.738	40.78
356.949	43.16
357.161	46
357.373	48.74
357.584	42.65
357.796	28.21
358.008	21.03
358.219	32.27
358.431	37.98
358.642	37.7
358.854	37.63
359.065	35.85
359.277	15.73
359.488	3.56
359.7	-10.2
359.911	-24.3
360.123	-25.85
360.334	-27.73
360.546	-18.43
360.757	-9.36
360.969	11.22
361.18	39.07
361.391	44.63
361.603	42.18
361.814	66.33
362.025	35.2
362.237	5.3
362.448	11.11
362.659	21.45
362.871	8.92
363.082	15.47
363.293	25.29
363.504	26.11
363.716	23.29
363.927	30.08
364.138	15.76
364.349	-15.11
364.56	-15.63
364.772	-32.03
364.983	-35.73
365.194	-41.5
365.405	-11.1
365.616	-15.75
365.827	-22.33
366.038	-18.84
366.25	10.79
366.461	-15.08
366.672	5.69
366.883	25.22
367.094	23.84
367.305	4.12
367.516	33.83
367.727	18.34
367.938	-1.97
368.149	-9.78
368.36	7.63
368.571	-2.44
368.781	-2.65
368.992	-6.82
369.203	11.25
369.414	-3.26
369.625	-13.2
369.836	-15.31
370.047	-15.02
370.258	-14.23
370.468	-18.03
370.679	-41.81
370.89	-28.5
371.101	1.1
371.312	-22.53
371.522	-20.68
371.733	4.03
371.944	3.52
372.155	4.21
372.365	-6.1
372.576	8.82
372.787	6.77
372.997	-0.73
373.208	-0.35
373.419	20.26
373.629	2.9
373.84	-0.31
374.05	-13.69
374.261	-5.71
374.472	-20.22
374.682	-1.94
374.893	-5.39
375.103	18.3
375.314	7.39
375.524	17.35
375.735	28.32
375.945	37.75
376.156	11.81
376.366	20.05
376.577	15.93
376.787	7.86
376.997	16.16
377.208	32.71
377.418	4.79
377.629	19.27
377.839	9.51
378.049	1.03
378.26	9.96
378.47	33.45
378.68	24.19
378.89	25.4
379.101	21.4
379.311	0.58
379.521	-25.81
379.732	-23.93
379.942	-45.29
380.152	-30.31
380.362	-12.27
380.572	1.02
380.783	16.95
380.993	33.66
381.203	35.61
381.413	30.04
381.623	28.65
381.833	20.74
382.043	4.64
382.253	2.86
382.463	4.84
382.674	5.93
382.884	-11.79
383.094	-2.55
383.304	1.35
383.514	-0.13
383.724	-3.33
383.934	-4.97
384.144	-10.17
384.353	-14.23
384.563	-3.31
384.773	3.46
384.983	11.32
385.193	19.45
385.403	6.08
385.613	2.58
385.823	3.09
386.033	11.43
386.242	4.06
386.452	16.88
386.662	7.46
386.872	11.56
387.082	7.29
387.291	1.27
387.501	2.45
387.711	7.62
387.921	-4.99
388.13	-3.67
388.34	8.13
388.55	4.3
388.759	7.04
388.969	15.41
389.179	10.01
389.388	10.69
389.598	10.51
389.807	8.03
390.017	8.68
390.227	11.74
390.436	6.43
390.646	10.1
390.855	9.35
391.065	9.97
391.274	7.21
391.484	5.56
391.693	5.06
391.903	8.65
392.112	8.56
392.322	11.63
392.531	15.99
392.74	14.98
392.95	10.2
393.159	9.08
393.369	9.86
393.578	6.17
393.787	5.99
393.997	10.37
394.206	9.17
394.415	9.29
394.625	10.09
394.834	8.55
395.043	6.02
395.252	7.27
395.462	6.75
395.671	8.84
395.88	11.1
396.089	12.12
396.298	12.25
396.508	11.9
396.717	11.35
396.926	10.41
397.135	10.36
397.344	9.44
397.553	9.91
397.762	10.12
397.971	10.03
398.181	10.18
398.39	9.49
398.599	8.88
398.808	8.46
399.017	9.19
399.226	8.89
399.435	9.9
399.644	10.37
399.853	9.89
400.062	9
400.27	9.25
400.479	9.01
400.688	8.38
400.897	9
401.106	9.29
401.315	8.41
401.524	8.19
401.733	8.62
401.941	8.65
402.15	8.8
402.359	9.24
402.568	9.44
402.777	9.36
402.985	9.09
403.194	8.93
403.403	8.84
403.612	8.63
403.82	8.5
404.029	8.46
404.238	8.08
404.446	8.11
404.655	7.86
404.864	7.8
405.072	7.7
405.281	8.01
405.489	7.61
405.698	7.65
405.906	7.59
406.115	7.42
406.324	7.15
406.532	7.38
406.741	7.67
406.949	7.59
407.158	7.71
407.366	7.91
407.574	8.04
407.783	7.86
407.991	7.81
408.2	7.86
408.408	7.68
408.617	7.61
408.825	7.48
409.033	7.69
409.242	7.65
409.45	7.65
409.658	7.45
409.867	7.62
410.075	7.35
410.283	7.26
410.491	7.24
410.7	7.12
410.908	7.16
411.116	7.24
411.324	7.28
411.533	7.4
411.741	7.51
411.949	7.44
412.157	7.26
412.365	7.32
412.573	7.11
412.781	7.14
412.99	7.01
413.198	7.25
413.406	7.08
413.614	7.14
413.822	7.09
414.03	7.08
414.238	6.8
414.446	6.97
414.654	6.8
414.862	6.86
415.07	6.88
415.278	7.17
415.486	6.74
415.694	6.87
415.902	6.88
416.109	6.78
416.317	6.77
416.525	6.76
416.733	6.79
416.941	6.77
417.149	6.77
417.357	6.66
417.564	6.86
417.772	6.8
417.98	6.85
418.188	6.74
418.395	6.66
418.603	6.83
418.811	6.63
419.019	6.4
419.226	6.72
419.434	6.93
419.642	6.65
419.849	6.79
420.057	6.96
420.265	6.89
420.472	6.58
420.68	6.8
420.887	6.69
421.095	6.69
421.302	6.48
421.51	6.66
421.717	6.58
421.925	6.71
422.132	6.58
422.34	6.49
422.547	6.4
422.755	6.4
422.962	6.36
423.17	6.35
423.377	6.52
423.585	6.48
423.792	6.39
423.999	6.45
424.207	6.41
424.414	6.47
424.621	6.51
424.829	6.51
425.036	6.49
425.243	6.49
425.451	6.3
425.658	6.17
425.865	6.17
426.072	6.22
426.28	6.27
426.487	6.19
426.694	6.34
426.901	6.37
427.108	6.38
427.315	6.37
427.523	6.61
427.73	6.6
427.937	6.33
428.144	6.09
428.351	6.03
428.558	5.95
428.765	5.82
428.972	5.91
429.179	6.04
429.386	6.25
429.593	6.27
429.8	6.19
430.007	6.37
430.214	6.36
430.421	6.38
430.628	6.25
430.835	6.12
431.042	6.26
431.249	6.26
431.456	6.22
431.662	6.52
431.869	6.73
432.076	6.65
432.283	6.53
432.49	6.34
432.697	6.29
432.903	6.08
433.11	5.99
433.317	6.22
433.524	6.4
433.73	6.2
433.937	6.59
434.144	6.58
434.35	6.61
434.557	6.49
434.764	6.4
434.97	6.28
435.177	6.39
435.384	6.03
435.59	6.13
435.797	6.33
436.003	6.35
436.21	6.28
436.416	6.37
436.623	6.19
436.829	6.16
437.036	6.11
437.242	6.11
437.449	6.21
437.655	6.33
437.862	6.34
438.068	6.4
438.275	6.5
438.481	6.52
438.687	6.37
438.894	6.3
439.1	6.18
439.307	6.15
439.513	6.18
439.719	6.29
439.926	6.37
440.132	6.41
440.338	6.45
440.544	6.42
440.751	6.37
440.957	6.36
441.163	6.19
441.369	6.19
441.575	6.01
441.782	6.04
441.988	5.91
442.194	6.09
442.4	5.97
442.606	6.15
442.812	6.23
443.018	6.3
443.224	6.35
443.431	6.57
443.637	6.53
443.843	6.38
444.049	6.43
444.255	6.38
444.461	6.25
444.667	6.15
444.873	6.22
445.079	6.31
445.284	6.33
445.49	6.16
445.696	6.09
445.902	6.14
446.108	5.95
446.314	5.81
446.52	6.12
446.726	6.42
446.931	6.3
447.137	6.49
447.343	6.63
447.549	6.28
447.755	6.14
447.96	6.26
448.166	6.14
448.372	6.21
448.578	6.37
448.783	6.4
448.989	6.44
449.195	6.58
449.4	6.45
449.606	6.49
449.812	6.41
450.017	6.43
450.223	6.26
450.428	6.14
450.634	6.09
450.84	6.19
451.045	6.17
451.251	6.15
451.456	6.3
451.662	6.42
451.867	6.4
452.073	6.3
452.278	6.36
452.483	6.47
452.689	6.44
452.894	6.49
453.1	6.65
453.305	6.52
453.51	6.37
453.716	6.29
453.921	6.26
454.127	6.08
454.332	6.11
454.537	6.1
454.742	6.17
454.948	6.14
455.153	6.14
455.358	6.27
455.563	6.41
455.769	6.41
455.974	6.33
456.179	6.32
456.384	6.25
456.589	6.18
456.795	6.04
457	6.08
457.205	6.22
457.41	6.14
457.615	6.1
457.82	6.18
458.025	6.3
458.23	6.17
458.435	6.33
458.64	6.22
458.845	6.29
459.05	6.16
459.255	6.14
459.46	6.07
459.665	6.17
459.87	6.11
460.075	6.03
460.28	6.12
460.485	6.18
460.69	6.2
460.895	6.07
461.099	6
461.304	6.06
461.509	6.09
461.714	5.96
461.919	6.09
462.123	6.16
462.328	6.18
462.533	6.02
462.738	6.14
462.942	6.05
463.147	6.12
463.352	6.07
463.556	6.03
463.761	6.03
463.966	6.13
464.17	6.17
464.375	6.13
464.58	6.12
464.784	6.11
464.989	6.06
465.193	5.94
465.398	5.9
465.602	6.15
465.807	6.14
466.011	6.21
466.216	6.38
466.42	6.48
466.625	6.41
466.829	6.54
467.034	6.58
467.238	6.56
467.443	6.56
467.647	6.4
467.851	6.3
468.056	6.33
468.26	6.22
468.464	6.12
468.669	6.3
468.873	6.41
469.077	6.35
469.282	6.45
469.486	6.63
469.69	6.6
469.894	6.55
470.099	6.59
470.303	6.61
470.507	6.42
470.711	6.35
470.915	6.26
471.119	6.18
471.324	6.09
471.528	6.11
471.732	6.27
471.936	6.36
472.14	6.5
472.344	6.58
472.548	6.73
472.752	6.7
472.956	6.79
473.16	6.66
473.364	6.57
473.568	6.53
473.772	6.48
473.976	6.5
474.18	6.48
474.384	6.52
474.588	6.4
474.792	6.36
474.995	6.29
475.199	6.37
475.403	6.44
475.607	6.49
475.811	6.49
476.015	6.53
476.218	6.49
476.422	6.45
476.626	6.49
476.83	6.63
477.033	6.5
477.237	6.4
477.441	6.39
477.644	6.34
477.848	6.24
478.052	6.14
478.255	6.25
478.459	6.34
478.663	6.5
478.866	6.55
479.07	6.71
479.273	6.8
479.477	6.81
479.681	6.74
479.884	6.76
480.088	6.62
480.291	6.55
480.495	6.48
480.698	6.48
480.901	6.54
481.105	6.74
481.308	6.7
481.512	6.68
481.715	6.71
481.919	6.64
482.122	6.62
482.325	6.67
482.529	6.72
482.732	6.73
482.935	6.64
483.138	6.57
483.342	6.59
483.545	6.7
483.748	6.74
483.952	6.8
484.155	6.95
484.358	6.98
484.561	6.88
484.764	6.87
484.967	6.89
485.171	6.94
485.374	6.8
485.577	6.89
485.78	6.91
485.983	6.9
486.186	6.75
486.389	6.77
486.592	6.71
486.795	6.73
486.998	6.74
487.201	6.83
487.404	6.9
487.607	7.07
487.81	7.03
488.013	7.05
488.216	7.06
488.419	7.19
488.622	6.97
488.825	6.97
489.028	6.98
489.231	7.01
489.433	6.84
489.636	6.88
489.839	6.76
490.042	6.73
490.245	6.59
490.447	6.73
490.65	6.76
490.853	6.96
491.056	7.01
491.258	7.05
491.461	7.02
491.664	7.07
491.866	6.88
492.069	6.91
492.272	6.97
492.474	7.04
492.677	7.06
492.879	7.27
493.082	7.37
493.285	7.56
493.487	7.45
493.69	7.41
493.892	7.29
494.095	7.24
494.297	7.09
494.5	7.29
494.702	7.37
494.905	7.52
495.107	7.56
495.309	7.64
495.512	7.58
495.714	7.72
495.917	7.79
496.119	7.74
496.321	7.86
496.524	7.91
496.726	7.83
496.928	7.82
497.13	7.88
497.333	7.82
497.535	7.86
497.737	7.83
497.939	7.84
498.142	7.94
498.344	7.9
498.546	7.81
498.748	7.9
498.95	7.93
499.152	7.84
499.355	7.91
499.557	8.06
499.759	8.11
499.961	8.07
500.163	8.19
500.365	8.24
500.567	8.22
500.769	8.17
500.971	8.31
501.173	8.2
501.375	8.25
501.577	8.26
501.779	8.34
501.981	8.35
502.183	8.46
502.385	8.43
502.587	8.37
502.788	8.4
502.99	8.35
503.192	8.43
503.394	8.43
503.596	8.54
503.798	8.66
503.999	8.75
504.201	8.73
504.403	8.85
504.605	8.92
504.806	8.83
505.008	8.82
505.21	8.86
505.411	8.88
505.613	8.76
505.815	8.86
506.016	8.96
506.218	8.99
506.42	8.95
506.621	9.07
506.823	9.12
507.024	9.06
507.226	9.07
507.427	9.02
507.629	9.17
507.83	9.13
508.032	9.05
508.233	9.18
508.435	9.33
508.636	9.32
508.838	9.24
509.039	9.39
509.24	9.39
509.442	9.47
509.643	9.4
509.845	9.55
510.046	9.61
510.247	9.55
510.448	9.47
510.65	9.56
510.851	9.64
511.052	9.63
511.254	9.61
511.455	9.78
511.656	9.75
511.857	9.79
512.058	9.84
512.26	9.98
512.461	9.84
512.662	9.92
512.863	9.78
513.064	9.73
513.265	9.71
513.466	9.88
513.667	9.85
513.868	10.04
514.069	10.15
514.27	10.24
514.471	10.14
514.672	10.24
514.873	10.19
515.074	10.28
515.275	10.18
515.476	10.3
515.677	10.31
515.878	10.48
516.079	10.46
516.28	10.59
516.481	10.68
516.682	10.7
516.882	10.56
517.083	10.55
517.284	10.48
517.485	10.43
517.686	10.46
517.886	10.56
518.087	10.64
518.288	10.76
518.488	10.73
518.689	10.76
518.89	10.68
519.091	10.68
519.291	10.63
519.492	10.68
519.692	10.71
519.893	10.86
520.094	10.88
520.294	10.85
520.495	10.89
520.695	10.98
520.896	10.93
521.096	10.92
521.297	11.04
521.497	11.11
521.698	11.01
521.898	11.02
522.099	11.05
522.299	11.04
522.499	11.02
522.7	11.06
522.9	11.1
523.101	11.17
523.301	11.21
523.501	11.24
523.702	11.29
523.902	11.35
524.102	11.37
524.302	11.41
524.503	11.43
524.703	11.44
524.903	11.4
525.103	11.39
525.304	11.41
525.504	11.52
525.704	11.55
525.904	11.56
526.104	11.57
526.304	11.59
526.504	11.52
526.705	11.56
526.905	11.67
527.105	11.72
527.305	11.75
527.505	11.74
527.705	11.71
527.905	11.69
528.105	11.71
528.305	11.67
528.505	11.73
528.705	11.81
528.905	11.77
529.105	11.81
529.304	11.93
529.504	12.04
529.704	11.96
529.904	12.04
530.104	12.1
530.304	12.14
530.503	12.02
530.703	12.05
530.903	12.04
531.103	12.06
531.303	11.97
531.502	12.05
531.702	12.19
531.902	12.28
532.101	12.23
532.301	12.29
532.501	12.29
532.7	12.26
532.9	12.24
533.1	12.28
533.299	12.28
533.499	12.33
533.698	12.25
533.898	12.28
534.097	12.31
534.297	12.39
534.496	12.43
534.696	12.53
534.895	12.65
535.095	12.7
535.294	12.76
535.494	12.73
535.693	12.8
535.892	12.79
536.092	12.75
536.291	12.76
536.491	12.78
536.69	12.84
536.889	12.73
537.088	12.75
537.288	12.8
537.487	12.97
537.686	12.9
537.886	13.02
538.085	13.04
538.284	13.04
538.483	12.95
538.682	13.08
538.882	13.13
539.081	13.26
539.28	13.22
539.479	13.31
539.678	13.24
539.877	13.36
540.076	13.35
540.275	13.49
540.474	13.62
540.673	13.75
540.872	13.66
541.071	13.72
541.27	13.7
541.469	13.65
541.668	13.66
541.867	13.78
542.066	13.81
542.265	13.9
542.464	13.95
542.663	14.08
542.862	14.21
543.06	14.28
543.259	14.35
543.458	14.41
543.657	14.34
543.856	14.34
544.054	14.4
544.253	14.35
544.452	14.3
544.651	14.36
544.849	14.39
545.048	14.42
545.247	14.49
545.445	14.63
545.644	14.67
545.843	14.64
546.041	14.66
546.24	14.8
546.438	14.83
546.637	14.83
546.836	15.03
547.034	15.14
547.233	15.15
547.431	15.2
547.63	15.35
547.828	15.34
548.027	15.4
548.225	15.39
548.423	15.44
548.622	15.49
548.82	15.45
549.019	15.44
549.217	15.63
549.415	15.67
549.614	15.78
549.812	15.86
550.01	15.89
550.209	15.97
550.407	16.02
550.605	16.05
550.803	16.17
551.002	16.3
551.2	16.3
551.398	16.49
551.596	16.63
551.794	16.76
551.993	16.96
552.191	17.11
552.389	17.19
552.587	17.24
552.785	17.28
552.983	17.31
553.181	17.42
553.379	17.48
553.577	17.45
553.775	17.6
553.973	17.64
554.171	17.76
554.369	17.76
554.567	17.89
554.765	17.88
554.963	17.98
555.161	17.93
555.359	18.16
555.557	18.35
555.755	18.54
555.952	18.7
556.15	18.84
556.348	18.82
556.546	18.93
556.744	18.91
556.941	18.94
557.139	18.98
557.337	19.11
557.535	19.15
557.732	19.28
557.93	19.42
558.128	19.61
558.325	19.66
558.523	19.73
558.721	19.92
558.918	19.89
559.116	19.89
559.313	19.94
559.511	20.11
559.708	20.09
559.906	20.26
560.104	20.41
560.301	20.62
560.498	20.7
560.696	20.83
560.893	20.97
561.091	21.08
561.288	21.2
561.486	21.36
561.683	21.52
561.88	21.6
562.078	21.74
562.275	21.68
562.473	21.76
562.67	21.88
562.867	22.01
563.064	22.11
563.262	22.3
563.459	22.37
563.656	22.47
563.853	22.56
564.051	22.57
564.248	22.74
564.445	22.8
564.642	22.84
564.839	22.89
565.036	23.11
565.234	23.22
565.431	23.33
565.628	23.44
565.825	23.55
566.022	23.6
566.219	23.64
566.416	23.71
566.613	23.69
566.81	23.84
567.007	23.82
567.204	23.83
567.401	23.9
567.598	24.08
567.795	23.97
567.991	24.11
568.188	24.24
568.385	24.25
568.582	24.35
568.779	24.59
568.976	24.72
569.172	24.85
569.369	24.98
569.566	25.01
569.763	25.05
569.96	25.07
570.156	25.06
570.353	25.01
570.55	25.03
570.746	25.09
570.943	25.06
571.14	25.12
571.336	25.26
571.533	25.4
571.729	25.42
571.926	25.48
572.123	25.5
572.319	25.53
572.516	25.49
572.712	25.53
572.909	25.68
573.105	25.77
573.302	25.83
573.498	25.85
573.695	25.75
573.891	25.75
574.087	25.76
574.284	25.62
574.48	25.54
574.677	25.73
574.873	25.63
575.069	25.62
575.266	25.79
575.462	25.86
575.658	25.92
575.854	26.09
576.051	26.11
576.247	26.02
576.443	26.03
576.639	25.97
576.835	25.88
577.032	25.84
577.228	25.95
577.424	25.97
577.62	25.85
577.816	25.82
578.012	25.89
578.208	25.79
578.404	25.8
578.6	25.85
578.796	25.83
578.993	25.76
579.189	25.76
579.384	25.72
579.58	25.66
579.776	25.72
579.972	25.62
580.168	25.6
580.364	25.5
580.56	25.51
580.756	25.36
580.952	25.37
581.148	25.37
581.343	25.48
581.539	25.42
581.735	25.39
581.931	25.54
582.127	25.53
582.322	25.39
582.518	25.53
582.714	25.57
582.909	25.35
583.105	25.32
583.301	25.32
583.496	25.26
583.692	25.19
583.888	25.28
584.083	25.13
584.279	25.15
584.474	25.12
584.67	25.17
584.866	25.11
585.061	25.17
585.257	25.2
585.452	25.13
585.648	24.97
585.843	24.95
586.039	24.96
586.234	24.91
586.429	24.88
586.625	25.04
586.82	24.96
587.015	24.9
587.211	24.77
587.406	24.74
587.601	24.54
587.797	24.49
587.992	24.48
588.187	24.6
588.383	24.67
588.578	24.82
588.773	24.91
588.968	24.97
589.163	24.9
589.359	24.73
589.554	24.71
589.749	24.78
589.944	24.74
590.139	24.76
590.334	24.77
590.529	24.73
590.724	24.72
590.919	24.73
591.114	24.81
591.309	24.96
591.504	24.99
591.699	24.84
591.894	24.8
592.089	24.57
592.284	24.62
592.479	24.62
592.674	24.66
592.869	24.71
593.064	24.97
593.259	24.92
593.454	24.94
593.648	25.01
593.843	25.01
594.038	25.01
594.233	24.94
594.428	24.97
594.622	24.99
594.817	25
595.012	25.01
595.206	25.17
595.401	25.26
595.596	25.31
595.79	25.36
595.985	25.44
596.18	25.43
596.374	25.49
596.569	25.48
596.763	25.49
596.958	25.47
597.153	25.56
597.347	25.59
597.542	25.8
597.736	25.94
597.931	25.93
598.125	26.02
598.319	26.15
598.514	26.03
598.708	26.03
598.903	26.08
599.097	26.03
599.291	25.92
599.486	25.97
599.68	25.92
599.874	25.96
600.069	25.89
600.263	25.82
600.457	25.86
600.651	25.97
600.846	26
601.04	26.21
601.234	26.17
601.428	26.22
601.622	26.25
601.817	26.41
602.011	26.26
602.205	26.41
602.399	26.35
602.593	26.36
602.787	26.21
602.981	26.34
603.175	26.36
603.369	26.31
603.563	26.32
603.757	26.35
603.951	26.35
604.145	26.26
604.339	26.29
604.533	26.2
604.727	26.19
604.921	26.1
605.115	26.11
605.309	26.09
605.502	26.04
605.696	25.93
605.89	25.87
606.084	25.85
606.278	25.81
606.471	25.77
606.665	25.64
606.859	25.58
607.053	25.51
607.246	25.47
607.44	25.44
607.634	25.51
607.827	25.45
608.021	25.34
608.214	25.31
608.408	25.21
608.602	25.18
608.795	25.11
608.989	25.12
609.182	24.96
609.376	24.95
609.569	24.8
609.763	24.68
609.956	24.63
610.15	24.55
610.343	24.44
610.537	24.39
610.73	24.45
610.923	24.33
611.117	24.35
611.31	24.28
611.504	24.28
611.697	24.16
611.89	24.15
612.083	24.05
612.277	23.98
612.47	23.88
612.663	23.75
612.856	23.61
613.05	23.59
613.243	23.5
613.436	23.29
613.629	23.3
613.822	23.23
614.015	23.19
614.209	23.08
614.402	23.07
614.595	22.96
614.788	22.9
614.981	22.8
615.174	22.7
615.367	22.65
615.56	22.52
615.753	22.43
615.946	22.21
616.139	22.34
616.332	22.4
616.525	22.49
616.718	22.52
616.911	22.6
617.103	22.52
617.296	22.39
617.489	22.32
617.682	22.31
617.875	22.26
618.067	22.18
618.26	22.02
618.453	21.95
618.646	21.84
618.838	21.76
619.031	21.74
619.224	21.76
619.417	21.74
619.609	21.77
619.802	21.72
619.994	21.7
620.187	21.7
620.38	21.65
620.572	21.49
620.765	21.47
620.957	21.39
621.15	21.26
621.342	21.18
621.535	21.29
621.727	21.22
621.92	21.16
622.112	21.21
622.305	21.3
622.497	21.15
622.69	21.16
622.882	21.1
623.074	21.08
623.267	20.92
623.459	20.82
623.651	20.76
623.844	20.83
624.036	20.83
624.228	20.83
624.42	20.87
624.613	20.85
624.805	20.86
624.997	20.79
625.189	20.77
625.381	20.85
625.574	20.82
625.766	20.63
625.958	20.56
626.15	20.52
626.342	20.39
626.534	20.34
626.726	20.36
626.918	20.37
627.11	20.34
627.302	20.36
627.494	20.29
627.686	20.26
627.878	20.18
628.07	20.03
628.262	19.94
628.454	19.93
628.646	19.92
628.838	19.94
629.029	19.89
629.221	19.89
629.413	19.84
629.605	19.71
629.797	19.57
629.989	19.63
630.18	19.55
630.372	19.6
630.564	19.55
630.755	19.61
630.947	19.62
631.139	19.49
631.33	19.32
631.522	19.44
631.714	19.43
631.905	19.32
632.097	19.3
632.289	19.38
632.48	19.27
632.672	19.01
632.863	18.83
633.055	18.75
633.246	18.65
633.438	18.56
633.629	18.5
633.821	18.55
634.012	18.65
634.203	18.5
634.395	18.43
634.586	18.58
634.777	18.54
634.969	18.34
635.16	18.34
635.351	18.32
635.543	18.29
635.734	18.26
635.925	18.29
636.117	18.33
636.308	18.22
636.499	18.08
636.69	17.96
636.881	17.91
637.073	17.94
637.264	17.9
637.455	17.83
637.646	17.83
637.837	17.8
638.028	17.57
638.219	17.57
638.41	17.53
638.601	17.45
638.792	17.43
638.983	17.37
639.174	17.23
639.365	17.14
639.556	17.14
639.747	17.05
639.938	17.07
640.129	17.05
640.32	16.9
640.511	16.79
640.701	16.75
640.892	16.69
641.083	16.67
641.274	16.78
641.465	16.86
641.655	16.7
641.846	16.6
642.037	16.58
642.228	16.46
642.418	16.36
642.609	16.29
642.8	16.22
642.99	16.07
643.181	16.05
643.372	16.01
643.562	16.03
643.753	15.97
643.943	15.86
644.134	15.77
644.324	15.72
644.515	15.69
644.705	15.79
644.896	15.86
645.086	15.89
645.277	15.82
645.467	15.7
645.658	15.49
645.848	15.41
646.038	15.33
646.229	15.23
646.419	15.22
646.61	15.18
646.8	15.08
646.99	15.06
647.18	15.12
647.371	15.11
647.561	15.06
647.751	15.06
647.941	14.97
648.132	14.83
648.322	14.78
648.512	14.78
648.702	14.76
648.892	14.72
649.082	14.76
649.272	14.62
649.462	14.51
649.653	14.46
649.843	14.42
650.033	14.45
650.223	14.5
650.413	14.56
650.603	14.54
650.793	14.5
650.983	14.38
651.172	14.19
651.362	14.14
651.552	13.96
651.742	13.8
651.932	13.77
652.122	13.84
652.312	13.83
652.502	13.91
652.691	13.96
652.881	13.91
653.071	13.97
653.261	13.75
653.45	13.62
653.64	13.66
653.83	13.59
654.019	13.5
654.209	13.62
654.399	13.75
654.588	13.64
654.778	13.57
654.968	13.41
655.157	13.36
655.347	13.17
655.536	13.04
655.726	12.96
655.915	12.88
656.105	12.78
656.294	12.69
656.484	12.56
656.673	12.47
656.863	12.46
657.052	12.3
657.241	12.21
657.431	12.16
657.62	11.92
657.809	11.73
657.999	11.61
658.188	11.36
658.377	11.3
658.567	11.29
658.756	11.33
658.945	11.16
659.134	11.18
659.324	11.01
659.513	10.97
659.702	10.57
659.891	10.54
660.08	10.45
660.269	10.42
660.458	10.38
660.648	10.5
660.837	10.48
661.026	10.33
661.215	10.24
661.404	9.85
661.593	9.83
661.782	9.56
661.971	9.55
662.16	9.51
662.349	9.66
662.538	9.47
662.726	9.63
662.915	9.54
663.104	9.31
663.293	9.21
663.482	9.28
663.671	9.11
663.86	8.91
664.048	8.74
664.237	8.66
664.426	8.38
664.615	8.37
664.803	8.42
664.992	8.56
665.181	8.58
665.369	8.53
665.558	8.38
665.747	8.29
665.935	8.31
666.124	8.23
666.312	8.33
666.501	8.29
666.69	8.21
666.878	8.1
667.067	8
667.255	8
667.444	8.22
667.632	8.34
667.82	8.4
668.009	8.45
668.197	8.39
668.386	8.28
668.574	8.3
668.762	8.32
668.951	8.28
669.139	8.2
669.327	8.09
669.516	8.2
669.704	8.18
669.892	8.27
670.08	8.39
670.269	8.44
670.457	8.31
670.645	8.29
670.833	8.4
671.021	8.43
671.21	8.46
671.398	8.62
671.586	8.56
671.774	8.57
671.962	8.57
672.15	8.5
672.338	8.4
672.526	8.55
672.714	8.44
672.902	8.49
673.09	8.68
673.278	8.83
673.466	8.83
673.654	9.13
673.842	9.19
674.03	9.37
674.218	9.32
674.405	9.34
674.593	9.31
674.781	9.51
674.969	9.41
675.157	9.68
675.344	9.81
675.532	9.71
675.72	9.75
675.908	9.94
676.095	9.74
676.283	9.82
676.471	10.04
676.658	10.08
676.846	9.92
677.033	10.15
677.221	10.14
677.409	10.1
677.596	10.22
677.784	10.45
677.971	10.6
678.159	10.82
678.346	10.98
678.534	10.94
678.721	11.21
678.909	11.2
679.096	11.21
679.283	11.34
679.471	11.39
679.658	11.38
679.846	11.56
680.033	11.82
680.22	11.87
680.408	11.98
680.595	12.19
680.782	12.16
680.969	12.27
681.157	12.26
681.344	12.49
681.531	12.42
681.718	12.45
681.905	12.57
682.093	12.78
682.28	12.96
682.467	13.09
682.654	13.3
682.841	13.26
683.028	13.48
683.215	13.68
683.402	13.76
683.589	14.04
683.776	14.25
683.963	14.28
684.15	14.5
684.337	14.69
684.524	14.89
684.711	15.09
684.898	15.33
685.085	15.46
685.271	15.85
685.458	16.04
685.645	16.28
685.832	16.75
686.019	16.87
686.205	17.1
686.392	17.25
686.579	17.53
686.766	17.78
686.952	18.12
687.139	18.61
687.326	18.91
687.512	19.27
687.699	19.58
687.886	19.88
688.072	19.91
688.259	20.52
688.445	21.02
688.632	21.2
688.818	21.83
689.005	22.26
689.191	22.64
689.378	23.18
689.564	23.89
689.751	24.09
689.937	24.81
690.124	25.11
690.31	25.55
690.496	25.84
690.683	26.7
690.869	27.25
691.055	27.89
691.242	28.42
691.428	28.98
691.614	29.4
691.8	30.03
691.987	30.55
692.173	30.99
692.359	31.76
692.545	32.53
692.731	32.72
692.918	33.3
693.104	33.86
693.29	34.31
693.476	34.57
693.662	35.37
693.848	35.79
694.034	36.39
694.22	37.04
694.406	37.84
694.592	38.36
694.778	39.06
694.964	39.63
695.15	40.13
695.336	40.6
695.522	41.33
695.708	42.2
695.894	42.6
696.08	43.05
696.265	43.6
696.451	43.99
696.637	44.51
696.823	45.08
697.009	45.86
697.194	46.5
697.38	47.06
697.566	47.37
697.751	47.82
697.937	48.19
698.123	48.78
698.308	49.7
698.494	50.33
698.68	51.12
698.865	51.61
699.051	52.01
699.236	52.31
699.422	52.72
699.607	52.9
699.793	53.49
699.978	53.87
700.164	53.9
700.349	54.76
700.535	55.66
700.72	55.96
700.906	56.68
701.091	57.39
701.276	57.48
701.462	57.94
701.647	58.86
701.832	59.25
702.018	59.89
702.203	60.62
702.388	60.99
702.573	61.29
702.759	61.77
702.944	62.04
703.129	62.26
703.314	62.67
703.499	63.11
703.684	63.69
703.87	63.92
704.055	64.59
704.24	64.83
704.425	65.17
704.61	65.24
704.795	65.74
704.98	65.34
705.165	65.55
705.35	65.8
705.535	65.79
705.72	66.49
705.905	67.24
706.09	67.91
706.275	68.08
706.459	68.21
706.644	67.98
706.829	68.6
707.014	68.72
707.199	69.14
707.384	70.23
707.568	70.63
707.753	71.1
707.938	71.59
708.123	71.57
708.307	71.38
708.492	71.47
708.677	70.75
708.861	70.5
709.046	70.6
709.231	71.11
709.415	71.61
709.6	72.53
709.784	72.55
709.969	73.15
710.153	73.11
710.338	73.49
710.522	73.25
710.707	74.15
710.891	73.94
711.076	74.31
711.26	73.71
711.445	74.18
711.629	74.14
711.813	74.78
711.998	75.1
712.182	75.52
712.366	75.46
712.551	75.79
712.735	75.38
712.919	75.6
713.103	76.04
713.288	76.08
713.472	76.1
713.656	76.84
713.84	76.76
714.024	77.09
714.208	77.63
714.393	78.32
714.577	78.63
714.761	78.63
714.945	78.7
715.129	78.57
715.313	78.23
715.497	78.2
715.681	78.68
715.865	78.72
716.049	79.28
716.233	79.43
716.417	79.66
716.601	79.83
716.785	79.99
716.968	80.13
717.152	80.09
717.336	79.92
717.52	79.34
717.704	79.92
717.888	80.33
718.071	80.5
718.255	81.13
718.439	81.7
718.622	81.8
718.806	81.39
718.99	81.21
719.174	81.28
719.357	81.45
719.541	81.04
719.724	81.69
719.908	82.56
720.092	82.99
720.275	83.2
720.459	84.32
720.642	83.65
720.826	83.41
721.009	82.77
721.193	81.94
721.376	81.02
721.559	81.98
721.743	82.27
721.926	82.51
722.11	82.74
722.293	82.61
722.476	81.55
722.66	81.49
722.843	81.71
723.026	82.2
723.21	82.73
723.393	84.02
723.576	84.37
723.759	83.67
723.942	84.37
724.126	84.37
724.309	84.13
724.492	83.91
724.675	85.03
724.858	84.83
725.041	85.9
725.224	86.2
725.407	86.31
725.59	86.08
725.774	86.1
725.957	84.91
726.14	85.2
726.322	85.68
726.505	85.83
726.688	86.12
726.871	86.01
727.054	86.06
727.237	85.98
727.42	86.42
727.603	87.08
727.786	87.66
727.968	87.5
728.151	86.99
728.334	86.81
728.517	86.96
728.699	87.89
728.882	88.03
729.065	89.16
729.248	89.66
729.43	89.97
729.613	90.81
729.796	90.94
729.978	89.89
730.161	89.07
730.343	88.82
730.526	88.21
730.708	88.27
730.891	89.73
731.073	90.27
731.256	89.61
731.438	89.75
731.621	89.72
731.803	90.2
731.986	90.77
732.168	91.07
732.35	91.03
732.533	91.39
732.715	90.56
732.898	90.93
733.08	91.1
733.262	90.54
733.444	90.23
733.627	89.88
733.809	90.19
733.991	91.27
734.173	92.32
734.355	92.96
734.538	93.9
734.72	92.83
734.902	92.43
735.084	91.66
735.266	92.18
735.448	91.91
735.63	92.58
735.812	92.52
735.994	93.12
736.176	92.62
736.358	92.61
736.54	93.63
736.722	93.67
736.904	93.33
737.086	92.8
737.268	94.68
737.45	94.48
737.632	94.69
737.814	94.72
737.995	96.1
738.177	95.45
738.359	95.46
738.541	95.68
738.723	96.65
738.904	95.95
739.086	95.73
739.268	95.26
739.449	95.08
739.631	95.28
739.813	95.52
739.994	95.09
740.176	95.06
740.358	95.21
740.539	95.53
740.721	95.66
740.902	96.34
741.084	96.85
741.265	96.59
741.447	96.41
741.628	96.47
741.81	94.59
741.991	94.88
742.172	96.47
742.354	97.13
742.535	96.99
742.717	99.47
742.898	97.81
743.079	97.04
743.261	95.97
743.442	95.49
743.623	95.33
743.804	97.65
743.986	97.91
744.167	96.07
744.348	97.73
744.529	97.68
744.71	96.24
744.891	96.27
745.073	97.99
745.254	97.35
745.435	97.49
745.616	96.8
745.797	96.26
745.978	96.26
746.159	96.46
746.34	96.06
746.521	96.96
746.702	96.89
746.883	97.78
747.064	95.74
747.245	94.77
747.426	95.04
747.606	95.5
747.787	94.16
747.968	94.61
748.149	95.53
748.33	96.64
748.51	95.89
748.691	95.46
748.872	97.44
749.053	96.87
749.233	96.01
749.414	96.6
749.595	98.57
749.775	96.37
749.956	95.96
750.137	95.68
750.317	95.42
750.498	94.9
750.678	94.35
750.859	94.87
751.04	95.49
751.22	94.05
751.4	92.4
751.581	94.27
751.761	94.85
751.942	94.73
752.122	97.04
752.303	97.07
752.483	98.27
752.663	97.07
752.844	98.17
753.024	97.52
753.204	99.39
753.385	97.61
753.565	96.88
753.745	95.25
753.925	95.63
754.106	96.23
754.286	97.58
754.466	98.71
754.646	99.55
754.826	98.93
755.006	95.74
755.187	95.98
755.367	96.68
755.547	96.44
755.727	97.53
755.907	98.09
756.087	98.81
756.267	98.38
756.447	99.06
756.627	98.16
756.807	99.86
756.987	98.32
757.167	100.39
757.346	98.87
757.526	97
757.706	96.45
757.886	96.23
758.066	95.36
758.246	97.12
758.425	99.01
758.605	98.79
758.785	98.28
758.965	96.33
759.144	92.92
759.324	92.81
759.504	93
759.683	93.52
759.863	92.89
760.043	95.35
760.222	94.98
760.402	93.5
760.581	94.81
760.761	96.9
760.94	93.9
761.12	93.44
761.299	97.48
761.479	96.04
761.658	93.56
761.838	94.89
762.017	95.97
762.197	94.1
762.376	94.28
762.555	97.07
762.735	98.03
762.914	95.88
763.093	97.16
763.273	94.82
763.452	94.59
763.631	93.25
763.81	93.05
763.99	90.39
764.169	93.66
764.348	90.49
764.527	90.37
764.706	93.19
764.885	95.21
765.064	91.62
765.243	92.49
765.423	93.47
765.602	92.72
765.781	90.44
765.96	90.18
766.139	91.92
766.318	91.47
766.497	92.3
766.676	94.34
766.854	96.95
767.033	95.95
767.212	96.34
767.391	94.01
767.57	93.21
767.749	95.11
767.928	95.71
768.106	92.94
768.285	92.3
768.464	92.92
768.643	90.17
768.821	90.19
769	93.1
769.179	94.2
769.357	90.64
769.536	89.85
769.715	90.52
769.893	90.18
770.072	89.63
770.25	89.38
770.429	90.37
770.607	89.33
770.786	88.97
770.964	90.44
771.143	93.75
771.321	93.67
771.5	94.11
771.678	92.95
771.857	89.33
772.035	90.28
772.213	89.35
772.392	85.62
772.57	86.71
772.748	89.63
772.927	84.71
773.105	85.05
773.283	89.92
773.461	92.7
773.64	90.7
773.818	90.16
773.996	91.17
774.174	89.32
774.352	85.08
774.531	86.5
774.709	91.29
774.887	90.71
775.065	87.57
775.243	87.94
775.421	90.05
775.599	90.8
775.777	88.14
775.955	86.91
776.133	84.85
776.311	80.78
776.489	77.06
776.667	78.86
776.844	83.49
777.022	84.33
777.2	85.66
777.378	85.63
777.556	87.9
777.734	87.22
777.911	89.23
778.089	88.28
778.267	90.81
778.445	85.79
778.622	85.33
778.8	84.98
778.978	90.19
779.155	89.54
779.333	91.47
779.511	87.87
779.688	87.94
779.866	78.98
780.043	74.9
780.221	75.52
780.398	76.25
780.576	77.96
780.753	84.05
780.931	86.9
781.108	86.15
781.286	90.07
781.463	83.53
781.64	81.87
781.818	85.49
781.995	87.62
782.172	87.05
782.35	92.15
782.527	92.57
782.704	89.18
782.882	91.87
783.059	90.35
783.236	90.14
783.413	88.56
783.59	88.97
783.768	82.01
783.945	83.28
784.122	83.95
784.299	84.48
784.476	81.47
784.653	85.29
784.83	80.55
785.007	72.95
785.184	75.74
785.361	77.69
785.538	79.82
785.715	82.74
785.892	90.26
786.069	89.2
786.246	91.06
786.423	87.04
786.6	87.95
786.776	90.47
786.953	88.73
787.13	87.05
787.307	87.93
787.484	88.56
787.66	85.3
787.837	82.07
788.014	83.92
788.191	82.27
788.367	80.02
788.544	82.41
788.721	84.7
788.897	84.22
789.074	86.41
789.25	84.4
789.427	83.62
789.603	80.95
789.78	81.32
789.956	72.4
790.133	75.65
790.309	72.43
790.486	76.02
790.662	74.83
790.839	81.66
791.015	84.81
791.192	79.6
791.368	78.88
791.544	72.76
791.721	79.18
791.897	74.38
792.073	74.93
792.249	77.48
792.426	82.08
792.602	77.92
792.778	74.57
792.954	77.13
793.13	71.5
793.307	67.73
793.483	59.1
793.659	60.22
793.835	62.3
794.011	65.89
794.187	61.89
794.363	62.48
794.539	65.58
794.715	61.11
794.891	60.53
795.067	63.8
795.243	73.32
795.419	74.48
795.595	77.05
795.771	77.38
795.947	82.22
796.122	71.6
796.298	74.38
796.474	78.35
796.65	79.88
796.826	77.32
797.001	86.1
797.177	75.26
797.353	77.15
797.529	79.9
797.704	77
797.88	72.75
798.056	75.8
798.231	73.17
798.407	73.42
798.582	73.52
798.758	76.92
798.934	84.41
799.109	80.11
799.285	72.31
799.46	84.66
799.636	86.52
799.811	84.14
799.986	88.87
800.162	96.08
800.337	88.44
800.513	81.31
800.688	76.64
800.863	78.36
801.039	69.61
801.214	64.27
801.389	67.67
801.565	73.89
801.74	69.37
801.915	74.04
802.09	83.08
802.265	86.85
802.441	83.9
802.616	82.34
802.791	83.89
802.966	81
803.141	76.88
803.316	64.61
803.491	72.49
803.666	60.77
803.841	56.73
804.016	61.04
804.191	72.78
804.366	64.85
804.541	73.16
804.716	65.8
804.891	58.59
805.066	60.35
805.241	65.7
805.416	67.62
805.591	71.06
805.765	70.43
805.94	70.47
806.115	71.51
806.29	61.34
806.464	74.11
806.639	72.55
806.814	56.35
806.989	40.63
807.163	52.04
807.338	41.27
807.512	40.94
807.687	42.11
807.862	53.35
808.036	57.32
808.211	57.61
808.385	64.39
808.56	74.86
808.734	78.57
808.909	74.27
809.083	73.15
809.258	71.74
809.432	79.57
809.606	53.61
809.781	58.81
809.955	67.9
810.13	72.82
810.304	55.14
810.478	66.75
810.652	69.4
810.827	68.74
811.001	62.99
811.175	69.9
811.349	73.38
811.524	63.5
811.698	50.43
811.872	52.83
812.046	55.03
812.22	57.39
812.394	57.84
812.568	65.8
812.742	69.3
812.916	70.69
813.09	71.01
813.264	73.86
813.438	77.23
813.612	68.27
813.786	45.47
813.96	51.13
814.134	62.47
814.308	64.03
814.482	68.78
814.656	89.34
814.83	96.3
815.003	89.25
815.177	85.26
815.351	77.91
815.525	80.07
815.698	64.37
815.872	48.56
816.046	40.12
816.219	47.28
816.393	51.68
816.567	60.66
816.74	60
816.914	75.05
817.088	72.8
817.261	63.62
817.435	54.58
817.608	55.49
817.782	43.25
817.955	46.53
818.129	33.47
818.302	34.66
818.475	58.86
818.649	60.2
818.822	38.16
818.996	55.15
819.169	59.29
819.342	44.41
819.516	50.71
819.689	78.58
819.862	72.11
820.035	63.75
820.209	49.44
820.382	52.16
820.555	45.53
820.728	37.73
820.901	39.79
821.075	45.62
821.248	56.72
821.421	49.48
821.594	39.94
821.767	58.45
821.94	86.73
822.113	52.61
822.286	52.82
822.459	88.98
822.632	72.53
822.805	57.21
822.978	63.79
823.151	68.84
823.324	38.82
823.496	14.21
823.669	20.44
823.842	25.34
824.015	10.56
824.188	8.32
824.361	11.59
824.533	-3.1
824.706	15.6
824.879	21.1
825.051	59.73
825.224	74.75
825.397	76.26
825.569	58.2
825.742	68
825.915	62.79
826.087	52.32
826.26	45.41
826.432	46.95
826.605	50
826.777	42.78
826.95	34.17
827.122	33.87
827.295	43.8
827.467	26.61
827.64	9.48
827.812	3.74
827.984	8.7
828.157	-5.02
828.329	-4.44
828.501	0.13
828.674	24.09
828.846	21.08
829.018	29.85
829.19	34.72
829.363	50.61
829.535	50.48
829.707	53.83
829.879	26.96
830.051	20.67
830.223	26.25
830.395	3.73
830.568	-1.64
830.74	10.66
830.912	31.54
831.084	6.81
831.256	6.6
831.428	-11.74
831.6	-9.02
831.772	-34.32
831.943	-28.85
832.115	-5.31
832.287	40.76
832.459	39.49
832.631	44.95
832.803	62.7
832.975	58.55
833.146	45.19
833.318	34.34
833.49	44.76
833.662	36.08
833.833	12.79
834.005	9.53
834.177	28.92
834.348	12.55
834.52	-8.29
834.692	-2.99
834.863	-12.57
835.035	-17.3
835.206	-16.64
835.378	5.09
835.549	5.7
835.721	17.68
835.892	5.39
836.064	22.5
836.235	46.95
836.407	67.35
836.578	42.84
836.749	64.32
836.921	58.42
837.092	13.28
837.264	-45.49
837.435	-55.7
837.606	-30.37
837.777	1.67
837.949	40.16
838.12	28.36
838.291	36.19
838.462	18.72
838.633	3.97
838.805	-24.06
838.976	1.11
839.147	12.56
839.318	-22.98
839.489	-43.33
839.66	-13.01
839.831	26.63
840.002	11.8
840.173	12.46
840.344	26.07
840.515	21.45
840.686	-30.74
840.857	-45.07
841.028	-52.65
841.199	-22.33
841.369	-35.08
841.54	-21.08
841.711	27.72
841.882	33.35
842.053	6.65
842.223	-10.76
842.394	15.37
842.565	9.5
842.736	25.54
842.906	24.84
843.077	57.79
843.248	58.12
843.418	42.96
843.589	28.23
843.759	62.64
843.93	58.31
844.101	47.88
844.271	57.68
844.442	76.89
844.612	76.43
844.783	44.08
844.953	14.98
845.123	25.93
845.294	18.6
845.464	-17.28
845.635	9.25
845.805	42.54
845.975	44.98
846.146	15.75
846.316	15.25
846.486	46.89
846.656	36.16
846.827	-12.48
846.997	-3.52
847.167	20.13
847.337	-31.57
847.507	-21.16
847.677	-6.83
847.848	17.63
848.018	12.56
848.188	36.82
848.358	24.77
848.528	22.71
848.698	0.66
848.868	-21.38
849.038	-39.31
849.208	-20.08
849.378	-1.68
849.548	-9.04
849.718	19.7
849.887	54.22
850.057	-23.43
850.227	-64.38
850.397	-67.86
850.567	-73.09
850.737	-58.49
850.906	-64.46
851.076	-68.94
851.246	-56.98
851.415	-10.93
851.585	-5.88
851.755	3.9
851.924	49.59
852.094	62.32
852.264	40.4
852.433	9.1
852.603	39.45
852.772	30.17
852.942	4.63
853.111	-35.53
853.281	18.34
853.45	9.22
853.62	-21.12
853.789	-64.72
853.959	9.37
854.128	-32.52
854.297	-64.5
854.467	-76.52
854.636	-17.25
854.805	-34.5
854.975	-40.9
855.144	-15.81
855.313	62.47
855.482	25.92
855.652	-11.85
855.821	0.86
855.99	14.94
856.159	-7.17
856.328	-21.95
856.497	-12.6
856.667	-17.36
856.836	-32.61
857.005	-99.52
857.174	-159.05
857.343	-139.21
857.512	-77
857.681	-128.2
857.85	-110.67
858.019	-78.13
858.188	-64.21
858.356	-114.31
858.525	-114.77
858.694	-100.38
858.863	-70.01
859.032	-99.55
859.201	-68.1
859.369	-14.78
859.538	-3.77
859.707	-25.29
859.876	-5.02
860.044	-8.43
860.213	-0.43
860.382	2.79
860.55	27.1
860.719	70.07
860.888	86.01
861.056	61.25
861.225	-13.03
861.393	31.57
861.562	68.71
861.73	24.84
861.899	22.22
862.067	15.54
862.236	11.91
862.404	-66.55
862.572	-86.75
862.741	-56.24
862.909	-58.96
863.078	-78.02
863.246	-76.44
863.414	-59.76
863.582	-78.59
863.751	-52.1
863.919	-76.78
864.087	-1.39
864.255	9.55
864.424	-32.83
864.592	-17.64
864.76	31.6
864.928	28.29
865.096	-0.18
865.264	11.42
865.432	17.85
865.6	18.05
865.768	-74.59
865.936	-135.5
866.104	-96.49
866.272	-118.18
866.44	-138.23
866.608	-114.4
866.776	-155.34
866.944	-250.11
867.112	-313.44
867.28	-457.35
867.448	-834.99
867.615	-270.43
867.783	-53.47
867.951	-94.57
868.119	-8.71
868.286	-17.95
868.454	-69.81
868.622	-123.77
868.789	-129.79
868.957	-74.34
869.125	-95.98
869.292	-63.39
869.46	-41.57
869.627	-9.19
869.795	-63.97
869.963	-33.91
870.13	9.08
870.298	39.35
870.465	-12.18
870.632	-20.15
870.8	-28.59
870.967	-70.45
871.135	-184.07
871.302	-93.78
871.469	-21.64
871.637	-15.62
871.804	-4.67
871.971	-25.94
872.139	-31.41
872.306	-4.6
872.473	-24.03
872.64	-67.14
872.807	-1.97
872.975	18.11
873.142	-52.56
873.309	-21.57
873.476	89.05
873.643	83.63
873.81	65.94
873.977	63.58
874.144	55.58
874.311	19.55
874.478	-49.08
874.645	-115.14
874.812	-359.31
874.979	16390.48
875.146	-457.11
875.313	-105.87
875.48	32.38
875.647	-10.79
875.813	-78.43
875.98	-115.89
876.147	-195.89
876.314	-200.89
876.481	-234.08
876.647	-251.09
876.814	-141.56
876.981	-96.31
877.147	-205.77
877.314	-225.49
877.481	-116.91
877.647	-60.65
877.814	-209.26
877.98	-160.97
878.147	-74.1
878.314	-47.22
878.48	-124.79
878.647	-65.89
878.813	47.44
878.979	47.81
879.146	4.25
879.312	25.83
879.479	24.65
879.645	2.17
879.811	-68.38
879.978	-28.59
880.144	-1.82
880.31	-11.26
880.477	-113.24
880.643	-127.26
880.809	-112.22
880.975	-86.41
881.142	-111.41
881.308	-88.79
881.474	-14.65
881.64	-2.27
881.806	-40.99
881.972	-9.87
882.138	3.46
882.304	3.43
882.47	-75.43
882.636	-142.11
882.802	-135.22
882.968	-66.67
883.134	-178.52
883.3	-243.86
883.466	-12.76
883.632	-19.68
883.798	-104.62
883.964	-70.82
884.129	-58.28
884.295	-115.21
884.461	-121.52
884.627	-148.3
884.793	-101.04
884.958	-49.38
885.124	-83.07
885.29	-70.68
885.455	-33.59
885.621	-37.86
885.787	-220.06
885.952	-100.24
886.118	-94.04
886.283	-67.58
886.449	-112.47
886.614	-58.65
886.78	-84.56
886.945	-127.39
887.111	-258.77
887.276	-213
887.442	-492.81
887.607	-269.1
887.773	-309.97
887.938	-200.2
888.103	-138.71
888.269	-50.9
888.434	-40.04
888.599	-47.33
888.764	-1.78
888.93	3.48
889.095	-19.89
889.26	-57.57
889.425	11.45
889.59	41.69
889.756	4.48
889.921	11.45
890.086	35.16
890.251	10.57
890.416	-58.72
890.581	-63.39
890.746	-44.12
890.911	-8.46
891.076	-66.4
891.241	-109.31
891.406	-105.81
891.571	-25.29
891.736	-46.61
891.901	-64.1
892.065	-16.51
892.23	-12.71
892.395	-108.62
892.56	-197.43
892.725	-97.59
892.889	-56.52
893.054	-166.46
893.219	-163.09
893.384	-137.5
893.548	-182.09
893.713	-259.69
893.878	-206.35
