Data from Ofra_PP_Phys_9GT47Q_Reflection_3.txt Node
Date: Sat Jul 24 20:13:26 EDT 2021
User: USUARIO
Spectrometer: FLMT01687
Trigger mode: 0
Integration Time (sec): 1.100000E0
Scans to average: 2
Electric dark correction enabled: true
Nonlinearity correction enabled: false
Boxcar width: 2
XAxis mode: Wavelengths
Number of Pixels in Spectrum: 3648
>>>>>Begin Spectral Data<<<<<
179.494	770.51
179.716	1004.39
179.937	1810.52
180.158	1521.06
180.38	705.28
180.601	-910.71
180.823	49.96
181.044	-489.15
181.265	45.23
181.486	24.52
181.708	32.46
181.929	-2710.67
182.15	888.76
182.372	61.99
182.593	-8966.67
182.814	95.9
183.035	237.98
183.257	206.09
183.478	91.54
183.699	162.46
183.92	69.35
184.141	73.64
184.363	-50.5
184.584	45.38
184.805	30.06
185.026	65.56
185.247	57.97
185.468	45.23
185.689	26.61
185.91	31.09
186.132	24.74
186.353	28.19
186.574	81.03
186.795	95.39
187.016	25.88
187.237	48.25
187.458	20.49
187.679	20.7
187.9	51.58
188.121	104.27
188.342	115.98
188.563	149.4
188.784	152.18
189.005	169.01
189.226	165.72
189.447	129.57
189.667	105.06
189.888	40.37
190.109	7.03
190.33	-47.43
190.551	-69.07
190.772	-72.87
190.993	-79.7
191.214	-54.48
191.434	-42.5
191.655	36.08
191.876	7.92
192.097	11.02
192.318	2.69
192.538	-13.23
192.759	-46.55
192.98	-10.02
193.201	-13.16
193.421	-48.44
193.642	-3.6
193.863	14.5
194.083	-11.96
194.304	-11.85
194.525	24.21
194.745	21.68
194.966	-62.47
195.187	-92.23
195.407	-115.32
195.628	-168.94
195.848	-159.83
196.069	-149.66
196.29	-111.04
196.51	-172.44
196.731	-184.03
196.951	-167.43
197.172	-129.45
197.392	-115.81
197.613	-54.98
197.833	-49.37
198.054	-74
198.274	-29.14
198.495	-90.44
198.715	-52.13
198.936	-67.2
199.156	-20.15
199.377	-68.11
199.597	-51.61
199.817	-49.47
200.038	13.36
200.258	13.03
200.479	78.45
200.699	90.59
200.919	80.69
201.14	17.67
201.36	-2.03
201.58	-16.75
201.801	-2.74
202.021	-31.24
202.241	-3
202.461	-17.13
202.682	-35.17
202.902	-17.44
203.122	-16.5
203.342	2.83
203.563	38.23
203.783	60.86
204.003	-26.02
204.223	-75.99
204.443	60.26
204.663	24.08
204.884	-13.89
205.104	32.57
205.324	78.45
205.544	34.81
205.764	27.14
205.984	44.07
206.204	56.52
206.424	22.81
206.644	-19.79
206.864	12.63
207.084	13.55
207.304	50.85
207.525	12.3
207.745	6.82
207.964	-9.23
208.184	-22.84
208.404	-64.41
208.624	-58.77
208.844	-40.3
209.064	-70.35
209.284	-52.1
209.504	-33.26
209.724	1.81
209.944	-15.59
210.164	43.36
210.384	20.23
210.604	39.46
210.823	-26.52
211.043	-64.02
211.263	-68.42
211.483	-84.15
211.703	-107.04
211.922	-54.61
212.142	40.05
212.362	57.58
212.582	43.81
212.801	46.05
213.021	11.78
213.241	-4.45
213.461	-60.19
213.68	-73.96
213.9	-63.33
214.12	-27.78
214.339	-70.12
214.559	-58.41
214.779	-15.96
214.998	-10.76
215.218	-50.45
215.438	-24.58
215.657	-34.11
215.877	-25.55
216.096	-18.05
216.316	30
216.535	13
216.755	24.27
216.974	4.43
217.194	5.26
217.413	-16.71
217.633	-13.12
217.852	-68.84
218.072	-51.89
218.291	-60.19
218.511	-28.96
218.73	-85.46
218.95	-61.53
219.169	-73.67
219.389	-101.25
219.608	-131.31
219.827	-56.18
220.047	-29.52
220.266	-25.61
220.485	-28.53
220.705	25.09
220.924	-29.51
221.143	9.76
221.363	-46
221.582	12.93
221.801	1.79
222.021	52.31
222.24	30.16
222.459	86.14
222.678	46.5
222.897	11.67
223.117	-0.25
223.336	-23.02
223.555	7.44
223.774	51.41
223.993	93.19
224.213	152.04
224.432	120.64
224.651	132.14
224.87	79.11
225.089	75.47
225.308	58.76
225.527	88.5
225.746	76.73
225.965	74.08
226.184	55.9
226.404	58.96
226.623	19.49
226.842	15.04
227.061	48.14
227.28	79.68
227.499	89.43
227.718	111.48
227.936	95.14
228.155	85.88
228.374	16.07
228.593	-19.4
228.812	-4.47
229.031	12.94
229.25	-21.06
229.469	27.38
229.688	44.7
229.907	41.88
230.125	49.99
230.344	70.7
230.563	76.14
230.782	95.77
231.001	32.82
231.22	34.18
231.438	34.64
231.657	21.32
231.876	10.84
232.095	67.9
232.313	70.53
232.532	65.96
232.751	67.12
232.969	48.89
233.188	45.91
233.407	48.9
233.625	23.47
233.844	16.82
234.063	13.44
234.281	37.81
234.5	29.55
234.719	40.48
234.937	49.99
235.156	76.18
235.374	61.76
235.593	83.53
235.811	94.92
236.03	97.49
236.249	69.18
236.467	97.95
236.686	56.91
236.904	59.1
237.123	-23.11
237.341	-17.75
237.559	-43.74
237.778	-33.1
237.996	-64.47
238.215	-17.85
238.433	-7.38
238.652	9.8
238.87	-44.75
239.088	-6.29
239.307	26.31
239.525	17.41
239.743	-40.29
239.962	5.17
240.18	-27.3
240.398	-77.7
240.617	-99.86
240.835	-52.79
241.053	-89.76
241.271	-39.24
241.49	-4.82
241.708	8.86
241.926	27.93
242.144	49.38
242.363	23.95
242.581	27.64
242.799	40.73
243.017	39.69
243.235	1.32
243.453	41.04
243.672	-0.59
243.89	4.73
244.108	7.74
244.326	40.91
244.544	23.82
244.762	26.2
244.98	33.51
245.198	45.68
245.416	14.07
245.634	27.22
245.852	51.11
246.07	42.2
246.288	44.99
246.506	30.18
246.724	43.58
246.942	34.44
247.16	49.47
247.378	51.12
247.596	81.82
247.814	70.31
248.032	32.85
248.25	21.61
248.468	14.39
248.685	31.28
248.903	45.57
249.121	76.52
249.339	41
249.557	24.55
249.775	-9.57
249.992	-88.12
250.21	-108.64
250.428	-65.88
250.646	-59.49
250.863	-54.69
251.081	-22.24
251.299	15.22
251.517	10.43
251.734	15.2
251.952	5.64
252.17	10.2
252.387	15.87
252.605	-2.02
252.823	8.33
253.04	38.55
253.258	52.57
253.475	38.55
253.693	71.38
253.911	78.56
254.128	76.5
254.346	86.89
254.563	67.6
254.781	38.49
254.998	23.42
255.216	3.12
255.433	-12.31
255.651	32.56
255.868	60.84
256.086	84.62
256.303	97.99
256.521	111.89
256.738	77.04
256.956	38.14
257.173	32.87
257.39	28.19
257.608	21.61
257.825	36.78
258.043	63.97
258.26	49.47
258.477	51.49
258.695	63.49
258.912	15.94
259.129	-6.56
259.346	-44.51
259.564	-39.24
259.781	-35.47
259.998	-8.81
260.216	32.04
260.433	74.82
260.65	48.49
260.867	63.33
261.084	49.43
261.302	32.24
261.519	24.55
261.736	9.22
261.953	-6.18
262.17	20.11
262.387	9.94
262.604	-8.53
262.822	-3.74
263.039	-3.54
263.256	-30.36
263.473	-12.99
263.69	-24.43
263.907	17.37
264.124	40.35
264.341	71.55
264.558	48.27
264.775	57.14
264.992	59.11
265.209	61.27
265.426	58.95
265.643	78.39
265.86	82.27
266.077	75.97
266.294	51.95
266.51	39.76
266.727	14.75
266.944	35.49
267.161	-2.76
267.378	13.7
267.595	8.53
267.812	-30.57
268.028	-33.28
268.245	7.34
268.462	-28.67
268.679	-19.83
268.896	51.75
269.112	42.23
269.329	22.91
269.546	51.18
269.763	52.84
269.979	45.94
270.196	34.13
270.413	28.16
270.629	5.33
270.846	-14.73
271.063	-8.17
271.279	-23.29
271.496	-61.57
271.712	-54.07
271.929	-33.72
272.146	-23.27
272.362	-13.91
272.579	59.85
272.795	66.96
273.012	85.08
273.228	71.86
273.445	40.96
273.661	-27.13
273.878	-114.28
274.094	-113.66
274.311	-138.63
274.527	-59.44
274.744	-12.01
274.96	42.89
275.177	45.78
275.393	55.2
275.609	57.9
275.826	68.43
276.042	63.45
276.259	58.25
276.475	53.65
276.691	43.89
276.908	10.65
277.124	48.34
277.34	53.17
277.557	58.99
277.773	54.95
277.989	59.03
278.205	32.59
278.422	29.73
278.638	41.12
278.854	46.99
279.07	51.14
279.286	21.41
279.503	-8.33
279.719	-25.18
279.935	-43.74
280.151	-50.93
280.367	-8.32
280.583	10.61
280.799	5.53
281.016	14.16
281.232	26.67
281.448	28.31
281.664	43.41
281.88	34.77
282.096	36.9
282.312	49.19
282.528	49.5
282.744	53.96
282.96	58.47
283.176	57.92
283.392	44.78
283.608	37.76
283.824	32.89
284.04	35.8
284.256	51.4
284.471	46
284.687	47.82
284.903	58.63
285.119	98.6
285.335	56.54
285.551	67.31
285.767	50.47
285.982	19.73
286.198	-34.26
286.414	-2.2
286.63	1.92
286.846	32.81
287.061	-0.47
287.277	36.33
287.493	38.61
287.709	44.25
287.924	37.37
288.14	81.37
288.356	72.08
288.571	78.56
288.787	71.78
289.003	73.16
289.218	59.82
289.434	12.14
289.65	23.5
289.865	16.9
290.081	14.84
290.296	28.21
290.512	36.91
290.727	28.34
290.943	16.58
291.159	10.35
291.374	7.19
291.59	-16.97
291.805	-36.37
292.021	-14.16
292.236	-33.05
292.451	-23.68
292.667	6.92
292.882	28.28
293.098	38.69
293.313	45.08
293.529	28.05
293.744	-8.11
293.959	-30.64
294.175	-31.28
294.39	-3.37
294.605	13.1
294.821	45.61
295.036	42.22
295.251	49.63
295.467	31.45
295.682	32.38
295.897	-3.77
296.112	-9.58
296.328	-8.15
296.543	-17.35
296.758	-39.67
296.973	39.39
297.188	82.13
297.404	39.65
297.619	56.92
297.834	48.43
298.049	20.7
298.264	-8.57
298.479	29.64
298.694	34.41
298.909	54.03
299.125	51.31
299.34	72.04
299.555	46.85
299.77	46.99
299.985	-23.01
300.2	-36.37
300.415	-78.06
300.63	-41.24
300.845	-48.18
301.06	-21.73
301.275	-10.2
301.49	14.7
301.704	-1.72
301.919	-39.98
302.134	-47.95
302.349	-3.3
302.564	-32.82
302.779	-19.02
302.994	49.33
303.209	50.93
303.423	44.58
303.638	86.57
303.853	69.82
304.068	-4.51
304.283	0.7
304.497	-15.54
304.712	-11.36
304.927	-0.82
305.142	13.92
305.356	28.28
305.571	47.54
305.786	38.34
306	26.17
306.215	51.37
306.43	22.16
306.644	31.18
306.859	43.22
307.074	41.45
307.288	2.5
307.503	28.17
307.717	-1.12
307.932	8.98
308.147	-3.83
308.361	38.9
308.576	16.85
308.79	-29.8
309.005	-32.03
309.219	-8.2
309.434	-7.17
309.648	-37.17
309.863	9.52
310.077	8.85
310.292	17.12
310.506	4.58
310.72	57.59
310.935	81.04
311.149	55.29
311.364	58.85
311.578	69.72
311.792	50.37
312.007	28.52
312.221	-7
312.435	19.58
312.649	-11.06
312.864	49.32
313.078	58.48
313.292	119.85
313.507	80.05
313.721	75.87
313.935	53.8
314.149	58.15
314.363	43.99
314.578	37.1
314.792	23.87
315.006	22.61
315.22	17.54
315.434	27.2
315.648	44.15
315.862	32.86
316.077	37.5
316.291	55.9
316.505	49.54
316.719	40.09
316.933	13.72
317.147	33.47
317.361	-22.5
317.575	-23.68
317.789	-39.49
318.003	-13.82
318.217	-13.9
318.431	16.99
318.645	33.39
318.859	28.55
319.073	51.21
319.287	21.53
319.5	-8.48
319.714	-47.13
319.928	-52.49
320.142	-67.94
320.356	-0.8
320.57	19.81
320.784	13.62
320.997	34.23
321.211	28.89
321.425	-16.5
321.639	-59.77
321.853	-16.02
322.066	-21.45
322.28	-29.44
322.494	-6.33
322.707	70.64
322.921	38.84
323.135	38.53
323.349	46.73
323.562	25.07
323.776	-21.6
323.989	-7.89
324.203	-22.05
324.417	-8.42
324.63	-29.23
324.844	-50.76
325.057	-61.96
325.271	-57.82
325.485	-69.55
325.698	-16.53
325.912	21.94
326.125	16.42
326.339	34.72
326.552	34.33
326.766	44.29
326.979	53.21
327.193	77.17
327.406	43.28
327.619	44.24
327.833	49.46
328.046	28.12
328.26	0.46
328.473	11.15
328.686	-8.45
328.9	-9.33
329.113	-3.21
329.326	-2.76
329.54	1.54
329.753	10.27
329.966	7.48
330.179	27.97
330.393	35.65
330.606	31.23
330.819	45.75
331.032	47.28
331.246	45.32
331.459	71.94
331.672	57.76
331.885	50.99
332.098	24.59
332.311	35.64
332.525	-3.52
332.738	24.86
332.951	40.3
333.164	48.58
333.377	51.35
333.59	84.46
333.803	63
334.016	49.93
334.229	46.57
334.442	51.1
334.655	73.81
334.868	79.71
335.081	73.45
335.294	69.33
335.507	61.89
335.72	44.69
335.933	18.5
336.146	19.32
336.359	35.45
336.572	10.68
336.785	-10.52
336.997	3.48
337.21	19.12
337.423	7.12
337.636	23.28
337.849	30.88
338.062	36.03
338.274	47.59
338.487	29.69
338.7	37.56
338.913	13.43
339.125	-12.05
339.338	-23.52
339.551	-2.25
339.763	12.14
339.976	44.81
340.189	63.92
340.402	68.76
340.614	45.04
340.827	25.98
341.039	0.79
341.252	-15.89
341.465	-15.58
341.677	-28.86
341.89	-77.54
342.102	-48.21
342.315	-38.11
342.527	-51.43
342.74	-24.25
342.952	44.05
343.165	46.02
343.377	71.22
343.59	59.49
343.802	86.27
344.015	77.52
344.227	88.89
344.44	61.19
344.652	49.07
344.864	40.65
345.077	65.26
345.289	52.48
345.502	71.76
345.714	74.05
345.926	63.29
346.139	35.54
346.351	35.63
346.563	34.46
346.775	52.1
346.988	42.45
347.2	44.1
347.412	7.84
347.624	10.02
347.837	12.13
348.049	26.21
348.261	48.31
348.473	60.56
348.685	9.42
348.897	-20.44
349.11	-23.7
349.322	-29.37
349.534	6.05
349.746	39.03
349.958	63.5
350.17	58.8
350.382	63.19
350.594	54.1
350.806	58.78
351.018	38.17
351.23	32.03
351.442	21.24
351.654	18.96
351.866	26.35
352.078	33.17
352.29	45.13
352.502	59.65
352.714	78.37
352.926	54.81
353.138	57.88
353.35	32.42
353.561	21.72
353.773	-7.08
353.985	8.4
354.197	4.28
354.409	10.52
354.621	14.23
354.832	22.73
355.044	4.42
355.256	3.56
355.468	9.45
355.679	1.64
355.891	11.1
356.103	4.62
356.314	0.56
356.526	10.55
356.738	39.5
356.949	37.84
357.161	52.02
357.373	54.56
357.584	46.75
357.796	29.81
358.008	4.5
358.219	29.89
358.431	30.31
358.642	42.71
358.854	47.83
359.065	53.75
359.277	17.37
359.488	7.15
359.7	-10.99
359.911	-31.87
360.123	-26.48
360.334	-28.28
360.546	-31.59
360.757	-29.3
360.969	-22.05
361.18	-5.11
361.391	7.91
361.603	4.72
361.814	29.86
362.025	13.43
362.237	7.52
362.448	10.17
362.659	33.15
362.871	31.02
363.082	47.09
363.293	49.38
363.504	40.73
363.716	21.19
363.927	21.09
364.138	5.76
364.349	-28.58
364.56	-33.63
364.772	-45.57
364.983	-34.74
365.194	-45.63
365.405	-14.53
365.616	4.82
365.827	20.87
366.038	10.59
366.25	43.3
366.461	18.72
366.672	37.07
366.883	48.76
367.094	40.43
367.305	6.6
367.516	36.63
367.727	12.18
367.938	-13.19
368.149	-25.63
368.36	2.28
368.571	-7.76
368.781	-16.41
368.992	-23.82
369.203	7.28
369.414	-13.83
369.625	-23.35
369.836	-21.28
370.047	-23.52
370.258	-44.37
370.468	-35.6
370.679	-74.04
370.89	-61.81
371.101	-25.39
371.312	-47.41
371.522	-36.87
371.733	-0.05
371.944	12.61
372.155	25.83
372.365	13.3
372.576	12.54
372.787	-3.14
372.997	-16.35
373.208	-29.94
373.419	-1.48
373.629	-29.24
373.84	-15.95
374.05	-31.84
374.261	-7.5
374.472	-30.78
374.682	17.11
374.893	9.63
375.103	48.52
375.314	29.55
375.524	47.92
375.735	50.36
375.945	50.34
376.156	12.82
376.366	27.08
376.577	35.65
376.787	17.23
376.997	36.37
377.208	45.63
377.418	18.59
377.629	20.51
377.839	9.89
378.049	-4.36
378.26	14.77
378.47	37.2
378.68	26.88
378.89	30.31
379.101	25.42
379.311	-9.08
379.521	-34.51
379.732	-25.09
379.942	-32.6
380.152	-26.9
380.362	1.84
380.572	6.93
380.783	14.38
380.993	23.81
381.203	27.88
381.413	26.26
381.623	22.42
381.833	18.32
382.043	7.22
382.253	13.24
382.463	15.33
382.674	21.57
382.884	5.39
383.094	15.74
383.304	9.62
383.514	7.26
383.724	20.29
383.934	13.45
384.144	-3.38
384.353	1.19
384.563	6.88
384.773	0.73
384.983	13.19
385.193	29.6
385.403	15.21
385.613	13.81
385.823	9.29
386.033	13.5
386.242	-0.45
386.452	6.42
386.662	-1.91
386.872	7.05
387.082	0.88
387.291	-3.9
387.501	5.35
387.711	8.56
387.921	-6.69
388.13	1.15
388.34	18.46
388.55	13.03
388.759	12.44
388.969	21.23
389.179	13.35
389.388	8.31
389.598	6.72
389.807	5.29
390.017	5.37
390.227	6.56
390.436	4.5
390.646	12.41
390.855	15.76
391.065	19.03
391.274	15.07
391.484	13.4
391.693	11.56
391.903	13.64
392.112	13.83
392.322	21.38
392.531	26.01
392.74	24.67
392.95	18.06
393.159	14.99
393.369	13.82
393.578	10.44
393.787	8.95
393.997	13.55
394.206	13.31
394.415	14.06
394.625	14.14
394.834	12.67
395.043	10.98
395.252	13.38
395.462	14.37
395.671	16.84
395.88	18.79
396.089	19.67
396.298	17.88
396.508	16.6
396.717	15.9
396.926	15.72
397.135	16.09
397.344	15.63
397.553	16.15
397.762	17.03
397.971	16.83
398.181	16.34
398.39	14.98
398.599	14.41
398.808	13.29
399.017	14.18
399.226	14.26
399.435	16.1
399.644	16
399.853	15.59
400.062	14.58
400.27	14.46
400.479	14.13
400.688	13.44
400.897	13.85
401.106	13.69
401.315	13.03
401.524	12.71
401.733	13.21
401.941	13.8
402.15	14.03
402.359	14.2
402.568	14.43
402.777	14.44
402.985	14.06
403.194	14.19
403.403	14.32
403.612	14
403.82	14.02
404.029	13.78
404.238	13.26
404.446	13.39
404.655	12.95
404.864	12.91
405.072	12.65
405.281	12.99
405.489	12.33
405.698	12.41
405.906	12.1
406.115	12.01
406.324	11.5
406.532	11.77
406.741	12.16
406.949	12
407.158	11.98
407.366	12.16
407.574	12.16
407.783	11.97
407.991	11.95
408.2	12.17
408.408	12.06
408.617	11.94
408.825	11.61
409.033	11.8
409.242	11.71
409.45	11.72
409.658	11.58
409.867	11.86
410.075	11.66
410.283	11.33
410.491	11.13
410.7	10.94
410.908	10.87
411.116	10.89
411.324	10.96
411.533	11.18
411.741	11.37
411.949	11.5
412.157	11.32
412.365	11.33
412.573	11.21
412.781	11.3
412.99	10.91
413.198	11.07
413.406	11
413.614	10.96
413.822	10.78
414.03	10.81
414.238	10.5
414.446	10.6
414.654	10.32
414.862	10.34
415.07	10.41
415.278	10.73
415.486	10.32
415.694	10.5
415.902	10.4
416.109	10.3
416.317	10.16
416.525	9.99
416.733	10.01
416.941	10.09
417.149	9.96
417.357	10.02
417.564	10.52
417.772	10.54
417.98	10.5
418.188	10.59
418.395	10.38
418.603	10.37
418.811	9.88
419.019	9.65
419.226	9.91
419.434	10.08
419.642	9.86
419.849	10.29
420.057	10.66
420.265	10.47
420.472	10.1
420.68	10.31
420.887	10.04
421.095	9.94
421.302	9.81
421.51	10.18
421.717	10.02
421.925	10.14
422.132	9.99
422.34	9.68
422.547	9.61
422.755	9.49
422.962	9.51
423.17	9.4
423.377	9.71
423.585	9.68
423.792	9.8
423.999	9.78
424.207	9.76
424.414	9.77
424.621	9.79
424.829	9.51
425.036	9.44
425.243	9.47
425.451	9.28
425.658	8.96
425.865	9.16
426.072	9.17
426.28	9.38
426.487	9.22
426.694	9.53
426.901	9.58
427.108	9.56
427.315	9.47
427.523	9.84
427.73	9.79
427.937	9.34
428.144	9.11
428.351	9.1
428.558	9.25
428.765	9.22
428.972	9.49
429.179	9.76
429.386	9.75
429.593	9.35
429.8	9
430.007	9.06
430.214	9.14
430.421	9.11
430.628	9.03
430.835	9
431.042	9.2
431.249	9.17
431.456	9.27
431.662	9.67
431.869	9.98
432.076	9.97
432.283	9.91
432.49	9.64
432.697	9.43
432.903	9.1
433.11	8.96
433.317	9.05
433.524	9.34
433.73	9.19
433.937	9.73
434.144	9.62
434.35	9.61
434.557	9.55
434.764	9.66
434.97	9.39
435.177	9.51
435.384	9.23
435.59	9.28
435.797	9.42
436.003	9.58
436.21	9.59
436.416	9.77
436.623	9.61
436.829	9.61
437.036	9.59
437.242	9.49
437.449	9.46
437.655	9.44
437.862	9.53
438.068	9.48
438.275	9.63
438.481	9.8
438.687	9.9
438.894	9.79
439.1	9.75
439.307	9.95
439.513	9.87
439.719	9.9
439.926	9.81
440.132	9.82
440.338	9.51
440.544	9.53
440.751	9.44
440.957	9.6
441.163	9.37
441.369	9.54
441.575	9.35
441.782	9.25
441.988	9.01
442.194	9.13
442.4	9.04
442.606	9.4
442.812	9.57
443.018	9.84
443.224	10.04
443.431	10.21
443.637	10.02
443.843	9.91
444.049	9.86
444.255	9.76
444.461	9.61
444.667	9.51
444.873	9.58
445.079	9.64
445.284	9.71
445.49	9.58
445.696	9.42
445.902	9.45
446.108	9.3
446.314	9.09
446.52	9.35
446.726	9.68
446.931	9.59
447.137	9.74
447.343	9.99
447.549	9.73
447.755	9.68
447.96	9.83
448.166	9.71
448.372	9.74
448.578	9.75
448.783	9.68
448.989	9.76
449.195	10.05
449.4	9.82
449.606	9.83
449.812	9.83
450.017	9.95
450.223	9.71
450.428	9.65
450.634	9.83
450.84	9.94
451.045	9.67
451.251	9.55
451.456	9.86
451.662	9.93
451.867	9.88
452.073	9.82
452.278	10.05
452.483	10.04
452.689	9.97
452.894	10.16
453.1	10.31
453.305	10.1
453.51	9.98
453.716	9.91
453.921	9.73
454.127	9.65
454.332	9.64
454.537	9.55
454.742	9.58
454.948	9.74
455.153	9.72
455.358	9.83
455.563	10.07
455.769	10.06
455.974	9.88
456.179	9.81
456.384	9.71
456.589	9.59
456.795	9.44
457	9.48
457.205	9.68
457.41	9.61
457.615	9.49
457.82	9.63
458.025	9.7
458.23	9.41
458.435	9.69
458.64	9.56
458.845	9.61
459.05	9.48
459.255	9.44
459.46	9.28
459.665	9.39
459.87	9.31
460.075	9.19
460.28	9.4
460.485	9.5
460.69	9.57
460.895	9.34
461.099	9.28
461.304	9.49
461.509	9.43
461.714	9.29
461.919	9.58
462.123	9.62
462.328	9.51
462.533	9.24
462.738	9.45
462.942	9.26
463.147	9.45
463.352	9.42
463.556	9.52
463.761	9.46
463.966	9.64
464.17	9.63
464.375	9.51
464.58	9.54
464.784	9.58
464.989	9.34
465.193	9.37
465.398	9.35
465.602	9.6
465.807	9.48
466.011	9.62
466.216	9.66
466.42	9.72
466.625	9.65
466.829	9.84
467.034	9.98
467.238	10.03
467.443	9.95
467.647	9.75
467.851	9.7
468.056	9.76
468.26	9.64
468.464	9.63
468.669	9.91
468.873	9.93
469.077	9.79
469.282	9.78
469.486	9.82
469.69	9.84
469.894	9.79
470.099	9.83
470.303	9.87
470.507	9.78
470.711	9.55
470.915	9.58
471.119	9.57
471.324	9.55
471.528	9.6
471.732	9.77
471.936	9.79
472.14	9.92
472.344	9.94
472.548	10.08
472.752	10.17
472.956	10.29
473.16	10.12
473.364	10.11
473.568	10.15
473.772	10.1
473.976	10.04
474.18	10.1
474.384	10.06
474.588	9.89
474.792	9.69
474.995	9.66
475.199	9.74
475.403	9.85
475.607	9.93
475.811	10.04
476.015	10.12
476.218	10.09
476.422	9.98
476.626	10.17
476.83	10.32
477.033	10.2
477.237	10.1
477.441	10.17
477.644	9.92
477.848	9.81
478.052	9.64
478.255	9.61
478.459	9.72
478.663	10.07
478.866	10.13
479.07	10.29
479.273	10.62
479.477	10.69
479.681	10.5
479.884	10.45
480.088	10.42
480.291	10.26
480.495	10.07
480.698	10.12
480.901	10.36
481.105	10.54
481.308	10.53
481.512	10.5
481.715	10.56
481.919	10.46
482.122	10.36
482.325	10.35
482.529	10.49
482.732	10.44
482.935	10.33
483.138	10.33
483.342	10.49
483.545	10.66
483.748	10.76
483.952	10.87
484.155	11.03
484.358	11.01
484.561	10.86
484.764	10.84
484.967	10.93
485.171	10.97
485.374	10.85
485.577	10.97
485.78	10.99
485.983	10.92
486.186	10.87
486.389	10.85
486.592	10.86
486.795	10.87
486.998	10.88
487.201	10.91
487.404	11.07
487.607	11.22
487.81	11.28
488.013	11.33
488.216	11.32
488.419	11.44
488.622	11.09
488.825	11.02
489.028	10.97
489.231	10.94
489.433	10.68
489.636	10.79
489.839	10.74
490.042	10.66
490.245	10.64
490.447	10.81
490.65	10.88
490.853	11.07
491.056	11.25
491.258	11.34
491.461	11.39
491.664	11.43
491.866	11.3
492.069	11.41
492.272	11.43
492.474	11.49
492.677	11.52
492.879	11.6
493.082	11.65
493.285	11.84
493.487	11.64
493.69	11.51
493.892	11.44
494.095	11.36
494.297	11.18
494.5	11.46
494.702	11.68
494.905	11.84
495.107	11.9
495.309	12.06
495.512	12.08
495.714	12.15
495.917	12.27
496.119	12.27
496.321	12.33
496.524	12.43
496.726	12.46
496.928	12.46
497.13	12.49
497.333	12.53
497.535	12.54
497.737	12.41
497.939	12.41
498.142	12.55
498.344	12.44
498.546	12.36
498.748	12.52
498.95	12.65
499.152	12.57
499.355	12.65
499.557	12.78
499.759	12.9
499.961	12.91
500.163	13.04
500.365	13.06
500.567	13.04
500.769	12.83
500.971	12.8
501.173	12.66
501.375	12.82
501.577	12.79
501.779	12.96
501.981	13.02
502.183	13.18
502.385	13.15
502.587	13.16
502.788	13.28
502.99	13.34
503.192	13.4
503.394	13.46
503.596	13.56
503.798	13.63
503.999	13.71
504.201	13.76
504.403	13.9
504.605	14.08
504.806	14.01
505.008	13.97
505.21	14.02
505.411	14.05
505.613	13.87
505.815	14.02
506.016	14.22
506.218	14.36
506.42	14.25
506.621	14.41
506.823	14.48
507.024	14.48
507.226	14.38
507.427	14.43
507.629	14.65
507.83	14.69
508.032	14.51
508.233	14.71
508.435	14.85
508.636	14.84
508.838	14.69
509.039	14.86
509.24	14.85
509.442	14.87
509.643	14.81
509.845	15.06
510.046	15.24
510.247	15.27
510.448	15.3
510.65	15.41
510.851	15.5
511.052	15.5
511.254	15.45
511.455	15.6
511.656	15.63
511.857	15.62
512.058	15.61
512.26	15.71
512.461	15.71
512.662	15.83
512.863	15.78
513.064	15.77
513.265	15.91
513.466	15.96
513.667	15.87
513.868	16.01
514.069	16.29
514.27	16.34
514.471	16.29
514.672	16.47
514.873	16.52
515.074	16.48
515.275	16.39
515.476	16.51
515.677	16.55
515.878	16.69
516.079	16.67
516.28	16.79
516.481	16.92
516.682	16.96
516.882	16.86
517.083	16.95
517.284	16.81
517.485	16.81
517.686	16.8
517.886	16.81
518.087	16.92
518.288	17.2
518.488	17.19
518.689	17.21
518.89	17.19
519.091	17.13
519.291	17.12
519.492	17.16
519.692	17.23
519.893	17.51
520.094	17.58
520.294	17.56
520.495	17.59
520.695	17.72
520.896	17.66
521.096	17.74
521.297	17.93
521.497	18.02
521.698	17.91
521.898	17.9
522.099	17.95
522.299	17.95
522.499	17.98
522.7	18.11
522.9	18.15
523.101	18.24
523.301	18.26
523.501	18.25
523.702	18.27
523.902	18.42
524.102	18.47
524.302	18.51
524.503	18.65
524.703	18.69
524.903	18.72
525.103	18.69
525.304	18.78
525.504	18.92
525.704	19.02
525.904	19.05
526.104	19.11
526.304	19.23
526.504	19.21
526.705	19.23
526.905	19.37
527.105	19.43
527.305	19.35
527.505	19.28
527.705	19.28
527.905	19.27
528.105	19.28
528.305	19.24
528.505	19.4
528.705	19.56
528.905	19.49
529.105	19.56
529.304	19.76
529.504	19.91
529.704	19.85
529.904	19.91
530.104	19.97
530.304	20.15
530.503	20.03
530.703	20
530.903	20.05
531.103	20.14
531.303	19.95
531.502	20.04
531.702	20.21
531.902	20.32
532.101	20.24
532.301	20.27
532.501	20.36
532.7	20.47
532.9	20.47
533.1	20.62
533.299	20.64
533.499	20.72
533.698	20.62
533.898	20.76
534.097	20.82
534.297	21.03
534.496	21.06
534.696	21.19
534.895	21.3
535.095	21.33
535.294	21.34
535.494	21.26
535.693	21.27
535.892	21.32
536.092	21.29
536.291	21.32
536.491	21.43
536.69	21.59
536.889	21.4
537.088	21.45
537.288	21.6
537.487	21.78
537.686	21.72
537.886	21.96
538.085	22.06
538.284	22.1
538.483	22.07
538.682	22.26
538.882	22.33
539.081	22.49
539.28	22.48
539.479	22.51
539.678	22.53
539.877	22.69
540.076	22.67
540.275	22.76
540.474	22.88
540.673	22.95
540.872	23.02
541.071	23.09
541.27	23.1
541.469	23.24
541.668	23.28
541.867	23.29
542.066	23.41
542.265	23.65
542.464	23.72
542.663	23.9
542.862	24.17
543.06	24.29
543.259	24.33
543.458	24.4
543.657	24.36
543.856	24.25
544.054	24.29
544.253	24.22
544.452	24.15
544.651	24.28
544.849	24.31
545.048	24.4
545.247	24.54
545.445	24.76
545.644	24.85
545.843	24.91
546.041	25.04
546.24	25.28
546.438	25.34
546.637	25.41
546.836	25.68
547.034	25.83
547.233	25.87
547.431	25.96
547.63	26.13
547.828	26.12
548.027	26.16
548.225	26.12
548.423	26.35
548.622	26.47
548.82	26.48
549.019	26.57
549.217	26.89
549.415	26.93
549.614	26.97
549.812	27.16
550.01	27.24
550.209	27.3
550.407	27.36
550.605	27.48
550.803	27.68
551.002	27.75
551.2	27.79
551.398	27.97
551.596	28.16
551.794	28.3
551.993	28.55
552.191	28.62
552.389	28.73
552.587	28.85
552.785	28.98
552.983	29.09
553.181	29.35
553.379	29.48
553.577	29.53
553.775	29.66
553.973	29.7
554.171	29.92
554.369	30
554.567	30.03
554.765	30
554.963	30.21
555.161	30.04
555.359	30.25
555.557	30.62
555.755	30.91
555.952	31.12
556.15	31.39
556.348	31.43
556.546	31.53
556.744	31.6
556.941	31.67
557.139	31.78
557.337	32.02
557.535	32.02
557.732	32.21
557.93	32.44
558.128	32.65
558.325	32.75
558.523	32.9
558.721	33.11
558.918	33.06
559.116	33.08
559.313	33.07
559.511	33.34
559.708	33.32
559.906	33.53
560.104	33.71
560.301	34.16
560.498	34.21
560.696	34.38
560.893	34.54
561.091	34.78
561.288	34.8
561.486	34.99
561.683	35.15
561.88	35.34
562.078	35.43
562.275	35.47
562.473	35.66
562.67	35.93
562.867	36.07
563.064	36.22
563.262	36.35
563.459	36.53
563.656	36.72
563.853	36.82
564.051	36.88
564.248	37.2
564.445	37.35
564.642	37.45
564.839	37.68
565.036	38.04
565.234	38.2
565.431	38.28
565.628	38.33
565.825	38.42
566.022	38.56
566.219	38.54
566.416	38.63
566.613	38.7
566.81	38.82
567.007	38.82
567.204	38.85
567.401	38.91
567.598	38.97
567.795	38.98
567.991	39.04
568.188	39.34
568.385	39.54
568.582	39.76
568.779	39.86
568.976	40.05
569.172	40.29
569.369	40.32
569.566	40.37
569.763	40.62
569.96	40.66
570.156	40.42
570.353	40.45
570.55	40.55
570.746	40.68
570.943	40.62
571.14	40.79
571.336	40.84
571.533	40.9
571.729	40.78
571.926	40.88
572.123	40.86
572.319	40.96
572.516	40.93
572.712	41.01
572.909	41.15
573.105	41.25
573.302	41.35
573.498	41.5
573.695	41.48
573.891	41.55
574.087	41.57
574.284	41.48
574.48	41.22
574.677	41.26
574.873	41.19
575.069	41.29
575.266	41.41
575.462	41.5
575.658	41.65
575.854	41.86
576.051	41.92
576.247	41.92
576.443	42.11
576.639	42.08
576.835	41.85
577.032	41.77
577.228	41.83
577.424	41.73
577.62	41.54
577.816	41.61
578.012	41.57
578.208	41.47
578.404	41.6
578.6	41.71
578.796	41.75
578.993	41.7
579.189	41.63
579.384	41.52
579.58	41.45
579.776	41.41
579.972	41.24
580.168	41.18
580.364	41.18
580.56	41.29
580.756	41.19
580.952	41.14
581.148	41.04
581.343	40.98
581.539	40.83
581.735	40.85
581.931	41.08
582.127	41.26
582.322	41.11
582.518	41.25
582.714	41.22
582.909	40.99
583.105	40.75
583.301	40.71
583.496	40.63
583.692	40.46
583.888	40.5
584.083	40.57
584.279	40.73
584.474	40.66
584.67	40.76
584.866	40.77
585.061	40.68
585.257	40.65
585.452	40.42
585.648	40.25
585.843	40.21
586.039	40.2
586.234	40.11
586.429	40.11
586.625	40.31
586.82	40.24
587.015	40.23
587.211	40
587.406	40.14
587.601	39.91
587.797	39.76
587.992	39.71
588.187	39.95
588.383	39.89
588.578	39.92
588.773	40.03
588.968	40.15
589.163	39.98
589.359	39.9
589.554	39.87
589.749	40
589.944	40.01
590.139	40.11
590.334	40.07
590.529	40.18
590.724	40.14
590.919	40.13
591.114	40.12
591.309	40.3
591.504	40.35
591.699	40.09
591.894	40.06
592.089	39.91
592.284	39.79
592.479	39.71
592.674	39.88
592.869	39.96
593.064	40.11
593.259	40.16
593.454	40.31
593.648	40.36
593.843	40.41
594.038	40.5
594.233	40.52
594.428	40.48
594.622	40.55
594.817	40.6
595.012	40.58
595.206	40.72
595.401	40.87
595.596	40.85
595.79	40.86
595.985	41.07
596.18	41.15
596.374	41.23
596.569	41.27
596.763	41.15
596.958	40.99
597.153	40.93
597.347	40.76
597.542	41.06
597.736	41.18
597.931	41.32
598.125	41.43
598.319	41.64
598.514	41.56
598.708	41.69
598.903	41.67
599.097	41.77
599.291	41.7
599.486	41.65
599.68	41.57
599.874	41.75
600.069	41.61
600.263	41.61
600.457	41.69
600.651	41.88
600.846	41.76
601.04	41.97
601.234	41.89
601.428	42
601.622	42.09
601.817	42.34
602.011	42.36
602.205	42.52
602.399	42.37
602.593	42.16
602.787	41.98
602.981	41.89
603.175	41.92
603.369	41.88
603.563	41.94
603.757	42.11
603.951	42.19
604.145	42.22
604.339	42.36
604.533	42.35
604.727	42.13
604.921	41.97
605.115	41.82
605.309	41.77
605.502	41.65
605.696	41.53
605.89	41.5
606.084	41.52
606.278	41.38
606.471	41.32
606.665	41.28
606.859	41.23
607.053	41
607.246	40.98
607.44	40.95
607.634	40.98
607.827	41.03
608.021	40.98
608.214	40.91
608.408	40.89
608.602	40.8
608.795	40.55
608.989	40.57
609.182	40.43
609.376	40.25
609.569	40.15
609.763	40.1
609.956	40.03
610.15	39.99
610.343	39.92
610.537	39.84
610.73	39.87
610.923	39.67
611.117	39.53
611.31	39.45
611.504	39.45
611.697	39.27
611.89	39.27
612.083	39.18
612.277	39.15
612.47	38.98
612.663	38.8
612.856	38.65
613.05	38.61
613.243	38.46
613.436	38.21
613.629	38.18
613.822	38.12
614.015	37.92
614.209	37.79
614.402	37.77
614.595	37.77
614.788	37.64
614.981	37.63
615.174	37.56
615.367	37.52
615.56	37.22
615.753	37.2
615.946	37.07
616.139	37.1
616.332	37.22
616.525	37.16
616.718	37.16
616.911	37.06
617.103	37.02
617.296	36.86
617.489	36.88
617.682	36.77
617.875	36.83
618.067	36.83
618.26	36.46
618.453	36.52
618.646	36.46
618.838	36.43
619.031	36.24
619.224	36.41
619.417	36.25
619.609	36.24
619.802	36.11
619.994	36.24
620.187	36.17
620.38	36.05
620.572	35.84
620.765	35.81
620.957	35.53
621.15	35.41
621.342	35.36
621.535	35.57
621.727	35.48
621.92	35.4
622.112	35.38
622.305	35.41
622.497	35.14
622.69	35.14
622.882	35.17
623.074	35.24
623.267	35.21
623.459	35.14
623.651	35.09
623.844	35.04
624.036	35.01
624.228	34.86
624.42	34.87
624.613	34.93
624.805	34.87
624.997	34.68
625.189	34.67
625.381	34.76
625.574	34.63
625.766	34.48
625.958	34.53
626.15	34.7
626.342	34.51
626.534	34.46
626.726	34.46
626.918	34.49
627.11	34.31
627.302	34.21
627.494	34.12
627.686	34.07
627.878	33.92
628.07	33.78
628.262	33.75
628.454	33.76
628.646	33.73
628.838	33.83
629.029	33.68
629.221	33.63
629.413	33.46
629.605	33.3
629.797	33.08
629.989	33.22
630.18	33.11
630.372	33.08
630.564	33.08
630.755	33.11
630.947	32.99
631.139	32.82
631.33	32.76
631.522	32.86
631.714	32.75
631.905	32.67
632.097	32.78
632.289	32.71
632.48	32.57
632.672	32.37
632.863	32.03
633.055	32.01
633.246	31.96
633.438	31.84
633.629	31.73
633.821	31.88
634.012	31.83
634.203	31.72
634.395	31.68
634.586	31.82
634.777	31.78
634.969	31.57
635.16	31.52
635.351	31.5
635.543	31.41
635.734	31.26
635.925	31.24
636.117	31.28
636.308	30.99
636.499	30.79
636.69	30.68
636.881	30.67
637.073	30.62
637.264	30.65
637.455	30.64
637.646	30.71
637.837	30.68
638.028	30.44
638.219	30.43
638.41	30.3
638.601	30.05
638.792	29.95
638.983	29.86
639.174	29.65
639.365	29.62
639.556	29.74
639.747	29.63
639.938	29.65
640.129	29.7
640.32	29.53
640.511	29.33
640.701	29.23
640.892	29.2
641.083	29.15
641.274	29.2
641.465	29.24
641.655	29.17
641.846	29.03
642.037	28.92
642.228	28.87
642.418	28.81
642.609	28.57
642.8	28.53
642.99	28.32
643.181	28.32
643.372	28.23
643.562	28.28
643.753	28.16
643.943	28.07
644.134	27.77
644.324	27.62
644.515	27.49
644.705	27.55
644.896	27.61
645.086	27.69
645.277	27.61
645.467	27.49
645.658	27.15
645.848	27.07
646.038	26.94
646.229	26.79
646.419	26.65
646.61	26.67
646.8	26.48
646.99	26.49
647.18	26.5
647.371	26.65
647.561	26.4
647.751	26.36
647.941	26.17
648.132	26.04
648.322	25.94
648.512	26.12
648.702	26.02
648.892	25.98
649.082	25.96
649.272	25.66
649.462	25.46
649.653	25.41
649.843	25.29
650.033	25.3
650.223	25.36
650.413	25.33
650.603	25.41
650.793	25.31
650.983	25.12
651.172	24.96
651.362	24.88
651.552	24.62
651.742	24.32
651.932	24.27
652.122	24.22
652.312	24.16
652.502	24.22
652.691	24.48
652.881	24.42
653.071	24.44
653.261	24.2
653.45	24.04
653.64	23.92
653.83	23.86
654.019	23.74
654.209	23.89
654.399	23.93
654.588	23.84
654.778	23.76
654.968	23.66
655.157	23.68
655.347	23.48
655.536	23.25
655.726	23.15
655.915	23.03
656.105	22.73
656.294	22.52
656.484	22.36
656.673	22.14
656.863	22.11
657.052	21.85
657.241	21.75
657.431	21.54
657.62	21.24
657.809	20.79
657.999	20.54
658.188	20.21
658.377	20.09
658.567	19.99
658.756	19.95
658.945	19.76
659.134	19.63
659.324	19.49
659.513	19.41
659.702	19.05
659.891	18.99
660.08	18.76
660.269	18.54
660.458	18.31
660.648	18.32
660.837	18
661.026	17.87
661.215	17.64
661.404	17.25
661.593	17.13
661.782	16.86
661.971	16.68
662.16	16.59
662.349	16.62
662.538	16.24
662.726	16.43
662.915	16.22
663.104	15.89
663.293	15.64
663.482	15.69
663.671	15.26
663.86	14.99
664.048	14.75
664.237	14.68
664.426	14.17
664.615	14.11
664.803	14.17
664.992	14.2
665.181	13.94
665.369	13.8
665.558	13.63
665.747	13.31
665.935	13.28
666.124	13.24
666.312	13.42
666.501	13.24
666.69	13.18
666.878	12.99
667.067	12.74
667.255	12.58
667.444	12.82
667.632	12.71
667.82	12.76
668.009	12.67
668.197	12.61
668.386	12.33
668.574	12.53
668.762	12.38
668.951	12.35
669.139	12.18
669.327	12
669.516	11.9
669.704	11.84
669.892	11.98
670.08	12.08
670.269	11.99
670.457	11.88
670.645	11.69
670.833	11.63
671.021	11.52
671.21	11.58
671.398	11.66
671.586	11.66
671.774	11.65
671.962	11.6
672.15	11.51
672.338	11.28
672.526	11.42
672.714	11.18
672.902	11.13
673.09	11.34
673.278	11.58
673.466	11.54
673.654	11.89
673.842	11.84
674.03	11.91
674.218	11.81
674.405	11.77
674.593	11.72
674.781	12.04
674.969	11.95
675.157	12.13
675.344	12.26
675.532	12.15
675.72	12.18
675.908	12.33
676.095	12.03
676.283	12.16
676.471	12.44
676.658	12.5
676.846	12.45
677.033	12.79
677.221	12.74
677.409	12.62
677.596	12.63
677.784	12.75
677.971	12.89
678.159	13.05
678.346	13.25
678.534	13.28
678.721	13.59
678.909	13.57
679.096	13.64
679.283	13.88
679.471	14.02
679.658	14.14
679.846	14.46
680.033	14.81
680.22	14.76
680.408	15.04
680.595	15.26
680.782	15.2
680.969	15.26
681.157	15.26
681.344	15.38
681.531	15.37
681.718	15.54
681.905	15.82
682.093	16.2
682.28	16.57
682.467	16.93
682.654	17.26
682.841	17.37
683.028	17.89
683.215	18.15
683.402	18.24
683.589	18.73
683.776	18.99
683.963	19.06
684.15	19.37
684.337	19.6
684.524	19.71
684.711	20.16
684.898	20.47
685.085	20.78
685.271	21.5
685.458	22.17
685.645	22.46
685.832	23.07
686.019	23.4
686.205	23.72
686.392	23.88
686.579	24.45
686.766	24.94
686.952	25.54
687.139	26.27
687.326	26.61
687.512	27.39
687.699	27.93
687.886	28.44
688.072	28.58
688.259	29.39
688.445	29.86
688.632	30.13
688.818	31.04
689.005	31.79
689.191	32.62
689.378	33.39
689.564	34.48
689.751	34.8
689.937	35.69
690.124	36.26
690.31	36.78
690.496	37.23
690.683	38.3
690.869	39.06
691.055	39.8
691.242	40.67
691.428	41.54
691.614	42.1
691.8	42.68
691.987	43.28
692.173	44.04
692.359	44.81
692.545	45.72
692.731	46.15
692.918	46.92
693.104	47.4
693.29	48.3
693.476	49.04
693.662	50.35
693.848	51.11
694.034	51.95
694.22	52.36
694.406	53.1
694.592	53.66
694.778	54.36
694.964	54.91
695.15	55.77
695.336	56.29
695.522	57.15
695.708	57.92
695.894	58.57
696.08	59.1
696.265	59.55
696.451	60.15
696.637	60.8
696.823	61.54
697.009	62.4
697.194	63.21
697.38	63.62
697.566	63.94
697.751	64.33
697.937	64.63
698.123	65.01
698.308	65.98
698.494	66.56
698.68	67.18
698.865	67.62
699.051	68.47
699.236	68.63
699.422	69.09
699.607	69.26
699.793	69.69
699.978	69.69
700.164	69.55
700.349	70.61
700.535	71.55
700.72	72.08
700.906	72.99
701.091	73.76
701.276	73.72
701.462	74.72
701.647	75.34
701.832	75.64
702.018	76.04
702.203	76.68
702.388	76.2
702.573	76.49
702.759	76.89
702.944	77.06
703.129	76.96
703.314	77.52
703.499	77.84
703.684	78.36
703.87	79.19
704.055	80.14
704.24	80.47
704.425	80.87
704.61	80.69
704.795	80.63
704.98	80.21
705.165	80.44
705.35	80.59
705.535	80.66
705.72	81.44
705.905	82.25
706.09	82.69
706.275	82.96
706.459	83.32
706.644	83.1
706.829	83.45
707.014	83.19
707.199	83.62
707.384	84.36
707.568	84.6
707.753	85.16
707.938	85.58
708.123	85.34
708.307	85.15
708.492	85.07
708.677	83.74
708.861	83.61
709.046	83.31
709.231	83.74
709.415	84.08
709.6	85.35
709.784	85.18
709.969	86.24
710.153	85.82
710.338	86.03
710.522	85.5
710.707	86.39
710.891	86.03
711.076	86.77
711.26	85.97
711.445	86.17
711.629	86.08
711.813	86.53
711.998	86.5
712.182	86.97
712.366	87.81
712.551	88.46
712.735	87.79
712.919	87.72
713.103	88.15
713.288	87.6
713.472	87.02
713.656	87.72
713.84	87.81
714.024	87.84
714.208	87.85
714.393	88.33
714.577	88.47
714.761	88.46
714.945	88.91
715.129	88.48
715.313	88.13
715.497	87.94
715.681	88.61
715.865	88.85
716.049	89.72
716.233	90.02
716.417	90.41
716.601	90.24
716.785	89.68
716.968	89.94
717.152	90.04
717.336	89.54
717.52	88.67
717.704	89.26
717.888	89.91
718.071	89.54
718.255	90.2
718.439	90.51
718.622	90.81
718.806	89.92
718.99	89.6
719.174	89.56
719.357	89.98
719.541	89.1
719.724	89.28
719.908	90.69
720.092	91.18
720.275	91.31
720.459	92.53
720.642	92.05
720.826	91.35
721.009	90.55
721.193	89.33
721.376	88.91
721.559	90.3
721.743	90.7
721.926	90.92
722.11	91.76
722.293	91.3
722.476	89.29
722.66	89.03
722.843	89.07
723.026	88.51
723.21	88.81
723.393	90.93
723.576	91.2
723.759	90.44
723.942	91.4
724.126	90.88
724.309	90.46
724.492	90.18
724.675	91.36
724.858	91.85
725.041	93.51
725.224	92.97
725.407	92.56
725.59	92
725.774	91.12
725.957	89.23
726.14	89
726.322	89.87
726.505	89.95
726.688	90.66
726.871	90.77
727.054	91.88
727.237	91.4
727.42	92.05
727.603	92.48
727.786	93.09
727.968	92.83
728.151	92.62
728.334	92.11
728.517	91.54
728.699	91.55
728.882	90.5
729.065	91.07
729.248	91.4
729.43	91.8
729.613	93.24
729.796	93.92
729.978	93.02
730.161	92.49
730.343	92.92
730.526	92.03
730.708	92
730.891	93.2
731.073	93.03
731.256	91.62
731.438	91.79
731.621	92
731.803	92.01
731.986	92.89
732.168	92.68
732.35	92.52
732.533	92.44
732.715	91.72
732.898	92.42
733.08	93.12
733.262	92.67
733.444	91.79
733.627	91.6
733.809	91.66
733.991	92.9
734.173	93.14
734.355	94.33
734.538	94.86
734.72	93.22
734.902	92.71
735.084	91.6
735.266	91.79
735.448	91.73
735.63	91.54
735.812	91.42
735.994	93.76
736.176	93.43
736.358	93.9
736.54	95.38
736.722	95.12
736.904	93.99
737.086	92.93
737.268	94.64
737.45	94.42
737.632	93.95
737.814	92.9
737.995	94.34
738.177	92.98
738.359	92.24
738.541	92.58
738.723	93.46
738.904	93.41
739.086	92.77
739.268	93.56
739.449	93.09
739.631	93.47
739.813	93.47
739.994	93.62
740.176	93.25
740.358	93.88
740.539	95.31
740.721	94.64
740.902	95.98
741.084	95.73
741.265	94.92
741.447	94.17
741.628	95.18
741.81	92.31
741.991	93.48
742.172	95.32
742.354	95.36
742.535	94.68
742.717	96.92
742.898	95.18
743.079	95.19
743.261	95.52
743.442	94.6
743.623	94.14
743.804	95.48
743.986	95.73
744.167	93.35
744.348	95.67
744.529	96.82
744.71	95.41
744.891	94.13
745.073	94.61
745.254	93.61
745.435	92.5
745.616	91.77
745.797	91.07
745.978	91.44
746.159	90.75
746.34	89.57
746.521	91.59
746.702	91.89
746.883	91.72
747.064	89.97
747.245	90.48
747.426	90.22
747.606	90.69
747.787	91.27
747.968	92.81
748.149	94.24
748.33	94.51
748.51	93.12
748.691	91.23
748.872	92.22
749.053	91
749.233	90.23
749.414	91.01
749.595	92.09
749.775	89.74
749.956	88.3
750.137	86.86
750.317	87.16
750.498	88.51
750.678	89.05
750.859	90.27
751.04	91.9
751.22	91.17
751.4	89.36
751.581	89.49
751.761	90.41
751.942	91.49
752.122	92.66
752.303	91.89
752.483	92.14
752.663	92.26
752.844	91.9
753.024	92.7
753.204	94.12
753.385	94.07
753.565	90.69
753.745	90.73
753.925	90.08
754.106	90.92
754.286	91.31
754.466	92.89
754.646	93.42
754.826	92.12
755.006	88.92
755.187	89.77
755.367	90.78
755.547	90.59
755.727	91.32
755.907	90.81
756.087	91.75
756.267	90.32
756.447	89.89
756.627	89.49
756.807	93.35
756.987	92.22
757.167	94.08
757.346	92.43
757.526	89.53
757.706	88.83
757.886	87.28
758.066	87.81
758.246	90.91
758.425	93.33
758.605	91.32
758.785	93.68
758.965	92.68
759.144	87.34
759.324	85.99
759.504	88.11
759.683	85.59
759.863	83.71
760.043	86.38
760.222	88.09
760.402	86.35
760.581	88.09
760.761	91.01
760.94	88.45
761.12	88.55
761.299	91.26
761.479	90.55
761.658	87.76
761.838	88.73
762.017	89.28
762.197	87.17
762.376	87.44
762.555	89.57
762.735	90.9
762.914	87.57
763.093	89.98
763.273	86.82
763.452	86.7
763.631	85.01
763.81	85.46
763.99	83.19
764.169	86.28
764.348	82.94
764.527	83.5
764.706	87.33
764.885	89.43
765.064	87.03
765.243	87.9
765.423	88.19
765.602	87.05
765.781	84.11
765.96	82.78
766.139	83.52
766.318	85.8
766.497	85.51
766.676	86.79
766.854	89.56
767.033	90.42
767.212	87.3
767.391	85.55
767.57	86.67
767.749	88.25
767.928	89.41
768.106	87.5
768.285	86.68
768.464	86.91
768.643	85.91
768.821	84.39
769	88.47
769.179	89.21
769.357	83.57
769.536	80.53
769.715	83.52
769.893	84.03
770.072	83.72
770.25	85.25
770.429	86.86
770.607	83.13
770.786	81.78
770.964	83.21
771.143	86.96
771.321	89.18
771.5	91.3
771.678	89.85
771.857	87.13
772.035	87.32
772.213	85.32
772.392	79.19
772.57	83.26
772.748	86.13
772.927	80.8
773.105	81.75
773.283	87.82
773.461	86.41
773.64	84.35
773.818	84.88
773.996	85.76
774.174	83.87
774.352	80.31
774.531	80.47
774.709	83.8
774.887	82.4
775.065	81.38
775.243	82.02
775.421	84.45
775.599	86.8
775.777	83.28
775.955	80.69
776.133	81.79
776.311	79.66
776.489	74.01
776.667	76.81
776.844	82.36
777.022	78.68
777.2	78.84
777.378	80.29
777.556	81.7
777.734	80.39
777.911	85.2
778.089	85.11
778.267	88.46
778.445	84.58
778.622	82.85
778.8	80.67
778.978	85.38
779.155	81.29
779.333	83.99
779.511	79.31
779.688	81.92
779.866	71.29
780.043	70.19
780.221	70.8
780.398	73.46
780.576	72.24
780.753	78.52
780.931	79.01
781.108	75.27
781.286	79.8
781.463	74.01
781.64	71.78
781.818	77.73
781.995	82.3
782.172	77.89
782.35	82.04
782.527	84.71
782.704	78.86
782.882	77.15
783.059	78.81
783.236	79.85
783.413	79.85
783.59	81.6
783.768	77.97
783.945	78.48
784.122	78
784.299	76.06
784.476	74.62
784.653	78.42
784.83	75.02
785.007	66.61
785.184	69
785.361	71.24
785.538	75.2
785.715	78.66
785.892	88.32
786.069	89.34
786.246	88.94
786.423	82.92
786.6	82.08
786.776	84.57
786.953	83.3
787.13	83.73
787.307	83.86
787.484	84.85
787.66	79.06
787.837	74.95
788.014	73.8
788.191	73.36
788.367	71.25
788.544	76.56
788.721	78.06
788.897	77.3
789.074	80.69
789.25	78.58
789.427	75.95
789.603	73.28
789.78	76.03
789.956	64.1
790.133	63.61
790.309	59.79
790.486	66.8
790.662	64.15
790.839	69.36
791.015	77.2
791.192	72.36
791.368	71.54
791.544	67.52
791.721	74.78
791.897	67.57
792.073	71.24
792.249	64.95
792.426	69.26
792.602	69.39
792.778	65.39
792.954	65.04
793.13	63.14
793.307	59.95
793.483	49.53
793.659	53.55
793.835	57.15
794.011	62.32
794.187	56.99
794.363	55.99
794.539	62.36
794.715	56.51
794.891	54.13
795.067	56.85
795.243	70.3
795.419	67.71
795.595	70.03
795.771	73.14
795.947	79.08
796.122	64.96
796.298	63.67
796.474	67.54
796.65	65.94
796.826	62.74
797.001	70.06
797.177	63.27
797.353	67.84
797.529	69.54
797.704	63.97
797.88	61.38
798.056	59.97
798.231	52.96
798.407	55.43
798.582	61.64
798.758	67.03
798.934	80.78
799.109	79.81
799.285	71.87
799.46	79.91
799.636	77.2
799.811	74.56
799.986	81.6
800.162	92.98
800.337	83.15
800.513	80.66
800.688	72.98
800.863	74.7
801.039	63.34
801.214	58.22
801.389	58.36
801.565	63.05
801.74	51.85
801.915	54.46
802.09	62.61
802.265	69.08
802.441	66.25
802.616	66.56
802.791	65.76
802.966	64.74
803.141	63.75
803.316	48.46
803.491	55.67
803.666	62.6
803.841	61.08
804.016	56.51
804.191	73.38
804.366	67.02
804.541	65.05
804.716	52.02
804.891	43.86
805.066	45.34
805.241	52.36
805.416	51.01
805.591	54.57
805.765	61.51
805.94	64.09
806.115	59.92
806.29	54.53
806.464	67.62
806.639	62.55
806.814	45.75
806.989	31.95
807.163	43.36
807.338	33.18
807.512	36.07
807.687	31.94
807.862	51.71
808.036	51.44
808.211	57.42
808.385	63.85
808.56	80.01
808.734	78.68
808.909	77.52
809.083	71
809.258	79.26
809.432	81.68
809.606	51.71
809.781	52.09
809.955	68.59
810.13	63.55
810.304	50.06
810.478	58.95
810.652	67.27
810.827	66.14
811.001	61.1
811.175	59.01
811.349	69.93
811.524	56.3
811.698	30.76
811.872	33.2
812.046	45.05
812.22	46.32
812.394	43.18
812.568	53.01
812.742	55.17
812.916	44.58
813.09	35.69
813.264	41.66
813.438	49.65
813.612	41.54
813.786	26.76
813.96	40.72
814.134	45.99
814.308	54.77
814.482	61.48
814.656	77.33
814.83	85.48
815.003	83.51
815.177	68.42
815.351	60.56
815.525	78.09
815.698	65.4
815.872	43.55
816.046	38.93
816.219	45.08
816.393	46.44
816.567	51.25
816.74	54.63
816.914	72.7
817.088	74.88
817.261	61.9
817.435	47.73
817.608	51.3
817.782	38.7
817.955	35.33
818.129	20.08
818.302	29.63
818.475	57.18
818.649	57.71
818.822	40.83
818.996	64.31
819.169	66.33
819.342	40.89
819.516	48.55
819.689	69.92
819.862	58.96
820.035	44
820.209	38.01
820.382	41.18
820.555	46.11
820.728	35.9
820.901	29.35
821.075	41.46
821.248	57.76
821.421	41.98
821.594	30.99
821.767	66.07
821.94	95.85
822.113	39.33
822.286	39.54
822.459	81.1
822.632	66.44
822.805	40.72
822.978	55.49
823.151	58.5
823.324	14.55
823.496	-41.37
823.669	-22.17
823.842	-3.36
824.015	-18.76
824.188	-16.13
824.361	1.09
824.533	-24.54
824.706	-1.53
824.879	7.72
825.051	58.69
825.224	71
825.397	76.4
825.569	46.58
825.742	57.02
825.915	56.24
826.087	43.33
826.26	31.79
826.432	36.82
826.605	40.37
826.777	33.35
826.95	34.74
827.122	45.09
827.295	51.2
827.467	41.55
827.64	2.63
827.812	-2.62
827.984	1.38
828.157	-7.49
828.329	-24.07
828.501	-15.06
828.674	1.37
828.846	-7.11
829.018	5.94
829.19	10.98
829.363	35.43
829.535	38.42
829.707	47.03
829.879	11.53
830.051	3.87
830.223	5.83
830.395	-27.65
830.568	-26.15
830.74	-5.48
830.912	28.77
831.084	5.65
831.256	9.88
831.428	-7.31
831.6	-17.23
831.772	-50.88
831.943	-52.99
832.115	-19.63
832.287	22.3
832.459	10.58
832.631	17.36
832.803	54.33
832.975	48.06
833.146	31.64
833.318	39.41
833.49	46.09
833.662	32.96
833.833	5.82
834.005	8.65
834.177	34.93
834.348	23.54
834.52	-14.4
834.692	3.23
834.863	-22.14
835.035	-42.78
835.206	-32.64
835.378	0.64
835.549	-12.96
835.721	14.88
835.892	-1.7
836.064	5.06
836.235	12.93
836.407	44.24
836.578	12.08
836.749	38.21
836.921	38.57
837.092	19.9
837.264	-43.95
837.435	-59.83
837.606	-33.39
837.777	7.74
837.949	31.53
838.12	23.43
838.291	43.05
838.462	45.47
838.633	8.45
838.805	-25.83
838.976	4.08
839.147	2.46
839.318	-63.76
839.489	-90.8
839.66	-57.33
839.831	-28.4
840.002	-36.14
840.173	-26.09
840.344	-5.35
840.515	8.9
840.686	-55.82
840.857	-65.7
841.028	-58.82
841.199	-36.09
841.369	-74.35
841.54	-83.53
841.711	-29.29
841.882	-22.44
842.053	-57.18
842.223	-95.2
842.394	-49.6
842.565	-50.57
842.736	-25.88
842.906	-14.96
843.077	30.16
843.248	45.81
843.418	26.26
843.589	1.35
843.759	50.45
843.93	55.22
844.101	39.13
844.271	50.74
844.442	94.13
844.612	96.33
844.783	55.84
844.953	12.27
845.123	34.14
845.294	13.14
845.464	-30.48
845.635	-3.39
845.805	34.86
845.975	26.41
846.146	-16.67
846.316	-30.77
846.486	-19.12
846.656	-19.54
846.827	-57.51
846.997	-34.19
847.167	3.41
847.337	-30.03
847.507	-24.01
847.677	-21.49
847.848	-1.01
848.018	1.4
848.188	18.79
848.358	5.67
848.528	19.65
848.698	4.52
848.868	-35.68
849.038	-60.53
849.208	-36
849.378	-24.23
849.548	-59.77
849.718	-26.6
849.887	52.09
850.057	-36.24
850.227	-67.12
850.397	-52.7
850.567	-63.35
850.737	-60.71
850.906	-82.95
851.076	-123.22
851.246	-117.9
851.415	-75.42
851.585	-66.17
851.755	-44.34
851.924	23.2
852.094	27.55
852.264	6.09
852.433	-42.77
852.603	-22.42
852.772	-32.89
852.942	-56.4
853.111	-75.95
853.281	8.5
853.45	20.55
853.62	-17.55
853.789	-77.59
853.959	-3.27
854.128	-63.86
854.297	-135.68
854.467	-155.41
854.636	-70.05
854.805	-57.58
854.975	-62.37
855.144	-25.92
855.313	55.83
855.482	17.31
855.652	-61.39
855.821	-45.93
855.99	-15.55
856.159	-11.04
856.328	-23.74
856.497	-17.37
856.667	-5.45
856.836	-32.22
857.005	-143.6
857.174	-215.27
857.343	-247.16
857.512	-159.19
857.681	-240.71
857.85	-172.72
858.019	-121.59
858.188	-103.83
858.356	-152.85
858.525	-139.72
858.694	-139.44
858.863	-123.46
859.032	-140.2
859.201	-131.66
859.369	-94.87
859.538	-53.16
859.707	-99.81
859.876	-102.27
860.044	-59.78
860.213	-23.45
860.382	-53.96
860.55	-24.48
860.719	39.77
860.888	38.84
861.056	-52.82
861.225	-86.59
861.393	11.17
861.562	47.5
861.73	8.41
861.899	40.83
862.067	9.49
862.236	2.79
862.404	-91.05
862.572	-122.94
862.741	-70.28
862.909	-60.47
863.078	-88.99
863.246	-86.08
863.414	-63.94
863.582	-129.47
863.751	-116.14
863.919	-133.11
864.087	-32.73
864.255	-24.79
864.424	-74.74
864.592	-26.3
864.76	30.26
864.928	52.3
865.096	13.76
865.264	15.48
865.432	-1.25
865.6	14.46
865.768	-136.3
865.936	-205.84
866.104	-126.53
866.272	-151.07
866.44	-198.12
866.608	-159.02
866.776	-228.68
866.944	-359.64
867.112	-485.49
867.28	-724.48
867.448	-1307
867.615	-394.56
867.783	-70.28
867.951	-92.39
868.119	44.38
868.286	-5.37
868.454	-58.97
868.622	-152.48
868.789	-154.8
868.957	-91.35
869.125	-107.02
869.292	-103.85
869.46	-62.8
869.627	-13.97
869.795	-95
869.963	-84.85
870.13	-21.97
870.298	6.06
870.465	-78.78
870.632	-85.59
870.8	-103.24
870.967	-123.96
871.135	-305.75
871.302	-186.13
871.469	-123.09
871.637	-30.18
871.804	-32.84
871.971	-37.74
872.139	-31.78
872.306	6.87
872.473	-37.05
872.64	-93.44
872.807	1.9
872.975	27.26
873.142	-53.92
873.309	-51.37
873.476	79.5
873.643	72.77
873.81	9.46
873.977	13.9
874.144	28.7
874.311	1.22
874.478	-106.78
874.645	-161.86
874.812	-520.95
874.979	27966.67
875.146	-841.64
875.313	-235.42
875.48	-52.88
875.647	-24.46
875.813	-76.11
875.98	-100.05
876.147	-149.05
876.314	-173.94
876.481	-253.06
876.647	-293.05
876.814	-139.59
876.981	-92.62
877.147	-183.65
877.314	-126.01
877.481	2.28
877.647	56.89
877.814	-57.35
877.98	-101.51
878.147	-1.17
878.314	45.6
878.48	-100.97
878.647	-99.67
878.813	41.32
878.979	40.48
879.146	-19.37
879.312	10.28
879.479	38.34
879.645	-11.23
879.811	-105.17
879.978	-114.67
880.144	-105.05
880.31	-135.33
880.477	-223.32
880.643	-211.84
880.809	-145.72
880.975	-59.63
881.142	-117.19
881.308	-89.19
881.474	-42.73
881.64	-16.55
881.806	-98.99
881.972	-38.54
882.138	8.9
882.304	47.16
882.47	-74.07
882.636	-115.82
882.802	-133.05
882.968	-94.41
883.134	-244.73
883.3	-275.32
883.466	-7.32
883.632	32.37
883.798	-76.61
883.964	-56.59
884.129	-62.31
884.295	-112.82
884.461	-160.09
884.627	-221.09
884.793	-155.44
884.958	-62.53
885.124	-117.53
885.29	-130.28
885.455	-32.79
885.621	-55.94
885.787	-345.78
885.952	-169.16
886.118	-132.56
886.283	-174.4
886.449	-207.77
886.614	-105.07
886.78	-100.06
886.945	-30.43
887.111	-194.35
887.276	-155.63
887.442	-400.47
887.607	-221.43
887.773	-400.32
887.938	-323.86
888.103	-199.08
888.269	-94.06
888.434	-77.6
888.599	-74.23
888.764	18.08
888.93	17.79
889.095	-5.85
889.26	-55.12
889.425	33.62
889.59	33.18
889.756	-12.78
889.921	-27.13
890.086	-19.63
890.251	-31.09
890.416	-105.31
890.581	-104.72
890.746	-43.96
890.911	2.08
891.076	-72.62
891.241	-108.16
891.406	-77.05
891.571	-38.68
891.736	-58.18
891.901	-82.98
892.065	-30.38
892.23	-10.08
892.395	-137.18
892.56	-254.62
892.725	-93.22
892.889	-56.14
893.054	-225.4
893.219	-184.58
893.384	-137.37
893.548	-225.46
893.713	-308.93
893.878	-237.63
