Data from Ofra_PP_Phys_8HS23B_Reflection_2.txt Node
Date: Sat Jul 24 20:08:16 EDT 2021
User: USUARIO
Spectrometer: FLMT01687
Trigger mode: 0
Integration Time (sec): 1.100000E0
Scans to average: 2
Electric dark correction enabled: true
Nonlinearity correction enabled: false
Boxcar width: 2
XAxis mode: Wavelengths
Number of Pixels in Spectrum: 3648
>>>>>Begin Spectral Data<<<<<
179.494	617.83
179.716	786.49
179.937	1385.7
180.158	1161.01
180.38	561.08
180.601	-710.19
180.823	-3.77
181.044	480.62
181.265	-37.56
181.486	13.27
181.708	86.17
181.929	-794.67
182.15	152.61
182.372	-76.63
182.593	21733.33
182.814	512.82
183.035	181.3
183.257	170.09
183.478	65.13
183.699	123.13
183.92	24.89
184.141	61.05
184.363	-37.72
184.584	34.23
184.805	32.93
185.026	56.32
185.247	48.46
185.468	29.14
185.689	26.94
185.91	18.77
186.132	10.08
186.353	18.78
186.574	51.77
186.795	49.15
187.016	3.08
187.237	18.21
187.458	16.47
187.679	19.52
187.9	57.15
188.121	117.28
188.342	116.52
188.563	111.1
188.784	128.31
189.005	134.75
189.226	121.18
189.447	124
189.667	96.68
189.888	41.05
190.109	6.16
190.33	-23.6
190.551	-49.37
190.772	-44.93
190.993	-43.36
191.214	-24.9
191.434	-27.11
191.655	20.65
191.876	4.23
192.097	1.57
192.318	7.81
192.538	-20.59
192.759	-37.72
192.98	-37.27
193.201	-32.7
193.421	-57.31
193.642	0.69
193.863	17.57
194.083	13.62
194.304	28.66
194.525	51.61
194.745	53.26
194.966	-21.38
195.187	-30.89
195.407	-95.58
195.628	-129.92
195.848	-102.8
196.069	-95.15
196.29	-87.1
196.51	-105.92
196.731	-123.89
196.951	-113.81
197.172	-60.03
197.392	-63.69
197.613	-24.38
197.833	-18.2
198.054	-47.14
198.274	-43.15
198.495	-96.71
198.715	-63.89
198.936	-87.97
199.156	-53.12
199.377	-64.57
199.597	-37.03
199.817	-37.01
200.038	27.3
200.258	58.83
200.479	67.81
200.699	70.08
200.919	50.48
201.14	-4.98
201.36	-35.23
201.58	-46.42
201.801	-41.54
202.021	-56.87
202.241	-18.07
202.461	-16.6
202.682	-30.47
202.902	-11.39
203.122	-11.92
203.342	11.94
203.563	33.71
203.783	65.3
204.003	-15.29
204.223	-72.61
204.443	-6.44
204.663	-33.98
204.884	-54.54
205.104	25.16
205.324	71.26
205.544	39.53
205.764	38.87
205.984	44.01
206.204	53.94
206.424	32.47
206.644	17.47
206.864	32.37
207.084	41.09
207.304	44.19
207.525	10.34
207.745	21.66
207.964	48.59
208.184	13.85
208.404	-11.7
208.624	-5.81
208.844	-0.29
209.064	-39.86
209.284	-21.78
209.504	-8.22
209.724	25.84
209.944	13.18
210.164	30.31
210.384	28.88
210.604	49.46
210.823	-9.64
211.043	-47.12
211.263	-44.4
211.483	-55.07
211.703	-74.9
211.922	-25.51
212.142	45.11
212.362	59.82
212.582	50.56
212.801	53.77
213.021	13.99
213.241	-2.09
213.461	-25.02
213.68	-56.56
213.9	-60.98
214.12	-25.15
214.339	-49.36
214.559	-58.69
214.779	-20.33
214.998	0.07
215.218	-27.07
215.438	-5
215.657	2.74
215.877	19.41
216.096	22.05
216.316	64.21
216.535	43.96
216.755	45.84
216.974	38.96
217.194	31.34
217.413	4.79
217.633	15.18
217.852	-37.28
218.072	-47.88
218.291	-52.4
218.511	-21.44
218.73	-82.44
218.95	-70.09
219.169	-66.99
219.389	-85.62
219.608	-107.89
219.827	-44.58
220.047	-11.89
220.266	-17.82
220.485	-30.95
220.705	3.53
220.924	-25.11
221.143	-9.39
221.363	-45.84
221.582	6.75
221.801	-7.8
222.021	26.06
222.24	23.82
222.459	63.01
222.678	53.65
222.897	36.76
223.117	34.04
223.336	39.06
223.555	40.04
223.774	51.19
223.993	85.54
224.213	101.54
224.432	45.62
224.651	72.7
224.87	56.08
225.089	60.46
225.308	54.96
225.527	85.12
225.746	66.44
225.965	53.5
226.184	34.85
226.404	43.18
226.623	23.57
226.842	33.23
227.061	63.76
227.28	78.32
227.499	69.79
227.718	95.83
227.936	67.73
228.155	48.27
228.374	-0.51
228.593	-4.39
228.812	-15.5
229.031	21.28
229.25	1.78
229.469	45.97
229.688	52.12
229.907	61.9
230.125	72.19
230.344	79.37
230.563	81.43
230.782	87.8
231.001	30.96
231.22	13.43
231.438	19.35
231.657	9.28
231.876	3.58
232.095	43.19
232.313	59.9
232.532	45
232.751	40.7
232.969	40.03
233.188	41.66
233.407	13.78
233.625	1.38
233.844	-10.79
234.063	-24.63
234.281	13.87
234.5	47.18
234.719	61.47
234.937	63.6
235.156	59.96
235.374	41.66
235.593	47.52
235.811	52.85
236.03	77.21
236.249	60.44
236.467	87.74
236.686	69.89
236.904	75.22
237.123	15.66
237.341	37.05
237.559	-12.17
237.778	-19.48
237.996	-43.72
238.215	-25.92
238.433	-35.98
238.652	-6.01
238.87	-65.03
239.088	-49.23
239.307	-8.68
239.525	-3.7
239.743	-45.77
239.962	-2.64
240.18	-16.53
240.398	-51.2
240.617	-49.58
240.835	-7.65
241.053	-27.7
241.271	19.53
241.49	36.13
241.708	12.46
241.926	9.12
242.144	20.26
242.363	-9.01
242.581	-7.09
242.799	15.56
243.017	1.1
243.235	-24.31
243.453	-0.94
243.672	-36.48
243.89	-17.95
244.108	-8.64
244.326	22.53
244.544	24.97
244.762	21.93
244.98	24.49
245.198	36.04
245.416	16.21
245.634	33.95
245.852	57.79
246.07	51.75
246.288	48.72
246.506	46.68
246.724	47.23
246.942	29.45
247.16	37.53
247.378	38.59
247.596	42.83
247.814	38.94
248.032	10.82
248.25	2.41
248.468	10.16
248.685	38.88
248.903	55.76
249.121	80.77
249.339	55.87
249.557	40.05
249.775	1.97
249.992	-87.16
250.21	-98.86
250.428	-40.85
250.646	-40.79
250.863	-31.08
251.081	1.85
251.299	30.84
251.517	8.44
251.734	13.37
251.952	8.81
252.17	19.88
252.387	30.99
252.605	14.18
252.823	19.78
253.04	38.83
253.258	47.54
253.475	40.53
253.693	73.99
253.911	90.97
254.128	74.13
254.346	70.98
254.563	55.16
254.781	35.86
254.998	11.01
255.216	2.58
255.433	-2.21
255.651	13.73
255.868	30.8
256.086	50.32
256.303	49.22
256.521	46.39
256.738	44.46
256.956	21.04
257.173	20.54
257.39	30.01
257.608	26.57
257.825	30.69
258.043	40.4
258.26	35.59
258.477	40.71
258.695	40.77
258.912	8.22
259.129	5.44
259.346	-37.01
259.564	-39.82
259.781	-24.43
259.998	-4.25
260.216	16.42
260.433	55.6
260.65	44.33
260.867	55.6
261.084	35.42
261.302	25.93
261.519	20.21
261.736	5.09
261.953	-7
262.17	16.44
262.387	8.61
262.604	-6.28
262.822	0.19
263.039	-6.19
263.256	-21.98
263.473	0.38
263.69	-26.06
263.907	-0.78
264.124	7.5
264.341	40.01
264.558	14.21
264.775	33.52
264.992	42.13
265.209	47.14
265.426	26.98
265.643	42.91
265.86	38.02
266.077	33.53
266.294	17.76
266.51	18.4
266.727	7.57
266.944	38.9
267.161	19.81
267.378	26.76
267.595	39.1
267.812	13.28
268.028	8.77
268.245	24.75
268.462	2.2
268.679	-21.68
268.896	21.12
269.112	9.14
269.329	4.44
269.546	29.68
269.763	39.06
269.979	32.76
270.196	27.75
270.413	29.9
270.629	8.21
270.846	6.59
271.063	17.14
271.279	-4.8
271.496	-41.22
271.712	-23.47
271.929	-11.05
272.146	0.69
272.362	20.72
272.579	70.54
272.795	68.91
273.012	78.54
273.228	61.29
273.445	47.26
273.661	7.12
273.878	-67.23
274.094	-65
274.311	-89.47
274.527	-59.49
274.744	-40.47
274.96	17.98
275.177	24.61
275.393	30.28
275.609	36.87
275.826	53.65
276.042	44.89
276.259	35.19
276.475	38.99
276.691	38.78
276.908	18.21
277.124	49.52
277.34	54.56
277.557	47.26
277.773	32.81
277.989	31.59
278.205	31.89
278.422	45.09
278.638	65.77
278.854	86.59
279.07	84.14
279.286	41.59
279.503	11.21
279.719	-0.35
279.935	-22.07
280.151	-35.63
280.367	-0.5
280.583	19.93
280.799	22.24
281.016	26.36
281.232	43.39
281.448	47.07
281.664	50.98
281.88	29.34
282.096	34.63
282.312	37.98
282.528	37.07
282.744	40.96
282.96	50.54
283.176	48.46
283.392	35.42
283.608	29.88
283.824	22.67
284.04	26.39
284.256	43.06
284.471	47.59
284.687	57.64
284.903	61.97
285.119	79.41
285.335	46.82
285.551	53.35
285.767	31.18
285.982	-1.23
286.198	-15.39
286.414	2.01
286.63	-1.03
286.846	22.58
287.061	13.44
287.277	15.91
287.493	19.45
287.709	25.09
287.924	15.24
288.14	44.98
288.356	50.91
288.571	55.97
288.787	45.03
289.003	45.8
289.218	32.07
289.434	-3.79
289.65	19.33
289.865	25.42
290.081	32.55
290.296	36.45
290.512	38.24
290.727	25.24
290.943	13.8
291.159	5.52
291.374	10.15
291.59	-8.18
291.805	-16.58
292.021	-6.31
292.236	-9.89
292.451	-8.96
292.667	12.98
292.882	23.96
293.098	42.96
293.313	34.41
293.529	24
293.744	-2.23
293.959	-26.56
294.175	-41.58
294.39	-12.38
294.605	4.53
294.821	32.21
295.036	30.85
295.251	44.89
295.467	32.47
295.682	28.27
295.897	10.05
296.112	10.57
296.328	-0.46
296.543	-17.88
296.758	-33.64
296.973	21.26
297.188	52.12
297.404	31.47
297.619	50.09
297.834	48.4
298.049	27.02
298.264	3.35
298.479	47.5
298.694	44.04
298.909	56.14
299.125	46.89
299.34	61.68
299.555	37.06
299.77	41.6
299.985	-17.1
300.2	-25.75
300.415	-67.04
300.63	-59.39
300.845	-47.66
301.06	-37.49
301.275	-27.47
301.49	5.9
301.704	15.77
301.919	-17.52
302.134	-10.61
302.349	19.62
302.564	-9.42
302.779	-5.83
302.994	37.91
303.209	46.79
303.423	43.55
303.638	70.54
303.853	52.3
304.068	5.16
304.283	0.84
304.497	-3.34
304.712	12.82
304.927	22.76
305.142	27.52
305.356	37.03
305.571	34.04
305.786	16
306	9.95
306.215	29.67
306.43	8.85
306.644	28.98
306.859	45.95
307.074	34.23
307.288	-4.93
307.503	8.72
307.717	-15.25
307.932	-21.57
308.147	-17.64
308.361	19.95
308.576	11.41
308.79	-34.31
309.005	-19.45
309.219	-16.19
309.434	-4.45
309.648	-19.01
309.863	18.42
310.077	6.66
310.292	14.01
310.506	11.78
310.72	22.44
310.935	37.04
311.149	42.24
311.364	42.71
311.578	53.02
311.792	56.04
312.007	61.69
312.221	28.43
312.435	43.26
312.649	15.59
312.864	54.21
313.078	45.83
313.292	86.21
313.507	73.31
313.721	64.41
313.935	40.87
314.149	62.9
314.363	44.1
314.578	17.19
314.792	4.95
315.006	15.83
315.22	-6.92
315.434	2.54
315.648	20.87
315.862	31.34
316.077	28.57
316.291	51.42
316.505	53.74
316.719	52.33
316.933	12.24
317.147	15.61
317.361	-21.84
317.575	-9.49
317.789	-13.75
318.003	0.96
318.217	12.23
318.431	36.14
318.645	47.97
318.859	30.01
319.073	48.23
319.287	26.71
319.5	-4.3
319.714	-45.95
319.928	-40.54
320.142	-51.32
320.356	0.79
320.57	16.96
320.784	21.48
320.997	30.05
321.211	25.93
321.425	-11.92
321.639	-43.67
321.853	-7.51
322.066	-6.63
322.28	-13.02
322.494	3.97
322.707	61.84
322.921	34.89
323.135	27.34
323.349	42.79
323.562	30.01
323.776	4.19
323.989	15.52
324.203	4.3
324.417	8.55
324.63	-11.28
324.844	-32.36
325.057	-36.12
325.271	-27.3
325.485	-37.31
325.698	-1.41
325.912	29.41
326.125	11.52
326.339	27.19
326.552	23.28
326.766	22.54
326.979	16.8
327.193	47.35
327.406	32.35
327.619	30.26
327.833	34.32
328.046	27.3
328.26	14.91
328.473	18.18
328.686	5.17
328.9	6.77
329.113	11.16
329.326	-7.08
329.54	5.2
329.753	12.07
329.966	17.99
330.179	39.15
330.393	58.27
330.606	43.57
330.819	59.24
331.032	57.78
331.246	54.64
331.459	60.27
331.672	41.46
331.885	14.79
332.098	-16.15
332.311	-13.1
332.525	-22.4
332.738	-0.19
332.951	20.78
333.164	43.73
333.377	46.38
333.59	60.59
333.803	45.53
334.016	33.24
334.229	35.44
334.442	31.75
334.655	23.56
334.868	37.93
335.081	47.49
335.294	23.66
335.507	25.35
335.72	32.47
335.933	16.85
336.146	12.48
336.359	32.06
336.572	17.26
336.785	8.09
336.997	15.61
337.21	23.24
337.423	14.04
337.636	16
337.849	20.25
338.062	24.78
338.274	32.76
338.487	23.34
338.7	25.54
338.913	8.51
339.125	-3.21
339.338	-4.27
339.551	-3.54
339.763	10.71
339.976	35.26
340.189	39.93
340.402	38.48
340.614	33.58
340.827	21.22
341.039	-0.32
341.252	-10.56
341.465	-15.92
341.677	-19.55
341.89	-58.32
342.102	-40.91
342.315	-38
342.527	-38.14
342.74	-21.35
342.952	32.58
343.165	37.69
343.377	54.72
343.59	34.53
343.802	47.43
344.015	58.1
344.227	61.57
344.44	47.06
344.652	52.33
344.864	57.49
345.077	58.36
345.289	59.4
345.502	72.67
345.714	65.78
345.926	63.8
346.139	43.85
346.351	34.98
346.563	24.26
346.775	39.56
346.988	21.1
347.2	19.23
347.412	5.52
347.624	9.35
347.837	9.93
348.049	33.18
348.261	45.74
348.473	41.77
348.685	9.1
348.897	-0.99
349.11	-20.79
349.322	-19.16
349.534	12.26
349.746	47.86
349.958	56.6
350.17	56.3
350.382	50.45
350.594	40.68
350.806	31.83
351.018	20.31
351.23	16.9
351.442	19.5
351.654	23.6
351.866	22.11
352.078	32.46
352.29	26.15
352.502	34.88
352.714	42.94
352.926	33.6
353.138	21.69
353.35	17.96
353.561	-5.64
353.773	-17.17
353.985	-3.63
354.197	3.43
354.409	4.11
354.621	18.54
354.832	22.42
355.044	9.79
355.256	4.26
355.468	7.22
355.679	-1.89
355.891	6.98
356.103	-0.44
356.314	-1.07
356.526	16.54
356.738	32.12
356.949	25.15
357.161	38.02
357.373	43.3
357.584	48.11
357.796	41.37
358.008	24.97
358.219	37.05
358.431	33.51
358.642	18.61
358.854	33.08
359.065	44.47
359.277	19.95
359.488	19.11
359.7	12.56
359.911	-6.75
360.123	-6.63
360.334	-7.23
360.546	-11.55
360.757	-20.32
360.969	-13.88
361.18	8
361.391	18.49
361.603	19.32
361.814	48.09
362.025	36.28
362.237	23.18
362.448	19.36
362.659	32.53
362.871	24.74
363.082	22.84
363.293	27.25
363.504	29.96
363.716	16.3
363.927	13
364.138	14.33
364.349	-15.85
364.56	-17.71
364.772	-32.32
364.983	-17.46
365.194	-29.53
365.405	-4.83
365.616	-3.25
365.827	14.85
366.038	5.68
366.25	35.95
366.461	14.38
366.672	27.79
366.883	28.57
367.094	24.4
367.305	-3.58
367.516	22.64
367.727	11.21
367.938	-6.68
368.149	-14.05
368.36	5.66
368.571	-8.57
368.781	-17.9
368.992	-22.34
369.203	1.05
369.414	-10.96
369.625	-5.01
369.836	-5.59
370.047	3.12
370.258	-9.61
370.468	-11.2
370.679	-45.52
370.89	-37.27
371.101	-12.8
371.312	-33.24
371.522	-27.47
371.733	-8.46
371.944	-1.53
372.155	12.37
372.365	0.48
372.576	11.09
372.787	9.34
372.997	4.57
373.208	-10.24
373.419	20.66
373.629	-1.79
373.84	8.97
374.05	-8.81
374.261	1.01
374.472	-20.75
374.682	5.11
374.893	-6.18
375.103	37.42
375.314	36.56
375.524	41.62
375.735	41.86
375.945	49.63
376.156	12.7
376.366	20.16
376.577	21.55
376.787	18.21
376.997	33.35
377.208	42.49
377.418	17.14
377.629	30.36
377.839	19.44
378.049	9.78
378.26	17.86
378.47	38.11
378.68	28.96
378.89	34.28
379.101	29.1
379.311	13.49
379.521	-10.11
379.732	-6.15
379.942	-23.39
380.152	-20.82
380.362	-2.31
380.572	8.67
380.783	19.93
380.993	31.22
381.203	31.27
381.413	30.95
381.623	28.07
381.833	20.86
382.043	12.67
382.253	11.89
382.463	14.5
382.674	11.45
382.884	-3.24
383.094	4.03
383.304	5.87
383.514	2.38
383.724	12.29
383.934	3.89
384.144	-4.87
384.353	0.57
384.563	2.76
384.773	1.4
384.983	12.63
385.193	19.89
385.403	7.92
385.613	2.71
385.823	0.43
386.033	7.35
386.242	1.46
386.452	9.68
386.662	9.57
386.872	14.44
387.082	16.25
387.291	10.06
387.501	12.67
387.711	13.98
387.921	3.35
388.13	2.65
388.34	14.71
388.55	10.73
388.759	11.26
388.969	18.98
389.179	12.67
389.388	12.83
389.598	12.4
389.807	9.08
390.017	6.55
390.227	8.65
390.436	4.28
390.646	9.45
390.855	12.6
391.065	16.91
391.274	12.22
391.484	10.08
391.693	8.3
391.903	10.51
392.112	10.03
392.322	16.88
392.531	20.57
392.74	20.92
392.95	14.67
393.159	11.92
393.369	11.87
393.578	9.44
393.787	6.2
393.997	10.77
394.206	11.31
394.415	11.13
394.625	11.37
394.834	10.14
395.043	8.17
395.252	8.82
395.462	9.14
395.671	10.31
395.88	13.23
396.089	14.47
396.298	14.5
396.508	12.87
396.717	12.65
396.926	10.99
397.135	11.41
397.344	10.83
397.553	11.62
397.762	12.12
397.971	12.65
398.181	12.04
398.39	10.45
398.599	10.05
398.808	9.47
399.017	10.05
399.226	9.93
399.435	11.66
399.644	11.62
399.853	11.19
400.062	10.54
400.27	10.65
400.479	10.03
400.688	9.5
400.897	10.09
401.106	10.2
401.315	9.77
401.524	9.76
401.733	10.06
401.941	10.25
402.15	10.39
402.359	10.5
402.568	10.75
402.777	10.87
402.985	10.5
403.194	10.26
403.403	10.28
403.612	9.97
403.82	9.94
404.029	9.98
404.238	9.92
404.446	9.88
404.655	9.58
404.864	9.54
405.072	9.34
405.281	9.44
405.489	9.23
405.698	9.29
405.906	9.03
406.115	8.98
406.324	8.83
406.532	8.84
406.741	9.09
406.949	8.95
407.158	8.95
407.366	9
407.574	9.08
407.783	8.92
407.991	8.97
408.2	9
408.408	8.85
408.617	8.7
408.825	8.55
409.033	8.65
409.242	8.68
409.45	8.78
409.658	8.7
409.867	8.94
410.075	8.82
410.283	8.63
410.491	8.55
410.7	8.47
410.908	8.37
411.116	8.4
411.324	8.38
411.533	8.5
411.741	8.61
411.949	8.65
412.157	8.52
412.365	8.72
412.573	8.52
412.781	8.64
412.99	8.46
413.198	8.57
413.406	8.44
413.614	8.5
413.822	8.35
414.03	8.26
414.238	8.02
414.446	8.04
414.654	7.88
414.862	7.89
415.07	8.05
415.278	8.37
415.486	7.99
415.694	8.12
415.902	7.97
416.109	7.85
416.317	7.82
416.525	7.65
416.733	7.59
416.941	7.8
417.149	7.76
417.357	7.61
417.564	8.05
417.772	7.92
417.98	7.77
418.188	7.69
418.395	7.61
418.603	7.7
418.811	7.66
419.019	7.48
419.226	7.72
419.434	7.95
419.642	7.7
419.849	7.76
420.057	8.11
420.265	8.05
420.472	7.71
420.68	7.8
420.887	7.7
421.095	7.63
421.302	7.43
421.51	7.68
421.717	7.68
421.925	7.7
422.132	7.54
422.34	7.41
422.547	7.28
422.755	7.31
422.962	7.35
423.17	7.33
423.377	7.58
423.585	7.55
423.792	7.43
423.999	7.47
424.207	7.36
424.414	7.34
424.621	7.4
424.829	7.24
425.036	7.16
425.243	7.25
425.451	7.03
425.658	6.94
425.865	7.11
426.072	7.13
426.28	7.16
426.487	7.03
426.694	7.1
426.901	7.12
427.108	7.06
427.315	6.98
427.523	7.36
427.73	7.37
427.937	6.99
428.144	6.82
428.351	6.95
428.558	6.9
428.765	6.82
428.972	7.06
429.179	7.2
429.386	7.25
429.593	7.14
429.8	7.03
430.007	7.09
430.214	7.26
430.421	7.29
430.628	7.22
430.835	7.01
431.042	7.15
431.249	7.03
431.456	7.09
431.662	7.31
431.869	7.6
432.076	7.51
432.283	7.54
432.49	7.33
432.697	7.21
432.903	6.91
433.11	6.83
433.317	6.88
433.524	7.09
433.73	6.99
433.937	7.34
434.144	7.36
434.35	7.33
434.557	7.18
434.764	7.2
434.97	7.22
435.177	7.27
435.384	7.03
435.59	7.12
435.797	7.34
436.003	7.25
436.21	7.26
436.416	7.41
436.623	7.23
436.829	7.11
437.036	7.18
437.242	7.04
437.449	7.08
437.655	7.13
437.862	7.13
438.068	7.11
438.275	7.39
438.481	7.5
438.687	7.49
438.894	7.45
439.1	7.31
439.307	7.19
439.513	7.12
439.719	7.12
439.926	7.14
440.132	7.21
440.338	7.14
440.544	7.26
440.751	7.31
440.957	7.45
441.163	7.23
441.369	7.34
441.575	7.15
441.782	6.94
441.988	6.59
442.194	6.78
442.4	6.7
442.606	6.92
442.812	7.14
443.018	7.31
443.224	7.42
443.431	7.55
443.637	7.44
443.843	7.28
444.049	7.4
444.255	7.3
444.461	7.3
444.667	7.11
444.873	7.2
445.079	7.21
445.284	7.24
445.49	6.98
445.696	6.91
445.902	6.95
446.108	6.85
446.314	6.8
446.52	6.99
446.726	7.29
446.931	7.21
447.137	7.29
447.343	7.41
447.549	7.1
447.755	6.95
447.96	7
448.166	6.9
448.372	6.94
448.578	7.15
448.783	7.11
448.989	7.24
449.195	7.4
449.4	7.27
449.606	7.27
449.812	7.22
450.017	7.25
450.223	7.21
450.428	7.01
450.634	7.09
450.84	7.27
451.045	7.06
451.251	6.92
451.456	7.28
451.662	7.37
451.867	7.3
452.073	7.3
452.278	7.39
452.483	7.33
452.689	7.2
452.894	7.33
453.1	7.45
453.305	7.29
453.51	7.24
453.716	7.19
453.921	7.16
454.127	7.09
454.332	7.12
454.537	7.13
454.742	7.3
454.948	7.33
455.153	7.25
455.358	7.36
455.563	7.47
455.769	7.33
455.974	7.22
456.179	7.25
456.384	7.18
456.589	7.1
456.795	7.02
457	7.05
457.205	7.15
457.41	7.1
457.615	7.01
457.82	7.2
458.025	7.25
458.23	7.09
458.435	7.22
458.64	7.13
458.845	7.14
459.05	7.12
459.255	7.16
459.46	7.15
459.665	7.26
459.87	7.25
460.075	7.1
460.28	7.17
460.485	7.2
460.69	7.25
460.895	6.98
461.099	6.99
461.304	7.11
461.509	7.22
461.714	7.1
461.919	7.4
462.123	7.39
462.328	7.4
462.533	7.11
462.738	7.25
462.942	6.99
463.147	7.17
463.352	7.17
463.556	7.24
463.761	7.2
463.966	7.39
464.17	7.34
464.375	7.2
464.58	7.18
464.784	7.19
464.989	7.03
465.193	7.13
465.398	7.21
465.602	7.4
465.807	7.35
466.011	7.56
466.216	7.5
466.42	7.52
466.625	7.44
466.829	7.53
467.034	7.54
467.238	7.67
467.443	7.6
467.647	7.39
467.851	7.42
468.056	7.37
468.26	7.26
468.464	7.23
468.669	7.47
468.873	7.41
469.077	7.42
469.282	7.35
469.486	7.45
469.69	7.38
469.894	7.4
470.099	7.52
470.303	7.6
470.507	7.45
470.711	7.39
470.915	7.37
471.119	7.3
471.324	7.23
471.528	7.25
471.732	7.5
471.936	7.53
472.14	7.67
472.344	7.79
472.548	7.93
472.752	7.88
472.956	7.96
473.16	7.73
473.364	7.58
473.568	7.56
473.772	7.5
473.976	7.47
474.18	7.56
474.384	7.56
474.588	7.43
474.792	7.37
474.995	7.33
475.199	7.33
475.403	7.46
475.607	7.54
475.811	7.53
476.015	7.58
476.218	7.57
476.422	7.51
476.626	7.54
476.83	7.66
477.033	7.57
477.237	7.5
477.441	7.55
477.644	7.52
477.848	7.48
478.052	7.31
478.255	7.28
478.459	7.26
478.663	7.42
478.866	7.38
479.07	7.64
479.273	7.93
479.477	8.01
479.681	7.84
479.884	7.82
480.088	7.7
480.291	7.55
480.495	7.39
480.698	7.41
480.901	7.58
481.105	7.71
481.308	7.71
481.512	7.72
481.715	7.8
481.919	7.69
482.122	7.59
482.325	7.58
482.529	7.67
482.732	7.66
482.935	7.54
483.138	7.55
483.342	7.63
483.545	7.71
483.748	7.74
483.952	7.88
484.155	8.03
484.358	8
484.561	7.84
484.764	7.86
484.967	7.86
485.171	7.92
485.374	7.77
485.577	7.91
485.78	7.89
485.983	7.89
486.186	7.69
486.389	7.69
486.592	7.64
486.795	7.69
486.998	7.64
487.201	7.75
487.404	7.87
487.607	7.95
487.81	7.91
488.013	8.02
488.216	7.98
488.419	8.04
488.622	7.85
488.825	7.81
489.028	7.7
489.231	7.67
489.433	7.55
489.636	7.61
489.839	7.53
490.042	7.51
490.245	7.48
490.447	7.6
490.65	7.6
490.853	7.76
491.056	7.81
491.258	7.85
491.461	7.86
491.664	7.89
491.866	7.72
492.069	7.73
492.272	7.75
492.474	7.78
492.677	7.85
492.879	7.96
493.082	8.12
493.285	8.22
493.487	8.05
493.69	7.95
493.892	7.86
494.095	7.78
494.297	7.71
494.5	7.95
494.702	8.06
494.905	8.2
495.107	8.2
495.309	8.28
495.512	8.18
495.714	8.28
495.917	8.3
496.119	8.29
496.321	8.29
496.524	8.45
496.726	8.41
496.928	8.43
497.13	8.43
497.333	8.43
497.535	8.39
497.737	8.33
497.939	8.24
498.142	8.39
498.344	8.29
498.546	8.2
498.748	8.23
498.95	8.28
499.152	8.13
499.355	8.24
499.557	8.31
499.759	8.33
499.961	8.36
500.163	8.43
500.365	8.45
500.567	8.47
500.769	8.35
500.971	8.4
501.173	8.31
501.375	8.35
501.577	8.35
501.779	8.48
501.981	8.49
502.183	8.52
502.385	8.44
502.587	8.39
502.788	8.48
502.99	8.5
503.192	8.58
503.394	8.6
503.596	8.64
503.798	8.66
503.999	8.68
504.201	8.7
504.403	8.83
504.605	8.95
504.806	8.88
505.008	8.85
505.21	8.9
505.411	8.9
505.613	8.77
505.815	8.84
506.016	8.98
506.218	9.02
506.42	8.93
506.621	8.99
506.823	9.09
507.024	9.02
507.226	9.02
507.427	9.01
507.629	9.16
507.83	9.14
508.032	9.09
508.233	9.13
508.435	9.25
508.636	9.24
508.838	9.19
509.039	9.2
509.24	9.25
509.442	9.26
509.643	9.15
509.845	9.23
510.046	9.27
510.247	9.21
510.448	9.24
510.65	9.37
510.851	9.46
511.052	9.53
511.254	9.46
511.455	9.54
511.656	9.54
511.857	9.59
512.058	9.59
512.26	9.72
512.461	9.65
512.662	9.69
512.863	9.54
513.064	9.47
513.265	9.5
513.466	9.54
513.667	9.53
513.868	9.65
514.069	9.83
514.27	9.84
514.471	9.82
514.672	9.86
514.873	9.87
515.074	9.91
515.275	9.86
515.476	9.93
515.677	9.97
515.878	10.02
516.079	9.94
516.28	10.04
516.481	10.14
516.682	10.13
516.882	10.12
517.083	10.19
517.284	10.11
517.485	10.07
517.686	10.12
517.886	10.11
518.087	10.2
518.288	10.31
518.488	10.25
518.689	10.28
518.89	10.22
519.091	10.15
519.291	10.17
519.492	10.26
519.692	10.28
519.893	10.52
520.094	10.55
520.294	10.54
520.495	10.54
520.695	10.54
520.896	10.46
521.096	10.55
521.297	10.65
521.497	10.73
521.698	10.73
521.898	10.69
522.099	10.69
522.299	10.72
522.499	10.69
522.7	10.72
522.9	10.76
523.101	10.76
523.301	10.74
523.501	10.76
523.702	10.76
523.902	10.89
524.102	11
524.302	11.02
524.503	11.09
524.703	11.14
524.903	11.06
525.103	10.94
525.304	11
525.504	11.06
525.704	11.11
525.904	11.1
526.104	11.16
526.304	11.16
526.504	11.15
526.705	11.11
526.905	11.27
527.105	11.35
527.305	11.37
527.505	11.32
527.705	11.35
527.905	11.37
528.105	11.34
528.305	11.26
528.505	11.32
528.705	11.4
528.905	11.27
529.105	11.26
529.304	11.4
529.504	11.47
529.704	11.41
529.904	11.51
530.104	11.58
530.304	11.62
530.503	11.54
530.703	11.54
530.903	11.55
531.103	11.54
531.303	11.47
531.502	11.55
531.702	11.66
531.902	11.73
532.101	11.69
532.301	11.68
532.501	11.68
532.7	11.72
532.9	11.66
533.1	11.76
533.299	11.78
533.499	11.87
533.698	11.76
533.898	11.85
534.097	11.91
534.297	12.05
534.496	12.06
534.696	12.18
534.895	12.25
535.095	12.23
535.294	12.25
535.494	12.18
535.693	12.19
535.892	12.22
536.092	12.21
536.291	12.13
536.491	12.18
536.69	12.3
536.889	12.13
537.088	12.09
537.288	12.24
537.487	12.35
537.686	12.29
537.886	12.46
538.085	12.57
538.284	12.6
538.483	12.51
538.682	12.59
538.882	12.65
539.081	12.72
539.28	12.62
539.479	12.66
539.678	12.62
539.877	12.64
540.076	12.67
540.275	12.84
540.474	12.95
540.673	12.98
540.872	12.98
541.071	13.02
541.27	12.96
541.469	13.03
541.668	13.12
541.867	13.13
542.066	13.11
542.265	13.24
542.464	13.18
542.663	13.3
542.862	13.5
543.06	13.58
543.259	13.57
543.458	13.72
543.657	13.6
543.856	13.55
544.054	13.61
544.253	13.56
544.452	13.46
544.651	13.58
544.849	13.54
545.048	13.55
545.247	13.68
545.445	13.88
545.644	13.86
545.843	13.86
546.041	13.89
546.24	13.99
546.438	13.99
546.637	14.11
546.836	14.4
547.034	14.51
547.233	14.52
547.431	14.54
547.63	14.63
547.828	14.52
548.027	14.6
548.225	14.6
548.423	14.73
548.622	14.78
548.82	14.84
549.019	14.86
549.217	15.02
549.415	15.07
549.614	15.12
549.812	15.13
550.01	15.16
550.209	15.25
550.407	15.32
550.605	15.42
550.803	15.54
551.002	15.6
551.2	15.55
551.398	15.68
551.596	15.75
551.794	15.85
551.993	16.05
552.191	16.13
552.389	16.15
552.587	16.24
552.785	16.33
552.983	16.36
553.181	16.54
553.379	16.63
553.577	16.62
553.775	16.71
553.973	16.79
554.171	16.92
554.369	16.95
554.567	16.97
554.765	17.05
554.963	17.18
555.161	17.13
555.359	17.35
555.557	17.61
555.755	17.74
555.952	17.92
556.15	18.03
556.348	18
556.546	18.06
556.744	18.12
556.941	18.05
557.139	18.13
557.337	18.3
557.535	18.38
557.732	18.4
557.93	18.58
558.128	18.77
558.325	18.84
558.523	18.85
558.721	19
558.918	18.97
559.116	18.94
559.313	18.87
559.511	19.1
559.708	19.22
559.906	19.34
560.104	19.51
560.301	19.84
560.498	19.86
560.696	19.92
560.893	20.06
561.091	20.14
561.288	20.22
561.486	20.38
561.683	20.53
561.88	20.71
562.078	20.9
562.275	20.78
562.473	20.88
562.67	21.05
562.867	21.11
563.064	21.19
563.262	21.39
563.459	21.52
563.656	21.59
563.853	21.61
564.051	21.59
564.248	21.8
564.445	21.95
564.642	22.08
564.839	22.19
565.036	22.47
565.234	22.59
565.431	22.49
565.628	22.46
565.825	22.55
566.022	22.5
566.219	22.48
566.416	22.58
566.613	22.65
566.81	22.81
567.007	22.8
567.204	22.87
567.401	22.96
567.598	23.05
567.795	22.98
567.991	23.11
568.188	23.27
568.385	23.32
568.582	23.47
568.779	23.6
568.976	23.74
569.172	23.79
569.369	23.87
569.566	23.85
569.763	23.91
569.96	23.94
570.156	23.94
570.353	23.86
570.55	23.89
570.746	23.99
570.943	23.95
571.14	23.94
571.336	24.08
571.533	24.12
571.729	24.11
571.926	24.16
572.123	24.19
572.319	24.25
572.516	24.29
572.712	24.35
572.909	24.45
573.105	24.57
573.302	24.68
573.498	24.75
573.695	24.62
573.891	24.68
574.087	24.7
574.284	24.57
574.48	24.52
574.677	24.57
574.873	24.55
575.069	24.65
575.266	24.81
575.462	24.73
575.658	24.86
575.854	24.92
576.051	24.89
576.247	24.81
576.443	24.9
576.639	24.91
576.835	24.83
577.032	24.7
577.228	24.8
577.424	24.74
577.62	24.59
577.816	24.63
578.012	24.74
578.208	24.72
578.404	24.86
578.6	24.92
578.796	24.93
578.993	24.78
579.189	24.7
579.384	24.57
579.58	24.55
579.776	24.52
579.972	24.48
580.168	24.39
580.364	24.4
580.56	24.43
580.756	24.41
580.952	24.37
581.148	24.4
581.343	24.41
581.539	24.33
581.735	24.25
581.931	24.44
582.127	24.46
582.322	24.36
582.518	24.44
582.714	24.42
582.909	24.24
583.105	24.15
583.301	24.09
583.496	24.07
583.692	23.94
583.888	23.92
584.083	23.93
584.279	24.06
584.474	23.99
584.67	24.11
584.866	24.1
585.061	24.01
585.257	24.01
585.452	23.81
585.648	23.68
585.843	23.67
586.039	23.65
586.234	23.53
586.429	23.63
586.625	23.74
586.82	23.67
587.015	23.71
587.211	23.62
587.406	23.65
587.601	23.51
587.797	23.42
587.992	23.33
588.187	23.47
588.383	23.45
588.578	23.53
588.773	23.62
588.968	23.77
589.163	23.73
589.359	23.58
589.554	23.44
589.749	23.51
589.944	23.43
590.139	23.45
590.334	23.53
590.529	23.74
590.724	23.68
590.919	23.68
591.114	23.61
591.309	23.68
591.504	23.65
591.699	23.52
591.894	23.52
592.089	23.44
592.284	23.45
592.479	23.33
592.674	23.41
592.869	23.42
593.064	23.59
593.259	23.61
593.454	23.78
593.648	23.83
593.843	23.93
594.038	23.88
594.233	23.75
594.428	23.7
594.622	23.73
594.817	23.7
595.012	23.8
595.206	23.95
595.401	24.06
595.596	24.04
595.79	24.1
595.985	24.18
596.18	24.32
596.374	24.3
596.569	24.4
596.763	24.37
596.958	24.28
597.153	24.23
597.347	24.17
597.542	24.36
597.736	24.39
597.931	24.54
598.125	24.69
598.319	24.86
598.514	24.78
598.708	24.78
598.903	24.76
599.097	24.67
599.291	24.63
599.486	24.53
599.68	24.58
599.874	24.65
600.069	24.72
600.263	24.69
600.457	24.82
600.651	24.88
600.846	24.76
601.04	24.72
601.234	24.65
601.428	24.7
601.622	24.77
601.817	24.93
602.011	24.99
602.205	25.15
602.399	25
602.593	24.9
602.787	24.87
602.981	24.84
603.175	24.83
603.369	24.79
603.563	24.89
603.757	24.89
603.951	24.91
604.145	24.88
604.339	25.05
604.533	24.92
604.727	24.93
604.921	24.79
605.115	24.77
605.309	24.71
605.502	24.74
605.696	24.68
605.89	24.66
606.084	24.71
606.278	24.61
606.471	24.51
606.665	24.38
606.859	24.32
607.053	24.1
607.246	24.11
607.44	24
607.634	24.04
607.827	24.06
608.021	24
608.214	23.88
608.408	23.93
608.602	23.88
608.795	23.77
608.989	23.76
609.182	23.74
609.376	23.68
609.569	23.53
609.763	23.44
609.956	23.42
610.15	23.32
610.343	23.11
610.537	23.05
610.73	23.14
610.923	23.03
611.117	22.93
611.31	22.82
611.504	22.83
611.697	22.61
611.89	22.49
612.083	22.41
612.277	22.44
612.47	22.34
612.663	22.29
612.856	22.22
613.05	22.2
613.243	22.11
613.436	21.9
613.629	21.81
613.822	21.8
614.015	21.68
614.209	21.56
614.402	21.63
614.595	21.63
614.788	21.54
614.981	21.53
615.174	21.49
615.367	21.37
615.56	21.17
615.753	21.05
615.946	20.87
616.139	20.9
616.332	20.9
616.525	20.83
616.718	20.88
616.911	20.87
617.103	20.89
617.296	20.84
617.489	20.87
617.682	20.82
617.875	20.87
618.067	20.79
618.26	20.68
618.453	20.73
618.646	20.65
618.838	20.59
619.031	20.56
619.224	20.48
619.417	20.35
619.609	20.36
619.802	20.31
619.994	20.28
620.187	20.41
620.38	20.36
620.572	20.24
620.765	20.21
620.957	20.07
621.15	19.87
621.342	19.79
621.535	19.86
621.727	19.87
621.92	19.83
622.112	19.85
622.305	19.93
622.497	19.79
622.69	19.73
622.882	19.73
623.074	19.7
623.267	19.58
623.459	19.51
623.651	19.4
623.844	19.45
624.036	19.49
624.228	19.46
624.42	19.47
624.613	19.52
624.805	19.45
624.997	19.3
625.189	19.26
625.381	19.24
625.574	19.25
625.766	19.08
625.958	19.07
626.15	19.13
626.342	19.09
626.534	19.08
626.726	19.09
626.918	19.15
627.11	19.15
627.302	19.09
627.494	18.95
627.686	18.83
627.878	18.72
628.07	18.52
628.262	18.5
628.454	18.52
628.646	18.55
628.838	18.6
629.029	18.53
629.221	18.5
629.413	18.35
629.605	18.38
629.797	18.2
629.989	18.23
630.18	18.21
630.372	18.16
630.564	18.11
630.755	18.2
630.947	18.14
631.139	18.01
631.33	17.97
631.522	17.97
631.714	17.86
631.905	17.83
632.097	17.77
632.289	17.81
632.48	17.7
632.672	17.55
632.863	17.36
633.055	17.37
633.246	17.31
633.438	17.21
633.629	17.18
633.821	17.31
634.012	17.29
634.203	17.2
634.395	17.16
634.586	17.22
634.777	17.1
634.969	16.98
635.16	17.03
635.351	17.03
635.543	16.88
635.734	16.8
635.925	16.77
636.117	16.79
636.308	16.63
636.499	16.61
636.69	16.5
636.881	16.48
637.073	16.45
637.264	16.5
637.455	16.51
637.646	16.59
637.837	16.6
638.028	16.41
638.219	16.46
638.41	16.3
638.601	16.17
638.792	16.14
638.983	16
639.174	15.77
639.365	15.75
639.556	15.71
639.747	15.58
639.938	15.69
640.129	15.72
640.32	15.63
640.511	15.59
640.701	15.57
640.892	15.49
641.083	15.44
641.274	15.51
641.465	15.54
641.655	15.39
641.846	15.29
642.037	15.25
642.228	15.09
642.418	15.08
642.609	15
642.8	14.97
642.99	14.9
643.181	14.97
643.372	14.89
643.562	14.93
643.753	14.76
643.943	14.63
644.134	14.47
644.324	14.34
644.515	14.24
644.705	14.3
644.896	14.37
645.086	14.42
645.277	14.32
645.467	14.36
645.658	14.24
645.848	14.16
646.038	14.19
646.229	14.29
646.419	14.19
646.61	14.14
646.8	14.04
646.99	13.84
647.18	13.78
647.371	13.75
647.561	13.68
647.751	13.64
647.941	13.63
648.132	13.58
648.322	13.56
648.512	13.64
648.702	13.66
648.892	13.65
649.082	13.66
649.272	13.53
649.462	13.42
649.653	13.32
649.843	13.2
650.033	13.09
650.223	13.12
650.413	13.07
650.603	13.01
650.793	12.95
650.983	12.83
651.172	12.71
651.362	12.71
651.552	12.67
651.742	12.55
651.932	12.57
652.122	12.58
652.312	12.62
652.502	12.59
652.691	12.7
652.881	12.64
653.071	12.7
653.261	12.44
653.45	12.38
653.64	12.29
653.83	12.27
654.019	12.18
654.209	12.37
654.399	12.42
654.588	12.4
654.778	12.4
654.968	12.25
655.157	12.19
655.347	12.09
655.536	12.04
655.726	11.99
655.915	11.98
656.105	11.82
656.294	11.72
656.484	11.52
656.673	11.43
656.863	11.43
657.052	11.31
657.241	11.18
657.431	11.11
657.62	10.86
657.809	10.66
657.999	10.51
658.188	10.34
658.377	10.31
658.567	10.28
658.756	10.28
658.945	10.14
659.134	10.13
659.324	10.05
659.513	10.07
659.702	9.75
659.891	9.84
660.08	9.75
660.269	9.63
660.458	9.56
660.648	9.63
660.837	9.47
661.026	9.44
661.215	9.39
661.404	9.05
661.593	9.12
661.782	8.85
661.971	8.79
662.16	8.78
662.349	8.89
662.538	8.65
662.726	8.84
662.915	8.75
663.104	8.49
663.293	8.3
663.482	8.33
663.671	8.17
663.86	7.92
664.048	7.88
664.237	7.96
664.426	7.77
664.615	7.77
664.803	7.95
664.992	8.02
665.181	7.96
665.369	7.94
665.558	7.97
665.747	7.81
665.935	7.84
666.124	7.86
666.312	8.01
666.501	7.87
666.69	7.86
666.878	7.73
667.067	7.56
667.255	7.42
667.444	7.63
667.632	7.68
667.82	7.69
668.009	7.66
668.197	7.65
668.386	7.56
668.574	7.71
668.762	7.79
668.951	7.8
669.139	7.79
669.327	7.7
669.516	7.7
669.704	7.79
669.892	7.94
670.08	8.14
670.269	8.13
670.457	8.08
670.645	7.94
670.833	7.98
671.021	7.91
671.21	7.97
671.398	8.05
671.586	8.05
671.774	8.08
671.962	8.01
672.15	7.89
672.338	7.74
672.526	7.89
672.714	7.73
672.902	7.79
673.09	8.12
673.278	8.48
673.466	8.44
673.654	8.88
673.842	8.92
674.03	8.91
674.218	8.61
674.405	8.67
674.593	8.56
674.781	8.82
674.969	8.69
675.157	9.06
675.344	9.15
675.532	9.06
675.72	9.02
675.908	9.25
676.095	9.04
676.283	9.18
676.471	9.41
676.658	9.44
676.846	9.45
677.033	9.67
677.221	9.62
677.409	9.65
677.596	9.64
677.784	9.71
677.971	9.81
678.159	9.91
678.346	9.92
678.534	9.94
678.721	10.15
678.909	10.12
679.096	10.25
679.283	10.45
679.471	10.6
679.658	10.6
679.846	10.79
680.033	10.93
680.22	10.96
680.408	11.18
680.595	11.31
680.782	11.35
680.969	11.36
681.157	11.35
681.344	11.26
681.531	11.31
681.718	11.29
681.905	11.51
682.093	11.59
682.28	11.94
682.467	12.13
682.654	12.31
682.841	12.13
683.028	12.51
683.215	12.62
683.402	12.45
683.589	12.83
683.776	13.12
683.963	13.09
684.15	13.24
684.337	13.53
684.524	13.43
684.711	13.66
684.898	13.75
685.085	13.81
685.271	14.16
685.458	14.59
685.645	14.76
685.832	15.19
686.019	15.48
686.205	15.71
686.392	15.83
686.579	16.14
686.766	16.41
686.952	16.68
687.139	17.15
687.326	17.29
687.512	17.7
687.699	17.79
687.886	18.02
688.072	18.09
688.259	18.77
688.445	19
688.632	19.51
688.818	20.21
689.005	20.55
689.191	20.91
689.378	21.49
689.564	22.07
689.751	22.17
689.937	22.84
690.124	23.18
690.31	23.67
690.496	24.11
690.683	25.06
690.869	25.54
691.055	26.21
691.242	26.85
691.428	27.38
691.614	27.78
691.8	28.35
691.987	28.8
692.173	29.48
692.359	30.16
692.545	30.94
692.731	31.27
692.918	31.99
693.104	32.22
693.29	32.94
693.476	33.3
693.662	34.36
693.848	34.96
694.034	35.85
694.22	36.23
694.406	37.03
694.592	37.48
694.778	38.06
694.964	38.57
695.15	39.18
695.336	39.79
695.522	40.65
695.708	41.42
695.894	42.16
696.08	42.91
696.265	43.51
696.451	43.92
696.637	44.61
696.823	45.11
697.009	45.78
697.194	46.37
697.38	46.94
697.566	47.44
697.751	48.01
697.937	48.57
698.123	49.1
698.308	50.05
698.494	50.66
698.68	51.41
698.865	51.96
699.051	52.6
699.236	52.9
699.422	53.41
699.607	53.64
699.793	54.29
699.978	54.51
700.164	54.73
700.349	55.62
700.535	56.48
700.72	56.68
700.906	57.45
701.091	58.17
701.276	58.4
701.462	59.09
701.647	60.25
701.832	60.96
702.018	61.72
702.203	62.36
702.388	62.35
702.573	62.28
702.759	62.61
702.944	62.74
703.129	62.69
703.314	63.32
703.499	64.12
703.684	64.82
703.87	65.61
704.055	66.58
704.24	66.92
704.425	67.16
704.61	67.26
704.795	67.34
704.98	67.02
705.165	67.17
705.35	67.4
705.535	67.47
705.72	68.18
705.905	68.87
706.09	69.5
706.275	69.82
706.459	69.98
706.644	70.22
706.829	70.9
707.014	71.22
707.199	71.58
707.384	72.45
707.568	72.43
707.753	72.8
707.938	73.11
708.123	73.23
708.307	73.4
708.492	73.55
708.677	72.96
708.861	72.75
709.046	72.8
709.231	72.89
709.415	73.19
709.6	74.05
709.784	74.21
709.969	75.02
710.153	75.09
710.338	75.33
710.522	74.82
710.707	75.49
710.891	75.16
711.076	75.9
711.26	75.46
711.445	76.05
711.629	76.25
711.813	76.24
711.998	76.1
712.182	76.58
712.366	76.82
712.551	77.27
712.735	77.05
712.919	77.1
713.103	77.21
713.288	77.1
713.472	76.49
713.656	77.76
713.84	78.29
714.024	78.7
714.208	79.17
714.393	79.93
714.577	79.56
714.761	78.94
714.945	79.33
715.129	79.26
715.313	79.02
715.497	79.24
715.681	80.09
715.865	80.06
716.049	80.31
716.233	80.6
716.417	80.77
716.601	80.75
716.785	80.8
716.968	81.01
717.152	80.94
717.336	81.07
717.52	80.99
717.704	81.29
717.888	81.85
718.071	81.71
718.255	81.65
718.439	81.56
718.622	82.08
718.806	81.41
718.99	81.12
719.174	81.47
719.357	81.8
719.541	81.11
719.724	81.72
719.908	82.64
720.092	82.95
720.275	83.1
720.459	83.94
720.642	83.46
720.826	83.29
721.009	83.04
721.193	82.4
721.376	81.59
721.559	82.72
721.743	83.07
721.926	82.97
722.11	82.92
722.293	83.21
722.476	81.79
722.66	82.03
722.843	82.46
723.026	83.2
723.21	83.36
723.393	84.96
723.576	85.09
723.759	84.32
723.942	84.28
724.126	84.11
724.309	83.63
724.492	83.53
724.675	84.75
724.858	85.51
725.041	86.86
725.224	86.75
725.407	86.58
725.59	86.39
725.774	85.5
725.957	84.29
726.14	84.33
726.322	85.12
726.505	84.61
726.688	85.51
726.871	85.54
727.054	86.16
727.237	86.32
727.42	87.14
727.603	87.22
727.786	87.77
727.968	87.73
728.151	86.84
728.334	86.74
728.517	86.66
728.699	86.98
728.882	86.62
729.065	87.69
729.248	88.05
729.43	88.55
729.613	89.55
729.796	89.88
729.978	88.36
730.161	87.49
730.343	87.98
730.526	87.54
730.708	87.52
730.891	89.11
731.073	89.63
731.256	88.76
731.438	89.23
731.621	89.67
731.803	90.11
731.986	91.06
732.168	91.02
732.35	90.57
732.533	90.38
732.715	89.68
732.898	89.58
733.08	89.98
733.262	89.9
733.444	89.51
733.627	89.6
733.809	90.1
733.991	91.2
734.173	91.64
734.355	92.48
734.538	92.81
734.72	91.76
734.902	91.12
735.084	89.89
735.266	90.12
735.448	90.46
735.63	90.66
735.812	90.28
735.994	92.04
736.176	91.93
736.358	92.18
736.54	93.39
736.722	93.66
736.904	93.12
737.086	92.15
737.268	93.11
737.45	93.14
737.632	93.22
737.814	92.63
737.995	94.18
738.177	93.31
738.359	92.45
738.541	92.77
738.723	93.81
738.904	93.8
739.086	93.64
739.268	93.97
739.449	93.51
739.631	93
739.813	92.95
739.994	93.86
740.176	93.9
740.358	94.22
740.539	95.79
740.721	95.58
740.902	95.87
741.084	96.66
741.265	96.08
741.447	96.01
741.628	95.64
741.81	93.6
741.991	93.66
742.172	95.04
742.354	94.34
742.535	94.65
742.717	97.15
742.898	95.72
743.079	96.62
743.261	96.67
743.442	96.41
743.623	94.84
743.804	96.19
743.986	96.01
744.167	94.29
744.348	95.66
744.529	96.91
744.71	96.22
744.891	95.88
745.073	96.61
745.254	96.2
745.435	96.2
745.616	95.4
745.797	93.73
745.978	94.88
746.159	93.93
746.34	91.93
746.521	93.22
746.702	94.17
746.883	94.17
747.064	92.85
747.245	93.88
747.426	94.03
747.606	94.73
747.787	94.3
747.968	95.86
748.149	96.28
748.33	96.41
748.51	95.1
748.691	93.35
748.872	94.76
749.053	94.3
749.233	93.37
749.414	93.54
749.595	95.16
749.775	93.13
749.956	91.14
750.137	90.5
750.317	91.7
750.498	92.33
750.678	92.41
750.859	94.11
751.04	95.64
751.22	94.74
751.4	92.61
751.581	93.59
751.761	93.92
751.942	93.86
752.122	94.01
752.303	94.4
752.483	94.1
752.663	94.65
752.844	95.32
753.024	95.49
753.204	95.57
753.385	95.15
753.565	92.33
753.745	91.3
753.925	91.26
754.106	93.13
754.286	93.72
754.466	94.25
754.646	95.72
754.826	95.3
755.006	92.46
755.187	93.91
755.367	95.34
755.547	94.92
755.727	95.07
755.907	95.6
756.087	95.5
756.267	94.63
756.447	94.7
756.627	94.7
756.807	97.06
756.987	95.47
757.167	97.78
757.346	96.48
757.526	94.73
757.706	93.6
757.886	92.29
758.066	91.38
758.246	92.45
758.425	94.16
758.605	93.16
758.785	94.49
758.965	93.31
759.144	89.4
759.324	89.17
759.504	90.9
759.683	90.17
759.863	88.5
760.043	91.7
760.222	92.02
760.402	90.04
760.581	91.46
760.761	94.54
760.94	90.92
761.12	91.03
761.299	94.69
761.479	93.85
761.658	91.65
761.838	93.24
762.017	92.92
762.197	90.59
762.376	90.74
762.555	91.97
762.735	94.76
762.914	93.12
763.093	95.33
763.273	92.69
763.452	93.93
763.631	90.27
763.81	89.93
763.99	87.4
764.169	89.63
764.348	85.5
764.527	86.32
764.706	88.4
764.885	91.07
765.064	89.76
765.243	90.76
765.423	91.57
765.602	91.61
765.781	87.91
765.96	85.92
766.139	86.89
766.318	86.93
766.497	87.01
766.676	88.79
766.854	92.78
767.033	93.87
767.212	92.26
767.391	91.04
767.57	91.65
767.749	92.36
767.928	91.92
768.106	90.63
768.285	88.38
768.464	88.11
768.643	85.2
768.821	84.99
769	87.71
769.179	89.49
769.357	84.25
769.536	82.84
769.715	84.28
769.893	85.16
770.072	85.11
770.25	86.7
770.429	88.62
770.607	86.84
770.786	86.17
770.964	87.07
771.143	89.9
771.321	92.57
771.5	91.76
771.678	89.73
771.857	87.75
772.035	89.16
772.213	84.83
772.392	83.36
772.57	87.36
772.748	90.89
772.927	86.46
773.105	87.78
773.283	91.94
773.461	91.38
773.64	87.03
773.818	85.31
773.996	87.77
774.174	86.87
774.352	81.92
774.531	84.76
774.709	89.53
774.887	87.93
775.065	85.58
775.243	87.92
775.421	89.42
775.599	91.52
775.777	87.73
775.955	84.91
776.133	86.25
776.311	81.48
776.489	76.69
776.667	80.13
776.844	85.32
777.022	81.61
777.2	82.65
777.378	83.74
777.556	84.78
777.734	84.47
777.911	87.07
778.089	86.74
778.267	88.18
778.445	84.59
778.622	81.96
778.8	82.05
778.978	85.82
779.155	83.74
779.333	84.75
779.511	81.16
779.688	83.93
779.866	75.88
780.043	74.69
780.221	75.06
780.398	77.48
780.576	75.17
780.753	83.05
780.931	83.83
781.108	82.69
781.286	86.99
781.463	81.23
781.64	77.23
781.818	82.48
781.995	84.49
782.172	82.78
782.35	88.13
782.527	90.93
782.704	84.58
782.882	85.36
783.059	85.17
783.236	85.37
783.413	84.55
783.59	86.15
783.768	79.5
783.945	80.55
784.122	80.44
784.299	79.42
784.476	79.13
784.653	85.34
784.83	80.17
785.007	73.84
785.184	74.37
785.361	74.43
785.538	75.54
785.715	79.76
785.892	84.73
786.069	86.89
786.246	87.56
786.423	82.94
786.6	80.76
786.776	81.88
786.953	79.27
787.13	80.48
787.307	82.68
787.484	88.1
787.66	86.28
787.837	81.89
788.014	81.03
788.191	80.73
788.367	74.43
788.544	78.3
788.721	81.39
788.897	84.88
789.074	88.48
789.25	87.27
789.427	83.45
789.603	82.98
789.78	81.99
789.956	67.89
790.133	68.8
790.309	67.25
790.486	70.65
790.662	66.98
790.839	72.51
791.015	76.79
791.192	74.61
791.368	75.07
791.544	68.31
791.721	74.37
791.897	70.83
792.073	72.24
792.249	67.73
792.426	76.53
792.602	76.26
792.778	71.63
792.954	72.4
793.13	70.72
793.307	64.6
793.483	56.74
793.659	62.57
793.835	63.95
794.011	67.2
794.187	61.23
794.363	60.16
794.539	63.66
794.715	58.42
794.891	57.03
795.067	61.31
795.243	74.65
795.419	71.98
795.595	76.28
795.771	79.33
795.947	85
796.122	71.99
796.298	74.67
796.474	75.66
796.65	73.07
796.826	67.84
797.001	75.79
797.177	68.69
797.353	73.46
797.529	75.86
797.704	74.79
797.88	68.11
798.056	66.04
798.231	59.19
798.407	61.65
798.582	64.59
798.758	69.04
798.934	77.55
799.109	77.37
799.285	68.04
799.46	74.96
799.636	76.36
799.811	72.86
799.986	78.35
800.162	90.59
800.337	83.47
800.513	79.63
800.688	77.47
800.863	79.41
801.039	68.92
801.214	65.61
801.389	70.3
801.565	72.48
801.74	63.77
801.915	70.17
802.09	81.25
802.265	82.87
802.441	78.76
802.616	77.35
802.791	75.48
802.966	70.12
803.141	68.42
803.316	61.13
803.491	64.47
803.666	64.24
803.841	58.83
804.016	56.83
804.191	68.4
804.366	66.34
804.541	62.29
804.716	61.17
804.891	55.32
805.066	52.63
805.241	58.79
805.416	63.04
805.591	60.32
805.765	64.49
805.94	74
806.115	69.49
806.29	63.06
806.464	75.47
806.639	74.24
806.814	53.61
806.989	44.29
807.163	54.12
807.338	45.45
807.512	43.58
807.687	44.31
807.862	59.31
808.036	56.29
808.211	57.99
808.385	68.58
808.56	79.7
808.734	74.58
808.909	76.98
809.083	70.7
809.258	71.63
809.432	76.18
809.606	57.42
809.781	58.03
809.955	70.99
810.13	63.12
810.304	45.05
810.478	52.75
810.652	61.91
810.827	67.35
811.001	68.13
811.175	74.74
811.349	81.58
811.524	65.97
811.698	51.05
811.872	50.75
812.046	60.56
812.22	59.44
812.394	54.59
812.568	51.75
812.742	53.62
812.916	44.98
813.09	43.39
813.264	55.13
813.438	65.9
813.612	66.09
813.786	51.13
813.96	62.84
814.134	62.77
814.308	66.02
814.482	67.01
814.656	79.45
814.83	86.57
815.003	88.46
815.177	84.84
815.351	79.69
815.525	90.8
815.698	79.14
815.872	60.39
816.046	50.41
816.219	56.15
816.393	55.89
816.567	58.18
816.74	66.72
816.914	79.39
817.088	77.14
817.261	71.69
817.435	62.69
817.608	55.26
817.782	45.59
817.955	45.09
818.129	28.34
818.302	30.78
818.475	51.97
818.649	57.62
818.822	41.76
818.996	62.98
819.169	66.86
819.342	42.92
819.516	45.8
819.689	71.69
819.862	61.99
820.035	51.97
820.209	58.14
820.382	65.12
820.555	61.17
820.728	55.18
820.901	53.51
821.075	58.13
821.248	61.84
821.421	48.64
821.594	37.86
821.767	56.37
821.94	84.91
822.113	51.37
822.286	58.19
822.459	85.59
822.632	77.35
822.805	55.95
822.978	68.36
823.151	63.42
823.324	32.68
823.496	-9
823.669	9.91
823.842	14.1
824.015	4.27
824.188	0.71
824.361	5.77
824.533	-12.73
824.706	0.46
824.879	5.46
825.051	48.32
825.224	63.26
825.397	62.83
825.569	45.28
825.742	49
825.915	51.17
826.087	46.71
826.26	35.25
826.432	44.61
826.605	53.28
826.777	53
826.95	48.47
827.122	52.47
827.295	53.92
827.467	48.37
827.64	20.81
827.812	21.13
827.984	26.37
828.157	22.97
828.329	10.69
828.501	11.13
828.674	13.68
828.846	12.18
829.018	19.38
829.19	19.85
829.363	43.93
829.535	52.87
829.707	69.81
829.879	42.23
830.051	42.36
830.223	41.67
830.395	11.87
830.568	-4.01
830.74	11.02
830.912	36.43
831.084	17.25
831.256	17.38
831.428	3.04
831.6	-3.98
831.772	-30.8
831.943	-27.27
832.115	1.31
832.287	42.95
832.459	40.91
832.631	53.13
832.803	73.42
832.975	70.32
833.146	43.09
833.318	42.73
833.49	46.88
833.662	23.51
833.833	10.28
834.005	28.45
834.177	57.22
834.348	40.16
834.52	25.43
834.692	26.65
834.863	7.51
835.035	-12.28
835.206	-1.18
835.378	27.57
835.549	14.23
835.721	26.66
835.892	14.8
836.064	13.86
836.235	18.01
836.407	70.65
836.578	43.42
836.749	64.65
836.921	67.38
837.092	50.11
837.264	-1.4
837.435	-15.84
837.606	-19.97
837.777	6.78
837.949	8.39
838.12	2.31
838.291	13.63
838.462	20.1
838.633	7.07
838.805	-5.65
838.976	17.53
839.147	30.27
839.318	-4.52
839.489	-32.85
839.66	-7.87
839.831	12.94
840.002	-1.43
840.173	-0.94
840.344	13.96
840.515	23.8
840.686	-16.04
840.857	-33.25
841.028	-34.86
841.199	-4.54
841.369	-41.64
841.54	-52.72
841.711	4.8
841.882	12.14
842.053	-20.12
842.223	-46.14
842.394	-11.2
842.565	-12.73
842.736	-0.4
842.906	-1.78
843.077	39.72
843.248	42.1
843.418	22.36
843.589	15.41
843.759	61.13
843.93	65.64
844.101	63.8
844.271	70.52
844.442	88.46
844.612	83.3
844.783	40.9
844.953	-6.9
845.123	23.47
845.294	8.03
845.464	-23.24
845.635	3.5
845.805	45.66
845.975	30.51
846.146	7.32
846.316	3.01
846.486	14.55
846.656	-4.62
846.827	-24.02
846.997	-7.03
847.167	32.98
847.337	11.27
847.507	8.91
847.677	6.51
847.848	34.79
848.018	18.94
848.188	25.29
848.358	18.41
848.528	27.58
848.698	7.17
848.868	-18.42
849.038	-34.08
849.208	-1.57
849.378	39.96
849.548	13.59
849.718	57.43
849.887	112.37
850.057	9.13
850.227	-44
850.397	-33.39
850.567	-43.66
850.737	-35.09
850.906	-18.72
851.076	-67.54
851.246	-56.94
851.415	-24.29
851.585	-22.87
851.755	-34.24
851.924	29.19
852.094	37
852.264	13.37
852.433	-32.17
852.603	0.67
852.772	-1.84
852.942	-15.59
853.111	-22.43
853.281	54.05
853.45	58.2
853.62	17.88
853.789	-41.59
853.959	5.59
854.128	-41.98
854.297	-103.47
854.467	-105.83
854.636	-43.24
854.805	-34.26
854.975	-55.67
855.144	-20.3
855.313	50.61
855.482	20.87
855.652	-25.08
855.821	1.51
855.99	40.71
856.159	23.45
856.328	28.6
856.497	38.5
856.667	53.15
856.836	32.47
857.005	-47.48
857.174	-82.44
857.343	-57.58
857.512	-30.04
857.681	-130.97
857.85	-97.56
858.019	-75.8
858.188	-81.58
858.356	-129.11
858.525	-124.49
858.694	-129.17
858.863	-112.81
859.032	-119.51
859.201	-103.4
859.369	-42.25
859.538	-10.75
859.707	-32.03
859.876	-24
860.044	10.4
860.213	0.54
860.382	-19.41
860.55	8.61
860.719	49.41
860.888	40.92
861.056	-2.19
861.225	-21.2
861.393	-19.9
861.562	40.42
861.73	12.36
861.899	18.59
862.067	10.4
862.236	18.75
862.404	-54.5
862.572	-90.15
862.741	-38.74
862.909	-41.97
863.078	-57.84
863.246	-63.52
863.414	-22.14
863.582	-60.82
863.751	-31.61
863.919	-52.62
864.087	23.79
864.255	27.7
864.424	-21.45
864.592	-23.69
864.76	19.69
864.928	10.95
865.096	-3.17
865.264	9.98
865.432	31.08
865.6	72.41
865.768	-40.11
865.936	-125.36
866.104	-70.71
866.272	-112.31
866.44	-140.65
866.608	-92.28
866.776	-130.78
866.944	-220.89
867.112	-320.04
867.28	-561.81
867.448	-1073.3
867.615	-298.71
867.783	-36.44
867.951	-52.67
868.119	62.17
868.286	18.36
868.454	-30.26
868.622	-129.41
868.789	-143.18
868.957	-53.52
869.125	-77.61
869.292	-79.41
869.46	-42.54
869.627	6.77
869.795	-67.72
869.963	-47.58
870.13	5.96
870.298	51.71
870.465	-27.29
870.632	-23.34
870.8	-27.9
870.967	-34.84
871.135	-156.19
871.302	-62
871.469	-17.66
871.637	-1.52
871.804	-8.45
871.971	-19.96
872.139	-28.11
872.306	11.64
872.473	2.02
872.64	-49.18
872.807	26.88
872.975	50.66
873.142	-41.44
873.309	-48.56
873.476	69.74
873.643	53.52
873.81	27.02
873.977	38.53
874.144	32.51
874.311	22
874.478	-56.61
874.645	-103.38
874.812	-304.07
874.979	8780.95
875.146	-347.25
875.313	-104.5
875.48	-36.11
875.647	-15.67
875.813	-64.08
875.98	-99.23
876.147	-130.63
876.314	-112.41
876.481	-192.8
876.647	-210.9
876.814	-103.5
876.981	-71.96
877.147	-119.58
877.314	-111.64
877.481	-32.86
877.647	31.48
877.814	-61.29
877.98	-91.12
878.147	29.74
878.314	38.26
878.48	-50.24
878.647	-35.77
878.813	84.86
878.979	75.9
879.146	47.72
879.312	79.91
879.479	100.76
879.645	86.28
879.811	8.14
879.978	11.07
880.144	12.59
880.31	-18.75
880.477	-155.28
880.643	-154.21
880.809	-125.21
880.975	-88.89
881.142	-111.12
881.308	-68.81
881.474	-11.72
881.64	1.4
881.806	-32.21
881.972	-4.13
882.138	13.77
882.304	32.86
882.47	-35.47
882.636	-121.73
882.802	-131.2
882.968	-66.98
883.134	-186.31
883.3	-215.98
883.466	0.13
883.632	53.57
883.798	-26.39
883.964	-17.62
884.129	-25.51
884.295	-33.69
884.461	-83.88
884.627	-120.67
884.793	-85.62
884.958	-21.99
885.124	-93.09
885.29	-107.28
885.455	-43.35
885.621	-52.02
885.787	-248.26
885.952	-93.93
886.118	-76.19
886.283	-74.6
886.449	-110.55
886.614	-75.26
886.78	-60.64
886.945	-39.34
887.111	-222
887.276	-204.36
887.442	-397.39
887.607	-245.73
887.773	-287.75
887.938	-192.88
888.103	-114.77
888.269	-18.87
888.434	-10.06
888.599	-20.76
888.764	60.72
888.93	70.29
889.095	24.63
889.26	-15.21
889.425	43.23
889.59	41.14
889.756	-28.99
889.921	-31.91
890.086	4.9
890.251	-2.82
890.416	-72.48
890.581	-50.01
890.746	-11.02
890.911	-6.2
891.076	-58.71
891.241	-99.13
891.406	-87.06
891.571	-12.85
891.736	-54.07
891.901	-67.91
892.065	-28.17
892.23	-39.13
892.395	-144.62
892.56	-198.38
892.725	-80.61
892.889	-51.63
893.054	-139.54
893.219	-127
893.384	-112.47
893.548	-180.55
893.713	-229.85
893.878	-172.92
