Data from Ofra_PP_Phys_0CX04_Reflection_2.txt Node
Date: Sat Jul 24 20:02:28 EDT 2021
User: USUARIO
Spectrometer: FLMT01687
Trigger mode: 0
Integration Time (sec): 1.100000E0
Scans to average: 2
Electric dark correction enabled: true
Nonlinearity correction enabled: false
Boxcar width: 2
XAxis mode: Wavelengths
Number of Pixels in Spectrum: 3648
>>>>>Begin Spectral Data<<<<<
179.494	443.21
179.716	561.05
179.937	975.66
180.158	822.19
180.38	390.61
180.601	-423.32
180.823	5.91
181.044	1100
181.265	-24.3
181.486	-17.13
181.708	8.3
181.929	-196
182.15	-278.31
182.372	-17.24
182.593	33100
182.814	96.92
183.035	98.84
183.257	69.51
183.478	35.45
183.699	18.66
183.92	-1.05
184.141	5.96
184.363	-22.34
184.584	30.05
184.805	31.26
185.026	37.83
185.247	25.36
185.468	6.81
185.689	-10.84
185.91	-2
186.132	-17.89
186.353	1.22
186.574	34.36
186.795	45.45
187.016	11.43
187.237	41.31
187.458	48.76
187.679	64.71
187.9	69.75
188.121	113.5
188.342	115.1
188.563	84.57
188.784	101.53
189.005	93.77
189.226	82.66
189.447	58.51
189.667	73.81
189.888	39.51
190.109	14.37
190.33	-7.74
190.551	-25.4
190.772	-35.93
190.993	-64.09
191.214	-48.81
191.434	-66.79
191.655	-5.03
191.876	-13.01
192.097	-1.55
192.318	-6.13
192.538	-21.97
192.759	-49.41
192.98	-61.58
193.201	-55.07
193.421	-63
193.642	-16.37
193.863	8.9
194.083	6.49
194.304	25.27
194.525	44.7
194.745	45.33
194.966	10.42
195.187	12.49
195.407	-30.6
195.628	-72.07
195.848	-83.05
196.069	-91.79
196.29	-103.78
196.51	-144.52
196.731	-133.66
196.951	-76.24
197.172	-61.22
197.392	-17.22
197.613	6.16
197.833	10.16
198.054	-25.21
198.274	-12.64
198.495	-81.8
198.715	-23.45
198.936	-37.89
199.156	-13.7
199.377	-39.35
199.597	-28.37
199.817	-61.23
200.038	-45.32
200.258	-36.89
200.479	-2.48
200.699	-0.48
200.919	2.32
201.14	-15.74
201.36	-27.81
201.58	-21.34
201.801	-6.99
202.021	-16.79
202.241	3.09
202.461	-0.67
202.682	-10.83
202.902	11.15
203.122	16.57
203.342	25.35
203.563	52.15
203.783	54.54
204.003	-21.7
204.223	-93.98
204.443	-46.97
204.663	-28.88
204.884	-61.44
205.104	-21.16
205.324	31.16
205.544	15.12
205.764	-6.75
205.984	23.86
206.204	25.16
206.424	-24.9
206.644	-26.29
206.864	7.01
207.084	-17.44
207.304	5.65
207.525	0.18
207.745	8.8
207.964	0.22
208.184	6.72
208.404	-1.72
208.624	6.18
208.844	9.62
209.064	-7.38
209.284	7.46
209.504	31.81
209.724	44.31
209.944	35.91
210.164	47.38
210.384	43.25
210.604	6.96
210.823	-3.36
211.043	-22.39
211.263	-13.51
211.483	-27.75
211.703	-9.51
211.922	1.03
212.142	28.41
212.362	24.38
212.582	22.3
212.801	21.32
213.021	2.6
213.241	6.23
213.461	-0.93
213.68	-15.62
213.9	-19.8
214.12	-17.45
214.339	-30.84
214.559	-24.32
214.779	3.96
214.998	21.09
215.218	29.82
215.438	36.79
215.657	21.9
215.877	37.42
216.096	39.63
216.316	56.84
216.535	68.87
216.755	68.2
216.974	58.85
217.194	47.65
217.413	27.45
217.633	15.26
217.852	-24.46
218.072	-40.88
218.291	-45.56
218.511	-19.51
218.73	-43.97
218.95	-23.92
219.169	-28.53
219.389	-45.32
219.608	-55.12
219.827	-20.94
220.047	-11.49
220.266	-6.85
220.485	-6.14
220.705	-9.17
220.924	-32.07
221.143	-29.38
221.363	-60.02
221.582	-19.74
221.801	-18.39
222.021	9.82
222.24	21.28
222.459	35.05
222.678	8.05
222.897	13.13
223.117	-2.2
223.336	-15.18
223.555	23.98
223.774	44.7
223.993	54.07
224.213	89.22
224.432	68.71
224.651	69.48
224.87	56.15
225.089	53.98
225.308	35.93
225.527	48.81
225.746	33.98
225.965	31.37
226.184	27.04
226.404	36.25
226.623	14.06
226.842	23.09
227.061	46.65
227.28	45.69
227.499	52.3
227.718	62.58
227.936	47.15
228.155	16.64
228.374	0.33
228.593	-24.67
228.812	-16.89
229.031	-6.03
229.25	-11.23
229.469	18.59
229.688	17.27
229.907	25.83
230.125	26.61
230.344	33.46
230.563	25.17
230.782	47.4
231.001	5.95
231.22	14.64
231.438	10.41
231.657	1.61
231.876	0.48
232.095	23.84
232.313	32.85
232.532	27.74
232.751	43.97
232.969	37.87
233.188	41.99
233.407	19.92
233.625	19.19
233.844	6.89
234.063	-24.78
234.281	9.78
234.5	24.57
234.719	35.95
234.937	41.96
235.156	48.09
235.374	32.45
235.593	49.21
235.811	42.82
236.03	42.65
236.249	42.43
236.467	43.57
236.686	17.25
236.904	16.86
237.123	-32.17
237.341	-16.28
237.559	-16.78
237.778	-14.57
237.996	-23.52
238.215	20.43
238.433	10.67
238.652	13.82
238.87	-13.47
239.088	-6.26
239.307	-9.48
239.525	-10.66
239.743	-26.2
239.962	-4.69
240.18	-23.16
240.398	-46
240.617	-52.77
240.835	-48.14
241.053	-89.5
241.271	-57.42
241.49	-17.99
241.708	-4.61
241.926	-6.23
242.144	22.77
242.363	9.93
242.581	0.67
242.799	4.49
243.017	-8.29
243.235	-32.03
243.453	-10.8
243.672	-30.53
243.89	-11.58
244.108	21.62
244.326	45.89
244.544	39.03
244.762	38.23
244.98	34.56
245.198	23.63
245.416	-2.06
245.634	1.65
245.852	14.9
246.07	4.64
246.288	26.17
246.506	32.44
246.724	35.29
246.942	25.26
247.16	28.09
247.378	23.78
247.596	31.53
247.814	27.05
248.032	4.06
248.25	13.82
248.468	8.82
248.685	24.6
248.903	25.99
249.121	47.22
249.339	1.99
249.557	-1.46
249.775	-37.71
249.992	-71.73
250.21	-82.59
250.428	-26.43
250.646	-12.84
250.863	-0.28
251.081	18.8
251.299	30.77
251.517	21.39
251.734	8.04
251.952	-12.13
252.17	-2.6
252.387	6.34
252.605	-13.43
252.823	-12.31
253.04	0.12
253.258	5.11
253.475	3.23
253.693	33.19
253.911	53.18
254.128	51.46
254.346	46.22
254.563	28.13
254.781	12.61
254.998	3.32
255.216	-8.02
255.433	-7.41
255.651	20.32
255.868	24.42
256.086	34.24
256.303	38.68
256.521	32.68
256.738	11.1
256.956	6.44
257.173	6.65
257.39	5.57
257.608	7.66
257.825	11.41
258.043	25.35
258.26	24.8
258.477	15.88
258.695	16.73
258.912	-0.53
259.129	-24.59
259.346	-48.82
259.564	-32.48
259.781	-26.7
259.998	-10.51
260.216	16.74
260.433	37.4
260.65	19.11
260.867	24.58
261.084	8.35
261.302	3.5
261.519	-2.68
261.736	-8.08
261.953	-10.69
262.17	5.91
262.387	2.56
262.604	0.37
262.822	4.21
263.039	-2.65
263.256	-19.81
263.473	-15.26
263.69	-36.27
263.907	-10.44
264.124	-2.58
264.341	26.7
264.558	31.03
264.775	51.42
264.992	74.22
265.209	49.31
265.426	40.23
265.643	40.4
265.86	27.35
266.077	28.62
266.294	34.12
266.51	30.89
266.727	22.82
266.944	36.53
267.161	3.52
267.378	10.08
267.595	9.49
267.812	-14.15
268.028	-11.71
268.245	1.35
268.462	0.92
268.679	-5.24
268.896	30.71
269.112	14.33
269.329	23.5
269.546	24.2
269.763	35.27
269.979	16.16
270.196	13.11
270.413	13.33
270.629	5.35
270.846	-5.94
271.063	12.28
271.279	7.02
271.496	-27.06
271.712	-22.3
271.929	-26.9
272.146	-36.75
272.362	-38.96
272.579	-6.93
272.795	-1.73
273.012	11.86
273.228	24.1
273.445	25.47
273.661	4.95
273.878	-36.47
274.094	-46.21
274.311	-55.99
274.527	-49.01
274.744	-20.87
274.96	18.05
275.177	13.25
275.393	17.47
275.609	20.96
275.826	20.91
276.042	12.55
276.259	32.98
276.475	22.49
276.691	32.14
276.908	21.38
277.124	39.35
277.34	16.96
277.557	19.18
277.773	23.28
277.989	29.97
278.205	42.02
278.422	55.9
278.638	55.65
278.854	34.23
279.07	32.71
279.286	4.98
279.503	-16.03
279.719	-13.19
279.935	-12.78
280.151	-28.79
280.367	-13.71
280.583	8.4
280.799	19.81
281.016	22.75
281.232	33.88
281.448	34.36
281.664	35.01
281.88	15.9
282.096	15.23
282.312	20.4
282.528	17.91
282.744	23.51
282.96	37.97
283.176	48.23
283.392	40.14
283.608	34.07
283.824	17.5
284.04	14.16
284.256	18.32
284.471	13.95
284.687	11.1
284.903	21.11
285.119	23.06
285.335	-5.63
285.551	-8.42
285.767	-5.98
285.982	-24.11
286.198	-37.35
286.414	-21.35
286.63	-5.12
286.846	3.9
287.061	-2.66
287.277	-1.17
287.493	4.01
287.709	3.57
287.924	11.02
288.14	41.3
288.356	58.94
288.571	73.64
288.787	70.25
289.003	68.44
289.218	59.85
289.434	32.12
289.65	26.8
289.865	39.12
290.081	33.89
290.296	34.38
290.512	35.46
290.727	32.37
290.943	25.39
291.159	19.77
291.374	13.45
291.59	-14.59
291.805	-20.03
292.021	-12.48
292.236	-10.41
292.451	-5.25
292.667	9.7
292.882	13.71
293.098	21.09
293.313	10.33
293.529	2.91
293.744	2.24
293.959	-14.93
294.175	-27.59
294.39	-7.35
294.605	2.28
294.821	15.56
295.036	12.29
295.251	36.27
295.467	34.49
295.682	31.93
295.897	17.2
296.112	14.71
296.328	-1.93
296.543	-4.48
296.758	-17.29
296.973	6.93
297.188	27.31
297.404	19.11
297.619	19.73
297.834	25.61
298.049	20.72
298.264	12.94
298.479	29.53
298.694	29.79
298.909	34.26
299.125	30.86
299.34	36.5
299.555	17.07
299.77	3.04
299.985	-23.33
300.2	-47.35
300.415	-72.92
300.63	-46.97
300.845	-30.09
301.06	-27.97
301.275	-6.8
301.49	4.42
301.704	-11.47
301.919	-34.16
302.134	-36.56
302.349	-10.63
302.564	-11.53
302.779	-2.68
302.994	29.1
303.209	39.38
303.423	30.16
303.638	35.82
303.853	38.26
304.068	23.38
304.283	12.76
304.497	9.84
304.712	18.61
304.927	28.59
305.142	25.74
305.356	30.65
305.571	34.09
305.786	32.5
306	27.13
306.215	36.03
306.43	15.16
306.644	36.23
306.859	40.75
307.074	23.97
307.288	0.42
307.503	11.51
307.717	-10.19
307.932	-12.46
308.147	-19.36
308.361	4.89
308.576	-12.11
308.79	-48.86
309.005	-34.6
309.219	-22.53
309.434	-20.66
309.648	-19.11
309.863	14.59
310.077	-3.74
310.292	16.01
310.506	14.92
310.72	34.22
310.935	29.96
311.149	17.5
311.364	8.65
311.578	16.2
311.792	4.47
312.007	16.89
312.221	14.63
312.435	8.4
312.649	-7.24
312.864	33.08
313.078	15.06
313.292	52.52
313.507	62.23
313.721	60.83
313.935	42.18
314.149	56.08
314.363	29.76
314.578	-3.4
314.792	-16.47
315.006	2.39
315.22	-2.06
315.434	10.21
315.648	28.18
315.862	20.73
316.077	23.46
316.291	6.61
316.505	-0.06
316.719	5.09
316.933	-10.97
317.147	-7.82
317.361	-20.88
317.575	-22.52
317.789	-31.81
318.003	-27.56
318.217	-12.77
318.431	16.56
318.645	30.53
318.859	26.77
319.073	44.7
319.287	26.32
319.5	5.26
319.714	-20.87
319.928	-15.42
320.142	-35.21
320.356	0.99
320.57	20.73
320.784	23.78
320.997	26.79
321.211	51.74
321.425	32.71
321.639	-5.31
321.853	18.04
322.066	16
322.28	-6.19
322.494	6.7
322.707	58.48
322.921	41.6
323.135	46.4
323.349	68.63
323.562	52.3
323.776	20.95
323.989	32.72
324.203	10.81
324.417	-5
324.63	-17.31
324.844	-30.43
325.057	-40.54
325.271	-32.97
325.485	-24.46
325.698	10.31
325.912	39.48
326.125	32.42
326.339	47.57
326.552	36.87
326.766	26.67
326.979	17.38
327.193	43.59
327.406	16.18
327.619	20.31
327.833	21.51
328.046	15.46
328.26	-10.29
328.473	2.4
328.686	1.72
328.9	5.89
329.113	9.45
329.326	12.16
329.54	9.44
329.753	3.28
329.966	-7.81
330.179	-2.68
330.393	22.13
330.606	17.14
330.819	34.93
331.032	42.09
331.246	40.85
331.459	26.87
331.672	25.86
331.885	-8.4
332.098	-27.31
332.311	-22.22
332.525	-16.04
332.738	-20.05
332.951	-0.55
333.164	9.09
333.377	28.42
333.59	36.46
333.803	38.61
334.016	31.79
334.229	26.15
334.442	22.52
334.655	13.01
334.868	13.13
335.081	26.3
335.294	28.36
335.507	23.33
335.72	35.57
335.933	23.25
336.146	26.04
336.359	16.74
336.572	1.34
336.785	-16.12
336.997	-3.17
337.21	0.98
337.423	3.72
337.636	7.82
337.849	6.08
338.062	0.3
338.274	-8.6
338.487	-1.12
338.7	-1.42
338.913	-3.34
339.125	0.97
339.338	9.31
339.551	16.67
339.763	34.11
339.976	48.81
340.189	46.38
340.402	45.69
340.614	42.55
340.827	29.19
341.039	22.59
341.252	15.15
341.465	3.92
341.677	-8.48
341.89	-29.92
342.102	-26.18
342.315	-7.21
342.527	-8.17
342.74	0.55
342.952	16.65
343.165	11.08
343.377	17.98
343.59	9.87
343.802	24.8
344.015	38.88
344.227	50.08
344.44	35.92
344.652	39.38
344.864	37.81
345.077	37.69
345.289	27.94
345.502	25.2
345.714	16.91
345.926	10.97
346.139	4.19
346.351	12.63
346.563	15.74
346.775	37.01
346.988	30.54
347.2	32.65
347.412	13.79
347.624	11
347.837	7.69
348.049	7.94
348.261	13.48
348.473	9.61
348.685	-5.92
348.897	-21.9
349.11	-17.28
349.322	-11.27
349.534	7
349.746	19.24
349.958	31.74
350.17	33.26
350.382	33.83
350.594	36.67
350.806	53.57
351.018	49.37
351.23	47.7
351.442	45.57
351.654	41.46
351.866	32.28
352.078	26.5
352.29	19.23
352.502	18.54
352.714	45.45
352.926	34.34
353.138	38.5
353.35	24.99
353.561	18.78
353.773	0.62
353.985	0.86
354.197	-1.67
354.409	13.67
354.621	4.99
354.832	13.58
355.044	10.25
355.256	0.08
355.468	-4.67
355.679	-0.39
355.891	-3.62
356.103	0.93
356.314	7.48
356.526	21.29
356.738	35.35
356.949	35.58
357.161	29.84
357.373	30.11
357.584	18.62
357.796	11.08
358.008	-3.07
358.219	14.74
358.431	23.3
358.642	35.3
358.854	39.44
359.065	42.77
359.277	23.59
359.488	14.64
359.7	-7.08
359.911	-23.72
360.123	-19.8
360.334	-16.03
360.546	-20.97
360.757	-10.15
360.969	-9.66
361.18	0.98
361.391	-1.3
361.603	-13.22
361.814	-11.25
362.025	-3.34
362.237	-5.58
362.448	-2.03
362.659	11.34
362.871	7.61
363.082	0.74
363.293	-2.38
363.504	-3.32
363.716	-4.21
363.927	-5.04
364.138	3.29
364.349	-5.32
364.56	-5.91
364.772	-11.23
364.983	2.08
365.194	-8.04
365.405	-3.85
365.616	-13.52
365.827	-14.52
366.038	-11.91
366.25	11.43
366.461	5.3
366.672	22.79
366.883	35.74
367.094	27.2
367.305	15.99
367.516	30.03
367.727	14.92
367.938	0.92
368.149	-1.36
368.36	1.8
368.571	-16.7
368.781	-13.64
368.992	-18.93
369.203	-1.89
369.414	-7.93
369.625	-3.76
369.836	-2.16
370.047	1.72
370.258	-12.15
370.468	-4.46
370.679	-19.72
370.89	-10.74
371.101	3.42
371.312	-6.83
371.522	-8.55
371.733	11.63
371.944	1.06
372.155	-0.4
372.365	-1.7
372.576	10
372.787	5.18
372.997	6.37
373.208	6.27
373.419	11.87
373.629	-3.87
373.84	-1.12
374.05	-11.25
374.261	-5.54
374.472	-8.12
374.682	3.08
374.893	0.78
375.103	25.07
375.314	22.54
375.524	32.62
375.735	33.33
375.945	28.99
376.156	4.62
376.366	7.73
376.577	4.76
376.787	4.94
376.997	16.3
377.208	30.16
377.418	15.75
377.629	20.53
377.839	11.27
378.049	7.53
378.26	8.18
378.47	16.7
378.68	14.99
378.89	23.02
379.101	19.05
379.311	9.11
379.521	3.99
379.732	2.67
379.942	-10.7
380.152	-6.4
380.362	3.17
380.572	-1.36
380.783	9.12
380.993	15.95
381.203	14.25
381.413	10.53
381.623	18.53
381.833	3.63
382.043	-1.16
382.253	8.61
382.463	20.26
382.674	18.63
382.884	17.76
383.094	19.19
383.304	17.95
383.514	11.65
383.724	12.32
383.934	8.76
384.144	3.8
384.353	-4.56
384.563	3.63
384.773	1.37
384.983	8.65
385.193	13.83
385.403	4.47
385.613	-4.74
385.823	-1.79
386.033	-3.37
386.242	-4.28
386.452	8.01
386.662	4.07
386.872	6.91
387.082	7.12
387.291	3.63
387.501	4.88
387.711	9.15
387.921	1.07
388.13	6.17
388.34	12.79
388.55	8.91
388.759	9.89
388.969	12.81
389.179	7.49
389.388	5.99
389.598	5.66
389.807	2.1
390.017	3.06
390.227	3.31
390.436	1.52
390.646	4.49
390.855	7.46
391.065	8.33
391.274	5.76
391.484	4.57
391.693	3.99
391.903	3.77
392.112	4.18
392.322	7.8
392.531	11.1
392.74	10.29
392.95	7.04
393.159	4.92
393.369	5.7
393.578	3.56
393.787	3.14
393.997	7.23
394.206	8.16
394.415	9.09
394.625	9.66
394.834	8.96
395.043	6.85
395.252	8.22
395.462	7.75
395.671	8.1
395.88	9.58
396.089	11.06
396.298	9.84
396.508	9.4
396.717	9.48
396.926	9.01
397.135	8.59
397.344	8.7
397.553	8.77
397.762	8.79
397.971	8.69
398.181	8.67
398.39	7.67
398.599	7.48
398.808	7.22
399.017	7.54
399.226	7.49
399.435	8.3
399.644	8.32
399.853	8.17
400.062	7.58
400.27	7.43
400.479	7.13
400.688	6.61
400.897	7.05
401.106	7.15
401.315	6.92
401.524	7.23
401.733	7.58
401.941	7.53
402.15	7.71
402.359	7.99
402.568	7.95
402.777	7.92
402.985	7.64
403.194	7.61
403.403	7.32
403.612	7.03
403.82	7.07
404.029	7.13
404.238	6.82
404.446	6.97
404.655	6.82
404.864	6.67
405.072	6.52
405.281	6.71
405.489	6.6
405.698	6.69
405.906	6.61
406.115	6.57
406.324	6.38
406.532	6.33
406.741	6.4
406.949	6.45
407.158	6.5
407.366	6.58
407.574	6.65
407.783	6.46
407.991	6.42
408.2	6.41
408.408	6.28
408.617	6.19
408.825	6.21
409.033	6.26
409.242	6.23
409.45	6.26
409.658	6.23
409.867	6.38
410.075	6.26
410.283	6.19
410.491	6.33
410.7	6.22
410.908	6.11
411.116	6.11
411.324	6.14
411.533	6.08
411.741	6.15
411.949	6.21
412.157	6.03
412.365	6.06
412.573	6.01
412.781	6.05
412.99	6.04
413.198	6.2
413.406	6.2
413.614	6.17
413.822	6.22
414.03	6.2
414.238	6.05
414.446	5.97
414.654	5.76
414.862	5.66
415.07	5.62
415.278	5.88
415.486	5.68
415.694	5.89
415.902	5.88
416.109	5.68
416.317	5.61
416.525	5.5
416.733	5.54
416.941	5.57
417.149	5.64
417.357	5.57
417.564	5.79
417.772	5.62
417.98	5.49
418.188	5.53
418.395	5.34
418.603	5.5
418.811	5.51
419.019	5.47
419.226	5.69
419.434	5.93
419.642	5.77
419.849	5.78
420.057	5.93
420.265	5.75
420.472	5.53
420.68	5.49
420.887	5.41
421.095	5.35
421.302	5.14
421.51	5.29
421.717	5.35
421.925	5.35
422.132	5.21
422.34	5.11
422.547	5.13
422.755	5.03
422.962	5.06
423.17	5.08
423.377	5.19
423.585	5.18
423.792	5.27
423.999	5.33
424.207	5.4
424.414	5.5
424.621	5.45
424.829	5.23
425.036	5.23
425.243	5.03
425.451	4.9
425.658	4.77
425.865	4.93
426.072	4.88
426.28	5.04
426.487	5.08
426.694	5.18
426.901	5.11
427.108	5.1
427.315	5.05
427.523	5.19
427.73	5.14
427.937	4.97
428.144	4.89
428.351	4.84
428.558	4.66
428.765	4.65
428.972	4.77
429.179	4.81
429.386	5.01
429.593	4.94
429.8	4.9
430.007	5.03
430.214	5.1
430.421	5.01
430.628	4.97
430.835	4.93
431.042	5.07
431.249	4.94
431.456	4.94
431.662	5.07
431.869	5.06
432.076	4.88
432.283	4.89
432.49	4.9
432.697	4.87
432.903	4.8
433.11	4.85
433.317	4.9
433.524	4.91
433.73	4.92
433.937	5.13
434.144	4.99
434.35	5.02
434.557	4.89
434.764	4.77
434.97	4.65
435.177	4.68
435.384	4.44
435.59	4.61
435.797	4.78
436.003	4.79
436.21	4.88
436.416	4.98
436.623	4.79
436.829	4.68
437.036	4.7
437.242	4.65
437.449	4.6
437.655	4.69
437.862	4.75
438.068	4.75
438.275	4.8
438.481	5.01
438.687	4.97
438.894	4.99
439.1	4.92
439.307	4.97
439.513	4.85
439.719	4.86
439.926	4.82
440.132	4.85
440.338	4.69
440.544	4.74
440.751	4.64
440.957	4.6
441.163	4.49
441.369	4.63
441.575	4.56
441.782	4.64
441.988	4.63
442.194	4.78
442.4	4.72
442.606	4.88
442.812	4.89
443.018	4.93
443.224	4.99
443.431	5.05
443.637	4.83
443.843	4.73
444.049	4.73
444.255	4.71
444.461	4.67
444.667	4.69
444.873	4.8
445.079	4.87
445.284	4.84
445.49	4.79
445.696	4.68
445.902	4.66
446.108	4.62
446.314	4.6
446.52	4.72
446.726	4.97
446.931	4.99
447.137	5.05
447.343	5.15
447.549	4.97
447.755	5
447.96	5.01
448.166	4.93
448.372	4.89
448.578	4.92
448.783	4.82
448.989	4.95
449.195	4.98
449.4	4.96
449.606	4.93
449.812	4.89
450.017	4.86
450.223	4.88
450.428	4.67
450.634	4.71
450.84	4.85
451.045	4.72
451.251	4.62
451.456	4.84
451.662	4.9
451.867	4.77
452.073	4.81
452.278	4.92
452.483	4.98
452.689	5.01
452.894	5.1
453.1	5.18
453.305	5.01
453.51	4.91
453.716	4.83
453.921	4.89
454.127	4.83
454.332	4.85
454.537	4.83
454.742	4.82
454.948	4.8
455.153	4.75
455.358	4.88
455.563	4.97
455.769	4.97
455.974	4.85
456.179	4.86
456.384	4.73
456.589	4.65
456.795	4.61
457	4.69
457.205	4.65
457.41	4.57
457.615	4.58
457.82	4.61
458.025	4.57
458.23	4.59
458.435	4.82
458.64	4.69
458.845	4.81
459.05	4.73
459.255	4.7
459.46	4.63
459.665	4.73
459.87	4.68
460.075	4.63
460.28	4.62
460.485	4.65
460.69	4.67
460.895	4.53
461.099	4.57
461.304	4.76
461.509	4.76
461.714	4.69
461.919	4.8
462.123	4.78
462.328	4.73
462.533	4.55
462.738	4.55
462.942	4.49
463.147	4.54
463.352	4.44
463.556	4.52
463.761	4.56
463.966	4.63
464.17	4.66
464.375	4.64
464.58	4.67
464.784	4.62
464.989	4.48
465.193	4.42
465.398	4.44
465.602	4.61
465.807	4.65
466.011	4.8
466.216	4.83
466.42	4.88
466.625	4.78
466.829	4.94
467.034	4.89
467.238	4.9
467.443	4.87
467.647	4.82
467.851	4.71
468.056	4.74
468.26	4.68
468.464	4.57
468.669	4.62
468.873	4.64
469.077	4.65
469.282	4.68
469.486	4.84
469.69	4.83
469.894	4.9
470.099	4.97
470.303	4.95
470.507	4.83
470.711	4.79
470.915	4.7
471.119	4.63
471.324	4.75
471.528	4.69
471.732	4.82
471.936	4.84
472.14	4.93
472.344	4.89
472.548	5.04
472.752	4.94
472.956	4.97
473.16	4.89
473.364	4.78
473.568	4.79
473.772	4.75
473.976	4.78
474.18	4.81
474.384	4.89
474.588	4.76
474.792	4.78
474.995	4.8
475.199	4.77
475.403	4.85
475.607	4.91
475.811	4.96
476.015	4.95
476.218	5
476.422	4.91
476.626	5.02
476.83	5.07
477.033	4.95
477.237	4.88
477.441	4.97
477.644	4.92
477.848	4.89
478.052	4.87
478.255	4.89
478.459	4.9
478.663	4.98
478.866	5
479.07	5.05
479.273	5.15
479.477	5.16
479.681	5.09
479.884	5.09
480.088	5.1
480.291	5.1
480.495	5.05
480.698	5.03
480.901	5.03
481.105	5.19
481.308	5.12
481.512	5.17
481.715	5.28
481.919	5.31
482.122	5.24
482.325	5.3
482.529	5.25
482.732	5.17
482.935	5.07
483.138	5.03
483.342	5.07
483.545	5.15
483.748	5.25
483.952	5.31
484.155	5.42
484.358	5.45
484.561	5.42
484.764	5.47
484.967	5.5
485.171	5.49
485.374	5.45
485.577	5.47
485.78	5.38
485.983	5.36
486.186	5.32
486.389	5.26
486.592	5.29
486.795	5.34
486.998	5.39
487.201	5.5
487.404	5.6
487.607	5.75
487.81	5.76
488.013	5.77
488.216	5.76
488.419	5.85
488.622	5.73
488.825	5.72
489.028	5.76
489.231	5.8
489.433	5.74
489.636	5.8
489.839	5.74
490.042	5.81
490.245	5.82
490.447	5.95
490.65	6.01
490.853	6.28
491.056	6.32
491.258	6.36
491.461	6.42
491.664	6.43
491.866	6.36
492.069	6.43
492.272	6.51
492.474	6.58
492.677	6.7
492.879	6.85
493.082	6.94
493.285	7.08
493.487	7.04
493.69	7.06
493.892	7.02
494.095	7.02
494.297	7.05
494.5	7.29
494.702	7.41
494.905	7.64
495.107	7.78
495.309	7.86
495.512	7.81
495.714	7.97
495.917	8.06
496.119	8.14
496.321	8.28
496.524	8.42
496.726	8.48
496.928	8.5
497.13	8.58
497.333	8.63
497.535	8.71
497.737	8.75
497.939	8.74
498.142	8.88
498.344	8.83
498.546	8.89
498.748	8.99
498.95	9.16
499.152	9.11
499.355	9.28
499.557	9.31
499.759	9.34
499.961	9.37
500.163	9.46
500.365	9.48
500.567	9.53
500.769	9.49
500.971	9.57
501.173	9.57
501.375	9.62
501.577	9.62
501.779	9.69
501.981	9.7
502.183	9.74
502.385	9.72
502.587	9.75
502.788	9.88
502.99	9.9
503.192	9.93
503.394	9.92
503.596	9.88
503.798	9.86
503.999	9.91
504.201	9.94
504.403	10.01
504.605	10.07
504.806	9.99
505.008	9.89
505.21	9.94
505.411	9.95
505.613	9.89
505.815	9.92
506.016	9.99
506.218	9.99
506.42	9.88
506.621	9.91
506.823	10
507.024	10.01
507.226	9.93
507.427	9.96
507.629	10.04
507.83	9.94
508.032	9.82
508.233	9.84
508.435	9.92
508.636	9.87
508.838	9.84
509.039	9.9
509.24	9.89
509.442	9.89
509.643	9.84
509.845	9.88
510.046	9.88
510.247	9.92
510.448	9.9
510.65	9.94
510.851	10
511.052	10.01
511.254	9.87
511.455	9.91
511.656	9.86
511.857	9.83
512.058	9.79
512.26	9.85
512.461	9.79
512.662	9.88
512.863	9.8
513.064	9.77
513.265	9.81
513.466	9.85
513.667	9.79
513.868	9.87
514.069	9.91
514.27	9.95
514.471	9.89
514.672	9.96
514.873	9.97
515.074	10.01
515.275	9.96
515.476	9.97
515.677	9.97
515.878	10.02
516.079	10.02
516.28	10.11
516.481	10.24
516.682	10.24
516.882	10.19
517.083	10.22
517.284	10.14
517.485	10.07
517.686	10.01
517.886	10.03
518.087	10.01
518.288	10.11
518.488	10.1
518.689	10.16
518.89	10.15
519.091	10.13
519.291	10.06
519.492	10.12
519.692	10.17
519.893	10.24
520.094	10.32
520.294	10.34
520.495	10.33
520.695	10.37
520.896	10.37
521.096	10.4
521.297	10.47
521.497	10.55
521.698	10.51
521.898	10.5
522.099	10.49
522.299	10.54
522.499	10.52
522.7	10.53
522.9	10.56
523.101	10.65
523.301	10.61
523.501	10.57
523.702	10.6
523.902	10.65
524.102	10.64
524.302	10.68
524.503	10.74
524.703	10.76
524.903	10.73
525.103	10.71
525.304	10.76
525.504	10.93
525.704	10.93
525.904	10.98
526.104	11.04
526.304	11.02
526.504	10.94
526.705	10.99
526.905	11.13
527.105	11.2
527.305	11.24
527.505	11.24
527.705	11.23
527.905	11.14
528.105	11.08
528.305	11.08
528.505	11.13
528.705	11.27
528.905	11.29
529.105	11.38
529.304	11.44
529.504	11.48
529.704	11.45
529.904	11.51
530.104	11.53
530.304	11.61
530.503	11.6
530.703	11.59
530.903	11.62
531.103	11.6
531.303	11.56
531.502	11.64
531.702	11.72
531.902	11.79
532.101	11.81
532.301	11.79
532.501	11.81
532.7	11.86
532.9	11.83
533.1	11.94
533.299	12.04
533.499	12.09
533.698	12.03
533.898	12.06
534.097	12.12
534.297	12.17
534.496	12.19
534.696	12.25
534.895	12.34
535.095	12.3
535.294	12.32
535.494	12.31
535.693	12.38
535.892	12.43
536.092	12.45
536.291	12.49
536.491	12.55
536.69	12.6
536.889	12.51
537.088	12.49
537.288	12.54
537.487	12.61
537.686	12.58
537.886	12.72
538.085	12.8
538.284	12.85
538.483	12.81
538.682	12.96
538.882	12.98
539.081	13.09
539.28	13.09
539.479	13.15
539.678	13.1
539.877	13.14
540.076	13.17
540.275	13.24
540.474	13.32
540.673	13.4
540.872	13.46
541.071	13.47
541.27	13.48
541.469	13.55
541.668	13.56
541.867	13.62
542.066	13.68
542.265	13.76
542.464	13.7
542.663	13.85
542.862	13.99
543.06	14.07
543.259	14.08
543.458	14.26
543.657	14.23
543.856	14.17
544.054	14.18
544.253	14.22
544.452	14.13
544.651	14.18
544.849	14.24
545.048	14.29
545.247	14.36
545.445	14.46
545.644	14.49
545.843	14.47
546.041	14.55
546.24	14.67
546.438	14.82
546.637	14.86
546.836	15.11
547.034	15.15
547.233	15.22
547.431	15.24
547.63	15.43
547.828	15.35
548.027	15.46
548.225	15.44
548.423	15.47
548.622	15.49
548.82	15.56
549.019	15.59
549.217	15.71
549.415	15.81
549.614	15.86
549.812	15.92
550.01	16
550.209	16.16
550.407	16.26
550.605	16.41
550.803	16.53
551.002	16.62
551.2	16.62
551.398	16.66
551.596	16.66
551.794	16.8
551.993	16.93
552.191	17
552.389	17.16
552.587	17.3
552.785	17.32
552.983	17.39
553.181	17.57
553.379	17.61
553.577	17.68
553.775	17.88
553.973	17.93
554.171	18.01
554.369	18.14
554.567	18.19
554.765	18.23
554.963	18.38
555.161	18.38
555.359	18.5
555.557	18.66
555.755	18.82
555.952	18.94
556.15	19.12
556.348	19.22
556.546	19.39
556.744	19.46
556.941	19.54
557.139	19.68
557.337	19.79
557.535	19.85
557.732	19.97
557.93	20.08
558.128	20.21
558.325	20.32
558.523	20.47
558.721	20.6
558.918	20.63
559.116	20.61
559.313	20.6
559.511	20.69
559.708	20.7
559.906	20.91
560.104	21.06
560.301	21.34
560.498	21.43
560.696	21.53
560.893	21.68
561.091	21.8
561.288	21.85
561.486	21.96
561.683	22.12
561.88	22.17
562.078	22.29
562.275	22.33
562.473	22.5
562.67	22.71
562.867	22.81
563.064	22.99
563.262	23.1
563.459	23.19
563.656	23.27
563.853	23.39
564.051	23.4
564.248	23.49
564.445	23.64
564.642	23.75
564.839	23.81
565.036	24.03
565.234	24.22
565.431	24.25
565.628	24.24
565.825	24.35
566.022	24.41
566.219	24.51
566.416	24.58
566.613	24.75
566.81	24.85
567.007	24.88
567.204	24.8
567.401	24.88
567.598	24.87
567.795	24.94
567.991	25.02
568.188	25.25
568.385	25.26
568.582	25.41
568.779	25.51
568.976	25.6
569.172	25.64
569.369	25.78
569.566	25.8
569.763	25.88
569.96	25.97
570.156	25.99
570.353	25.96
570.55	25.98
570.746	26.02
570.943	25.9
571.14	25.91
571.336	26.04
571.533	26.1
571.729	26.14
571.926	26.24
572.123	26.37
572.319	26.4
572.516	26.39
572.712	26.39
572.909	26.56
573.105	26.51
573.302	26.59
573.498	26.63
573.695	26.63
573.891	26.58
574.087	26.62
574.284	26.55
574.48	26.64
574.677	26.62
574.873	26.6
575.069	26.68
575.266	26.77
575.462	26.71
575.658	26.89
575.854	27
576.051	26.91
576.247	26.86
576.443	26.85
576.639	26.76
576.835	26.66
577.032	26.57
577.228	26.62
577.424	26.65
577.62	26.61
577.816	26.56
578.012	26.65
578.208	26.6
578.404	26.62
578.6	26.55
578.796	26.62
578.993	26.5
579.189	26.42
579.384	26.38
579.58	26.39
579.776	26.42
579.972	26.43
580.168	26.38
580.364	26.31
580.56	26.29
580.756	26.24
580.952	26.23
581.148	26.22
581.343	26.27
581.539	26.13
581.735	25.98
581.931	26.03
582.127	26.05
582.322	25.9
582.518	26.01
582.714	26.06
582.909	25.92
583.105	25.78
583.301	25.74
583.496	25.74
583.692	25.63
583.888	25.57
584.083	25.61
584.279	25.66
584.474	25.53
584.67	25.57
584.866	25.6
585.061	25.53
585.257	25.51
585.452	25.44
585.648	25.31
585.843	25.32
586.039	25.28
586.234	25.23
586.429	25.26
586.625	25.34
586.82	25.19
587.015	25.21
587.211	25.12
587.406	25.03
587.601	24.94
587.797	24.87
587.992	24.82
588.187	24.88
588.383	24.96
588.578	25.01
588.773	25.16
588.968	25.22
589.163	25.18
589.359	25.07
589.554	24.95
589.749	25.05
589.944	25
590.139	25.08
590.334	25.04
590.529	25.16
590.724	25.05
590.919	25.02
591.114	24.92
591.309	25.07
591.504	25.07
591.699	25.01
591.894	24.98
592.089	24.92
592.284	24.93
592.479	24.97
592.674	25
592.869	25.06
593.064	25.15
593.259	25.11
593.454	25.11
593.648	25.14
593.843	25.2
594.038	25.18
594.233	25.19
594.428	25.16
594.622	25.27
594.817	25.31
595.012	25.31
595.206	25.42
595.401	25.5
595.596	25.5
595.79	25.5
595.985	25.57
596.18	25.55
596.374	25.58
596.569	25.53
596.763	25.52
596.958	25.61
597.153	25.67
597.347	25.62
597.542	25.88
597.736	25.95
597.931	26.02
598.125	26.08
598.319	26.29
598.514	26.18
598.708	26.17
598.903	26.19
599.097	26.16
599.291	26
599.486	25.99
599.68	26.06
599.874	26.14
600.069	26.16
600.263	26.23
600.457	26.23
600.651	26.26
600.846	26.13
601.04	26.23
601.234	26.12
601.428	26.19
601.622	26.14
601.817	26.17
602.011	26.06
602.205	26.15
602.399	26.07
602.593	26.05
602.787	26.03
602.981	26.15
603.175	26.14
603.369	26.07
603.563	26.23
603.757	26.2
603.951	26.14
604.145	26.15
604.339	26.18
604.533	26.04
604.727	26
604.921	25.93
605.115	25.89
605.309	25.93
605.502	25.87
605.696	25.84
605.89	25.79
606.084	25.72
606.278	25.57
606.471	25.55
606.665	25.44
606.859	25.36
607.053	25.33
607.246	25.31
607.44	25.16
607.634	25.13
607.827	25.05
608.021	24.9
608.214	24.88
608.408	24.81
608.602	24.84
608.795	24.8
608.989	24.81
609.182	24.69
609.376	24.68
609.569	24.47
609.763	24.38
609.956	24.23
610.15	24.15
610.343	24.03
610.537	24.03
610.73	23.96
610.923	23.83
611.117	23.74
611.31	23.69
611.504	23.53
611.697	23.41
611.89	23.42
612.083	23.3
612.277	23.25
612.47	23.22
612.663	23.13
612.856	23.02
613.05	23.02
613.243	22.88
613.436	22.72
613.629	22.63
613.822	22.56
614.015	22.44
614.209	22.28
614.402	22.29
614.595	22.28
614.788	22.21
614.981	22.13
615.174	22.13
615.367	22.05
615.56	21.87
615.753	21.81
615.946	21.67
616.139	21.69
616.332	21.69
616.525	21.61
616.718	21.6
616.911	21.57
617.103	21.52
617.296	21.45
617.489	21.46
617.682	21.4
617.875	21.41
618.067	21.27
618.26	21.15
618.453	21.16
618.646	21.09
618.838	20.96
619.031	20.9
619.224	20.91
619.417	20.82
619.609	20.81
619.802	20.87
619.994	20.95
620.187	20.8
620.38	20.81
620.572	20.7
620.765	20.55
620.957	20.34
621.15	20.36
621.342	20.23
621.535	20.19
621.727	20.23
621.92	20.26
622.112	20.15
622.305	20.26
622.497	20.22
622.69	20.13
622.882	20.08
623.074	20.19
623.267	20.09
623.459	20
623.651	20
623.844	19.97
624.036	19.8
624.228	19.77
624.42	19.86
624.613	19.86
624.805	19.88
624.997	19.92
625.189	19.9
625.381	19.91
625.574	19.85
625.766	19.74
625.958	19.74
626.15	19.71
626.342	19.57
626.534	19.56
626.726	19.51
626.918	19.47
627.11	19.42
627.302	19.45
627.494	19.45
627.686	19.45
627.878	19.41
628.07	19.39
628.262	19.37
628.454	19.26
628.646	19.19
628.838	19.18
629.029	19.01
629.221	18.91
629.413	18.88
629.605	18.9
629.797	18.75
629.989	18.87
630.18	18.84
630.372	18.84
630.564	18.75
630.755	18.75
630.947	18.67
631.139	18.65
631.33	18.56
631.522	18.67
631.714	18.68
631.905	18.6
632.097	18.61
632.289	18.63
632.48	18.42
632.672	18.29
632.863	18.16
633.055	18.02
633.246	18.02
633.438	18.02
633.629	17.95
633.821	17.93
634.012	17.95
634.203	17.74
634.395	17.7
634.586	17.83
634.777	17.85
634.969	17.71
635.16	17.76
635.351	17.76
635.543	17.59
635.734	17.5
635.925	17.54
636.117	17.52
636.308	17.39
636.499	17.4
636.69	17.35
636.881	17.3
637.073	17.25
637.264	17.24
637.455	17.19
637.646	17.21
637.837	17.21
638.028	17.11
638.219	17.08
638.41	16.97
638.601	16.85
638.792	16.72
638.983	16.62
639.174	16.46
639.365	16.47
639.556	16.45
639.747	16.43
639.938	16.49
640.129	16.53
640.32	16.49
640.511	16.44
640.701	16.32
640.892	16.21
641.083	16.17
641.274	16.04
641.465	16.1
641.655	16.01
641.846	16.02
642.037	15.85
642.228	15.84
642.418	15.76
642.609	15.73
642.8	15.63
642.99	15.67
643.181	15.61
643.372	15.44
643.562	15.4
643.753	15.36
643.943	15.29
644.134	15.12
644.324	15.13
644.515	15.09
644.705	15.1
644.896	15.09
645.086	15.05
645.277	14.92
645.467	14.89
645.658	14.7
645.848	14.59
646.038	14.62
646.229	14.6
646.419	14.46
646.61	14.4
646.8	14.32
646.99	14.27
647.18	14.29
647.371	14.31
647.561	14.19
647.751	14.13
647.941	14.06
648.132	13.99
648.322	13.92
648.512	14.04
648.702	13.98
648.892	13.96
649.082	13.95
649.272	13.8
649.462	13.59
649.653	13.54
649.843	13.41
650.033	13.3
650.223	13.38
650.413	13.38
650.603	13.32
650.793	13.3
650.983	13.19
651.172	13.03
651.362	13.03
651.552	12.97
651.742	12.86
651.932	12.77
652.122	12.75
652.312	12.64
652.502	12.66
652.691	12.6
652.881	12.59
653.071	12.57
653.261	12.41
653.45	12.27
653.64	12.28
653.83	12.19
654.019	12.15
654.209	12.2
654.399	12.26
654.588	12.13
654.778	12.11
654.968	12
655.157	11.92
655.347	11.75
655.536	11.66
655.726	11.5
655.915	11.38
656.105	11.28
656.294	11.15
656.484	10.98
656.673	10.93
656.863	10.89
657.052	10.72
657.241	10.64
657.431	10.6
657.62	10.41
657.809	10.24
657.999	10.12
658.188	9.94
658.377	9.92
658.567	9.86
658.756	9.8
658.945	9.67
659.134	9.67
659.324	9.47
659.513	9.39
659.702	9.2
659.891	9.21
660.08	9.05
660.269	9.01
660.458	8.89
660.648	8.89
660.837	8.72
661.026	8.49
661.215	8.4
661.404	8.23
661.593	8.15
661.782	8.03
661.971	8.15
662.16	8.04
662.349	8.11
662.538	7.98
662.726	7.93
662.915	7.79
663.104	7.55
663.293	7.37
663.482	7.34
663.671	7.23
663.86	7.12
664.048	7.11
664.237	7.12
664.426	6.88
664.615	6.88
664.803	6.84
664.992	6.87
665.181	6.69
665.369	6.68
665.558	6.53
665.747	6.43
665.935	6.42
666.124	6.51
666.312	6.62
666.501	6.65
666.69	6.6
666.878	6.5
667.067	6.41
667.255	6.32
667.444	6.42
667.632	6.44
667.82	6.39
668.009	6.33
668.197	6.3
668.386	6.13
668.574	6.18
668.762	6.23
668.951	6.23
669.139	6.2
669.327	6.24
669.516	6.18
669.704	6.23
669.892	6.27
670.08	6.35
670.269	6.36
670.457	6.38
670.645	6.28
670.833	6.31
671.021	6.22
671.21	6.25
671.398	6.29
671.586	6.3
671.774	6.31
671.962	6.35
672.15	6.27
672.338	6.23
672.526	6.26
672.714	6.14
672.902	6.21
673.09	6.45
673.278	6.59
673.466	6.59
673.654	6.86
673.842	6.88
674.03	6.83
674.218	6.78
674.405	6.87
674.593	6.83
674.781	6.97
674.969	6.89
675.157	6.97
675.344	6.95
675.532	6.97
675.72	7.02
675.908	7.25
676.095	7.17
676.283	7.36
676.471	7.47
676.658	7.43
676.846	7.35
677.033	7.62
677.221	7.54
677.409	7.54
677.596	7.6
677.784	7.69
677.971	7.75
678.159	7.89
678.346	7.98
678.534	7.96
678.721	8.14
678.909	8.2
679.096	8.29
679.283	8.43
679.471	8.63
679.658	8.65
679.846	8.76
680.033	8.88
680.22	8.84
680.408	8.84
680.595	8.98
680.782	9.02
680.969	9.08
681.157	9.11
681.344	9.13
681.531	9.02
681.718	8.98
681.905	9.13
682.093	9.27
682.28	9.58
682.467	9.86
682.654	10.04
682.841	10.06
683.028	10.32
683.215	10.35
683.402	10.32
683.589	10.58
683.776	10.65
683.963	10.67
684.15	10.99
684.337	11.11
684.524	11.16
684.711	11.43
684.898	11.65
685.085	11.66
685.271	12.02
685.458	12.28
685.645	12.53
685.832	13.07
686.019	13.3
686.205	13.58
686.392	13.83
686.579	14.03
686.766	14.1
686.952	14.47
687.139	14.84
687.326	15.14
687.512	15.65
687.699	15.98
687.886	16.34
688.072	16.61
688.259	17.08
688.445	17.32
688.632	17.48
688.818	18.06
689.005	18.49
689.191	18.93
689.378	19.51
689.564	20.33
689.751	20.61
689.937	21.17
690.124	21.54
690.31	22.06
690.496	22.4
690.683	23.14
690.869	23.66
691.055	24.36
691.242	24.94
691.428	25.49
691.614	26.04
691.8	26.66
691.987	27.18
692.173	27.87
692.359	28.6
692.545	29.24
692.731	29.75
692.918	30.36
693.104	30.76
693.29	31.42
693.476	31.98
693.662	32.86
693.848	33.49
694.034	34.26
694.22	34.91
694.406	35.68
694.592	36.1
694.778	36.9
694.964	37.55
695.15	38.07
695.336	38.63
695.522	39.57
695.708	40.28
695.894	40.78
696.08	41.45
696.265	41.89
696.451	42.37
696.637	43.02
696.823	43.68
697.009	44.51
697.194	45.56
697.38	46.15
697.566	46.76
697.751	47.52
697.937	48.05
698.123	48.56
698.308	49.57
698.494	50.16
698.68	50.87
698.865	51.48
699.051	52.1
699.236	52.64
699.422	53.11
699.607	53.7
699.793	54.58
699.978	55.12
700.164	55.3
700.349	56.36
700.535	57.25
700.72	57.76
700.906	58.74
701.091	59.69
701.276	59.98
701.462	60.6
701.647	61.33
701.832	61.73
702.018	62.4
702.203	63.14
702.388	63.61
702.573	64.04
702.759	64.76
702.944	65.09
703.129	65.41
703.314	65.77
703.499	66.22
703.684	66.72
703.87	67.3
704.055	68.35
704.24	68.98
704.425	69.43
704.61	69.63
704.795	69.96
704.98	69.52
705.165	69.81
705.35	70.13
705.535	70.54
705.72	71.26
705.905	72.21
706.09	72.87
706.275	73.74
706.459	74.2
706.644	74.57
706.829	75.02
707.014	75.04
707.199	75.09
707.384	75.53
707.568	75.96
707.753	76.95
707.938	77.64
708.123	78.23
708.307	78.61
708.492	78.67
708.677	78.13
708.861	78.2
709.046	78.23
709.231	78.73
709.415	79.04
709.6	79.64
709.784	79.77
709.969	80.26
710.153	80.16
710.338	80.82
710.522	80.7
710.707	81.4
710.891	81.47
711.076	82.1
711.26	81.66
711.445	82.19
711.629	82.26
711.813	83.02
711.998	83.01
712.182	83.49
712.366	83.97
712.551	84.64
712.735	84.28
712.919	85.05
713.103	85.47
713.288	85.44
713.472	85.35
713.656	86.07
713.84	85.86
714.024	86.46
714.208	86.65
714.393	87.1
714.577	87.29
714.761	87.17
714.945	87.14
715.129	87.12
715.313	86.78
715.497	86.51
715.681	87.18
715.865	87.42
716.049	87.93
716.233	88.64
716.417	89.02
716.601	89.05
716.785	89.07
716.968	89.07
717.152	89.17
717.336	89.14
717.52	89.14
717.704	90.04
717.888	90.44
718.071	90.27
718.255	90.79
718.439	91.03
718.622	90.3
718.806	90.47
718.99	90.49
719.174	90.58
719.357	90.87
719.541	91.33
719.724	91.57
719.908	92.5
720.092	93.33
720.275	93.72
720.459	93.97
720.642	93.69
720.826	93.74
721.009	92.9
721.193	91.63
721.376	91.52
721.559	92.48
721.743	92.54
721.926	92.92
722.11	93.67
722.293	93.55
722.476	92.51
722.66	92.13
722.843	92.23
723.026	92.36
723.21	92.74
723.393	93.39
723.576	93.63
723.759	92.91
723.942	93.59
724.126	93.5
724.309	93.7
724.492	94.06
724.675	95.55
724.858	95.77
725.041	96.67
725.224	96.93
725.407	96.24
725.59	95.68
725.774	95.28
725.957	94.55
726.14	94.79
726.322	94.87
726.505	94.53
726.688	94.76
726.871	94.46
727.054	94.47
727.237	95.28
727.42	95.79
727.603	96.24
727.786	96.4
727.968	96.49
728.151	96.4
728.334	96.25
728.517	95.87
728.699	96.3
728.882	95.8
729.065	96.35
729.248	96.26
729.43	96.98
729.613	97.86
729.796	98.33
729.978	97.2
730.161	97.75
730.343	97.99
730.526	97.83
730.708	98.13
730.891	99.33
731.073	98.87
731.256	98.23
731.438	98.69
731.621	99.12
731.803	99.73
731.986	100.27
732.168	100.82
732.35	100.27
732.533	99.49
732.715	98.48
732.898	99.11
733.08	98.67
733.262	98.43
733.444	98.4
733.627	97.7
733.809	97.59
733.991	97.92
734.173	98.6
734.355	99.21
734.538	100.64
734.72	100.31
734.902	101.18
735.084	100.44
735.266	100.69
735.448	99.87
735.63	99.95
735.812	99.55
735.994	100.01
736.176	100.04
736.358	100.7
736.54	101.27
736.722	100.86
736.904	101.16
737.086	100.29
737.268	101.26
737.45	101.82
737.632	101.53
737.814	100.83
737.995	101.79
738.177	101.55
738.359	100.9
738.541	101.84
738.723	102.44
738.904	102.24
739.086	101.93
739.268	101.64
739.449	100.99
739.631	100.78
739.813	100.82
739.994	101.27
740.176	101.98
740.358	102.34
740.539	103.14
740.721	103.88
740.902	104.38
741.084	104.01
741.265	103.67
741.447	104.06
741.628	102.88
741.81	100.64
741.991	101.51
742.172	102.17
742.354	101.36
742.535	102.27
742.717	104.28
742.898	102.97
743.079	103.45
743.261	103.56
743.442	102.94
743.623	102.36
743.804	104.23
743.986	104.28
744.167	102.95
744.348	104.27
744.529	104.52
744.71	102.93
744.891	102.58
745.073	103.61
745.254	103.27
745.435	103.52
745.616	102.63
745.797	102.22
745.978	102.01
746.159	101.2
746.34	100.36
746.521	101.01
746.702	101.15
746.883	102.18
747.064	101.22
747.245	101.51
747.426	102.25
747.606	101.65
747.787	101.16
747.968	101.11
748.149	100.91
748.33	101.46
748.51	101.59
748.691	99.99
748.872	101.2
749.053	101.06
749.233	100.38
749.414	100.2
749.595	101.17
749.775	99.75
749.956	98.94
750.137	98.03
750.317	98.23
750.498	98.95
750.678	99.59
750.859	100.65
751.04	102.07
751.22	102.21
751.4	100.55
751.581	101.26
751.761	101.21
751.942	100.58
752.122	101.11
752.303	101.58
752.483	100.64
752.663	101.07
752.844	102.18
753.024	101.9
753.204	102.82
753.385	102.17
753.565	100.27
753.745	97.98
753.925	97
754.106	98
754.286	99.33
754.466	99.91
754.646	102.75
754.826	103.85
755.006	101.87
755.187	103.17
755.367	104.09
755.547	103.8
755.727	103.74
755.907	102.57
756.087	102.36
756.267	101.03
756.447	99.59
756.627	99.39
756.807	101.65
756.987	100.42
757.167	101.82
757.346	100.63
757.526	99.45
757.706	99.38
757.886	98.66
758.066	98.58
758.246	100.46
758.425	101.66
758.605	100.87
758.785	101.71
758.965	100.91
759.144	97.93
759.324	98.59
759.504	99.11
759.683	99.1
759.863	98.83
760.043	101.09
760.222	99.08
760.402	98.1
760.581	98.57
760.761	98.69
760.94	96.22
761.12	95.69
761.299	98.41
761.479	98.13
761.658	97.3
761.838	99.02
762.017	100.72
762.197	98.55
762.376	99.25
762.555	101.13
762.735	102.31
762.914	100.37
763.093	102.1
763.273	99.15
763.452	99.5
763.631	96.54
763.81	96.22
763.99	94.56
764.169	96.61
764.348	93.28
764.527	95.65
764.706	98.25
764.885	99.39
765.064	96.56
765.243	98.43
765.423	96.77
765.602	96.18
765.781	94.98
765.96	95.41
766.139	95.98
766.318	96.58
766.497	97.4
766.676	98.39
766.854	100.94
767.033	101.17
767.212	100.92
767.391	99.04
767.57	98.88
767.749	98.98
767.928	98.33
768.106	96.37
768.285	96.56
768.464	96.39
768.643	95.29
768.821	96.32
769	98.82
769.179	98.97
769.357	95.03
769.536	93.36
769.715	93.54
769.893	93.21
770.072	93.5
770.25	93.9
770.429	95.03
770.607	93.35
770.786	94.31
770.964	94.51
771.143	98.19
771.321	98.81
771.5	98.89
771.678	96.92
771.857	94.24
772.035	94.11
772.213	92.64
772.392	91
772.57	91.97
772.748	94.43
772.927	90.94
773.105	92.36
773.283	95.27
773.461	96.95
773.64	94.59
773.818	94.33
773.996	93.86
774.174	92.93
774.352	89.39
774.531	90.76
774.709	92.82
774.887	92.01
775.065	91.2
775.243	92.39
775.421	94.5
775.599	97.74
775.777	96.33
775.955	96.41
776.133	96.69
776.311	95.3
776.489	90.52
776.667	92.44
776.844	92.69
777.022	88.8
777.2	88.76
777.378	90.5
777.556	91.83
777.734	90.9
777.911	94.65
778.089	93.85
778.267	94.78
778.445	91.69
778.622	93.14
778.8	92.18
778.978	94.4
779.155	92.21
779.333	93.69
779.511	88.82
779.688	88.31
779.866	83.34
780.043	81.55
780.221	81.18
780.398	83.03
780.576	84.03
780.753	87.48
780.931	89.63
781.108	90.69
781.286	94.35
781.463	91.93
781.64	91.71
781.818	93.77
781.995	93.65
782.172	90.85
782.35	93.85
782.527	91.54
782.704	91.88
782.882	93.37
783.059	94.25
783.236	92.63
783.413	95.14
783.59	91.61
783.768	88.67
783.945	88.4
784.122	90.56
784.299	87.63
784.476	89.73
784.653	92.85
784.83	92.95
785.007	87.96
785.184	90.79
785.361	89.31
785.538	89.6
785.715	86.68
785.892	91.27
786.069	92.6
786.246	94.57
786.423	90.77
786.6	93.63
786.776	93.81
786.953	90.92
787.13	88.82
787.307	87.58
787.484	89.9
787.66	88.6
787.837	86.15
788.014	88.34
788.191	87.36
788.367	84.86
788.544	86.12
788.721	88.78
788.897	87.51
789.074	92.28
789.25	88.72
789.427	88.5
789.603	86.22
789.78	87.56
789.956	77.52
790.133	82.5
790.309	81.09
790.486	84.84
790.662	83.1
790.839	87.77
791.015	88.83
791.192	85.88
791.368	83.87
791.544	82.62
791.721	89.5
791.897	84.56
792.073	85.9
792.249	86.89
792.426	88.01
792.602	82.87
792.778	81.09
792.954	78.19
793.13	73.79
793.307	71.95
793.483	69.64
793.659	70.83
793.835	76.33
794.011	81.44
794.187	75.54
794.363	76.43
794.539	81.01
794.715	77.73
794.891	73.98
795.067	80.23
795.243	86.02
795.419	83.29
795.595	84
795.771	85.57
795.947	87.36
796.122	78.9
796.298	78.51
796.474	82.18
796.65	81.59
796.826	78.98
797.001	84.72
797.177	82.58
797.353	79.61
797.529	80.87
797.704	79.84
797.88	77.66
798.056	73.92
798.231	73.04
798.407	73.76
798.582	70.34
798.758	73.54
798.934	82.67
799.109	84.75
799.285	78.43
799.46	86.27
799.636	85.17
799.811	84.17
799.986	85.27
800.162	95.71
800.337	90.94
800.513	88.89
800.688	83.89
800.863	84.63
801.039	78.97
801.214	76.39
801.389	77.45
801.565	83.08
801.74	80.95
801.915	82.06
802.09	88.53
802.265	93.4
802.441	88.67
802.616	89.07
802.791	87.32
802.966	83.29
803.141	84.12
803.316	78.82
803.491	78.35
803.666	74.43
803.841	74.46
804.016	69.29
804.191	77.87
804.366	75.65
804.541	74.95
804.716	65.67
804.891	61.8
805.066	60.91
805.241	64.64
805.416	70.33
805.591	75.25
805.765	78.08
805.94	80.57
806.115	77.56
806.29	72.68
806.464	82.57
806.639	82.39
806.814	69.29
806.989	59.68
807.163	62.19
807.338	56.68
807.512	54.74
807.687	50.97
807.862	58.05
808.036	58.71
808.211	61.94
808.385	67.89
808.56	75.77
808.734	80.69
808.909	82.45
809.083	70.78
809.258	74.03
809.432	83
809.606	66.79
809.781	63.46
809.955	78.93
810.13	77.84
810.304	66.38
810.478	73.64
810.652	79.36
810.827	74.56
811.001	71.02
811.175	71.57
811.349	72.96
811.524	65.31
811.698	56.99
811.872	55.74
812.046	64.15
812.22	65.92
812.394	71.95
812.568	78.14
812.742	82.87
812.916	71.28
813.09	68.02
813.264	70.47
813.438	67.84
813.612	60.99
813.786	58.19
813.96	66.45
814.134	64.2
814.308	64.48
814.482	64.26
814.656	79.82
814.83	85.42
815.003	83.96
815.177	83.1
815.351	81.7
815.525	88.31
815.698	79.81
815.872	63.95
816.046	61.01
816.219	62.38
816.393	56.27
816.567	60.5
816.74	66.61
816.914	70.34
817.088	70.86
817.261	63.59
817.435	56.81
817.608	56.51
817.782	58.9
817.955	57.65
818.129	51.22
818.302	56.59
818.475	72.21
818.649	66.3
818.822	63.58
818.996	76.81
819.169	74.66
819.342	59.51
819.516	63.87
819.689	71.64
819.862	67.32
820.035	62.76
820.209	53.22
820.382	56.91
820.555	55.61
820.728	53.08
820.901	46.92
821.075	62.65
821.248	73.1
821.421	68.25
821.594	62.82
821.767	79.18
821.94	95.15
822.113	69.65
822.286	63.77
822.459	77.37
822.632	68.41
822.805	58.02
822.978	68.3
823.151	77.31
823.324	56.82
823.496	34.51
823.669	32.2
823.842	34.14
824.015	21.74
824.188	24.55
824.361	33.3
824.533	33.19
824.706	45.77
824.879	46.48
825.051	73.79
825.224	77.38
825.397	71.77
825.569	52.33
825.742	60.05
825.915	56.17
826.087	50.05
826.26	39.29
826.432	36.83
826.605	37.54
826.777	25.48
826.95	31.13
827.122	41.12
827.295	50.89
827.467	44.77
827.64	29.8
827.812	17.35
827.984	25.18
828.157	17.2
828.329	11.31
828.501	22.93
828.674	48
828.846	40.97
829.018	45.86
829.19	47.16
829.363	49.47
829.535	38.32
829.707	33.86
829.879	27.62
830.051	33.42
830.223	45.02
830.395	30.82
830.568	29.19
830.74	37.56
830.912	46.11
831.084	24.53
831.256	29.39
831.428	23.87
831.6	17.6
831.772	6.86
831.943	17.58
832.115	38.55
832.287	58.79
832.459	62.45
832.631	68.65
832.803	72.39
832.975	59.35
833.146	47.64
833.318	40.87
833.49	38.19
833.662	27.81
833.833	24.94
834.005	34.76
834.177	60.5
834.348	57.01
834.52	46
834.692	42.2
834.863	32.92
835.035	7.3
835.206	13.32
835.378	34.75
835.549	26.2
835.721	42.42
835.892	26.03
836.064	30.92
836.235	36.03
836.407	58.87
836.578	34.06
836.749	65.94
836.921	59.9
837.092	44.56
837.264	7.97
837.435	1.6
837.606	-11.88
837.777	3.59
837.949	-4.97
838.12	-0.2
838.291	6.75
838.462	15.94
838.633	9.34
838.805	11.95
838.976	34.59
839.147	39.86
839.318	22.36
839.489	15.28
839.66	25.84
839.831	45.84
840.002	23.12
840.173	19.19
840.344	24.07
840.515	17.89
840.686	-23.16
840.857	-43.52
841.028	-44.57
841.199	-26.32
841.369	-36.12
841.54	-23.9
841.711	16.07
841.882	6.82
842.053	-15.5
842.223	-31.59
842.394	-7.78
842.565	-15.07
842.736	14.82
842.906	26.78
843.077	46.67
843.248	43.04
843.418	52.12
843.589	27.62
843.759	61.19
843.93	61.98
844.101	52.93
844.271	56.87
844.442	80.23
844.612	67.8
844.783	50.42
844.953	28.81
845.123	33
845.294	22.74
845.464	-2.47
845.635	8.55
845.805	30.8
845.975	38.85
846.146	25.03
846.316	32.97
846.486	52.38
846.656	49.93
846.827	9.39
846.997	14.54
847.167	21.78
847.337	8.96
847.507	21.43
847.677	24.07
847.848	31.39
848.018	27.96
848.188	37.89
848.358	10.77
848.528	22.02
848.698	23.37
848.868	-0.33
849.038	-22.15
849.208	7.54
849.378	20.62
849.548	-21.67
849.718	1.02
849.887	45.4
850.057	-21.14
850.227	-33.86
850.397	-6.28
850.567	16.17
850.737	23.77
850.906	7.63
851.076	-22.45
851.246	-15.79
851.415	-15.42
851.585	-9.18
851.755	11.94
851.924	35.96
852.094	31.4
852.264	18.39
852.433	-15.21
852.603	-16.8
852.772	-31.14
852.942	-30.42
853.111	-42.82
853.281	9.11
853.45	23.02
853.62	24.77
853.789	-7.39
853.959	18.2
854.128	-4.13
854.297	-31.61
854.467	-55.43
854.636	-19.21
854.805	-26.87
854.975	-47.96
855.144	-32.67
855.313	-6.79
855.482	2.92
855.652	-9.66
855.821	-7.28
855.99	6.43
856.159	10.88
856.328	-10.39
856.497	1.4
856.667	22.95
856.836	18.35
857.005	-12.57
857.174	-53.27
857.343	-51.43
857.512	3.98
857.681	-74.84
857.85	-61.39
858.019	-22.75
858.188	-22.59
858.356	-61.16
858.525	-41.86
858.694	-49.79
858.863	-49.36
859.032	-46.75
859.201	-41.83
859.369	-1.7
859.538	28.19
859.707	18.49
859.876	13.88
860.044	46.86
860.213	34.97
860.382	20.57
860.55	30.65
860.719	45.69
860.888	39.69
861.056	12.29
861.225	-8.7
861.393	-5.02
861.562	50.77
861.73	16.22
861.899	23.49
862.067	5.7
862.236	21.5
862.404	-28.17
862.572	-43.89
862.741	-26.26
862.909	-10.11
863.078	-35.87
863.246	-36.95
863.414	-21.41
863.582	-42.25
863.751	-44.54
863.919	-53.26
864.087	6.03
864.255	13.68
864.424	-0.22
864.592	-1.57
864.76	40.41
864.928	23.83
865.096	-2
865.264	0.43
865.432	23.08
865.6	5.2
865.768	-87.81
865.936	-134.84
866.104	-97.02
866.272	-142.58
866.44	-120.42
866.608	-47.42
866.776	-44.11
866.944	-75.03
867.112	-135.92
867.28	-211.78
867.448	-325.41
867.615	-166.47
867.783	-38.17
867.951	-38.1
868.119	25.5
868.286	-6.71
868.454	-11.84
868.622	-66.57
868.789	-45.71
868.957	-11.3
869.125	-23.62
869.292	-33.37
869.46	-11.45
869.627	1.05
869.795	-51.64
869.963	-46.65
870.13	12.15
870.298	20.07
870.465	-16.19
870.632	-29.22
870.8	-24.26
870.967	-57.7
871.135	-122.72
871.302	-76.03
871.469	-16.61
871.637	3.84
871.804	-10.98
871.971	-18.33
872.139	-17.3
872.306	9.6
872.473	-20.59
872.64	-66.29
872.807	-36.65
872.975	-31.08
873.142	-80.93
873.309	-60.46
873.476	64.56
873.643	72.51
873.81	59.01
873.977	39.85
874.144	25.29
874.311	-21.71
874.478	-80.63
874.645	-102.45
874.812	-397.14
874.979	17442.86
875.146	-384.11
875.313	-112.11
875.48	-75.65
875.647	-49.06
875.813	-72.61
875.98	-92.29
876.147	-135.1
876.314	-148.23
876.481	-159.36
876.647	-176.63
876.814	-94.18
876.981	-73.75
877.147	-132.61
877.314	-115.8
877.481	-20.51
877.647	-11.58
877.814	-66.23
877.98	3.7
878.147	21.7
878.314	38.42
878.48	-13.04
878.647	-4
878.813	39.47
878.979	49.8
879.146	11.25
879.312	26.56
879.479	37.81
879.645	30.49
879.811	-18.88
879.978	2.06
880.144	8.04
880.31	-7.66
880.477	-82.01
880.643	-86.49
880.809	-81.12
880.975	-27.02
881.142	-45.62
881.308	-26.06
881.474	20.89
881.64	27.14
881.806	-18.79
881.972	-0.62
882.138	10.01
882.304	20.07
882.47	-37.51
882.636	-49.84
882.802	-30.14
882.968	-8.01
883.134	-79.83
883.3	-129.75
883.466	-21.96
883.632	-52.76
883.798	-103.06
883.964	-83.39
884.129	-45.8
884.295	-74.17
884.461	-65.3
884.627	-80.58
884.793	-61.33
884.958	-30.28
885.124	-42.7
885.29	-28.76
885.455	-5.9
885.621	-10.3
885.787	-143.89
885.952	-81.27
886.118	-106.84
886.283	-111.41
886.449	-105.57
886.614	-64.04
886.78	-85.83
886.945	-121.39
887.111	-178.98
887.276	-211.62
887.442	-346.5
887.607	-241.94
887.773	-299.62
887.938	-196.24
888.103	-99.56
888.269	-70.36
888.434	-52.44
888.599	-27.77
888.764	15.16
888.93	-6.3
889.095	-13.08
889.26	-26.16
889.425	2.17
889.59	2.9
889.756	15.73
889.921	28.7
890.086	18.23
890.251	40.25
890.416	-1.32
890.581	-10.59
890.746	-24.3
890.911	-5.75
891.076	-61.24
891.241	-89.2
891.406	-110.43
891.571	-11.61
891.736	-32.12
891.901	-46.32
892.065	-27.48
892.23	-18.86
892.395	-97.82
892.56	-122.46
892.725	-73.96
892.889	-52.32
893.054	-126.86
893.219	-116.71
893.384	-100.6
893.548	-114.74
893.713	-153.59
893.878	-112.32
