Data from Ofra_PP_Phys_2CX12B_Reflection_2.txt Node
Date: Sat Jul 24 20:07:34 EDT 2021
User: USUARIO
Spectrometer: FLMT01687
Trigger mode: 0
Integration Time (sec): 1.100000E0
Scans to average: 2
Electric dark correction enabled: true
Nonlinearity correction enabled: false
Boxcar width: 2
XAxis mode: Wavelengths
Number of Pixels in Spectrum: 3648
>>>>>Begin Spectral Data<<<<<
179.494	649.11
179.716	828.6
179.937	1475.34
180.158	1247.69
180.38	582.44
180.601	-774.44
180.823	3.43
181.044	192.25
181.265	8.89
181.486	4.13
181.708	-29.11
181.929	-2858.67
182.15	841.77
182.372	70.5
182.593	16933.33
182.814	642.05
183.035	258.67
183.257	193.87
183.478	78.77
183.699	88.77
183.92	16.96
184.141	46.67
184.363	-31.48
184.584	60.06
184.805	43.23
185.026	78.09
185.247	82.21
185.468	67.25
185.689	43.79
185.91	46.44
186.132	24.4
186.353	22.82
186.574	51.58
186.795	65.89
187.016	26.32
187.237	47.49
187.458	41.59
187.679	70.76
187.9	89.98
188.121	144.84
188.342	153.26
188.563	136.41
188.784	134.83
189.005	129.18
189.226	113.74
189.447	106.38
189.667	101.68
189.888	62.62
190.109	51.26
190.33	27.58
190.551	-3.2
190.772	-12.17
190.993	-2.43
191.214	2.53
191.434	-11.93
191.655	50.5
191.876	51.87
192.097	45.77
192.318	28.09
192.538	9.56
192.759	-24.09
192.98	-30.37
193.201	-42.33
193.421	-72.41
193.642	-26.36
193.863	-16.46
194.083	-19.53
194.304	-4.82
194.525	26
194.745	18.87
194.966	-25.73
195.187	-38.71
195.407	-79.95
195.628	-101.99
195.848	-79.01
196.069	-64.82
196.29	-36.62
196.51	-73.63
196.731	-94.83
196.951	-83.86
197.172	-77.21
197.392	-75.05
197.613	-49
197.833	-48.44
198.054	-72.51
198.274	-50.47
198.495	-97.05
198.715	-51.91
198.936	-49.32
199.156	-12.18
199.377	-39.24
199.597	-31.19
199.817	-22.56
200.038	22.99
200.258	33.99
200.479	72
200.699	76.97
200.919	69.86
201.14	15.38
201.36	-7.62
201.58	-18.43
201.801	-13.6
202.021	-54.31
202.241	-4.76
202.461	-23.47
202.682	-23.46
202.902	3.91
203.122	8.49
203.342	-2.01
203.563	37
203.783	61.06
204.003	-14.96
204.223	-62.57
204.443	32.2
204.663	-18.36
204.884	-44.15
205.104	12.63
205.324	72.68
205.544	41.7
205.764	51.67
205.984	55.65
206.204	60.59
206.424	38.44
206.644	16.82
206.864	13.99
207.084	10.91
207.304	19.57
207.525	-18.53
207.745	-0.14
207.964	-17.83
208.184	-15.24
208.404	-26.82
208.624	-18.79
208.844	-6.5
209.064	-23.48
209.284	-23.14
209.504	-6.26
209.724	23.69
209.944	20.62
210.164	53.37
210.384	66.87
210.604	63.51
210.823	9.16
211.043	-32.29
211.263	-31.75
211.483	-43.99
211.703	-56.92
211.922	-18.89
212.142	37.82
212.362	50.87
212.582	27.83
212.801	40.17
213.021	6.36
213.241	0.18
213.461	-38
213.68	-52.09
213.9	-78.94
214.12	-42.05
214.339	-44.81
214.559	-24.63
214.779	1.43
214.998	36.6
215.218	-0.91
215.438	-10.96
215.657	-24.81
215.877	27.89
216.096	22.52
216.316	60.48
216.535	61.42
216.755	65.55
216.974	31.76
217.194	28.96
217.413	1.51
217.633	2.71
217.852	-55.74
218.072	-49.91
218.291	-58.72
218.511	-29.83
218.73	-90.03
218.95	-72.31
219.169	-70.18
219.389	-96.94
219.608	-116.73
219.827	-42.23
220.047	-24.16
220.266	-30.76
220.485	-28.91
220.705	0.61
220.924	-55.65
221.143	-34.28
221.363	-80.98
221.582	-43.6
221.801	-47.67
222.021	3.9
222.24	11.77
222.459	67.97
222.678	58.38
222.897	52.17
223.117	38.17
223.336	36.7
223.555	35.82
223.774	63.09
223.993	70.58
224.213	113.09
224.432	72.6
224.651	91.95
224.87	47.91
225.089	71.47
225.308	57.43
225.527	71.3
225.746	57.68
225.965	59.39
226.184	29.27
226.404	34.44
226.623	21.18
226.842	22.35
227.061	59.92
227.28	74.95
227.499	77.01
227.718	101.14
227.936	96.74
228.155	87.29
228.374	37.31
228.593	29.57
228.812	26.79
229.031	33.78
229.25	-4.24
229.469	30.38
229.688	34.81
229.907	34.03
230.125	35.68
230.344	64.18
230.563	64.87
230.782	64.95
231.001	17.69
231.22	24.16
231.438	5.31
231.657	3.01
231.876	0.41
232.095	25.84
232.313	32.79
232.532	35.74
232.751	41.58
232.969	33.65
233.188	39.22
233.407	22.98
233.625	15.97
233.844	-0.12
234.063	3.81
234.281	43.16
234.5	45.51
234.719	51.07
234.937	73.53
235.156	80.72
235.374	55.42
235.593	65.99
235.811	66.75
236.03	74.81
236.249	53.11
236.467	59.15
236.686	42
236.904	44.4
237.123	-25.8
237.341	-6.6
237.559	-28.69
237.778	-23.12
237.996	-41.54
238.215	-4.98
238.433	-12.52
238.652	4.04
238.87	-46.2
239.088	-31.18
239.307	-19.69
239.525	-18.73
239.743	-46.53
239.962	-7.15
240.18	-35.7
240.398	-71.33
240.617	-88.91
240.835	-59.85
241.053	-89.16
241.271	-31.43
241.49	4.28
241.708	9.36
241.926	22.8
242.144	34.89
242.363	5.94
242.581	-3.52
242.799	15.93
243.017	0.27
243.235	-37.34
243.453	-3.24
243.672	-30.39
243.89	-20.25
244.108	-7.4
244.326	22.53
244.544	3.74
244.762	6.26
244.98	17.72
245.198	31.08
245.416	8.97
245.634	23.22
245.852	44.53
246.07	26.98
246.288	22.32
246.506	17.48
246.724	39.46
246.942	35.14
247.16	41
247.378	42.6
247.596	58.15
247.814	44.92
248.032	7.33
248.25	6.39
248.468	5.96
248.685	27.65
248.903	38.76
249.121	52.56
249.339	22.55
249.557	31.97
249.775	6.71
249.992	-63.13
250.21	-58.3
250.428	-22.87
250.646	-36.22
250.863	-29.24
251.081	4.82
251.299	27.94
251.517	31.07
251.734	32.67
251.952	21.32
252.17	29.99
252.387	51.75
252.605	18.98
252.823	22.42
253.04	45.98
253.258	51.2
253.475	31.97
253.693	69.14
253.911	77.33
254.128	62.15
254.346	60.4
254.563	32.35
254.781	4.47
254.998	0.43
255.216	-4.65
255.433	-10.84
255.651	20.99
255.868	48.7
256.086	47.03
256.303	42.74
256.521	44.42
256.738	20.16
256.956	-10.01
257.173	6.76
257.39	12.23
257.608	7.86
257.825	22.54
258.043	33.99
258.26	35.33
258.477	32.55
258.695	26.08
258.912	-12.69
259.129	-6.76
259.346	-46.48
259.564	-37.16
259.781	-12.77
259.998	8.65
260.216	36.99
260.433	69.42
260.65	56.72
260.867	62.75
261.084	41.99
261.302	24.96
261.519	31.89
261.736	14.09
261.953	3.97
262.17	28.92
262.387	16.66
262.604	-5.47
262.822	0.75
263.039	5.42
263.256	-12.91
263.473	-6.98
263.69	-35.16
263.907	-9
264.124	-0.45
264.341	33.14
264.558	27.51
264.775	48.11
264.992	51.43
265.209	32.62
265.426	21.84
265.643	26.1
265.86	17.19
266.077	22.2
266.294	19.01
266.51	15.15
266.727	2.38
266.944	25.1
267.161	0.19
267.378	5.44
267.595	2.24
267.812	-24.45
268.028	-30.36
268.245	-20.4
268.462	-30.47
268.679	-25.07
268.896	11.09
269.112	3.03
269.329	6.71
269.546	30.73
269.763	36.46
269.979	40.71
270.196	40.13
270.413	31.24
270.629	5.29
270.846	-14.14
271.063	0.48
271.279	-16.12
271.496	-27.79
271.712	-16.54
271.929	-5.25
272.146	-2.17
272.362	20.72
272.579	59.97
272.795	60.7
273.012	85.22
273.228	77.17
273.445	57.87
273.661	-0.98
273.878	-77.32
274.094	-86.63
274.311	-119.82
274.527	-74.59
274.744	-29.63
274.96	35.24
275.177	34.61
275.393	40.27
275.609	36.29
275.826	40.74
276.042	33.32
276.259	42.31
276.475	30.19
276.691	30.14
276.908	15.26
277.124	33.9
277.34	18.81
277.557	30.35
277.773	24.13
277.989	33.12
278.205	22.08
278.422	29.69
278.638	41.55
278.854	46.16
279.07	49.1
279.286	23.33
279.503	5.01
279.719	-6.74
279.935	-24.31
280.151	-47.57
280.367	-0.5
280.583	12.82
280.799	6.24
281.016	21.87
281.232	37.54
281.448	31.71
281.664	35.22
281.88	35.89
282.096	30.29
282.312	38.71
282.528	38.35
282.744	51.41
282.96	55.51
283.176	55.46
283.392	40.5
283.608	30.57
283.824	8.95
284.04	15.27
284.256	36.76
284.471	35.74
284.687	39.34
284.903	48.96
285.119	60.52
285.335	23.64
285.551	32.16
285.767	12.41
285.982	-13.27
286.198	-26.32
286.414	-0.65
286.63	-10.82
286.846	19.78
287.061	3.08
287.277	6.84
287.493	3.01
287.709	16.51
287.924	4.69
288.14	47.72
288.356	55.37
288.571	64.24
288.787	46.44
289.003	54.41
289.218	23.46
289.434	-25.02
289.65	0.57
289.865	16.45
290.081	11.18
290.296	15.68
290.512	17.41
290.727	7.59
290.943	0.78
291.159	-7.46
291.374	4.78
291.59	2.99
291.805	-1.55
292.021	-3.27
292.236	-5.14
292.451	-11.44
292.667	1.92
292.882	6.05
293.098	13.63
293.313	14.77
293.529	4.33
293.744	-21.98
293.959	-39.87
294.175	-38.06
294.39	-9.76
294.605	14.8
294.821	44.74
295.036	46.39
295.251	48.12
295.467	26.74
295.682	22.09
295.897	3.88
296.112	-4.06
296.328	-6.41
296.543	-7.25
296.758	-19.75
296.973	23.48
297.188	46.4
297.404	23.97
297.619	28.4
297.834	25.67
298.049	-1.3
298.264	-4.15
298.479	30.9
298.694	33.77
298.909	32.57
299.125	30.18
299.34	33.2
299.555	9
299.77	8.49
299.985	-31.63
300.2	-46.39
300.415	-65.67
300.63	-47.7
300.845	-43.25
301.06	-22.84
301.275	-8.72
301.49	7.26
301.704	-1.36
301.919	-43.47
302.134	-42.44
302.349	5.26
302.564	-14.38
302.779	0.05
302.994	51.42
303.209	52.89
303.423	52.09
303.638	92.56
303.853	72.97
304.068	26.61
304.283	14.23
304.497	-9.68
304.712	-19.47
304.927	-7.53
305.142	-5.69
305.356	10.56
305.571	22.45
305.786	20.98
306	16.1
306.215	41.87
306.43	9.62
306.644	20.83
306.859	26.87
307.074	26.9
307.288	5.49
307.503	24.92
307.717	5.65
307.932	-2.4
308.147	-5.13
308.361	11.07
308.576	-10.21
308.79	-52.77
309.005	-26.32
309.219	-27.15
309.434	-12.93
309.648	-20.9
309.863	11.76
310.077	-6.15
310.292	-1.27
310.506	-29.41
310.72	15.05
310.935	46.98
311.149	31.66
311.364	43.03
311.578	64.84
311.792	44.63
312.007	38.22
312.221	20.85
312.435	17.36
312.649	-8.27
312.864	21.24
313.078	-2.75
313.292	37.48
313.507	40.89
313.721	39.04
313.935	31.25
314.149	52.13
314.363	36.47
314.578	17.03
314.792	10.02
315.006	13.41
315.22	-5.02
315.434	-3.65
315.648	7.84
315.862	4.35
316.077	6.36
316.291	29.99
316.505	39.87
316.719	41.14
316.933	3.64
317.147	20.14
317.361	-16.01
317.575	-13.05
317.789	-35.37
318.003	-20.37
318.217	-16.85
318.431	5.12
318.645	19.96
318.859	15.71
319.073	40.34
319.287	14.67
319.5	-7.43
319.714	-42.02
319.928	-33.19
320.142	-39.44
320.356	6.97
320.57	30.93
320.784	17.8
320.997	30.46
321.211	26.99
321.425	-13.22
321.639	-59.66
321.853	-23.29
322.066	-37.83
322.28	-60.39
322.494	-28.31
322.707	35.1
322.921	25.23
323.135	30.81
323.349	49.45
323.562	21.31
323.776	-12.66
323.989	-6.1
324.203	-21.2
324.417	-25.19
324.63	-28.41
324.844	-37.55
325.057	-45.47
325.271	-41.31
325.485	-31.9
325.698	6.9
325.912	36.13
326.125	25.38
326.339	42.3
326.552	34.69
326.766	27.07
326.979	11.05
327.193	42.26
327.406	25.43
327.619	29.57
327.833	37.86
328.046	32.01
328.26	8.63
328.473	4.67
328.686	-13.73
328.9	-10.52
329.113	-2.74
329.326	-5.97
329.54	14.84
329.753	29.25
329.966	18.38
330.179	20.51
330.393	29.96
330.606	19.61
330.819	42.71
331.032	45.51
331.246	53.27
331.459	73.38
331.672	61.06
331.885	38.9
332.098	11.4
332.311	18.49
332.525	-2.91
332.738	21.19
332.951	33.46
333.164	58.61
333.377	60.56
333.59	79.1
333.803	49.06
334.016	45.89
334.229	28.09
334.442	29.83
334.655	47.38
334.868	69.44
335.081	61.69
335.294	46.91
335.507	37.65
335.72	24.91
335.933	1.29
336.146	8.89
336.359	31.92
336.572	13.4
336.785	0.55
336.997	7.89
337.21	16.4
337.423	0.68
337.636	17.65
337.849	28.55
338.062	43.7
338.274	58.34
338.487	49.37
338.7	43.59
338.913	24.77
339.125	-5.46
339.338	-20.55
339.551	-0.73
339.763	20.29
339.976	31.71
340.189	49.96
340.402	53.83
340.614	38.48
340.827	21.57
341.039	1.72
341.252	-12.65
341.465	-20.64
341.677	-37.64
341.89	-76.5
342.102	-55.89
342.315	-53.52
342.527	-57.32
342.74	-34.4
342.952	14.62
343.165	19.92
343.377	50.73
343.59	42.68
343.802	60.4
344.015	73.99
344.227	86.1
344.44	57.34
344.652	56.4
344.864	42.72
345.077	27.49
345.289	30.72
345.502	45.8
345.714	39.67
345.926	44.25
346.139	38.5
346.351	29.9
346.563	23.57
346.775	34.48
346.988	14.76
347.2	5.71
347.412	-18.33
347.624	-13.98
347.837	-0.36
348.049	20.26
348.261	41.4
348.473	46.66
348.685	4.21
348.897	-22.56
349.11	-32.12
349.322	-48.13
349.534	-16.02
349.746	16.31
349.958	39.03
350.17	40.95
350.382	57.82
350.594	48.45
350.806	52.39
351.018	41.64
351.23	38.84
351.442	25.05
351.654	28.26
351.866	18.7
352.078	17.69
352.29	13.19
352.502	33.8
352.714	48.97
352.926	46.52
353.138	38.08
353.35	23.08
353.561	9.39
353.773	-11.11
353.985	-0.96
354.197	5.07
354.409	14.36
354.621	11.31
354.832	25.89
355.044	14.57
355.256	4.87
355.468	5.01
355.679	-4.3
355.891	2.27
356.103	3.87
356.314	-0.08
356.526	2.93
356.738	33.76
356.949	29.82
357.161	32.38
357.373	41.31
357.584	40.47
357.796	30.97
358.008	11.43
358.219	23.04
358.431	24.09
358.642	31.53
358.854	30.97
359.065	49.7
359.277	33.66
359.488	18.15
359.7	10.71
359.911	-5.81
360.123	-17.02
360.334	-24.44
360.546	-18.53
360.757	-29.95
360.969	-19.35
361.18	1.05
361.391	1.43
361.603	-4.59
361.814	20.9
362.025	9.04
362.237	8.43
362.448	19.74
362.659	40.24
362.871	33.75
363.082	42.57
363.293	40.86
363.504	44.43
363.716	21.39
363.927	24.61
364.138	9.67
364.349	-25.15
364.56	-27.48
364.772	-40.62
364.983	-18.61
365.194	-25.35
365.405	-0.42
365.616	3.63
365.827	18.79
366.038	-6.34
366.25	14.27
366.461	2.71
366.672	9.81
366.883	21.72
367.094	18.89
367.305	3.25
367.516	17.86
367.727	6.23
367.938	-6.59
368.149	-15.09
368.36	2.1
368.571	-4.18
368.781	-2.73
368.992	-13.82
369.203	6.41
369.414	-9.51
369.625	-12.88
369.836	-16.74
370.047	-20.97
370.258	-26.67
370.468	-24.82
370.679	-46.8
370.89	-34.45
371.101	0.47
371.312	-28.47
371.522	-32.32
371.733	-14.05
371.944	-3.34
372.155	4.48
372.365	2.59
372.576	14.05
372.787	6.15
372.997	-8.03
373.208	-19.96
373.419	3.58
373.629	-12.55
373.84	-4.86
374.05	-12.05
374.261	6.95
374.472	-13.96
374.682	8.91
374.893	-0.19
375.103	21.88
375.314	4.06
375.524	15.56
375.735	16.77
375.945	26.79
376.156	0.9
376.366	10.99
376.577	10.42
376.787	16.47
376.997	28.48
377.208	37.65
377.418	16.89
377.629	29.96
377.839	11.92
378.049	1.39
378.26	17.54
378.47	35.92
378.68	26.4
378.89	28.63
379.101	26.6
379.311	-0.53
379.521	-17.85
379.732	-18.23
379.942	-33.07
380.152	-18.36
380.362	-4.75
380.572	-3.08
380.783	11.54
380.993	24.54
381.203	18.1
381.413	21.61
381.623	29.26
381.833	20.17
382.043	11.35
382.253	13.41
382.463	18.61
382.674	18.18
382.884	2.58
383.094	8.99
383.304	4.53
383.514	2.04
383.724	5.39
383.934	0.3
384.144	-8.88
384.353	-3.37
384.563	0.87
384.773	-1.36
384.983	9.37
385.193	18.15
385.403	-0.55
385.613	-9.98
385.823	-16.05
386.033	-5.72
386.242	-8.04
386.452	8.5
386.662	7.47
386.872	16.39
387.082	10.07
387.291	-2.75
387.501	-1.85
387.711	0.21
387.921	-13.46
388.13	-7.89
388.34	7.42
388.55	2.39
388.759	4.45
388.969	13.36
389.179	9.55
389.388	7.13
389.598	7.8
389.807	5.31
390.017	5.56
390.227	5.25
390.436	2.73
390.646	6.75
390.855	9.36
391.065	8.87
391.274	6.83
391.484	4.39
391.693	3.63
391.903	3.28
392.112	4.72
392.322	8.05
392.531	13.03
392.74	12.26
392.95	8.35
393.159	6.51
393.369	6.43
393.578	2.67
393.787	1.48
393.997	5.5
394.206	5.56
394.415	6.59
394.625	7.17
394.834	5.71
395.043	4.68
395.252	5.53
395.462	5.31
395.671	6.28
395.88	8.86
396.089	9.35
396.298	8.44
396.508	7.87
396.717	7.93
396.926	6.93
397.135	6.55
397.344	6.67
397.553	7.17
397.762	7.56
397.971	7.74
398.181	7.9
398.39	6.56
398.599	6.01
398.808	5.4
399.017	6.01
399.226	6.2
399.435	7.59
399.644	7.64
399.853	7.65
400.062	7.08
400.27	7.04
400.479	6.73
400.688	6.24
400.897	6.67
401.106	6.64
401.315	6.02
401.524	6.01
401.733	6.48
401.941	6.5
402.15	6.49
402.359	6.95
402.568	7.17
402.777	6.89
402.985	6.42
403.194	6.36
403.403	6.16
403.612	5.87
403.82	6.11
404.029	6.22
404.238	6.06
404.446	6.18
404.655	5.96
404.864	5.92
405.072	5.89
405.281	6.12
405.489	5.73
405.698	5.74
405.906	5.59
406.115	5.44
406.324	5.22
406.532	5.3
406.741	5.54
406.949	5.42
407.158	5.48
407.366	5.56
407.574	5.87
407.783	5.78
407.991	5.81
408.2	5.79
408.408	5.75
408.617	5.55
408.825	5.38
409.033	5.47
409.242	5.43
409.45	5.49
409.658	5.32
409.867	5.59
410.075	5.42
410.283	5.4
410.491	5.29
410.7	5.31
410.908	5.19
411.116	5.28
411.324	5.4
411.533	5.53
411.741	5.52
411.949	5.59
412.157	5.47
412.365	5.51
412.573	5.34
412.781	5.38
412.99	5.22
413.198	5.43
413.406	5.31
413.614	5.48
413.822	5.51
414.03	5.47
414.238	5.26
414.446	5.32
414.654	4.94
414.862	4.92
415.07	4.86
415.278	5.07
415.486	4.69
415.694	4.95
415.902	4.97
416.109	4.94
416.317	4.81
416.525	4.77
416.733	4.79
416.941	4.8
417.149	4.9
417.357	4.81
417.564	5.2
417.772	5.02
417.98	5
418.188	4.91
418.395	4.85
418.603	4.78
418.811	4.69
419.019	4.55
419.226	4.84
419.434	5.1
419.642	4.92
419.849	5.04
420.057	5.22
420.265	5.15
420.472	4.84
420.68	5.1
420.887	4.98
421.095	4.98
421.302	4.78
421.51	5.06
421.717	5.08
421.925	5.2
422.132	5.1
422.34	4.93
422.547	4.75
422.755	4.67
422.962	4.7
423.17	4.61
423.377	4.82
423.585	4.92
423.792	4.82
423.999	4.78
424.207	4.77
424.414	4.74
424.621	4.81
424.829	4.67
425.036	4.64
425.243	4.64
425.451	4.57
425.658	4.32
425.865	4.37
426.072	4.39
426.28	4.48
426.487	4.34
426.694	4.51
426.901	4.63
427.108	4.71
427.315	4.61
427.523	4.97
427.73	4.94
427.937	4.53
428.144	4.21
428.351	4.28
428.558	4.18
428.765	4.16
428.972	4.34
429.179	4.58
429.386	4.72
429.593	4.58
429.8	4.36
430.007	4.66
430.214	4.74
430.421	4.65
430.628	4.71
430.835	4.69
431.042	4.66
431.249	4.6
431.456	4.66
431.662	4.83
431.869	5.07
432.076	5.13
432.283	5.17
432.49	5.04
432.697	4.92
432.903	4.67
433.11	4.51
433.317	4.49
433.524	4.73
433.73	4.59
433.937	4.88
434.144	4.86
434.35	4.89
434.557	4.63
434.764	4.7
434.97	4.62
435.177	4.69
435.384	4.42
435.59	4.6
435.797	4.66
436.003	4.68
436.21	4.66
436.416	4.87
436.623	4.74
436.829	4.77
437.036	4.75
437.242	4.68
437.449	4.62
437.655	4.59
437.862	4.6
438.068	4.57
438.275	4.75
438.481	4.91
438.687	4.88
438.894	4.77
439.1	4.73
439.307	4.64
439.513	4.44
439.719	4.52
439.926	4.52
440.132	4.62
440.338	4.57
440.544	4.65
440.751	4.52
440.957	4.65
441.163	4.4
441.369	4.4
441.575	4.25
441.782	4.27
441.988	4.02
442.194	4.1
442.4	4.12
442.606	4.39
442.812	4.47
443.018	4.65
443.224	4.77
443.431	4.88
443.637	4.69
443.843	4.48
444.049	4.5
444.255	4.42
444.461	4.35
444.667	4.28
444.873	4.44
445.079	4.44
445.284	4.49
445.49	4.35
445.696	4.23
445.902	4.2
446.108	4.15
446.314	4
446.52	4.23
446.726	4.51
446.931	4.43
447.137	4.48
447.343	4.64
447.549	4.35
447.755	4.25
447.96	4.33
448.166	4.26
448.372	4.29
448.578	4.34
448.783	4.4
448.989	4.47
449.195	4.6
449.4	4.42
449.606	4.48
449.812	4.38
450.017	4.45
450.223	4.36
450.428	4.26
450.634	4.34
450.84	4.44
451.045	4.33
451.251	4.27
451.456	4.53
451.662	4.49
451.867	4.45
452.073	4.34
452.278	4.42
452.483	4.48
452.689	4.5
452.894	4.64
453.1	4.76
453.305	4.58
453.51	4.41
453.716	4.36
453.921	4.3
454.127	4.26
454.332	4.3
454.537	4.31
454.742	4.39
454.948	4.36
455.153	4.33
455.358	4.44
455.563	4.57
455.769	4.54
455.974	4.5
456.179	4.48
456.384	4.41
456.589	4.34
456.795	4.11
457	4.08
457.205	4.19
457.41	4.12
457.615	4.1
457.82	4.32
458.025	4.38
458.23	4.21
458.435	4.38
458.64	4.23
458.845	4.24
459.05	4.19
459.255	4.22
459.46	4.16
459.665	4.26
459.87	4.29
460.075	4.18
460.28	4.25
460.485	4.34
460.69	4.39
460.895	4.09
461.099	4.12
461.304	4.22
461.509	4.21
461.714	4.01
461.919	4.31
462.123	4.34
462.328	4.31
462.533	4.06
462.738	4.29
462.942	4.11
463.147	4.19
463.352	4.19
463.556	4.23
463.761	4.11
463.966	4.27
464.17	4.31
464.375	4.21
464.58	4.27
464.784	4.31
464.989	4.18
465.193	4.12
465.398	4.14
465.602	4.37
465.807	4.35
466.011	4.52
466.216	4.52
466.42	4.57
466.625	4.49
466.829	4.64
467.034	4.64
467.238	4.8
467.443	4.74
467.647	4.55
467.851	4.43
468.056	4.44
468.26	4.19
468.464	4.14
468.669	4.34
468.873	4.49
469.077	4.47
469.282	4.54
469.486	4.76
469.69	4.74
469.894	4.66
470.099	4.63
470.303	4.72
470.507	4.55
470.711	4.39
470.915	4.37
471.119	4.41
471.324	4.3
471.528	4.23
471.732	4.45
471.936	4.43
472.14	4.52
472.344	4.52
472.548	4.65
472.752	4.61
472.956	4.74
473.16	4.54
473.364	4.52
473.568	4.58
473.772	4.47
473.976	4.42
474.18	4.44
474.384	4.39
474.588	4.17
474.792	4.15
474.995	4.12
475.199	4.18
475.403	4.35
475.607	4.4
475.811	4.41
476.015	4.41
476.218	4.45
476.422	4.33
476.626	4.47
476.83	4.62
477.033	4.54
477.237	4.38
477.441	4.39
477.644	4.23
477.848	4.12
478.052	3.98
478.255	3.99
478.459	4.05
478.663	4.29
478.866	4.33
479.07	4.48
479.273	4.68
479.477	4.73
479.681	4.57
479.884	4.49
480.088	4.4
480.291	4.26
480.495	4.16
480.698	4.21
480.901	4.26
481.105	4.42
481.308	4.43
481.512	4.4
481.715	4.39
481.919	4.39
482.122	4.3
482.325	4.34
482.529	4.41
482.732	4.44
482.935	4.35
483.138	4.34
483.342	4.34
483.545	4.41
483.748	4.41
483.952	4.48
484.155	4.64
484.358	4.68
484.561	4.59
484.764	4.68
484.967	4.72
485.171	4.75
485.374	4.56
485.577	4.62
485.78	4.52
485.983	4.5
486.186	4.35
486.389	4.42
486.592	4.42
486.795	4.51
486.998	4.51
487.201	4.61
487.404	4.75
487.607	4.82
487.81	4.79
488.013	4.79
488.216	4.76
488.419	4.79
488.622	4.57
488.825	4.52
489.028	4.59
489.231	4.58
489.433	4.39
489.636	4.48
489.839	4.36
490.042	4.25
490.245	4.17
490.447	4.3
490.65	4.35
490.853	4.55
491.056	4.62
491.258	4.68
491.461	4.73
491.664	4.73
491.866	4.56
492.069	4.63
492.272	4.68
492.474	4.68
492.677	4.7
492.879	4.87
493.082	4.94
493.285	5
493.487	4.9
493.69	4.82
493.892	4.69
494.095	4.62
494.297	4.56
494.5	4.77
494.702	4.89
494.905	5.02
495.107	5.08
495.309	5.13
495.512	5.07
495.714	5.18
495.917	5.24
496.119	5.21
496.321	5.32
496.524	5.41
496.726	5.41
496.928	5.46
497.13	5.49
497.333	5.51
497.535	5.55
497.737	5.46
497.939	5.41
498.142	5.55
498.344	5.45
498.546	5.38
498.748	5.47
498.95	5.5
499.152	5.35
499.355	5.41
499.557	5.47
499.759	5.5
499.961	5.5
500.163	5.57
500.365	5.64
500.567	5.6
500.769	5.47
500.971	5.55
501.173	5.48
501.375	5.49
501.577	5.48
501.779	5.62
501.981	5.51
502.183	5.57
502.385	5.48
502.587	5.44
502.788	5.44
502.99	5.55
503.192	5.59
503.394	5.58
503.596	5.57
503.798	5.64
503.999	5.6
504.201	5.56
504.403	5.62
504.605	5.75
504.806	5.66
505.008	5.56
505.21	5.54
505.411	5.51
505.613	5.38
505.815	5.36
506.016	5.51
506.218	5.57
506.42	5.49
506.621	5.46
506.823	5.54
507.024	5.44
507.226	5.38
507.427	5.39
507.629	5.57
507.83	5.49
508.032	5.4
508.233	5.49
508.435	5.52
508.636	5.45
508.838	5.37
509.039	5.44
509.24	5.37
509.442	5.41
509.643	5.33
509.845	5.42
510.046	5.44
510.247	5.42
510.448	5.4
510.65	5.46
510.851	5.56
511.052	5.56
511.254	5.48
511.455	5.55
511.656	5.5
511.857	5.45
512.058	5.45
512.26	5.51
512.461	5.43
512.662	5.48
512.863	5.26
513.064	5.2
513.265	5.26
513.466	5.25
513.667	5.23
513.868	5.4
514.069	5.47
514.27	5.48
514.471	5.42
514.672	5.4
514.873	5.43
515.074	5.42
515.275	5.31
515.476	5.38
515.677	5.39
515.878	5.44
516.079	5.37
516.28	5.42
516.481	5.49
516.682	5.49
516.882	5.4
517.083	5.51
517.284	5.4
517.485	5.29
517.686	5.26
517.886	5.29
518.087	5.28
518.288	5.43
518.488	5.41
518.689	5.44
518.89	5.32
519.091	5.24
519.291	5.17
519.492	5.27
519.692	5.26
519.893	5.4
520.094	5.44
520.294	5.36
520.495	5.31
520.695	5.33
520.896	5.27
521.096	5.29
521.297	5.43
521.497	5.47
521.698	5.39
521.898	5.32
522.099	5.29
522.299	5.3
522.499	5.27
522.7	5.32
522.9	5.43
523.101	5.51
523.301	5.48
523.501	5.46
523.702	5.48
523.902	5.53
524.102	5.55
524.302	5.55
524.503	5.62
524.703	5.61
524.903	5.56
525.103	5.44
525.304	5.43
525.504	5.47
525.704	5.47
525.904	5.42
526.104	5.49
526.304	5.48
526.504	5.43
526.705	5.47
526.905	5.59
527.105	5.63
527.305	5.65
527.505	5.6
527.705	5.61
527.905	5.59
528.105	5.54
528.305	5.46
528.505	5.54
528.705	5.58
528.905	5.46
529.105	5.47
529.304	5.62
529.504	5.64
529.704	5.53
529.904	5.6
530.104	5.62
530.304	5.61
530.503	5.56
530.703	5.55
530.903	5.5
531.103	5.56
531.303	5.46
531.502	5.47
531.702	5.57
531.902	5.71
532.101	5.62
532.301	5.6
532.501	5.58
532.7	5.63
532.9	5.48
533.1	5.56
533.299	5.6
533.499	5.66
533.698	5.55
533.898	5.66
534.097	5.65
534.297	5.73
534.496	5.71
534.696	5.79
534.895	5.86
535.095	5.93
535.294	5.89
535.494	5.81
535.693	5.79
535.892	5.78
536.092	5.68
536.291	5.67
536.491	5.68
536.69	5.73
536.889	5.57
537.088	5.58
537.288	5.67
537.487	5.78
537.686	5.75
537.886	5.84
538.085	5.86
538.284	5.87
538.483	5.82
538.682	5.9
538.882	5.95
539.081	6.05
539.28	6.01
539.479	5.97
539.678	5.92
539.877	5.99
540.076	5.96
540.275	6.07
540.474	6.17
540.673	6.23
540.872	6.18
541.071	6.22
541.27	6.14
541.469	6.16
541.668	6.18
541.867	6.19
542.066	6.22
542.265	6.31
542.464	6.25
542.663	6.27
542.862	6.43
543.06	6.44
543.259	6.43
543.458	6.56
543.657	6.52
543.856	6.5
544.054	6.5
544.253	6.49
544.452	6.38
544.651	6.44
544.849	6.37
545.048	6.37
545.247	6.36
545.445	6.46
545.644	6.45
545.843	6.42
546.041	6.5
546.24	6.62
546.438	6.7
546.637	6.79
546.836	6.96
547.034	6.99
547.233	7
547.431	6.98
547.63	7.01
547.828	6.97
548.027	7.01
548.225	6.92
548.423	6.95
548.622	6.94
548.82	6.88
549.019	6.88
549.217	7.06
549.415	7.11
549.614	7.16
549.812	7.23
550.01	7.25
550.209	7.3
550.407	7.33
550.605	7.38
550.803	7.45
551.002	7.49
551.2	7.41
551.398	7.49
551.596	7.54
551.794	7.62
551.993	7.72
552.191	7.78
552.389	7.82
552.587	7.87
552.785	7.86
552.983	7.84
553.181	7.97
553.379	8.01
553.577	7.95
553.775	8.11
553.973	8.11
554.171	8.2
554.369	8.17
554.567	8.24
554.765	8.25
554.963	8.41
555.161	8.35
555.359	8.49
555.557	8.65
555.755	8.74
555.952	8.81
556.15	8.85
556.348	8.86
556.546	8.9
556.744	8.87
556.941	8.87
557.139	8.99
557.337	9.05
557.535	9.06
557.732	9.14
557.93	9.25
558.128	9.32
558.325	9.39
558.523	9.39
558.721	9.53
558.918	9.46
559.116	9.51
559.313	9.53
559.511	9.74
559.708	9.73
559.906	9.83
560.104	9.86
560.301	10.08
560.498	10.05
560.696	10.06
560.893	10.19
561.091	10.28
561.288	10.3
561.486	10.41
561.683	10.56
561.88	10.63
562.078	10.71
562.275	10.62
562.473	10.67
562.67	10.78
562.867	10.87
563.064	10.99
563.262	11.15
563.459	11.29
563.656	11.43
563.853	11.45
564.051	11.43
564.248	11.58
564.445	11.6
564.642	11.63
564.839	11.75
565.036	11.98
565.234	12.03
565.431	12.14
565.628	12.14
565.825	12.2
566.022	12.24
566.219	12.26
566.416	12.27
566.613	12.33
566.81	12.42
567.007	12.34
567.204	12.37
567.401	12.42
567.598	12.45
567.795	12.37
567.991	12.48
568.188	12.61
568.385	12.72
568.582	12.81
568.779	12.91
568.976	13.01
569.172	13.09
569.369	13.09
569.566	13.15
569.763	13.19
569.96	13.19
570.156	13.11
570.353	13.08
570.55	13.13
570.746	13.27
570.943	13.27
571.14	13.38
571.336	13.5
571.533	13.52
571.729	13.49
571.926	13.53
572.123	13.53
572.319	13.59
572.516	13.6
572.712	13.58
572.909	13.68
573.105	13.75
573.302	13.7
573.498	13.73
573.695	13.69
573.891	13.72
574.087	13.8
574.284	13.77
574.48	13.72
574.677	13.86
574.873	13.88
575.069	13.88
575.266	14.01
575.462	14.01
575.658	14.06
575.854	14.14
576.051	14.12
576.247	14.09
576.443	14.13
576.639	14.07
576.835	13.95
577.032	13.98
577.228	13.99
577.424	14.02
577.62	14
577.816	14.01
578.012	13.95
578.208	13.98
578.404	14.04
578.6	14.1
578.796	14.1
578.993	14.11
579.189	14.06
579.384	13.93
579.58	13.82
579.776	13.84
579.972	13.72
580.168	13.67
580.364	13.72
580.56	13.84
580.756	13.83
580.952	13.87
581.148	13.9
581.343	13.92
581.539	13.85
581.735	13.78
581.931	13.89
582.127	13.93
582.322	13.84
582.518	13.93
582.714	13.94
582.909	13.72
583.105	13.64
583.301	13.6
583.496	13.5
583.692	13.32
583.888	13.37
584.083	13.36
584.279	13.44
584.474	13.44
584.67	13.55
584.866	13.59
585.061	13.55
585.257	13.56
585.452	13.52
585.648	13.44
585.843	13.45
586.039	13.39
586.234	13.33
586.429	13.29
586.625	13.41
586.82	13.26
587.015	13.3
587.211	13.18
587.406	13.22
587.601	13.18
587.797	13.15
587.992	13.11
588.187	13.21
588.383	13.21
588.578	13.18
588.773	13.3
588.968	13.37
589.163	13.35
589.359	13.26
589.554	13.24
589.749	13.36
589.944	13.36
590.139	13.37
590.334	13.34
590.529	13.34
590.724	13.25
590.919	13.19
591.114	13.22
591.309	13.38
591.504	13.47
591.699	13.35
591.894	13.41
592.089	13.33
592.284	13.34
592.479	13.28
592.674	13.33
592.869	13.36
593.064	13.48
593.259	13.48
593.454	13.55
593.648	13.6
593.843	13.66
594.038	13.6
594.233	13.47
594.428	13.43
594.622	13.45
594.817	13.43
595.012	13.5
595.206	13.61
595.401	13.73
595.596	13.72
595.79	13.72
595.985	13.82
596.18	13.95
596.374	13.97
596.569	13.99
596.763	13.96
596.958	13.92
597.153	13.86
597.347	13.9
597.542	14.14
597.736	14.29
597.931	14.32
598.125	14.43
598.319	14.58
598.514	14.49
598.708	14.59
598.903	14.58
599.097	14.59
599.291	14.46
599.486	14.46
599.68	14.32
599.874	14.41
600.069	14.32
600.263	14.33
600.457	14.37
600.651	14.49
600.846	14.38
601.04	14.46
601.234	14.37
601.428	14.41
601.622	14.4
601.817	14.55
602.011	14.57
602.205	14.67
602.399	14.59
602.593	14.52
602.787	14.51
602.981	14.53
603.175	14.62
603.369	14.56
603.563	14.69
603.757	14.68
603.951	14.71
604.145	14.65
604.339	14.76
604.533	14.62
604.727	14.56
604.921	14.51
605.115	14.5
605.309	14.47
605.502	14.5
605.696	14.38
605.89	14.32
606.084	14.27
606.278	14.19
606.471	14.14
606.665	14.21
606.859	14.18
607.053	14.13
607.246	14.16
607.44	14.11
607.634	14.08
607.827	14.03
608.021	13.9
608.214	13.88
608.408	13.82
608.602	13.8
608.795	13.78
608.989	13.83
609.182	13.77
609.376	13.77
609.569	13.69
609.763	13.61
609.956	13.57
610.15	13.48
610.343	13.4
610.537	13.35
610.73	13.42
610.923	13.33
611.117	13.25
611.31	13.25
611.504	13.21
611.697	13.08
611.89	13.04
612.083	13.01
612.277	13.01
612.47	12.95
612.663	12.84
612.856	12.72
613.05	12.62
613.243	12.45
613.436	12.3
613.629	12.27
613.822	12.3
614.015	12.24
614.209	12.18
614.402	12.19
614.595	12.08
614.788	11.96
614.981	11.9
615.174	11.78
615.367	11.66
615.56	11.63
615.753	11.59
615.946	11.52
616.139	11.61
616.332	11.75
616.525	11.74
616.718	11.82
616.911	11.82
617.103	11.83
617.296	11.71
617.489	11.65
617.682	11.53
617.875	11.56
618.067	11.43
618.26	11.29
618.453	11.41
618.646	11.43
618.838	11.32
619.031	11.35
619.224	11.4
619.417	11.24
619.609	11.27
619.802	11.28
619.994	11.22
620.187	11.27
620.38	11.22
620.572	11.11
620.765	11.1
620.957	11.07
621.15	10.9
621.342	10.96
621.535	11.02
621.727	10.97
621.92	10.9
622.112	10.92
622.305	10.89
622.497	10.7
622.69	10.61
622.882	10.61
623.074	10.58
623.267	10.49
623.459	10.43
623.651	10.4
623.844	10.41
624.036	10.5
624.228	10.46
624.42	10.57
624.613	10.65
624.805	10.62
624.997	10.49
625.189	10.56
625.381	10.62
625.574	10.65
625.766	10.54
625.958	10.58
626.15	10.59
626.342	10.52
626.534	10.5
626.726	10.51
626.918	10.52
627.11	10.42
627.302	10.34
627.494	10.23
627.686	10.32
627.878	10.18
628.07	10.09
628.262	10.11
628.454	10.12
628.646	10.02
628.838	10.11
629.029	10.01
629.221	9.96
629.413	9.74
629.605	9.63
629.797	9.48
629.989	9.6
630.18	9.59
630.372	9.74
630.564	9.76
630.755	9.86
630.947	9.88
631.139	9.77
631.33	9.69
631.522	9.77
631.714	9.68
631.905	9.59
632.097	9.66
632.289	9.62
632.48	9.58
632.672	9.48
632.863	9.36
633.055	9.32
633.246	9.36
633.438	9.26
633.629	9.26
633.821	9.26
634.012	9.16
634.203	9.07
634.395	9.01
634.586	9.1
634.777	9.09
634.969	9.04
635.16	9.07
635.351	9.08
635.543	9.02
635.734	9.05
635.925	9.07
636.117	9.12
636.308	9.08
636.499	8.98
636.69	8.85
636.881	8.82
637.073	8.79
637.264	8.78
637.455	8.78
637.646	8.91
637.837	8.98
638.028	8.9
638.219	8.97
638.41	8.95
638.601	8.82
638.792	8.7
638.983	8.65
639.174	8.48
639.365	8.45
639.556	8.48
639.747	8.49
639.938	8.52
640.129	8.55
640.32	8.48
640.511	8.44
640.701	8.48
640.892	8.47
641.083	8.44
641.274	8.48
641.465	8.48
641.655	8.38
641.846	8.27
642.037	8.28
642.228	8.24
642.418	8.27
642.609	8.11
642.8	8.15
642.99	8.06
643.181	8.12
643.372	8.01
643.562	8.13
643.753	8.13
643.943	8.1
644.134	7.95
644.324	7.94
644.515	7.82
644.705	7.87
644.896	7.94
645.086	7.94
645.277	7.86
645.467	8.01
645.658	7.85
645.848	7.8
646.038	7.89
646.229	7.97
646.419	7.81
646.61	7.79
646.8	7.77
646.99	7.7
647.18	7.69
647.371	7.81
647.561	7.74
647.751	7.75
647.941	7.74
648.132	7.69
648.322	7.6
648.512	7.69
648.702	7.62
648.892	7.58
649.082	7.62
649.272	7.51
649.462	7.35
649.653	7.31
649.843	7.36
650.033	7.4
650.223	7.42
650.413	7.51
650.603	7.6
650.793	7.49
650.983	7.35
651.172	7.23
651.362	7.25
651.552	7.08
651.742	6.98
651.932	7.01
652.122	7.13
652.312	7.12
652.502	7.16
652.691	7.18
652.881	7.16
653.071	7.15
653.261	6.98
653.45	6.91
653.64	6.98
653.83	6.94
654.019	6.96
654.209	7.15
654.399	7.26
654.588	7.18
654.778	7.15
654.968	7.02
655.157	6.95
655.347	6.83
655.536	6.79
655.726	6.74
655.915	6.67
656.105	6.53
656.294	6.5
656.484	6.34
656.673	6.33
656.863	6.4
657.052	6.32
657.241	6.21
657.431	6.13
657.62	5.95
657.809	5.77
657.999	5.7
658.188	5.54
658.377	5.63
658.567	5.6
658.756	5.61
658.945	5.54
659.134	5.58
659.324	5.45
659.513	5.46
659.702	5.19
659.891	5.14
660.08	5.08
660.269	5.11
660.458	5.15
660.648	5.39
660.837	5.37
661.026	5.27
661.215	5.17
661.404	4.91
661.593	4.85
661.782	4.68
661.971	4.78
662.16	4.83
662.349	4.95
662.538	4.78
662.726	4.98
662.915	4.95
663.104	4.8
663.293	4.78
663.482	4.96
663.671	4.87
663.86	4.75
664.048	4.76
664.237	4.84
664.426	4.58
664.615	4.62
664.803	4.72
664.992	4.81
665.181	4.74
665.369	4.69
665.558	4.71
665.747	4.62
665.935	4.68
666.124	4.74
666.312	5.01
666.501	4.93
666.69	4.86
666.878	4.8
667.067	4.74
667.255	4.79
667.444	5.07
667.632	5.26
667.82	5.35
668.009	5.38
668.197	5.34
668.386	5.25
668.574	5.48
668.762	5.49
668.951	5.51
669.139	5.51
669.327	5.42
669.516	5.37
669.704	5.47
669.892	5.57
670.08	5.75
670.269	5.79
670.457	5.8
670.645	5.78
670.833	5.88
671.021	5.87
671.21	6.02
671.398	6.13
671.586	6.14
671.774	6.23
671.962	6.16
672.15	6.1
672.338	5.91
672.526	6.07
672.714	5.86
672.902	5.99
673.09	6.17
673.278	6.49
673.466	6.41
673.654	6.9
673.842	6.97
674.03	7.09
674.218	7.02
674.405	7.1
674.593	6.99
674.781	7.16
674.969	7.04
675.157	7.28
675.344	7.38
675.532	7.32
675.72	7.32
675.908	7.56
676.095	7.35
676.283	7.5
676.471	7.7
676.658	7.74
676.846	7.7
677.033	7.97
677.221	7.9
677.409	7.86
677.596	7.88
677.784	8.14
677.971	8.11
678.159	8.27
678.346	8.47
678.534	8.53
678.721	8.53
678.909	8.59
679.096	8.69
679.283	8.78
679.471	8.93
679.658	9
679.846	9.19
680.033	9.44
680.22	9.35
680.408	9.41
680.595	9.49
680.782	9.4
680.969	9.43
681.157	9.53
681.344	9.52
681.531	9.38
681.718	9.41
681.905	9.39
682.093	9.41
682.28	9.56
682.467	9.75
682.654	9.91
682.841	9.85
683.028	10.04
683.215	10.06
683.402	10.08
683.589	10.25
683.776	10.32
683.963	10.35
684.15	10.56
684.337	10.53
684.524	10.41
684.711	10.46
684.898	10.43
685.085	10.39
685.271	10.72
685.458	11.06
685.645	11.17
685.832	11.42
686.019	11.57
686.205	11.78
686.392	11.69
686.579	11.8
686.766	12.05
686.952	12.17
687.139	12.41
687.326	12.47
687.512	12.81
687.699	12.81
687.886	12.99
688.072	12.77
688.259	13.27
688.445	13.49
688.632	13.61
688.818	14.02
689.005	14.38
689.191	14.71
689.378	15.07
689.564	15.59
689.751	15.55
689.937	16.07
690.124	16.2
690.31	16.45
690.496	16.61
690.683	17.39
690.869	17.75
691.055	18.27
691.242	18.86
691.428	19.45
691.614	19.74
691.8	20.3
691.987	20.67
692.173	21.06
692.359	21.64
692.545	22.08
692.731	22.06
692.918	22.47
693.104	22.8
693.29	23.11
693.476	23.59
693.662	24.44
693.848	24.97
694.034	25.71
694.22	26.28
694.406	27.12
694.592	27.59
694.778	28.07
694.964	28.25
695.15	28.71
695.336	29.12
695.522	29.86
695.708	30.69
695.894	31.55
696.08	32.22
696.265	32.72
696.451	33.26
696.637	33.92
696.823	34.67
697.009	35.32
697.194	36.21
697.38	36.75
697.566	37.3
697.751	37.54
697.937	38.22
698.123	38.74
698.308	39.75
698.494	40.5
698.68	41.49
698.865	42.15
699.051	42.99
699.236	43.54
699.422	43.84
699.607	44.26
699.793	44.77
699.978	44.94
700.164	45.23
700.349	46.26
700.535	47.04
700.72	47.65
700.906	48.45
701.091	49.34
701.276	49.85
701.462	50.56
701.647	51.74
701.832	52.3
702.018	52.95
702.203	53.78
702.388	54.17
702.573	54.25
702.759	55.09
702.944	55.2
703.129	55.43
703.314	56.24
703.499	57.11
703.684	57.75
703.87	58.82
704.055	59.78
704.24	60.37
704.425	60.71
704.61	60.96
704.795	61.02
704.98	60.77
705.165	60.88
705.35	61.26
705.535	61.6
705.72	62.6
705.905	63.46
706.09	64.34
706.275	64.71
706.459	65.17
706.644	65.3
706.829	66.29
707.014	66.44
707.199	66.87
707.384	67.7
707.568	68.13
707.753	68.44
707.938	69.15
708.123	69.6
708.307	69.65
708.492	70.07
708.677	69.69
708.861	69.35
709.046	69.45
709.231	70.09
709.415	70.31
709.6	71.13
709.784	71.4
709.969	72.17
710.153	72.29
710.338	72.7
710.522	72.5
710.707	73.38
710.891	73.56
711.076	73.98
711.26	73.89
711.445	74.6
711.629	74.86
711.813	75.31
711.998	75.85
712.182	76.23
712.366	76.9
712.551	77.5
712.735	77.26
712.919	77.51
713.103	78.07
713.288	77.86
713.472	77.81
713.656	78.86
713.84	79.04
714.024	79.37
714.208	79.85
714.393	80.35
714.577	80.3
714.761	80.15
714.945	80.5
715.129	80.18
715.313	79.9
715.497	79.92
715.681	80.52
715.865	80.78
716.049	81.38
716.233	82.06
716.417	82.42
716.601	82.49
716.785	82.17
716.968	82.26
717.152	82.4
717.336	82.64
717.52	82.19
717.704	83.12
717.888	83.82
718.071	83.47
718.255	83.58
718.439	84.38
718.622	84.45
718.806	84.19
718.99	84.15
719.174	84.73
719.357	85.05
719.541	84.53
719.724	84.99
719.908	86.36
720.092	86.7
720.275	86.72
720.459	87.51
720.642	86.88
720.826	86.22
721.009	85.74
721.193	85.36
721.376	85.09
721.559	86.62
721.743	87.23
721.926	87.58
722.11	87.45
722.293	87.73
722.476	86.55
722.66	86.33
722.843	86.56
723.026	86.81
723.21	86.73
723.393	87.92
723.576	88.47
723.759	87.75
723.942	88.52
724.126	88.8
724.309	88.91
724.492	88.54
724.675	89.62
724.858	89.72
725.041	90.5
725.224	90.19
725.407	90.3
725.59	90.3
725.774	90.37
725.957	89.26
726.14	89.42
726.322	89.63
726.505	89.63
726.688	89.9
726.871	90.06
727.054	90.41
727.237	90.82
727.42	91.33
727.603	92.25
727.786	92.92
727.968	93.31
728.151	93.32
728.334	92.7
728.517	92.03
728.699	92.75
728.882	92.13
729.065	92.55
729.248	93.32
729.43	93.3
729.613	93.84
729.796	94.15
729.978	93.26
730.161	93.21
730.343	94.31
730.526	93.9
730.708	94.02
730.891	95.14
731.073	94.44
731.256	93.2
731.438	93.81
731.621	93.83
731.803	94.7
731.986	95.64
732.168	95.74
732.35	95.6
732.533	95.99
732.715	95.23
732.898	96.04
733.08	96.42
733.262	96.24
733.444	95.33
733.627	95.12
733.809	95.33
733.991	96.64
734.173	97.07
734.355	97.92
734.538	98.08
734.72	97.02
734.902	96.77
735.084	96.1
735.266	96.62
735.448	97
735.63	97.02
735.812	96.89
735.994	97.92
736.176	98.01
736.358	97.39
736.54	98.81
736.722	98.89
736.904	98.6
737.086	98.41
737.268	100.74
737.45	100.74
737.632	100.45
737.814	99.88
737.995	100.8
738.177	99.55
738.359	98.95
738.541	98.83
738.723	99.4
738.904	99.26
739.086	99.17
739.268	99.26
739.449	98.92
739.631	99.26
739.813	99.43
739.994	100.48
740.176	101.06
740.358	102.03
740.539	102.97
740.721	102.66
740.902	102.81
741.084	102.11
741.265	101.64
741.447	100.99
741.628	100.49
741.81	98.05
741.991	99.06
742.172	99.48
742.354	99.47
742.535	100.11
742.717	102.71
742.898	101.18
743.079	102.74
743.261	102.8
743.442	102.29
743.623	101.53
743.804	103.4
743.986	102.81
744.167	101.44
744.348	102.37
744.529	103.27
744.71	102.29
744.891	102.09
745.073	102.94
745.254	103.43
745.435	102.69
745.616	101.73
745.797	100.65
745.978	100.24
746.159	99.16
746.34	98.2
746.521	99.66
746.702	100.52
746.883	101.2
747.064	99.79
747.245	100.19
747.426	99.82
747.606	99.76
747.787	99.91
747.968	99.8
748.149	100.79
748.33	101.59
748.51	100.84
748.691	99.09
748.872	101.57
749.053	100.53
749.233	98.88
749.414	98.8
749.595	100.71
749.775	98.83
749.956	97.51
750.137	97.19
750.317	98.01
750.498	98.69
750.678	99.29
750.859	101.35
751.04	103.17
751.22	102.94
751.4	101.18
751.581	101.05
751.761	100.25
751.942	101.05
752.122	101.32
752.303	101.94
752.483	103.49
752.663	103.7
752.844	103.63
753.024	104.5
753.204	103.77
753.385	101.01
753.565	99.04
753.745	97.82
753.925	96.25
754.106	98.29
754.286	100.07
754.466	99.32
754.646	100.29
754.826	101.22
755.006	97.98
755.187	99.03
755.367	101.68
755.547	100.89
755.727	100.55
755.907	101.46
756.087	101.35
756.267	100.45
756.447	100.57
756.627	99.52
756.807	100.91
756.987	99.66
757.167	100.51
757.346	98.45
757.526	96.98
757.706	95.59
757.886	95.12
758.066	96.41
758.246	99.93
758.425	102.8
758.605	103.17
758.785	103.98
758.965	101.91
759.144	97.43
759.324	97.09
759.504	97.81
759.683	96.9
759.863	95.9
760.043	97.62
760.222	97.81
760.402	96.42
760.581	97.1
760.761	98.83
760.94	95.6
761.12	94.64
761.299	97.55
761.479	97.2
761.658	96.23
761.838	98.69
762.017	98.68
762.197	95.87
762.376	95.28
762.555	95.54
762.735	97.4
762.914	95.75
763.093	97.75
763.273	96.53
763.452	96.97
763.631	94.84
763.81	93.72
763.99	92.73
764.169	93.69
764.348	91.75
764.527	92.18
764.706	95.51
764.885	95.81
765.064	95.41
765.243	94.92
765.423	95
765.602	95.43
765.781	93.7
765.96	91.25
766.139	92.05
766.318	92.38
766.497	92.35
766.676	94.05
766.854	97.24
767.033	98.56
767.212	99.03
767.391	96.72
767.57	97.1
767.749	97.92
767.928	97.12
768.106	93.34
768.285	92.96
768.464	93.66
768.643	93.28
768.821	93.96
769	96.33
769.179	97.22
769.357	92.96
769.536	91.29
769.715	92.59
769.893	92.75
770.072	92.24
770.25	91.24
770.429	90.75
770.607	88.55
770.786	89.44
770.964	90.77
771.143	94.97
771.321	97.8
771.5	99.1
771.678	97.07
771.857	93.42
772.035	94.39
772.213	91.59
772.392	87.22
772.57	90.46
772.748	94.03
772.927	88.41
773.105	89.92
773.283	95.35
773.461	95.57
773.64	93.04
773.818	93.77
773.996	93.87
774.174	92.75
774.352	87.82
774.531	89.47
774.709	92.39
774.887	92.13
775.065	89.6
775.243	91.46
775.421	92.08
775.599	94.77
775.777	91.97
775.955	89.71
776.133	89.17
776.311	87.24
776.489	81.7
776.667	83.21
776.844	87.94
777.022	86.67
777.2	87.04
777.378	87.56
777.556	88.06
777.734	88.17
777.911	89.85
778.089	89.04
778.267	93.66
778.445	91.07
778.622	88.7
778.8	88.02
778.978	92.29
779.155	87.53
779.333	89.43
779.511	84.6
779.688	86.2
779.866	76.64
780.043	75.51
780.221	75.73
780.398	77.47
780.576	78.33
780.753	85.15
780.931	85.67
781.108	84.17
781.286	86.4
781.463	79.53
781.64	77.8
781.818	83.07
781.995	85.46
782.172	87.79
782.35	92.2
782.527	92.81
782.704	87.46
782.882	88.3
783.059	85.46
783.236	85.37
783.413	86
783.59	88.86
783.768	83.27
783.945	84.66
784.122	87.16
784.299	86.75
784.476	83.71
784.653	86.83
784.83	83.7
785.007	74.91
785.184	74.62
785.361	76.26
785.538	82.24
785.715	83.63
785.892	91.78
786.069	94.25
786.246	95.08
786.423	86.94
786.6	89.44
786.776	88.5
786.953	87.27
787.13	88.44
787.307	92.71
787.484	94.69
787.66	90.72
787.837	87
788.014	85.31
788.191	80.95
788.367	78.18
788.544	82.92
788.721	85.54
788.897	86.54
789.074	89.37
789.25	83.11
789.427	82.79
789.603	81.02
789.78	86.19
789.956	77.11
790.133	82.76
790.309	76.8
790.486	80.45
790.662	74.45
790.839	79.58
791.015	84.54
791.192	83.96
791.368	82.95
791.544	77.5
791.721	86.03
791.897	83.14
792.073	84.75
792.249	83.93
792.426	88.22
792.602	83.45
792.778	77.3
792.954	76.69
793.13	71.22
793.307	68.1
793.483	61.37
793.659	62.19
793.835	64.15
794.011	69.94
794.187	64.13
794.363	64
794.539	66.17
794.715	63.99
794.891	59.73
795.067	63.13
795.243	73.48
795.419	72.17
795.595	75.28
795.771	80.48
795.947	88.29
796.122	76.37
796.298	78.14
796.474	79.58
796.65	76.41
796.826	70.62
797.001	79.3
797.177	75.38
797.353	76.2
797.529	80.46
797.704	77.56
797.88	71.69
798.056	69.2
798.231	67.02
798.407	67.8
798.582	72.5
798.758	78.87
798.934	89.84
799.109	85.84
799.285	76.26
799.46	82.57
799.636	82.42
799.811	81.53
799.986	89.34
800.162	99.56
800.337	95.61
800.513	91.19
800.688	83.14
800.863	82.87
801.039	73.61
801.214	63.6
801.389	66.26
801.565	73.8
801.74	67.43
801.915	71.43
802.09	80.7
802.265	84.95
802.441	77.81
802.616	75.27
802.791	75.58
802.966	78.54
803.141	76.38
803.316	66.86
803.491	71.24
803.666	71.3
803.841	62.58
804.016	59.93
804.191	71.24
804.366	72.04
804.541	67.94
804.716	63.89
804.891	57.23
805.066	64.81
805.241	66.33
805.416	70.26
805.591	69.36
805.765	75.62
805.94	73.7
806.115	70.82
806.29	66.93
806.464	78.65
806.639	74.65
806.814	58.23
806.989	46.81
807.163	56.56
807.338	49.72
807.512	48.59
807.687	50.67
807.862	63.01
808.036	62.62
808.211	62.45
808.385	68.63
808.56	79.51
808.734	77.26
808.909	73.96
809.083	75.17
809.258	81.43
809.432	77.49
809.606	58.29
809.781	61.25
809.955	66.46
810.13	64.8
810.304	56.25
810.478	67.16
810.652	73.86
810.827	78.98
811.001	79.05
811.175	83.48
811.349	86.7
811.524	76.57
811.698	61.72
811.872	52.46
812.046	53.66
812.22	58.48
812.394	52.99
812.568	54.93
812.742	61.91
812.916	56.56
813.09	52.63
813.264	67.43
813.438	70.92
813.612	68.28
813.786	56.69
813.96	65.02
814.134	66.77
814.308	75.57
814.482	73.48
814.656	89.14
814.83	89.37
815.003	80.64
815.177	74.43
815.351	70.7
815.525	80.01
815.698	70.84
815.872	52.82
816.046	44.16
816.219	47.71
816.393	47.84
816.567	51.43
816.74	58.42
816.914	68.65
817.088	67.64
817.261	57.46
817.435	50.87
817.608	52.17
817.782	46.99
817.955	51.43
818.129	41.93
818.302	47.6
818.475	69.76
818.649	71.6
818.822	57.83
818.996	77.29
819.169	80.59
819.342	59.56
819.516	60.48
819.689	77.4
819.862	71.05
820.035	57.49
820.209	47.72
820.382	55.44
820.555	51.87
820.728	33.65
820.901	31.74
821.075	47.63
821.248	63.74
821.421	57.52
821.594	59.3
821.767	84.55
821.94	92.77
822.113	40.18
822.286	43.89
822.459	71.38
822.632	58.42
822.805	50.7
822.978	63.43
823.151	62.63
823.324	26.19
823.496	-6.87
823.669	7.41
823.842	20.73
824.015	7.91
824.188	5.16
824.361	14.15
824.533	2.21
824.706	12.33
824.879	19.7
825.051	59.63
825.224	71.08
825.397	68.36
825.569	57.85
825.742	71.04
825.915	76.83
826.087	70.87
826.26	66.58
826.432	68.08
826.605	68.12
826.777	66.97
826.95	60.8
827.122	55.89
827.295	63.03
827.467	56.09
827.64	31.1
827.812	24.38
827.984	39.02
828.157	30.42
828.329	11.95
828.501	10.26
828.674	23.16
828.846	20.73
829.018	35.18
829.19	40.19
829.363	57.71
829.535	53.35
829.707	52.14
829.879	15.28
830.051	11.45
830.223	8.62
830.395	-14.69
830.568	-21.31
830.74	-3.92
830.912	30.69
831.084	21.19
831.256	28.5
831.428	12.05
831.6	6.4
831.772	-31.03
831.943	-30.5
832.115	-10.39
832.287	35.68
832.459	35.19
832.631	40.71
832.803	52.73
832.975	55.9
833.146	35.44
833.318	31.97
833.49	45.13
833.662	43.53
833.833	24.77
834.005	26.25
834.177	45.44
834.348	18.7
834.52	-14.87
834.692	-2.42
834.863	-9.74
835.035	-24.76
835.206	-7.19
835.378	27.45
835.549	8.41
835.721	14.32
835.892	10.92
836.064	13.86
836.235	17.22
836.407	58.45
836.578	54.3
836.749	60.36
836.921	60.51
837.092	33.27
837.264	-18.51
837.435	-41.6
837.606	-41.45
837.777	-10.3
837.949	7.26
838.12	1.18
838.291	25.95
838.462	41.97
838.633	20.63
838.805	2.58
838.976	29.07
839.147	26.76
839.318	-12.44
839.489	-37.03
839.66	-0.13
839.831	1.57
840.002	2.12
840.173	15.47
840.344	29.8
840.515	20.81
840.686	-8.69
840.857	-26.75
841.028	-39.23
841.199	-16.94
841.369	-47.77
841.54	-50.01
841.711	-13.21
841.882	-2.4
842.053	-20.41
842.223	-34.39
842.394	-1.12
842.565	-6.71
842.736	8.61
842.906	10.35
843.077	37.91
843.248	49.95
843.418	51.71
843.589	38.79
843.759	87
843.93	88.84
844.101	75.02
844.271	82.88
844.442	102.38
844.612	84.16
844.783	55
844.953	24.05
845.123	38.08
845.294	32.4
845.464	11.38
845.635	29.78
845.805	63.97
845.975	64.52
846.146	32.53
846.316	16.21
846.486	28.21
846.656	29.64
846.827	-7.01
846.997	-19.45
847.167	25.7
847.337	1.53
847.507	-16.01
847.677	-6.05
847.848	44.85
848.018	45.64
848.188	57.26
848.358	46.76
848.528	60.28
848.698	27.73
848.868	-14.61
849.038	-35.05
849.208	-12.25
849.378	-3.61
849.548	-22.75
849.718	33.4
849.887	102.55
850.057	27.79
850.227	-17.94
850.397	-25.02
850.567	-54.95
850.737	-48.97
850.906	-53.32
851.076	-88.78
851.246	-84.39
851.415	-34.04
851.585	-40.24
851.755	-34.61
851.924	22.32
852.094	22.7
852.264	3.31
852.433	-27.17
852.603	-6
852.772	-14.62
852.942	-26.63
853.111	-69.03
853.281	-1.65
853.45	6.81
853.62	-27.9
853.789	-74.4
853.959	9.62
854.128	-34.75
854.297	-64.94
854.467	-61.04
854.636	0.28
854.805	-12.53
854.975	-31.5
855.144	-22.95
855.313	32.19
855.482	26.6
855.652	-22.11
855.821	-3.03
855.99	62.11
856.159	58.01
856.328	35.12
856.497	40.93
856.667	62.69
856.836	-2.14
857.005	-100.48
857.174	-198.46
857.343	-188.16
857.512	-140.94
857.681	-169.59
857.85	-113.46
858.019	-62.5
858.188	-51.24
858.356	-80.89
858.525	-78.02
858.694	-86.41
858.863	-51.01
859.032	-66.26
859.201	-57.33
859.369	-21.79
859.538	9.68
859.707	-37.01
859.876	-58.9
860.044	-26.55
860.213	-4.83
860.382	-18.26
860.55	30.06
860.719	85.96
860.888	104.86
861.056	60.92
861.225	56.25
861.393	120.67
861.562	109.08
861.73	39.91
861.899	48.11
862.067	18.25
862.236	15.1
862.404	-57.89
862.572	-85.82
862.741	-35.36
862.909	-43.74
863.078	-68.08
863.246	-64.4
863.414	-34.95
863.582	-95.9
863.751	-48.48
863.919	-46.41
864.087	17.91
864.255	18.55
864.424	-12.5
864.592	6.52
864.76	40.94
864.928	29.96
865.096	14.35
865.264	23.34
865.432	20.67
865.6	32.69
865.768	-65.7
865.936	-114.03
866.104	-37.53
866.272	-56.07
866.44	-100.75
866.608	-77.17
866.776	-117.77
866.944	-238.06
867.112	-357.79
867.28	-580.17
867.448	-1194.84
867.615	-437.59
867.783	-92.24
867.951	-65.63
868.119	54.1
868.286	54.35
868.454	14.48
868.622	-29.88
868.789	-19.83
868.957	-22.36
869.125	-69.1
869.292	-61.95
869.46	-44.56
869.627	-13.22
869.795	-77.24
869.963	-47.79
870.13	-20.55
870.298	13.1
870.465	-39.26
870.632	-19.36
870.8	-29.17
870.967	-36.99
871.135	-161.67
871.302	-119.72
871.469	-72.82
871.637	-29.93
871.804	-24.37
871.971	-14.24
872.139	8.46
872.306	27.66
872.473	5.54
872.64	-37.87
872.807	57.69
872.975	62.4
873.142	0.13
873.309	16.79
873.476	108.46
873.643	66.4
873.81	48.05
873.977	44.7
874.144	52.37
874.311	38.03
874.478	-45.1
874.645	-109.92
874.812	-291.6
874.979	17866.67
875.146	-519.21
875.313	-136.94
875.48	-24.68
875.647	-16
875.813	-75.92
875.98	-89.45
876.147	-136.8
876.314	-122.74
876.481	-203.35
876.647	-202.47
876.814	-95.84
876.981	-69.6
877.147	-137.41
877.314	-119.22
877.481	-38.58
877.647	-13.03
877.814	-53.03
877.98	-72.96
878.147	21.49
878.314	59.61
878.48	-33.3
878.647	-41.24
878.813	42.61
878.979	61.76
879.146	18.47
879.312	41.51
879.479	68.5
879.645	66.86
879.811	-26.8
879.978	1.62
880.144	-18.94
880.31	-62.82
880.477	-156.04
880.643	-143.57
880.809	-104.61
880.975	-26.29
881.142	-59.93
881.308	-31.71
881.474	22.24
881.64	25.72
881.806	-26.58
881.972	6.73
882.138	25.75
882.304	34.45
882.47	-57.13
882.636	-98.1
882.802	-118.41
882.968	-72.64
883.134	-209.92
883.3	-259.61
883.466	-33.8
883.632	-15.36
883.798	-91.31
883.964	-51.4
884.129	-44.37
884.295	-75.99
884.461	-84.5
884.627	-108
884.793	-72.28
884.958	-13.38
885.124	-75.16
885.29	-81.66
885.455	-20
885.621	4.13
885.787	-152.68
885.952	-36.49
886.118	-42.32
886.283	-27.79
886.449	-111.67
886.614	-56.49
886.78	-40.88
886.945	-31.42
887.111	-221.49
887.276	-187.27
887.442	-411.95
887.607	-254.34
887.773	-381.46
887.938	-227.77
888.103	-145.27
888.269	-50.85
888.434	-22.36
888.599	-4.18
888.764	65.04
888.93	88.17
889.095	46.04
889.26	6.43
889.425	65.3
889.59	53.04
889.756	-24.24
889.921	-23.48
890.086	-16.4
890.251	-18.6
890.416	-81.02
890.581	-76.46
890.746	-48.67
890.911	-5.25
891.076	-50.01
891.241	-59.63
891.406	33.1
891.571	45.41
891.736	-2.64
891.901	-27.99
892.065	4.38
892.23	1.83
892.395	-92.47
892.56	-166.53
892.725	-42.53
892.889	-28.73
893.054	-148.13
893.219	-131.91
893.384	-96.81
893.548	-151.07
893.713	-197.17
893.878	-149.39
