Data from Ofra_PP_Phys_9CX6B_Reflection_1.txt Node
Date: Sat Jul 24 20:05:00 EDT 2021
User: USUARIO
Spectrometer: FLMT01687
Trigger mode: 0
Integration Time (sec): 1.100000E0
Scans to average: 2
Electric dark correction enabled: true
Nonlinearity correction enabled: false
Boxcar width: 2
XAxis mode: Wavelengths
Number of Pixels in Spectrum: 3648
>>>>>Begin Spectral Data<<<<<
179.494	629.22
179.716	758.95
179.937	1287.95
180.158	1111.49
180.38	536.46
180.601	-603.63
180.823	30.59
181.044	486.05
181.265	30.75
181.486	31.16
181.708	144.54
181.929	-532
182.15	-13.25
182.372	-27.36
182.593	43500
182.814	392.31
183.035	173.89
183.257	111.89
183.478	46.23
183.699	12.21
183.92	-22.99
184.141	18.45
184.363	-12.59
184.584	60.18
184.805	65.09
185.026	81.53
185.247	64.12
185.468	39.41
185.689	23.43
185.91	7.55
186.132	-31.4
186.353	0.16
186.574	26.86
186.795	33.41
187.016	11.93
187.237	43.17
187.458	18.84
187.679	57.39
187.9	61.18
188.121	84.27
188.342	81.79
188.563	82.47
188.784	76.28
189.005	64.61
189.226	83.44
189.447	62.33
189.667	66.4
189.888	34.65
190.109	39.97
190.33	16.94
190.551	2.31
190.772	1.61
190.993	2.2
191.214	-13.29
191.434	-24.12
191.655	23.23
191.876	13.4
192.097	5.29
192.318	10.28
192.538	7.08
192.759	-16.78
192.98	-14.09
193.201	5.44
193.421	-27.75
193.642	-11.41
193.863	-5.49
194.083	-16.12
194.304	-14.81
194.525	13.6
194.745	-5.1
194.966	-45.05
195.187	-46.41
195.407	-70.64
195.628	-111.17
195.848	-76.21
196.069	-63.6
196.29	-38.2
196.51	-81.31
196.731	-91.14
196.951	-63.87
197.172	-34.42
197.392	-49.68
197.613	-8.98
197.833	7.81
198.054	-11.09
198.274	-25.67
198.495	-51.93
198.715	-18.48
198.936	-46.17
199.156	-6.87
199.377	-8.63
199.597	-8.63
199.817	-33.53
200.038	-4.65
200.258	-5.92
200.479	35.02
200.699	41.95
200.919	31.83
201.14	3.69
201.36	-11.47
201.58	-31.06
201.801	-5.35
202.021	-13.54
202.241	28.98
202.461	14.24
202.682	11.21
202.902	25.69
203.122	29.41
203.342	22.44
203.563	51.68
203.783	66.2
204.003	-1.39
204.223	-63.86
204.443	30.73
204.663	-3.39
204.884	-50.71
205.104	12.15
205.324	54
205.544	21.41
205.764	22.09
205.984	45.61
206.204	28.83
206.424	16.58
206.644	3.52
206.864	22.8
207.084	6.48
207.304	5.94
207.525	-8.17
207.745	4.26
207.964	2.57
208.184	6.07
208.404	2.31
208.624	4.76
208.844	9.8
209.064	-9.25
209.284	17.7
209.504	30.28
209.724	58.86
209.944	51.67
210.164	64.61
210.384	48.09
210.604	49.56
210.823	-7.49
211.043	-24.7
211.263	-25.55
211.483	-51.6
211.703	-53.43
211.922	-8.09
212.142	48.65
212.362	55.48
212.582	58.46
212.801	75.45
213.021	44.29
213.241	36.62
213.461	-1.68
213.68	-41.07
213.9	-60.1
214.12	-43.17
214.339	-58.81
214.559	-19.64
214.779	30.83
214.998	43.87
215.218	26.7
215.438	30.17
215.657	13.11
215.877	50.38
216.096	41.05
216.316	73.97
216.535	64.5
216.755	73.85
216.974	41.74
217.194	45.27
217.413	25.81
217.633	27.73
217.852	-25.09
218.072	-21.58
218.291	-36.85
218.511	-27.5
218.73	-65.93
218.95	-55.21
219.169	-66.92
219.389	-88.16
219.608	-95.24
219.827	-33.67
220.047	-9.2
220.266	-2.6
220.485	6.06
220.705	22.94
220.924	-21.52
221.143	-12.59
221.363	-35.64
221.582	-1.53
221.801	-18.02
222.021	8.61
222.24	28.96
222.459	60.23
222.678	32.81
222.897	32.18
223.117	36.45
223.336	34.2
223.555	39.94
223.774	67.78
223.993	90.86
224.213	111.69
224.432	58.98
224.651	75.89
224.87	57.34
225.089	61.92
225.308	45.02
225.527	63.97
225.746	61.16
225.965	53.11
226.184	42.47
226.404	55.48
226.623	42.77
226.842	36.14
227.061	64.37
227.28	74.57
227.499	87.84
227.718	102.33
227.936	83.53
228.155	53.36
228.374	15.53
228.593	-22.55
228.812	-22.56
229.031	4.24
229.25	-17.25
229.469	23.17
229.688	17.57
229.907	20.17
230.125	28.97
230.344	53.85
230.563	51.39
230.782	78.34
231.001	44.48
231.22	28.56
231.438	39.2
231.657	20.24
231.876	13.51
232.095	44.85
232.313	51.14
232.532	38.07
232.751	42.22
232.969	33.46
233.188	30.84
233.407	23.51
233.625	29.13
233.844	32.68
234.063	54.42
234.281	65.66
234.5	70.23
234.719	69.69
234.937	61.41
235.156	64.63
235.374	60.63
235.593	73.51
235.811	58.71
236.03	60.99
236.249	42.26
236.467	41.03
236.686	19.9
236.904	36.78
237.123	-1.98
237.341	4.71
237.559	-12.9
237.778	-5.06
237.996	-20.17
238.215	13.5
238.433	21.38
238.652	35.99
238.87	-13.87
239.088	8.49
239.307	19.35
239.525	0.78
239.743	-36.48
239.962	15.92
240.18	-21.95
240.398	-53.5
240.617	-47.45
240.835	-0.56
241.053	-43.58
241.271	13.72
241.49	19.14
241.708	12.18
241.926	7.23
242.144	29.04
242.363	2.38
242.581	9.25
242.799	32.64
243.017	17.67
243.235	-15.69
243.453	23.19
243.672	9.2
243.89	8.12
244.108	31.2
244.326	54.65
244.544	53.93
244.762	36.53
244.98	48.55
245.198	41.54
245.416	15.78
245.634	16.14
245.852	39.93
246.07	28.78
246.288	42.39
246.506	50.17
246.724	44.97
246.942	39.3
247.16	36.53
247.378	42.88
247.596	44.47
247.814	40.46
248.032	2.84
248.25	-2.54
248.468	-12.32
248.685	5.89
248.903	11.41
249.121	34.7
249.339	26.52
249.557	27.81
249.775	-5.74
249.992	-61.23
250.21	-60.27
250.428	-37.81
250.646	-44.69
250.863	-28.7
251.081	-8.29
251.299	8.55
251.517	11.35
251.734	15.68
251.952	4.41
252.17	24.92
252.387	40.85
252.605	21.12
252.823	26.37
253.04	51.93
253.258	55.92
253.475	41.38
253.693	51.41
253.911	53.52
254.128	54.08
254.346	54.36
254.563	27.06
254.781	27.09
254.998	17.9
255.216	12.15
255.433	2.35
255.651	38.17
255.868	49.39
256.086	49.38
256.303	46.34
256.521	48.05
256.738	33.39
256.956	18.04
257.173	23.96
257.39	18.11
257.608	17.14
257.825	19.83
258.043	35.04
258.26	25.19
258.477	20.37
258.695	18.8
258.912	-7.23
259.129	-26.02
259.346	-35.66
259.564	-26.63
259.781	-4.85
259.998	0.54
260.216	28.27
260.433	47.87
260.65	29.37
260.867	20.59
261.084	19.68
261.302	10.73
261.519	23.6
261.736	28.61
261.953	31.3
262.17	40.44
262.387	34.63
262.604	10.86
262.822	15.52
263.039	8.38
263.256	4.5
263.473	14.52
263.69	14.2
263.907	31.99
264.124	44.1
264.341	57.5
264.558	29.65
264.775	31.66
264.992	34.02
265.209	29.15
265.426	17.46
265.643	33.13
265.86	38.89
266.077	41.36
266.294	30.2
266.51	33
266.727	21.78
266.944	42.67
267.161	15.61
267.378	22.36
267.595	28.07
267.812	5.6
268.028	-11.88
268.245	1.96
268.462	18.04
268.679	11.12
268.896	50.27
269.112	37.3
269.329	37.11
269.546	39.87
269.763	42.21
269.979	32.37
270.196	30.6
270.413	22.69
270.629	3.81
270.846	6.34
271.063	12.28
271.279	4.67
271.496	-15.62
271.712	0.68
271.929	4.77
272.146	27.77
272.362	44.4
272.579	76.37
272.795	79.85
273.012	83.85
273.228	47.59
273.445	35.29
273.661	-5.21
273.878	-69.32
274.094	-62.38
274.311	-55.77
274.527	-10.25
274.744	24.01
274.96	56.11
275.177	45.81
275.393	46.84
275.609	47.57
275.826	48.57
276.042	41.05
276.259	55.55
276.475	42.33
276.691	28.27
276.908	21.07
277.124	47.16
277.34	36.35
277.557	36.41
277.773	36.38
277.989	37.31
278.205	32.89
278.422	45.01
278.638	63.98
278.854	74.65
279.07	71.18
279.286	43.6
279.503	13.89
279.719	2.09
279.935	-14.04
280.151	-26.87
280.367	8.36
280.583	25.39
280.799	25.15
281.016	32.25
281.232	44.77
281.448	30.81
281.664	35.28
281.88	37.87
282.096	30.77
282.312	31.13
282.528	39.55
282.744	45.55
282.96	39.62
283.176	43.38
283.392	26.84
283.608	30.9
283.824	17.36
284.04	21.48
284.256	40.57
284.471	51.76
284.687	48.35
284.903	58.52
285.119	69.63
285.335	36.24
285.551	38.24
285.767	25.31
285.982	-0.42
286.198	-13.75
286.414	17.71
286.63	5.03
286.846	22.65
287.061	10.04
287.277	22.34
287.493	10.07
287.709	19.92
287.924	20.44
288.14	50.39
288.356	53.19
288.571	59.23
288.787	49.94
289.003	48.53
289.218	34.21
289.434	10.24
289.65	16.47
289.865	14.72
290.081	8.13
290.296	15.05
290.512	14.42
290.727	13.51
290.943	9.29
291.159	8.58
291.374	9.58
291.59	2.02
291.805	4.12
292.021	16.14
292.236	17.82
292.451	14.58
292.667	24.3
292.882	35.17
293.098	54.32
293.313	38.15
293.529	22.45
293.744	6.49
293.959	-16.51
294.175	-39.47
294.39	-15.5
294.605	2.71
294.821	20.85
295.036	19.01
295.251	39.07
295.467	35.39
295.682	38.7
295.897	18.13
296.112	10.94
296.328	8.95
296.543	6.64
296.758	-11.7
296.973	28.59
297.188	52.34
297.404	29.19
297.619	30.25
297.834	39.71
298.049	22.8
298.264	17.52
298.479	32.38
298.694	24.78
298.909	18.37
299.125	23.33
299.34	35.78
299.555	34.45
299.77	57.24
299.985	32.52
300.2	3.4
300.415	-35.63
300.63	-29.19
300.845	-34.64
301.06	-27.2
301.275	-4.26
301.49	7.15
301.704	-3.93
301.919	-25.36
302.134	-24.54
302.349	3.54
302.564	-11.06
302.779	2.9
302.994	40.35
303.209	40.01
303.423	32.62
303.638	55.17
303.853	53.88
304.068	25.59
304.283	31.2
304.497	17.07
304.712	22.72
304.927	20.63
305.142	23.22
305.356	32.14
305.571	42.27
305.786	33.37
306	32.22
306.215	39.05
306.43	9.67
306.644	26.59
306.859	35.08
307.074	24.11
307.288	10.83
307.503	36.06
307.717	10.26
307.932	18.36
308.147	19.98
308.361	26.43
308.576	2.84
308.79	-41.64
309.005	-29.96
309.219	-20.83
309.434	2.73
309.648	-0.9
309.863	32.14
310.077	11.6
310.292	-3.87
310.506	-17.38
310.72	15.96
310.935	36.59
311.149	44.27
311.364	62.41
311.578	66.32
311.792	58.65
312.007	43.23
312.221	12.21
312.435	20.19
312.649	-7.43
312.864	-4.81
313.078	-9.07
313.292	27.4
313.507	28.67
313.721	25.79
313.935	28.99
314.149	59.97
314.363	58.28
314.578	43.05
314.792	49.41
315.006	45.81
315.22	19.58
315.434	17.7
315.648	36.11
315.862	39.71
316.077	42.71
316.291	51.5
316.505	53.83
316.719	26
316.933	-7.75
317.147	0.12
317.361	-28.12
317.575	-27.7
317.789	-26.65
318.003	-9.26
318.217	-8.34
318.431	16.22
318.645	28.65
318.859	24.65
319.073	43.65
319.287	30.22
319.5	7.44
319.714	-23.03
319.928	-22.78
320.142	-29.5
320.356	16.16
320.57	38.42
320.784	40.61
320.997	54.3
321.211	52.8
321.425	15.25
321.639	-14.36
321.853	9
322.066	-6.28
322.28	-31.56
322.494	-18.53
322.707	28.04
322.921	12.23
323.135	20.02
323.349	39.8
323.562	36.97
323.776	10.46
323.989	23.41
324.203	6.27
324.417	10.74
324.63	-14.34
324.844	-31.29
325.057	-35.12
325.271	-40.9
325.485	-41.83
325.698	6.08
325.912	37.5
326.125	33.92
326.339	53.25
326.552	45.37
326.766	49.16
326.979	45.45
327.193	56.44
327.406	44.9
327.619	50.42
327.833	44.12
328.046	34.19
328.26	22.65
328.473	21.64
328.686	4.99
328.9	7.86
329.113	15.26
329.326	6.77
329.54	11.37
329.753	19.91
329.966	9.91
330.179	19.26
330.393	39.86
330.606	31.11
330.819	43.31
331.032	57.13
331.246	58.3
331.459	60.19
331.672	53.1
331.885	34.99
332.098	6.89
332.311	6.48
332.525	-4.98
332.738	-2.99
332.951	15.69
333.164	30.47
333.377	41.11
333.59	60.3
333.803	62.27
334.016	61.73
334.229	63.54
334.442	66.02
334.655	74.59
334.868	69.23
335.081	56.66
335.294	41.94
335.507	38.4
335.72	36.67
335.933	26.74
336.146	32.62
336.359	46.38
336.572	28.92
336.785	3.93
336.997	4.68
337.21	9.05
337.423	3.29
337.636	3.94
337.849	7.08
338.062	9.87
338.274	25.54
338.487	19.36
338.7	29.88
338.913	29.45
339.125	21.59
339.338	12.66
339.551	19.64
339.763	38.59
339.976	57.9
340.189	54.66
340.402	58.54
340.614	51.7
340.827	36.65
341.039	15.13
341.252	14.62
341.465	-0.8
341.677	0.72
341.89	-38.54
342.102	-15.78
342.315	-18.19
342.527	-5.08
342.74	-6.49
342.952	35.32
343.165	26.63
343.377	53.49
343.59	26.89
343.802	49.84
344.015	43.51
344.227	55.33
344.44	32.63
344.652	48.44
344.864	38.71
345.077	56.8
345.289	43.41
345.502	49.6
345.714	36.67
345.926	32.02
346.139	24.25
346.351	23.41
346.563	24.76
346.775	40.48
346.988	32.7
347.2	24.17
347.412	6.34
347.624	0.91
347.837	2.95
348.049	19.63
348.261	39.64
348.473	44.47
348.685	17.06
348.897	-0.33
349.11	-2.5
349.322	-23.16
349.534	6.07
349.746	31.75
349.958	50.01
350.17	39.38
350.382	54.98
350.594	48.94
350.806	49.08
351.018	39
351.23	42.96
351.442	36.49
351.654	44.81
351.866	54.35
352.078	54.67
352.29	64.61
352.502	73.39
352.714	80.84
352.926	67.62
353.138	61.53
353.35	47.34
353.561	32.86
353.773	11.77
353.985	14.86
354.197	14.59
354.409	17.44
354.621	15.69
354.832	19.86
355.044	15.23
355.256	12.12
355.468	16.54
355.679	20.81
355.891	24.25
356.103	11.1
356.314	14.13
356.526	20.81
356.738	40.29
356.949	37.29
357.161	39.64
357.373	29.69
357.584	21.75
357.796	-1.46
358.008	-14.46
358.219	3.69
358.431	12.9
358.642	21.69
358.854	36.59
359.065	40.81
359.277	25.19
359.488	18.57
359.7	4.15
359.911	-6.5
360.123	-0.82
360.334	-5.73
360.546	-1.65
360.757	3.42
360.969	3.74
361.18	6.03
361.391	3.89
361.603	-5.69
361.814	7.73
362.025	-2.55
362.237	-8.42
362.448	14.05
362.659	30.6
362.871	22.87
363.082	28.36
363.293	39.17
363.504	21.68
363.716	16.92
363.927	19.4
364.138	13.75
364.349	-9.43
364.56	0.07
364.772	-15.79
364.983	-5.47
365.194	-8.15
365.405	13.87
365.616	13.02
365.827	20.43
366.038	5.44
366.25	27.44
366.461	2.12
366.672	21.1
366.883	33.27
367.094	37.87
367.305	15.01
367.516	47.3
367.727	35.4
367.938	20.22
368.149	13.58
368.36	26.98
368.571	4.98
368.781	0.9
368.992	-0.21
369.203	15.04
369.414	4.8
369.625	3.71
369.836	1.72
370.047	-9.4
370.258	-25.72
370.468	-18.94
370.679	-36.96
370.89	-23.13
371.101	12.27
371.312	4.98
371.522	12.55
371.733	19.89
371.944	22.88
372.155	18.21
372.365	3.75
372.576	15.84
372.787	14.13
372.997	7.02
373.208	5.9
373.419	27.42
373.629	0.84
373.84	12.93
374.05	-3.9
374.261	4.3
374.472	-6.81
374.682	8.49
374.893	-7.28
375.103	22.33
375.314	10.81
375.524	14.76
375.735	23.32
375.945	30.95
376.156	6.74
376.366	13.3
376.577	16.99
376.787	17.58
376.997	27.58
377.208	41.66
377.418	24.14
377.629	37.59
377.839	26.66
378.049	21.69
378.26	17.01
378.47	38.65
378.68	29.82
378.89	33.36
379.101	29.04
379.311	21.63
379.521	-0.83
379.732	-7.91
379.942	-33.9
380.152	-24.15
380.362	-13.43
380.572	-0.69
380.783	22.56
380.993	42.17
381.203	45.65
381.413	42.99
381.623	41.24
381.833	21.89
382.043	13.75
382.253	18.28
382.463	30.8
382.674	28.16
382.884	18.32
383.094	20.23
383.304	11.47
383.514	1.3
383.724	5.57
383.934	3.14
384.144	-2.23
384.353	5
384.563	15.55
384.773	13.04
384.983	24.4
385.193	30.1
385.403	20.33
385.613	14.71
385.823	18.19
386.033	21.86
386.242	15.89
386.452	20.38
386.662	15.36
386.872	16.8
387.082	11.14
387.291	6.2
387.501	9.67
387.711	9.83
387.921	-2.81
388.13	-0.1
388.34	10.22
388.55	7.31
388.759	10.34
388.969	16.69
389.179	15.02
389.388	11.86
389.598	10.89
389.807	9.68
390.017	10.9
390.227	10.81
390.436	10.54
390.646	15.44
390.855	16.67
391.065	17.16
391.274	14.16
391.484	11.95
391.693	10.01
391.903	10.45
392.112	11.62
392.322	15.35
392.531	19.43
392.74	18.14
392.95	13.71
393.159	11.63
393.369	11.83
393.578	8.26
393.787	8.48
393.997	11.92
394.206	11.43
394.415	11.29
394.625	12.55
394.834	11.32
395.043	10.44
395.252	11.71
395.462	11.8
395.671	12.52
395.88	14.27
396.089	15.3
396.298	14.76
396.508	14.28
396.717	14.14
396.926	13.12
397.135	12.58
397.344	12.42
397.553	12.64
397.762	13.15
397.971	13.43
398.181	13.07
398.39	11.8
398.599	11.36
398.808	10.46
399.017	10.88
399.226	11.37
399.435	12.76
399.644	12.84
399.853	12.79
400.062	12.35
400.27	12.31
400.479	12.13
400.688	11.93
400.897	12.39
401.106	12.21
401.315	11.43
401.524	11.22
401.733	11.17
401.941	11.08
402.15	11.12
402.359	11.48
402.568	11.59
402.777	11.64
402.985	11.33
403.194	11.39
403.403	11.42
403.612	11
403.82	11.05
404.029	11.03
404.238	10.62
404.446	10.52
404.655	10.38
404.864	10.23
405.072	10.2
405.281	10.46
405.489	10.17
405.698	10.26
405.906	10.27
406.115	10.09
406.324	9.88
406.532	10.04
406.741	10.23
406.949	10.03
407.158	10.14
407.366	10.28
407.574	10.31
407.783	10.11
407.991	10.21
408.2	10.14
408.408	9.94
408.617	9.86
408.825	9.7
409.033	9.69
409.242	9.7
409.45	9.69
409.658	9.54
409.867	9.68
410.075	9.53
410.283	9.39
410.491	9.37
410.7	9.27
410.908	9.27
411.116	9.35
411.324	9.47
411.533	9.5
411.741	9.63
411.949	9.65
412.157	9.5
412.365	9.53
412.573	9.4
412.781	9.4
412.99	9.21
413.198	9.35
413.406	9.3
413.614	9.42
413.822	9.37
414.03	9.34
414.238	9.11
414.446	9.15
414.654	8.83
414.862	8.76
415.07	8.77
415.278	9.06
415.486	8.63
415.694	8.88
415.902	8.98
416.109	8.95
416.317	8.83
416.525	8.79
416.733	8.8
416.941	8.85
417.149	8.72
417.357	8.75
417.564	9.07
417.772	8.95
417.98	8.9
418.188	8.91
418.395	8.72
418.603	8.76
418.811	8.59
419.019	8.34
419.226	8.55
419.434	8.68
419.642	8.41
419.849	8.58
420.057	8.72
420.265	8.68
420.472	8.48
420.68	8.67
420.887	8.45
421.095	8.49
421.302	8.35
421.51	8.45
421.717	8.45
421.925	8.54
422.132	8.46
422.34	8.31
422.547	8.26
422.755	8.3
422.962	8.45
423.17	8.42
423.377	8.48
423.585	8.46
423.792	8.34
423.999	8.22
424.207	8.17
424.414	8.27
424.621	8.35
424.829	8.33
425.036	8.37
425.243	8.36
425.451	8.26
425.658	8.15
425.865	8.14
426.072	8.07
426.28	8.09
426.487	7.91
426.694	7.9
426.901	7.99
427.108	7.92
427.315	7.86
427.523	8.16
427.73	8.24
427.937	7.85
428.144	7.8
428.351	7.88
428.558	7.87
428.765	7.83
428.972	7.85
429.179	7.87
429.386	8.02
429.593	7.84
429.8	7.72
430.007	8.02
430.214	8.25
430.421	8.16
430.628	8.12
430.835	7.88
431.042	8
431.249	7.85
431.456	7.93
431.662	8.24
431.869	8.53
432.076	8.42
432.283	8.36
432.49	8.15
432.697	8
432.903	7.84
433.11	7.82
433.317	7.9
433.524	8.18
433.73	8.07
433.937	8.21
434.144	8.21
434.35	8.29
434.557	8.17
434.764	8.2
434.97	8.28
435.177	8.37
435.384	8.16
435.59	8.28
435.797	8.27
436.003	8.18
436.21	8.03
436.416	8.05
436.623	7.84
436.829	7.93
437.036	7.94
437.242	7.96
437.449	8.02
437.655	8.06
437.862	8.12
438.068	8.09
438.275	8.18
438.481	8.31
438.687	8.26
438.894	8.17
439.1	8.2
439.307	8.28
439.513	8.14
439.719	8.2
439.926	8.21
440.132	8.33
440.338	8.23
440.544	8.38
440.751	8.33
440.957	8.4
441.163	8.09
441.369	8.11
441.575	7.9
441.782	7.85
441.988	7.72
442.194	7.86
442.4	7.82
442.606	8.06
442.812	8.15
443.018	8.21
443.224	8.34
443.431	8.34
443.637	8.19
443.843	8.02
444.049	8.18
444.255	8.09
444.461	8.08
444.667	8.03
444.873	8.14
445.079	8.18
445.284	8.23
445.49	8.24
445.696	8.17
445.902	8.27
446.108	8.17
446.314	8.09
446.52	8.11
446.726	8.32
446.931	8.29
447.137	8.35
447.343	8.49
447.549	8.33
447.755	8.26
447.96	8.26
448.166	8.16
448.372	8.22
448.578	8.25
448.783	8.21
448.989	8.26
449.195	8.37
449.4	8.23
449.606	8.37
449.812	8.37
450.017	8.39
450.223	8.4
450.428	8.23
450.634	8.23
450.84	8.38
451.045	8.25
451.251	8.14
451.456	8.43
451.662	8.45
451.867	8.37
452.073	8.36
452.278	8.41
452.483	8.3
452.689	8.3
452.894	8.39
453.1	8.5
453.305	8.46
453.51	8.54
453.716	8.41
453.921	8.37
454.127	8.34
454.332	8.26
454.537	8.17
454.742	8.29
454.948	8.31
455.153	8.22
455.358	8.31
455.563	8.43
455.769	8.3
455.974	8.25
456.179	8.32
456.384	8.24
456.589	8.17
456.795	8.11
457	8.1
457.205	8.1
457.41	8.03
457.615	7.98
457.82	8.08
458.025	8.18
458.23	8.17
458.435	8.3
458.64	8.15
458.845	8.18
459.05	7.98
459.255	7.92
459.46	7.93
459.665	8.09
459.87	8.12
460.075	8.12
460.28	8.21
460.485	8.3
460.69	8.33
460.895	8.15
461.099	8.16
461.304	8.32
461.509	8.26
461.714	8.12
461.919	8.23
462.123	8.26
462.328	8.13
462.533	7.92
462.738	8.06
462.942	7.95
463.147	8
463.352	8.08
463.556	8.06
463.761	8.06
463.966	8.19
464.17	8.21
464.375	8.08
464.58	8.23
464.784	8.26
464.989	8.12
465.193	8.08
465.398	8.08
465.602	8.31
465.807	8.26
466.011	8.47
466.216	8.52
466.42	8.65
466.625	8.46
466.829	8.52
467.034	8.5
467.238	8.54
467.443	8.47
467.647	8.31
467.851	8.36
468.056	8.39
468.26	8.36
468.464	8.32
468.669	8.53
468.873	8.53
469.077	8.53
469.282	8.51
469.486	8.69
469.69	8.68
469.894	8.63
470.099	8.67
470.303	8.67
470.507	8.49
470.711	8.39
470.915	8.42
471.119	8.4
471.324	8.38
471.528	8.37
471.732	8.46
471.936	8.51
472.14	8.63
472.344	8.66
472.548	8.75
472.752	8.81
472.956	8.88
473.16	8.69
473.364	8.7
473.568	8.76
473.772	8.74
473.976	8.66
474.18	8.8
474.384	8.77
474.588	8.64
474.792	8.6
474.995	8.61
475.199	8.63
475.403	8.79
475.607	8.85
475.811	8.87
476.015	8.97
476.218	8.93
476.422	8.83
476.626	8.92
476.83	9.01
477.033	8.9
477.237	8.76
477.441	8.78
477.644	8.71
477.848	8.77
478.052	8.66
478.255	8.74
478.459	8.86
478.663	9.06
478.866	8.95
479.07	9.13
479.273	9.33
479.477	9.37
479.681	9.22
479.884	9.28
480.088	9.19
480.291	9.09
480.495	8.93
480.698	9.02
480.901	9.01
481.105	9.16
481.308	9.16
481.512	9.14
481.715	9.19
481.919	9.28
482.122	9.21
482.325	9.24
482.529	9.31
482.732	9.28
482.935	9.23
483.138	9.24
483.342	9.29
483.545	9.44
483.748	9.49
483.952	9.46
484.155	9.63
484.358	9.62
484.561	9.48
484.764	9.48
484.967	9.63
485.171	9.54
485.374	9.42
485.577	9.54
485.78	9.52
485.983	9.46
486.186	9.37
486.389	9.39
486.592	9.4
486.795	9.42
486.998	9.37
487.201	9.43
487.404	9.61
487.607	9.66
487.81	9.74
488.013	9.8
488.216	9.84
488.419	9.86
488.622	9.69
488.825	9.65
489.028	9.63
489.231	9.62
489.433	9.48
489.636	9.5
489.839	9.43
490.042	9.42
490.245	9.39
490.447	9.5
490.65	9.54
490.853	9.69
491.056	9.77
491.258	9.76
491.461	9.82
491.664	9.84
491.866	9.68
492.069	9.63
492.272	9.73
492.474	9.73
492.677	9.75
492.879	9.91
493.082	10.11
493.285	10.15
493.487	10
493.69	9.96
493.892	9.86
494.095	9.76
494.297	9.68
494.5	9.91
494.702	9.98
494.905	10.11
495.107	10.14
495.309	10.23
495.512	10.2
495.714	10.29
495.917	10.35
496.119	10.39
496.321	10.48
496.524	10.53
496.726	10.56
496.928	10.51
497.13	10.57
497.333	10.57
497.535	10.63
497.737	10.59
497.939	10.59
498.142	10.71
498.344	10.65
498.546	10.58
498.748	10.69
498.95	10.76
499.152	10.63
499.355	10.75
499.557	10.86
499.759	10.92
499.961	10.89
500.163	11.03
500.365	11.06
500.567	11.06
500.769	10.97
500.971	11.1
501.173	11.06
501.375	11.11
501.577	11.15
501.779	11.24
501.981	11.22
502.183	11.22
502.385	11.24
502.587	11.2
502.788	11.29
502.99	11.35
503.192	11.41
503.394	11.37
503.596	11.44
503.798	11.44
503.999	11.52
504.201	11.53
504.403	11.67
504.605	11.83
504.806	11.82
505.008	11.78
505.21	11.85
505.411	11.86
505.613	11.71
505.815	11.8
506.016	11.95
506.218	12.1
506.42	12.05
506.621	12.22
506.823	12.31
507.024	12.28
507.226	12.14
507.427	12.21
507.629	12.3
507.83	12.24
508.032	12.23
508.233	12.39
508.435	12.52
508.636	12.54
508.838	12.54
509.039	12.59
509.24	12.63
509.442	12.66
509.643	12.57
509.845	12.7
510.046	12.74
510.247	12.79
510.448	12.79
510.65	12.94
510.851	13.03
511.052	13.14
511.254	13.07
511.455	13.17
511.656	13.18
511.857	13.18
512.058	13.18
512.26	13.3
512.461	13.24
512.662	13.29
512.863	13.23
513.064	13.19
513.265	13.25
513.466	13.37
513.667	13.4
513.868	13.57
514.069	13.73
514.27	13.8
514.471	13.78
514.672	13.89
514.873	13.94
515.074	13.97
515.275	13.91
515.476	13.98
515.677	13.94
515.878	13.95
516.079	13.88
516.28	13.98
516.481	14.08
516.682	14.08
516.882	14.05
517.083	14.19
517.284	14.09
517.485	14.03
517.686	14.11
517.886	14.18
518.087	14.18
518.288	14.32
518.488	14.38
518.689	14.43
518.89	14.44
519.091	14.41
519.291	14.31
519.492	14.35
519.692	14.37
519.893	14.42
520.094	14.5
520.294	14.56
520.495	14.53
520.695	14.59
520.896	14.66
521.096	14.71
521.297	14.8
521.497	14.9
521.698	14.83
521.898	14.81
522.099	14.81
522.299	14.86
522.499	14.81
522.7	14.92
522.9	14.89
523.101	14.93
523.301	14.93
523.501	15
523.702	15.03
523.902	15.15
524.102	15.27
524.302	15.29
524.503	15.32
524.703	15.37
524.903	15.34
525.103	15.25
525.304	15.33
525.504	15.38
525.704	15.35
525.904	15.41
526.104	15.46
526.304	15.47
526.504	15.52
526.705	15.62
526.905	15.73
527.105	15.83
527.305	15.84
527.505	15.8
527.705	15.75
527.905	15.71
528.105	15.64
528.305	15.54
528.505	15.65
528.705	15.73
528.905	15.71
529.105	15.8
529.304	15.99
529.504	16.07
529.704	16.08
529.904	16.14
530.104	16.15
530.304	16.19
530.503	16.1
530.703	16.1
530.903	16.21
531.103	16.28
531.303	16.22
531.502	16.38
531.702	16.43
531.902	16.45
532.101	16.4
532.301	16.46
532.501	16.44
532.7	16.53
532.9	16.48
533.1	16.55
533.299	16.58
533.499	16.61
533.698	16.54
533.898	16.62
534.097	16.69
534.297	16.74
534.496	16.77
534.696	16.87
534.895	16.98
535.095	17.04
535.294	17.11
535.494	17.13
535.693	17.14
535.892	17.13
536.092	17.11
536.291	17.15
536.491	17.2
536.69	17.34
536.889	17.25
537.088	17.25
537.288	17.34
537.487	17.46
537.686	17.44
537.886	17.61
538.085	17.7
538.284	17.71
538.483	17.66
538.682	17.75
538.882	17.8
539.081	17.87
539.28	17.86
539.479	17.88
539.678	17.88
539.877	17.92
540.076	17.97
540.275	18.07
540.474	18.21
540.673	18.28
540.872	18.34
541.071	18.35
541.27	18.37
541.469	18.39
541.668	18.38
541.867	18.41
542.066	18.46
542.265	18.61
542.464	18.61
542.663	18.82
542.862	19.05
543.06	19.16
543.259	19.09
543.458	19.23
543.657	19.18
543.856	19.15
544.054	19.18
544.253	19.28
544.452	19.28
544.651	19.38
544.849	19.38
545.048	19.42
545.247	19.49
545.445	19.65
545.644	19.73
545.843	19.8
546.041	19.95
546.24	20.09
546.438	20.13
546.637	20.17
546.836	20.33
547.034	20.41
547.233	20.45
547.431	20.58
547.63	20.77
547.828	20.8
548.027	20.92
548.225	20.96
548.423	21.03
548.622	21.03
548.82	21.12
549.019	21.23
549.217	21.41
549.415	21.51
549.614	21.65
549.812	21.71
550.01	21.69
550.209	21.76
550.407	21.86
550.605	21.99
550.803	22.17
551.002	22.25
551.2	22.29
551.398	22.38
551.596	22.48
551.794	22.6
551.993	22.84
552.191	23
552.389	23.16
552.587	23.21
552.785	23.32
552.983	23.37
553.181	23.57
553.379	23.67
553.577	23.74
553.775	23.86
553.973	23.87
554.171	23.96
554.369	23.98
554.567	24.09
554.765	24.1
554.963	24.3
555.161	24.26
555.359	24.46
555.557	24.6
555.755	24.82
555.952	24.97
556.15	25.22
556.348	25.34
556.546	25.48
556.744	25.57
556.941	25.62
557.139	25.7
557.337	25.84
557.535	26.01
557.732	26.11
557.93	26.29
558.128	26.43
558.325	26.52
558.523	26.59
558.721	26.78
558.918	26.83
559.116	26.87
559.313	26.96
559.511	27.11
559.708	27.21
559.906	27.4
560.104	27.61
560.301	27.81
560.498	27.97
560.696	28.05
560.893	28.19
561.091	28.29
561.288	28.36
561.486	28.45
561.683	28.59
561.88	28.73
562.078	28.87
562.275	28.97
562.473	29.15
562.67	29.35
562.867	29.45
563.064	29.63
563.262	29.76
563.459	29.89
563.656	29.94
563.853	30.08
564.051	30.08
564.248	30.18
564.445	30.27
564.642	30.47
564.839	30.5
565.036	30.8
565.234	31.01
565.431	31.05
565.628	31.11
565.825	31.27
566.022	31.33
566.219	31.33
566.416	31.44
566.613	31.41
566.81	31.54
567.007	31.51
567.204	31.57
567.401	31.66
567.598	31.89
567.795	31.84
567.991	32.01
568.188	32.2
568.385	32.36
568.582	32.39
568.779	32.6
568.976	32.69
569.172	32.69
569.369	32.68
569.566	32.83
569.763	32.97
569.96	33.02
570.156	33.14
570.353	33.14
570.55	33.15
570.746	33.24
570.943	33.25
571.14	33.28
571.336	33.5
571.533	33.64
571.729	33.56
571.926	33.59
572.123	33.61
572.319	33.6
572.516	33.53
572.712	33.57
572.909	33.73
573.105	33.84
573.302	33.93
573.498	33.99
573.695	34.02
573.891	34
574.087	34.12
574.284	34.09
574.48	33.95
574.677	34.02
574.873	34.04
575.069	34.05
575.266	34.05
575.462	34.22
575.658	34.19
575.854	34.36
576.051	34.26
576.247	34.21
576.443	34.19
576.639	34.14
576.835	33.97
577.032	33.89
577.228	33.97
577.424	33.93
577.62	33.95
577.816	33.97
578.012	34.07
578.208	34.08
578.404	34.17
578.6	34.18
578.796	34.2
578.993	34.1
579.189	34.06
579.384	34.01
579.58	34.02
579.776	34.02
579.972	33.97
580.168	33.95
580.364	33.88
580.56	33.94
580.756	33.92
580.952	33.85
581.148	33.84
581.343	33.91
581.539	33.74
581.735	33.64
581.931	33.73
582.127	33.75
582.322	33.65
582.518	33.76
582.714	33.75
582.909	33.62
583.105	33.55
583.301	33.53
583.496	33.44
583.692	33.31
583.888	33.33
584.083	33.38
584.279	33.48
584.474	33.43
584.67	33.51
584.866	33.56
585.061	33.48
585.257	33.39
585.452	33.36
585.648	33.22
585.843	33.22
586.039	33.06
586.234	33.05
586.429	33.05
586.625	33.14
586.82	33
587.015	33.03
587.211	32.93
587.406	32.9
587.601	32.75
587.797	32.76
587.992	32.73
588.187	32.81
588.383	32.79
588.578	32.82
588.773	32.83
588.968	32.85
589.163	32.81
589.359	32.73
589.554	32.76
589.749	32.84
589.944	32.86
590.139	32.86
590.334	32.82
590.529	32.81
590.724	32.72
590.919	32.68
591.114	32.68
591.309	32.91
591.504	33
591.699	32.99
591.894	33.02
592.089	32.9
592.284	32.81
592.479	32.82
592.674	32.8
592.869	32.77
593.064	32.96
593.259	32.87
593.454	32.81
593.648	32.88
593.843	32.93
594.038	32.8
594.233	32.87
594.428	32.84
594.622	32.87
594.817	32.91
595.012	33.1
595.206	33.2
595.401	33.32
595.596	33.29
595.79	33.28
595.985	33.29
596.18	33.27
596.374	33.35
596.569	33.4
596.763	33.36
596.958	33.25
597.153	33.34
597.347	33.32
597.542	33.56
597.736	33.73
597.931	33.88
598.125	34
598.319	34.23
598.514	34.21
598.708	34.26
598.903	34.18
599.097	34.15
599.291	33.99
599.486	33.83
599.68	33.79
599.874	33.98
600.069	34.01
600.263	33.99
600.457	34.12
600.651	34.25
600.846	34.22
601.04	34.31
601.234	34.31
601.428	34.43
601.622	34.55
601.817	34.57
602.011	34.46
602.205	34.65
602.399	34.49
602.593	34.31
602.787	34.28
602.981	34.23
603.175	34.23
603.369	34.21
603.563	34.35
603.757	34.37
603.951	34.47
604.145	34.32
604.339	34.4
604.533	34.21
604.727	34.21
604.921	34.18
605.115	34.22
605.309	34.1
605.502	34.17
605.696	34.02
605.89	33.99
606.084	34.03
606.278	33.91
606.471	33.83
606.665	33.78
606.859	33.75
607.053	33.49
607.246	33.71
607.44	33.68
607.634	33.71
607.827	33.64
608.021	33.73
608.214	33.55
608.408	33.45
608.602	33.46
608.795	33.36
608.989	33.3
609.182	33.16
609.376	33.08
609.569	32.93
609.763	32.87
609.956	32.8
610.15	32.7
610.343	32.64
610.537	32.52
610.73	32.53
610.923	32.31
611.117	32.32
611.31	32.14
611.504	32.17
611.697	31.98
611.89	32.05
612.083	31.98
612.277	31.98
612.47	31.82
612.663	31.69
612.856	31.45
613.05	31.46
613.243	31.33
613.436	31.17
613.629	31.15
613.822	31.13
614.015	30.95
614.209	30.85
614.402	30.95
614.595	30.84
614.788	30.77
614.981	30.78
615.174	30.68
615.367	30.52
615.56	30.39
615.753	30.38
615.946	30.16
616.139	30.23
616.332	30.25
616.525	30.26
616.718	30.18
616.911	30.16
617.103	30.13
617.296	30.12
617.489	30.06
617.682	30
617.875	30.03
618.067	30
618.26	29.68
618.453	29.71
618.646	29.76
618.838	29.64
619.031	29.5
619.224	29.53
619.417	29.36
619.609	29.24
619.802	29.18
619.994	29.27
620.187	29.4
620.38	29.36
620.572	29.21
620.765	29.26
620.957	29.14
621.15	28.98
621.342	28.95
621.535	28.94
621.727	28.92
621.92	28.79
622.112	28.79
622.305	28.81
622.497	28.81
622.69	28.61
622.882	28.62
623.074	28.59
623.267	28.52
623.459	28.47
623.651	28.46
623.844	28.48
624.036	28.41
624.228	28.35
624.42	28.27
624.613	28.38
624.805	28.29
624.997	28.2
625.189	28.17
625.381	28.35
625.574	28.28
625.766	28.24
625.958	28.32
626.15	28.36
626.342	28.14
626.534	28.11
626.726	28.14
626.918	28.1
627.11	28.06
627.302	28.07
627.494	27.9
627.686	27.8
627.878	27.64
628.07	27.5
628.262	27.38
628.454	27.3
628.646	27.29
628.838	27.34
629.029	27.23
629.221	27.26
629.413	27.15
629.605	27.02
629.797	26.83
629.989	26.85
630.18	26.71
630.372	26.72
630.564	26.67
630.755	26.7
630.947	26.69
631.139	26.63
631.33	26.55
631.522	26.57
631.714	26.51
631.905	26.34
632.097	26.32
632.289	26.32
632.48	26.26
632.672	26.16
632.863	26.01
633.055	25.93
633.246	25.91
633.438	25.74
633.629	25.64
633.821	25.62
634.012	25.6
634.203	25.42
634.395	25.23
634.586	25.22
634.777	25.26
634.969	25.1
635.16	25.1
635.351	25.21
635.543	25.11
635.734	24.97
635.925	24.85
636.117	24.77
636.308	24.6
636.499	24.51
636.69	24.36
636.881	24.31
637.073	24.33
637.264	24.21
637.455	24.11
637.646	24.13
637.837	24.2
638.028	23.99
638.219	24
638.41	23.94
638.601	23.87
638.792	23.7
638.983	23.6
639.174	23.44
639.365	23.4
639.556	23.3
639.747	23.19
639.938	23.18
640.129	23.17
640.32	23.02
640.511	22.84
640.701	22.74
640.892	22.67
641.083	22.59
641.274	22.53
641.465	22.5
641.655	22.36
641.846	22.24
642.037	22.03
642.228	21.93
642.418	21.89
642.609	21.79
642.8	21.6
642.99	21.61
643.181	21.59
643.372	21.53
643.562	21.53
643.753	21.54
643.943	21.43
644.134	21.26
644.324	21.15
644.515	21
644.705	21
644.896	21.06
645.086	21.07
645.277	21
645.467	20.95
645.658	20.77
645.848	20.63
646.038	20.62
646.229	20.54
646.419	20.5
646.61	20.46
646.8	20.36
646.99	20.28
647.18	20.29
647.371	20.29
647.561	20.17
647.751	20.17
647.941	20.16
648.132	20.1
648.322	20.07
648.512	20.18
648.702	20.2
648.892	20.09
649.082	20.03
649.272	19.91
649.462	19.75
649.653	19.63
649.843	19.58
650.033	19.63
650.223	19.67
650.413	19.79
650.603	19.79
650.793	19.82
650.983	19.73
651.172	19.58
651.362	19.48
651.552	19.43
651.742	19.37
651.932	19.31
652.122	19.45
652.312	19.56
652.502	19.6
652.691	19.58
652.881	19.54
653.071	19.45
653.261	19.12
653.45	19
653.64	19.02
653.83	18.96
654.019	18.93
654.209	19.03
654.399	19.08
654.588	18.99
654.778	18.98
654.968	18.9
655.157	18.88
655.347	18.7
655.536	18.61
655.726	18.53
655.915	18.43
656.105	18.32
656.294	18.24
656.484	18.05
656.673	17.95
656.863	17.92
657.052	17.72
657.241	17.58
657.431	17.46
657.62	17.22
657.809	16.96
657.999	16.86
658.188	16.65
658.377	16.54
658.567	16.43
658.756	16.4
658.945	16.21
659.134	16.09
659.324	15.96
659.513	15.91
659.702	15.52
659.891	15.5
660.08	15.36
660.269	15.25
660.458	15.05
660.648	15.12
660.837	14.83
661.026	14.61
661.215	14.47
661.404	14.25
661.593	14.11
661.782	13.95
661.971	13.9
662.16	13.73
662.349	13.72
662.538	13.46
662.726	13.53
662.915	13.49
663.104	13.27
663.293	13.06
663.482	13.11
663.671	12.91
663.86	12.66
664.048	12.64
664.237	12.66
664.426	12.42
664.615	12.36
664.803	12.38
664.992	12.44
665.181	12.34
665.369	12.21
665.558	12.08
665.747	11.89
665.935	11.75
666.124	11.57
666.312	11.62
666.501	11.52
666.69	11.4
666.878	11.31
667.067	11.17
667.255	11.21
667.444	11.41
667.632	11.51
667.82	11.56
668.009	11.57
668.197	11.48
668.386	11.31
668.574	11.32
668.762	11.18
668.951	11.15
669.139	11.14
669.327	10.99
669.516	10.98
669.704	11.06
669.892	11.1
670.08	11.09
670.269	11.14
670.457	11.13
670.645	11.06
670.833	11.14
671.021	11.12
671.21	11.23
671.398	11.35
671.586	11.44
671.774	11.39
671.962	11.31
672.15	11.16
672.338	10.97
672.526	11
672.714	10.97
672.902	11.13
673.09	11.29
673.278	11.55
673.466	11.55
673.654	11.87
673.842	11.93
674.03	12.1
674.218	12
674.405	12.01
674.593	12.01
674.781	12.2
674.969	12.15
675.157	12.39
675.344	12.55
675.532	12.46
675.72	12.5
675.908	12.71
676.095	12.62
676.283	12.77
676.471	13.12
676.658	13.25
676.846	13.15
677.033	13.4
677.221	13.36
677.409	13.29
677.596	13.29
677.784	13.59
677.971	13.7
678.159	13.95
678.346	14.07
678.534	14.12
678.721	14.35
678.909	14.45
679.096	14.47
679.283	14.7
679.471	14.98
679.658	14.94
679.846	15.21
680.033	15.59
680.22	15.7
680.408	15.68
680.595	15.78
680.782	15.65
680.969	15.69
681.157	15.63
681.344	15.78
681.531	16.02
681.718	16.22
681.905	16.37
682.093	16.58
682.28	16.9
682.467	17.1
682.654	17.41
682.841	17.5
683.028	17.94
683.215	18.21
683.402	18.36
683.589	18.74
683.776	19.01
683.963	19.31
684.15	19.61
684.337	19.79
684.524	19.91
684.711	20.31
684.898	20.4
685.085	20.58
685.271	21.14
685.458	21.66
685.645	21.8
685.832	22.33
686.019	22.76
686.205	23.04
686.392	23.31
686.579	23.78
686.766	24.2
686.952	24.72
687.139	25.37
687.326	25.66
687.512	26.27
687.699	26.84
687.886	27.25
688.072	27.56
688.259	28.31
688.445	28.78
688.632	28.98
688.818	29.72
689.005	30.17
689.191	30.72
689.378	31.52
689.564	32.22
689.751	32.53
689.937	33.41
690.124	33.93
690.31	34.6
690.496	35.21
690.683	36.08
690.869	36.8
691.055	37.54
691.242	37.99
691.428	38.63
691.614	39.47
691.8	40.08
691.987	40.56
692.173	41.34
692.359	42.21
692.545	42.8
692.731	43.02
692.918	43.93
693.104	44.64
693.29	45.45
693.476	46.19
693.662	47.21
693.848	47.91
694.034	48.52
694.22	49.18
694.406	50.04
694.592	50.9
694.778	51.3
694.964	51.91
695.15	52.39
695.336	52.69
695.522	53.39
695.708	54.38
695.894	55.01
696.08	55.64
696.265	56.22
696.451	56.6
696.637	57.41
696.823	58.19
697.009	58.96
697.194	59.61
697.38	60.36
697.566	60.57
697.751	60.92
697.937	61.41
698.123	62.22
698.308	63.01
698.494	63.62
698.68	64.35
698.865	64.68
699.051	65.23
699.236	65.65
699.422	66.17
699.607	66.66
699.793	67.46
699.978	67.69
700.164	67.97
700.349	68.6
700.535	69.22
700.72	69.51
700.906	70.39
701.091	70.94
701.276	71.32
701.462	71.96
701.647	72.77
701.832	73.01
702.018	73.35
702.203	73.95
702.388	73.98
702.573	74.3
702.759	74.85
702.944	75.32
703.129	75.69
703.314	76.47
703.499	77.06
703.684	77.66
703.87	78.17
704.055	78.65
704.24	78.8
704.425	78.72
704.61	78.88
704.795	78.81
704.98	78.61
705.165	78.94
705.35	79.39
705.535	79.51
705.72	80.24
705.905	80.95
706.09	81.28
706.275	81.34
706.459	81.21
706.644	81.56
706.829	81.87
707.014	81.87
707.199	82.1
707.384	82.92
707.568	82.93
707.753	83.68
707.938	84.25
708.123	84.62
708.307	84.39
708.492	84.58
708.677	83.7
708.861	83.46
709.046	83.67
709.231	84.2
709.415	84.35
709.6	85.24
709.784	85.2
709.969	85.6
710.153	85.32
710.338	85.51
710.522	85.2
710.707	85.96
710.891	86.09
711.076	86.72
711.26	86.62
711.445	87.12
711.629	87.25
711.813	87.54
711.998	87.77
712.182	87.79
712.366	88.23
712.551	88.78
712.735	88.23
712.919	88.64
713.103	89.3
713.288	88.87
713.472	88.34
713.656	89.14
713.84	89.19
714.024	89.5
714.208	89.87
714.393	90.6
714.577	91.02
714.761	90.56
714.945	90.64
715.129	90.57
715.313	90.45
715.497	90.17
715.681	90.71
715.865	90.85
716.049	91.06
716.233	91.37
716.417	91.48
716.601	91.61
716.785	91.33
716.968	91.46
717.152	91.34
717.336	91.38
717.52	91.32
717.704	91.94
717.888	92.69
718.071	92.3
718.255	92.3
718.439	92.52
718.622	92.53
718.806	92.26
718.99	92.41
719.174	92.99
719.357	93.21
719.541	93.17
719.724	93.51
719.908	94.48
720.092	94.51
720.275	94.73
720.459	95.21
720.642	94.43
720.826	94.39
721.009	94.1
721.193	93.53
721.376	93.04
721.559	94.32
721.743	94.7
721.926	95.02
722.11	94.9
722.293	94.89
722.476	93.58
722.66	93.22
722.843	93.3
723.026	93.49
723.21	94.07
723.393	95.31
723.576	95.3
723.759	94.82
723.942	95.87
724.126	95.84
724.309	95.86
724.492	95.84
724.675	96.62
724.858	96.23
725.041	96.65
725.224	96.51
725.407	96.25
725.59	96.5
725.774	96.19
725.957	95.63
726.14	95.7
726.322	96.45
726.505	96.12
726.688	96.63
726.871	96.48
727.054	96.96
727.237	96.84
727.42	97.45
727.603	98.19
727.786	98.89
727.968	98.73
728.151	98.81
728.334	98.65
728.517	98.14
728.699	98.36
728.882	98.05
729.065	98.64
729.248	98.43
729.43	98.95
729.613	99.56
729.796	100.11
729.978	98.73
730.161	98.41
730.343	98.83
730.526	98.96
730.708	98.8
730.891	100.2
731.073	100.09
731.256	99.09
731.438	98.78
731.621	98.99
731.803	99.68
731.986	101.07
732.168	101.54
732.35	101.99
732.533	101.74
732.715	100.96
732.898	100.41
733.08	100.89
733.262	100.36
733.444	100.82
733.627	100.42
733.809	101.02
733.991	100.7
734.173	100.4
734.355	100.3
734.538	100.98
734.72	100.5
734.902	101
735.084	100.89
735.266	101.29
735.448	101.04
735.63	101.05
735.812	101.5
735.994	102.18
736.176	102.21
736.358	102.27
736.54	103.02
736.722	102.38
736.904	102.64
737.086	102.52
737.268	104.11
737.45	103.85
737.632	104.05
737.814	103.64
737.995	103.72
738.177	103.19
738.359	103.05
738.541	103.45
738.723	103.94
738.904	104.27
739.086	103.96
739.268	103.89
739.449	103.46
739.631	103.8
739.813	103.45
739.994	103.64
740.176	104.23
740.358	104.3
740.539	105.42
740.721	106.02
740.902	106.5
741.084	106.15
741.265	105.92
741.447	104.89
741.628	103.78
741.81	101.92
741.991	102.84
742.172	104.01
742.354	104.83
742.535	106.11
742.717	108.59
742.898	106.81
743.079	106.72
743.261	104.78
743.442	103.5
743.623	103.2
743.804	105.24
743.986	105.21
744.167	105.13
744.348	107.2
744.529	106.47
744.71	105.33
744.891	106.01
745.073	106.28
745.254	105.42
745.435	105.53
745.616	105.07
745.797	103.02
745.978	103.64
746.159	102.6
746.34	102.02
746.521	102.81
746.702	103.05
746.883	103.32
747.064	101.9
747.245	101.97
747.426	102.28
747.606	102.21
747.787	101.88
747.968	103.78
748.149	104.87
748.33	105.05
748.51	105.13
748.691	103.94
748.872	105.15
749.053	104.14
749.233	102.96
749.414	103.32
749.595	105.08
749.775	103.35
749.956	101.82
750.137	101.2
750.317	101.81
750.498	101.85
750.678	101.51
750.859	102.95
751.04	103.73
751.22	103.64
751.4	102.69
751.581	103.24
751.761	103.73
751.942	104.61
752.122	104.16
752.303	103.05
752.483	103.41
752.663	104.01
752.844	103.46
753.024	103.47
753.204	104.77
753.385	104.01
753.565	101.67
753.745	102.48
753.925	102.64
754.106	103.4
754.286	104.43
754.466	105.15
754.646	105.33
754.826	104.37
755.006	101.86
755.187	102.71
755.367	104.2
755.547	103.96
755.727	104.49
755.907	104.58
756.087	104.13
756.267	101.33
756.447	101.1
756.627	100.85
756.807	102.9
756.987	101.97
757.167	103.7
757.346	101.51
757.526	99.62
757.706	99.23
757.886	99.07
758.066	99.63
758.246	101.98
758.425	103.74
758.605	103.4
758.785	104.59
758.965	104.51
759.144	101.15
759.324	100.9
759.504	101.69
759.683	100.22
759.863	98.65
760.043	100.1
760.222	100.59
760.402	98.72
760.581	100.47
760.761	100.91
760.94	99.3
761.12	98.48
761.299	100.87
761.479	99.81
761.658	98.45
761.838	99.36
762.017	99.58
762.197	97.99
762.376	97.37
762.555	99.55
762.735	100.9
762.914	99.4
763.093	101.18
763.273	99.55
763.452	99.52
763.631	97.28
763.81	97.26
763.99	95.81
764.169	98.12
764.348	94.82
764.527	96.22
764.706	98.45
764.885	98.52
765.064	95.87
765.243	97.74
765.423	97.55
765.602	97.94
765.781	96.43
765.96	95.91
766.139	97.56
766.318	97.92
766.497	98.34
766.676	100.48
766.854	103.46
767.033	101.82
767.212	101.1
767.391	98.21
767.57	97.38
767.749	97.91
767.928	98.71
768.106	96.42
768.285	96.49
768.464	97.03
768.643	96.49
768.821	95.44
769	98.33
769.179	99.12
769.357	94.99
769.536	91.98
769.715	94.88
769.893	94.41
770.072	93.41
770.25	93.97
770.429	95.14
770.607	92.27
770.786	91.97
770.964	93.02
771.143	96.95
771.321	97.69
771.5	98.86
771.678	98.26
771.857	96.49
772.035	96
772.213	93.99
772.392	89.54
772.57	91.73
772.748	93.3
772.927	89.08
773.105	91.92
773.283	97.36
773.461	97.73
773.64	96.4
773.818	96.8
773.996	97.21
774.174	95.57
774.352	92.78
774.531	94.19
774.709	97.95
774.887	96.35
775.065	94.71
775.243	92.96
775.421	93.62
775.599	93.96
775.777	92.3
775.955	92.06
776.133	94.57
776.311	93.15
776.489	90.68
776.667	91.61
776.844	91.79
777.022	90.92
777.2	90.52
777.378	90.02
777.556	91.64
777.734	93.06
777.911	93.75
778.089	92.46
778.267	94.3
778.445	91.62
778.622	91.62
778.8	90.31
778.978	95.68
779.155	94.15
779.333	95.16
779.511	87.88
779.688	89.33
779.866	81.57
780.043	79.36
780.221	78.96
780.398	82.95
780.576	83.47
780.753	90.17
780.931	90.76
781.108	89.78
781.286	93.98
781.463	90.11
781.64	86.43
781.818	89.96
781.995	92.35
782.172	88.76
782.35	91.88
782.527	94.89
782.704	92.63
782.882	94.09
783.059	93.33
783.236	94.46
783.413	92.04
783.59	92.48
783.768	88.79
783.945	91.9
784.122	93.36
784.299	92.17
784.476	91.96
784.653	94.52
784.83	90.82
785.007	84.44
785.184	85.5
785.361	85.52
785.538	86.98
785.715	88.15
785.892	91.37
786.069	92.63
786.246	94.96
786.423	89.42
786.6	89.71
786.776	89.67
786.953	89.14
787.13	87.56
787.307	91.57
787.484	93.86
787.66	92.86
787.837	87.93
788.014	90.8
788.191	87.25
788.367	86.03
788.544	90.57
788.721	92.81
788.897	91.24
789.074	95.83
789.25	95.92
789.427	94.76
789.603	93.44
789.78	94.74
789.956	83.47
790.133	83.71
790.309	80.09
790.486	84.35
790.662	77.63
790.839	83.41
791.015	85.49
791.192	82.97
791.368	81.77
791.544	82.4
791.721	87.45
791.897	82.84
792.073	83.78
792.249	82.49
792.426	84.1
792.602	80.29
792.778	78.87
792.954	78.29
793.13	77.27
793.307	73.5
793.483	67.31
793.659	69.84
793.835	72.65
794.011	75.08
794.187	72.86
794.363	73.97
794.539	73.5
794.715	69.83
794.891	64.63
795.067	67.33
795.243	74.59
795.419	77.01
795.595	75.9
795.771	81.32
795.947	86.48
796.122	77
796.298	78.37
796.474	84.76
796.65	83.27
796.826	81.23
797.001	86.95
797.177	81.47
797.353	82.05
797.529	84.25
797.704	79.6
797.88	77.87
798.056	74.81
798.231	70.17
798.407	70.71
798.582	73.22
798.758	77.34
798.934	87.54
799.109	85.58
799.285	79.4
799.46	88.02
799.636	85.71
799.811	83.36
799.986	87.13
800.162	97.78
800.337	91.52
800.513	88.8
800.688	82.01
800.863	85.8
801.039	77.82
801.214	73.66
801.389	78.66
801.565	84.82
801.74	79.93
801.915	81.83
802.09	86
802.265	92.8
802.441	90.45
802.616	91.46
802.791	92.86
802.966	90.7
803.141	83.04
803.316	71.11
803.491	73.68
803.666	68.92
803.841	69.06
804.016	70.5
804.191	83.76
804.366	82.59
804.541	88.42
804.716	79.04
804.891	76.66
805.066	74.73
805.241	76.33
805.416	74.81
805.591	76.13
805.765	73.71
805.94	77.89
806.115	77.46
806.29	71.53
806.464	83.3
806.639	81.16
806.814	66.49
806.989	52.32
807.163	58.38
807.338	52.57
807.512	57
807.687	59.9
807.862	69.9
808.036	71.54
808.211	70.06
808.385	72.58
808.56	78.31
808.734	80.06
808.909	84.04
809.083	84.92
809.258	88.95
809.432	93.64
809.606	72.14
809.781	72.82
809.955	79.66
810.13	77.42
810.304	68.69
810.478	75.42
810.652	77.64
810.827	79.62
811.001	78.84
811.175	79.41
811.349	88.31
811.524	77.57
811.698	66.32
811.872	65.54
812.046	72.6
812.22	70.74
812.394	70.1
812.568	75.22
812.742	79.87
812.916	72.11
813.09	74.61
813.264	79.93
813.438	75.98
813.612	69.07
813.786	62.29
813.96	69.73
814.134	69.75
814.308	72.12
814.482	71.59
814.656	81.88
814.83	88.15
815.003	85.13
815.177	79.56
815.351	79.5
815.525	88.74
815.698	77.47
815.872	69.42
816.046	65.32
816.219	65.52
816.393	69.44
816.567	65.76
816.74	67.79
816.914	83.96
817.088	84.24
817.261	71.21
817.435	68.31
817.608	66.34
817.782	52.14
817.955	51.38
818.129	38.59
818.302	44.44
818.475	63.81
818.649	68.75
818.822	59.47
818.996	79.51
819.169	82.56
819.342	70.16
819.516	65.12
819.689	77.01
819.862	71.17
820.035	54.1
820.209	43.67
820.382	60.08
820.555	61.66
820.728	53.17
820.901	59.19
821.075	76.1
821.248	76.11
821.421	66.53
821.594	54.54
821.767	67.32
821.94	78.53
822.113	51.12
822.286	58.23
822.459	86.84
822.632	85.38
822.805	74.62
822.978	95.31
823.151	94.71
823.324	69.58
823.496	33.75
823.669	32.31
823.842	29.31
824.015	12.68
824.188	14.53
824.361	20.03
824.533	18.66
824.706	32.73
824.879	43.07
825.051	75.01
825.224	86.99
825.397	83.34
825.569	63.26
825.742	69.47
825.915	62.16
826.087	53.94
826.26	42.28
826.432	42.19
826.605	49.96
826.777	50.99
826.95	50.86
827.122	57.42
827.295	66.47
827.467	52.06
827.64	30.93
827.812	29.67
827.984	32.64
828.157	27.66
828.329	25.36
828.501	35.44
828.674	45.75
828.846	43.33
829.018	51.86
829.19	52.08
829.363	57.63
829.535	63.61
829.707	73.69
829.879	46.53
830.051	39.12
830.223	45.84
830.395	22.24
830.568	5.05
830.74	17.75
830.912	46.33
831.084	27.71
831.256	21.61
831.428	14.23
831.6	13.58
831.772	-13.7
831.943	-11.84
832.115	21.05
832.287	60.77
832.459	56.15
832.631	63.9
832.803	77.92
832.975	62.86
833.146	43.28
833.318	37.04
833.49	40.29
833.662	29.93
833.833	20.22
834.005	26.88
834.177	54.42
834.348	53.15
834.52	36.68
834.692	53.03
834.863	45.82
835.035	29.17
835.206	29.25
835.378	55.49
835.549	35.55
835.721	34.11
835.892	24.84
836.064	29.15
836.235	35.04
836.407	73.81
836.578	70.7
836.749	86.45
836.921	89.27
837.092	62.5
837.264	13.79
837.435	-4.61
837.606	0.5
837.777	15.04
837.949	37.06
838.12	38.91
838.291	55.39
838.462	51.07
838.633	28.44
838.805	4.81
838.976	33.13
839.147	34.59
839.318	11.39
839.489	9.53
839.66	38.12
839.831	49.06
840.002	33.58
840.173	18.86
840.344	35.15
840.515	39.81
840.686	5.12
840.857	-0.86
841.028	14.68
841.199	35.93
841.369	14.32
841.54	4.27
841.711	34.85
841.882	42.1
842.053	11.3
842.223	3.82
842.394	37.67
842.565	45.36
842.736	51.74
842.906	63.9
843.077	66.23
843.248	54.56
843.418	38.7
843.589	21.2
843.759	44.36
843.93	61.4
844.101	61.87
844.271	64.47
844.442	102.44
844.612	99.79
844.783	69
844.953	46.89
845.123	60.07
845.294	45.38
845.464	22.44
845.635	38.93
845.805	61.63
845.975	58.96
846.146	27.7
846.316	17.75
846.486	26.59
846.656	31.21
846.827	7.27
846.997	16.31
847.167	38.1
847.337	9.51
847.507	-2.53
847.677	4.15
847.848	12.22
848.018	29.91
848.188	45.79
848.358	35.03
848.528	44.23
848.698	42.82
848.868	1.14
849.038	-20.03
849.208	4.87
849.378	26.77
849.548	-6.94
849.718	31.88
849.887	83.58
850.057	30.93
850.227	-5.8
850.397	12.61
850.567	5.58
850.737	8.73
850.906	-3.04
851.076	-40.96
851.246	-66.16
851.415	-42.47
851.585	-32.47
851.755	-29.37
851.924	19.38
852.094	38.05
852.264	20.88
852.433	-6.3
852.603	5.7
852.772	-9.78
852.942	-19.19
853.111	-14.46
853.281	30.47
853.45	58.46
853.62	33.16
853.789	4.7
853.959	32.2
854.128	5.82
854.297	-63.15
854.467	-55.87
854.636	-7.13
854.805	-23.41
854.975	-37.72
855.144	-16.45
855.313	26
855.482	10.98
855.652	-0.74
855.821	9.65
855.99	69.8
856.159	75.76
856.328	58.32
856.497	67.54
856.667	92.28
856.836	64.69
857.005	-16.96
857.174	-40.79
857.343	-55.56
857.512	-42.1
857.681	-122.32
857.85	-80.41
858.019	-48.42
858.188	-20.13
858.356	-52.65
858.525	-27.21
858.694	-10.87
858.863	-23.26
859.032	-53.48
859.201	-25.04
859.369	4.88
859.538	12.37
859.707	21.88
859.876	24.35
860.044	34.14
860.213	14.19
860.382	1.55
860.55	-2.5
860.719	46.71
860.888	37.27
861.056	7.65
861.225	-9.07
861.393	2.58
861.562	20.67
861.73	0.69
861.899	25.04
862.067	2.06
862.236	22.77
862.404	-23.42
862.572	-55.62
862.741	-23.5
862.909	-14.53
863.078	-42.26
863.246	-28.48
863.414	5.5
863.582	-9.65
863.751	10.67
863.919	-12.24
864.087	24.48
864.255	46.09
864.424	4.95
864.592	2.8
864.76	47.09
864.928	-6.59
865.096	-29.26
865.264	-25.79
865.432	-18.1
865.6	-30.49
865.768	-69.23
865.936	-151.21
866.104	-85.46
866.272	-130.49
866.44	-111.45
866.608	-81.12
866.776	-116.84
866.944	-217.04
867.112	-284.47
867.28	-453.69
867.448	-972.93
867.615	-337.39
867.783	-57.78
867.951	-53.43
868.119	22.7
868.286	29.55
868.454	-6.87
868.622	-72.27
868.789	-79.59
868.957	-43.3
869.125	-63.99
869.292	-49.42
869.46	-9.1
869.627	16.36
869.795	-33.48
869.963	-16.08
870.13	8.57
870.298	15.33
870.465	-41.6
870.632	-53.4
870.8	-74.22
870.967	-79.77
871.135	-192.85
871.302	-110.13
871.469	-42.67
871.637	-15.1
871.804	-7.74
871.971	-16.57
872.139	1.81
872.306	43.56
872.473	28.7
872.64	-2.18
872.807	75.95
872.975	67.34
873.142	2.57
873.309	13.63
873.476	89.54
873.643	59.31
873.81	49.73
873.977	50.13
874.144	48.81
874.311	36.81
874.478	-22.81
874.645	-91.29
874.812	-360.78
874.979	15785.71
875.146	-417.76
875.313	-94.81
875.48	9.32
875.647	-2.05
875.813	-28.44
875.98	-39.51
876.147	-69.91
876.314	-60.57
876.481	-129.02
876.647	-173.42
876.814	-96.02
876.981	-71.4
877.147	-107.13
877.314	-66.51
877.481	15.74
877.647	51.58
877.814	-21.95
877.98	-81.36
878.147	3.76
878.314	0.29
878.48	-73.24
878.647	-22.73
878.813	55.99
878.979	49.33
879.146	38.95
879.312	56.42
879.479	39.3
879.645	27.65
879.811	-47.46
879.978	-46.38
880.144	-42.86
880.31	-36.2
880.477	-114.93
880.643	-86.08
880.809	-73.22
880.975	-27.86
881.142	-54.93
881.308	-16.97
881.474	23.3
881.64	22.16
881.806	-30.66
881.972	-0.24
882.138	7.44
882.304	0.62
882.47	-89.48
882.636	-147.67
882.802	-183.64
882.968	-97.36
883.134	-144.28
883.3	-104.63
883.466	70.41
883.632	102.9
883.798	-3.14
883.964	-19.72
884.129	-34.96
884.295	-72.75
884.461	-91.48
884.627	-121.11
884.793	-82.59
884.958	-18.37
885.124	-73.32
885.29	-78.73
885.455	-22.24
885.621	-14.31
885.787	-213.98
885.952	-97.09
886.118	-97.6
886.283	-118.09
886.449	-152.74
886.614	-91.01
886.78	-74.65
886.945	-49.31
887.111	-174.39
887.276	-165.69
887.442	-314.01
887.607	-284.95
887.773	-298.86
887.938	-184.21
888.103	-74.36
888.269	-29.39
888.434	-0.6
888.599	-14.27
888.764	32.2
888.93	22.13
889.095	2.37
889.26	-28.04
889.425	27.22
889.59	59.7
889.756	25.53
889.921	29.45
890.086	64.44
890.251	59.53
890.416	-25.42
890.581	-33.29
890.746	36.41
890.911	21.04
891.076	-40.41
891.241	-59.49
891.406	-51.17
891.571	-15.55
891.736	-39.2
891.901	-68.62
892.065	-39.76
892.23	-1.42
892.395	-98.09
892.56	-144.93
892.725	-49.55
892.889	-25.39
893.054	-131.87
893.219	-136.69
893.384	-127.39
893.548	-176.95
893.713	-237.25
893.878	-203.08
