Data from Ofra_PP_Phys_0GT15_Reflection_4.txt Node
Date: Sat Jul 24 20:01:22 EDT 2021
User: USUARIO
Spectrometer: FLMT01687
Trigger mode: 0
Integration Time (sec): 1.100000E0
Scans to average: 2
Electric dark correction enabled: true
Nonlinearity correction enabled: false
Boxcar width: 2
XAxis mode: Wavelengths
Number of Pixels in Spectrum: 3648
>>>>>Begin Spectral Data<<<<<
179.494	416.74
179.716	535.09
179.937	923.21
180.158	726.72
180.38	328.42
180.601	-333.33
180.823	148.24
181.044	-308.53
181.265	44.87
181.486	2.07
181.708	-10.19
181.929	-2317.33
182.15	471.49
182.372	105.59
182.593	-3533.33
182.814	197.95
183.035	169.57
183.257	145.37
183.478	79.67
183.699	97.27
183.92	42.08
184.141	46.61
184.363	25.82
184.584	83.06
184.805	65.95
185.026	73
185.247	62.53
185.468	36.63
185.689	17.07
185.91	27.31
186.132	30.84
186.353	29.38
186.574	46.16
186.795	65.18
187.016	25.03
187.237	48.85
187.458	40.98
187.679	38.26
187.9	56.13
188.121	84.11
188.342	73.51
188.563	67.81
188.784	88.99
189.005	69.76
189.226	78.03
189.447	51.6
189.667	81.29
189.888	59.9
190.109	51.63
190.33	13.18
190.551	17.96
190.772	3.35
190.993	-15.02
191.214	-6.08
191.434	29.54
191.655	47.75
191.876	30.85
192.097	23.31
192.318	28.06
192.538	7.71
192.759	-14.83
192.98	-6.87
193.201	6
193.421	-0.71
193.642	42.57
193.863	45.54
194.083	40.55
194.304	54.25
194.525	64.73
194.745	41.76
194.966	43.49
195.187	35.5
195.407	-10.23
195.628	-51.15
195.848	-47.53
196.069	-95.93
196.29	-103.63
196.51	-108.01
196.731	-103.75
196.951	-66.02
197.172	-29.1
197.392	-5.06
197.613	14.26
197.833	14.76
198.054	0.7
198.274	10.56
198.495	-6.47
198.715	25.47
198.936	10.54
199.156	22.11
199.377	11.21
199.597	11.18
199.817	1.49
200.038	39.64
200.258	56.73
200.479	60.93
200.699	72.84
200.919	76.5
201.14	44.87
201.36	18.48
201.58	11.84
201.801	24.92
202.021	8.17
202.241	28.59
202.461	10.19
202.682	2.05
202.902	-6.59
203.122	6.14
203.342	9.4
203.563	33.67
203.783	46.43
204.003	-7.81
204.223	-103.3
204.443	-40.22
204.663	-43.92
204.884	-69.01
205.104	-42.73
205.324	36.14
205.544	16.08
205.764	26.44
205.984	50.66
206.204	71.1
206.424	50.64
206.644	37.73
206.864	25.26
207.084	22.82
207.304	-0.81
207.525	-21.9
207.745	-1.91
207.964	15.33
208.184	10.1
208.404	22.54
208.624	26.53
208.844	25.58
209.064	6.51
209.284	10.95
209.504	15.31
209.724	26.04
209.944	8.08
210.164	6.14
210.384	5.12
210.604	-4.88
210.823	-24.54
211.043	-36.75
211.263	-13.84
211.483	-19.47
211.703	-13.98
211.922	8.61
212.142	59.31
212.362	46.14
212.582	46.55
212.801	61.77
213.021	36.46
213.241	21.88
213.461	13.45
213.68	-4.14
213.9	-25.7
214.12	5.43
214.339	-0.18
214.559	-6.2
214.779	36.58
214.998	59.55
215.218	43.57
215.438	43.5
215.657	54.85
215.877	48.83
216.096	17.05
216.316	32.77
216.535	16.12
216.755	18.72
216.974	-4.83
217.194	0.23
217.413	-5.1
217.633	9.48
217.852	-12.7
218.072	-5.04
218.291	-11.5
218.511	-7.95
218.73	-34.03
218.95	-23.48
219.169	-15.36
219.389	-35.15
219.608	-44.68
219.827	-7.52
220.047	2.64
220.266	-11.21
220.485	0.71
220.705	22.1
220.924	-1.82
221.143	12.57
221.363	-1.72
221.582	21.58
221.801	10.33
222.021	32.28
222.24	39.7
222.459	59.16
222.678	46.86
222.897	44.84
223.117	47.13
223.336	44.93
223.555	58.72
223.774	62.35
223.993	47.75
224.213	32.55
224.432	21.04
224.651	20.73
224.87	31.19
225.089	67.86
225.308	63.77
225.527	78.92
225.746	67.61
225.965	54.39
226.184	23.01
226.404	29.02
226.623	14.25
226.842	16.75
227.061	37.1
227.28	48.1
227.499	55.9
227.718	77.45
227.936	81.8
228.155	78.7
228.374	49.06
228.593	42.05
228.812	23.46
229.031	17.49
229.25	-10.12
229.469	26.12
229.688	31.21
229.907	35.23
230.125	49.49
230.344	58.96
230.563	47.56
230.782	61.27
231.001	35.47
231.22	32.22
231.438	35.73
231.657	18.1
231.876	5.66
232.095	33.77
232.313	35.49
232.532	35.72
232.751	57.15
232.969	43.81
233.188	33.75
233.407	18.43
233.625	15.61
233.844	-0.86
234.063	-15.9
234.281	8.16
234.5	30.17
234.719	26.93
234.937	29.21
235.156	30.53
235.374	28.71
235.593	47.82
235.811	50.01
236.03	56.61
236.249	54.44
236.467	67.37
236.686	41.56
236.904	49.07
237.123	16.34
237.341	43.21
237.559	14.52
237.778	-1.18
237.996	-19.26
238.215	15.61
238.433	-0.31
238.652	4.88
238.87	-16.99
239.088	-11.61
239.307	-7.66
239.525	5.09
239.743	-4.06
239.962	28.97
240.18	19.8
240.398	-11.14
240.617	-32.78
240.835	-14.01
241.053	-50.92
241.271	-20.88
241.49	11.47
241.708	24.65
241.926	16.58
242.144	27.89
242.363	14.97
242.581	19.34
242.799	25.54
243.017	17.14
243.235	-1.38
243.453	31.22
243.672	8.57
243.89	21.62
244.108	41.75
244.326	58.02
244.544	35.11
244.762	26.85
244.98	3.56
245.198	-5.57
245.416	-34.81
245.634	-43.83
245.852	-27.43
246.07	3.67
246.288	14.74
246.506	37.72
246.724	45.71
246.942	46.98
247.16	34.38
247.378	33.03
247.596	33.04
247.814	41.31
248.032	7.46
248.25	7.99
248.468	13.55
248.685	20.61
248.903	6.28
249.121	23.76
249.339	0.44
249.557	-20.97
249.775	-40.69
249.992	-60.54
250.21	-73.29
250.428	-34.61
250.646	-25.12
250.863	-18.23
251.081	-8.75
251.299	14.79
251.517	18.46
251.734	20.83
251.952	22.96
252.17	28.62
252.387	40.14
252.605	19.33
252.823	13.33
253.04	17.98
253.258	21.78
253.475	17.46
253.693	31.34
253.911	49.32
254.128	41.19
254.346	52.79
254.563	30.95
254.781	27
254.998	16.92
255.216	14.86
255.433	8.28
255.651	40.96
255.868	50.82
256.086	54.43
256.303	58.77
256.521	65.09
256.738	31.64
256.956	30.39
257.173	55.68
257.39	58.99
257.608	47.83
257.825	51.45
258.043	46.08
258.26	32.82
258.477	24.1
258.695	6.89
258.912	-12.06
259.129	-6.47
259.346	-24.36
259.564	-22.12
259.781	3.67
259.998	2.03
260.216	14.43
260.433	18.54
260.65	12.66
260.867	9.1
261.084	11.77
261.302	9.99
261.519	31.58
261.736	33.57
261.953	30.11
262.17	41.08
262.387	37.15
262.604	22.76
262.822	21.09
263.039	16.71
263.256	13.15
263.473	21.13
263.69	12.7
263.907	21.66
264.124	37.58
264.341	39.8
264.558	26.79
264.775	26.42
264.992	31.3
265.209	33.3
265.426	30.01
265.643	25.32
265.86	30.62
266.077	29.06
266.294	11.62
266.51	24.73
266.727	27.16
266.944	37.99
267.161	30.31
267.378	29.97
267.595	29.55
267.812	-1.38
268.028	-3.75
268.245	-4.98
268.462	10.53
268.679	4.22
268.896	43.15
269.112	27.95
269.329	17.46
269.546	26.89
269.763	25.91
269.979	22.65
270.196	33.76
270.413	48.45
270.629	38.22
270.846	28.56
271.063	30.45
271.279	24.87
271.496	0.69
271.712	-2.16
271.929	3.51
272.146	8.29
272.362	8.33
272.579	39.75
272.795	45.27
273.012	51.45
273.228	33.24
273.445	17.61
273.661	-0.66
273.878	-55.39
274.094	-53.58
274.311	-60.02
274.527	-21.38
274.744	-1.7
274.96	36.73
275.177	44.86
275.393	48.49
275.609	51.23
275.826	40.19
276.042	40.24
276.259	51.22
276.475	42.55
276.691	22.52
276.908	23.77
277.124	35.78
277.34	22.59
277.557	26.94
277.773	33.7
277.989	31.25
278.205	27.43
278.422	18.33
278.638	23.16
278.854	13.45
279.07	21.76
279.286	2.53
279.503	9.67
279.719	11.59
279.935	17.94
280.151	5.04
280.367	23.05
280.583	24.26
280.799	11.43
281.016	3.05
281.232	7.31
281.448	1.67
281.664	3.01
281.88	8.5
282.096	19.34
282.312	28.69
282.528	36.48
282.744	39.43
282.96	43.88
283.176	55.72
283.392	39.93
283.608	31.37
283.824	17.13
284.04	16.27
284.256	16.91
284.471	22.74
284.687	17.56
284.903	21.67
285.119	37.8
285.335	25.25
285.551	36.88
285.767	45.27
285.982	51.49
286.198	22.07
286.414	27.73
286.63	19.26
286.846	18.61
287.061	5.27
287.277	5.55
287.493	16.19
287.709	11.85
287.924	6.93
288.14	30.27
288.356	42.9
288.571	33.92
288.787	33.61
289.003	44.44
289.218	25.86
289.434	8.4
289.65	22.74
289.865	30.22
290.081	20.87
290.296	26.04
290.512	24.2
290.727	34.18
290.943	29.35
291.159	25.4
291.374	19.62
291.59	10.17
291.805	-6.53
292.021	2.79
292.236	3.77
292.451	6.68
292.667	23.57
292.882	27.99
293.098	34.47
293.313	34.94
293.529	27.72
293.744	9.29
293.959	-5.52
294.175	-2.17
294.39	0.3
294.605	19.7
294.821	36.36
295.036	34.47
295.251	34.57
295.467	44.05
295.682	27.2
295.897	16.43
296.112	9.99
296.328	1.67
296.543	-1.09
296.758	-2.53
296.973	16.04
297.188	40.97
297.404	27.96
297.619	28.13
297.834	32.26
298.049	18.82
298.264	2.06
298.479	15.58
298.694	17.13
298.909	17.04
299.125	17.1
299.34	31.74
299.555	24.75
299.77	24.85
299.985	-5.57
300.2	-1.35
300.415	-23.13
300.63	-9.69
300.845	-6.18
301.06	2.31
301.275	-6.56
301.49	-10.27
301.704	-15.47
301.919	-28.92
302.134	-31.79
302.349	13.31
302.564	10.27
302.779	15.17
302.994	39.74
303.209	49.63
303.423	35.97
303.638	45.84
303.853	38.84
304.068	8.22
304.283	-2.49
304.497	-0.86
304.712	8.98
304.927	14.14
305.142	9.18
305.356	18.08
305.571	28.73
305.786	17.72
306	20.77
306.215	36.91
306.43	23.51
306.644	15.1
306.859	20.62
307.074	0.97
307.288	-18.4
307.503	-24.2
307.717	-17.09
307.932	-21.75
308.147	-6.23
308.361	22.55
308.576	16.42
308.79	-1.03
309.005	21.58
309.219	18.17
309.434	17.18
309.648	16.86
309.863	27.5
310.077	15.95
310.292	23.16
310.506	7.29
310.72	35.74
310.935	46.78
311.149	41.61
311.364	39.14
311.578	51.15
311.792	47.75
312.007	35.8
312.221	28.24
312.435	35.09
312.649	19.91
312.864	41.65
313.078	44.09
313.292	74.87
313.507	53
313.721	50.33
313.935	24.86
314.149	38.48
314.363	14
314.578	16.37
314.792	2.83
315.006	15.56
315.22	3.44
315.434	9.66
315.648	15.61
315.862	16.78
316.077	17.43
316.291	26.27
316.505	34.92
316.719	43.68
316.933	27.44
317.147	29.19
317.361	27.23
317.575	10.86
317.789	7.51
318.003	3.65
318.217	2.93
318.431	11.75
318.645	24.71
318.859	13.04
319.073	32.22
319.287	29.62
319.5	12.79
319.714	7.06
319.928	9.56
320.142	1.57
320.356	22.84
320.57	41.42
320.784	28.43
320.997	27.81
321.211	34.54
321.425	7.09
321.639	-36.16
321.853	-8.69
322.066	-1.01
322.28	-15.81
322.494	-4.67
322.707	42.06
322.921	26.51
323.135	18.72
323.349	19.44
323.562	18.66
323.776	-3.43
323.989	-1.8
324.203	-1.44
324.417	10.66
324.63	-2.53
324.844	-6.17
325.057	-20.84
325.271	-30.36
325.485	-42.41
325.698	0.46
325.912	12.93
326.125	22.24
326.339	36.6
326.552	46.22
326.766	47.66
326.979	55.17
327.193	57.91
327.406	43.76
327.619	45.94
327.833	38.91
328.046	28.29
328.26	26.55
328.473	32.9
328.686	28.02
328.9	26.23
329.113	31.49
329.326	24.42
329.54	30.24
329.753	33.29
329.966	20.14
330.179	44.4
330.393	46.8
330.606	34.76
330.819	41.35
331.032	53.24
331.246	44.27
331.459	46.59
331.672	49.94
331.885	31.08
332.098	17.33
332.311	16.66
332.525	14.77
332.738	16.4
332.951	27.37
333.164	37.95
333.377	38.53
333.59	37.92
333.803	30.84
334.016	19.44
334.229	17.35
334.442	14.77
334.655	11.25
334.868	23.15
335.081	34.3
335.294	25.35
335.507	30.99
335.72	40.37
335.933	26.29
336.146	17.36
336.359	24.35
336.572	6.39
336.785	1.3
336.997	4.21
337.21	19.07
337.423	18.62
337.636	26.92
337.849	31.94
338.062	34.33
338.274	41.05
338.487	29.31
338.7	24.63
338.913	15.63
339.125	9.89
339.338	4.81
339.551	10.96
339.763	31.85
339.976	46.88
340.189	56.84
340.402	51.09
340.614	45.43
340.827	40.01
341.039	21.43
341.252	9.84
341.465	8.85
341.677	5
341.89	-29.85
342.102	-16.02
342.315	-9.78
342.527	-8.1
342.74	5.15
342.952	35.13
343.165	28.67
343.377	38.36
343.59	31.83
343.802	32.4
344.015	25.29
344.227	39.51
344.44	25.57
344.652	31.42
344.864	32.89
345.077	38.9
345.289	36.37
345.502	46.48
345.714	35.77
345.926	30.89
346.139	36.53
346.351	43.37
346.563	30.64
346.775	39.66
346.988	32.88
347.2	26.27
347.412	-4.38
347.624	5.86
347.837	13.3
348.049	27.52
348.261	29.56
348.473	27.36
348.685	8.21
348.897	-8.45
349.11	-16.71
349.322	-20.49
349.534	6.13
349.746	23.6
349.958	38.66
350.17	42.43
350.382	43.06
350.594	43.93
350.806	49.88
351.018	30.66
351.23	25.59
351.442	25.64
351.654	14.37
351.866	-3.92
352.078	6.59
352.29	2.93
352.502	16.63
352.714	31.01
352.926	43.61
353.138	36.56
353.35	24.69
353.561	17.65
353.773	6.51
353.985	6.68
354.197	7.97
354.409	18
354.621	22.09
354.832	30.51
355.044	28.57
355.256	29.15
355.468	34.7
355.679	16.04
355.891	19.72
356.103	14.27
356.314	18.24
356.526	24.47
356.738	39.24
356.949	36.54
357.161	35.07
357.373	29.95
357.584	16.12
357.796	22.12
358.008	10.52
358.219	32.27
358.431	26.6
358.642	31.51
358.854	31.45
359.065	38.68
359.277	15.63
359.488	12.76
359.7	5.21
359.911	-2.38
360.123	-8
360.334	-2.77
360.546	-1.35
360.757	4.22
360.969	1.32
361.18	12.79
361.391	10.01
361.603	11.47
361.814	8.51
362.025	-3.02
362.237	-9.99
362.448	-1.6
362.659	16.71
362.871	16.66
363.082	28.19
363.293	32.46
363.504	28.08
363.716	17.75
363.927	20.55
364.138	11.21
364.349	-3.22
364.56	-0.78
364.772	-3.82
364.983	4.6
365.194	1.26
365.405	13.46
365.616	8.63
365.827	-15.56
366.038	-17.32
366.25	-9.37
366.461	-25.48
366.672	-3.87
366.883	17.9
367.094	10.78
367.305	6.95
367.516	24.64
367.727	20.22
367.938	9
368.149	-3.6
368.36	3.24
368.571	1.24
368.781	-1
368.992	-6.16
369.203	19.84
369.414	12.74
369.625	-2.51
369.836	-2.31
370.047	-5.75
370.258	-13.11
370.468	-3.98
370.679	-12.68
370.89	-8.89
371.101	23.85
371.312	11
371.522	11.42
371.733	31.97
371.944	37.04
372.155	31.7
372.365	24.15
372.576	29.59
372.787	15.26
372.997	12.89
373.208	3.16
373.419	17.29
373.629	-1.52
373.84	10.47
374.05	-6.71
374.261	6.94
374.472	-10.7
374.682	8.43
374.893	-0.1
375.103	15.87
375.314	-0.2
375.524	17.35
375.735	20.98
375.945	25.5
376.156	15.58
376.366	20.9
376.577	14.36
376.787	11.5
376.997	23.17
377.208	33.14
377.418	25.93
377.629	34.55
377.839	32.34
378.049	23.08
378.26	27.71
378.47	41.14
378.68	33.43
378.89	29.14
379.101	31.95
379.311	19.41
379.521	9.46
379.732	14.68
379.942	3.1
380.152	5.39
380.362	9.21
380.572	7.65
380.783	12.42
380.993	22.52
381.203	19.12
381.413	19.08
381.623	13.82
381.833	11.27
382.043	0.3
382.253	1.82
382.463	7.34
382.674	15.95
382.884	9.42
383.094	20.03
383.304	21.29
383.514	13.76
383.724	13.73
383.934	11.81
384.144	1.22
384.353	-2.36
384.563	5.94
384.773	6.79
384.983	7.14
385.193	13.67
385.403	5.51
385.613	7.79
385.823	7.07
386.033	13.13
386.242	8.6
386.452	15.45
386.662	9.35
386.872	10.87
387.082	9.2
387.291	5.15
387.501	6.43
387.711	9.17
387.921	-0.24
388.13	3.68
388.34	11.37
388.55	8.47
388.759	9.98
388.969	12.83
389.179	8.69
389.388	7.05
389.598	6.58
389.807	3.2
390.017	5.31
390.227	5.09
390.436	4.2
390.646	7.18
390.855	7.97
391.065	7.69
391.274	6.73
391.484	4.74
391.693	3.72
391.903	5.09
392.112	5.72
392.322	7.29
392.531	10.72
392.74	10.09
392.95	6.61
393.159	6.33
393.369	7.03
393.578	5.16
393.787	5.55
393.997	7.98
394.206	7.94
394.415	8.01
394.625	8.03
394.834	6.78
395.043	6.37
395.252	7.24
395.462	7.19
395.671	7.59
395.88	8.59
396.089	8.73
396.298	8.38
396.508	7.95
396.717	8.43
396.926	8.28
397.135	8.42
397.344	7.64
397.553	7.64
397.762	7.52
397.971	7.75
398.181	7.05
398.39	6.17
398.599	5.62
398.808	5.33
399.017	4.99
399.226	5.24
399.435	6.05
399.644	6.05
399.853	5.84
400.062	5.6
400.27	5.75
400.479	5.59
400.688	5.56
400.897	5.84
401.106	5.76
401.315	5.27
401.524	5.47
401.733	5.73
401.941	5.72
402.15	5.77
402.359	5.76
402.568	5.7
402.777	5.42
402.985	5.33
403.194	5.37
403.403	5.49
403.612	5.25
403.82	5.5
404.029	5.36
404.238	5.19
404.446	5.23
404.655	5.09
404.864	4.91
405.072	4.88
405.281	5.01
405.489	4.76
405.698	4.8
405.906	4.74
406.115	4.62
406.324	4.48
406.532	4.55
406.741	4.74
406.949	4.61
407.158	4.73
407.366	4.8
407.574	4.83
407.783	4.74
407.991	4.87
408.2	4.81
408.408	4.64
408.617	4.59
408.825	4.5
409.033	4.57
409.242	4.61
409.45	4.73
409.658	4.65
409.867	4.76
410.075	4.59
410.283	4.5
410.491	4.51
410.7	4.39
410.908	4.22
411.116	4.27
411.324	4.29
411.533	4.31
411.741	4.39
411.949	4.56
412.157	4.47
412.365	4.57
412.573	4.44
412.781	4.48
412.99	4.37
413.198	4.49
413.406	4.46
413.614	4.59
413.822	4.59
414.03	4.54
414.238	4.37
414.446	4.34
414.654	4.14
414.862	4.12
415.07	4.24
415.278	4.5
415.486	4.25
415.694	4.43
415.902	4.45
416.109	4.32
416.317	4.15
416.525	4.15
416.733	4.15
416.941	4.14
417.149	4.09
417.357	4.12
417.564	4.21
417.772	4.01
417.98	4.07
418.188	4.18
418.395	4.1
418.603	4.19
418.811	4.19
419.019	4.11
419.226	4.14
419.434	4.26
419.642	4.15
419.849	4.21
420.057	4.25
420.265	4.26
420.472	4.16
420.68	4.25
420.887	4.11
421.095	4.07
421.302	3.89
421.51	3.96
421.717	3.98
421.925	4.14
422.132	4.01
422.34	3.85
422.547	3.83
422.755	3.86
422.962	3.8
423.17	3.85
423.377	4
423.585	3.83
423.792	3.7
423.999	3.75
424.207	3.73
424.414	3.68
424.621	3.69
424.829	3.7
425.036	3.6
425.243	3.57
425.451	3.59
425.658	3.67
425.865	3.56
426.072	3.66
426.28	3.71
426.487	3.63
426.694	3.7
426.901	3.86
427.108	3.84
427.315	3.81
427.523	4.03
427.73	3.97
427.937	3.68
428.144	3.59
428.351	3.66
428.558	3.59
428.765	3.57
428.972	3.66
429.179	3.69
429.386	3.76
429.593	3.76
429.8	3.67
430.007	3.76
430.214	3.83
430.421	3.82
430.628	3.68
430.835	3.62
431.042	3.76
431.249	3.69
431.456	3.75
431.662	3.96
431.869	4.09
432.076	3.89
432.283	3.75
432.49	3.51
432.697	3.33
432.903	3.11
433.11	3.25
433.317	3.48
433.524	3.54
433.73	3.53
433.937	3.8
434.144	3.73
434.35	3.69
434.557	3.67
434.764	3.7
434.97	3.63
435.177	3.73
435.384	3.55
435.59	3.79
435.797	3.86
436.003	3.77
436.21	3.63
436.416	3.64
436.623	3.46
436.829	3.47
437.036	3.5
437.242	3.48
437.449	3.52
437.655	3.46
437.862	3.44
438.068	3.45
438.275	3.5
438.481	3.6
438.687	3.61
438.894	3.57
439.1	3.57
439.307	3.62
439.513	3.49
439.719	3.55
439.926	3.58
440.132	3.56
440.338	3.53
440.544	3.52
440.751	3.41
440.957	3.5
441.163	3.37
441.369	3.37
441.575	3.39
441.782	3.41
441.988	3.25
442.194	3.32
442.4	3.21
442.606	3.38
442.812	3.49
443.018	3.49
443.224	3.58
443.431	3.7
443.637	3.59
443.843	3.46
444.049	3.55
444.255	3.48
444.461	3.42
444.667	3.34
444.873	3.42
445.079	3.42
445.284	3.5
445.49	3.49
445.696	3.45
445.902	3.49
446.108	3.48
446.314	3.44
446.52	3.59
446.726	3.74
446.931	3.62
447.137	3.62
447.343	3.67
447.549	3.45
447.755	3.45
447.96	3.55
448.166	3.6
448.372	3.62
448.578	3.66
448.783	3.6
448.989	3.62
449.195	3.62
449.4	3.63
449.606	3.66
449.812	3.59
450.017	3.62
450.223	3.62
450.428	3.48
450.634	3.5
450.84	3.56
451.045	3.48
451.251	3.39
451.456	3.53
451.662	3.6
451.867	3.65
452.073	3.58
452.278	3.55
452.483	3.53
452.689	3.53
452.894	3.52
453.1	3.66
453.305	3.62
453.51	3.54
453.716	3.45
453.921	3.49
454.127	3.53
454.332	3.57
454.537	3.57
454.742	3.62
454.948	3.6
455.153	3.46
455.358	3.52
455.563	3.58
455.769	3.56
455.974	3.49
456.179	3.51
456.384	3.42
456.589	3.39
456.795	3.33
457	3.33
457.205	3.35
457.41	3.41
457.615	3.43
457.82	3.46
458.025	3.55
458.23	3.56
458.435	3.63
458.64	3.48
458.845	3.51
459.05	3.42
459.255	3.3
459.46	3.22
459.665	3.37
459.87	3.38
460.075	3.37
460.28	3.47
460.485	3.56
460.69	3.55
460.895	3.46
461.099	3.39
461.304	3.46
461.509	3.45
461.714	3.35
461.919	3.44
462.123	3.45
462.328	3.41
462.533	3.29
462.738	3.32
462.942	3.18
463.147	3.23
463.352	3.27
463.556	3.3
463.761	3.32
463.966	3.47
464.17	3.6
464.375	3.53
464.58	3.46
464.784	3.59
464.989	3.51
465.193	3.38
465.398	3.37
465.602	3.54
465.807	3.37
466.011	3.5
466.216	3.61
466.42	3.62
466.625	3.57
466.829	3.71
467.034	3.65
467.238	3.65
467.443	3.58
467.647	3.48
467.851	3.44
468.056	3.47
468.26	3.41
468.464	3.46
468.669	3.56
468.873	3.5
469.077	3.52
469.282	3.51
469.486	3.67
469.69	3.67
469.894	3.74
470.099	3.69
470.303	3.68
470.507	3.56
470.711	3.55
470.915	3.6
471.119	3.58
471.324	3.62
471.528	3.52
471.732	3.58
471.936	3.52
472.14	3.59
472.344	3.56
472.548	3.7
472.752	3.69
472.956	3.67
473.16	3.62
473.364	3.56
473.568	3.56
473.772	3.51
473.976	3.59
474.18	3.63
474.384	3.64
474.588	3.58
474.792	3.57
474.995	3.5
475.199	3.5
475.403	3.53
475.607	3.55
475.811	3.57
476.015	3.61
476.218	3.57
476.422	3.58
476.626	3.65
476.83	3.75
477.033	3.6
477.237	3.58
477.441	3.61
477.644	3.55
477.848	3.48
478.052	3.47
478.255	3.51
478.459	3.54
478.663	3.65
478.866	3.7
479.07	3.77
479.273	3.87
479.477	3.84
479.681	3.81
479.884	3.81
480.088	3.82
480.291	3.75
480.495	3.71
480.698	3.71
480.901	3.73
481.105	3.76
481.308	3.73
481.512	3.72
481.715	3.72
481.919	3.73
482.122	3.73
482.325	3.8
482.529	3.82
482.732	3.81
482.935	3.74
483.138	3.72
483.342	3.71
483.545	3.84
483.748	3.85
483.952	3.82
484.155	3.95
484.358	3.95
484.561	3.87
484.764	3.93
484.967	4.02
485.171	4.02
485.374	3.97
485.577	3.95
485.78	3.9
485.983	3.84
486.186	3.75
486.389	3.75
486.592	3.79
486.795	3.85
486.998	3.93
487.201	3.89
487.404	3.94
487.607	4.01
487.81	3.99
488.013	3.94
488.216	3.96
488.419	4.01
488.622	3.92
488.825	3.89
489.028	3.95
489.231	3.99
489.433	3.92
489.636	3.91
489.839	3.82
490.042	3.8
490.245	3.77
490.447	3.83
490.65	3.89
490.853	4.09
491.056	4.1
491.258	4.12
491.461	4.18
491.664	4.17
491.866	3.99
492.069	3.92
492.272	3.95
492.474	3.95
492.677	3.94
492.879	4.06
493.082	4.17
493.285	4.18
493.487	4.11
493.69	4.08
493.892	4.02
494.095	3.96
494.297	3.95
494.5	4.1
494.702	4.16
494.905	4.2
495.107	4.27
495.309	4.33
495.512	4.24
495.714	4.31
495.917	4.35
496.119	4.33
496.321	4.35
496.524	4.37
496.726	4.32
496.928	4.35
497.13	4.38
497.333	4.37
497.535	4.45
497.737	4.45
497.939	4.4
498.142	4.51
498.344	4.43
498.546	4.34
498.748	4.4
498.95	4.46
499.152	4.35
499.355	4.48
499.557	4.5
499.759	4.51
499.961	4.53
500.163	4.61
500.365	4.64
500.567	4.6
500.769	4.56
500.971	4.6
501.173	4.51
501.375	4.48
501.577	4.55
501.779	4.61
501.981	4.59
502.183	4.68
502.385	4.66
502.587	4.64
502.788	4.68
502.99	4.68
503.192	4.72
503.394	4.75
503.596	4.75
503.798	4.76
503.999	4.84
504.201	4.83
504.403	4.88
504.605	4.99
504.806	4.98
505.008	4.93
505.21	4.94
505.411	4.95
505.613	4.84
505.815	4.88
506.016	4.96
506.218	4.98
506.42	4.9
506.621	4.96
506.823	5.01
507.024	4.98
507.226	5.03
507.427	5.07
507.629	5.14
507.83	5.1
508.032	5.04
508.233	5.09
508.435	5.15
508.636	5.13
508.838	5.1
509.039	5.16
509.24	5.09
509.442	5.15
509.643	5.21
509.845	5.29
510.046	5.33
510.247	5.37
510.448	5.37
510.65	5.38
510.851	5.42
511.052	5.46
511.254	5.41
511.455	5.46
511.656	5.47
511.857	5.42
512.058	5.43
512.26	5.51
512.461	5.49
512.662	5.53
512.863	5.5
513.064	5.51
513.265	5.57
513.466	5.6
513.667	5.59
513.868	5.71
514.069	5.79
514.27	5.78
514.471	5.73
514.672	5.76
514.873	5.81
515.074	5.79
515.275	5.79
515.476	5.86
515.677	5.86
515.878	5.82
516.079	5.79
516.28	5.83
516.481	5.92
516.682	5.97
516.882	5.94
517.083	6.02
517.284	5.91
517.485	5.85
517.686	5.83
517.886	5.86
518.087	5.87
518.288	6.05
518.488	6.05
518.689	6.08
518.89	6.07
519.091	6.1
519.291	5.98
519.492	6.06
519.692	6.1
519.893	6.21
520.094	6.19
520.294	6.24
520.495	6.23
520.695	6.24
520.896	6.2
521.096	6.28
521.297	6.39
521.497	6.47
521.698	6.46
521.898	6.45
522.099	6.43
522.299	6.44
522.499	6.41
522.7	6.49
522.9	6.54
523.101	6.58
523.301	6.54
523.501	6.54
523.702	6.49
523.902	6.56
524.102	6.6
524.302	6.66
524.503	6.7
524.703	6.79
524.903	6.71
525.103	6.68
525.304	6.65
525.504	6.68
525.704	6.7
525.904	6.77
526.104	6.82
526.304	6.88
526.504	6.9
526.705	6.85
526.905	6.91
527.105	6.97
527.305	7
527.505	6.94
527.705	7.05
527.905	7.01
528.105	7
528.305	6.94
528.505	6.99
528.705	7.01
528.905	7.04
529.105	7.08
529.304	7.22
529.504	7.28
529.704	7.22
529.904	7.29
530.104	7.3
530.304	7.34
530.503	7.33
530.703	7.34
530.903	7.31
531.103	7.34
531.303	7.19
531.502	7.29
531.702	7.39
531.902	7.4
532.101	7.4
532.301	7.49
532.501	7.48
532.7	7.52
532.9	7.47
533.1	7.49
533.299	7.48
533.499	7.52
533.698	7.49
533.898	7.57
534.097	7.62
534.297	7.67
534.496	7.66
534.696	7.68
534.895	7.74
535.095	7.78
535.294	7.83
535.494	7.8
535.693	7.86
535.892	7.89
536.092	7.83
536.291	7.8
536.491	7.83
536.69	7.88
536.889	7.82
537.088	7.86
537.288	7.97
537.487	8.06
537.686	8.04
537.886	8.16
538.085	8.18
538.284	8.17
538.483	8.18
538.682	8.28
538.882	8.27
539.081	8.38
539.28	8.45
539.479	8.5
539.678	8.45
539.877	8.52
540.076	8.49
540.275	8.59
540.474	8.59
540.673	8.65
540.872	8.65
541.071	8.75
541.27	8.71
541.469	8.71
541.668	8.76
541.867	8.78
542.066	8.78
542.265	8.87
542.464	8.92
542.663	8.93
542.862	9.03
543.06	9.1
543.259	9.09
543.458	9.18
543.657	9.2
543.856	9.28
544.054	9.25
544.253	9.29
544.452	9.32
544.651	9.4
544.849	9.36
545.048	9.47
545.247	9.51
545.445	9.53
545.644	9.6
545.843	9.63
546.041	9.73
546.24	9.83
546.438	9.88
546.637	9.91
546.836	10.08
547.034	10.08
547.233	10.14
547.431	10.23
547.63	10.33
547.828	10.3
548.027	10.4
548.225	10.42
548.423	10.53
548.622	10.54
548.82	10.6
549.019	10.68
549.217	10.76
549.415	10.76
549.614	10.87
549.812	10.91
550.01	10.86
550.209	10.97
550.407	11.05
550.605	11.14
550.803	11.18
551.002	11.28
551.2	11.29
551.398	11.39
551.596	11.45
551.794	11.63
551.993	11.76
552.191	11.83
552.389	11.92
552.587	12.01
552.785	12.04
552.983	12.13
553.181	12.28
553.379	12.35
553.577	12.36
553.775	12.5
553.973	12.6
554.171	12.65
554.369	12.71
554.567	12.81
554.765	12.86
554.963	12.96
555.161	12.96
555.359	13.12
555.557	13.21
555.755	13.28
555.952	13.36
556.15	13.48
556.348	13.47
556.546	13.56
556.744	13.63
556.941	13.65
557.139	13.73
557.337	13.88
557.535	14
557.732	14.13
557.93	14.33
558.128	14.53
558.325	14.59
558.523	14.6
558.721	14.68
558.918	14.64
559.116	14.66
559.313	14.75
559.511	14.97
559.708	15.06
559.906	15.19
560.104	15.29
560.301	15.5
560.498	15.49
560.696	15.6
560.893	15.74
561.091	15.91
561.288	15.88
561.486	16.02
561.683	16.09
561.88	16.11
562.078	16.14
562.275	16.28
562.473	16.4
562.67	16.51
562.867	16.71
563.064	16.8
563.262	16.9
563.459	17.01
563.656	17.12
563.853	17.2
564.051	17.21
564.248	17.26
564.445	17.31
564.642	17.46
564.839	17.54
565.036	17.78
565.234	17.94
565.431	18.06
565.628	18.09
565.825	18.15
566.022	18.23
566.219	18.33
566.416	18.31
566.613	18.38
566.81	18.48
567.007	18.51
567.204	18.5
567.401	18.67
567.598	18.73
567.795	18.72
567.991	18.79
568.188	18.97
568.385	18.94
568.582	19.07
568.779	19.18
568.976	19.31
569.172	19.33
569.369	19.47
569.566	19.49
569.763	19.55
569.96	19.5
570.156	19.53
570.353	19.56
570.55	19.62
570.746	19.7
570.943	19.76
571.14	19.81
571.336	19.85
571.533	19.95
571.729	20.04
571.926	20.15
572.123	20.15
572.319	20.19
572.516	20.17
572.712	20.15
572.909	20.19
573.105	20.25
573.302	20.35
573.498	20.43
573.695	20.4
573.891	20.41
574.087	20.48
574.284	20.34
574.48	20.26
574.677	20.3
574.873	20.33
575.069	20.32
575.266	20.52
575.462	20.57
575.658	20.55
575.854	20.61
576.051	20.65
576.247	20.57
576.443	20.52
576.639	20.61
576.835	20.57
577.032	20.57
577.228	20.65
577.424	20.7
577.62	20.63
577.816	20.63
578.012	20.53
578.208	20.47
578.404	20.55
578.6	20.64
578.796	20.65
578.993	20.7
579.189	20.76
579.384	20.72
579.58	20.69
579.776	20.71
579.972	20.63
580.168	20.53
580.364	20.46
580.56	20.48
580.756	20.36
580.952	20.34
581.148	20.38
581.343	20.43
581.539	20.29
581.735	20.3
581.931	20.39
582.127	20.34
582.322	20.24
582.518	20.34
582.714	20.46
582.909	20.28
583.105	20.27
583.301	20.18
583.496	20.12
583.692	19.93
583.888	19.97
584.083	19.92
584.279	20.02
584.474	19.95
584.67	20.02
584.866	20.01
585.061	20.03
585.257	19.98
585.452	19.98
585.648	19.85
585.843	19.84
586.039	19.74
586.234	19.74
586.429	19.7
586.625	19.73
586.82	19.69
587.015	19.76
587.211	19.66
587.406	19.63
587.601	19.58
587.797	19.54
587.992	19.43
588.187	19.56
588.383	19.57
588.578	19.63
588.773	19.71
588.968	19.8
589.163	19.78
589.359	19.78
589.554	19.65
589.749	19.73
589.944	19.75
590.139	19.72
590.334	19.7
590.529	19.8
590.724	19.71
590.919	19.67
591.114	19.71
591.309	19.89
591.504	20
591.699	19.99
591.894	19.96
592.089	19.9
592.284	19.81
592.479	19.74
592.674	19.71
592.869	19.77
593.064	19.86
593.259	19.9
593.454	19.89
593.648	20
593.843	20.06
594.038	20
594.233	19.94
594.428	20
594.622	20
594.817	20.01
595.012	20.04
595.206	20.2
595.401	20.35
595.596	20.39
595.79	20.39
595.985	20.54
596.18	20.53
596.374	20.51
596.569	20.49
596.763	20.54
596.958	20.49
597.153	20.52
597.347	20.47
597.542	20.7
597.736	20.77
597.931	20.91
598.125	21
598.319	21.16
598.514	21.18
598.708	21.15
598.903	21.1
599.097	21.13
599.291	21.06
599.486	20.96
599.68	21.04
599.874	21.18
600.069	21.16
600.263	21.19
600.457	21.25
600.651	21.3
600.846	21.27
601.04	21.25
601.234	21.16
601.428	21.22
601.622	21.21
601.817	21.28
602.011	21.27
602.205	21.5
602.399	21.48
602.593	21.5
602.787	21.38
602.981	21.48
603.175	21.41
603.369	21.33
603.563	21.32
603.757	21.39
603.951	21.38
604.145	21.29
604.339	21.35
604.533	21.34
604.727	21.3
604.921	21.23
605.115	21.25
605.309	21.24
605.502	21.22
605.696	21.14
605.89	21.12
606.084	21.16
606.278	21.08
606.471	20.95
606.665	20.86
606.859	20.71
607.053	20.55
607.246	20.55
607.44	20.49
607.634	20.53
607.827	20.6
608.021	20.52
608.214	20.49
608.408	20.51
608.602	20.5
608.795	20.39
608.989	20.45
609.182	20.32
609.376	20.21
609.569	20.11
609.763	20.07
609.956	19.98
610.15	19.99
610.343	19.87
610.537	19.74
610.73	19.68
610.923	19.59
611.117	19.48
611.31	19.44
611.504	19.48
611.697	19.39
611.89	19.37
612.083	19.29
612.277	19.27
612.47	19.14
612.663	19.07
612.856	18.92
613.05	18.9
613.243	18.81
613.436	18.68
613.629	18.6
613.822	18.58
614.015	18.48
614.209	18.39
614.402	18.33
614.595	18.26
614.788	18.16
614.981	18.12
615.174	18.07
615.367	18.07
615.56	18.01
615.753	18
615.946	17.92
616.139	17.94
616.332	17.94
616.525	17.88
616.718	17.87
616.911	17.83
617.103	17.72
617.296	17.61
617.489	17.56
617.682	17.5
617.875	17.45
618.067	17.4
618.26	17.32
618.453	17.32
618.646	17.24
618.838	17.25
619.031	17.25
619.224	17.27
619.417	17.21
619.609	17.2
619.802	17.08
619.994	17.05
620.187	17.01
620.38	17.04
620.572	16.96
620.765	16.96
620.957	16.89
621.15	16.81
621.342	16.68
621.535	16.77
621.727	16.74
621.92	16.71
622.112	16.68
622.305	16.72
622.497	16.66
622.69	16.63
622.882	16.51
623.074	16.55
623.267	16.46
623.459	16.32
623.651	16.26
623.844	16.29
624.036	16.27
624.228	16.25
624.42	16.28
624.613	16.31
624.805	16.26
624.997	16.19
625.189	16.13
625.381	16.12
625.574	16.11
625.766	16.08
625.958	16.03
626.15	16.06
626.342	16.03
626.534	15.95
626.726	16.04
626.918	16
627.11	15.94
627.302	15.91
627.494	15.89
627.686	15.79
627.878	15.76
628.07	15.67
628.262	15.63
628.454	15.55
628.646	15.5
628.838	15.5
629.029	15.4
629.221	15.26
629.413	15.23
629.605	15.16
629.797	15.05
629.989	15.17
630.18	15.17
630.372	15.13
630.564	15.08
630.755	15.05
630.947	15.01
631.139	14.96
631.33	14.86
631.522	14.94
631.714	14.9
631.905	14.79
632.097	14.8
632.289	14.9
632.48	14.81
632.672	14.76
632.863	14.67
633.055	14.64
633.246	14.56
633.438	14.44
633.629	14.45
633.821	14.45
634.012	14.4
634.203	14.35
634.395	14.34
634.586	14.35
634.777	14.28
634.969	14.2
635.16	14.22
635.351	14.26
635.543	14.13
635.734	14.13
635.925	14.12
636.117	14.07
636.308	13.94
636.499	13.95
636.69	13.86
636.881	13.8
637.073	13.76
637.264	13.72
637.455	13.68
637.646	13.73
637.837	13.68
638.028	13.56
638.219	13.59
638.41	13.5
638.601	13.43
638.792	13.41
638.983	13.32
639.174	13.21
639.365	13.21
639.556	13.17
639.747	13.11
639.938	13.16
640.129	13.13
640.32	13.01
640.511	12.97
640.701	12.98
640.892	12.92
641.083	12.93
641.274	12.92
641.465	12.85
641.655	12.77
641.846	12.72
642.037	12.64
642.228	12.71
642.418	12.71
642.609	12.58
642.8	12.52
642.99	12.46
643.181	12.25
643.372	12.14
643.562	12.15
643.753	12.08
643.943	11.99
644.134	11.97
644.324	11.99
644.515	11.92
644.705	11.94
644.896	11.97
645.086	11.93
645.277	11.84
645.467	11.78
645.658	11.68
645.848	11.66
646.038	11.66
646.229	11.6
646.419	11.56
646.61	11.51
646.8	11.43
646.99	11.39
647.18	11.44
647.371	11.41
647.561	11.36
647.751	11.32
647.941	11.23
648.132	11.16
648.322	11.17
648.512	11.23
648.702	11.18
648.892	11.13
649.082	11.14
649.272	11
649.462	10.89
649.653	10.84
649.843	10.87
650.033	10.79
650.223	10.77
650.413	10.71
650.603	10.68
650.793	10.54
650.983	10.45
651.172	10.32
651.362	10.33
651.552	10.34
651.742	10.3
651.932	10.3
652.122	10.34
652.312	10.29
652.502	10.12
652.691	10.1
652.881	10.09
653.071	10.12
653.261	10.01
653.45	9.99
653.64	9.98
653.83	9.9
654.019	9.9
654.209	10.01
654.399	10.03
654.588	9.94
654.778	9.92
654.968	9.81
655.157	9.66
655.347	9.65
655.536	9.58
655.726	9.48
655.915	9.35
656.105	9.27
656.294	9.17
656.484	8.95
656.673	8.89
656.863	8.91
657.052	8.76
657.241	8.57
657.431	8.58
657.62	8.39
657.809	8.18
657.999	8.11
658.188	8.01
658.377	8.03
658.567	7.93
658.756	7.91
658.945	7.78
659.134	7.7
659.324	7.56
659.513	7.55
659.702	7.32
659.891	7.29
660.08	7.19
660.269	7.09
660.458	7
660.648	7.01
660.837	6.91
661.026	6.8
661.215	6.74
661.404	6.52
661.593	6.48
661.782	6.38
661.971	6.38
662.16	6.37
662.349	6.35
662.538	6.21
662.726	6.19
662.915	6.06
663.104	5.93
663.293	5.9
663.482	5.88
663.671	5.82
663.86	5.69
664.048	5.49
664.237	5.46
664.426	5.32
664.615	5.26
664.803	5.32
664.992	5.39
665.181	5.35
665.369	5.27
665.558	5.21
665.747	5.09
665.935	5.05
666.124	5.02
666.312	5.11
666.501	5.14
666.69	5.12
666.878	5.11
667.067	5.04
667.255	5.02
667.444	5.09
667.632	5.18
667.82	5.16
668.009	5.16
668.197	5.16
668.386	5.03
668.574	5.08
668.762	5.09
668.951	5.08
669.139	5.03
669.327	5
669.516	4.88
669.704	4.92
669.892	4.98
670.08	5.06
670.269	5.08
670.457	5.1
670.645	5.07
670.833	5.07
671.021	5.03
671.21	5.09
671.398	5.24
671.586	5.26
671.774	5.31
671.962	5.31
672.15	5.17
672.338	5.11
672.526	5.19
672.714	5.1
672.902	5.16
673.09	5.36
673.278	5.46
673.466	5.47
673.654	5.73
673.842	5.72
674.03	5.76
674.218	5.76
674.405	5.76
674.593	5.78
674.781	5.85
674.969	5.82
675.157	5.93
675.344	5.96
675.532	5.86
675.72	5.9
675.908	5.95
676.095	5.84
676.283	5.96
676.471	6.15
676.658	6.27
676.846	6.35
677.033	6.46
677.221	6.41
677.409	6.42
677.596	6.45
677.784	6.54
677.971	6.56
678.159	6.69
678.346	6.68
678.534	6.67
678.721	6.73
678.909	6.79
679.096	6.89
679.283	7.06
679.471	7.21
679.658	7.35
679.846	7.55
680.033	7.66
680.22	7.67
680.408	7.7
680.595	7.77
680.782	7.79
680.969	7.81
681.157	7.73
681.344	7.77
681.531	7.78
681.718	7.77
681.905	7.86
682.093	7.97
682.28	8.15
682.467	8.24
682.654	8.35
682.841	8.36
683.028	8.67
683.215	8.86
683.402	8.86
683.589	9.13
683.776	9.31
683.963	9.33
684.15	9.43
684.337	9.58
684.524	9.57
684.711	9.76
684.898	9.92
685.085	9.96
685.271	10.34
685.458	10.68
685.645	10.91
685.832	11.25
686.019	11.64
686.205	11.71
686.392	11.84
686.579	12.07
686.766	12.17
686.952	12.39
687.139	12.74
687.326	12.9
687.512	13.2
687.699	13.59
687.886	13.84
688.072	14.23
688.259	14.81
688.445	15.1
688.632	15.28
688.818	15.76
689.005	16.03
689.191	16.39
689.378	16.97
689.564	17.64
689.751	17.87
689.937	18.51
690.124	18.84
690.31	19.11
690.496	19.53
690.683	20.22
690.869	20.59
691.055	21.2
691.242	21.98
691.428	22.41
691.614	22.91
691.8	23.52
691.987	24.02
692.173	24.48
692.359	25.17
692.545	25.76
692.731	26.21
692.918	26.75
693.104	27.27
693.29	27.86
693.476	28.34
693.662	29.08
693.848	29.75
694.034	30.25
694.22	30.7
694.406	31.64
694.592	32.2
694.778	32.76
694.964	33.64
695.15	34.24
695.336	34.7
695.522	35.43
695.708	36.14
695.894	36.69
696.08	37.55
696.265	37.84
696.451	38.29
696.637	38.98
696.823	39.44
697.009	40.02
697.194	40.82
697.38	41.51
697.566	42.04
697.751	42.48
697.937	42.98
698.123	43.74
698.308	44.43
698.494	45.12
698.68	45.94
698.865	46.63
699.051	47.23
699.236	47.95
699.422	48.26
699.607	48.73
699.793	49.29
699.978	49.66
700.164	49.81
700.349	50.56
700.535	51.31
700.72	51.77
700.906	52.17
701.091	52.73
701.276	53.3
701.462	53.81
701.647	54.49
701.832	55.33
702.018	55.93
702.203	56.4
702.388	57.04
702.573	57.51
702.759	57.91
702.944	57.95
703.129	58.17
703.314	58.34
703.499	58.73
703.684	59.35
703.87	60.31
704.055	61.08
704.24	61.43
704.425	61.57
704.61	61.7
704.795	61.86
704.98	61.84
705.165	62.5
705.35	63.11
705.535	63.38
705.72	64.32
705.905	64.69
706.09	65.12
706.275	65.1
706.459	65.38
706.644	65.09
706.829	65.7
707.014	65.79
707.199	66.21
707.384	66.81
707.568	67.5
707.753	68.05
707.938	68.42
708.123	68.9
708.307	68.96
708.492	69.09
708.677	68.91
708.861	68.67
709.046	68.66
709.231	69
709.415	69.05
709.6	69.69
709.784	69.97
709.969	70.62
710.153	70.9
710.338	71.55
710.522	71.39
710.707	72.24
710.891	72.29
711.076	72.67
711.26	72.22
711.445	72.75
711.629	72.7
711.813	73.24
711.998	73.16
712.182	73.44
712.366	73.47
712.551	73.8
712.735	73.5
712.919	73.95
713.103	74.38
713.288	74.48
713.472	74.19
713.656	74.62
713.84	74.74
714.024	74.89
714.208	75.11
714.393	75.99
714.577	76.24
714.761	76.2
714.945	76.51
715.129	76.36
715.313	75.9
715.497	75.97
715.681	76.14
715.865	76.52
716.049	77.06
716.233	77.4
716.417	77.67
716.601	77.91
716.785	77.54
716.968	77.7
717.152	77.76
717.336	77.67
717.52	77.32
717.704	77.9
717.888	77.96
718.071	78.07
718.255	78.27
718.439	78.83
718.622	78.8
718.806	78.89
718.99	78.71
719.174	78.82
719.357	79.24
719.541	78.86
719.724	79.31
719.908	80.25
720.092	80.92
720.275	81.06
720.459	81.83
720.642	81.48
720.826	81.68
721.009	81.18
721.193	80.71
721.376	80.34
721.559	81.05
721.743	80.46
721.926	80.53
722.11	80.61
722.293	80.93
722.476	80.55
722.66	80.83
722.843	80.92
723.026	81.47
723.21	81.33
723.393	81.69
723.576	82.3
723.759	81.81
723.942	82.08
724.126	81.93
724.309	82.05
724.492	81.93
724.675	83.26
724.858	83.1
725.041	84.52
725.224	84.73
725.407	84.62
725.59	84.31
725.774	84.7
725.957	84.07
726.14	83.91
726.322	83.99
726.505	83.99
726.688	84.24
726.871	84.12
727.054	84.56
727.237	85.39
727.42	85.74
727.603	85.45
727.786	85.29
727.968	85.17
728.151	84.33
728.334	84.53
728.517	84.49
728.699	85.09
728.882	85.07
729.065	86.22
729.248	85.87
729.43	86.13
729.613	87.31
729.796	87.31
729.978	85.7
730.161	85.99
730.343	86.48
730.526	86.05
730.708	86.21
730.891	87.91
731.073	87.73
731.256	87.44
731.438	87.95
731.621	88.29
731.803	88.48
731.986	89.67
732.168	89.45
732.35	89.24
732.533	89.52
732.715	88.77
732.898	88.06
733.08	89.21
733.262	88.7
733.444	88.69
733.627	88.51
733.809	89.2
733.991	89.29
734.173	89.92
734.355	90.54
734.538	90.9
734.72	90.2
734.902	90.59
735.084	90.53
735.266	90.06
735.448	90.31
735.63	90.81
735.812	90.55
735.994	89.78
736.176	89.76
736.358	89.54
736.54	90.06
736.722	90.09
736.904	91.32
737.086	91.47
737.268	93.27
737.45	93.59
737.632	93.76
737.814	92.03
737.995	92.38
738.177	91.68
738.359	91.38
738.541	91.53
738.723	93.22
738.904	93.15
739.086	92.89
739.268	92.86
739.449	92.88
739.631	93.61
739.813	93.07
739.994	94.07
740.176	94.68
740.358	94.95
740.539	93.78
740.721	93.89
740.902	93.8
741.084	93.35
741.265	92.03
741.447	92.72
741.628	93.01
741.81	90.92
741.991	91.67
742.172	92.59
742.354	92.36
742.535	93.38
742.717	95.87
742.898	94.74
743.079	95.22
743.261	95.09
743.442	93.83
743.623	92.7
743.804	93.4
743.986	93.25
744.167	93.52
744.348	95.36
744.529	96.03
744.71	96.04
744.891	96.24
745.073	95.63
745.254	94.13
745.435	94.57
745.616	93.51
745.797	93.14
745.978	93.39
746.159	93.12
746.34	92.19
746.521	92.03
746.702	91.83
746.883	92.23
747.064	91.38
747.245	91.91
747.426	92.86
747.606	92.94
747.787	93.3
747.968	95.34
748.149	94.99
748.33	95.56
748.51	94.53
748.691	92.84
748.872	92.67
749.053	92.79
749.233	92.6
749.414	93.24
749.595	93.54
749.775	93.78
749.956	93.12
750.137	91.93
750.317	92.51
750.498	94.23
750.678	93.99
750.859	94.72
751.04	95.58
751.22	94.63
751.4	93.45
751.581	93.8
751.761	93.51
751.942	93.25
752.122	94.72
752.303	94.07
752.483	93.33
752.663	93.81
752.844	94.74
753.024	93.67
753.204	95.51
753.385	94.96
753.565	93.14
753.745	92.08
753.925	93.47
754.106	93.41
754.286	93.96
754.466	93.89
754.646	96.15
754.826	95.18
755.006	94.26
755.187	95.16
755.367	97.02
755.547	95.41
755.727	96.86
755.907	96.07
756.087	96.66
756.267	95.74
756.447	95.05
756.627	94.44
756.807	95.98
756.987	94.61
757.167	95.29
757.346	94.67
757.526	92.35
757.706	92.03
757.886	91.87
758.066	91.95
758.246	94.6
758.425	96.86
758.605	96.63
758.785	96.31
758.965	96.43
759.144	92.58
759.324	92.15
759.504	92.26
759.683	92.13
759.863	91.77
760.043	94.13
760.222	94.24
760.402	92.95
760.581	94.49
760.761	93.52
760.94	91.64
761.12	89.78
761.299	91.21
761.479	90.01
761.658	90.09
761.838	91.25
762.017	93.08
762.197	92.16
762.376	92.7
762.555	93.91
762.735	94.57
762.914	92.73
763.093	93.25
763.273	91.03
763.452	91.73
763.631	90.63
763.81	90.08
763.99	88.42
764.169	89.96
764.348	87.72
764.527	87.98
764.706	89.91
764.885	92.72
765.064	92.4
765.243	92.41
765.423	92.8
765.602	93.59
765.781	91.01
765.96	88.19
766.139	88.91
766.318	88.25
766.497	87.88
766.676	88.83
766.854	91.39
767.033	90.17
767.212	90.49
767.391	89.29
767.57	89.93
767.749	90.29
767.928	90.67
768.106	88.78
768.285	88.54
768.464	89.3
768.643	89.46
768.821	91.67
769	92.62
769.179	93.45
769.357	89.97
769.536	88.95
769.715	89.4
769.893	89.21
770.072	88.17
770.25	87.37
770.429	87.92
770.607	85.68
770.786	87.36
770.964	86.94
771.143	90.82
771.321	92.26
771.5	92.71
771.678	91.63
771.857	90.91
772.035	91.38
772.213	88.95
772.392	86.69
772.57	87.76
772.748	90.93
772.927	86.86
773.105	86.51
773.283	88.85
773.461	89.86
773.64	87.56
773.818	88.98
773.996	90.78
774.174	90.86
774.352	87.72
774.531	87.45
774.709	89.15
774.887	89.16
775.065	88.38
775.243	88.65
775.421	90.16
775.599	91.33
775.777	90.1
775.955	89.03
776.133	89.15
776.311	87.79
776.489	86.38
776.667	86.71
776.844	88.65
777.022	86.39
777.2	87.18
777.378	85.43
777.556	86.35
777.734	86.42
777.911	89.12
778.089	87.52
778.267	89.94
778.445	88.87
778.622	86.86
778.8	86.82
778.978	88.4
779.155	86.5
779.333	85.8
779.511	83.05
779.688	83.63
779.866	79
780.043	77.71
780.221	77.91
780.398	78.61
780.576	75.87
780.753	80.85
780.931	82
781.108	80.68
781.286	84.46
781.463	84.21
781.64	82.8
781.818	84.6
781.995	87.21
782.172	84.59
782.35	86.79
782.527	85.05
782.704	83.26
782.882	83.72
783.059	85.72
783.236	84.98
783.413	88.93
783.59	89.16
783.768	85.51
783.945	84.7
784.122	85.23
784.299	83.4
784.476	83.5
784.653	87.27
784.83	84.9
785.007	79.91
785.184	80.9
785.361	80.23
785.538	81.87
785.715	81.15
785.892	86.05
786.069	86.48
786.246	87.74
786.423	84.89
786.6	88.21
786.776	89.15
786.953	87.8
787.13	87.42
787.307	86.31
787.484	88.64
787.66	86.01
787.837	84.14
788.014	83.49
788.191	82.32
788.367	80.29
788.544	82.69
788.721	82.31
788.897	82.95
789.074	84.72
789.25	83.08
789.427	82.91
789.603	83.9
789.78	86.59
789.956	77.99
790.133	78.23
790.309	76.01
790.486	77.32
790.662	74.83
790.839	79.7
791.015	80.75
791.192	80.48
791.368	80.77
791.544	79.31
791.721	82.45
791.897	81.51
792.073	82.87
792.249	82.37
792.426	83.35
792.602	81.37
792.778	77.51
792.954	75.63
793.13	73.87
793.307	71.5
793.483	71.05
793.659	75.05
793.835	76.91
794.011	79.31
794.187	74.15
794.363	71.58
794.539	74.95
794.715	71.16
794.891	70.92
795.067	73.36
795.243	83.66
795.419	79.53
795.595	80.99
795.771	79.07
795.947	83.41
796.122	71.67
796.298	73.55
796.474	79.42
796.65	77.28
796.826	75.53
797.001	81.6
797.177	77.17
797.353	75.25
797.529	77.62
797.704	75.34
797.88	73.98
798.056	73.89
798.231	73.61
798.407	76.44
798.582	80.87
798.758	83.27
798.934	88.38
799.109	85.44
799.285	83.61
799.46	89.38
799.636	87.8
799.811	87.99
799.986	90.26
800.162	98.1
800.337	87.65
800.513	85.32
800.688	79.42
800.863	79.86
801.039	68.91
801.214	72.26
801.389	80.01
801.565	82.96
801.74	82.09
801.915	85.12
802.09	84.53
802.265	77.98
802.441	70.59
802.616	67.71
802.791	70.97
802.966	71.62
803.141	77.63
803.316	77.65
803.491	81.68
803.666	78.96
803.841	79.09
804.016	74.83
804.191	84.84
804.366	80.84
804.541	82.28
804.716	76.4
804.891	75.83
805.066	74.17
805.241	77.81
805.416	79.07
805.591	82.02
805.765	81.1
805.94	84.02
806.115	81.08
806.29	75.37
806.464	82.11
806.639	79.55
806.814	66.25
806.989	58.2
807.163	61.45
807.338	55.74
807.512	59.93
807.687	66.12
807.862	70.62
808.036	68.72
808.211	70.56
808.385	65.87
808.56	69.16
808.734	73.89
808.909	74.32
809.083	69.49
809.258	78.01
809.432	76.3
809.606	62.64
809.781	67.92
809.955	77.39
810.13	72.34
810.304	67.74
810.478	76.04
810.652	77.48
810.827	74.77
811.001	77.91
811.175	81.12
811.349	80.89
811.524	69.51
811.698	65.12
811.872	62.25
812.046	60.67
812.22	64.08
812.394	68.16
812.568	65.55
812.742	65.86
812.916	61.79
813.09	64.72
813.264	69.3
813.438	75.41
813.612	78.45
813.786	73.12
813.96	70.23
814.134	72.24
814.308	74.26
814.482	70.82
814.656	86.45
814.83	90.47
815.003	87.72
815.177	82.07
815.351	83.87
815.525	89.92
815.698	86.8
815.872	77.59
816.046	70.02
816.219	64.44
816.393	66.19
816.567	66.13
816.74	72.11
816.914	83.05
817.088	84.27
817.261	74.36
817.435	66.4
817.608	62.15
817.782	61.1
817.955	68.22
818.129	60.26
818.302	64.88
818.475	73.45
818.649	73.25
818.822	62.51
818.996	66.62
819.169	69
819.342	61.28
819.516	55.78
819.689	69.03
819.862	73.99
820.035	65.84
820.209	55.95
820.382	59.92
820.555	60.8
820.728	52.76
820.901	54.66
821.075	76.05
821.248	91.48
821.421	79.94
821.594	72.88
821.767	88.61
821.94	96.01
822.113	72.3
822.286	76.46
822.459	98.89
822.632	91.73
822.805	83.13
822.978	91.37
823.151	89.81
823.324	75.35
823.496	52.39
823.669	48.47
823.842	51.76
824.015	43.36
824.188	33.83
824.361	33.91
824.533	33.86
824.706	47.94
824.879	55.24
825.051	79.44
825.224	86.03
825.397	78.34
825.569	59.2
825.742	59.65
825.915	61.93
826.087	60.51
826.26	50.9
826.432	57.88
826.605	66.11
826.777	74.48
826.95	70
827.122	73.09
827.295	75.08
827.467	74.83
827.64	48.26
827.812	47
827.984	49.77
828.157	41.05
828.329	34.99
828.501	43.75
828.674	52.44
828.846	54.53
829.018	58.45
829.19	57.18
829.363	61.47
829.535	59.62
829.707	68.47
829.879	56.27
830.051	53.24
830.223	65.29
830.395	51.51
830.568	38.56
830.74	46.66
830.912	55.69
831.084	31.15
831.256	32.31
831.428	31.18
831.6	27.13
831.772	16.51
831.943	30.78
832.115	51.92
832.287	65.07
832.459	66.94
832.631	70.64
832.803	73.88
832.975	61.46
833.146	64.07
833.318	65.07
833.49	67.6
833.662	69.63
833.833	60.42
834.005	43.74
834.177	50.75
834.348	47.61
834.52	28.99
834.692	39.1
834.863	43.71
835.035	38.92
835.206	30.65
835.378	53.46
835.549	45.26
835.721	56.11
835.892	48.89
836.064	55.4
836.235	41.43
836.407	69.93
836.578	53.18
836.749	66.62
836.921	79.38
837.092	60.38
837.264	15.32
837.435	4.96
837.606	1.49
837.777	16.75
837.949	32.02
838.12	36.24
838.291	53.4
838.462	62.9
838.633	48.96
838.805	45.53
838.976	56.63
839.147	59.98
839.318	36.14
839.489	14.13
839.66	19.12
839.831	36.71
840.002	27.12
840.173	18.93
840.344	22.73
840.515	31.24
840.686	20.02
840.857	11.21
841.028	31.17
841.199	71.04
841.369	49.54
841.54	32.81
841.711	62.81
841.882	58.17
842.053	34.33
842.223	26.26
842.394	50.44
842.565	43.47
842.736	60.06
842.906	63.24
843.077	86.22
843.248	72.25
843.418	49
843.589	52.68
843.759	68.45
843.93	51.01
844.101	54.12
844.271	66.17
844.442	80.14
844.612	75.57
844.783	62.66
844.953	45.05
845.123	63.46
845.294	35.72
845.464	26.55
845.635	37.57
845.805	53.38
845.975	37.73
846.146	20.79
846.316	15.79
846.486	28.35
846.656	25.86
846.827	24.14
846.997	38.87
847.167	63.57
847.337	38.25
847.507	28.27
847.677	26.54
847.848	36.02
848.018	51.8
848.188	68.98
848.358	57.54
848.528	65.42
848.698	62.19
848.868	13.8
849.038	4.25
849.208	34.1
849.378	32.04
849.548	12.81
849.718	61.21
849.887	79.77
850.057	4.56
850.227	-5.11
850.397	0.28
850.567	-0.43
850.737	2.35
850.906	-5.09
851.076	-24.71
851.246	-28.74
851.415	-20.19
851.585	2.18
851.755	25.66
851.924	68.34
852.094	61.05
852.264	50.59
852.433	25.99
852.603	43.18
852.772	29.22
852.942	26.54
853.111	11.07
853.281	39.9
853.45	28.72
853.62	3.35
853.789	-14.21
853.959	17.65
854.128	9.08
854.297	-30.3
854.467	-9.89
854.636	7.11
854.805	2.07
854.975	-11.5
855.144	17.76
855.313	45.85
855.482	39.08
855.652	34.8
855.821	35.14
855.99	79.94
856.159	47.03
856.328	61.42
856.497	52.81
856.667	54.22
856.836	3.4
857.005	-36.06
857.174	-95.8
857.343	-101.18
857.512	-66.8
857.681	-89.58
857.85	-44.81
858.019	-11.19
858.188	-1.97
858.356	-35.1
858.525	-20.12
858.694	-22.78
858.863	-18.48
859.032	-28.93
859.201	9.01
859.369	24.26
859.538	52.71
859.707	31.69
859.876	17.82
860.044	16.1
860.213	20.35
860.382	-8.44
860.55	18.81
860.719	57.04
860.888	34.43
861.056	18.65
861.225	16.53
861.393	67.39
861.562	92.96
861.73	69.17
861.899	73.93
862.067	67.05
862.236	71.79
862.404	27.98
862.572	17.53
862.741	20.11
862.909	1.44
863.078	-33.72
863.246	-40.06
863.414	-27.51
863.582	-66.55
863.751	-29.86
863.919	-42.22
864.087	7.74
864.255	6.07
864.424	-20.79
864.592	-14.41
864.76	0.44
864.928	-22.77
865.096	-26.57
865.264	-11.59
865.432	-5.28
865.6	1.29
865.768	-55.09
865.936	-83.04
866.104	-35.35
866.272	-4.12
866.44	-40.47
866.608	-26.68
866.776	-45.49
866.944	-141.92
867.112	-199.59
867.28	-261.74
867.448	-505.71
867.615	-241.94
867.783	-9.36
867.951	-53.89
868.119	-63.75
868.286	-41.75
868.454	-36.06
868.622	-90.35
868.789	-70.29
868.957	21.94
869.125	1.35
869.292	0.84
869.46	11.94
869.627	31.89
869.795	-13.27
869.963	-2.5
870.13	21.08
870.298	38.88
870.465	-2.89
870.632	0.29
870.8	4.83
870.967	3.73
871.135	-59.88
871.302	-5.68
871.469	77.38
871.637	45.44
871.804	52.81
871.971	31.08
872.139	16.35
872.306	7.94
872.473	1.21
872.64	-35.55
872.807	-0.82
872.975	29.25
873.142	15.32
873.309	47.1
873.476	97.79
873.643	98.09
873.81	91.31
873.977	73.04
874.144	63.08
874.311	63.64
874.478	11.84
874.645	-16.56
874.812	-142.16
874.979	6904.76
875.146	-200.42
875.313	-38.41
875.48	10.52
875.647	30.29
875.813	3
875.98	-20.41
876.147	-36.19
876.314	-39.74
876.481	-89.31
876.647	-97.83
876.814	-27.54
876.981	-4.24
877.147	-62.59
877.314	-39.71
877.481	9.64
877.647	-22.16
877.814	-98.94
877.98	-39.11
878.147	15.6
878.314	-6.42
878.48	-49.87
878.647	-20.23
878.813	49.61
878.979	42.94
879.146	41.48
879.312	73.57
879.479	86.18
879.645	71.8
879.811	44.27
879.978	89.92
880.144	95.29
880.31	95.35
880.477	17.29
880.643	4.57
880.809	2.12
880.975	-5.01
881.142	-24.7
881.308	8.37
881.474	43.39
881.64	25.31
881.806	-1.63
881.972	23.26
882.138	16.94
882.304	32.82
882.47	13.35
882.636	-5.73
882.802	-26.49
882.968	0.82
883.134	-88.48
883.3	-144.68
883.466	3.83
883.632	-1.48
883.798	-41.74
883.964	-27.91
884.129	-26.2
884.295	-53.04
884.461	-45.26
884.627	-55.13
884.793	-35.91
884.958	9.74
885.124	-17.68
885.29	-42.49
885.455	-11.17
885.621	-1.76
885.787	-118.82
885.952	-40.72
886.118	13.06
886.283	34.68
886.449	-2.17
886.614	-2.6
886.78	-10
886.945	-44.22
887.111	-149.21
887.276	-168.14
887.442	-352.75
887.607	-190.82
887.773	-172.06
887.938	-67.87
888.103	-45.01
888.269	-4.61
888.434	-3.43
888.599	-34.3
888.764	2.31
888.93	32.35
889.095	20.32
889.26	1.69
889.425	73.2
889.59	74.7
889.756	55.07
889.921	57.33
890.086	89.77
890.251	80.98
890.416	27.16
890.581	8.7
890.746	7.75
890.911	6.04
891.076	-23.16
891.241	-31
891.406	-40.51
891.571	29.6
891.736	-4.75
891.901	-18.95
892.065	4.9
892.23	24.73
892.395	-18.25
892.56	-24.76
892.725	21.86
892.889	5.97
893.054	-59.39
893.219	-109.04
893.384	-120.94
893.548	-167.85
893.713	-210.02
893.878	-189.54
