Data from Ofra_PP_Phys_9GT47Q_Reflection_2.txt Node
Date: Sat Jul 24 20:13:15 EDT 2021
User: USUARIO
Spectrometer: FLMT01687
Trigger mode: 0
Integration Time (sec): 1.100000E0
Scans to average: 2
Electric dark correction enabled: true
Nonlinearity correction enabled: false
Boxcar width: 2
XAxis mode: Wavelengths
Number of Pixels in Spectrum: 3648
>>>>>Begin Spectral Data<<<<<
179.494	736.08
179.716	954.56
179.937	1643.21
180.158	1437.95
180.38	728.42
180.601	-884.63
180.823	-20.39
181.044	1058.91
181.265	-60.93
181.486	16.42
181.708	-24.16
181.929	-781.33
182.15	-145.38
182.372	-119.69
182.593	61266.67
182.814	739.49
183.035	197.42
183.257	163.1
183.478	82.84
183.699	139.69
183.92	83.63
184.141	109.81
184.363	5.92
184.584	101.82
184.805	81.32
185.026	97.38
185.247	108.51
185.468	74.75
185.689	48.11
185.91	59.07
186.132	52.44
186.353	26.62
186.574	79.22
186.795	108.91
187.016	27.27
187.237	53.5
187.458	72.31
187.679	116.17
187.9	71.81
188.121	119.74
188.342	134.22
188.563	124.76
188.784	125.84
189.005	162.54
189.226	156.23
189.447	133.72
189.667	109.98
189.888	56.48
190.109	7.75
190.33	-31.73
190.551	-57.73
190.772	-54.71
190.993	-67
191.214	-48.7
191.434	-41.47
191.655	43
191.876	15.06
192.097	14.98
192.318	10.36
192.538	-10.02
192.759	-52.21
192.98	-23.71
193.201	-9.36
193.421	-55.34
193.642	-16.9
193.863	-2.69
194.083	-18.72
194.304	-0.92
194.525	52.09
194.745	77.75
194.966	35.31
195.187	10.37
195.407	-60.57
195.628	-152.62
195.848	-165.3
196.069	-219.74
196.29	-178.14
196.51	-222.54
196.731	-208.62
196.951	-177.33
197.172	-116.03
197.392	-113.35
197.613	-60.34
197.833	-53.38
198.054	-96.16
198.274	-75.66
198.495	-131.1
198.715	-56.93
198.936	-89.95
199.156	-32.08
199.377	-53.23
199.597	-48.39
199.817	-59.68
200.038	10.28
200.258	19.92
200.479	73.29
200.699	74.78
200.919	56.26
201.14	-7.63
201.36	-17.78
201.58	-39.98
201.801	-17.1
202.021	-32.27
202.241	17.95
202.461	-23.81
202.682	-32.02
202.902	-24.18
203.122	-21.01
203.342	-15.79
203.563	29.9
203.783	48.55
204.003	-19.6
204.223	-77.21
204.443	23.5
204.663	-4.86
204.884	-34.48
205.104	36.41
205.324	89.38
205.544	64.43
205.764	70.53
205.984	105.37
206.204	115.57
206.424	129.51
206.644	69.83
206.864	66.04
207.084	25.95
207.304	25.24
207.525	-46.95
207.745	-8.38
207.964	-28.75
208.184	-14.4
208.404	-32.23
208.624	-12.6
208.844	6.59
209.064	-38.35
209.284	-37.16
209.504	-23.1
209.724	3.62
209.944	-27.91
210.164	28.67
210.384	45.05
210.604	68.38
210.823	-2.24
211.043	-44.84
211.263	-34.85
211.483	-74.13
211.703	-107.11
211.922	-50.57
212.142	34.87
212.362	42.04
212.582	35.38
212.801	41.91
213.021	3.84
213.241	-7.84
213.461	-43.69
213.68	-71.86
213.9	-73.18
214.12	-39.4
214.339	-90.59
214.559	-67.19
214.779	-13.92
214.998	8.24
215.218	-6.02
215.438	33.57
215.657	9.13
215.877	23.37
216.096	22.96
216.316	45.51
216.535	31.05
216.755	45.98
216.974	35.87
217.194	47.73
217.413	34.31
217.633	17.6
217.852	-25
218.072	-32.67
218.291	-64.63
218.511	-30.89
218.73	-72.62
218.95	-73.27
219.169	-71.8
219.389	-89.3
219.608	-117.1
219.827	-34.87
220.047	-7.33
220.266	-13.94
220.485	-14.71
220.705	11.7
220.924	-57.16
221.143	-6.53
221.363	-67.62
221.582	-11.67
221.801	8.27
222.021	51.62
222.24	23.97
222.459	83.96
222.678	57.89
222.897	10.98
223.117	4.34
223.336	-14.37
223.555	11.95
223.774	47.79
223.993	101.4
224.213	185.02
224.432	123.2
224.651	153.16
224.87	103.9
225.089	86.42
225.308	63.25
225.527	92.21
225.746	71.77
225.965	52.72
226.184	53.86
226.404	66.47
226.623	39.9
226.842	42.73
227.061	93.4
227.28	94.71
227.499	88.93
227.718	125.42
227.936	112.44
228.155	110.62
228.374	52.67
228.593	37.17
228.812	11.01
229.031	25.7
229.25	-24.4
229.469	33.07
229.688	37.18
229.907	47.17
230.125	49.34
230.344	62.21
230.563	42.37
230.782	69.52
231.001	21.66
231.22	10.01
231.438	31.21
231.657	59.41
231.876	40.15
232.095	71.97
232.313	89.4
232.532	71.27
232.751	51.9
232.969	36.94
233.188	24.23
233.407	4.24
233.625	-16.88
233.844	-12.95
234.063	-10.85
234.281	33.27
234.5	58.62
234.719	88.31
234.937	63.77
235.156	66.91
235.374	63.02
235.593	70.18
235.811	55.96
236.03	75.3
236.249	48.3
236.467	65.47
236.686	37.29
236.904	59.21
237.123	-36.63
237.341	-8.31
237.559	-49.74
237.778	-33.17
237.996	-61.86
238.215	15.3
238.433	13.8
238.652	44.55
238.87	-23.2
239.088	19.63
239.307	13.66
239.525	9.34
239.743	-42.47
239.962	6.94
240.18	-40.14
240.398	-87.66
240.617	-98.21
240.835	-40.19
241.053	-70.82
241.271	9.64
241.49	34.87
241.708	30.67
241.926	28.72
242.144	62.02
242.363	17.69
242.581	20.24
242.799	34.42
243.017	36.51
243.235	-21.51
243.453	16.4
243.672	-24.58
243.89	-13.38
244.108	-15.42
244.326	28.94
244.544	23.02
244.762	17.11
244.98	23.14
245.198	46.41
245.416	11.3
245.634	3.61
245.852	37.96
246.07	36.13
246.288	20.21
246.506	19.69
246.724	46.26
246.942	41.17
247.16	57.76
247.378	66.63
247.596	85.07
247.814	81.27
248.032	37.64
248.25	25.97
248.468	12.77
248.685	34.8
248.903	42.55
249.121	69.16
249.339	22.52
249.557	31.94
249.775	-0.43
249.992	-94.87
250.21	-108.52
250.428	-64.96
250.646	-72.66
250.863	-70.06
251.081	-35.32
251.299	2.17
251.517	-2.07
251.734	-4.31
251.952	5.17
252.17	22.69
252.387	30.08
252.605	13.18
252.823	27.68
253.04	43.25
253.258	51.17
253.475	44.4
253.693	78.38
253.911	88.05
254.128	84.98
254.346	84.25
254.563	61.56
254.781	24.1
254.998	3.38
255.216	-2.26
255.433	-2.61
255.651	37.87
255.868	64.57
256.086	87.99
256.303	87.47
256.521	79.88
256.738	32.56
256.956	2.76
257.173	-3.13
257.39	-14.57
257.608	-5.23
257.825	15.28
258.043	37.53
258.26	37.4
258.477	39.87
258.695	55.28
258.912	13.42
259.129	6.68
259.346	-39.44
259.564	-33.47
259.781	-24.31
259.998	7.48
260.216	33.69
260.433	66.04
260.65	49.57
260.867	64.24
261.084	36.65
261.302	19.79
261.519	30.89
261.736	3.02
261.953	-31.62
262.17	-4.62
262.387	-3.74
262.604	-27.29
262.822	-16.8
263.039	-19.56
263.256	-42.91
263.473	-38.42
263.69	-70.03
263.907	-27.65
264.124	-4.03
264.341	35.4
264.558	28.17
264.775	47.79
264.992	64.43
265.209	57.69
265.426	42.51
265.643	41.83
265.86	58.98
266.077	56.44
266.294	39.04
266.51	34.19
266.727	26.64
266.944	42.46
267.161	7.56
267.378	34.15
267.595	41.1
267.812	-1.38
268.028	-15.43
268.245	28.53
268.462	-4.83
268.679	-9.94
268.896	59.7
269.112	58.68
269.329	30.08
269.546	51.39
269.763	56.63
269.979	45.57
270.196	23.55
270.413	28.25
270.629	1.1
270.846	-20.54
271.063	3.94
271.279	-21.73
271.496	-50.03
271.712	-47.21
271.929	-15.72
272.146	-12.37
272.362	20.87
272.579	77.4
272.795	83.3
273.012	104.86
273.228	82.17
273.445	58.01
273.661	-2.56
273.878	-85.47
274.094	-96.65
274.311	-122.02
274.527	-61.98
274.744	-35.52
274.96	36.9
275.177	35.01
275.393	49.36
275.609	51.37
275.826	68.38
276.042	58.9
276.259	63.18
276.475	51.95
276.691	57.68
276.908	39.76
277.124	63.54
277.34	48.02
277.557	53.08
277.773	48.18
277.989	39.83
278.205	31.87
278.422	44.78
278.638	60.03
278.854	57.51
279.07	54.37
279.286	15.36
279.503	-0.8
279.719	-12.34
279.935	-22.52
280.151	-26.07
280.367	26.44
280.583	36.64
280.799	19.12
281.016	24.25
281.232	38.34
281.448	39.02
281.664	53.13
281.88	50.9
282.096	43.01
282.312	61.91
282.528	69.51
282.744	69.52
282.96	79.84
283.176	84.28
283.392	65.16
283.608	52.14
283.824	25.19
284.04	14.22
284.256	38.62
284.471	40.08
284.687	32.66
284.903	50.94
285.119	90.02
285.335	33.98
285.551	33.72
285.767	25.54
285.982	16.87
286.198	-23.92
286.414	23.64
286.63	32.86
286.846	56.75
287.061	21.01
287.277	48.17
287.493	45.96
287.709	38.64
287.924	20.62
288.14	66.87
288.356	73.91
288.571	84.37
288.787	78.12
289.003	94.64
289.218	66.85
289.434	-8.54
289.65	3.3
289.865	18.09
290.081	19.45
290.296	28.84
290.512	29.85
290.727	18.69
290.943	0.76
291.159	-15.86
291.374	-9.46
291.59	-4.53
291.805	-12.29
292.021	-4.82
292.236	-2.28
292.451	-13.42
292.667	-1.53
292.882	14
293.098	33.93
293.313	19.12
293.529	15.14
293.744	-19.12
293.959	-51.14
294.175	-50.98
294.39	-16.82
294.605	4.36
294.821	42.91
295.036	51.97
295.251	65.59
295.467	45.86
295.682	40.5
295.897	10.84
296.112	-8.18
296.328	-31.61
296.543	-33.47
296.758	-46.76
296.973	15
297.188	75.73
297.404	42.57
297.619	50.58
297.834	33.72
298.049	15.16
298.264	-18.93
298.479	23.36
298.694	22.63
298.909	36.71
299.125	30.92
299.34	51.33
299.555	28.36
299.77	43.35
299.985	-20.63
300.2	-51.58
300.415	-78.3
300.63	-39.66
300.845	-55.13
301.06	-28.82
301.275	3.74
301.49	13.06
301.704	4.32
301.919	-31.06
302.134	-53.39
302.349	-19.17
302.564	-40.8
302.779	-36.29
302.994	31.93
303.209	42.42
303.423	34
303.638	76.37
303.853	64.87
304.068	25.24
304.283	34
304.497	21.99
304.712	24.24
304.927	18.5
305.142	9.52
305.356	16.72
305.571	33.76
305.786	21.83
306	24.51
306.215	53.09
306.43	26.07
306.644	26.78
306.859	37.22
307.074	25.79
307.288	-6.62
307.503	9.49
307.717	-19.66
307.932	-22.05
308.147	-20.35
308.361	14.99
308.576	-13.12
308.79	-56.2
309.005	-41.03
309.219	-20.94
309.434	-14.7
309.648	-19.72
309.863	30.58
310.077	35.36
310.292	18.38
310.506	-6.05
310.72	37.39
310.935	61.96
311.149	43.43
311.364	65.38
311.578	97.42
311.792	76.57
312.007	69.81
312.221	34.21
312.435	34.95
312.649	-16.63
312.864	36.88
313.078	15.75
313.292	72.71
313.507	61.57
313.721	71.43
313.935	57.46
314.149	73.05
314.363	46.33
314.578	27.1
314.792	16.98
315.006	20.27
315.22	15.71
315.434	28.58
315.648	43.69
315.862	35.17
316.077	38.9
316.291	36.43
316.505	29.77
316.719	36.16
316.933	5.76
317.147	14.61
317.361	-34.76
317.575	-22.78
317.789	-47.37
318.003	-35.82
318.217	-27.11
318.431	23.15
318.645	31.79
318.859	30.84
319.073	61.05
319.287	37.64
319.5	-9.08
319.714	-48.54
319.928	-54.05
320.142	-73.25
320.356	-4.39
320.57	28.86
320.784	31.85
320.997	50.07
321.211	45.96
321.425	-15.41
321.639	-58.32
321.853	-16.91
322.066	-17.5
322.28	-32.42
322.494	2.69
322.707	68.35
322.921	35.39
323.135	27.16
323.349	48.7
323.562	17.83
323.776	-26.9
323.989	-6.29
324.203	-15.81
324.417	-21.39
324.63	-31.41
324.844	-36.85
325.057	-51.86
325.271	-51.98
325.485	-33.57
325.698	11.1
325.912	36.24
326.125	18.37
326.339	43.07
326.552	32.55
326.766	31.11
326.979	31.15
327.193	66.38
327.406	48.14
327.619	49.31
327.833	61.63
328.046	43.1
328.26	20.78
328.473	20.6
328.686	0.02
328.9	-9.84
329.113	-4.28
329.326	-15.5
329.54	-10.9
329.753	-7.73
329.966	-16.69
330.179	18.34
330.393	35.85
330.606	36.63
330.819	58.1
331.032	66.55
331.246	70.32
331.459	89.15
331.672	56.85
331.885	20.58
332.098	-2.88
332.311	9.91
332.525	-14.2
332.738	15.94
332.951	40.68
333.164	55.56
333.377	51.31
333.59	80.93
333.803	62.63
334.016	57.9
334.229	50.01
334.442	48.97
334.655	60.09
334.868	62.1
335.081	50.2
335.294	41.01
335.507	32.24
335.72	16.84
335.933	2.88
336.146	13.17
336.359	31.62
336.572	13.37
336.785	3.98
336.997	15.59
337.21	26.69
337.423	16.8
337.636	29.05
337.849	40.95
338.062	42.91
338.274	53.38
338.487	34.54
338.7	44.2
338.913	11.39
339.125	-11.1
339.338	-22.01
339.551	-5.28
339.763	12.54
339.976	30.55
340.189	55.71
340.402	56.32
340.614	44.67
340.827	20.96
341.039	11.33
341.252	-20.91
341.465	-13.52
341.677	-30.28
341.89	-70.67
342.102	-41.55
342.315	-17.39
342.527	-38.49
342.74	-25.04
342.952	39.33
343.165	37.9
343.377	61.78
343.59	57.23
343.802	89.38
344.015	83.6
344.227	102.88
344.44	74.31
344.652	54.27
344.864	33.2
345.077	44.78
345.289	29.98
345.502	57.63
345.714	73.53
345.926	74.36
346.139	57.82
346.351	57.16
346.563	49.49
346.775	61.59
346.988	50.26
347.2	47.81
347.412	17.8
347.624	6.02
347.837	1.51
348.049	18.31
348.261	38.61
348.473	36.21
348.685	2.03
348.897	-12.32
349.11	-19.01
349.322	-27.16
349.534	9.05
349.746	43.42
349.958	58.91
350.17	51.88
350.382	55.45
350.594	52.37
350.806	55.99
351.018	40.57
351.23	41.79
351.442	34.62
351.654	38.88
351.866	34.83
352.078	46.52
352.29	61.09
352.502	75.63
352.714	84.17
352.926	61.62
353.138	61.45
353.35	27.14
353.561	18.36
353.773	-9.5
353.985	16.79
354.197	7.62
354.409	21.14
354.621	28.46
354.832	35.24
355.044	10.5
355.256	4.24
355.468	0.24
355.679	-21.54
355.891	-10.88
356.103	-7.4
356.314	3.1
356.526	11.34
356.738	40.78
356.949	41.67
357.161	42.62
357.373	41.39
357.584	35
357.796	22.95
358.008	0.65
358.219	23.02
358.431	26.32
358.642	45.4
358.854	51.98
359.065	54.69
359.277	25.24
359.488	9.79
359.7	-9.36
359.911	-31.29
360.123	-25.62
360.334	-26.64
360.546	-29.02
360.757	-22.44
360.969	-5.71
361.18	10.64
361.391	26.69
361.603	27.84
361.814	54.68
362.025	23.69
362.237	15.85
362.448	23.21
362.659	41.01
362.871	27.69
363.082	43.54
363.293	57.22
363.504	40.47
363.716	30.18
363.927	29.84
364.138	17.21
364.349	-26.68
364.56	-26.7
364.772	-51.11
364.983	-30.09
365.194	-39.13
365.405	-13.77
365.616	2.03
365.827	21.91
366.038	8.09
366.25	32.88
366.461	16.51
366.672	33.45
366.883	49.2
367.094	41.4
367.305	18.37
367.516	45.41
367.727	27.92
367.938	5.69
368.149	-4.17
368.36	13.93
368.571	5.19
368.781	-6.51
368.992	-18.71
369.203	10.39
369.414	-9.34
369.625	-23.19
369.836	-21.22
370.047	-22.84
370.258	-38.24
370.468	-38.46
370.679	-72.22
370.89	-54.31
371.101	-11.09
371.312	-42.57
371.522	-27.62
371.733	8.77
371.944	22.45
372.155	33.43
372.365	25.71
372.576	22.94
372.787	10.79
372.997	-4.71
373.208	-18.96
373.419	18.92
373.629	2.71
373.84	14.5
374.05	-8.95
374.261	-4.31
374.472	-30.5
374.682	-8.39
374.893	-11.15
375.103	32.43
375.314	24.15
375.524	24.8
375.735	33.38
375.945	34.62
376.156	3.01
376.366	15.61
376.577	25.12
376.787	14.23
376.997	33.26
377.208	37.72
377.418	14.69
377.629	25.41
377.839	21.82
378.049	7.22
378.26	25.57
378.47	51.86
378.68	41.12
378.89	45.4
379.101	36.67
379.311	10.28
379.521	-20.98
379.732	-17.94
379.942	-37.27
380.152	-26.57
380.362	-11.99
380.572	-6.79
380.783	10.86
380.993	27.94
381.203	35.06
381.413	43.43
381.623	49.16
381.833	41.96
382.043	17.28
382.253	11.3
382.463	9.93
382.674	11.68
382.884	-9.95
383.094	2.33
383.304	-0.83
383.514	-1.31
383.724	7.12
383.934	0.71
384.144	-14.25
384.353	-5.96
384.563	0.53
384.773	1.33
384.983	16.12
385.193	33.55
385.403	22.38
385.613	13.9
385.823	7.78
386.033	13.7
386.242	3
386.452	8.95
386.662	1.54
386.872	8.93
387.082	9.45
387.291	0.06
387.501	6.53
387.711	11.94
387.921	-7.34
388.13	-9.33
388.34	13.61
388.55	6.88
388.759	8.51
388.969	20.97
389.179	19.55
389.388	13.25
389.598	14.5
389.807	12.03
390.017	10.19
390.227	11.36
390.436	8.32
390.646	13.32
390.855	17.7
391.065	20.37
391.274	15.91
391.484	12.16
391.693	12.37
391.903	12.94
392.112	14.27
392.322	20.31
392.531	26.88
392.74	26.04
392.95	20.14
393.159	17.93
393.369	18
393.578	14.14
393.787	12.5
393.997	17.73
394.206	17.72
394.415	17.93
394.625	18.2
394.834	15.85
395.043	13.3
395.252	14.47
395.462	15.13
395.671	17.38
395.88	19.99
396.089	21.74
396.298	20.86
396.508	20.15
396.717	19.68
396.926	19.18
397.135	18.94
397.344	18.14
397.553	18.43
397.762	18.91
397.971	18.2
398.181	18.4
398.39	17.88
398.599	17.03
398.808	16.08
399.017	17.42
399.226	17.64
399.435	19.21
399.644	19.44
399.853	19.02
400.062	18.36
400.27	18.18
400.479	17.5
400.688	16.72
400.897	17.59
401.106	17.54
401.315	16.43
401.524	16.21
401.733	16.83
401.941	16.81
402.15	16.73
402.359	17.15
402.568	17.53
402.777	17.37
402.985	17.16
403.194	17.19
403.403	17.32
403.612	16.78
403.82	16.87
404.029	16.71
404.238	16.21
404.446	16.05
404.655	15.66
404.864	15.63
405.072	15.53
405.281	15.84
405.489	15.55
405.698	15.82
405.906	15.5
406.115	15.12
406.324	14.81
406.532	14.9
406.741	15.13
406.949	14.88
407.158	15.01
407.366	15.06
407.574	15.07
407.783	14.84
407.991	14.84
408.2	14.93
408.408	14.62
408.617	14.59
408.825	14.33
409.033	14.52
409.242	14.5
409.45	14.81
409.658	14.47
409.867	14.78
410.075	14.49
410.283	14.18
410.491	13.97
410.7	13.86
410.908	13.71
411.116	13.95
411.324	13.97
411.533	14
411.741	14.29
411.949	14.32
412.157	14.08
412.365	14.14
412.573	14.06
412.781	14.05
412.99	13.73
413.198	13.88
413.406	13.78
413.614	13.72
413.822	13.59
414.03	13.57
414.238	13.26
414.446	13.3
414.654	13.03
414.862	12.98
415.07	12.9
415.278	13.14
415.486	12.67
415.694	12.89
415.902	12.8
416.109	12.77
416.317	12.75
416.525	12.68
416.733	12.71
416.941	12.72
417.149	12.74
417.357	12.62
417.564	13.11
417.772	12.94
417.98	13
418.188	12.85
418.395	12.73
418.603	12.61
418.811	12.43
419.019	12.07
419.226	12.43
419.434	12.61
419.642	12.39
419.849	12.53
420.057	12.92
420.265	12.85
420.472	12.38
420.68	12.59
420.887	12.3
421.095	12.25
421.302	11.99
421.51	12.35
421.717	12.28
421.925	12.43
422.132	12.35
422.34	12.26
422.547	12.25
422.755	12.17
422.962	12.22
423.17	12.02
423.377	12.1
423.585	12.09
423.792	12.19
423.999	12.21
424.207	12.27
424.414	12.45
424.621	12.38
424.829	12.13
425.036	12.24
425.243	12.15
425.451	11.83
425.658	11.61
425.865	11.81
426.072	11.65
426.28	11.76
426.487	11.68
426.694	11.81
426.901	11.77
427.108	11.84
427.315	11.81
427.523	12.08
427.73	12.09
427.937	11.69
428.144	11.38
428.351	11.39
428.558	11.52
428.765	11.56
428.972	11.84
429.179	12.08
429.386	12.24
429.593	12
429.8	11.66
430.007	11.7
430.214	11.74
430.421	11.59
430.628	11.5
430.835	11.43
431.042	11.76
431.249	11.85
431.456	12.05
431.662	12.32
431.869	12.57
432.076	12.34
432.283	12.31
432.49	11.96
432.697	11.87
432.903	11.51
433.11	11.48
433.317	11.45
433.524	11.85
433.73	11.72
433.937	12.27
434.144	12.07
434.35	12.22
434.557	12.06
434.764	12.13
434.97	11.96
435.177	12.29
435.384	11.82
435.59	12.03
435.797	12.14
436.003	12.36
436.21	12.24
436.416	12.49
436.623	12.19
436.829	12.28
437.036	12.26
437.242	12.24
437.449	12.35
437.655	12.4
437.862	12.28
438.068	12.18
438.275	12.41
438.481	12.5
438.687	12.57
438.894	12.52
439.1	12.57
439.307	12.51
439.513	12.35
439.719	12.34
439.926	12.49
440.132	12.38
440.338	12.2
440.544	12.41
440.751	12.21
440.957	12.18
441.163	11.91
441.369	12.07
441.575	11.87
441.782	11.94
441.988	11.75
442.194	12.03
442.4	12.03
442.606	12.28
442.812	12.43
443.018	12.62
443.224	12.73
443.431	12.81
443.637	12.7
443.843	12.51
444.049	12.57
444.255	12.45
444.461	12.39
444.667	12.31
444.873	12.58
445.079	12.55
445.284	12.65
445.49	12.51
445.696	12.33
445.902	12.2
446.108	12.09
446.314	11.87
446.52	12.14
446.726	12.42
446.931	12.37
447.137	12.53
447.343	12.82
447.549	12.54
447.755	12.53
447.96	12.67
448.166	12.52
448.372	12.53
448.578	12.54
448.783	12.51
448.989	12.61
449.195	12.91
449.4	12.74
449.606	12.79
449.812	12.7
450.017	12.77
450.223	12.56
450.428	12.44
450.634	12.61
450.84	12.82
451.045	12.56
451.251	12.54
451.456	12.83
451.662	12.86
451.867	12.74
452.073	12.74
452.278	12.86
452.483	13.01
452.689	12.9
452.894	13.02
453.1	13.21
453.305	13
453.51	12.79
453.716	12.6
453.921	12.53
454.127	12.39
454.332	12.33
454.537	12.23
454.742	12.46
454.948	12.55
455.153	12.43
455.358	12.56
455.563	12.76
455.769	12.68
455.974	12.5
456.179	12.53
456.384	12.45
456.589	12.38
456.795	12.32
457	12.38
457.205	12.55
457.41	12.5
457.615	12.4
457.82	12.46
458.025	12.43
458.23	12.24
458.435	12.45
458.64	12.26
458.845	12.35
459.05	12.28
459.255	12.22
459.46	12.09
459.665	12.17
459.87	12.09
460.075	11.99
460.28	12.08
460.485	12.22
460.69	12.35
460.895	12.14
461.099	12.16
461.304	12.44
461.509	12.45
461.714	12.24
461.919	12.45
462.123	12.45
462.328	12.41
462.533	12.02
462.738	12.27
462.942	12.13
463.147	12.29
463.352	12.2
463.556	12.3
463.761	12.12
463.966	12.26
464.17	12.25
464.375	12.05
464.58	12.03
464.784	12.06
464.989	11.75
465.193	11.68
465.398	11.71
465.602	12.15
465.807	12.12
466.011	12.46
466.216	12.46
466.42	12.52
466.625	12.27
466.829	12.46
467.034	12.41
467.238	12.67
467.443	12.69
467.647	12.53
467.851	12.55
468.056	12.67
468.26	12.45
468.464	12.39
468.669	12.55
468.873	12.58
469.077	12.49
469.282	12.49
469.486	12.59
469.69	12.74
469.894	12.74
470.099	12.86
470.303	12.97
470.507	12.73
470.711	12.53
470.915	12.4
471.119	12.34
471.324	12.28
471.528	12.37
471.732	12.55
471.936	12.58
472.14	12.72
472.344	12.7
472.548	12.89
472.752	12.92
472.956	13.19
473.16	12.97
473.364	12.94
473.568	12.94
473.772	12.97
473.976	12.73
474.18	12.74
474.384	12.74
474.588	12.6
474.792	12.45
474.995	12.57
475.199	12.68
475.403	12.9
475.607	13.02
475.811	13.02
476.015	13.03
476.218	13.07
476.422	12.89
476.626	12.95
476.83	13.11
477.033	12.94
477.237	12.74
477.441	12.84
477.644	12.73
477.848	12.64
478.052	12.61
478.255	12.61
478.459	12.67
478.663	13.06
478.866	13.16
479.07	13.32
479.273	13.66
479.477	13.69
479.681	13.49
479.884	13.47
480.088	13.33
480.291	13.15
480.495	13.03
480.698	12.98
480.901	13.06
481.105	13.39
481.308	13.45
481.512	13.44
481.715	13.58
481.919	13.6
482.122	13.4
482.325	13.4
482.529	13.5
482.732	13.5
482.935	13.26
483.138	13.31
483.342	13.37
483.545	13.48
483.748	13.58
483.952	13.74
484.155	13.85
484.358	13.91
484.561	13.75
484.764	13.75
484.967	13.83
485.171	13.89
485.374	13.73
485.577	13.94
485.78	13.94
485.983	13.95
486.186	13.84
486.389	13.88
486.592	13.81
486.795	13.81
486.998	13.83
487.201	13.87
487.404	14.03
487.607	14.16
487.81	14.22
488.013	14.29
488.216	14.37
488.419	14.49
488.622	14.26
488.825	14.1
489.028	14.06
489.231	14.03
489.433	13.8
489.636	13.89
489.839	13.79
490.042	13.69
490.245	13.71
490.447	13.85
490.65	13.87
490.853	14.19
491.056	14.36
491.258	14.33
491.461	14.36
491.664	14.49
491.866	14.28
492.069	14.35
492.272	14.52
492.474	14.61
492.677	14.76
492.879	14.98
493.082	15.1
493.285	15.22
493.487	15.1
493.69	14.91
493.892	14.69
494.095	14.58
494.297	14.49
494.5	14.7
494.702	14.85
494.905	15.19
495.107	15.22
495.309	15.32
495.512	15.33
495.714	15.45
495.917	15.46
496.119	15.57
496.321	15.68
496.524	15.82
496.726	15.85
496.928	15.98
497.13	16.01
497.333	16.03
497.535	16.11
497.737	16.1
497.939	16.04
498.142	16.26
498.344	16.16
498.546	16.05
498.748	16.15
498.95	16.31
499.152	16.17
499.355	16.34
499.557	16.53
499.759	16.63
499.961	16.61
500.163	16.72
500.365	16.73
500.567	16.72
500.769	16.68
500.971	16.76
501.173	16.65
501.375	16.72
501.577	16.67
501.779	16.77
501.981	16.84
502.183	17.06
502.385	17.12
502.587	17.17
502.788	17.22
502.99	17.29
503.192	17.35
503.394	17.33
503.596	17.43
503.798	17.56
503.999	17.66
504.201	17.72
504.403	17.84
504.605	17.99
504.806	17.93
505.008	17.79
505.21	17.87
505.411	17.93
505.613	17.82
505.815	17.97
506.016	18.22
506.218	18.25
506.42	18.2
506.621	18.25
506.823	18.25
507.024	18.17
507.226	18.11
507.427	18.2
507.629	18.43
507.83	18.51
508.032	18.48
508.233	18.6
508.435	18.69
508.636	18.7
508.838	18.57
509.039	18.66
509.24	18.79
509.442	18.83
509.643	18.74
509.845	18.93
510.046	19.02
510.247	18.95
510.448	19
510.65	19.08
510.851	19.2
511.052	19.22
511.254	19.25
511.455	19.42
511.656	19.55
511.857	19.53
512.058	19.53
512.26	19.6
512.461	19.5
512.662	19.58
512.863	19.46
513.064	19.5
513.265	19.53
513.466	19.66
513.667	19.55
513.868	19.78
514.069	19.93
514.27	20.09
514.471	19.98
514.672	20.13
514.873	20.13
515.074	20.21
515.275	20.08
515.476	20.19
515.677	20.28
515.878	20.46
516.079	20.34
516.28	20.51
516.481	20.63
516.682	20.69
516.882	20.55
517.083	20.62
517.284	20.5
517.485	20.54
517.686	20.5
517.886	20.55
518.087	20.76
518.288	21.02
518.488	20.98
518.689	20.99
518.89	21.03
519.091	20.97
519.291	20.87
519.492	20.98
519.692	21.14
519.893	21.28
520.094	21.32
520.294	21.34
520.495	21.34
520.695	21.34
520.896	21.3
521.096	21.39
521.297	21.53
521.497	21.57
521.698	21.54
521.898	21.56
522.099	21.61
522.299	21.69
522.499	21.75
522.7	21.94
522.9	21.98
523.101	22.03
523.301	22
523.501	21.98
523.702	21.9
523.902	22.06
524.102	22.15
524.302	22.21
524.503	22.37
524.703	22.48
524.903	22.38
525.103	22.34
525.304	22.44
525.504	22.63
525.704	22.68
525.904	22.78
526.104	22.82
526.304	22.8
526.504	22.62
526.705	22.57
526.905	22.67
527.105	22.8
527.305	22.84
527.505	22.9
527.705	22.94
527.905	23.01
528.105	22.91
528.305	22.84
528.505	22.93
528.705	23.14
528.905	23.03
529.105	23.11
529.304	23.33
529.504	23.46
529.704	23.33
529.904	23.41
530.104	23.5
530.304	23.56
530.503	23.47
530.703	23.53
530.903	23.54
531.103	23.63
531.303	23.53
531.502	23.65
531.702	23.84
531.902	23.99
532.101	23.95
532.301	23.98
532.501	24.08
532.7	24.08
532.9	24.02
533.1	24.15
533.299	24.21
533.499	24.24
533.698	24.17
533.898	24.35
534.097	24.34
534.297	24.53
534.496	24.61
534.696	24.76
534.895	24.86
535.095	24.97
535.294	24.96
535.494	24.88
535.693	24.84
535.892	24.87
536.092	24.84
536.291	24.85
536.491	24.96
536.69	25.14
536.889	24.95
537.088	24.98
537.288	25.1
537.487	25.25
537.686	25.19
537.886	25.49
538.085	25.6
538.284	25.64
538.483	25.55
538.682	25.77
538.882	25.79
539.081	25.93
539.28	25.89
539.479	25.94
539.678	25.94
539.877	26.11
540.076	26.11
540.275	26.25
540.474	26.46
540.673	26.59
540.872	26.58
541.071	26.61
541.27	26.7
541.469	26.75
541.668	26.73
541.867	26.79
542.066	26.93
542.265	27.12
542.464	27.21
542.663	27.43
542.862	27.65
543.06	27.76
543.259	27.77
543.458	27.8
543.657	27.74
543.856	27.7
544.054	27.66
544.253	27.6
544.452	27.55
544.651	27.67
544.849	27.73
545.048	27.88
545.247	28.05
545.445	28.28
545.644	28.37
545.843	28.36
546.041	28.47
546.24	28.65
546.438	28.73
546.637	28.81
546.836	29.09
547.034	29.26
547.233	29.31
547.431	29.38
547.63	29.56
547.828	29.51
548.027	29.6
548.225	29.63
548.423	29.73
548.622	29.89
548.82	29.92
549.019	29.96
549.217	30.21
549.415	30.33
549.614	30.29
549.812	30.43
550.01	30.52
550.209	30.6
550.407	30.73
550.605	30.84
550.803	30.99
551.002	31.05
551.2	31.03
551.398	31.22
551.596	31.46
551.794	31.62
551.993	31.84
552.191	32.02
552.389	32.11
552.587	32.13
552.785	32.28
552.983	32.35
553.181	32.55
553.379	32.74
553.577	32.84
553.775	32.91
553.973	33.02
554.171	33.16
554.369	33.02
554.567	33.01
554.765	33.1
554.963	33.28
555.161	33.21
555.359	33.56
555.557	33.92
555.755	34.16
555.952	34.35
556.15	34.53
556.348	34.59
556.546	34.79
556.744	34.8
556.941	34.86
557.139	35
557.337	35.12
557.535	35.08
557.732	35.23
557.93	35.53
558.128	35.71
558.325	35.82
558.523	35.99
558.721	36.23
558.918	36.07
559.116	36.04
559.313	36.1
559.511	36.31
559.708	36.38
559.906	36.55
560.104	36.79
560.301	37.13
560.498	37.21
560.696	37.33
560.893	37.63
561.091	37.81
561.288	37.87
561.486	38.11
561.683	38.26
561.88	38.42
562.078	38.53
562.275	38.57
562.473	38.7
562.67	39.04
562.867	39.19
563.064	39.53
563.262	39.76
563.459	39.88
563.656	39.98
563.853	40.01
564.051	39.86
564.248	40.13
564.445	40.3
564.642	40.27
564.839	40.48
565.036	40.85
565.234	41.04
565.431	41.18
565.628	41.3
565.825	41.47
566.022	41.58
566.219	41.54
566.416	41.58
566.613	41.69
566.81	41.87
567.007	41.88
567.204	41.95
567.401	42
567.598	42.14
567.795	42.08
567.991	42.13
568.188	42.37
568.385	42.55
568.582	42.81
568.779	42.95
568.976	43.17
569.172	43.28
569.369	43.28
569.566	43.22
569.763	43.48
569.96	43.56
570.156	43.46
570.353	43.57
570.55	43.7
570.746	43.73
570.943	43.64
571.14	43.79
571.336	43.91
571.533	44.01
571.729	43.94
571.926	44.07
572.123	44.18
572.319	44.19
572.516	44.21
572.712	44.3
572.909	44.55
573.105	44.68
573.302	44.71
573.498	44.84
573.695	44.75
573.891	44.76
574.087	44.72
574.284	44.62
574.48	44.4
574.677	44.49
574.873	44.35
575.069	44.44
575.266	44.71
575.462	44.81
575.658	44.92
575.854	45.13
576.051	45.07
576.247	45.01
576.443	45.13
576.639	45.05
576.835	44.92
577.032	44.82
577.228	44.91
577.424	44.93
577.62	44.87
577.816	44.87
578.012	44.83
578.208	44.66
578.404	44.69
578.6	44.83
578.796	44.91
578.993	44.92
579.189	45.02
579.384	44.83
579.58	44.73
579.776	44.65
579.972	44.58
580.168	44.48
580.364	44.43
580.56	44.46
580.756	44.33
580.952	44.28
581.148	44.18
581.343	44.24
581.539	44.13
581.735	44.18
581.931	44.33
582.127	44.41
582.322	44.2
582.518	44.39
582.714	44.37
582.909	44.06
583.105	43.96
583.301	44.01
583.496	43.89
583.692	43.62
583.888	43.63
584.083	43.66
584.279	43.68
584.474	43.57
584.67	43.74
584.866	43.86
585.061	43.78
585.257	43.9
585.452	43.89
585.648	43.74
585.843	43.68
586.039	43.78
586.234	43.6
586.429	43.43
586.625	43.58
586.82	43.44
587.015	43.34
587.211	43.32
587.406	43.41
587.601	43.28
587.797	43.26
587.992	43.17
588.187	43.26
588.383	43.32
588.578	43.4
588.773	43.49
588.968	43.48
589.163	43.45
589.359	43.19
589.554	43.1
589.749	43.25
589.944	43.4
590.139	43.31
590.334	43.49
590.529	43.64
590.724	43.54
590.919	43.47
591.114	43.49
591.309	43.57
591.504	43.71
591.699	43.53
591.894	43.59
592.089	43.5
592.284	43.4
592.479	43.29
592.674	43.44
592.869	43.46
593.064	43.5
593.259	43.66
593.454	43.66
593.648	43.61
593.843	43.64
594.038	43.79
594.233	43.65
594.428	43.69
594.622	43.77
594.817	43.81
595.012	43.87
595.206	43.96
595.401	44.08
595.596	44.18
595.79	44.18
595.985	44.22
596.18	44.31
596.374	44.37
596.569	44.34
596.763	44.27
596.958	44.29
597.153	44.37
597.347	44.36
597.542	44.66
597.736	44.85
597.931	44.86
598.125	45.03
598.319	45.27
598.514	45.23
598.708	45.23
598.903	45.37
599.097	45.27
599.291	45.16
599.486	45.09
599.68	45.09
599.874	45.17
600.069	45.28
600.263	45.23
600.457	45.25
600.651	45.43
600.846	45.34
601.04	45.25
601.234	45.15
601.428	45.27
601.622	45.34
601.817	45.47
602.011	45.47
602.205	45.62
602.399	45.45
602.593	45.2
602.787	45.11
602.981	45.11
603.175	45.13
603.369	45.02
603.563	45.32
603.757	45.45
603.951	45.55
604.145	45.55
604.339	45.77
604.533	45.58
604.727	45.44
604.921	45.33
605.115	45.28
605.309	45.27
605.502	45.16
605.696	45.07
605.89	45.07
606.084	45.08
606.278	44.88
606.471	44.82
606.665	44.68
606.859	44.59
607.053	44.39
607.246	44.44
607.44	44.43
607.634	44.49
607.827	44.52
608.021	44.39
608.214	44.29
608.408	44.23
608.602	44.13
608.795	43.96
608.989	44.02
609.182	43.95
609.376	43.81
609.569	43.8
609.763	43.64
609.956	43.51
610.15	43.36
610.343	43.28
610.537	43.15
610.73	43.22
610.923	43.1
611.117	43.06
611.31	42.91
611.504	42.82
611.697	42.59
611.89	42.4
612.083	42.32
612.277	42.24
612.47	42.06
612.663	41.91
612.856	41.85
613.05	41.65
613.243	41.6
613.436	41.48
613.629	41.34
613.822	41.38
614.015	41.35
614.209	41.3
614.402	41.31
614.595	41.46
614.788	41.4
614.981	41.32
615.174	41.03
615.367	40.85
615.56	40.62
615.753	40.47
615.946	40.31
616.139	40.46
616.332	40.66
616.525	40.58
616.718	40.57
616.911	40.65
617.103	40.58
617.296	40.41
617.489	40.35
617.682	40.28
617.875	40.17
618.067	40.16
618.26	39.97
618.453	39.95
618.646	39.97
618.838	39.92
619.031	39.79
619.224	39.76
619.417	39.7
619.609	39.68
619.802	39.64
619.994	39.65
620.187	39.77
620.38	39.71
620.572	39.51
620.765	39.43
620.957	39.24
621.15	38.96
621.342	38.84
621.535	38.92
621.727	38.88
621.92	38.86
622.112	38.97
622.305	39.04
622.497	38.82
622.69	38.7
622.882	38.59
623.074	38.5
623.267	38.33
623.459	38.19
623.651	38.11
623.844	38.26
624.036	38.26
624.228	38.24
624.42	38.32
624.613	38.52
624.805	38.35
624.997	38.28
625.189	38.33
625.381	38.38
625.574	38.23
625.766	38.18
625.958	38.15
626.15	38.06
626.342	37.89
626.534	37.76
626.726	37.68
626.918	37.67
627.11	37.59
627.302	37.5
627.494	37.56
627.686	37.56
627.878	37.44
628.07	37.47
628.262	37.49
628.454	37.45
628.646	37.39
628.838	37.39
629.029	37.14
629.221	37.15
629.413	36.92
629.605	36.83
629.797	36.65
629.989	36.75
630.18	36.67
630.372	36.66
630.564	36.61
630.755	36.73
630.947	36.75
631.139	36.56
631.33	36.43
631.522	36.53
631.714	36.34
631.905	36.2
632.097	36.26
632.289	36.31
632.48	36.11
632.672	35.9
632.863	35.64
633.055	35.52
633.246	35.52
633.438	35.33
633.629	35.4
633.821	35.45
634.012	35.46
634.203	35.27
634.395	35.24
634.586	35.3
634.777	35.2
634.969	35.03
635.16	35.01
635.351	35.01
635.543	34.85
635.734	34.89
635.925	34.92
636.117	34.96
636.308	34.83
636.499	34.75
636.69	34.53
636.881	34.38
637.073	34.35
637.264	34.33
637.455	34.3
637.646	34.35
637.837	34.41
638.028	34.13
638.219	34.1
638.41	33.92
638.601	33.76
638.792	33.56
638.983	33.43
639.174	33.18
639.365	33.24
639.556	33.18
639.747	33.19
639.938	33.21
640.129	33.29
640.32	33.07
640.511	33.01
640.701	32.93
640.892	32.85
641.083	32.77
641.274	32.87
641.465	32.83
641.655	32.68
641.846	32.62
642.037	32.55
642.228	32.34
642.418	32.34
642.609	32.2
642.8	32.1
642.99	31.93
643.181	31.94
643.372	31.86
643.562	31.86
643.753	31.76
643.943	31.78
644.134	31.58
644.324	31.45
644.515	31.28
644.705	31.39
644.896	31.32
645.086	31.29
645.277	31.07
645.467	31.04
645.658	30.82
645.848	30.78
646.038	30.85
646.229	30.87
646.419	30.71
646.61	30.56
646.8	30.4
646.99	30.27
647.18	30.21
647.371	30.32
647.561	30.23
647.751	30.16
647.941	30.09
648.132	30.03
648.322	30.04
648.512	30.15
648.702	30.13
648.892	29.91
649.082	29.85
649.272	29.5
649.462	29.18
649.653	29.04
649.843	29.03
650.033	29.04
650.223	29.09
650.413	29.08
650.603	29.1
650.793	29.06
650.983	28.77
651.172	28.66
651.362	28.69
651.552	28.47
651.742	28.24
651.932	28.3
652.122	28.25
652.312	28.18
652.502	28.19
652.691	28.16
652.881	28.07
653.071	27.99
653.261	27.7
653.45	27.53
653.64	27.62
653.83	27.5
654.019	27.51
654.209	27.67
654.399	27.8
654.588	27.64
654.778	27.58
654.968	27.37
655.157	27.25
655.347	26.88
655.536	26.72
655.726	26.59
655.915	26.41
656.105	26.22
656.294	26.22
656.484	25.84
656.673	25.59
656.863	25.61
657.052	25.35
657.241	25.03
657.431	24.94
657.62	24.67
657.809	24.29
657.999	24.07
658.188	23.86
658.377	23.71
658.567	23.57
658.756	23.38
658.945	23.03
659.134	22.86
659.324	22.75
659.513	22.67
659.702	22.26
659.891	22.32
660.08	22.08
660.269	21.77
660.458	21.62
660.648	21.75
660.837	21.39
661.026	21.27
661.215	21
661.404	20.55
661.593	20.38
661.782	20.08
661.971	19.87
662.16	19.82
662.349	19.78
662.538	19.33
662.726	19.51
662.915	19.35
663.104	18.97
663.293	18.77
663.482	18.76
663.671	18.41
663.86	18.04
664.048	17.84
664.237	17.76
664.426	17.4
664.615	17.19
664.803	17.25
664.992	17.3
665.181	16.94
665.369	16.77
665.558	16.68
665.747	16.28
665.935	16.15
666.124	16.07
666.312	16.08
666.501	15.88
666.69	15.8
666.878	15.57
667.067	15.46
667.255	15.45
667.444	15.68
667.632	15.7
667.82	15.67
668.009	15.53
668.197	15.28
668.386	14.99
668.574	14.99
668.762	14.84
668.951	14.74
669.139	14.71
669.327	14.56
669.516	14.6
669.704	14.59
669.892	14.75
670.08	14.77
670.269	14.68
670.457	14.54
670.645	14.47
670.833	14.34
671.021	14.22
671.21	14.29
671.398	14.36
671.586	14.27
671.774	14.29
671.962	14.27
672.15	14.12
672.338	13.94
672.526	14.04
672.714	13.84
672.902	13.85
673.09	13.97
673.278	14.28
673.466	14.32
673.654	14.66
673.842	14.65
674.03	14.74
674.218	14.46
674.405	14.41
674.593	14.26
674.781	14.44
674.969	14.41
675.157	14.77
675.344	14.83
675.532	14.85
675.72	14.88
675.908	15.03
676.095	14.78
676.283	15.06
676.471	15.35
676.658	15.43
676.846	15.33
677.033	15.51
677.221	15.37
677.409	15.32
677.596	15.29
677.784	15.51
677.971	15.63
678.159	15.82
678.346	15.98
678.534	16.12
678.721	16.34
678.909	16.39
679.096	16.52
679.283	16.78
679.471	16.89
679.658	17.08
679.846	17.46
680.033	17.74
680.22	17.78
680.408	18.09
680.595	18.15
680.782	18.02
680.969	18.24
681.157	18.21
681.344	18.33
681.531	18.48
681.718	18.59
681.905	18.68
682.093	18.98
682.28	19.29
682.467	19.64
682.654	20.05
682.841	20.16
683.028	20.62
683.215	20.96
683.402	21.1
683.589	21.5
683.776	21.87
683.963	22.02
684.15	22.41
684.337	22.75
684.524	22.94
684.711	23.37
684.898	23.77
685.085	24.05
685.271	24.6
685.458	25.43
685.645	25.8
685.832	26.46
686.019	26.79
686.205	27.28
686.392	27.39
686.579	27.94
686.766	28.48
686.952	29.14
687.139	29.93
687.326	30.35
687.512	31.11
687.699	31.41
687.886	31.76
688.072	31.87
688.259	32.91
688.445	33.33
688.632	33.83
688.818	34.99
689.005	35.65
689.191	36.18
689.378	36.8
689.564	37.81
689.751	37.97
689.937	38.9
690.124	39.41
690.31	40.25
690.496	40.63
690.683	41.76
690.869	42.49
691.055	43.18
691.242	43.91
691.428	44.7
691.614	45.2
691.8	45.8
691.987	46.28
692.173	46.92
692.359	47.71
692.545	48.71
692.731	49.15
692.918	50.22
693.104	50.76
693.29	51.59
693.476	51.88
693.662	52.85
693.848	53.25
694.034	54.13
694.22	54.64
694.406	55.53
694.592	56.12
694.778	56.69
694.964	57
695.15	57.59
695.336	58.05
695.522	58.71
695.708	59.47
695.894	60.14
696.08	60.68
696.265	61.1
696.451	61.65
696.637	62.47
696.823	63.16
697.009	64.15
697.194	64.93
697.38	65.23
697.566	65.66
697.751	66.04
697.937	66.21
698.123	66.38
698.308	67.31
698.494	67.62
698.68	68.08
698.865	68.44
699.051	69.46
699.236	70.12
699.422	70.55
699.607	70.91
699.793	71.32
699.978	71.17
700.164	70.92
700.349	71.91
700.535	72.71
700.72	73.01
700.906	74.08
701.091	74.61
701.276	74.51
701.462	75.19
701.647	75.99
701.832	76.08
702.018	76.78
702.203	77.58
702.388	77.35
702.573	77.38
702.759	77.9
702.944	77.58
703.129	77.28
703.314	77.72
703.499	78.43
703.684	78.93
703.87	79.43
704.055	80.36
704.24	80.62
704.425	80.61
704.61	80.08
704.795	80.53
704.98	80.12
705.165	80.23
705.35	80.44
705.535	80.53
705.72	81.01
705.905	81.61
706.09	82.17
706.275	82.35
706.459	82.53
706.644	82.6
706.829	83.12
707.014	82.73
707.199	83.1
707.384	83.91
707.568	83.97
707.753	84.35
707.938	85.04
708.123	84.89
708.307	84.67
708.492	84.34
708.677	83.37
708.861	82.82
709.046	82.9
709.231	83.52
709.415	83.86
709.6	84.82
709.784	84.75
709.969	85.22
710.153	84.88
710.338	85.35
710.522	84.63
710.707	85.67
710.891	85.13
711.076	85.54
711.26	84.73
711.445	85.37
711.629	85.33
711.813	85.96
711.998	85.97
712.182	86.32
712.366	86.81
712.551	87.05
712.735	86.58
712.919	86.81
713.103	87.08
713.288	86.36
713.472	86.21
713.656	87.26
713.84	87.45
714.024	87.91
714.208	88.36
714.393	88.87
714.577	88.87
714.761	88.51
714.945	88.62
715.129	87.98
715.313	87.57
715.497	87.29
715.681	87.63
715.865	87.73
716.049	88.62
716.233	88.76
716.417	88.6
716.601	88.79
716.785	88.42
716.968	88.36
717.152	88.58
717.336	88.95
717.52	88.56
717.704	88.91
717.888	89.64
718.071	89.28
718.255	89.39
718.439	90.08
718.622	90.55
718.806	89.88
718.99	89.36
719.174	89.42
719.357	89.1
719.541	88.07
719.724	88.49
719.908	89.87
720.092	90.25
720.275	90.28
720.459	91.44
720.642	90.78
720.826	90.18
721.009	89.47
721.193	88.9
721.376	88.46
721.559	89.79
721.743	90.5
721.926	90.92
722.11	90.66
722.293	90.48
722.476	88.62
722.66	88.51
722.843	88.02
723.026	88.57
723.21	88.52
723.393	90.35
723.576	90.11
723.759	89.76
723.942	89.95
724.126	90.2
724.309	89.41
724.492	88.93
724.675	89.77
724.858	90.1
725.041	91.28
725.224	91.39
725.407	91.39
725.59	91.01
725.774	90.26
725.957	88.42
726.14	88.09
726.322	88.72
726.505	88.68
726.688	89.76
726.871	89.93
727.054	90.54
727.237	90.23
727.42	91.03
727.603	90.94
727.786	91.43
727.968	91.02
728.151	90.55
728.334	90.3
728.517	90.05
728.699	90.1
728.882	89.96
729.065	90.91
729.248	91.25
729.43	91.93
729.613	93.19
729.796	93.47
729.978	92.57
730.161	91.83
730.343	91.71
730.526	91.22
730.708	91.19
730.891	91.33
731.073	90.9
731.256	89.79
731.438	89.53
731.621	89.85
731.803	90.84
731.986	91.6
732.168	91.73
732.35	91.6
732.533	91.05
732.715	90.16
732.898	90.77
733.08	91.13
733.262	90.9
733.444	90.63
733.627	89.97
733.809	90.23
733.991	91.8
734.173	91.82
734.355	92.66
734.538	93.91
734.72	92.32
734.902	90.77
735.084	90.64
735.266	90.56
735.448	90.4
735.63	90.63
735.812	90.83
735.994	91.78
736.176	91.57
736.358	91.53
736.54	93.2
736.722	93.47
736.904	92.2
737.086	91.29
737.268	93.01
737.45	92.53
737.632	91.81
737.814	91.36
737.995	93.79
738.177	92.58
738.359	91.77
738.541	92.29
738.723	93.69
738.904	92.7
739.086	92.11
739.268	92.1
739.449	91.19
739.631	91.82
739.813	92.07
739.994	92.83
740.176	92.78
740.358	93.57
740.539	94.47
740.721	94.14
740.902	95.04
741.084	95.49
741.265	95.61
741.447	94.57
741.628	94.5
741.81	92.12
741.991	92.75
742.172	94.04
742.354	94.34
742.535	94.42
742.717	96.31
742.898	94.3
743.079	93.91
743.261	93.41
743.442	92.5
743.623	92.04
743.804	93.86
743.986	93.56
744.167	91.35
744.348	92.3
744.529	92.39
744.71	91.18
744.891	91.36
745.073	92.2
745.254	91.77
745.435	91.07
745.616	89.83
745.797	89.34
745.978	89.82
746.159	89.63
746.34	89.13
746.521	90.93
746.702	90.54
746.883	91.35
747.064	89.4
747.245	89.51
747.426	89.6
747.606	89.23
747.787	88.69
747.968	90.12
748.149	91.93
748.33	92.66
748.51	91.88
748.691	90.01
748.872	91.49
749.053	89.73
749.233	88.2
749.414	88.63
749.595	89.78
749.775	87.25
749.956	85.38
750.137	85.47
750.317	86.13
750.498	87.62
750.678	87.83
750.859	89.71
751.04	90.36
751.22	89.64
751.4	87.28
751.581	87.76
751.761	88.43
751.942	89.13
752.122	90.66
752.303	90.83
752.483	91.32
752.663	91.22
752.844	91.11
753.024	90.65
753.204	90.89
753.385	90.15
753.565	87.34
753.745	88.15
753.925	87.8
754.106	90.07
754.286	91.53
754.466	91.91
754.646	91.58
754.826	91.54
755.006	87.88
755.187	88.41
755.367	91.23
755.547	91.68
755.727	91.61
755.907	90.81
756.087	91.83
756.267	89.52
756.447	88.9
756.627	88.05
756.807	91.97
756.987	89.81
757.167	92.23
757.346	90.56
757.526	88.9
757.706	88.43
757.886	88.37
758.066	88.7
758.246	91.99
758.425	95.42
758.605	94.48
758.785	94.6
758.965	93.2
759.144	87.24
759.324	85.37
759.504	85.74
759.683	84.44
759.863	82.48
760.043	85.34
760.222	86.07
760.402	85.61
760.581	87.58
760.761	90.61
760.94	87.35
761.12	86.96
761.299	88.35
761.479	86.92
761.658	84.49
761.838	86.67
762.017	87.03
762.197	86.6
762.376	87.83
762.555	90.05
762.735	91.5
762.914	88.46
763.093	89.88
763.273	88.15
763.452	87.65
763.631	86.74
763.81	86.56
763.99	83.39
764.169	84.49
764.348	80.14
764.527	79.63
764.706	84.3
764.885	87.46
765.064	85
765.243	88.81
765.423	88.74
765.602	88.07
765.781	84.07
765.96	83.15
766.139	82.62
766.318	83.61
766.497	84.18
766.676	86.98
766.854	89.98
767.033	89.5
767.212	88.57
767.391	85.56
767.57	85.41
767.749	85.71
767.928	86.89
768.106	84.32
768.285	82.51
768.464	82.18
768.643	83.67
768.821	84.3
769	87.77
769.179	90.2
769.357	85.58
769.536	81.16
769.715	80.56
769.893	81.38
770.072	80.23
770.25	79.91
770.429	81.42
770.607	80.57
770.786	79.06
770.964	80.83
771.143	85.43
771.321	88.63
771.5	89.36
771.678	86.29
771.857	82.1
772.035	83.18
772.213	79.09
772.392	74.83
772.57	79.17
772.748	82.73
772.927	78.18
773.105	80.39
773.283	84.83
773.461	86.03
773.64	83.96
773.818	83.44
773.996	83.47
774.174	82.37
774.352	76.83
774.531	78.25
774.709	82.03
774.887	82.84
775.065	81.12
775.243	83.4
775.421	86.13
775.599	88.5
775.777	83.02
775.955	80.87
776.133	80.1
776.311	75.86
776.489	71.66
776.667	73.79
776.844	78.44
777.022	77.18
777.2	77.99
777.378	77.59
777.556	79.76
777.734	80.03
777.911	81.01
778.089	80.99
778.267	84.34
778.445	80.79
778.622	76.05
778.8	77.76
778.978	82.94
779.155	80.24
779.333	81.68
779.511	79.88
779.688	80.64
779.866	69.8
780.043	66.94
780.221	66.47
780.398	66.92
780.576	66.71
780.753	74.62
780.931	74.35
781.108	73.28
781.286	78.13
781.463	70.5
781.64	68.01
781.818	75.06
781.995	76.98
782.172	75.66
782.35	83.09
782.527	84.64
782.704	80.12
782.882	81.72
783.059	81.23
783.236	79.31
783.413	79.36
783.59	78.87
783.768	71.71
783.945	74.28
784.122	75.6
784.299	72.68
784.476	72.07
784.653	79.73
784.83	74.5
785.007	67.37
785.184	70.11
785.361	72.34
785.538	73.78
785.715	77.16
785.892	82.11
786.069	83.65
786.246	85.95
786.423	78.6
786.6	76.1
786.776	81.56
786.953	78.39
787.13	76.98
787.307	82.02
787.484	87.56
787.66	79.26
787.837	75.2
788.014	73.15
788.191	67.09
788.367	60.33
788.544	66.07
788.721	68.87
788.897	70.47
789.074	77.13
789.25	76.09
789.427	74.66
789.603	73.36
789.78	76.78
789.956	65.63
790.133	68.79
790.309	65.73
790.486	70.73
790.662	65.35
790.839	68.66
791.015	74.19
791.192	69.38
791.368	69.85
791.544	65.11
791.721	74.73
791.897	69.15
792.073	71.86
792.249	67.17
792.426	72.62
792.602	69.82
792.778	62.37
792.954	62.61
793.13	61.9
793.307	56.34
793.483	46.6
793.659	51.8
793.835	54.74
794.011	58.12
794.187	54.9
794.363	53.81
794.539	60.12
794.715	55.92
794.891	51.94
795.067	54.94
795.243	66.32
795.419	65.84
795.595	67.92
795.771	72.55
795.947	80.99
796.122	67.18
796.298	67.09
796.474	68.9
796.65	66.58
796.826	61.62
797.001	74.42
797.177	66.46
797.353	73.34
797.529	77.9
797.704	73.51
797.88	67.37
798.056	65.91
798.231	57.16
798.407	56.68
798.582	62.53
798.758	68.6
798.934	84.18
799.109	81.46
799.285	74.91
799.46	82.73
799.636	80.55
799.811	70.02
799.986	76.91
800.162	84.42
800.337	75.39
800.513	66.13
800.688	63.94
800.863	72.77
801.039	62.71
801.214	54.4
801.389	63.16
801.565	69.45
801.74	56.47
801.915	63.66
802.09	75.12
802.265	76.78
802.441	71.96
802.616	68.72
802.791	66.16
802.966	65.02
803.141	60.93
803.316	46.94
803.491	53.55
803.666	55.71
803.841	50.27
804.016	50.49
804.191	67.23
804.366	61.54
804.541	57.46
804.716	47.95
804.891	40.04
805.066	42.72
805.241	49.69
805.416	51.39
805.591	55.9
805.765	65.85
805.94	68.78
806.115	65.73
806.29	55.8
806.464	70.97
806.639	65.18
806.814	46.04
806.989	30.96
807.163	49.7
807.338	35.99
807.512	37.55
807.687	34.38
807.862	53.46
808.036	53.33
808.211	54.06
808.385	63.47
808.56	78.04
808.734	71.6
808.909	68.61
809.083	62.85
809.258	65.9
809.432	64.95
809.606	41.85
809.781	43.69
809.955	61
810.13	62.33
810.304	52.35
810.478	59.91
810.652	63.93
810.827	70.69
811.001	66.33
811.175	65.26
811.349	79.07
811.524	66.19
811.698	39.94
811.872	35.71
812.046	48.08
812.22	46.6
812.394	44.13
812.568	50.94
812.742	52.97
812.916	34.42
813.09	25.75
813.264	28.81
813.438	39.31
813.612	34.27
813.786	28.6
813.96	45.29
814.134	51.51
814.308	56.59
814.482	62.57
814.656	81.15
814.83	94.9
815.003	91.15
815.177	80.93
815.351	72.31
815.525	76.62
815.698	60.97
815.872	40.13
816.046	31.49
816.219	35.22
816.393	41.21
816.567	43.12
816.74	46.44
816.914	64.96
817.088	67.55
817.261	60.49
817.435	43.81
817.608	43.63
817.782	32.38
817.955	30.72
818.129	14.89
818.302	28.9
818.475	59.72
818.649	58.4
818.822	40.14
818.996	63.26
819.169	55.69
819.342	25.4
819.516	36.8
819.689	59.3
819.862	37.94
820.035	28.74
820.209	30.24
820.382	29.25
820.555	33.43
820.728	20.65
820.901	20.44
821.075	33.6
821.248	40.09
821.421	27.33
821.594	24.42
821.767	54.75
821.94	78.77
822.113	34.56
822.286	37.07
822.459	84.03
822.632	70.4
822.805	52.97
822.978	71.75
823.151	74.08
823.324	31.04
823.496	-17.81
823.669	-16.66
823.842	-11.34
824.015	-31.4
824.188	-30.12
824.361	-20.32
824.533	-35.9
824.706	-7.72
824.879	3.79
825.051	44.29
825.224	61.68
825.397	61.52
825.569	40.35
825.742	45.52
825.915	49.28
826.087	38.25
826.26	25.46
826.432	21.66
826.605	36.22
826.777	27.23
826.95	19.37
827.122	24.64
827.295	42.71
827.467	22.97
827.64	-0.81
827.812	-3.14
827.984	15.03
828.157	-2.98
828.329	-7.25
828.501	-2.7
828.674	15.2
828.846	-0.47
829.018	5.61
829.19	-5.83
829.363	19.4
829.535	13.08
829.707	22.71
829.879	-1.28
830.051	4.2
830.223	4.49
830.395	-17.38
830.568	-27.02
830.74	-11.64
830.912	16.48
831.084	-12.59
831.256	-13.49
831.428	-32.01
831.6	-33.9
831.772	-65.84
831.943	-54.93
832.115	-19.67
832.287	27.04
832.459	25.6
832.631	28.39
832.803	63.54
832.975	51.16
833.146	31.32
833.318	38.64
833.49	59.44
833.662	31.84
833.833	12.1
834.005	17.42
834.177	34.63
834.348	18.42
834.52	-9.59
834.692	0.3
834.863	-7.44
835.035	-22.87
835.206	-23.5
835.378	13.49
835.549	1.16
835.721	12.1
835.892	-14.87
836.064	-13.59
836.235	-9.04
836.407	41.76
836.578	23.61
836.749	47.02
836.921	31.63
837.092	-3.87
837.264	-77.17
837.435	-104.67
837.606	-80.81
837.777	-27.96
837.949	-3.57
838.12	-5.29
838.291	17.24
838.462	15.55
838.633	-1.46
838.805	-9.54
838.976	15.08
839.147	16.45
839.318	-28.62
839.489	-72.94
839.66	-53.44
839.831	-42.22
840.002	-50.6
840.173	-43.9
840.344	-6.13
840.515	-10.1
840.686	-51.98
840.857	-78.58
841.028	-79.41
841.199	-62.45
841.369	-98.25
841.54	-103.41
841.711	-18.18
841.882	2.15
842.053	-21.62
842.223	-35.06
842.394	-6.55
842.565	-13.5
842.736	-1.63
842.906	-8.24
843.077	16.87
843.248	32.3
843.418	6.74
843.589	-18.71
843.759	36.76
843.93	41.84
844.101	30.69
844.271	42.63
844.442	72.29
844.612	64
844.783	26.3
844.953	-5.88
845.123	16.3
845.294	6.84
845.464	-34.1
845.635	-11.51
845.805	26.92
845.975	21.02
846.146	-23.41
846.316	-30.02
846.486	-9.24
846.656	-15.69
846.827	-60.68
846.997	-27.96
847.167	8.33
847.337	-21.28
847.507	-36.67
847.677	-35.75
847.848	-5.16
848.018	16.31
848.188	30.46
848.358	19.36
848.528	42.89
848.698	11.1
848.868	-36.91
849.038	-54.42
849.208	-19.87
849.378	-3.9
849.548	-44.16
849.718	-0.23
849.887	41.59
850.057	-53.52
850.227	-95.3
850.397	-78.38
850.567	-95.43
850.737	-80.24
850.906	-88.59
851.076	-109.66
851.246	-96.69
851.415	-61.63
851.585	-44.57
851.755	-32.61
851.924	12.08
852.094	31.03
852.264	5.25
852.433	-43.46
852.603	-20.15
852.772	-27.63
852.942	-80.41
853.111	-113.41
853.281	-18.85
853.45	0.78
853.62	-33.17
853.789	-75.09
853.959	9.8
854.128	-61.01
854.297	-131.45
854.467	-138.96
854.636	-68.89
854.805	-76.15
854.975	-80.53
855.144	-50.51
855.313	22.05
855.482	11.49
855.652	-47.76
855.821	-25.16
855.99	39.86
856.159	26.39
856.328	-4.57
856.497	3.69
856.667	-5.85
856.836	-32.89
857.005	-131.59
857.174	-183.22
857.343	-163.04
857.512	-75.37
857.681	-173.55
857.85	-127.7
858.019	-72.4
858.188	-75.81
858.356	-125
858.525	-138.96
858.694	-125.85
858.863	-123.78
859.032	-146.26
859.201	-144.43
859.369	-81.09
859.538	-41.23
859.707	-78.88
859.876	-76.39
860.044	-59
860.213	-38.26
860.382	-84.09
860.55	-50.9
860.719	11.54
860.888	39.27
861.056	-46.4
861.225	-39.23
861.393	11.49
861.562	54.98
861.73	5.3
861.899	20.49
862.067	-9.73
862.236	-6.79
862.404	-77.9
862.572	-107.5
862.741	-64.37
862.909	-73.08
863.078	-102.01
863.246	-122.35
863.414	-93.29
863.582	-166.46
863.751	-114.21
863.919	-120.03
864.087	-14.16
864.255	-16.81
864.424	-72.75
864.592	-42.34
864.76	-21.62
864.928	-47.75
865.096	-41.72
865.264	-8.86
865.432	-17.54
865.6	22.08
865.768	-101.4
865.936	-224.06
866.104	-178.88
866.272	-215.94
866.44	-184.64
866.608	-164.37
866.776	-197.45
866.944	-267.79
867.112	-359.72
867.28	-617.83
867.448	-918.97
867.615	-234.82
867.783	-15.02
867.951	-51.54
868.119	78.59
868.286	32.99
868.454	-15.91
868.622	-76.29
868.789	-57.26
868.957	-8.65
869.125	-53.65
869.292	-39.71
869.46	-25.63
869.627	3.15
869.795	-77.81
869.963	-51.41
870.13	-24.58
870.298	0.99
870.465	-48.1
870.632	-67.75
870.8	-105.91
870.967	-125.01
871.135	-280.05
871.302	-208.21
871.469	-147.59
871.637	-63.62
871.804	-52.42
871.971	-56.1
872.139	-57.74
872.306	-8.26
872.473	-51.02
872.64	-115.46
872.807	-23.85
872.975	15.7
873.142	-105.94
873.309	-103.16
873.476	65.94
873.643	38.07
873.81	-18.82
873.977	21.63
874.144	39.97
874.311	-15.19
874.478	-101.29
874.645	-165.24
874.812	-503.72
874.979	27647.62
875.146	-730.01
875.313	-222.2
875.48	-90.85
875.647	-80.47
875.813	-126.55
875.98	-153.84
876.147	-220.57
876.314	-176.01
876.481	-258.48
876.647	-265.93
876.814	-136.65
876.981	-63.01
877.147	-193.04
877.314	-176.2
877.481	-38.69
877.647	67.47
877.814	-91.43
877.98	-124.17
878.147	-14.46
878.314	8.45
878.48	-153.33
878.647	-114.28
878.813	26.31
878.979	29.02
879.146	-17.47
879.312	14.46
879.479	39.01
879.645	18.04
879.811	-79.86
879.978	-50.83
880.144	-50.22
880.31	-101.92
880.477	-201.28
880.643	-157.56
880.809	-137.28
880.975	-59.18
881.142	-95.98
881.308	-86.01
881.474	-42.1
881.64	-22.75
881.806	-96.17
881.972	-50.23
882.138	-20.51
882.304	-11.49
882.47	-132.04
882.636	-206.77
882.802	-225.26
882.968	-118.32
883.134	-240.02
883.3	-312.62
883.466	8.36
883.632	58.92
883.798	-63.49
883.964	-48.12
884.129	-32.7
884.295	-93.07
884.461	-132.74
884.627	-184.89
884.793	-125.46
884.958	-66.37
885.124	-136.87
885.29	-165.24
885.455	-65.58
885.621	-71.77
885.787	-344.66
885.952	-151.02
886.118	-119.36
886.283	-136.41
886.449	-188.98
886.614	-113.37
886.78	-118.11
886.945	-108.38
887.111	-297.49
887.276	-277.61
887.442	-519.7
887.607	-371.47
887.773	-459.3
887.938	-289.22
888.103	-155.95
888.269	-67.89
888.434	-24.81
888.599	-36.43
888.764	36.15
888.93	35.79
889.095	0.4
889.26	-49.11
889.425	17.4
889.59	32.17
889.756	-54.33
889.921	-35.17
890.086	-7.75
890.251	-8.72
890.416	-99.9
890.581	-77.2
890.746	-41.05
890.911	-14.13
891.076	-70.89
891.241	-82.98
891.406	-56.42
891.571	-3.61
891.736	-58.89
891.901	-97.13
892.065	-55.91
892.23	-22.11
892.395	-155.31
892.56	-211.51
892.725	-53.97
892.889	-20.97
893.054	-158.94
893.219	-157.85
893.384	-165.79
893.548	-262.04
893.713	-362.31
893.878	-316.15
