Data from Ofav_PS_Phys_9GT46_Reflection_3.txt Node
Date: Thu Jul 29 18:26:04 EDT 2021
User: USUARIO
Spectrometer: FLMT01687
Trigger mode: 0
Integration Time (sec): 9.010000E-1
Scans to average: 2
Electric dark correction enabled: true
Nonlinearity correction enabled: false
Boxcar width: 2
XAxis mode: Wavelengths
Number of Pixels in Spectrum: 3648
>>>>>Begin Spectral Data<<<<<
179.494	383.17
179.716	490.99
179.937	326.94
180.158	-1884.18
180.38	-136.02
180.601	-818.64
180.823	-240.14
181.044	-175.66
181.265	-92.22
181.486	-880.79
181.708	79.16
181.929	229.43
182.15	11776.19
182.372	-173.25
182.593	-69.78
182.814	-67.02
183.035	-689
183.257	87.99
183.478	29.1
183.699	23.38
183.92	16.05
184.141	9.78
184.363	16.19
184.584	24.26
184.805	30.51
185.026	53.17
185.247	39.13
185.468	18.65
185.689	7.73
185.91	24.44
186.132	-7.39
186.353	18.05
186.574	55.79
186.795	47.93
187.016	46.58
187.237	22.92
187.458	17.45
187.679	2.18
187.9	6.06
188.121	-15.11
188.342	12.5
188.563	42.43
188.784	49.13
189.005	38.55
189.226	44.12
189.447	52.54
189.667	36.04
189.888	21.43
190.109	29.41
190.33	-54.26
190.551	-59.18
190.772	-35.66
190.993	-12.1
191.214	-22.46
191.434	7.97
191.655	15.65
191.876	1.43
192.097	-48.43
192.318	6.78
192.538	14.32
192.759	32.32
192.98	28.51
193.201	38.44
193.421	29.31
193.642	34.2
193.863	10.8
194.083	-7.37
194.304	-7.41
194.525	6
194.745	-14.83
194.966	-12.02
195.187	10.53
195.407	30.62
195.628	-24.99
195.848	-1.38
196.069	54.93
196.29	34.29
196.51	14.32
196.731	50.97
196.951	34.58
197.172	12.39
197.392	13.12
197.613	-1.42
197.833	-17.39
198.054	-3.8
198.274	-9.45
198.495	-10.78
198.715	-18.22
198.936	-10.51
199.156	0.94
199.377	8.45
199.597	23.22
199.817	45.15
200.038	59.23
200.258	31.35
200.479	18.8
200.699	-39.34
200.919	-20.81
201.14	-49.49
201.36	-35.27
201.58	-12.04
201.801	11.54
202.021	11.9
202.241	20.2
202.461	35.94
202.682	-2.92
202.902	13.14
203.122	12.98
203.342	30.19
203.563	32.57
203.783	48.88
204.003	33.18
204.223	8.26
204.443	10.23
204.663	2.44
204.884	10.19
205.104	-1.9
205.324	21.2
205.544	33.22
205.764	26.86
205.984	57.45
206.204	44.97
206.424	36.48
206.644	9.81
206.864	14.01
207.084	-17.2
207.304	22.02
207.525	31.66
207.745	28.68
207.964	41.45
208.184	32.74
208.404	-26.31
208.624	-11.36
208.844	-6.78
209.064	-17.65
209.284	-19.4
209.504	8.41
209.724	15.59
209.944	31.55
210.164	36.15
210.384	41.06
210.604	46.79
210.823	25.03
211.043	5.16
211.263	23.56
211.483	-1.88
211.703	-23.94
211.922	9.07
212.142	31.24
212.362	24.25
212.582	34.6
212.801	36.83
213.021	8.04
213.241	-6.16
213.461	-16.03
213.68	-46.1
213.9	-28.9
214.12	-3.58
214.339	-24.7
214.559	-23.85
214.779	19.79
214.998	4.06
215.218	-19.22
215.438	30.89
215.657	19.01
215.877	13.46
216.096	9.07
216.316	-7.58
216.535	-56.92
216.755	-62.16
216.974	-131.88
217.194	-71.16
217.413	4.21
217.633	30.73
217.852	4.72
218.072	33.11
218.291	45.23
218.511	42.51
218.73	22.57
218.95	31.71
219.169	29.78
219.389	12.81
219.608	-8.37
219.827	-4.85
220.047	11.69
220.266	9.05
220.485	22.16
220.705	18.78
220.924	-2.53
221.143	-6.77
221.363	-29.87
221.582	-48.68
221.801	-93.66
222.021	-23.28
222.24	-31.77
222.459	-6.08
222.678	-4.56
222.897	-17.34
223.117	-5.59
223.336	2.92
223.555	-3.47
223.774	13.99
223.993	34.6
224.213	36.93
224.432	25.13
224.651	28.15
224.87	18.64
225.089	19.18
225.308	11.49
225.527	16.41
225.746	-18.13
225.965	-27.11
226.184	-31.58
226.404	-43.01
226.623	-9.81
226.842	28.84
227.061	28.21
227.28	43.42
227.499	65.05
227.718	45.63
227.936	28.68
228.155	33.57
228.374	0.32
228.593	-17.62
228.812	-36.01
229.031	-41.14
229.25	-27.12
229.469	-2.74
229.688	7.4
229.907	32.93
230.125	32.3
230.344	33.78
230.563	47.81
230.782	55.58
231.001	20.4
231.22	13.77
231.438	13.91
231.657	-7.43
231.876	-7.08
232.095	1.27
232.313	3.48
232.532	0.02
232.751	2.89
232.969	4.06
233.188	-0.52
233.407	-12.95
233.625	5.3
233.844	-13.14
234.063	-37.53
234.281	-36.14
234.5	-34.14
234.719	-22.98
234.937	1.09
235.156	20.33
235.374	30.46
235.593	44.88
235.811	48.82
236.03	34.13
236.249	30.15
236.467	34.18
236.686	36.97
236.904	26.98
237.123	35.61
237.341	23.42
237.559	16.66
237.778	30.19
237.996	35.87
238.215	45.12
238.433	58.93
238.652	50.11
238.87	35.61
239.088	35.54
239.307	19.01
239.525	24.92
239.743	25.71
239.962	18.1
240.18	24.56
240.398	35
240.617	18.99
240.835	11.78
241.053	26.75
241.271	18.81
241.49	10.81
241.708	16.75
241.926	29.02
242.144	24.98
242.363	23.97
242.581	-2.83
242.799	-12.03
243.017	-11.94
243.235	-25.68
243.453	-30.69
243.672	-7.94
243.89	-4.91
244.108	14.88
244.326	35.08
244.544	19.33
244.762	15.51
244.98	22.47
245.198	9.07
245.416	-30
245.634	-22.06
245.852	-11.15
246.07	3.13
246.288	1.21
246.506	33.55
246.724	29.24
246.942	30.49
247.16	21.3
247.378	-1.12
247.596	11.36
247.814	22.12
248.032	21.88
248.25	21.97
248.468	29.8
248.685	25.42
248.903	24.76
249.121	15.76
249.339	3.18
249.557	7.23
249.775	4.39
249.992	-17.86
250.21	-9.25
250.428	21.45
250.646	11.64
250.863	10.05
251.081	13.9
251.299	22.81
251.517	0.19
251.734	31.85
251.952	15.78
252.17	16.69
252.387	9.22
252.605	18.62
252.823	-16.59
253.04	3.25
253.258	11.92
253.475	-2.56
253.693	6.24
253.911	21.1
254.128	22.14
254.346	13.24
254.563	21.66
254.781	10.94
254.998	-7.21
255.216	-18.15
255.433	-7.02
255.651	-2.7
255.868	-11.66
256.086	-0.59
256.303	7.89
256.521	15.83
256.738	9.11
256.956	15.72
257.173	9.18
257.39	12.54
257.608	-1.49
257.825	19.49
258.043	15.46
258.26	26.34
258.477	4.89
258.695	-4.63
258.912	-20.14
259.129	-19.95
259.346	-37.35
259.564	-42.3
259.781	-19.4
259.998	-16.74
260.216	22.96
260.433	36.86
260.65	38.74
260.867	34.29
261.084	30.8
261.302	-11.77
261.519	-20.81
261.736	-8.07
261.953	-3.29
262.17	5.02
262.387	5.29
262.604	-7.21
262.822	-11.37
263.039	-7.45
263.256	-13.32
263.473	-1.14
263.69	-4.75
263.907	3.98
264.124	-6.25
264.341	10.39
264.558	-5.05
264.775	25.28
264.992	29.17
265.209	26.58
265.426	33.06
265.643	49.36
265.86	34.5
266.077	31.89
266.294	45.02
266.51	20.52
266.727	21.88
266.944	30.11
267.161	-18.78
267.378	-27.18
267.595	-19.89
267.812	-35.17
268.028	-62.6
268.245	-9.19
268.462	-23.9
268.679	-9.6
268.896	-17.31
269.112	-16.28
269.329	-9.14
269.546	8.13
269.763	1.67
269.979	14.56
270.196	34.92
270.413	35.36
270.629	31.01
270.846	40.92
271.063	37.4
271.279	11.31
271.496	3.63
271.712	3.81
271.929	14.85
272.146	28.43
272.362	29.08
272.579	43.65
272.795	47.13
273.012	28.71
273.228	1.43
273.445	24.22
273.661	13.23
273.878	3.39
274.094	25.65
274.311	28.3
274.527	14.65
274.744	33.41
274.96	35.83
275.177	10.31
275.393	20.23
275.609	25.81
275.826	7.44
276.042	6.95
276.259	1.27
276.475	-2
276.691	4.61
276.908	11.01
277.124	13.71
277.34	18.73
277.557	3.78
277.773	-1.93
277.989	-6.64
278.205	-27.77
278.422	-47.71
278.638	-45.02
278.854	-46.92
279.07	-25.67
279.286	-28.76
279.503	8.41
279.719	18.54
279.935	12.62
280.151	-19.72
280.367	-13.96
280.583	-4.34
280.799	-2.77
281.016	10.67
281.232	31.84
281.448	36.66
281.664	45.59
281.88	27.38
282.096	30.27
282.312	15.52
282.528	2.41
282.744	-37.41
282.96	-12.2
283.176	-26.27
283.392	4.45
283.608	3.69
283.824	5.78
284.04	-5.89
284.256	-5.51
284.471	-26.26
284.687	2.4
284.903	13.12
285.119	35.34
285.335	30.12
285.551	37.68
285.767	41.75
285.982	41.84
286.198	29.72
286.414	24.31
286.63	27.95
286.846	20.46
287.061	14.55
287.277	37.63
287.493	44.3
287.709	42.17
287.924	38.18
288.14	33.62
288.356	26.27
288.571	20.95
288.787	7.01
289.003	-5.42
289.218	-17.18
289.434	-16.93
289.65	-10.65
289.865	6.04
290.081	8.02
290.296	14.51
290.512	10.19
290.727	5.49
290.943	2.71
291.159	8.68
291.374	22.93
291.59	13.41
291.805	-2.53
292.021	10.16
292.236	17.87
292.451	-31.96
292.667	-33.47
292.882	-11.01
293.098	-9.86
293.313	-27.31
293.529	10.23
293.744	17.45
293.959	17.78
294.175	21.46
294.39	29.62
294.605	35.07
294.821	40.94
295.036	42.64
295.251	34.2
295.467	29
295.682	30.74
295.897	29.99
296.112	24.84
296.328	19.4
296.543	6.96
296.758	-7.51
296.973	-16.22
297.188	-7.17
297.404	-15.11
297.619	-8.69
297.834	-11.51
298.049	-14.13
298.264	-3.58
298.479	13.38
298.694	10.74
298.909	22.7
299.125	35
299.34	39.83
299.555	28.19
299.77	44.65
299.985	-1.09
300.2	-6.5
300.415	-24.9
300.63	-11.84
300.845	-22.86
301.06	-19.5
301.275	-5.59
301.49	-7.11
301.704	-20.19
301.919	1.44
302.134	30.4
302.349	8.17
302.564	18.55
302.779	16.09
302.994	7.97
303.209	-7.88
303.423	7.67
303.638	8
303.853	20.59
304.068	25.95
304.283	25.69
304.497	26.17
304.712	7.34
304.927	1.91
305.142	-16
305.356	-35.46
305.571	-17.03
305.786	1.4
306	-12.91
306.215	5.56
306.43	14.69
306.644	-17.39
306.859	-40.3
307.074	-23.93
307.288	-39.36
307.503	-15.84
307.717	2.94
307.932	4.39
308.147	-9.82
308.361	-5.02
308.576	-20.48
308.79	-38.18
309.005	-3.56
309.219	22.25
309.434	34.49
309.648	35.71
309.863	51.75
310.077	42.57
310.292	29.99
310.506	14.89
310.72	27.25
310.935	14.17
311.149	14.94
311.364	11.59
311.578	6.9
311.792	-10.56
312.007	-24.11
312.221	-62.55
312.435	-45.89
312.649	-35.42
312.864	-263.36
313.078	-145.3
313.292	-96.46
313.507	-61.12
313.721	-25.45
313.935	17.39
314.149	19.33
314.363	18.89
314.578	12.57
314.792	15.45
315.006	34.38
315.22	23.23
315.434	26.23
315.648	17.32
315.862	3.69
316.077	-12.13
316.291	-7.86
316.505	0.83
316.719	11.7
316.933	26.72
317.147	33.18
317.361	20.15
317.575	15.86
317.789	-5.72
318.003	1.3
318.217	14.75
318.431	16.73
318.645	13.49
318.859	26.63
319.073	8.83
319.287	2.91
319.5	4.74
319.714	12.42
319.928	2.49
320.142	28.57
320.356	39.79
320.57	42.88
320.784	38.07
320.997	35.99
321.211	29.38
321.425	18.12
321.639	16.13
321.853	21.58
322.066	16.89
322.28	10.08
322.494	12.2
322.707	18.9
322.921	-7.76
323.135	-8.9
323.349	13.48
323.562	-3.56
323.776	-2.18
323.989	26.93
324.203	39.72
324.417	21.83
324.63	25.66
324.844	29.58
325.057	19.67
325.271	6.65
325.485	2.49
325.698	7.25
325.912	2.11
326.125	-4.66
326.339	-8.85
326.552	-6.7
326.766	-1.06
326.979	8.18
327.193	9.81
327.406	22.59
327.619	23.45
327.833	25.6
328.046	26.21
328.26	42.78
328.473	28.66
328.686	25.48
328.9	1.64
329.113	-16.7
329.326	-46.3
329.54	-43.1
329.753	-24.41
329.966	-1.02
330.179	-1.57
330.393	10.83
330.606	13.49
330.819	26.4
331.032	20.68
331.246	21.46
331.459	0.63
331.672	-7.13
331.885	-20.97
332.098	0.02
332.311	18.43
332.525	26.59
332.738	22.54
332.951	13.79
333.164	4
333.377	-15.03
333.59	0.01
333.803	19.77
334.016	18.11
334.229	7.17
334.442	11.13
334.655	11.48
334.868	7.39
335.081	32.02
335.294	42.45
335.507	42.34
335.72	41.81
335.933	36.47
336.146	20.45
336.359	23.59
336.572	14.53
336.785	9.21
336.997	15.31
337.21	26.48
337.423	21.1
337.636	22.89
337.849	19.88
338.062	4.16
338.274	-17.25
338.487	-31.04
338.7	-33.64
338.913	-30.25
339.125	-15.59
339.338	-4.78
339.551	5.83
339.763	9.32
339.976	0.01
340.189	7.62
340.402	-10.4
340.614	-37.11
340.827	-31.15
341.039	-4.59
341.252	-10.51
341.465	8.49
341.677	20.07
341.89	4.17
342.102	1.67
342.315	7.68
342.527	1.34
342.74	-0.81
342.952	10.7
343.165	17.01
343.377	14.07
343.59	23.63
343.802	35.09
344.015	32.62
344.227	17.07
344.44	16.61
344.652	13.47
344.864	-23
345.077	0.02
345.289	-12.8
345.502	-19.86
345.714	-29.39
345.926	-15.05
346.139	-46.91
346.351	-27.86
346.563	-4.69
346.775	1.27
346.988	-1.19
347.2	-4.87
347.412	-4.78
347.624	1.51
347.837	-0.45
348.049	8.46
348.261	20.79
348.473	29.04
348.685	15.41
348.897	20.29
349.11	30
349.322	31.79
349.534	38.4
349.746	35.64
349.958	48.51
350.17	15.66
350.382	26.92
350.594	12.25
350.806	32.49
351.018	19.66
351.23	39.26
351.442	27.2
351.654	29.92
351.866	-4.13
352.078	15.59
352.29	7.83
352.502	18.89
352.714	16.18
352.926	24.42
353.138	23.16
353.35	16.73
353.561	6.7
353.773	12.88
353.985	23.06
354.197	10.69
354.409	16.41
354.621	-0.51
354.832	-14.14
355.044	-12.19
355.256	2.51
355.468	-5.09
355.679	12.67
355.891	28.08
356.103	31.43
356.314	35.63
356.526	37.61
356.738	33.08
356.949	21.77
357.161	16.99
357.373	7.58
357.584	5.97
357.796	9.58
358.008	5.1
358.219	10.24
358.431	-6.67
358.642	-15.79
358.854	-18.04
359.065	-6.56
359.277	-13.05
359.488	2.2
359.7	9.45
359.911	15.75
360.123	11.21
360.334	19.94
360.546	7.72
360.757	5.17
360.969	4.56
361.18	21.46
361.391	11.62
361.603	12.4
361.814	30.6
362.025	24.34
362.237	18.03
362.448	25.14
362.659	28.31
362.871	14.24
363.082	7.46
363.293	-4.76
363.504	-9.27
363.716	-13.68
363.927	-21.21
364.138	-37.38
364.349	-20.22
364.56	-15.55
364.772	-15.04
364.983	-6.56
365.194	10.39
365.405	13.98
365.616	2.67
365.827	7
366.038	1.3
366.25	-14.51
366.461	-29.75
366.672	-18.48
366.883	-16.39
367.094	-19.83
367.305	2.8
367.516	12.8
367.727	6.62
367.938	6.64
368.149	16.1
368.36	18.41
368.571	27.9
368.781	28.43
368.992	33.52
369.203	41.17
369.414	36.65
369.625	19.83
369.836	19.42
370.047	13.84
370.258	7.64
370.468	9.85
370.679	-7.48
370.89	-27.05
371.101	-22.8
371.312	-24.03
371.522	-31.51
371.733	-15.09
371.944	-7.36
372.155	-25.97
372.365	-25.04
372.576	-19.44
372.787	-2.55
372.997	-1.81
373.208	5.73
373.419	1.71
373.629	12.73
373.84	13.74
374.05	14.81
374.261	17.61
374.472	17.96
374.682	-3.46
374.893	7.97
375.103	13.86
375.314	21.51
375.524	23.57
375.735	37.65
375.945	22.7
376.156	16.04
376.366	5.29
376.577	15.25
376.787	6.37
376.997	15.96
377.208	20.58
377.418	15.83
377.629	6.07
377.839	16.64
378.049	14.49
378.26	16.35
378.47	25.4
378.68	32.61
378.89	30.25
379.101	26.03
379.311	10.55
379.521	-6.93
379.732	-15.69
379.942	-23.49
380.152	-21.36
380.362	-14.63
380.572	2.46
380.783	-3.79
380.993	-3.2
381.203	-6.7
381.413	-9.65
381.623	-11.05
381.833	15.21
382.043	16.15
382.253	13.07
382.463	19.16
382.674	21.32
382.884	8.46
383.094	0.25
383.304	1.11
383.514	-6.18
383.724	2.98
383.934	-2.38
384.144	6.74
384.353	10.94
384.563	16.18
384.773	9.45
384.983	15.77
385.193	16.07
385.403	8.56
385.613	10.73
385.823	4.72
386.033	4.34
386.242	1.42
386.452	0.41
386.662	-5.36
386.872	0.5
387.082	0.27
387.291	-6.78
387.501	-5.98
387.711	-3.06
387.921	-6.82
388.13	-9.63
388.34	-4.53
388.55	-3.02
388.759	-0.99
388.969	2.04
389.179	3.75
389.388	4.61
389.598	7.67
389.807	4.56
390.017	3.68
390.227	7.97
390.436	6.6
390.646	3.87
390.855	5.27
391.065	5.01
391.274	1.23
391.484	2.42
391.693	1.94
391.903	2.19
392.112	1.68
392.322	2.72
392.531	1.28
392.74	3.05
392.95	2.18
393.159	3.95
393.369	4.69
393.578	5.62
393.787	6.02
393.997	6.74
394.206	5.4
394.415	5.22
394.625	5.86
394.834	4.88
395.043	3.81
395.252	4.38
395.462	3.96
395.671	4.28
395.88	5.11
396.089	5.13
396.298	5.56
396.508	4.82
396.717	3.87
396.926	3.7
397.135	3.67
397.344	3.31
397.553	3.84
397.762	4.23
397.971	4.06
398.181	4.63
398.39	4.35
398.599	4.51
398.808	4.5
399.017	4.7
399.226	4.76
399.435	5.35
399.644	5.77
399.853	6.19
400.062	6.4
400.27	6.47
400.479	6.29
400.688	5.84
400.897	5.52
401.106	5.27
401.315	4.85
401.524	4.78
401.733	4.66
401.941	4.82
402.15	4.94
402.359	4.94
402.568	4.95
402.777	5.14
402.985	5.07
403.194	4.91
403.403	5.02
403.612	4.79
403.82	4.69
404.029	4.54
404.238	4.43
404.446	4.57
404.655	4.71
404.864	4.71
405.072	4.53
405.281	4.56
405.489	4.32
405.698	4.28
405.906	4.22
406.115	4.31
406.324	4.31
406.532	4.32
406.741	4.3
406.949	4.35
407.158	4.39
407.366	4.33
407.574	4.18
407.783	4.2
407.991	4.07
408.2	3.95
408.408	3.88
408.617	4
408.825	4.02
409.033	4.11
409.242	4.26
409.45	4.33
409.658	4.42
409.867	4.36
410.075	4.31
410.283	4.16
410.491	4.07
410.7	4.02
410.908	4.1
411.116	4.13
411.324	4.22
411.533	4.35
411.741	4.29
411.949	4.24
412.157	4.19
412.365	4.02
412.573	3.82
412.781	3.85
412.99	3.82
413.198	3.87
413.406	3.93
413.614	4.15
413.822	4.16
414.03	4.08
414.238	3.98
414.446	4.16
414.654	4.04
414.862	3.99
415.07	3.97
415.278	4.07
415.486	3.81
415.694	3.88
415.902	3.83
416.109	3.85
416.317	3.87
416.525	3.86
416.733	3.82
416.941	3.8
417.149	3.75
417.357	3.56
417.564	3.63
417.772	3.42
417.98	3.55
418.188	3.54
418.395	3.59
418.603	3.51
418.811	3.72
419.019	3.65
419.226	3.94
419.434	3.94
419.642	3.98
419.849	3.92
420.057	3.9
420.265	3.58
420.472	3.5
420.68	3.51
420.887	3.46
421.095	3.47
421.302	3.68
421.51	3.83
421.717	3.79
421.925	3.89
422.132	3.92
422.34	3.66
422.547	3.43
422.755	3.5
422.962	3.46
423.17	3.34
423.377	3.53
423.585	3.73
423.792	3.75
423.999	3.71
424.207	3.78
424.414	3.59
424.621	3.51
424.829	3.29
425.036	3.36
425.243	3.37
425.451	3.4
425.658	3.33
425.865	3.46
426.072	3.32
426.28	3.34
426.487	3.37
426.694	3.36
426.901	3.22
427.108	3.18
427.315	3.09
427.523	3.2
427.73	3.38
427.937	3.48
428.144	3.55
428.351	3.63
428.558	3.69
428.765	3.74
428.972	3.92
429.179	4.08
429.386	4
429.593	3.83
429.8	3.77
430.007	3.73
430.214	3.7
430.421	3.77
430.628	3.9
430.835	3.84
431.042	3.78
431.249	3.74
431.456	3.7
431.662	3.78
431.869	3.92
432.076	3.93
432.283	4.06
432.49	4.04
432.697	3.94
432.903	3.65
433.11	3.65
433.317	3.49
433.524	3.63
433.73	3.54
433.937	3.83
434.144	3.8
434.35	3.83
434.557	3.72
434.764	3.8
434.97	3.68
435.177	3.86
435.384	3.89
435.59	3.99
435.797	4.04
436.003	4.22
436.21	4.11
436.416	4.05
436.623	3.93
436.829	3.91
437.036	3.76
437.242	3.84
437.449	3.96
437.655	4.23
437.862	4.32
438.068	4.33
438.275	4.27
438.481	4.18
438.687	4.03
438.894	4.06
439.1	4.03
439.307	3.99
439.513	4.18
439.719	4.16
439.926	4.02
440.132	4.07
440.338	4.18
440.544	3.97
440.751	3.9
440.957	4.01
441.163	4.11
441.369	4.16
441.575	4.22
441.782	4.32
441.988	4.26
442.194	4.17
442.4	4.08
442.606	4.23
442.812	4.25
443.018	4.3
443.224	4.36
443.431	4.31
443.637	4.33
443.843	4.32
444.049	4.31
444.255	4.3
444.461	4.35
444.667	4.22
444.873	4.16
445.079	4.2
445.284	4.26
445.49	4.21
445.696	4.27
445.902	4.3
446.108	4.23
446.314	4.22
446.52	4.33
446.726	4.29
446.931	4.31
447.137	4.41
447.343	4.33
447.549	4.23
447.755	4.2
447.96	4.35
448.166	4.34
448.372	4.35
448.578	4.45
448.783	4.52
448.989	4.45
449.195	4.35
449.4	4.36
449.606	4.3
449.812	4.32
450.017	4.32
450.223	4.34
450.428	4.33
450.634	4.47
450.84	4.5
451.045	4.4
451.251	4.52
451.456	4.53
451.662	4.47
451.867	4.42
452.073	4.55
452.278	4.4
452.483	4.55
452.689	4.55
452.894	4.54
453.1	4.56
453.305	4.68
453.51	4.55
453.716	4.56
453.921	4.6
454.127	4.53
454.332	4.4
454.537	4.43
454.742	4.45
454.948	4.37
455.153	4.44
455.358	4.6
455.563	4.74
455.769	4.55
455.974	4.69
456.179	4.57
456.384	4.49
456.589	4.43
456.795	4.58
457	4.53
457.205	4.69
457.41	4.74
457.615	4.64
457.82	4.64
458.025	4.62
458.23	4.5
458.435	4.44
458.64	4.49
458.845	4.49
459.05	4.47
459.255	4.48
459.46	4.54
459.665	4.64
459.87	4.58
460.075	4.66
460.28	4.65
460.485	4.67
460.69	4.61
460.895	4.62
461.099	4.62
461.304	4.57
461.509	4.58
461.714	4.57
461.919	4.64
462.123	4.59
462.328	4.7
462.533	4.72
462.738	4.69
462.942	4.62
463.147	4.82
463.352	4.87
463.556	4.91
463.761	4.79
463.966	4.92
464.17	4.84
464.375	4.77
464.58	4.65
464.784	4.85
464.989	4.8
465.193	4.78
465.398	4.89
465.602	5.13
465.807	5.08
466.011	5.15
466.216	5.09
466.42	5.03
466.625	4.99
466.829	5.11
467.034	5.14
467.238	5.14
467.443	5.14
467.647	4.97
467.851	4.99
468.056	4.94
468.26	4.95
468.464	4.95
468.669	5.02
468.873	4.94
469.077	4.92
469.282	4.94
469.486	4.96
469.69	5.02
469.894	4.96
470.099	5.07
470.303	5.12
470.507	5.1
470.711	5.04
470.915	5.15
471.119	5.09
471.324	5.05
471.528	5.07
471.732	5.14
471.936	5.11
472.14	5.11
472.344	5.21
472.548	5.32
472.752	5.33
472.956	5.28
473.16	5.25
473.364	5.21
473.568	5.1
473.772	5
473.976	5.06
474.18	5.12
474.384	5.18
474.588	5.2
474.792	5.31
474.995	5.3
475.199	5.31
475.403	5.25
475.607	5.26
475.811	5.26
476.015	5.25
476.218	5.24
476.422	5.19
476.626	5.13
476.83	5.05
477.033	5.07
477.237	5.08
477.441	5.11
477.644	5.2
477.848	5.22
478.052	5.22
478.255	5.18
478.459	5.22
478.663	5.21
478.866	5.33
479.07	5.38
479.273	5.43
479.477	5.44
479.681	5.52
479.884	5.45
480.088	5.36
480.291	5.36
480.495	5.36
480.698	5.33
480.901	5.24
481.105	5.31
481.308	5.25
481.512	5.21
481.715	5.17
481.919	5.28
482.122	5.33
482.325	5.43
482.529	5.47
482.732	5.59
482.935	5.52
483.138	5.48
483.342	5.43
483.545	5.48
483.748	5.47
483.952	5.58
484.155	5.64
484.358	5.58
484.561	5.54
484.764	5.44
484.967	5.41
485.171	5.39
485.374	5.41
485.577	5.47
485.78	5.45
485.983	5.5
486.186	5.44
486.389	5.5
486.592	5.45
486.795	5.56
486.998	5.45
487.201	5.54
487.404	5.57
487.607	5.6
487.81	5.49
488.013	5.55
488.216	5.53
488.419	5.53
488.622	5.52
488.825	5.55
489.028	5.53
489.231	5.61
489.433	5.55
489.636	5.55
489.839	5.53
490.042	5.51
490.245	5.35
490.447	5.36
490.65	5.37
490.853	5.4
491.056	5.48
491.258	5.52
491.461	5.53
491.664	5.49
491.866	5.49
492.069	5.46
492.272	5.5
492.474	5.44
492.677	5.47
492.879	5.43
493.082	5.46
493.285	5.5
493.487	5.49
493.69	5.49
493.892	5.5
494.095	5.45
494.297	5.46
494.5	5.52
494.702	5.51
494.905	5.6
495.107	5.61
495.309	5.68
495.512	5.7
495.714	5.78
495.917	5.78
496.119	5.8
496.321	5.69
496.524	5.75
496.726	5.69
496.928	5.67
497.13	5.73
497.333	5.78
497.535	5.77
497.737	5.77
497.939	5.78
498.142	5.81
498.344	5.86
498.546	5.81
498.748	5.89
498.95	5.86
499.152	5.84
499.355	5.84
499.557	5.85
499.759	5.8
499.961	5.83
500.163	5.78
500.365	5.82
500.567	5.85
500.769	5.93
500.971	5.99
501.173	6.04
501.375	5.98
501.577	6.01
501.779	5.98
501.981	5.96
502.183	5.95
502.385	5.92
502.587	5.83
502.788	5.91
502.99	5.92
503.192	5.93
503.394	5.98
503.596	6.11
503.798	6.04
503.999	6.13
504.201	6.15
504.403	6.19
504.605	6.17
504.806	6.2
505.008	6.16
505.21	6.19
505.411	6.14
505.613	6.11
505.815	6.13
506.016	6.13
506.218	6.11
506.42	6.21
506.621	6.25
506.823	6.16
507.024	6.12
507.226	6.2
507.427	6.17
507.629	6.22
507.83	6.31
508.032	6.35
508.233	6.36
508.435	6.29
508.636	6.32
508.838	6.28
509.039	6.26
509.24	6.19
509.442	6.27
509.643	6.2
509.845	6.22
510.046	6.29
510.247	6.42
510.448	6.45
510.65	6.52
510.851	6.46
511.052	6.42
511.254	6.38
511.455	6.33
511.656	6.28
511.857	6.31
512.058	6.3
512.26	6.29
512.461	6.23
512.662	6.21
512.863	6.18
513.064	6.21
513.265	6.19
513.466	6.26
513.667	6.31
513.868	6.35
514.069	6.32
514.27	6.33
514.471	6.3
514.672	6.24
514.873	6.21
515.074	6.26
515.275	6.24
515.476	6.22
515.677	6.28
515.878	6.37
516.079	6.31
516.28	6.36
516.481	6.4
516.682	6.35
516.882	6.25
517.083	6.28
517.284	6.22
517.485	6.22
517.686	6.23
517.886	6.31
518.087	6.3
518.288	6.28
518.488	6.21
518.689	6.23
518.89	6.25
519.091	6.29
519.291	6.34
519.492	6.4
519.692	6.37
519.893	6.36
520.094	6.31
520.294	6.34
520.495	6.41
520.695	6.45
520.896	6.42
521.096	6.45
521.297	6.47
521.497	6.44
521.698	6.38
521.898	6.35
522.099	6.32
522.299	6.28
522.499	6.3
522.7	6.36
522.9	6.42
523.101	6.47
523.301	6.5
523.501	6.49
523.702	6.5
523.902	6.45
524.102	6.47
524.302	6.49
524.503	6.5
524.703	6.48
524.903	6.54
525.103	6.54
525.304	6.53
525.504	6.52
525.704	6.57
525.904	6.58
526.104	6.56
526.304	6.61
526.504	6.64
526.705	6.6
526.905	6.58
527.105	6.61
527.305	6.6
527.505	6.62
527.705	6.66
527.905	6.68
528.105	6.62
528.305	6.56
528.505	6.49
528.705	6.52
528.905	6.54
529.105	6.56
529.304	6.59
529.504	6.67
529.704	6.63
529.904	6.62
530.104	6.63
530.304	6.65
530.503	6.64
530.703	6.62
530.903	6.68
531.103	6.74
531.303	6.78
531.502	6.81
531.702	6.9
531.902	6.88
532.101	6.85
532.301	6.84
532.501	6.87
532.7	6.86
532.9	6.91
533.1	6.97
533.299	6.93
533.499	6.94
533.698	6.95
533.898	6.95
534.097	6.94
534.297	7.05
534.496	7
534.696	7.01
534.895	7.05
535.095	7.04
535.294	7
535.494	7.06
535.693	7.07
535.892	7.12
536.092	7.09
536.291	7.13
536.491	7.13
536.69	7.09
536.889	7.04
537.088	7.11
537.288	7.13
537.487	7.2
537.686	7.29
537.886	7.3
538.085	7.3
538.284	7.31
538.483	7.31
538.682	7.37
538.882	7.44
539.081	7.51
539.28	7.52
539.479	7.48
539.678	7.45
539.877	7.38
540.076	7.41
540.275	7.4
540.474	7.49
540.673	7.52
540.872	7.57
541.071	7.55
541.27	7.59
541.469	7.65
541.668	7.7
541.867	7.77
542.066	7.85
542.265	7.89
542.464	7.85
542.663	7.92
542.862	8.04
543.06	8.12
543.259	8.2
543.458	8.24
543.657	8.29
543.856	8.23
544.054	8.2
544.253	8.15
544.452	8.18
544.651	8.18
544.849	8.18
545.048	8.24
545.247	8.32
545.445	8.32
545.644	8.36
545.843	8.42
546.041	8.41
546.24	8.5
546.438	8.54
546.637	8.56
546.836	8.6
547.034	8.6
547.233	8.69
547.431	8.76
547.63	8.79
547.828	8.92
548.027	9.03
548.225	8.99
548.423	9.03
548.622	9.09
548.82	9.06
549.019	9.09
549.217	9.16
549.415	9.22
549.614	9.31
549.812	9.35
550.01	9.36
550.209	9.37
550.407	9.44
550.605	9.44
550.803	9.47
551.002	9.56
551.2	9.61
551.398	9.62
551.596	9.67
551.794	9.81
551.993	9.83
552.191	9.9
552.389	9.93
552.587	10
552.785	10.02
552.983	10.18
553.181	10.23
553.379	10.36
553.577	10.39
553.775	10.5
553.973	10.54
554.171	10.63
554.369	10.69
554.567	10.79
554.765	10.82
554.963	10.83
555.161	10.84
555.359	10.9
555.557	11
555.755	11.03
555.952	11.14
556.15	11.25
556.348	11.31
556.546	11.41
556.744	11.53
556.941	11.59
557.139	11.7
557.337	11.82
557.535	11.79
557.732	11.76
557.93	11.82
558.128	11.84
558.325	11.88
558.523	12
558.721	12.16
558.918	12.22
559.116	12.34
559.313	12.4
559.511	12.49
559.708	12.49
559.906	12.62
560.104	12.62
560.301	12.71
560.498	12.79
560.696	12.85
560.893	12.89
561.091	13.03
561.288	13.11
561.486	13.17
561.683	13.26
561.88	13.4
562.078	13.49
562.275	13.59
562.473	13.63
562.67	13.66
562.867	13.63
563.064	13.6
563.262	13.59
563.459	13.55
563.656	13.72
563.853	13.87
564.051	13.95
564.248	13.99
564.445	14.15
564.642	14.12
564.839	14.16
565.036	14.27
565.234	14.31
565.431	14.31
565.628	14.39
565.825	14.39
566.022	14.42
566.219	14.48
566.416	14.55
566.613	14.7
566.81	14.82
567.007	14.83
567.204	14.9
567.401	14.91
567.598	14.94
567.795	14.81
567.991	14.88
568.188	14.94
568.385	14.97
568.582	14.96
568.779	15.04
568.976	15.11
569.172	15.21
569.369	15.32
569.566	15.32
569.763	15.38
569.96	15.39
570.156	15.32
570.353	15.27
570.55	15.37
570.746	15.37
570.943	15.36
571.14	15.32
571.336	15.33
571.533	15.29
571.729	15.38
571.926	15.45
572.123	15.47
572.319	15.51
572.516	15.58
572.712	15.53
572.909	15.45
573.105	15.59
573.302	15.61
573.498	15.44
573.695	15.43
573.891	15.52
574.087	15.46
574.284	15.49
574.48	15.6
574.677	15.61
574.873	15.55
575.069	15.46
575.266	15.42
575.462	15.36
575.658	15.48
575.854	15.52
576.051	15.59
576.247	15.55
576.443	15.55
576.639	15.53
576.835	15.45
577.032	15.34
577.228	15.35
577.424	15.41
577.62	15.28
577.816	15.25
578.012	15.27
578.208	15.27
578.404	15.2
578.6	15.15
578.796	15.14
578.993	15.23
579.189	15.18
579.384	15.2
579.58	15.19
579.776	15.17
579.972	14.99
580.168	14.94
580.364	14.78
580.56	14.75
580.756	14.7
580.952	14.66
581.148	14.67
581.343	14.76
581.539	14.76
581.735	14.82
581.931	14.86
582.127	14.78
582.322	14.67
582.518	14.65
582.714	14.53
582.909	14.43
583.105	14.51
583.301	14.51
583.496	14.52
583.692	14.49
583.888	14.53
584.083	14.44
584.279	14.49
584.474	14.43
584.67	14.38
584.866	14.51
585.061	14.54
585.257	14.46
585.452	14.44
585.648	14.42
585.843	14.27
586.039	14.13
586.234	14.13
586.429	14.1
586.625	14.16
586.82	14.15
587.015	14.28
587.211	14.22
587.406	14.24
587.601	14.23
587.797	14.22
587.992	14.1
588.187	14.11
588.383	14.12
588.578	14.14
588.773	14.13
588.968	14.19
589.163	14.28
589.359	14.33
589.554	14.3
589.749	14.25
589.944	14.27
590.139	14.12
590.334	14.02
590.529	14.03
590.724	14.04
590.919	14.04
591.114	14.14
591.309	14.14
591.504	14.26
591.699	14.27
591.894	14.3
592.089	14.32
592.284	14.34
592.479	14.28
592.674	14.32
592.869	14.41
593.064	14.47
593.259	14.5
593.454	14.49
593.648	14.51
593.843	14.53
594.038	14.44
594.233	14.54
594.428	14.59
594.622	14.64
594.817	14.61
595.012	14.7
595.206	14.69
595.401	14.74
595.596	14.72
595.79	14.8
595.985	14.86
596.18	14.88
596.374	14.87
596.569	14.98
596.763	14.92
596.958	15.01
597.153	15.08
597.347	15.22
597.542	15.24
597.736	15.36
597.931	15.32
598.125	15.35
598.319	15.45
598.514	15.55
598.708	15.63
598.903	15.68
599.097	15.66
599.291	15.68
599.486	15.73
599.68	15.68
599.874	15.74
600.069	15.93
600.263	15.82
600.457	15.81
600.651	15.87
600.846	15.84
601.04	15.9
601.234	16.01
601.428	16.14
601.622	16.24
601.817	16.28
602.011	16.19
602.205	16.09
602.399	16.04
602.593	16.01
602.787	16.01
602.981	16
603.175	16.09
603.369	16.04
603.563	15.99
603.757	16.04
603.951	16.03
604.145	16.03
604.339	16.05
604.533	16.07
604.727	16.03
604.921	16.05
605.115	16
605.309	15.94
605.502	15.91
605.696	15.84
605.89	15.78
606.084	15.79
606.278	15.79
606.471	15.73
606.665	15.67
606.859	15.68
607.053	15.6
607.246	15.51
607.44	15.47
607.634	15.48
607.827	15.43
608.021	15.39
608.214	15.38
608.408	15.38
608.602	15.39
608.795	15.36
608.989	15.27
609.182	15.21
609.376	15.2
609.569	15.09
609.763	15.01
609.956	14.97
610.15	14.91
610.343	14.76
610.537	14.69
610.73	14.62
610.923	14.61
611.117	14.58
611.31	14.55
611.504	14.58
611.697	14.53
611.89	14.51
612.083	14.31
612.277	14.23
612.47	14.14
612.663	14.09
612.856	13.96
613.05	14.05
613.243	14.04
613.436	13.93
613.629	13.83
613.822	13.79
614.015	13.72
614.209	13.57
614.402	13.56
614.595	13.56
614.788	13.44
614.981	13.32
615.174	13.33
615.367	13.2
615.56	13.08
615.753	13.09
615.946	13.07
616.139	13.05
616.332	13.05
616.525	13.05
616.718	12.89
616.911	12.86
617.103	12.89
617.296	12.82
617.489	12.83
617.682	12.92
617.875	12.87
618.067	12.71
618.26	12.75
618.453	12.6
618.646	12.55
618.838	12.59
619.031	12.52
619.224	12.42
619.417	12.49
619.609	12.42
619.802	12.37
619.994	12.38
620.187	12.32
620.38	12.21
620.572	12.18
620.765	12.18
620.957	12.13
621.15	12.05
621.342	12.07
621.535	12.1
621.727	12.05
621.92	11.97
622.112	11.98
622.305	12.02
622.497	11.97
622.69	11.91
622.882	11.94
623.074	11.95
623.267	11.85
623.459	11.88
623.651	11.81
623.844	11.83
624.036	11.79
624.228	11.81
624.42	11.76
624.613	11.83
624.805	11.8
624.997	11.77
625.189	11.76
625.381	11.8
625.574	11.76
625.766	11.7
625.958	11.74
626.15	11.73
626.342	11.67
626.534	11.64
626.726	11.67
626.918	11.66
627.11	11.56
627.302	11.5
627.494	11.48
627.686	11.42
627.878	11.4
628.07	11.42
628.262	11.41
628.454	11.23
628.646	11.23
628.838	11.18
629.029	11.09
629.221	11
629.413	11.05
629.605	10.95
629.797	10.95
629.989	10.96
630.18	11.03
630.372	11.08
630.564	11.14
630.755	11.13
630.947	11.09
631.139	11.03
631.33	10.93
631.522	10.95
631.714	10.84
631.905	10.85
632.097	10.85
632.289	10.88
632.48	10.8
632.672	10.76
632.863	10.62
633.055	10.55
633.246	10.41
633.438	10.39
633.629	10.34
633.821	10.4
634.012	10.36
634.203	10.43
634.395	10.41
634.586	10.6
634.777	10.54
634.969	10.49
635.16	10.5
635.351	10.43
635.543	10.32
635.734	10.34
635.925	10.39
636.117	10.43
636.308	10.52
636.499	10.47
636.69	10.41
636.881	10.41
637.073	10.38
637.264	10.36
637.455	10.39
637.646	10.44
637.837	10.47
638.028	10.51
638.219	10.44
638.41	10.33
638.601	10.28
638.792	10.13
638.983	10.05
639.174	9.98
639.365	9.92
639.556	9.89
639.747	9.93
639.938	9.94
640.129	10.01
640.32	10.1
640.511	10.12
640.701	10.14
640.892	10.18
641.083	10.16
641.274	10.15
641.465	10.14
641.655	10.06
641.846	9.91
642.037	9.78
642.228	9.76
642.418	9.68
642.609	9.73
642.8	9.73
642.99	9.72
643.181	9.67
643.372	9.73
643.562	9.62
643.753	9.66
643.943	9.69
644.134	9.68
644.324	9.69
644.515	9.72
644.705	9.7
644.896	9.72
645.086	9.76
645.277	9.76
645.467	9.7
645.658	9.67
645.848	9.59
646.038	9.6
646.229	9.5
646.419	9.54
646.61	9.6
646.8	9.68
646.99	9.52
647.18	9.55
647.371	9.53
647.561	9.38
647.751	9.15
647.941	9.22
648.132	9.2
648.322	9.29
648.512	9.33
648.702	9.48
648.892	9.5
649.082	9.55
649.272	9.35
649.462	9.31
649.653	9.26
649.843	9.2
650.033	9.26
650.223	9.37
650.413	9.41
650.603	9.48
650.793	9.55
650.983	9.36
651.172	9.31
651.362	9.27
651.552	9.15
651.742	9.07
651.932	9.01
652.122	9.1
652.312	9.02
652.502	8.91
652.691	8.92
652.881	9
653.071	8.82
653.261	8.68
653.45	8.73
653.64	8.62
653.83	8.42
654.019	8.39
654.209	8.52
654.399	8.45
654.588	8.44
654.778	8.55
654.968	8.54
655.157	8.41
655.347	8.36
655.536	8.2
655.726	8.07
655.915	7.99
656.105	7.88
656.294	7.79
656.484	7.73
656.673	7.65
656.863	7.6
657.052	7.53
657.241	7.5
657.431	7.41
657.62	7.31
657.809	7.16
657.999	7.11
658.188	6.96
658.377	6.9
658.567	6.93
658.756	6.75
658.945	6.64
659.134	6.53
659.324	6.58
659.513	6.47
659.702	6.42
659.891	6.42
660.08	6.41
660.269	6.24
660.458	6.11
660.648	6.14
660.837	5.99
661.026	5.91
661.215	5.91
661.404	5.82
661.593	5.71
661.782	5.65
661.971	5.65
662.16	5.63
662.349	5.54
662.538	5.45
662.726	5.44
662.915	5.4
663.104	5.18
663.293	5.18
663.482	5.2
663.671	5.17
663.86	5.02
664.048	5.09
664.237	5.16
664.426	5.1
664.615	5.13
664.803	5.25
664.992	5.21
665.181	5.11
665.369	5.15
665.558	5.03
665.747	4.89
665.935	4.76
666.124	4.77
666.312	4.63
666.501	4.73
666.69	4.7
666.878	4.7
667.067	4.64
667.255	4.75
667.444	4.82
667.632	4.89
667.82	5.04
668.009	5.05
668.197	5.04
668.386	4.83
668.574	4.88
668.762	4.83
668.951	4.94
669.139	4.93
669.327	4.91
669.516	4.92
669.704	4.88
669.892	4.82
670.08	4.9
670.269	5.03
670.457	5.01
670.645	5.02
670.833	5.03
671.021	5
671.21	4.94
671.398	5
671.586	4.99
671.774	5.03
671.962	4.88
672.15	4.98
672.338	4.96
672.526	4.99
672.714	4.86
672.902	4.97
673.09	4.93
673.278	4.93
673.466	5.11
673.654	5.31
673.842	5.33
674.03	5.45
674.218	5.47
674.405	5.49
674.593	5.55
674.781	5.62
674.969	5.65
675.157	5.74
675.344	5.65
675.532	5.56
675.72	5.46
675.908	5.51
676.095	5.56
676.283	5.63
676.471	5.84
676.658	6.04
676.846	6.08
677.033	6.12
677.221	6.21
677.409	6.09
677.596	6.09
677.784	6.07
677.971	6.09
678.159	6.09
678.346	6.11
678.534	6.26
678.721	6.29
678.909	6.35
679.096	6.43
679.283	6.52
679.471	6.45
679.658	6.69
679.846	6.6
680.033	6.74
680.22	6.66
680.408	6.75
680.595	6.47
680.782	6.55
680.969	6.42
681.157	6.55
681.344	6.5
681.531	6.78
681.718	6.84
681.905	6.82
682.093	6.97
682.28	7.08
682.467	7.05
682.654	7.18
682.841	7.3
683.028	7.18
683.215	7.33
683.402	7.31
683.589	7.27
683.776	7.46
683.963	7.56
684.15	7.63
684.337	7.85
684.524	7.95
684.711	7.97
684.898	8.16
685.085	8.11
685.271	8.1
685.458	8.29
685.645	8.4
685.832	8.47
686.019	8.73
686.205	8.88
686.392	9.03
686.579	9.17
686.766	9.31
686.952	9.31
687.139	9.56
687.326	9.67
687.512	9.78
687.699	10.11
687.886	10.39
688.072	10.58
688.259	10.74
688.445	11.03
688.632	11.06
688.818	11.37
689.005	11.6
689.191	11.98
689.378	12.23
689.564	12.52
689.751	12.67
689.937	12.89
690.124	13.14
690.31	13.43
690.496	14
690.683	14.57
690.869	14.9
691.055	15.27
691.242	15.77
691.428	15.83
691.614	16.06
691.8	16.55
691.987	16.82
692.173	17.14
692.359	17.7
692.545	18.3
692.731	18.65
692.918	19.22
693.104	19.72
693.29	20.24
693.476	20.59
693.662	21.31
693.848	21.85
694.034	22.31
694.22	22.95
694.406	23.48
694.592	23.93
694.778	24.31
694.964	24.79
695.15	25.08
695.336	25.57
695.522	26.01
695.708	26.91
695.894	27.56
696.08	28.4
696.265	29
696.451	29.71
696.637	30.05
696.823	30.49
697.009	30.85
697.194	31.34
697.38	32.01
697.566	32.66
697.751	33.22
697.937	33.88
698.123	34.5
698.308	34.78
698.494	35.04
698.68	35.52
698.865	35.98
699.051	36.45
699.236	37.23
699.422	38.18
699.607	39.05
699.793	39.68
699.978	40.23
700.164	40.92
700.349	41.46
700.535	41.8
700.72	42.19
700.906	42.97
701.091	43.37
701.276	43.79
701.462	44.88
701.647	45.62
701.832	46.27
702.018	46.87
702.203	47.34
702.388	47.51
702.573	47.8
702.759	47.82
702.944	48.02
703.129	48.56
703.314	49.05
703.499	49.87
703.684	50.06
703.87	50.87
704.055	51.11
704.24	51.6
704.425	51.78
704.61	52.67
704.795	52.64
704.98	53.37
705.165	53.28
705.35	53.95
705.535	54.39
705.72	55.02
705.905	55.1
706.09	55.83
706.275	56
706.459	56.4
706.644	56.68
706.829	57.32
707.014	57.89
707.199	58.33
707.384	58.74
707.568	59
707.753	59.45
707.938	59.68
708.123	60.37
708.307	60.95
708.492	61.3
708.677	61.52
708.861	61.64
709.046	61.62
709.231	61.89
709.415	62.12
709.6	62.21
709.784	62.92
709.969	62.93
710.153	62.94
710.338	63.48
710.522	64.06
710.707	64.4
710.891	64.89
711.076	65.27
711.26	65.77
711.445	65.76
711.629	65.94
711.813	66.1
711.998	66.17
712.182	66.05
712.366	66.47
712.551	66.74
712.735	67.24
712.919	67.53
713.103	67.7
713.288	67.75
713.472	67.48
713.656	67.3
713.84	67.7
714.024	68.04
714.208	68.95
714.393	68.91
714.577	69.46
714.761	69.88
714.945	70.09
715.129	69.83
715.313	70.93
715.497	71.08
715.681	71.12
715.865	71.28
716.049	70.99
716.233	70.59
716.417	70.95
716.601	70.85
716.785	71.2
716.968	71.5
717.152	72.03
717.336	72.14
717.52	72.34
717.704	71.94
717.888	72.21
718.071	72.66
718.255	72.58
718.439	72.32
718.622	72.81
718.806	72.79
718.99	72.63
719.174	72.75
719.357	73.32
719.541	73.24
719.724	73.65
719.908	73.74
720.092	74.04
720.275	74.43
720.459	75.22
720.642	75.62
720.826	75.47
721.009	75.56
721.193	75.43
721.376	75.51
721.559	75.92
721.743	76.65
721.926	77.63
722.11	77.59
722.293	77.52
722.476	77.22
722.66	76.59
722.843	75.63
723.026	76.12
723.21	76.06
723.393	75.87
723.576	76.47
723.759	76.7
723.942	76.32
724.126	76.47
724.309	77.13
724.492	76.78
724.675	77.43
724.858	78.05
725.041	77.89
725.224	78.24
725.407	78.5
725.59	78.23
725.774	77.9
725.957	78.35
726.14	78.09
726.322	77.98
726.505	77.75
726.688	78.25
726.871	78.69
727.054	78.42
727.237	79.12
727.42	79.68
727.603	79.62
727.786	79.4
727.968	78.91
728.151	78.75
728.334	78.52
728.517	78.85
728.699	79.95
728.882	80.7
729.065	80.72
729.248	81.21
729.43	80.72
729.613	80.52
729.796	81.04
729.978	81.68
730.161	80.97
730.343	81.61
730.526	81.11
730.708	81.65
730.891	81.25
731.073	81.17
731.256	81.03
731.438	81.2
731.621	80.8
731.803	81.44
731.986	81.68
732.168	81.03
732.35	80.6
732.533	80.34
732.715	79.72
732.898	79.4
733.08	80.34
733.262	81.1
733.444	81.27
733.627	81.38
733.809	82.65
733.991	83.26
734.173	83.66
734.355	83.05
734.538	83.73
734.72	83.13
734.902	82.76
735.084	81.6
735.266	83.01
735.448	82.68
735.63	83.2
735.812	83.99
735.994	84.19
736.176	83.53
736.358	83.13
736.54	83.11
736.722	81.49
736.904	82.13
737.086	82.43
737.268	83.6
737.45	84.71
737.632	85.23
737.814	84.89
737.995	84.94
738.177	83.87
738.359	82.54
738.541	84.23
738.723	84.94
738.904	85.06
739.086	85.1
739.268	85.4
739.449	84.27
739.631	83.96
739.813	84.02
739.994	84.84
740.176	84.97
740.358	85.02
740.539	86.11
740.721	85.77
740.902	86.07
741.084	86.4
741.265	86.25
741.447	85.47
741.628	87.22
741.81	86.85
741.991	85.85
742.172	86.1
742.354	85.67
742.535	84.11
742.717	83.18
742.898	83.28
743.079	83.56
743.261	84.65
743.442	84.82
743.623	86.49
743.804	87.25
743.986	87.51
744.167	86.92
744.348	86.15
744.529	86.24
744.71	86.63
744.891	86.14
745.073	86
745.254	87.11
745.435	87.28
745.616	86.62
745.797	87.2
745.978	88.3
746.159	88.77
746.34	86.17
746.521	87.37
746.702	86.19
746.883	83.88
747.064	81.38
747.245	83.04
747.426	83.06
747.606	83.05
747.787	84.79
747.968	88.04
748.149	88.27
748.33	87.07
748.51	87.63
748.691	85.99
748.872	83.74
749.053	83.36
749.233	84.47
749.414	84.43
749.595	86.41
749.775	87.12
749.956	87.81
750.137	86.87
750.317	87.27
750.498	86.15
750.678	86.71
750.859	84.98
751.04	85.38
751.22	85.56
751.4	85.76
751.581	85.14
751.761	87.01
751.942	87.96
752.122	86.45
752.303	85.31
752.483	87.04
752.663	86.66
752.844	86.06
753.024	87.78
753.204	88.45
753.385	86.2
753.565	86.58
753.745	86.09
753.925	86.6
754.106	87.28
754.286	87.83
754.466	87.3
754.646	88.74
754.826	86.49
755.006	85.84
755.187	84.94
755.367	84.86
755.547	84.13
755.727	85.96
755.907	85.53
756.087	87.29
756.267	86.52
756.447	86.85
756.627	84.4
756.807	85.6
756.987	86.49
757.167	86.55
757.346	86.61
757.526	88.51
757.706	88.31
757.886	86.79
758.066	89.65
758.246	89.23
758.425	88.69
758.605	88.3
758.785	89.64
758.965	87.94
759.144	87.9
759.324	86.76
759.504	88.49
759.683	88.52
759.863	88.71
760.043	88.6
760.222	89.28
760.402	87.41
760.581	88.03
760.761	87.82
760.94	86.27
761.12	89.8
761.299	90.15
761.479	88.01
761.658	86.5
761.838	87.02
762.017	85.62
762.197	86.11
762.376	86.81
762.555	89
762.735	88.2
762.914	88.45
763.093	88.55
763.273	87.41
763.452	86.04
763.631	88.03
763.81	87.15
763.99	87.95
764.169	87.64
764.348	86.69
764.527	86.36
764.706	85.61
764.885	85.1
765.064	84.59
765.243	85.57
765.423	85.71
765.602	86.47
765.781	84.88
765.96	84.37
766.139	84.96
766.318	83.35
766.497	83.16
766.676	84
766.854	86.52
767.033	85.44
767.212	85.9
767.391	84.13
767.57	83.85
767.749	83.08
767.928	83.29
768.106	82.95
768.285	82.2
768.464	79.67
768.643	80.19
768.821	79.69
769	80.96
769.179	80.79
769.357	82.47
769.536	81.61
769.715	81.51
769.893	81.48
770.072	82.29
770.25	82.13
770.429	80.78
770.607	81.23
770.786	77.81
770.964	79.12
771.143	81.38
771.321	83.54
771.5	82.82
771.678	85.9
771.857	85.69
772.035	84.93
772.213	84.82
772.392	84.42
772.57	84.73
772.748	82.75
772.927	81.84
773.105	80.79
773.283	81.7
773.461	81.57
773.64	82.52
773.818	81.33
773.996	82.17
774.174	81.6
774.352	81.89
774.531	82.41
774.709	83.73
774.887	83.89
775.065	83.77
775.243	81.89
775.421	80.59
775.599	79.65
775.777	77.27
775.955	77.34
776.133	77.07
776.311	78.21
776.489	79.24
776.667	81
776.844	82.63
777.022	84.83
777.2	84.02
777.378	82.21
777.556	83.26
777.734	82.38
777.911	83.87
778.089	84.08
778.267	85.25
778.445	80.29
778.622	80.16
778.8	77.44
778.978	78.08
779.155	78.91
779.333	82.06
779.511	79.44
779.688	80.15
779.866	80.18
780.043	77.73
780.221	76.87
780.398	78.4
780.576	77.97
780.753	76.09
780.931	77.94
781.108	79.57
781.286	81.77
781.463	82.26
781.64	82.9
781.818	85.19
781.995	84.12
782.172	83.41
782.35	81.59
782.527	83.78
782.704	79.03
782.882	79.89
783.059	77.62
783.236	76.7
783.413	74.4
783.59	76.09
783.768	72.19
783.945	71.34
784.122	73.75
784.299	72.67
784.476	71.77
784.653	73.57
784.83	75.39
785.007	71.78
785.184	73.42
785.361	76.22
785.538	80.45
785.715	79.81
785.892	83.14
786.069	84.99
786.246	85.21
786.423	82.34
786.6	82.37
786.776	80.98
786.953	78.15
787.13	79.09
787.307	76.98
787.484	78.89
787.66	78.16
787.837	80.78
788.014	85.12
788.191	85.07
788.367	84.15
788.544	86.75
788.721	84.25
788.897	75.54
789.074	77.32
789.25	75.11
789.427	71.88
789.603	69.5
789.78	71.63
789.956	73.76
790.133	72.65
790.309	73.56
790.486	76.58
790.662	75.81
790.839	67.44
791.015	70.03
791.192	70.56
791.368	70.85
791.544	70.42
791.721	77.12
791.897	78.1
792.073	79.63
792.249	77.1
792.426	79.48
792.602	80.24
792.778	74.97
792.954	71.3
793.13	74.8
793.307	72.8
793.483	68.57
793.659	75.94
793.835	74
794.011	73.42
794.187	70.43
794.363	69.88
794.539	67.28
794.715	72.68
794.891	69.92
795.067	70.34
795.243	76.66
795.419	75.95
795.595	73.53
795.771	77.22
795.947	83.23
796.122	80.24
796.298	80.95
796.474	77.21
796.65	71.72
796.826	65.7
797.001	65.58
797.177	65.74
797.353	68.15
797.529	75.49
797.704	77.07
797.88	75.81
798.056	74.63
798.231	76.62
798.407	74.03
798.582	75.39
798.758	80.66
798.934	82.49
799.109	80.17
799.285	79.87
799.46	78.57
799.636	78.02
799.811	76.66
799.986	76.99
800.162	76.87
800.337	76.36
800.513	76.52
800.688	77.41
800.863	80.45
801.039	79.86
801.214	82.52
801.389	79.35
801.565	76.94
801.74	76.29
801.915	76.8
802.09	73.18
802.265	75.1
802.441	73.35
802.616	73.91
802.791	66.78
802.966	74.28
803.141	74.93
803.316	71.88
803.491	68.65
803.666	76.18
803.841	74.47
804.016	74.13
804.191	75.02
804.366	80.12
804.541	72.44
804.716	67.6
804.891	54.9
805.066	57.48
805.241	54.66
805.416	59.03
805.591	58.55
805.765	68.74
805.94	66.59
806.115	70.14
806.29	71.3
806.464	74.18
806.639	78.58
806.814	77.07
806.989	67.67
807.163	62
807.338	62.07
807.512	56.84
807.687	60.53
807.862	65.59
808.036	77.01
808.211	73.51
808.385	66.76
808.56	66.03
808.734	63.55
808.909	62.44
809.083	59.79
809.258	63.29
809.432	67.66
809.606	66.31
809.781	64.23
809.955	66.42
810.13	70.98
810.304	62.26
810.478	61.01
810.652	68.56
810.827	72
811.001	62.15
811.175	70.55
811.349	73.18
811.524	56.87
811.698	47.84
811.872	54.64
812.046	47.98
812.22	53.91
812.394	54.72
812.568	62.4
812.742	71.09
812.916	77.48
813.09	75.08
813.264	87.41
813.438	83.72
813.612	85.32
813.786	79.39
813.96	76.76
814.134	64.59
814.308	60.32
814.482	52.59
814.656	55.65
814.83	62.31
815.003	68.34
815.177	63.93
815.351	66.57
815.525	70.61
815.698	64.11
815.872	57.15
816.046	62.82
816.219	61.81
816.393	60.64
816.567	70.78
816.74	80.72
816.914	69.79
817.088	70.05
817.261	64.88
817.435	56.73
817.608	53.26
817.782	52.94
817.955	56.75
818.129	56.62
818.302	56.55
818.475	70.41
818.649	75.77
818.822	64.62
818.996	78.6
819.169	84.51
819.342	67
819.516	65.28
819.689	70.17
819.862	60.22
820.035	55.06
820.209	48.37
820.382	52.7
820.555	54.59
820.728	62.23
820.901	65.16
821.075	72.19
821.248	69.14
821.421	71.74
821.594	69.47
821.767	70.03
821.94	71.91
822.113	68.21
822.286	58.44
822.459	50.91
822.632	51.19
822.805	39.12
822.978	65.56
823.151	77.99
823.324	77.61
823.496	65.87
823.669	68.99
823.842	42.79
824.015	43.81
824.188	33.16
824.361	39.19
824.533	36.4
824.706	58.36
824.879	42.92
825.051	53.63
825.224	55.92
825.397	50.36
825.569	32.38
825.742	32.02
825.915	24.63
826.087	32.47
826.26	34.63
826.432	42.07
826.605	50.65
826.777	42.22
826.95	46.34
827.122	62.94
827.295	66.3
827.467	63.25
827.64	63.99
827.812	43.79
827.984	37.47
828.157	27.42
828.329	33.79
828.501	43.99
828.674	57.48
828.846	48.39
829.018	63.41
829.19	60.75
829.363	52.67
829.535	39.52
829.707	58.25
829.879	50.5
830.051	52.03
830.223	47.11
830.395	57.91
830.568	45.9
830.74	36.06
830.912	34.83
831.084	51.8
831.256	21.61
831.428	20.43
831.6	34.07
831.772	27.26
831.943	25.45
832.115	52.25
832.287	54.89
832.459	57.09
832.631	59.97
832.803	73.72
832.975	66.43
833.146	61.84
833.318	46.9
833.49	52.78
833.662	52.62
833.833	73.41
834.005	72.71
834.177	79.77
834.348	76.58
834.52	53.91
834.692	35.63
834.863	43.08
835.035	45.71
835.206	0.24
835.378	32.86
835.549	37.76
835.721	32.69
835.892	26.13
836.064	48.19
836.235	40.89
836.407	36.89
836.578	33.2
836.749	51.54
836.921	45.92
837.092	39.89
837.264	37.19
837.435	69.69
837.606	27.17
837.777	26.62
837.949	52.1
838.12	45.89
838.291	28.88
838.462	59.98
838.633	55.21
838.805	39.67
838.976	47.06
839.147	57.22
839.318	30.03
839.489	45.01
839.66	49.09
839.831	49.11
840.002	37.44
840.173	39.5
840.344	17.6
840.515	6.02
840.686	9.97
840.857	12.92
841.028	27.43
841.199	53.65
841.369	66.46
841.54	76.39
841.711	61.86
841.882	34.43
842.053	12.2
842.223	-2.04
842.394	25.13
842.565	36.3
842.736	61.31
842.906	76.57
843.077	97.58
843.248	71.04
843.418	84.07
843.589	60.59
843.759	70.88
843.93	63.23
844.101	54.78
844.271	54.01
844.442	62.59
844.612	51.11
844.783	42.48
844.953	37.47
845.123	33.69
845.294	26.84
845.464	32.17
845.635	29.19
845.805	22.49
845.975	31.51
846.146	10.63
846.316	10.22
846.486	23.9
846.656	21.27
846.827	17.77
846.997	39.68
847.167	64.45
847.337	40.2
847.507	59.59
847.677	56.02
847.848	74.2
848.018	50.51
848.188	59.26
848.358	39.21
848.528	21.34
848.698	11.55
848.868	9.93
849.038	2.66
849.208	18.31
849.378	51.64
849.548	64.47
849.718	68.72
849.887	87.7
850.057	84.81
850.227	127.76
850.397	80.95
850.567	73.14
850.737	52.29
850.906	32.96
851.076	1.65
851.246	-2.68
851.415	18.8
851.585	8.51
851.755	26.37
851.924	52.54
852.094	59.56
852.264	30.43
852.433	21.38
852.603	25.44
852.772	34.09
852.942	34.43
853.111	44.09
853.281	40
853.45	29.19
853.62	13.82
853.789	-10.28
853.959	-12.22
854.128	-11.8
854.297	-5.87
854.467	-5.68
854.636	14.76
854.805	31.94
854.975	24.18
855.144	-48.46
855.313	1.93
855.482	4.31
855.652	-15
855.821	21.59
855.99	47.08
856.159	74.75
856.328	68.77
856.497	92.22
856.667	55.62
856.836	62.03
857.005	-16.05
857.174	-113.41
857.343	-77.65
857.512	-193.57
857.681	-47.73
857.85	-1.03
858.019	6.72
858.188	-6.7
858.356	9.79
858.525	-14.66
858.694	-8.95
858.863	-46.91
859.032	-44.99
859.201	-64.24
859.369	-27.09
859.538	-44.89
859.707	14.17
859.876	23.64
860.044	54.46
860.213	55.26
860.382	59.73
860.55	53.41
860.719	47.32
860.888	25.47
861.056	36.24
861.225	16.2
861.393	30.08
861.562	41.19
861.73	50.06
861.899	42.94
862.067	78.49
862.236	101.35
862.404	84.4
862.572	96.13
862.741	85.93
862.909	59.25
863.078	-16.44
863.246	1.28
863.414	12.11
863.582	4.82
863.751	-0.49
863.919	-16.93
864.087	-3.18
864.255	-12.67
864.424	7.88
864.592	15.56
864.76	35.95
864.928	63.52
865.096	80.63
865.264	42.06
865.432	26.6
865.6	42.53
865.768	2.07
865.936	-26.05
866.104	-11.37
866.272	48.37
866.44	20.2
866.608	64.63
866.776	67.93
866.944	136.88
867.112	23.86
867.28	-45.76
867.448	-85.38
867.615	-74.26
867.783	-58.64
867.951	-74.53
868.119	-24.5
868.286	-10.93
868.454	-13.55
868.622	-10.59
868.789	-96.59
868.957	-55.69
869.125	-114.42
869.292	-109.14
869.46	-86.16
869.627	-14.74
869.795	-16.62
869.963	-12.12
870.13	5.5
870.298	6.98
870.465	-32.56
870.632	4.64
870.8	2.88
870.967	-34.78
871.135	-72.28
871.302	-15.61
871.469	612.09
871.637	-86.04
871.804	-7.19
871.971	-10.8
872.139	-3.68
872.306	9.69
872.473	5.92
872.64	3.12
872.807	29.94
872.975	34.93
873.142	88.88
873.309	557.97
873.476	334.05
873.643	69.89
873.81	46.11
873.977	24.25
874.144	68.95
874.311	35.59
874.478	3.73
874.645	17.08
874.812	14.77
874.979	-11
875.146	5.36
875.313	42.48
875.48	-12.66
875.647	-85.25
875.813	325.78
875.98	71.72
876.147	-139.63
876.314	-53.82
876.481	-253.62
876.647	-193.17
876.814	-98.96
876.981	-19.97
877.147	62.01
877.314	105.81
877.481	147.42
877.647	153.91
877.814	86.39
877.98	57.58
878.147	10.12
878.314	-98.4
878.48	-68.63
878.647	-14.61
878.813	-194.57
878.979	88.02
879.146	82.39
879.312	24.58
879.479	37.95
879.645	57.43
879.811	42.51
879.978	34.45
880.144	44.53
880.31	23.05
880.477	-9.52
880.643	-12.48
880.809	-29.65
880.975	-1378.79
881.142	176.7
881.308	94.67
881.474	-16.32
881.64	-31.32
881.806	-18.96
881.972	0.04
882.138	40.22
882.304	33.97
882.47	25.74
882.636	-58.71
882.802	-35.72
882.968	-213.2
883.134	-1.34
883.3	25.94
883.466	51.22
883.632	84.91
883.798	67.16
883.964	69.58
884.129	64.96
884.295	56.24
884.461	17.37
884.627	25.37
884.793	-7.19
884.958	48
885.124	54.82
885.29	44.03
885.455	32.46
885.621	-31.3
885.787	-153.37
885.952	325.39
886.118	455.34
886.283	-4524.56
886.449	-61.37
886.614	13
886.78	56.89
886.945	63.34
887.111	8.42
887.276	-19.45
887.442	-36.56
887.607	-111.24
887.773	-36.07
887.938	-42.4
888.103	-11.7
888.269	-41.41
888.434	-2.02
888.599	11.73
888.764	16
888.93	-46.54
889.095	-23.69
889.26	-86.91
889.425	-224.37
889.59	614.01
889.756	-127.99
889.921	-78.15
890.086	9.61
890.251	-16.32
890.416	-12.68
890.581	-25.76
890.746	52.09
890.911	40.26
891.076	51.99
891.241	53.51
891.406	80.18
891.571	56.27
891.736	35.87
891.901	-23.43
892.065	42.7
892.23	68.7
892.395	49.7
892.56	108.65
892.725	141.4
892.889	85.65
893.054	26.85
893.219	-34.85
893.384	-38.83
893.548	-220.41
893.713	760.49
893.878	126.82
