Data from Ofav_PS_Phys_356_Reflection_3.txt Node
Date: Thu Jul 29 18:18:18 EDT 2021
User: USUARIO
Spectrometer: FLMT01687
Trigger mode: 0
Integration Time (sec): 9.010000E-1
Scans to average: 2
Electric dark correction enabled: true
Nonlinearity correction enabled: false
Boxcar width: 2
XAxis mode: Wavelengths
Number of Pixels in Spectrum: 3648
>>>>>Begin Spectral Data<<<<<
179.494	-1.59
179.716	5.86
179.937	13.78
180.158	88.7
180.38	55.25
180.601	-368.24
180.823	-188.13
181.044	-82.4
181.265	-101.16
181.486	-880.79
181.708	81.07
181.929	339.89
182.15	11033.33
182.372	-128.08
182.593	-30.17
182.814	23.87
183.035	65.64
183.257	23.84
183.478	62.19
183.699	51.65
183.92	38.49
184.141	51.76
184.363	35.14
184.584	31.39
184.805	33.36
185.026	66.26
185.247	35.89
185.468	38.93
185.689	18.73
185.91	52.9
186.132	32.09
186.353	71.2
186.574	81.34
186.795	77.72
187.016	57.91
187.237	35.03
187.458	21.14
187.679	7.57
187.9	11.86
188.121	4.97
188.342	14.24
188.563	28.55
188.784	22.77
189.005	21.69
189.226	36.25
189.447	37.71
189.667	13.08
189.888	14.2
190.109	13.26
190.33	-65.55
190.551	-16.58
190.772	20.27
190.993	28.91
191.214	22.5
191.434	29.58
191.655	37.02
191.876	39.86
192.097	-11.88
192.318	12
192.538	16.17
192.759	-3.81
192.98	18.53
193.201	41.1
193.421	29.08
193.642	29.28
193.863	20.72
194.083	-35.92
194.304	-14.17
194.525	-4.14
194.745	-26.61
194.966	-18.15
195.187	-15.73
195.407	-53.73
195.628	-115.81
195.848	-62
196.069	-25.4
196.29	19.43
196.51	36.36
196.731	57.66
196.951	54.44
197.172	17.89
197.392	9.05
197.613	19.35
197.833	-2.04
198.054	-5.45
198.274	-0.86
198.495	19.83
198.715	-18.72
198.936	6.95
199.156	33.59
199.377	32.65
199.597	-0.74
199.817	52.83
200.038	39.22
200.258	15.43
200.479	-0.38
200.699	-21.33
200.919	-10.25
201.14	-6.2
201.36	11.86
201.58	31.32
201.801	40.81
202.021	62.13
202.241	56.31
202.461	69.39
202.682	68.36
202.902	64.74
203.122	31.17
203.342	52.06
203.563	52.73
203.783	46.55
204.003	32.29
204.223	39.22
204.443	52.93
204.663	73.27
204.884	84.57
205.104	114.59
205.324	94.22
205.544	91.61
205.764	66.35
205.984	71.81
206.204	78.03
206.424	69.47
206.644	49.24
206.864	67.16
207.084	45.16
207.304	55.82
207.525	41.71
207.745	47.54
207.964	36.88
208.184	41.16
208.404	25.24
208.624	49
208.844	62.96
209.064	63.92
209.284	81.48
209.504	63.09
209.724	78.52
209.944	67.78
210.164	69.89
210.384	50.48
210.604	41.19
210.823	19.64
211.043	34.19
211.263	40.24
211.483	36.53
211.703	38.07
211.922	22.43
212.142	23.92
212.362	23.52
212.582	25.99
212.801	31.03
213.021	50.04
213.241	48.45
213.461	29.41
213.68	4.71
213.9	22.17
214.12	6.74
214.339	-28.19
214.559	-34.25
214.779	8.95
214.998	-32.6
215.218	-24.99
215.438	-28.66
215.657	-22.56
215.877	-20.72
216.096	-14.24
216.316	-41.53
216.535	-17.76
216.755	2.06
216.974	12.64
217.194	5.21
217.413	40.57
217.633	45.35
217.852	22.92
218.072	17.92
218.291	22.75
218.511	42.15
218.73	27.97
218.95	39.71
219.169	48.8
219.389	41.74
219.608	12.5
219.827	10.67
220.047	17.52
220.266	12.8
220.485	25.45
220.705	27.76
220.924	35.9
221.143	20.19
221.363	4.79
221.582	-14.88
221.801	-45.63
222.021	-84.53
222.24	-22.73
222.459	-6.91
222.678	16.66
222.897	26.33
223.117	41.26
223.336	27.21
223.555	50.93
223.774	64.37
223.993	45
224.213	42.74
224.432	50.25
224.651	37.64
224.87	15.25
225.089	25.92
225.308	29.14
225.527	33.44
225.746	24.05
225.965	61.88
226.184	23.57
226.404	3.1
226.623	11.82
226.842	4
227.061	1.06
227.28	8.7
227.499	9.91
227.718	-10.77
227.936	22.51
228.155	-8.07
228.374	-3.52
228.593	2.34
228.812	-8.88
229.031	-37.69
229.25	-13.76
229.469	-15.22
229.688	-17.33
229.907	8.21
230.125	14.22
230.344	13.2
230.563	17.44
230.782	44.01
231.001	18.83
231.22	30.5
231.438	32.77
231.657	24.94
231.876	32.76
232.095	28.22
232.313	12.59
232.532	-4.46
232.751	-10.14
232.969	-18.17
233.188	-5.96
233.407	8.39
233.625	12.02
233.844	41.31
234.063	30.41
234.281	3.01
234.5	15.14
234.719	25.86
234.937	-6.67
235.156	-11.37
235.374	34.24
235.593	18.92
235.811	24.28
236.03	24.77
236.249	25.2
236.467	17.32
236.686	2.81
236.904	7.19
237.123	11.76
237.341	-6.21
237.559	3.6
237.778	31.27
237.996	34.62
238.215	33.12
238.433	43.3
238.652	47.19
238.87	44.02
239.088	34.73
239.307	24.24
239.525	30.91
239.743	13.49
239.962	11.58
240.18	8.5
240.398	13.52
240.617	-11.73
240.835	-7.5
241.053	9.83
241.271	33.84
241.49	42.93
241.708	46.83
241.926	42.06
242.144	19.66
242.363	12.15
242.581	-7.18
242.799	-7.95
243.017	12.98
243.235	13.29
243.453	1.25
243.672	14.25
243.89	-0.77
244.108	-1.77
244.326	2.21
244.544	-10.81
244.762	-19.75
244.98	1.54
245.198	-5.46
245.416	-9.78
245.634	12.29
245.852	5.48
246.07	24.03
246.288	22.8
246.506	43.92
246.724	34.62
246.942	35.59
247.16	44.89
247.378	38.52
247.596	22.09
247.814	23.78
248.032	24.2
248.25	11.24
248.468	21.57
248.685	22.4
248.903	33.06
249.121	34.5
249.339	20.03
249.557	12.65
249.775	11.48
249.992	-15.68
250.21	-15.42
250.428	16.86
250.646	24.98
250.863	47.09
251.081	56.73
251.299	77.59
251.517	57.99
251.734	51.86
251.952	22.13
252.17	17.24
252.387	7.42
252.605	21.18
252.823	23.31
253.04	37.53
253.258	43.55
253.475	44.15
253.693	46.53
253.911	48.37
254.128	63.26
254.346	60.94
254.563	59.44
254.781	48.78
254.998	47.97
255.216	10.56
255.433	23.98
255.651	17.78
255.868	16.92
256.086	27.68
256.303	39.42
256.521	49.23
256.738	55.35
256.956	67.04
257.173	66.54
257.39	72.18
257.608	49.7
257.825	39.14
258.043	15.63
258.26	-3.94
258.477	-12.63
258.695	-25.17
258.912	-14.68
259.129	-14.78
259.346	-2.24
259.564	15.81
259.781	32.11
259.998	21.05
260.216	49.85
260.433	53.39
260.65	42.13
260.867	53.37
261.084	71.72
261.302	42.04
261.519	25.15
261.736	37.44
261.953	14.78
262.17	11.27
262.387	20.09
262.604	5.47
262.822	0.58
263.039	13.04
263.256	-18.38
263.473	-8.31
263.69	4.33
263.907	8.73
264.124	20.68
264.341	66.92
264.558	68.12
264.775	82.82
264.992	69.63
265.209	43.93
265.426	17.17
265.643	15.01
265.86	14.93
266.077	25.49
266.294	37.73
266.51	36
266.727	43.88
266.944	26.04
267.161	11.8
267.378	13.27
267.595	17.25
267.812	-4.75
268.028	4.11
268.245	7.52
268.462	-2.51
268.679	25.32
268.896	11.11
269.112	14.05
269.329	23.03
269.546	32.62
269.763	30.19
269.979	62.7
270.196	70.62
270.413	60.08
270.629	67.11
270.846	46.2
271.063	31.6
271.279	38.85
271.496	34.44
271.712	20.64
271.929	27.1
272.146	40.24
272.362	33.44
272.579	69.41
272.795	72.8
273.012	59.97
273.228	36.49
273.445	28.14
273.661	-1.34
273.878	-17.08
274.094	-10.9
274.311	16.69
274.527	11.5
274.744	27.46
274.96	44.42
275.177	46.2
275.393	41.09
275.609	49.27
275.826	44.03
276.042	25.45
276.259	19.2
276.475	12.14
276.691	15.78
276.908	15.96
277.124	17.41
277.34	7.47
277.557	8.54
277.773	-5.64
277.989	-18.39
278.205	-6.78
278.422	2.74
278.638	-4.29
278.854	9.05
279.07	43.62
279.286	13.54
279.503	25.53
279.719	29.98
279.935	26.37
280.151	-6.3
280.367	11.56
280.583	28.15
280.799	37.95
281.016	44.61
281.232	52.69
281.448	39.96
281.664	42.56
281.88	18.32
282.096	8.02
282.312	-5.93
282.528	11.33
282.744	-23.91
282.96	4.44
283.176	-0.71
283.392	29.27
283.608	25.94
283.824	23.86
284.04	11.65
284.256	29.74
284.471	-2.76
284.687	-1.88
284.903	1.33
285.119	17.18
285.335	-2.22
285.551	10.93
285.767	6.94
285.982	12.63
286.198	21.32
286.414	40.11
286.63	36.32
286.846	40
287.061	43.15
287.277	38.72
287.493	29.28
287.709	35.98
287.924	38.32
288.14	36.97
288.356	36.69
288.571	45.12
288.787	45.46
289.003	47.9
289.218	43.5
289.434	41.48
289.65	39.96
289.865	38.41
290.081	17.23
290.296	29.32
290.512	30.03
290.727	29.09
290.943	24.9
291.159	37.87
291.374	43.2
291.59	26.81
291.805	5.52
292.021	3.72
292.236	12.27
292.451	-39.53
292.667	-11.67
292.882	-10.01
293.098	8.94
293.313	6.34
293.529	31.26
293.744	22.91
293.959	37.86
294.175	36.17
294.39	25.49
294.605	25.09
294.821	23.98
295.036	20.73
295.251	21.82
295.467	26.46
295.682	26.88
295.897	25.9
296.112	30.18
296.328	20.02
296.543	12.21
296.758	12.56
296.973	12.15
297.188	9.08
297.404	3.62
297.619	13.35
297.834	-5.54
298.049	-2.4
298.264	5.79
298.479	23.37
298.694	24.05
298.909	28.31
299.125	17.59
299.34	21.64
299.555	1.23
299.77	-25.13
299.985	-47.08
300.2	-18.83
300.415	-15.25
300.63	9.66
300.845	7.65
301.06	10.56
301.275	32.44
301.49	22.43
301.704	10.96
301.919	11.22
302.134	34.11
302.349	18.36
302.564	25.28
302.779	15.55
302.994	24.51
303.209	33.79
303.423	30.1
303.638	16.19
303.853	8.8
304.068	13.56
304.283	-2.02
304.497	1.09
304.712	-21.96
304.927	-14.07
305.142	-19.76
305.356	-23.4
305.571	4.95
305.786	24.02
306	5.21
306.215	3.77
306.43	1.18
306.644	-44.94
306.859	-78.06
307.074	-48.8
307.288	-24.99
307.503	8.35
307.717	29.29
307.932	21.7
308.147	26.39
308.361	26.99
308.576	9.27
308.79	-25.76
309.005	29.5
309.219	36.85
309.434	45.53
309.648	46.35
309.863	69.26
310.077	42.57
310.292	27.92
310.506	15.37
310.72	21.99
310.935	18.27
311.149	25.93
311.364	34.02
311.578	34.99
311.792	25.65
312.007	26.02
312.221	20.32
312.435	24.03
312.649	15.03
312.864	-10.35
313.078	32.09
313.292	20.55
313.507	19.01
313.721	7.3
313.935	8.36
314.149	-3.3
314.363	-1
314.578	1.74
314.792	25.53
315.006	39.52
315.22	40.99
315.434	36.22
315.648	33.27
315.862	19.21
316.077	10.15
316.291	9.78
316.505	15.82
316.719	24.82
316.933	24.59
317.147	39.14
317.361	26.19
317.575	23.02
317.789	12.83
318.003	18.29
318.217	20.36
318.431	22.12
318.645	21.11
318.859	19.38
319.073	5.46
319.287	-9.05
319.5	-16.18
319.714	-8.57
319.928	0.94
320.142	31.38
320.356	35.7
320.57	52.03
320.784	64.73
320.997	56.15
321.211	51.1
321.425	49.47
321.639	44.47
321.853	35.07
322.066	34.37
322.28	32.76
322.494	32.02
322.707	42.02
322.921	38.05
323.135	20.02
323.349	11.82
323.562	2.4
323.776	-14.77
323.989	1.57
324.203	23.66
324.417	29.84
324.63	27.93
324.844	30.81
325.057	10.2
325.271	1.89
325.485	2.05
325.698	29.47
325.912	29.91
326.125	37.57
326.339	40.38
326.552	37.73
326.766	18.73
326.979	13.22
327.193	8.34
327.406	-0.59
327.619	-8.95
327.833	6.72
328.046	12.44
328.26	41.19
328.473	54.34
328.686	64.95
328.9	51.67
329.113	41.04
329.326	14.88
329.54	5.99
329.753	10.96
329.966	26.41
330.179	42.37
330.393	23.58
330.606	18.76
330.819	25.22
331.032	12.27
331.246	-8.21
331.459	-12.28
331.672	3.48
331.885	2.35
332.098	21.19
332.311	44.48
332.525	52.29
332.738	49.7
332.951	37
333.164	26.25
333.377	15.24
333.59	5.45
333.803	18.11
334.016	21.2
334.229	26.85
334.442	30.89
334.655	41.69
334.868	35.93
335.081	55.13
335.294	50.34
335.507	52.14
335.72	45.43
335.933	30.58
336.146	9.46
336.359	14.58
336.572	-2.54
336.785	-3.59
336.997	14.41
337.21	28.57
337.423	25.47
337.636	26.71
337.849	18.49
338.062	-2.45
338.274	-27.84
338.487	-21.04
338.7	-32.5
338.913	-11.19
339.125	25.36
339.338	31.38
339.551	30.55
339.763	42.83
339.976	33.57
340.189	20.58
340.402	32.07
340.614	13.52
340.827	23.69
341.039	35.16
341.252	36.2
341.465	18.04
341.677	16.55
341.89	-7.74
342.102	-3.61
342.315	-4.39
342.527	-11.92
342.74	3.62
342.952	11.39
343.165	6.05
343.377	9.29
343.59	30.65
343.802	23.69
344.015	30.04
344.227	22.08
344.44	24.98
344.652	17.33
344.864	16.75
345.077	13.5
345.289	17.8
345.502	21.26
345.714	2.19
345.926	0.19
346.139	-11.94
346.351	4.59
346.563	7.86
346.775	11.15
346.988	2.42
347.2	2.46
347.412	-15.41
347.624	-4.23
347.837	-6.65
348.049	-9.57
348.261	-0.66
348.473	8.41
348.685	-7.46
348.897	8.59
349.11	16.44
349.322	12.85
349.534	26.37
349.746	39.22
349.958	26.03
350.17	20.75
350.382	32.07
350.594	12.25
350.806	10.08
351.018	23.13
351.23	30.5
351.442	19.27
351.654	32.42
351.866	10.96
352.078	15.95
352.29	5.13
352.502	17.96
352.714	16.94
352.926	33.84
353.138	28.83
353.35	27.94
353.561	21.49
353.773	21.05
353.985	24.94
354.197	26.34
354.409	35.73
354.621	14.98
354.832	5.48
355.044	-4.71
355.256	8.2
355.468	-12.97
355.679	6.89
355.891	24.73
356.103	40.35
356.314	36.72
356.526	51.13
356.738	51.72
356.949	43.28
357.161	33.58
357.373	34.34
357.584	24.91
357.796	21.84
358.008	22.44
358.219	14.5
358.431	-5.94
358.642	-5.57
358.854	-21.36
359.065	-1.27
359.277	-9.68
359.488	13.12
359.7	17.5
359.911	42.22
360.123	44.22
360.334	48.34
360.546	25.97
360.757	16.38
360.969	8.62
361.18	20.26
361.391	30.09
361.603	20.98
361.814	42.46
362.025	31.53
362.237	13.85
362.448	8.76
362.659	10.9
362.871	8.55
363.082	6.26
363.293	-5.84
363.504	-2.74
363.716	10.63
363.927	-0.78
364.138	-8.03
364.349	6.2
364.56	4.98
364.772	5.9
364.983	6.97
365.194	9.89
365.405	19.34
365.616	15.73
365.827	21.19
366.038	6.57
366.25	1.04
366.461	-5.91
366.672	-2.12
366.883	-13.03
367.094	1.86
367.305	9.18
367.516	3.05
367.727	7.78
367.938	13.39
368.149	18.3
368.36	25.7
368.571	29.52
368.781	10.73
368.992	3.13
369.203	7.93
369.414	15.29
369.625	27.23
369.836	34.75
370.047	31.06
370.258	32.31
370.468	22.73
370.679	2.55
370.89	-14.94
371.101	12.06
371.312	-0.88
371.522	2.44
371.733	18.82
371.944	16.94
372.155	4.57
372.365	14.94
372.576	17.25
372.787	18.13
372.997	26.99
373.208	8.59
373.419	7.8
373.629	9.12
373.84	9.35
374.05	10.65
374.261	15.75
374.472	4.88
374.682	-20.05
374.893	-10.21
375.103	-5.42
375.314	-2.99
375.524	8.01
375.735	22.3
375.945	23.14
376.156	27.09
376.366	21.12
376.577	27.68
376.787	30.58
376.997	22.04
377.208	9.67
377.418	12.75
377.629	5.24
377.839	18
378.049	21.47
378.26	19.87
378.47	18.64
378.68	21.12
378.89	9.19
379.101	11.34
379.311	7.91
379.521	5.85
379.732	11.38
379.942	10.8
380.152	8.49
380.362	9.2
380.572	9.7
380.783	2.77
380.993	4.17
381.203	3.13
381.413	1.1
381.623	9.33
381.833	17.26
382.043	7.51
382.253	13.53
382.463	19.8
382.674	17.8
382.884	15.84
383.094	14.16
383.304	11.08
383.514	8.52
383.724	12.43
383.934	9.53
384.144	13.17
384.353	18.23
384.563	20.92
384.773	17.74
384.983	13.4
385.193	21.52
385.403	11.77
385.613	9.37
385.823	8.35
386.033	9.98
386.242	6.77
386.452	6.88
386.662	9.4
386.872	12.15
387.082	13.2
387.291	7.42
387.501	5.16
387.711	5.39
387.921	-0.17
388.13	-3.33
388.34	1.47
388.55	5.63
388.759	3.25
388.969	5.25
389.179	4.14
389.388	2.54
389.598	2.46
389.807	3.46
390.017	4.71
390.227	9.4
390.436	10.79
390.646	8.72
390.855	8.12
391.065	6.46
391.274	5.38
391.484	3.47
391.693	2.31
391.903	3.67
392.112	5.45
392.322	5.48
392.531	4.35
392.74	2.53
392.95	1.68
393.159	1.63
393.369	2.37
393.578	2.93
393.787	6.64
393.997	6.21
394.206	5.59
394.415	5.37
394.625	6.41
394.834	4.3
395.043	3.64
395.252	4.61
395.462	3.89
395.671	3.06
395.88	4.5
396.089	5.07
396.298	4.46
396.508	4.78
396.717	4.76
396.926	5
397.135	4.48
397.344	4.3
397.553	4.51
397.762	4.75
397.971	4.68
398.181	5.51
398.39	5.18
398.599	4.91
398.808	5.23
399.017	5.78
399.226	5.66
399.435	6.35
399.644	6.79
399.853	6.68
400.062	6.53
400.27	6.88
400.479	6.62
400.688	6.1
400.897	6.18
401.106	5.96
401.315	5.52
401.524	5.93
401.733	6.18
401.941	6.32
402.15	6.3
402.359	6.29
402.568	6.16
402.777	5.89
402.985	5.66
403.194	5.62
403.403	5.66
403.612	5.45
403.82	5.67
404.029	5.55
404.238	5.36
404.446	5.47
404.655	5.43
404.864	5.42
405.072	5.38
405.281	5.46
405.489	5.33
405.698	5.43
405.906	5.4
406.115	5.55
406.324	5.45
406.532	5.48
406.741	5.47
406.949	5.48
407.158	5.46
407.366	5.52
407.574	5.44
407.783	5.36
407.991	5.15
408.2	5.04
408.408	5.03
408.617	5.05
408.825	4.98
409.033	5.1
409.242	5.29
409.45	5.32
409.658	5.35
409.867	5.36
410.075	5.39
410.283	5.27
410.491	5.18
410.7	5.15
410.908	5.25
411.116	5.19
411.324	5.13
411.533	5.16
411.741	5.25
411.949	5.28
412.157	5.24
412.365	5.2
412.573	5.13
412.781	4.95
412.99	4.82
413.198	4.88
413.406	4.85
413.614	4.94
413.822	5.07
414.03	5.17
414.238	5.13
414.446	5.23
414.654	5.13
414.862	5.01
415.07	4.74
415.278	4.77
415.486	4.68
415.694	4.81
415.902	4.82
416.109	5.05
416.317	4.99
416.525	4.99
416.733	4.89
416.941	5
417.149	4.92
417.357	4.88
417.564	4.9
417.772	4.81
417.98	4.67
418.188	4.63
418.395	4.56
418.603	4.45
418.811	4.57
419.019	4.62
419.226	4.75
419.434	4.77
419.642	4.9
419.849	4.82
420.057	4.65
420.265	4.46
420.472	4.42
420.68	4.44
420.887	4.58
421.095	4.73
421.302	4.73
421.51	4.86
421.717	4.83
421.925	4.79
422.132	4.77
422.34	4.73
422.547	4.58
422.755	4.6
422.962	4.58
423.17	4.37
423.377	4.47
423.585	4.67
423.792	4.59
423.999	4.42
424.207	4.44
424.414	4.35
424.621	4.21
424.829	4.37
425.036	4.43
425.243	4.6
425.451	4.61
425.658	4.63
425.865	4.47
426.072	4.35
426.28	4.57
426.487	4.66
426.694	4.53
426.901	4.49
427.108	4.53
427.315	4.38
427.523	4.3
427.73	4.38
427.937	4.44
428.144	4.42
428.351	4.25
428.558	4.38
428.765	4.48
428.972	4.55
429.179	4.59
429.386	4.66
429.593	4.56
429.8	4.46
430.007	4.46
430.214	4.67
430.421	4.67
430.628	4.63
430.835	4.69
431.042	4.55
431.249	4.49
431.456	4.46
431.662	4.56
431.869	4.71
432.076	4.77
432.283	4.64
432.49	4.54
432.697	4.53
432.903	4.29
433.11	4.22
433.317	4.21
433.524	4.27
433.73	4.14
433.937	4.23
434.144	4.24
434.35	4.33
434.557	4.31
434.764	4.36
434.97	4.28
435.177	4.45
435.384	4.37
435.59	4.45
435.797	4.54
436.003	4.6
436.21	4.53
436.416	4.47
436.623	4.5
436.829	4.45
437.036	4.41
437.242	4.43
437.449	4.55
437.655	4.69
437.862	4.75
438.068	4.7
438.275	4.69
438.481	4.64
438.687	4.46
438.894	4.36
439.1	4.45
439.307	4.5
439.513	4.5
439.719	4.43
439.926	4.33
440.132	4.38
440.338	4.36
440.544	4.28
440.751	4.32
440.957	4.53
441.163	4.47
441.369	4.46
441.575	4.57
441.782	4.59
441.988	4.49
442.194	4.49
442.4	4.43
442.606	4.51
442.812	4.55
443.018	4.52
443.224	4.61
443.431	4.55
443.637	4.63
443.843	4.58
444.049	4.62
444.255	4.51
444.461	4.51
444.667	4.43
444.873	4.45
445.079	4.43
445.284	4.4
445.49	4.47
445.696	4.46
445.902	4.46
446.108	4.34
446.314	4.41
446.52	4.46
446.726	4.36
446.931	4.35
447.137	4.45
447.343	4.43
447.549	4.37
447.755	4.36
447.96	4.46
448.166	4.51
448.372	4.52
448.578	4.57
448.783	4.66
448.989	4.73
449.195	4.64
449.4	4.69
449.606	4.7
449.812	4.67
450.017	4.56
450.223	4.57
450.428	4.53
450.634	4.51
450.84	4.56
451.045	4.48
451.251	4.54
451.456	4.52
451.662	4.47
451.867	4.48
452.073	4.6
452.278	4.65
452.483	4.66
452.689	4.62
452.894	4.52
453.1	4.49
453.305	4.47
453.51	4.54
453.716	4.62
453.921	4.66
454.127	4.65
454.332	4.52
454.537	4.46
454.742	4.35
454.948	4.29
455.153	4.36
455.358	4.44
455.563	4.48
455.769	4.54
455.974	4.58
456.179	4.44
456.384	4.39
456.589	4.27
456.795	4.31
457	4.27
457.205	4.37
457.41	4.37
457.615	4.34
457.82	4.4
458.025	4.39
458.23	4.32
458.435	4.33
458.64	4.34
458.845	4.29
459.05	4.32
459.255	4.37
459.46	4.42
459.665	4.48
459.87	4.41
460.075	4.46
460.28	4.36
460.485	4.37
460.69	4.4
460.895	4.41
461.099	4.36
461.304	4.4
461.509	4.39
461.714	4.26
461.919	4.23
462.123	4.2
462.328	4.2
462.533	4.23
462.738	4.28
462.942	4.31
463.147	4.42
463.352	4.45
463.556	4.43
463.761	4.43
463.966	4.48
464.17	4.5
464.375	4.43
464.58	4.3
464.784	4.33
464.989	4.22
465.193	4.15
465.398	4.22
465.602	4.4
465.807	4.48
466.011	4.58
466.216	4.5
466.42	4.5
466.625	4.47
466.829	4.54
467.034	4.61
467.238	4.72
467.443	4.69
467.647	4.53
467.851	4.36
468.056	4.29
468.26	4.32
468.464	4.44
468.669	4.52
468.873	4.57
469.077	4.6
469.282	4.52
469.486	4.49
469.69	4.52
469.894	4.51
470.099	4.55
470.303	4.56
470.507	4.58
470.711	4.53
470.915	4.65
471.119	4.61
471.324	4.7
471.528	4.59
471.732	4.69
471.936	4.59
472.14	4.63
472.344	4.54
472.548	4.65
472.752	4.71
472.956	4.75
473.16	4.7
473.364	4.83
473.568	4.76
473.772	4.7
473.976	4.7
474.18	4.78
474.384	4.75
474.588	4.69
474.792	4.71
474.995	4.79
475.199	4.74
475.403	4.74
475.607	4.89
475.811	4.87
476.015	4.8
476.218	4.82
476.422	4.8
476.626	4.69
476.83	4.7
477.033	4.78
477.237	4.72
477.441	4.67
477.644	4.74
477.848	4.75
478.052	4.7
478.255	4.76
478.459	4.75
478.663	4.81
478.866	4.83
479.07	4.82
479.273	4.77
479.477	4.81
479.681	4.8
479.884	4.8
480.088	4.77
480.291	4.87
480.495	4.89
480.698	4.83
480.901	4.79
481.105	4.81
481.308	4.77
481.512	4.83
481.715	4.83
481.919	4.91
482.122	4.96
482.325	5.01
482.529	5.02
482.732	5.1
482.935	4.98
483.138	4.87
483.342	4.78
483.545	4.81
483.748	4.79
483.952	4.9
484.155	5.06
484.358	5.01
484.561	5
484.764	4.96
484.967	4.98
485.171	4.94
485.374	4.98
485.577	4.92
485.78	4.91
485.983	4.85
486.186	4.8
486.389	4.86
486.592	4.93
486.795	5
486.998	5.04
487.201	5.16
487.404	5.23
487.607	5.21
487.81	5.15
488.013	5.12
488.216	5.07
488.419	5.05
488.622	5.09
488.825	5.13
489.028	5.11
489.231	5.14
489.433	5.18
489.636	5.13
489.839	5.1
490.042	5.14
490.245	5.11
490.447	5.15
490.65	5.24
490.853	5.32
491.056	5.39
491.258	5.4
491.461	5.32
491.664	5.28
491.866	5.25
492.069	5.27
492.272	5.29
492.474	5.35
492.677	5.4
492.879	5.47
493.082	5.5
493.285	5.57
493.487	5.55
493.69	5.55
493.892	5.61
494.095	5.7
494.297	5.75
494.5	5.87
494.702	5.91
494.905	5.96
495.107	5.95
495.309	6.03
495.512	6.07
495.714	6.18
495.917	6.19
496.119	6.26
496.321	6.27
496.524	6.37
496.726	6.31
496.928	6.4
497.13	6.41
497.333	6.51
497.535	6.53
497.737	6.61
497.939	6.61
498.142	6.79
498.344	6.8
498.546	6.79
498.748	6.88
498.95	6.95
499.152	6.85
499.355	6.97
499.557	7.06
499.759	7.06
499.961	7.05
500.163	7.08
500.365	7.08
500.567	7.18
500.769	7.28
500.971	7.37
501.173	7.49
501.375	7.56
501.577	7.56
501.779	7.57
501.981	7.59
502.183	7.57
502.385	7.52
502.587	7.48
502.788	7.5
502.99	7.52
503.192	7.62
503.394	7.67
503.596	7.7
503.798	7.75
503.999	7.76
504.201	7.81
504.403	7.77
504.605	7.82
504.806	7.86
505.008	7.96
505.21	8
505.411	8.04
505.613	8.06
505.815	8.06
506.016	8.07
506.218	7.92
506.42	7.97
506.621	7.99
506.823	7.94
507.024	7.86
507.226	8
507.427	7.97
507.629	8.01
507.83	8.11
508.032	8.15
508.233	8.11
508.435	8.13
508.636	8.17
508.838	8.12
509.039	8.06
509.24	8.08
509.442	8.07
509.643	8.02
509.845	8.05
510.046	8.2
510.247	8.17
510.448	8.24
510.65	8.22
510.851	8.21
511.052	8.16
511.254	8.16
511.455	8.06
511.656	8.02
511.857	8.03
512.058	8.03
512.26	8.02
512.461	8
512.662	8.06
512.863	8.04
513.064	8
513.265	7.97
513.466	7.96
513.667	7.91
513.868	7.83
514.069	7.86
514.27	7.82
514.471	7.88
514.672	7.89
514.873	7.88
515.074	7.83
515.275	7.86
515.476	7.86
515.677	7.84
515.878	7.97
516.079	7.98
516.28	8.07
516.481	8.09
516.682	8.15
516.882	8.1
517.083	8.13
517.284	8.05
517.485	8.01
517.686	7.96
517.886	7.97
518.087	8.01
518.288	8.02
518.488	8.01
518.689	8.06
518.89	8.07
519.091	8.04
519.291	8.04
519.492	8.09
519.692	8.11
519.893	8.13
520.094	8.09
520.294	8.13
520.495	8.16
520.695	8.16
520.896	8.13
521.096	8.17
521.297	8.22
521.497	8.19
521.698	8.2
521.898	8.23
522.099	8.21
522.299	8.17
522.499	8.18
522.7	8.22
522.9	8.17
523.101	8.2
523.301	8.27
523.501	8.26
523.702	8.29
523.902	8.38
524.102	8.48
524.302	8.48
524.503	8.52
524.703	8.51
524.903	8.47
525.103	8.43
525.304	8.45
525.504	8.47
525.704	8.54
525.904	8.58
526.104	8.57
526.304	8.56
526.504	8.6
526.705	8.55
526.905	8.6
527.105	8.59
527.305	8.61
527.505	8.58
527.705	8.65
527.905	8.62
528.105	8.64
528.305	8.6
528.505	8.61
528.705	8.58
528.905	8.57
529.105	8.67
529.304	8.71
529.504	8.74
529.704	8.83
529.904	8.93
530.104	8.87
530.304	8.89
530.503	8.91
530.703	8.87
530.903	8.85
531.103	8.88
531.303	8.97
531.502	9.02
531.702	9.1
531.902	9.11
532.101	9.15
532.301	9.16
532.501	9.21
532.7	9.23
532.9	9.34
533.1	9.42
533.299	9.39
533.499	9.41
533.698	9.37
533.898	9.33
534.097	9.3
534.297	9.38
534.496	9.36
534.696	9.47
534.895	9.5
535.095	9.59
535.294	9.59
535.494	9.64
535.693	9.61
535.892	9.64
536.092	9.65
536.291	9.7
536.491	9.72
536.69	9.78
536.889	9.79
537.088	9.75
537.288	9.76
537.487	9.74
537.686	9.77
537.886	9.87
538.085	9.98
538.284	10.04
538.483	10.15
538.682	10.22
538.882	10.2
539.081	10.21
539.28	10.18
539.479	10.14
539.678	10.18
539.877	10.24
540.076	10.28
540.275	10.39
540.474	10.47
540.673	10.51
540.872	10.58
541.071	10.65
541.27	10.64
541.469	10.71
541.668	10.76
541.867	10.84
542.066	10.88
542.265	10.96
542.464	10.96
542.663	11.03
542.862	11.19
543.06	11.36
543.259	11.52
543.458	11.66
543.657	11.78
543.856	11.73
544.054	11.66
544.253	11.64
544.452	11.65
544.651	11.63
544.849	11.62
545.048	11.69
545.247	11.73
545.445	11.81
545.644	11.85
545.843	12.01
546.041	12.05
546.24	12.11
546.438	12.09
546.637	12.13
546.836	12.2
547.034	12.26
547.233	12.33
547.431	12.39
547.63	12.47
547.828	12.51
548.027	12.53
548.225	12.58
548.423	12.59
548.622	12.66
548.82	12.68
549.019	12.79
549.217	12.86
549.415	13.07
549.614	13.21
549.812	13.21
550.01	13.25
550.209	13.37
550.407	13.45
550.605	13.5
550.803	13.64
551.002	13.8
551.2	13.83
551.398	13.87
551.596	13.9
551.794	14
551.993	14.02
552.191	14.15
552.389	14.22
552.587	14.31
552.785	14.39
552.983	14.55
553.181	14.61
553.379	14.74
553.577	14.81
553.775	14.92
553.973	14.99
554.171	15.11
554.369	15.15
554.567	15.24
554.765	15.29
554.963	15.35
555.161	15.43
555.359	15.55
555.557	15.67
555.755	15.71
555.952	15.79
556.15	15.82
556.348	15.89
556.546	16.02
556.744	16.17
556.941	16.28
557.139	16.41
557.337	16.58
557.535	16.6
557.732	16.67
557.93	16.74
558.128	16.84
558.325	16.82
558.523	16.88
558.721	16.98
558.918	17.11
559.116	17.22
559.313	17.31
559.511	17.5
559.708	17.59
559.906	17.65
560.104	17.69
560.301	17.83
560.498	17.87
560.696	17.97
560.893	17.98
561.091	18.09
561.288	18.17
561.486	18.25
561.683	18.41
561.88	18.59
562.078	18.71
562.275	18.84
562.473	18.92
562.67	18.95
562.867	19.03
563.064	19.11
563.262	19.17
563.459	19.28
563.656	19.36
563.853	19.4
564.051	19.35
564.248	19.37
564.445	19.47
564.642	19.47
564.839	19.54
565.036	19.65
565.234	19.75
565.431	19.78
565.628	19.91
565.825	19.97
566.022	20.04
566.219	20.03
566.416	20.08
566.613	20.18
566.81	20.29
567.007	20.32
567.204	20.42
567.401	20.39
567.598	20.47
567.795	20.46
567.991	20.56
568.188	20.58
568.385	20.72
568.582	20.74
568.779	20.71
568.976	20.73
569.172	20.87
569.369	20.83
569.566	20.83
569.763	20.9
569.96	20.93
570.156	20.89
570.353	20.96
570.55	20.98
570.746	21.09
570.943	21.05
571.14	20.97
571.336	20.93
571.533	20.93
571.729	20.96
571.926	21.07
572.123	21.21
572.319	21.23
572.516	21.32
572.712	21.2
572.909	21.22
573.105	21.19
573.302	21.22
573.498	21.19
573.695	21.23
573.891	21.2
574.087	21.24
574.284	21.22
574.48	21.14
574.677	21.19
574.873	21.22
575.069	21.18
575.266	21.19
575.462	21.17
575.658	21.13
575.854	21.06
576.051	21.03
576.247	21.01
576.443	21.1
576.639	21.05
576.835	21.07
577.032	20.98
577.228	21.01
577.424	20.87
577.62	20.84
577.816	20.74
578.012	20.73
578.208	20.63
578.404	20.72
578.6	20.72
578.796	20.75
578.993	20.78
579.189	20.76
579.384	20.63
579.58	20.62
579.776	20.57
579.972	20.52
580.168	20.43
580.364	20.34
580.56	20.3
580.756	20.17
580.952	20.1
581.148	20.17
581.343	20.18
581.539	20.14
581.735	20.14
581.931	20.11
582.127	20.04
582.322	19.99
582.518	19.9
582.714	19.89
582.909	19.86
583.105	19.84
583.301	19.87
583.496	19.89
583.692	19.89
583.888	19.91
584.083	19.9
584.279	19.85
584.474	19.91
584.67	19.81
584.866	19.72
585.061	19.61
585.257	19.62
585.452	19.47
585.648	19.54
585.843	19.46
586.039	19.49
586.234	19.45
586.429	19.37
586.625	19.24
586.82	19.33
587.015	19.32
587.211	19.26
587.406	19.22
587.601	19.23
587.797	19.17
587.992	19.11
588.187	19.09
588.383	19.08
588.578	19.11
588.773	19.08
588.968	19.08
589.163	19.09
589.359	19.2
589.554	19.2
589.749	19.18
589.944	19.14
590.139	19.14
590.334	19.08
590.529	19
590.724	19.07
590.919	19.09
591.114	19.16
591.309	19.19
591.504	19.35
591.699	19.27
591.894	19.28
592.089	19.24
592.284	19.19
592.479	19.13
592.674	19.21
592.869	19.29
593.064	19.37
593.259	19.43
593.454	19.46
593.648	19.5
593.843	19.46
594.038	19.37
594.233	19.43
594.428	19.36
594.622	19.41
594.817	19.46
595.012	19.55
595.206	19.59
595.401	19.69
595.596	19.65
595.79	19.7
595.985	19.72
596.18	19.8
596.374	19.89
596.569	20.04
596.763	20.09
596.958	20.25
597.153	20.19
597.347	20.27
597.542	20.31
597.736	20.31
597.931	20.2
598.125	20.29
598.319	20.33
598.514	20.47
598.708	20.54
598.903	20.7
599.097	20.72
599.291	20.77
599.486	20.62
599.68	20.68
599.874	20.58
600.069	20.81
600.263	20.77
600.457	20.87
600.651	20.84
600.846	20.89
601.04	20.83
601.234	20.87
601.428	20.94
601.622	21.02
601.817	21.08
602.011	21.05
602.205	21.09
602.399	21.11
602.593	21.11
602.787	21.1
602.981	21.12
603.175	21.18
603.369	21.08
603.563	21.09
603.757	21.17
603.951	21.07
604.145	20.95
604.339	20.97
604.533	20.91
604.727	20.83
604.921	20.94
605.115	20.84
605.309	20.79
605.502	20.71
605.696	20.65
605.89	20.57
606.084	20.63
606.278	20.59
606.471	20.57
606.665	20.6
606.859	20.57
607.053	20.52
607.246	20.52
607.44	20.53
607.634	20.45
607.827	20.38
608.021	20.27
608.214	20.15
608.408	20.12
608.602	20.05
608.795	19.95
608.989	19.92
609.182	19.87
609.376	19.75
609.569	19.57
609.763	19.51
609.956	19.45
610.15	19.34
610.343	19.16
610.537	19.2
610.73	19.13
610.923	19.06
611.117	19.07
611.31	19.08
611.504	18.96
611.697	18.89
611.89	18.78
612.083	18.65
612.277	18.59
612.47	18.59
612.663	18.49
612.856	18.48
613.05	18.38
613.243	18.31
613.436	18.16
613.629	18.19
613.822	18
614.015	17.95
614.209	17.84
614.402	17.79
614.595	17.66
614.788	17.69
614.981	17.6
615.174	17.67
615.367	17.61
615.56	17.51
615.753	17.42
615.946	17.4
616.139	17.24
616.332	17.18
616.525	17.09
616.718	16.94
616.911	16.87
617.103	16.89
617.296	16.81
617.489	16.84
617.682	16.88
617.875	16.81
618.067	16.64
618.26	16.58
618.453	16.5
618.646	16.42
618.838	16.38
619.031	16.32
619.224	16.26
619.417	16.25
619.609	16.19
619.802	16.15
619.994	16.13
620.187	16.19
620.38	16.17
620.572	16.15
620.765	16.12
620.957	16.14
621.15	16.05
621.342	16.02
621.535	16.07
621.727	16.08
621.92	15.97
622.112	15.92
622.305	15.86
622.497	15.75
622.69	15.56
622.882	15.65
623.074	15.72
623.267	15.66
623.459	15.66
623.651	15.71
623.844	15.67
624.036	15.55
624.228	15.57
624.42	15.51
624.613	15.55
624.805	15.52
624.997	15.53
625.189	15.52
625.381	15.63
625.574	15.57
625.766	15.56
625.958	15.56
626.15	15.54
626.342	15.42
626.534	15.3
626.726	15.27
626.918	15.18
627.11	15.12
627.302	15.03
627.494	15.05
627.686	14.99
627.878	15.03
628.07	14.97
628.262	14.95
628.454	14.96
628.646	14.97
628.838	14.87
629.029	14.76
629.221	14.69
629.413	14.63
629.605	14.52
629.797	14.54
629.989	14.64
630.18	14.72
630.372	14.76
630.564	14.85
630.755	14.83
630.947	14.77
631.139	14.71
631.33	14.59
631.522	14.53
631.714	14.39
631.905	14.42
632.097	14.38
632.289	14.44
632.48	14.35
632.672	14.37
632.863	14.24
633.055	14.14
633.246	14
633.438	13.96
633.629	13.95
633.821	13.99
634.012	13.97
634.203	13.95
634.395	13.9
634.586	13.89
634.777	13.85
634.969	13.79
635.16	13.85
635.351	13.87
635.543	13.96
635.734	13.94
635.925	14.01
636.117	14.03
636.308	14.07
636.499	14.03
636.69	13.99
636.881	13.97
637.073	13.95
637.264	13.82
637.455	13.65
637.646	13.7
637.837	13.73
638.028	13.74
638.219	13.74
638.41	13.76
638.601	13.71
638.792	13.67
638.983	13.65
639.174	13.56
639.365	13.43
639.556	13.32
639.747	13.24
639.938	13.2
640.129	13.36
640.32	13.4
640.511	13.42
640.701	13.34
640.892	13.2
641.083	13.09
641.274	13.1
641.465	13.1
641.655	13.09
641.846	13.03
642.037	13.03
642.228	13.08
642.418	13
642.609	13
642.8	13.01
642.99	12.95
643.181	12.84
643.372	12.93
643.562	12.98
643.753	13.08
643.943	13.05
644.134	13.02
644.324	12.96
644.515	12.89
644.705	12.79
644.896	12.75
645.086	12.76
645.277	12.73
645.467	12.66
645.658	12.63
645.848	12.5
646.038	12.58
646.229	12.52
646.419	12.52
646.61	12.58
646.8	12.71
646.99	12.53
647.18	12.57
647.371	12.59
647.561	12.49
647.751	12.37
647.941	12.46
648.132	12.42
648.322	12.43
648.512	12.33
648.702	12.38
648.892	12.31
649.082	12.34
649.272	12.17
649.462	12.2
649.653	12.25
649.843	12.2
650.033	12.12
650.223	12.26
650.413	12.27
650.603	12.19
650.793	12.17
650.983	12.21
651.172	12.1
651.362	12.01
651.552	11.88
651.742	11.85
651.932	11.64
652.122	11.71
652.312	11.73
652.502	11.68
652.691	11.66
652.881	11.7
653.071	11.59
653.261	11.58
653.45	11.58
653.64	11.48
653.83	11.35
654.019	11.3
654.209	11.22
654.399	11.24
654.588	11.23
654.778	11.23
654.968	11.15
655.157	10.99
655.347	10.79
655.536	10.7
655.726	10.64
655.915	10.57
656.105	10.5
656.294	10.48
656.484	10.42
656.673	10.25
656.863	10.12
657.052	9.94
657.241	9.77
657.431	9.62
657.62	9.56
657.809	9.46
657.999	9.46
658.188	9.38
658.377	9.3
658.567	9.21
658.756	9.04
658.945	8.9
659.134	8.71
659.324	8.56
659.513	8.36
659.702	8.25
659.891	8.15
660.08	8.12
660.269	7.98
660.458	7.88
660.648	7.77
660.837	7.63
661.026	7.47
661.215	7.45
661.404	7.37
661.593	7.3
661.782	7.27
661.971	7.25
662.16	7.22
662.349	7.11
662.538	6.96
662.726	6.78
662.915	6.68
663.104	6.53
663.293	6.41
663.482	6.49
663.671	6.52
663.86	6.43
664.048	6.34
664.237	6.34
664.426	6.25
664.615	6.17
664.803	6.2
664.992	6.09
665.181	6.07
665.369	6
665.558	5.93
665.747	5.93
665.935	5.96
666.124	5.85
666.312	5.76
666.501	5.67
666.69	5.47
666.878	5.34
667.067	5.29
667.255	5.3
667.444	5.29
667.632	5.34
667.82	5.39
668.009	5.4
668.197	5.28
668.386	5.25
668.574	5.3
668.762	5.23
668.951	5.3
669.139	5.35
669.327	5.34
669.516	5.21
669.704	5.23
669.892	5.15
670.08	5.18
670.269	5.19
670.457	5.25
670.645	5.16
670.833	5.24
671.021	5.32
671.21	5.25
671.398	5.21
671.586	5.25
671.774	5.26
671.962	5.1
672.15	5.18
672.338	5.31
672.526	5.3
672.714	5.2
672.902	5.26
673.09	5.27
673.278	5.24
673.466	5.41
673.654	5.57
673.842	5.58
674.03	5.71
674.218	5.65
674.405	5.65
674.593	5.64
674.781	5.64
674.969	5.57
675.157	5.69
675.344	5.75
675.532	5.76
675.72	5.83
675.908	5.94
676.095	5.91
676.283	5.93
676.471	5.99
676.658	6.1
676.846	6.16
677.033	6.25
677.221	6.25
677.409	6.26
677.596	6.17
677.784	6.09
677.971	6.18
678.159	6.23
678.346	6.28
678.534	6.46
678.721	6.37
678.909	6.41
679.096	6.6
679.283	6.62
679.471	6.55
679.658	6.95
679.846	7
680.033	6.94
680.22	6.99
680.408	7.05
680.595	6.89
680.782	6.88
680.969	6.97
681.157	7.1
681.344	7.12
681.531	7.24
681.718	7.34
681.905	7.2
682.093	7.18
682.28	7.34
682.467	7.43
682.654	7.56
682.841	7.81
683.028	7.91
683.215	8.09
683.402	8.08
683.589	8.13
683.776	8.25
683.963	8.34
684.15	8.36
684.337	8.61
684.524	8.7
684.711	8.82
684.898	9.06
685.085	9.25
685.271	9.24
685.458	9.47
685.645	9.69
685.832	9.81
686.019	10.05
686.205	10.37
686.392	10.43
686.579	10.55
686.766	10.75
686.952	10.84
687.139	11.05
687.326	11.21
687.512	11.29
687.699	11.5
687.886	11.74
688.072	11.99
688.259	12.28
688.445	12.74
688.632	12.87
688.818	13.23
689.005	13.48
689.191	13.89
689.378	14.18
689.564	14.61
689.751	14.98
689.937	15.39
690.124	15.76
690.31	15.92
690.496	16.25
690.683	16.49
690.869	16.83
691.055	17.16
691.242	17.76
691.428	18.35
691.614	18.88
691.8	19.37
691.987	19.68
692.173	20.08
692.359	20.56
692.545	21.11
692.731	21.54
692.918	22.32
693.104	22.99
693.29	23.38
693.476	23.75
693.662	24.36
693.848	24.82
694.034	25.08
694.22	25.67
694.406	26.14
694.592	26.57
694.778	26.98
694.964	27.71
695.15	28.08
695.336	28.77
695.522	29.41
695.708	30.18
695.894	30.54
696.08	31.23
696.265	31.63
696.451	32.14
696.637	32.65
696.823	33.26
697.009	33.74
697.194	34.32
697.38	34.73
697.566	35.22
697.751	35.76
697.937	36.26
698.123	36.73
698.308	37.31
698.494	37.93
698.68	38.6
698.865	39.32
699.051	39.92
699.236	40.63
699.422	41.09
699.607	41.6
699.793	42.05
699.978	42.69
700.164	43.15
700.349	43.62
700.535	43.93
700.72	44.29
700.906	45.01
701.091	45.37
701.276	46.05
701.462	46.94
701.647	47.7
701.832	47.99
702.018	48.9
702.203	49.24
702.388	49.66
702.573	49.76
702.759	50.18
702.944	50.21
703.129	50.53
703.314	50.69
703.499	51.52
703.684	51.78
703.87	52.16
704.055	52.39
704.24	52.99
704.425	53.28
704.61	53.6
704.795	53.77
704.98	54.26
705.165	54.49
705.35	54.74
705.535	55.39
705.72	56.21
705.905	56.53
706.09	56.76
706.275	57.16
706.459	57.5
706.644	57.63
706.829	58.21
707.014	58.96
707.199	59.23
707.384	59.69
707.568	60.02
707.753	60.58
707.938	60.99
708.123	61.64
708.307	61.78
708.492	62.07
708.677	62.05
708.861	61.81
709.046	61.66
709.231	62.25
709.415	62.46
709.6	62.69
709.784	63.19
709.969	63.62
710.153	63.76
710.338	64.19
710.522	64.45
710.707	65.01
710.891	65.08
711.076	65
711.26	65.12
711.445	65.23
711.629	64.99
711.813	64.88
711.998	65.35
712.182	65.43
712.366	65.59
712.551	66.07
712.735	67.01
712.919	66.88
713.103	67.42
713.288	67.7
713.472	67.71
713.656	67.72
713.84	68.04
714.024	68.24
714.208	68.39
714.393	68.58
714.577	68.61
714.761	68.53
714.945	68.57
715.129	68.5
715.313	69.1
715.497	69.21
715.681	69.66
715.865	69.14
716.049	69.53
716.233	69.12
716.417	69.42
716.601	69.25
716.785	69.44
716.968	69.38
717.152	70.13
717.336	70.14
717.52	70.51
717.704	71.01
717.888	71.09
718.071	70.74
718.255	71.07
718.439	71.21
718.622	71.35
718.806	71.59
718.99	71.82
719.174	71.96
719.357	71.84
719.541	71.9
719.724	72.62
719.908	72.7
720.092	72.5
720.275	72.64
720.459	72.76
720.642	72.98
720.826	72.62
721.009	73.13
721.193	73.95
721.376	73.89
721.559	74.52
721.743	75.25
721.926	75.26
722.11	74.86
722.293	75.51
722.476	74.55
722.66	74.45
722.843	74.7
723.026	74.95
723.21	75.46
723.393	75.43
723.576	75.57
723.759	75.61
723.942	75.97
724.126	75.76
724.309	76.1
724.492	76.04
724.675	76.07
724.858	75.81
725.041	75.72
725.224	75.88
725.407	75.97
725.59	76.11
725.774	76.38
725.957	76.66
726.14	76.96
726.322	77.2
726.505	77.37
726.688	77.55
726.871	78
727.054	78.03
727.237	78.57
727.42	78.88
727.603	79.04
727.786	78.3
727.968	77.92
728.151	78.24
728.334	78.42
728.517	78.99
728.699	79.97
728.882	80
729.065	79.76
729.248	79.78
729.43	78.6
729.613	78.15
729.796	79.01
729.978	79.41
730.161	79.01
730.343	80.22
730.526	80.78
730.708	80.98
730.891	80.54
731.073	80.58
731.256	80
731.438	80.59
731.621	80.87
731.803	81.57
731.986	82.07
732.168	82.14
732.35	81.83
732.533	81.88
732.715	81.7
732.898	81.18
733.08	82
733.262	82.28
733.444	82.29
733.627	81.59
733.809	82.44
733.991	82.57
734.173	82.87
734.355	82.6
734.538	84.14
734.72	83.73
734.902	83.99
735.084	83.01
735.266	83.44
735.448	82.64
735.63	83.33
735.812	83.83
735.994	84.86
736.176	85.24
736.358	84.5
736.54	84.48
736.722	83.76
736.904	84.24
737.086	83.73
737.268	85.64
737.45	86.07
737.632	86.95
737.814	87.3
737.995	88.3
738.177	87.68
738.359	87.14
738.541	87.06
738.723	87.42
738.904	86.65
739.086	86.68
739.268	86.9
739.449	86.47
739.631	85.12
739.813	85.27
739.994	86.14
740.176	87.22
740.358	88.5
740.539	89.2
740.721	89.34
740.902	88.78
741.084	89.13
741.265	88.06
741.447	88.5
741.628	91.18
741.81	91.84
741.991	89.91
742.172	90.78
742.354	90.34
742.535	88.27
742.717	87.52
742.898	88.55
743.079	88.28
743.261	88.96
743.442	89.14
743.623	89.22
743.804	88.78
743.986	89.02
744.167	87.43
744.348	87.44
744.529	87.87
744.71	89.38
744.891	89.01
745.073	90.81
745.254	90.56
745.435	91
745.616	90.36
745.797	90.11
745.978	89.87
746.159	91.38
746.34	90.27
746.521	91.55
746.702	91.29
746.883	90.33
747.064	88.03
747.245	89.4
747.426	89.75
747.606	90.63
747.787	92.27
747.968	93.77
748.149	93.32
748.33	91.24
748.51	91.49
748.691	89.72
748.872	88.87
749.053	88.21
749.233	88.43
749.414	87.9
749.595	88.4
749.775	87.71
749.956	88.41
750.137	89.29
750.317	90.27
750.498	89.78
750.678	90.11
750.859	88.35
751.04	88.22
751.22	86.91
751.4	87.96
751.581	88.63
751.761	90.43
751.942	91.67
752.122	92.04
752.303	90.85
752.483	91.51
752.663	91.81
752.844	90.06
753.024	90.46
753.204	90.65
753.385	89.87
753.565	90.46
753.745	91.33
753.925	92.41
754.106	93.26
754.286	94.03
754.466	93.78
754.646	94.82
754.826	93.6
755.006	93.69
755.187	91.97
755.367	90.94
755.547	89.79
755.727	90.07
755.907	89.89
756.087	90.87
756.267	89.97
756.447	89.28
756.627	89.34
756.807	88.98
756.987	89.31
757.167	90.82
757.346	91.88
757.526	91.97
757.706	92.46
757.886	93
758.066	92.81
758.246	91.6
758.425	90.73
758.605	90.1
758.785	89.31
758.965	89.08
759.144	89.64
759.324	88.89
759.504	89.71
759.683	90.8
759.863	90.79
760.043	89.85
760.222	88.25
760.402	87.02
760.581	87.17
760.761	87.78
760.94	88.64
761.12	93.85
761.299	94.09
761.479	93.21
761.658	91.79
761.838	90.16
762.017	89.21
762.197	90.35
762.376	90.28
762.555	90.88
762.735	91.49
762.914	90.6
763.093	91.03
763.273	90.14
763.452	90.1
763.631	91.13
763.81	91.18
763.99	90.21
764.169	91.05
764.348	90.87
764.527	89.18
764.706	88.95
764.885	89.05
765.064	90.37
765.243	90.5
765.423	91.55
765.602	91.51
765.781	92.84
765.96	88.14
766.139	87.78
766.318	87.55
766.497	86.88
766.676	84.17
766.854	88.46
767.033	90.02
767.212	90.56
767.391	89.83
767.57	91.39
767.749	91.5
767.928	89.5
768.106	88.62
768.285	88.04
768.464	87.19
768.643	86.32
768.821	85.48
769	87.12
769.179	89.04
769.357	88.69
769.536	87.59
769.715	89.41
769.893	87.27
770.072	85.65
770.25	86.27
770.429	86.44
770.607	84.94
770.786	86.98
770.964	88.13
771.143	88.74
771.321	89.72
771.5	90.55
771.678	91.57
771.857	91.31
772.035	89.99
772.213	88.75
772.392	88.59
772.57	86.08
772.748	84.43
772.927	86.74
773.105	87.31
773.283	87.96
773.461	88.17
773.64	90.55
773.818	89.97
773.996	89.79
774.174	89.08
774.352	87.88
774.531	87.77
774.709	84.88
774.887	84.89
775.065	84.6
775.243	84.73
775.421	84.35
775.599	85.29
775.777	84.39
775.955	84.73
776.133	84.61
776.311	85.53
776.489	88.17
776.667	89.29
776.844	92.49
777.022	94.63
777.2	93.26
777.378	90.71
777.556	90.37
777.734	88.67
777.911	87.51
778.089	88.63
778.267	88.7
778.445	83.58
778.622	82.73
778.8	84.69
778.978	82.41
779.155	81.36
779.333	86.5
779.511	85.08
779.688	84.96
779.866	85.37
780.043	85.19
780.221	80.65
780.398	81.87
780.576	80.45
780.753	78.66
780.931	78.29
781.108	81.76
781.286	82.23
781.463	81.78
781.64	81.9
781.818	85.93
781.995	85.89
782.172	85.77
782.35	84.31
782.527	87.09
782.704	86.32
782.882	86.68
783.059	86.34
783.236	86.17
783.413	83.66
783.59	81.52
783.768	77.33
783.945	76.98
784.122	80.71
784.299	79.36
784.476	79.91
784.653	84.53
784.83	85.03
785.007	81.53
785.184	82.47
785.361	83.09
785.538	83.88
785.715	85.39
785.892	87.47
786.069	89.74
786.246	87.76
786.423	88.31
786.6	87.32
786.776	85.45
786.953	83.37
787.13	85.98
787.307	83.99
787.484	80.61
787.66	79.77
787.837	82.33
788.014	86.35
788.191	86.01
788.367	90.11
788.544	91.22
788.721	88.61
788.897	81.3
789.074	80.64
789.25	77.6
789.427	80.78
789.603	77.66
789.78	79.79
789.956	87.76
790.133	88.81
790.309	84.77
790.486	87.82
790.662	86.34
790.839	77.29
791.015	76.05
791.192	78.46
791.368	81.83
791.544	85.09
791.721	85.57
791.897	86.24
792.073	85.77
792.249	80.51
792.426	79.1
792.602	85.47
792.778	83.16
792.954	81.47
793.13	87.2
793.307	88.68
793.483	84.84
793.659	88.72
793.835	86.15
794.011	87.35
794.187	84.22
794.363	77.82
794.539	78.31
794.715	81.57
794.891	75.39
795.067	75.86
795.243	80.76
795.419	78.04
795.595	79.2
795.771	79.82
795.947	77.94
796.122	78.22
796.298	80.99
796.474	76.22
796.65	77.41
796.826	78.83
797.001	75.43
797.177	76.89
797.353	77.35
797.529	77.61
797.704	78.92
797.88	78.88
798.056	74.13
798.231	78.28
798.407	78.54
798.582	81.95
798.758	90.66
798.934	89.67
799.109	88.69
799.285	89.42
799.46	82.73
799.636	80.81
799.811	81.91
799.986	79.34
800.162	81.92
800.337	89.51
800.513	87.42
800.688	89.61
800.863	98.72
801.039	100.34
801.214	99.13
801.389	93.5
801.565	86.97
801.74	81.97
801.915	71.16
802.09	67.09
802.265	72.7
802.441	76.02
802.616	76.18
802.791	83.76
802.966	90.46
803.141	90.52
803.316	89.09
803.491	84.67
803.666	90.3
803.841	81.76
804.016	80.21
804.191	84.47
804.366	89.01
804.541	77.19
804.716	84.39
804.891	74.51
805.066	70.96
805.241	72.16
805.416	72.79
805.591	72.03
805.765	75.94
805.94	69.15
806.115	62.22
806.29	64.31
806.464	59.31
806.639	61.41
806.814	63.41
806.989	60.18
807.163	61.41
807.338	66.64
807.512	62.98
807.687	62.94
807.862	69.18
808.036	65.98
808.211	61.31
808.385	64.48
808.56	65.53
808.734	58.97
808.909	60.85
809.083	67.58
809.258	63.74
809.432	71.46
809.606	76.34
809.781	76.23
809.955	71.84
810.13	77.54
810.304	75.05
810.478	73.3
810.652	78.88
810.827	81.34
811.001	81.61
811.175	88.45
811.349	88.33
811.524	70.05
811.698	59.02
811.872	66.75
812.046	65.44
812.22	72.27
812.394	88.99
812.568	103.35
812.742	91.07
812.916	91.26
813.09	84.37
813.264	79.66
813.438	75.67
813.612	77.72
813.786	66.08
813.96	72.61
814.134	76.5
814.308	76.57
814.482	76.37
814.656	89.61
814.83	84.87
815.003	81.48
815.177	77.37
815.351	74.33
815.525	59.83
815.698	64.34
815.872	65.82
816.046	74.8
816.219	73.54
816.393	74.82
816.567	81.85
816.74	75.5
816.914	67.19
817.088	64.74
817.261	64.24
817.435	63.53
817.608	70.95
817.782	69.82
817.955	71.91
818.129	75.78
818.302	69.07
818.475	58.5
818.649	67.34
818.822	63.43
818.996	64.08
819.169	62.51
819.342	62.99
819.516	58.47
819.689	71.28
819.862	74.11
820.035	70.37
820.209	75.98
820.382	74.09
820.555	61.02
820.728	65.93
820.901	81.15
821.075	80.48
821.248	71.03
821.421	71.84
821.594	73.59
821.767	72.87
821.94	71.59
822.113	89.29
822.286	82.67
822.459	81.81
822.632	77.85
822.805	63.94
822.978	45.59
823.151	58.76
823.324	58.46
823.496	45.49
823.669	58.5
823.842	68.71
824.015	70.46
824.188	66.61
824.361	73.46
824.533	74.51
824.706	75.31
824.879	66.09
825.051	65.45
825.224	61.09
825.397	43.17
825.569	45.42
825.742	41.66
825.915	44.23
826.087	57.2
826.26	74.9
826.432	65.94
826.605	70.15
826.777	67.34
826.95	57.34
827.122	56.42
827.295	59.2
827.467	51.98
827.64	46.71
827.812	48.88
827.984	52.31
828.157	39.9
828.329	68
828.501	67.87
828.674	71.37
828.846	66.31
829.018	79.73
829.19	72.15
829.363	76.96
829.535	78.46
829.707	79.95
829.879	74.12
830.051	52.17
830.223	51.49
830.395	54.42
830.568	49.88
830.74	46.44
830.912	61.2
831.084	77.49
831.256	54.11
831.428	63.7
831.6	77.6
831.772	66.64
831.943	43.47
832.115	45.95
832.287	40.33
832.459	33.98
832.631	27.6
832.803	22.54
832.975	30.34
833.146	32.8
833.318	40.81
833.49	51.3
833.662	70.8
833.833	59.69
834.005	49.37
834.177	48.4
834.348	50.41
834.52	42.02
834.692	49.95
834.863	42.15
835.035	51.53
835.206	30.74
835.378	45.63
835.549	54.59
835.721	58.88
835.892	56.02
836.064	80.31
836.235	75.72
836.407	67.51
836.578	89.59
836.749	80.77
836.921	59.7
837.092	62.12
837.264	56.42
837.435	56.77
837.606	72.94
837.777	67.59
837.949	64.14
838.12	64.53
838.291	53.15
838.462	61.98
838.633	68.23
838.805	55.18
838.976	71.64
839.147	75.26
839.318	48.34
839.489	59.07
839.66	73.54
839.831	64.85
840.002	62.45
840.173	72.92
840.344	40.45
840.515	14.93
840.686	16.84
840.857	23.02
841.028	34.06
841.199	53.3
841.369	75.29
841.54	100.3
841.711	83.66
841.882	68.52
842.053	72.66
842.223	59.19
842.394	48.64
842.565	39.38
842.736	55.23
842.906	36.46
843.077	27.49
843.248	26.39
843.418	48.78
843.589	27.71
843.759	57.23
843.93	52.96
844.101	61.18
844.271	70.93
844.442	78.28
844.612	65.64
844.783	77.39
844.953	67.39
845.123	61.78
845.294	66.31
845.464	51.74
845.635	20.76
845.805	23.67
845.975	28.55
846.146	15.85
846.316	29.91
846.486	46.03
846.656	47.89
846.827	63.36
846.997	63.33
847.167	82.02
847.337	84.53
847.507	83.08
847.677	62.94
847.848	57.47
848.018	41.75
848.188	50.72
848.358	31.68
848.528	30.06
848.698	47.56
848.868	41.08
849.038	34.87
849.208	49.66
849.378	62.68
849.548	76.71
849.718	79.18
849.887	79.53
850.057	64.98
850.227	68.34
850.397	34.93
850.567	43.57
850.737	25.91
850.906	9.32
851.076	11.29
851.246	11.82
851.415	15.76
851.585	11.74
851.755	30.87
851.924	42.58
852.094	47.7
852.264	40.05
852.433	45.4
852.603	56.67
852.772	75.34
852.942	57.52
853.111	66.73
853.281	59.48
853.45	62.95
853.62	44.38
853.789	63.39
853.959	57.24
854.128	68.31
854.297	48.41
854.467	33.95
854.636	19.2
854.805	37.38
854.975	29.82
855.144	98.24
855.313	63.59
855.482	66.77
855.652	42.4
855.821	51.21
855.99	23.09
856.159	37.56
856.328	59.5
856.497	50.68
856.667	35.55
856.836	0.57
857.005	-18.86
857.174	-158.59
857.343	-199.34
857.512	-390.88
857.681	8.76
857.85	27.26
858.019	21.24
858.188	21.56
858.356	36.36
858.525	-15.68
858.694	-12.65
858.863	-31.07
859.032	-19.44
859.201	-8.05
859.369	15.85
859.538	1.99
859.707	29.33
859.876	50.97
860.044	66.81
860.213	71
860.382	67.34
860.55	79.36
860.719	64.66
860.888	28.53
861.056	14.84
861.225	34.57
861.393	35.02
861.562	51.36
861.73	64.11
861.899	89.1
862.067	84.11
862.236	92.93
862.404	35.55
862.572	71.55
862.741	38.13
862.909	43.36
863.078	30.02
863.246	55.83
863.414	46.84
863.582	74.85
863.751	61.6
863.919	47.58
864.087	75.21
864.255	40.54
864.424	46.14
864.592	49.32
864.76	48.78
864.928	55.73
865.096	77.63
865.264	26.38
865.432	4.76
865.6	31.06
865.768	4.57
865.936	2.55
866.104	23.37
866.272	71.86
866.44	55.39
866.608	95.54
866.776	55.91
866.944	48.66
867.112	-13.49
867.28	-85.9
867.448	-101.33
867.615	108.06
867.783	166.01
867.951	120.72
868.119	122.25
868.286	60.3
868.454	21.33
868.622	-14.58
868.789	-61.32
868.957	-53.8
869.125	-34.42
869.292	-12.36
869.46	4.01
869.627	24.23
869.795	26.78
869.963	40.14
870.13	24.92
870.298	12.98
870.465	2.02
870.632	26.27
870.8	26.61
870.967	21.79
871.135	55.12
871.302	101.16
871.469	144.84
871.637	-19.96
871.804	39.87
871.971	-5.94
872.139	21.99
872.306	33.13
872.473	34.71
872.64	27.53
872.807	46.19
872.975	38.3
873.142	60.41
873.309	1097.1
873.476	506.71
873.643	131.37
873.81	71.68
873.977	61.39
874.144	52.8
874.311	26.83
874.478	29.68
874.645	56.31
874.812	49.44
874.979	32.55
875.146	53.73
875.313	77.56
875.48	19.43
875.647	-14.45
875.813	379.11
875.98	-825.25
876.147	50.58
876.314	67.44
876.481	74.77
876.647	119.35
876.814	80.39
876.981	60.95
877.147	60.35
877.314	52.73
877.481	50.87
877.647	52.24
877.814	52.71
877.98	-2.8
878.147	7.75
878.314	-69.64
878.48	-7.81
878.647	52.77
878.813	819.38
878.979	197.71
879.146	179.82
879.312	168.18
879.479	131.6
879.645	137.92
879.811	108.76
879.978	106.03
880.144	85.23
880.31	72.09
880.477	36.9
880.643	56.33
880.809	65
880.975	1530.3
881.142	151.92
881.308	-49.33
881.474	-162.83
881.64	-201.71
881.806	-44.92
881.972	11.55
882.138	65.15
882.304	128.64
882.47	148.37
882.636	174.54
882.802	182.17
882.968	293.46
883.134	86.84
883.3	79.38
883.466	84.59
883.632	81.86
883.798	59.95
883.964	87.3
884.129	124.22
884.295	100.17
884.461	37.31
884.627	59.85
884.793	22.37
884.958	17.73
885.124	13.91
885.29	-5.8
885.455	-134.64
885.621	-41.76
885.787	-25.49
885.952	104.02
886.118	41.95
886.283	991.23
886.449	77.72
886.614	89.76
886.78	63.7
886.945	92.22
887.111	45.02
887.276	58.51
887.442	69.49
887.607	51.12
887.773	46.86
887.938	57.1
888.103	50.4
888.269	10.9
888.434	3.14
888.599	-20.54
888.764	18.34
888.93	-19.35
889.095	-37.04
889.26	42.4
889.425	128.85
889.59	109.66
889.756	143.77
889.921	49.68
890.086	39.83
890.251	27.41
890.416	-2.72
890.581	-11.83
890.746	57.88
890.911	17.02
891.076	42.57
891.241	71.48
891.406	77.55
891.571	2.39
891.736	83.97
891.901	64.31
892.065	60.15
892.23	119.26
892.395	117.81
892.56	134.61
892.725	178.23
892.889	115.69
893.054	42.22
893.219	9.17
893.384	32.45
893.548	-109.38
893.713	345.68
893.878	74.75
