Data from Ofav_PS_Phys_9GT46_Reflection_1.txt Node
Date: Thu Jul 29 18:25:44 EDT 2021
User: USUARIO
Spectrometer: FLMT01687
Trigger mode: 0
Integration Time (sec): 9.010000E-1
Scans to average: 2
Electric dark correction enabled: true
Nonlinearity correction enabled: false
Boxcar width: 2
XAxis mode: Wavelengths
Number of Pixels in Spectrum: 3648
>>>>>Begin Spectral Data<<<<<
179.494	452.06
179.716	475.23
179.937	308.85
180.158	-1419.21
180.38	-41.69
180.601	-580.58
180.823	-249.33
181.044	-115.09
181.265	-86.68
181.486	-937.85
181.708	90.38
181.929	228.73
182.15	6666.67
182.372	-106.98
182.593	-48.35
182.814	-82.91
183.035	-1124.4
183.257	233.27
183.478	103.2
183.699	81.52
183.92	57.85
184.141	39.45
184.363	31
184.584	62.9
184.805	51.3
185.026	73.6
185.247	64.54
185.468	52.76
185.689	-6.36
185.91	-3.22
186.132	-6.49
186.353	7.67
186.574	45.38
186.795	61.53
187.016	45.87
187.237	10.73
187.458	18.39
187.679	18.25
187.9	22.4
188.121	25.53
188.342	49.07
188.563	55.84
188.784	54.66
189.005	43.66
189.226	55.33
189.447	55.32
189.667	50.9
189.888	35.76
190.109	39.92
190.33	-43.27
190.551	-23.15
190.772	-4.17
190.993	1.46
191.214	-17.38
191.434	-1.01
191.655	2.27
191.876	-25.85
192.097	-83.15
192.318	-10.54
192.538	16.59
192.759	46.26
192.98	44.65
193.201	48.82
193.421	17.97
193.642	-7.75
193.863	-32.7
194.083	-76.95
194.304	-68.75
194.525	-8.92
194.745	-21.96
194.966	-20.37
195.187	-19.06
195.407	-26.56
195.628	-91.76
195.848	-46.28
196.069	-19.51
196.29	3.54
196.51	12.11
196.731	13.76
196.951	-9.89
197.172	-54.8
197.392	-44.57
197.613	-77.39
197.833	-74.78
198.054	-36.18
198.274	-16.68
198.495	5.32
198.715	4.48
198.936	11.27
199.156	6.31
199.377	21.39
199.597	15.33
199.817	25.38
200.038	22.98
200.258	19.63
200.479	-14.74
200.699	-48.73
200.919	-7.14
201.14	-15.38
201.36	-1.41
201.58	15.77
201.801	30.1
202.021	25.78
202.241	39.65
202.461	26.78
202.682	11.7
202.902	26.42
203.122	31.33
203.342	30.38
203.563	37.37
203.783	32.92
204.003	23.2
204.223	2.26
204.443	18.7
204.663	39.09
204.884	61.98
205.104	64.25
205.324	54.91
205.544	57.64
205.764	47.85
205.984	70.37
206.204	70.81
206.424	68.95
206.644	61.64
206.864	59.57
207.084	-2.18
207.304	18.15
207.525	-28.4
207.745	-6.65
207.964	-8.16
208.184	7.67
208.404	-42.65
208.624	13.41
208.844	-8.03
209.064	-1.99
209.284	-7.64
209.504	-3.71
209.724	13.37
209.944	32.41
210.164	25.34
210.384	37.79
210.604	40.75
210.823	15.88
211.043	8.19
211.263	44.98
211.483	7.27
211.703	6.34
211.922	0.6
212.142	24.03
212.362	-12.19
212.582	5.51
212.801	15.96
213.021	14.07
213.241	-3.45
213.461	4.72
213.68	-7.9
213.9	-4.78
214.12	12.16
214.339	-33.26
214.559	-29.48
214.779	-4.25
214.998	-25.79
215.218	-41.71
215.438	7.69
215.657	-2.65
215.877	9.15
216.096	-6.41
216.316	-14.44
216.535	-31.74
216.755	-66.41
216.974	-73.36
217.194	-28.62
217.413	8.26
217.633	24.44
217.852	5.18
218.072	-8.23
218.291	-6.75
218.511	14.64
218.73	1.74
218.95	20.11
219.169	29.1
219.389	21.12
219.608	-7.24
219.827	10.04
220.047	13.57
220.266	-4.49
220.485	15.34
220.705	18.72
220.924	-15.75
221.143	-25.32
221.363	-36.81
221.582	-69.55
221.801	-128.45
222.021	-52.72
222.24	-16.63
222.459	11.83
222.678	27.74
222.897	19.35
223.117	26.35
223.336	36.03
223.555	41.59
223.774	12.48
223.993	7.21
224.213	8.98
224.432	-0.07
224.651	11.9
224.87	24.27
225.089	43.08
225.308	37.29
225.527	22.35
225.746	-4.74
225.965	3.7
226.184	-5.99
226.404	-4.21
226.623	28.44
226.842	19.14
227.061	-14.57
227.28	-21.02
227.499	-6.16
227.718	-27.89
227.936	15.47
228.155	28.83
228.374	12.6
228.593	19.66
228.812	16.42
229.031	9.28
229.25	13.91
229.469	20.87
229.688	11.99
229.907	30.75
230.125	31.81
230.344	48.34
230.563	51.44
230.782	67.05
231.001	27.87
231.22	19.92
231.438	30.56
231.657	30.92
231.876	25.04
232.095	33.77
232.313	30.74
232.532	2.58
232.751	-17.55
232.969	7.75
233.188	8.61
233.407	19.51
233.625	32.55
233.844	18.76
234.063	-11.45
234.281	-37.62
234.5	-40.92
234.719	-24.03
234.937	-5.44
235.156	-21.13
235.374	40.75
235.593	46.71
235.811	43.74
236.03	31.55
236.249	35.48
236.467	14.04
236.686	0.44
236.904	-0.21
237.123	14.46
237.341	0.57
237.559	6.88
237.778	25.97
237.996	32.03
238.215	37.35
238.433	41.43
238.652	42.21
238.87	20.08
239.088	18.94
239.307	-8.08
239.525	5.81
239.743	7.46
239.962	16.18
240.18	14.32
240.398	24.84
240.617	4.77
240.835	-1.41
241.053	-1.53
241.271	2.04
241.49	4.74
241.708	32.16
241.926	28.35
242.144	21.97
242.363	18.4
242.581	8.64
242.799	-3.74
243.017	-8.81
243.235	-9.75
243.453	-8.53
243.672	-0.62
243.89	-16.41
244.108	2.51
244.326	15.26
244.544	8.4
244.762	3.26
244.98	12.35
245.198	13.5
245.416	-2.57
245.634	-11.27
245.852	-14.12
246.07	9.04
246.288	5.48
246.506	5.59
246.724	19.48
246.942	32.66
247.16	23.89
247.378	7.11
247.596	10.66
247.814	-4.04
248.032	-19.1
248.25	-15.34
248.468	-9.34
248.685	-2.28
248.903	-0.96
249.121	-4.85
249.339	-24.71
249.557	-18.31
249.775	-17.58
249.992	-31.24
250.21	-8.3
250.428	29.55
250.646	19.56
250.863	17.77
251.081	30.22
251.299	24.87
251.517	9.84
251.734	26.68
251.952	16.79
252.17	23.58
252.387	23.35
252.605	9.55
252.823	-14.45
253.04	17.6
253.258	19.31
253.475	17.78
253.693	18.15
253.911	47.35
254.128	41.64
254.346	4.04
254.563	-3.34
254.781	-10.75
254.998	-23.06
255.216	-56.61
255.433	-5.01
255.651	-7.13
255.868	-16.96
256.086	-1.4
256.303	16.43
256.521	14.47
256.738	10.89
256.956	29.18
257.173	8.95
257.39	23.23
257.608	23.29
257.825	35.11
258.043	12.98
258.26	10.15
258.477	-7.21
258.695	-39.36
258.912	-50.18
259.129	-44.94
259.346	-26.42
259.564	-66.49
259.781	-36.89
259.998	-25.64
260.216	8.59
260.433	17.51
260.65	10.43
260.867	21.2
261.084	17.78
261.302	-13.64
261.519	-23.54
261.736	7.46
261.953	4.33
262.17	20.13
262.387	31.08
262.604	7.16
262.822	2.92
263.039	4.46
263.256	-3.3
263.473	8.45
263.69	4.46
263.907	6.78
264.124	31.73
264.341	42.84
264.558	20.64
264.775	33.42
264.992	38.39
265.209	19.24
265.426	27.93
265.643	29.5
265.86	31.43
266.077	25.56
266.294	39.37
266.51	19.27
266.727	23.87
266.944	28.6
267.161	-7.22
267.378	-34.8
267.595	-20.63
267.812	-35.79
268.028	-76.03
268.245	-5.64
268.462	4.98
268.679	7
268.896	24.66
269.112	33.3
269.329	25
269.546	40.18
269.763	38.27
269.979	31.6
270.196	37.83
270.413	37.41
270.629	26.81
270.846	24.4
271.063	40.57
271.279	41.14
271.496	35.12
271.712	25.27
271.929	28.21
272.146	17.54
272.362	26.92
272.579	50.71
272.795	47.65
273.012	44.95
273.228	40.14
273.445	33.52
273.661	5.57
273.878	3.94
274.094	8.39
274.311	6.47
274.527	17.91
274.744	37.62
274.96	47.42
275.177	43.08
275.393	51.86
275.609	40.38
275.826	21.86
276.042	4.42
276.259	-12.61
276.475	-19.07
276.691	4.71
276.908	10.94
277.124	17.99
277.34	23.3
277.557	7.86
277.773	-3.38
277.989	-12.01
278.205	-7.69
278.422	-30.63
278.638	-19.64
278.854	-26.3
279.07	4.64
279.286	-28.65
279.503	-3.01
279.719	-7.14
279.935	-10.04
280.151	-43.28
280.367	-9.99
280.583	16.58
280.799	22.96
281.016	13.9
281.232	29.57
281.448	19.39
281.664	12.58
281.88	-7.73
282.096	11.47
282.312	-0.96
282.528	-2.9
282.744	1.95
282.96	19.52
283.176	-16.88
283.392	9.01
283.608	15.34
283.824	8.91
284.04	2.45
284.256	27.38
284.471	1.68
284.687	-3.17
284.903	-0.61
285.119	4.67
285.335	-11.36
285.551	10.33
285.767	5.05
285.982	8.6
286.198	6.85
286.414	19.12
286.63	26.99
286.846	32.57
287.061	23.14
287.277	38.52
287.493	37.11
287.709	15.67
287.924	35.99
288.14	36.51
288.356	33.77
288.571	30.6
288.787	24.52
289.003	-5.04
289.218	-13.12
289.434	-4.83
289.65	5.7
289.865	20.78
290.081	17.67
290.296	23.26
290.512	3.33
290.727	-20.26
290.943	-25.9
291.159	-8.26
291.374	3.4
291.59	3.07
291.805	-0.05
292.021	6.87
292.236	1.46
292.451	-32.05
292.667	-22.06
292.882	-2.67
293.098	10.76
293.313	6.47
293.529	23.68
293.744	8.92
293.959	-3.26
294.175	2.09
294.39	3.69
294.605	5.23
294.821	28.09
295.036	34.53
295.251	15.57
295.467	13.6
295.682	7.81
295.897	-7.95
296.112	-16.65
296.328	-2.55
296.543	2.11
296.758	-2.72
296.973	-1.86
297.188	19.1
297.404	8.88
297.619	11.24
297.834	6.72
298.049	18.23
298.264	15.09
298.479	25.28
298.694	25.42
298.909	29.43
299.125	23.43
299.34	14.89
299.555	-9.55
299.77	11.81
299.985	-23.79
300.2	-13.11
300.415	-21.16
300.63	-5.64
300.845	-41.8
301.06	-24.98
301.275	-44.5
301.49	-37.77
301.704	-54.79
301.919	0.34
302.134	10.87
302.349	20.33
302.564	35.39
302.779	37.84
302.994	32.07
303.209	29.49
303.423	37.5
303.638	23
303.853	4.68
304.068	7.1
304.283	12.63
304.497	8.72
304.712	-10.49
304.927	2.01
305.142	-16.08
305.356	-29.18
305.571	-12.19
305.786	17.19
306	0.74
306.215	7.78
306.43	7.28
306.644	-20.88
306.859	-52.55
307.074	-30.73
307.288	-12.22
307.503	10.3
307.717	11.98
307.932	17.44
308.147	13.54
308.361	3.36
308.576	-13.3
308.79	-31.95
309.005	-19.15
309.219	-24.61
309.434	-11.27
309.648	-15.12
309.863	-0.68
310.077	-1.24
310.292	0.99
310.506	-18.89
310.72	11.74
310.935	0.68
311.149	7.82
311.364	35.72
311.578	42.17
311.792	11.95
312.007	33.42
312.221	13.29
312.435	-0.31
312.649	-8.62
312.864	-104.28
313.078	-40.98
313.292	-9.48
313.507	19.52
313.721	31.13
313.935	34.99
314.149	17.16
314.363	19.84
314.578	7.75
314.792	29.72
315.006	42.18
315.22	46.23
315.434	37.97
315.648	45.83
315.862	32.23
316.077	16.98
316.291	29.14
316.505	35.53
316.719	31.64
316.933	27.22
317.147	34.22
317.361	2.35
317.575	-4.41
317.789	-22.16
318.003	-5.66
318.217	8.96
318.431	19.44
318.645	25.54
318.859	40.68
319.073	38.58
319.287	32.2
319.5	16.65
319.714	21.86
319.928	15.61
320.142	32.95
320.356	33.3
320.57	35.39
320.784	30.22
320.997	10.93
321.211	-1.39
321.425	-2.55
321.639	-3.1
321.853	2.65
322.066	6.03
322.28	15.12
322.494	16.58
322.707	28.28
322.921	15.32
323.135	17.09
323.349	12.21
323.562	1.98
323.776	-17.04
323.989	-1.3
324.203	21.17
324.417	11.19
324.63	8.55
324.844	18.64
325.057	13.59
325.271	-1.06
325.485	2.72
325.698	5.21
325.912	7.78
326.125	5.25
326.339	5.96
326.552	-3.18
326.766	-1.89
326.979	6.63
327.193	10.23
327.406	16.25
327.619	19.96
327.833	27.87
328.046	28.07
328.26	31.7
328.473	30.79
328.686	31.77
328.9	36.52
329.113	12.19
329.326	-20.14
329.54	-55.95
329.753	-43.59
329.966	-21.45
330.179	-17.91
330.393	-4.64
330.606	7.02
330.819	13.74
331.032	4.09
331.246	9.79
331.459	-20.98
331.672	-19.67
331.885	-17.03
332.098	-5.7
332.311	9
332.525	16.46
332.738	10.16
332.951	-18.47
333.164	-21.69
333.377	-36.85
333.59	-7.56
333.803	13.49
334.016	32.94
334.229	19.33
334.442	17.79
334.655	19.75
334.868	6.01
335.081	21.9
335.294	38.14
335.507	51.95
335.72	44.86
335.933	43.45
336.146	46.56
336.359	38.85
336.572	20.53
336.785	23.19
336.997	14.33
337.21	0.43
337.423	3.87
337.636	22.25
337.849	17.74
338.062	23.31
338.274	32.5
338.487	28.49
338.7	-15.77
338.913	2.1
339.125	4.15
339.338	5.38
339.551	-4.05
339.763	7.41
339.976	-8.79
340.189	-5.76
340.402	-1.09
340.614	7.88
340.827	10.94
341.039	0.32
341.252	-2.59
341.465	4.27
341.677	10.39
341.89	-3.78
342.102	7.34
342.315	5.99
342.527	6.83
342.74	13.7
342.952	30.38
343.165	41.97
343.377	41.31
343.59	27.23
343.802	24.13
344.015	24.72
344.227	8.26
344.44	2.94
344.652	13.56
344.864	-15.28
345.077	-11.2
345.289	-11.02
345.502	-19.72
345.714	-30.65
345.926	-14.76
346.139	-52.09
346.351	-44.79
346.563	-16.27
346.775	-2.09
346.988	-14.67
347.2	1.93
347.412	-20.57
347.624	-22.46
347.837	-46.82
348.049	-36.92
348.261	-36.08
348.473	-25.98
348.685	-24.12
348.897	-2.09
349.11	-1.6
349.322	-4.49
349.534	19.96
349.746	28.43
349.958	17.93
350.17	15.95
350.382	17.02
350.594	-4.92
350.806	-0.51
351.018	-9.3
351.23	-4.6
351.442	-21.96
351.654	1.51
351.866	-30.25
352.078	5.8
352.29	1.71
352.502	11.61
352.714	3.61
352.926	32.34
353.138	25.34
353.35	35.47
353.561	34.77
353.773	41.87
353.985	43.99
354.197	38.01
354.409	30.72
354.621	17.68
354.832	-4.56
355.044	-9.66
355.256	-7.12
355.468	-13.32
355.679	12.89
355.891	20.52
356.103	18.12
356.314	22.12
356.526	26.05
356.738	22.42
356.949	14.91
357.161	25.56
357.373	14.8
357.584	10.33
357.796	7.5
358.008	17.46
358.219	9.32
358.431	6.26
358.642	12.27
358.854	13.02
359.065	3.81
359.277	-4.96
359.488	7.09
359.7	9.39
359.911	14.51
360.123	24.47
360.334	25.5
360.546	16.24
360.757	9.5
360.969	-12.07
361.18	-7.4
361.391	-1.53
361.603	5.72
361.814	20.24
362.025	22.3
362.237	15.5
362.448	5.21
362.659	-4.83
362.871	-7.5
363.082	-1.24
363.293	0.87
363.504	16.44
363.716	18.73
363.927	21.81
364.138	1.21
364.349	4.36
364.56	1.39
364.772	-8.53
364.983	-14.74
365.194	-10.17
365.405	-10.88
365.616	-4.27
365.827	8.26
366.038	2.19
366.25	-0.78
366.461	-14.23
366.672	-15.83
366.883	-14.3
367.094	4.43
367.305	20.68
367.516	38.2
367.727	28.28
367.938	18.12
368.149	9.8
368.36	11.57
368.571	-15.07
368.781	-32.53
368.992	-27.98
369.203	-18.1
369.414	-25.35
369.625	15.81
369.836	32.87
370.047	29.73
370.258	33.93
370.468	31.11
370.679	2.38
370.89	-22.78
371.101	-15.49
371.312	-33
371.522	-22.94
371.733	-8.84
371.944	2.12
372.155	1.66
372.365	-0.8
372.576	-21.92
372.787	-17.53
372.997	-20.66
373.208	-0.17
373.419	2.36
373.629	27.01
373.84	34.73
374.05	31.42
374.261	22.19
374.472	20.08
374.682	-4.87
374.893	7.68
375.103	20.23
375.314	19.33
375.524	29.19
375.735	51.1
375.945	43.81
376.156	33.01
376.366	29.42
376.577	31.27
376.787	4.97
376.997	3.38
377.208	4.29
377.418	3.04
377.629	-0.05
377.839	17.58
378.049	19.17
378.26	11.72
378.47	25.81
378.68	13.45
378.89	10.98
379.101	14.2
379.311	16.51
379.521	4.92
379.732	14.36
379.942	10.41
380.152	-4.34
380.362	0.56
380.572	-3.19
380.783	-17.07
380.993	-23.11
381.203	-7.09
381.413	-13.93
381.623	-12.59
381.833	10.1
382.043	8.6
382.253	5.03
382.463	3.67
382.674	3.66
382.884	5.76
383.094	-1.24
383.304	-2.64
383.514	3.77
383.724	14.54
383.934	5.72
384.144	10.82
384.353	15.04
384.563	13.03
384.773	8.88
384.983	13.14
385.193	20.79
385.403	9.84
385.613	9.75
385.823	4.18
386.033	0.21
386.242	-6.9
386.452	-2.71
386.662	0.56
386.872	8
387.082	8.18
387.291	2.96
387.501	5.87
387.711	5.97
387.921	0.69
388.13	0.57
388.34	7.57
388.55	8.34
388.759	4.68
388.969	7.64
389.179	9.58
389.388	10.41
389.598	9.89
389.807	11.12
390.017	9.21
390.227	10.37
390.436	9.07
390.646	8.85
390.855	8.76
391.065	8.91
391.274	6.65
391.484	5.26
391.693	1.45
391.903	1.86
392.112	1.84
392.322	2
392.531	1.82
392.74	2.19
392.95	1.42
393.159	2.35
393.369	3.79
393.578	4.85
393.787	6.71
393.997	5.1
394.206	5.73
394.415	5.8
394.625	4.64
394.834	4.27
395.043	4.72
395.252	4.59
395.462	3.93
395.671	5.58
395.88	6.06
396.089	7.66
396.298	7.67
396.508	6.95
396.717	5.99
396.926	5.67
397.135	4.85
397.344	4.35
397.553	5.55
397.762	6.45
397.971	6.31
398.181	6.8
398.39	6.56
398.599	5.84
398.808	5.22
399.017	5.92
399.226	5.5
399.435	5.73
399.644	6.19
399.853	6.08
400.062	6.1
400.27	6.3
400.479	6.23
400.688	5.96
400.897	6.34
401.106	5.75
401.315	5.55
401.524	5.84
401.733	5.79
401.941	5.71
402.15	6.01
402.359	5.79
402.568	5.87
402.777	5.76
402.985	5.64
403.194	5.36
403.403	5.57
403.612	5.32
403.82	5.39
404.029	5.18
404.238	5.36
404.446	5.41
404.655	5.23
404.864	5.33
405.072	5.54
405.281	5.59
405.489	5.51
405.698	5.63
405.906	5.44
406.115	5.43
406.324	5.21
406.532	5.17
406.741	5.23
406.949	5.36
407.158	5.26
407.366	5.25
407.574	5.15
407.783	5.15
407.991	4.94
408.2	4.96
408.408	4.96
408.617	5.07
408.825	5.01
409.033	5.21
409.242	5.24
409.45	5.28
409.658	5.27
409.867	5.23
410.075	5.12
410.283	4.97
410.491	4.84
410.7	4.76
410.908	4.78
411.116	4.94
411.324	5.03
411.533	5.16
411.741	5.21
411.949	5.23
412.157	5
412.365	4.83
412.573	4.66
412.781	4.63
412.99	4.56
413.198	4.57
413.406	4.76
413.614	4.86
413.822	4.91
414.03	4.83
414.238	4.92
414.446	5.07
414.654	5.05
414.862	5.03
415.07	4.94
415.278	4.91
415.486	4.57
415.694	4.62
415.902	4.54
416.109	4.65
416.317	4.7
416.525	4.67
416.733	4.69
416.941	4.68
417.149	4.66
417.357	4.43
417.564	4.49
417.772	4.37
417.98	4.49
418.188	4.4
418.395	4.46
418.603	4.56
418.811	4.59
419.019	4.54
419.226	4.86
419.434	4.87
419.642	4.71
419.849	4.68
420.057	4.63
420.265	4.3
420.472	4.42
420.68	4.41
420.887	4.42
421.095	4.51
421.302	4.6
421.51	4.38
421.717	4.34
421.925	4.52
422.132	4.43
422.34	4.24
422.547	4.24
422.755	4.37
422.962	4.1
423.17	4.06
423.377	4.26
423.585	4.48
423.792	4.53
423.999	4.77
424.207	4.74
424.414	4.7
424.621	4.59
424.829	4.44
425.036	4.34
425.243	4.35
425.451	4.26
425.658	4.21
425.865	4.15
426.072	4.12
426.28	4.28
426.487	4.45
426.694	4.42
426.901	4.45
427.108	4.36
427.315	4.33
427.523	4.09
427.73	4.14
427.937	4.16
428.144	4.17
428.351	4.14
428.558	4.41
428.765	4.44
428.972	4.51
429.179	4.56
429.386	4.48
429.593	4.29
429.8	4.27
430.007	4.36
430.214	4.45
430.421	4.53
430.628	4.58
430.835	4.64
431.042	4.6
431.249	4.72
431.456	4.62
431.662	4.79
431.869	4.87
432.076	4.86
432.283	4.74
432.49	4.78
432.697	4.66
432.903	4.54
433.11	4.54
433.317	4.55
433.524	4.69
433.73	4.61
433.937	4.67
434.144	4.55
434.35	4.52
434.557	4.48
434.764	4.48
434.97	4.34
435.177	4.63
435.384	4.62
435.59	4.62
435.797	4.74
436.003	4.89
436.21	4.76
436.416	4.79
436.623	4.75
436.829	4.78
437.036	4.74
437.242	4.93
437.449	5.01
437.655	5.15
437.862	5.28
438.068	5.39
438.275	5.35
438.481	5.32
438.687	5.2
438.894	5.2
439.1	5.15
439.307	5.09
439.513	5.17
439.719	5.16
439.926	5.06
440.132	5.15
440.338	5.13
440.544	5.14
440.751	5.21
440.957	5.35
441.163	5.23
441.369	5.39
441.575	5.32
441.782	5.3
441.988	5.23
442.194	5.26
442.4	5.09
442.606	5.23
442.812	5.29
443.018	5.33
443.224	5.49
443.431	5.54
443.637	5.39
443.843	5.37
444.049	5.33
444.255	5.17
444.461	5.25
444.667	5.2
444.873	5.26
445.079	5.25
445.284	5.37
445.49	5.3
445.696	5.39
445.902	5.3
446.108	5.3
446.314	5.24
446.52	5.29
446.726	5.27
446.931	5.36
447.137	5.37
447.343	5.39
447.549	5.31
447.755	5.36
447.96	5.37
448.166	5.33
448.372	5.38
448.578	5.51
448.783	5.62
448.989	5.63
449.195	5.61
449.4	5.55
449.606	5.52
449.812	5.49
450.017	5.39
450.223	5.47
450.428	5.47
450.634	5.52
450.84	5.53
451.045	5.58
451.251	5.63
451.456	5.75
451.662	5.7
451.867	5.71
452.073	5.87
452.278	5.84
452.483	5.81
452.689	5.9
452.894	5.85
453.1	5.74
453.305	5.77
453.51	5.75
453.716	5.7
453.921	5.66
454.127	5.7
454.332	5.56
454.537	5.56
454.742	5.65
454.948	5.66
455.153	5.65
455.358	5.76
455.563	5.76
455.769	5.6
455.974	5.65
456.179	5.55
456.384	5.52
456.589	5.53
456.795	5.56
457	5.65
457.205	5.86
457.41	5.9
457.615	5.87
457.82	5.91
458.025	5.83
458.23	5.74
458.435	5.83
458.64	5.83
458.845	5.9
459.05	5.89
459.255	5.9
459.46	5.81
459.665	5.99
459.87	6
460.075	6.06
460.28	6.05
460.485	6.04
460.69	6.01
460.895	5.91
461.099	5.87
461.304	5.78
461.509	5.83
461.714	5.69
461.919	5.8
462.123	5.79
462.328	5.97
462.533	5.98
462.738	6.05
462.942	5.95
463.147	6.12
463.352	6.04
463.556	6.07
463.761	6.01
463.966	6.19
464.17	6.17
464.375	6.16
464.58	6.11
464.784	6.19
464.989	6.06
465.193	5.97
465.398	6.11
465.602	6.3
465.807	6.28
466.011	6.33
466.216	6.28
466.42	6.21
466.625	6.22
466.829	6.25
467.034	6.36
467.238	6.4
467.443	6.39
467.647	6.26
467.851	6.36
468.056	6.31
468.26	6.32
468.464	6.34
468.669	6.47
468.873	6.46
469.077	6.53
469.282	6.46
469.486	6.5
469.69	6.42
469.894	6.37
470.099	6.34
470.303	6.47
470.507	6.49
470.711	6.5
470.915	6.53
471.119	6.52
471.324	6.49
471.528	6.47
471.732	6.56
471.936	6.55
472.14	6.63
472.344	6.74
472.548	6.8
472.752	6.86
472.956	6.88
473.16	6.77
473.364	6.74
473.568	6.75
473.772	6.7
473.976	6.72
474.18	6.83
474.384	6.83
474.588	6.76
474.792	6.76
474.995	6.74
475.199	6.68
475.403	6.71
475.607	6.7
475.811	6.69
476.015	6.79
476.218	6.75
476.422	6.74
476.626	6.73
476.83	6.65
477.033	6.61
477.237	6.67
477.441	6.61
477.644	6.69
477.848	6.67
478.052	6.55
478.255	6.61
478.459	6.66
478.663	6.69
478.866	6.86
479.07	6.95
479.273	6.93
479.477	6.92
479.681	6.92
479.884	6.86
480.088	6.78
480.291	6.77
480.495	6.82
480.698	6.81
480.901	6.81
481.105	6.92
481.308	6.87
481.512	6.82
481.715	6.71
481.919	6.66
482.122	6.66
482.325	6.71
482.529	6.74
482.732	6.87
482.935	6.95
483.138	6.92
483.342	6.88
483.545	7.01
483.748	7.08
483.952	7.12
484.155	7.28
484.358	7.26
484.561	7.17
484.764	7.05
484.967	7.02
485.171	6.89
485.374	6.96
485.577	6.99
485.78	7.04
485.983	7.09
486.186	7.09
486.389	7.1
486.592	6.99
486.795	6.98
486.998	6.91
487.201	7
487.404	7.06
487.607	7.17
487.81	7.13
488.013	7.19
488.216	7.12
488.419	7.2
488.622	7.21
488.825	7.27
489.028	7.27
489.231	7.35
489.433	7.31
489.636	7.26
489.839	7.31
490.042	7.36
490.245	7.31
490.447	7.35
490.65	7.48
490.853	7.45
491.056	7.48
491.258	7.55
491.461	7.53
491.664	7.48
491.866	7.52
492.069	7.59
492.272	7.61
492.474	7.59
492.677	7.62
492.879	7.71
493.082	7.77
493.285	7.82
493.487	7.88
493.69	7.96
493.892	7.92
494.095	7.89
494.297	7.93
494.5	7.95
494.702	8.02
494.905	8.12
495.107	8.16
495.309	8.2
495.512	8.31
495.714	8.32
495.917	8.39
496.119	8.43
496.321	8.49
496.524	8.58
496.726	8.57
496.928	8.53
497.13	8.62
497.333	8.63
497.535	8.69
497.737	8.81
497.939	8.89
498.142	8.92
498.344	9.04
498.546	9.04
498.748	9.05
498.95	9.1
499.152	9.13
499.355	9.18
499.557	9.19
499.759	9.22
499.961	9.2
500.163	9.21
500.365	9.26
500.567	9.29
500.769	9.38
500.971	9.51
501.173	9.56
501.375	9.54
501.577	9.57
501.779	9.62
501.981	9.62
502.183	9.65
502.385	9.64
502.587	9.64
502.788	9.6
502.99	9.57
503.192	9.56
503.394	9.57
503.596	9.66
503.798	9.69
503.999	9.71
504.201	9.83
504.403	9.81
504.605	9.78
504.806	9.77
505.008	9.82
505.21	9.74
505.411	9.69
505.613	9.59
505.815	9.6
506.016	9.64
506.218	9.57
506.42	9.63
506.621	9.66
506.823	9.59
507.024	9.5
507.226	9.56
507.427	9.51
507.629	9.5
507.83	9.55
508.032	9.6
508.233	9.52
508.435	9.45
508.636	9.51
508.838	9.43
509.039	9.31
509.24	9.29
509.442	9.39
509.643	9.27
509.845	9.28
510.046	9.33
510.247	9.33
510.448	9.3
510.65	9.4
510.851	9.35
511.052	9.34
511.254	9.28
511.455	9.23
511.656	9.06
511.857	9.06
512.058	8.99
512.26	9
512.461	8.91
512.662	8.94
512.863	8.89
513.064	8.91
513.265	8.88
513.466	8.94
513.667	8.93
513.868	8.92
514.069	8.92
514.27	8.86
514.471	8.83
514.672	8.78
514.873	8.71
515.074	8.7
515.275	8.72
515.476	8.66
515.677	8.65
515.878	8.76
516.079	8.72
516.28	8.69
516.481	8.78
516.682	8.85
516.882	8.71
517.083	8.72
517.284	8.67
517.485	8.55
517.686	8.48
517.886	8.55
518.087	8.52
518.288	8.56
518.488	8.63
518.689	8.63
518.89	8.62
519.091	8.64
519.291	8.59
519.492	8.54
519.692	8.55
519.893	8.59
520.094	8.54
520.294	8.6
520.495	8.66
520.695	8.67
520.896	8.58
521.096	8.56
521.297	8.57
521.497	8.47
521.698	8.38
521.898	8.36
522.099	8.37
522.299	8.34
522.499	8.42
522.7	8.49
522.9	8.51
523.101	8.47
523.301	8.47
523.501	8.45
523.702	8.48
523.902	8.53
524.102	8.63
524.302	8.59
524.503	8.59
524.703	8.51
524.903	8.47
525.103	8.38
525.304	8.44
525.504	8.43
525.704	8.5
525.904	8.49
526.104	8.55
526.304	8.52
526.504	8.51
526.705	8.44
526.905	8.44
527.105	8.44
527.305	8.44
527.505	8.44
527.705	8.51
527.905	8.49
528.105	8.46
528.305	8.41
528.505	8.4
528.705	8.39
528.905	8.38
529.105	8.42
529.304	8.44
529.504	8.49
529.704	8.46
529.904	8.52
530.104	8.5
530.304	8.47
530.503	8.49
530.703	8.5
530.903	8.47
531.103	8.48
531.303	8.56
531.502	8.56
531.702	8.65
531.902	8.63
532.101	8.62
532.301	8.61
532.501	8.55
532.7	8.54
532.9	8.6
533.1	8.63
533.299	8.62
533.499	8.7
533.698	8.66
533.898	8.68
534.097	8.7
534.297	8.77
534.496	8.72
534.696	8.71
534.895	8.77
535.095	8.71
535.294	8.66
535.494	8.68
535.693	8.71
535.892	8.67
536.092	8.67
536.291	8.71
536.491	8.7
536.69	8.75
536.889	8.74
537.088	8.79
537.288	8.77
537.487	8.87
537.686	8.84
537.886	8.87
538.085	8.91
538.284	8.95
538.483	8.87
538.682	8.93
538.882	9
539.081	9.05
539.28	9.06
539.479	9.04
539.678	9.01
539.877	8.97
540.076	8.99
540.275	9.01
540.474	9.13
540.673	9.14
540.872	9.15
541.071	9.11
541.27	9.11
541.469	9.17
541.668	9.25
541.867	9.35
542.066	9.4
542.265	9.46
542.464	9.42
542.663	9.44
542.862	9.54
543.06	9.62
543.259	9.71
543.458	9.78
543.657	9.83
543.856	9.78
544.054	9.75
544.253	9.73
544.452	9.67
544.651	9.65
544.849	9.63
545.048	9.66
545.247	9.66
545.445	9.71
545.644	9.74
545.843	9.81
546.041	9.84
546.24	9.91
546.438	9.92
546.637	9.91
546.836	9.96
547.034	9.95
547.233	9.93
547.431	10.01
547.63	10.08
547.828	10.1
548.027	10.14
548.225	10.24
548.423	10.26
548.622	10.26
548.82	10.22
549.019	10.26
549.217	10.23
549.415	10.31
549.614	10.44
549.812	10.47
550.01	10.54
550.209	10.69
550.407	10.7
550.605	10.67
550.803	10.72
551.002	10.8
551.2	10.82
551.398	10.82
551.596	10.9
551.794	11.03
551.993	11.04
552.191	11.03
552.389	11.13
552.587	11.2
552.785	11.24
552.983	11.32
553.181	11.37
553.379	11.55
553.577	11.6
553.775	11.66
553.973	11.7
554.171	11.81
554.369	11.81
554.567	11.9
554.765	11.96
554.963	12.02
555.161	12.05
555.359	12.01
555.557	12.08
555.755	12.12
555.952	12.21
556.15	12.3
556.348	12.4
556.546	12.48
556.744	12.54
556.941	12.56
557.139	12.62
557.337	12.82
557.535	12.84
557.732	12.9
557.93	13
558.128	12.97
558.325	12.87
558.523	12.91
558.721	12.96
558.918	12.97
559.116	13.11
559.313	13.1
559.511	13.22
559.708	13.2
559.906	13.37
560.104	13.38
560.301	13.55
560.498	13.57
560.696	13.72
560.893	13.71
561.091	13.81
561.288	13.88
561.486	13.99
561.683	14.06
561.88	14.18
562.078	14.29
562.275	14.37
562.473	14.32
562.67	14.41
562.867	14.41
563.064	14.43
563.262	14.46
563.459	14.5
563.656	14.51
563.853	14.56
564.051	14.53
564.248	14.6
564.445	14.77
564.642	14.77
564.839	14.89
565.036	15.04
565.234	15.09
565.431	15.09
565.628	15.2
565.825	15.17
566.022	15.17
566.219	15.14
566.416	15.21
566.613	15.19
566.81	15.25
567.007	15.3
567.204	15.41
567.401	15.42
567.598	15.57
567.795	15.54
567.991	15.52
568.188	15.53
568.385	15.57
568.582	15.49
568.779	15.58
568.976	15.65
569.172	15.67
569.369	15.69
569.566	15.81
569.763	15.87
569.96	15.91
570.156	15.92
570.353	15.86
570.55	15.85
570.746	15.82
570.943	15.8
571.14	15.73
571.336	15.87
571.533	15.78
571.729	15.84
571.926	15.8
572.123	15.83
572.319	15.8
572.516	15.94
572.712	15.91
572.909	15.93
573.105	15.91
573.302	15.83
573.498	15.75
573.695	15.68
573.891	15.66
574.087	15.74
574.284	15.83
574.48	15.87
574.677	15.89
574.873	15.91
575.069	15.91
575.266	15.86
575.462	15.77
575.658	15.85
575.854	15.91
576.051	15.82
576.247	15.86
576.443	15.96
576.639	15.92
576.835	15.9
577.032	15.87
577.228	15.83
577.424	15.83
577.62	15.74
577.816	15.65
578.012	15.66
578.208	15.7
578.404	15.53
578.6	15.49
578.796	15.53
578.993	15.51
579.189	15.35
579.384	15.31
579.58	15.31
579.776	15.25
579.972	15.23
580.168	15.21
580.364	15.13
580.56	15.1
580.756	15.05
580.952	14.97
581.148	15.05
581.343	15.16
581.539	15.09
581.735	15.14
581.931	15.17
582.127	15.1
582.322	15.03
582.518	15.05
582.714	14.98
582.909	14.9
583.105	14.8
583.301	14.75
583.496	14.7
583.692	14.61
583.888	14.65
584.083	14.7
584.279	14.77
584.474	14.76
584.67	14.71
584.866	14.7
585.061	14.63
585.257	14.63
585.452	14.66
585.648	14.73
585.843	14.71
586.039	14.7
586.234	14.52
586.429	14.49
586.625	14.49
586.82	14.46
587.015	14.45
587.211	14.55
587.406	14.5
587.601	14.52
587.797	14.53
587.992	14.45
588.187	14.44
588.383	14.47
588.578	14.46
588.773	14.38
588.968	14.51
589.163	14.5
589.359	14.47
589.554	14.46
589.749	14.44
589.944	14.45
590.139	14.42
590.334	14.43
590.529	14.42
590.724	14.47
590.919	14.42
591.114	14.54
591.309	14.49
591.504	14.52
591.699	14.57
591.894	14.56
592.089	14.43
592.284	14.42
592.479	14.4
592.674	14.36
592.869	14.4
593.064	14.55
593.259	14.66
593.454	14.64
593.648	14.72
593.843	14.83
594.038	14.74
594.233	14.84
594.428	14.81
594.622	14.82
594.817	14.74
595.012	14.8
595.206	14.75
595.401	14.97
595.596	14.99
595.79	15.03
595.985	15.11
596.18	15.14
596.374	15.07
596.569	15.13
596.763	15.21
596.958	15.21
597.153	15.28
597.347	15.41
597.542	15.45
597.736	15.45
597.931	15.44
598.125	15.58
598.319	15.59
598.514	15.66
598.708	15.76
598.903	15.87
599.097	15.87
599.291	15.85
599.486	15.9
599.68	15.84
599.874	15.88
600.069	15.96
600.263	15.93
600.457	15.94
600.651	16.06
600.846	16.01
601.04	15.91
601.234	15.91
601.428	15.94
601.622	15.94
601.817	16.03
602.011	16
602.205	16.06
602.399	16.01
602.593	16.03
602.787	16.04
602.981	16.04
603.175	16.09
603.369	16.09
603.563	16.04
603.757	16.02
603.951	16.05
604.145	15.98
604.339	15.95
604.533	15.88
604.727	15.79
604.921	15.74
605.115	15.82
605.309	15.82
605.502	15.86
605.696	15.86
605.89	15.87
606.084	15.8
606.278	15.79
606.471	15.72
606.665	15.68
606.859	15.71
607.053	15.72
607.246	15.63
607.44	15.56
607.634	15.53
607.827	15.4
608.021	15.26
608.214	15.26
608.408	15.29
608.602	15.32
608.795	15.31
608.989	15.32
609.182	15.24
609.376	15.19
609.569	15.17
609.763	15.07
609.956	15
610.15	14.88
610.343	14.79
610.537	14.62
610.73	14.53
610.923	14.48
611.117	14.52
611.31	14.37
611.504	14.38
611.697	14.35
611.89	14.3
612.083	14.19
612.277	14.25
612.47	14.15
612.663	14.12
612.856	14.09
613.05	14.12
613.243	14.08
613.436	14
613.629	13.99
613.822	13.93
614.015	13.79
614.209	13.73
614.402	13.74
614.595	13.68
614.788	13.57
614.981	13.5
615.174	13.43
615.367	13.36
615.56	13.3
615.753	13.31
615.946	13.25
616.139	13.28
616.332	13.26
616.525	13.12
616.718	13.03
616.911	13.12
617.103	13.09
617.296	13.01
617.489	13.08
617.682	13.09
617.875	13.1
618.067	12.92
618.26	12.85
618.453	12.76
618.646	12.73
618.838	12.56
619.031	12.51
619.224	12.48
619.417	12.55
619.609	12.5
619.802	12.46
619.994	12.48
620.187	12.46
620.38	12.39
620.572	12.3
620.765	12.36
620.957	12.36
621.15	12.37
621.342	12.26
621.535	12.35
621.727	12.31
621.92	12.25
622.112	12.17
622.305	12.25
622.497	12.18
622.69	12.12
622.882	12.1
623.074	12.19
623.267	12.21
623.459	12.18
623.651	12.14
623.844	12.25
624.036	12.16
624.228	12.06
624.42	12.04
624.613	12.11
624.805	12.03
624.997	12.03
625.189	12.03
625.381	12.09
625.574	11.98
625.766	11.94
625.958	11.98
626.15	12.01
626.342	11.9
626.534	11.87
626.726	11.84
626.918	11.73
627.11	11.65
627.302	11.64
627.494	11.64
627.686	11.63
627.878	11.66
628.07	11.6
628.262	11.57
628.454	11.6
628.646	11.58
628.838	11.6
629.029	11.55
629.221	11.54
629.413	11.39
629.605	11.31
629.797	11.22
629.989	11.33
630.18	11.33
630.372	11.41
630.564	11.48
630.755	11.49
630.947	11.39
631.139	11.25
631.33	11.21
631.522	11.16
631.714	11.17
631.905	11.2
632.097	11.23
632.289	11.27
632.48	11.26
632.672	11.12
632.863	11.01
633.055	11.01
633.246	10.93
633.438	10.87
633.629	10.78
633.821	10.74
634.012	10.7
634.203	10.69
634.395	10.73
634.586	10.92
634.777	10.86
634.969	10.87
635.16	10.87
635.351	10.82
635.543	10.74
635.734	10.76
635.925	10.76
636.117	10.73
636.308	10.77
636.499	10.68
636.69	10.68
636.881	10.63
637.073	10.67
637.264	10.55
637.455	10.5
637.646	10.59
637.837	10.68
638.028	10.63
638.219	10.69
638.41	10.71
638.601	10.56
638.792	10.5
638.983	10.43
639.174	10.36
639.365	10.36
639.556	10.37
639.747	10.32
639.938	10.3
640.129	10.31
640.32	10.32
640.511	10.33
640.701	10.3
640.892	10.35
641.083	10.4
641.274	10.39
641.465	10.43
641.655	10.39
641.846	10.31
642.037	10.17
642.228	10.1
642.418	9.97
642.609	10.03
642.8	10.02
642.99	9.96
643.181	9.94
643.372	10.01
643.562	9.9
643.753	9.9
643.943	10.03
644.134	10.04
644.324	10.02
644.515	10.12
644.705	10.05
644.896	10.05
645.086	10.02
645.277	10.03
645.467	9.95
645.658	9.97
645.848	9.83
646.038	9.87
646.229	9.78
646.419	9.77
646.61	9.86
646.8	9.97
646.99	9.9
647.18	9.88
647.371	9.81
647.561	9.72
647.751	9.57
647.941	9.52
648.132	9.64
648.322	9.68
648.512	9.66
648.702	9.72
648.892	9.75
649.082	9.63
649.272	9.59
649.462	9.57
649.653	9.56
649.843	9.59
650.033	9.63
650.223	9.69
650.413	9.63
650.603	9.7
650.793	9.7
650.983	9.64
651.172	9.58
651.362	9.55
651.552	9.46
651.742	9.44
651.932	9.34
652.122	9.38
652.312	9.4
652.502	9.39
652.691	9.36
652.881	9.45
653.071	9.39
653.261	9.34
653.45	9.33
653.64	9.2
653.83	9.04
654.019	8.96
654.209	8.92
654.399	8.82
654.588	8.81
654.778	8.84
654.968	8.82
655.157	8.72
655.347	8.63
655.536	8.56
655.726	8.48
655.915	8.45
656.105	8.36
656.294	8.3
656.484	8.31
656.673	8.28
656.863	8.22
657.052	8.21
657.241	8.15
657.431	7.99
657.62	7.9
657.809	7.84
657.999	7.82
658.188	7.76
658.377	7.75
658.567	7.67
658.756	7.42
658.945	7.34
659.134	7.27
659.324	7.29
659.513	7.24
659.702	7.28
659.891	7.24
660.08	7.18
660.269	6.97
660.458	6.91
660.648	6.99
660.837	6.91
661.026	6.87
661.215	6.97
661.404	6.82
661.593	6.67
661.782	6.53
661.971	6.55
662.16	6.45
662.349	6.39
662.538	6.36
662.726	6.36
662.915	6.3
663.104	6.23
663.293	6.25
663.482	6.26
663.671	6.23
663.86	6.06
664.048	6.07
664.237	6.14
664.426	6.19
664.615	6.15
664.803	6.35
664.992	6.27
665.181	6.24
665.369	6.15
665.558	6.13
665.747	6.04
665.935	6.1
666.124	6
666.312	5.95
666.501	6.02
666.69	5.9
666.878	5.81
667.067	5.85
667.255	5.82
667.444	5.93
667.632	6.06
667.82	6.13
668.009	6.09
668.197	6.16
668.386	5.94
668.574	5.92
668.762	5.82
668.951	5.92
669.139	5.89
669.327	5.98
669.516	5.98
669.704	6.02
669.892	5.99
670.08	6.02
670.269	6.06
670.457	6.11
670.645	6.1
670.833	6.12
671.021	6.14
671.21	6.07
671.398	6.08
671.586	6.1
671.774	6.19
671.962	6.21
672.15	6.34
672.338	6.33
672.526	6.42
672.714	6.3
672.902	6.24
673.09	6.2
673.278	6.23
673.466	6.46
673.654	6.71
673.842	6.71
674.03	6.84
674.218	6.86
674.405	6.73
674.593	6.63
674.781	6.84
674.969	6.73
675.157	6.79
675.344	6.77
675.532	6.79
675.72	6.74
675.908	6.81
676.095	6.73
676.283	6.79
676.471	6.87
676.658	6.94
676.846	7.13
677.033	7.38
677.221	7.51
677.409	7.49
677.596	7.6
677.784	7.55
677.971	7.57
678.159	7.55
678.346	7.66
678.534	7.74
678.721	7.75
678.909	7.82
679.096	7.93
679.283	8.02
679.471	7.95
679.658	8.15
679.846	8
680.033	8.11
680.22	8.09
680.408	8.15
680.595	8.09
680.782	8.16
680.969	8.15
681.157	8.04
681.344	8.05
681.531	8.04
681.718	8.16
681.905	8.1
682.093	8.33
682.28	8.47
682.467	8.61
682.654	8.61
682.841	8.68
683.028	8.52
683.215	8.59
683.402	8.54
683.589	8.74
683.776	8.82
683.963	9.08
684.15	9.07
684.337	9.26
684.524	9.27
684.711	9.35
684.898	9.48
685.085	9.66
685.271	9.76
685.458	9.91
685.645	10.06
685.832	10.12
686.019	10.27
686.205	10.39
686.392	10.54
686.579	10.67
686.766	10.65
686.952	10.74
687.139	10.9
687.326	10.93
687.512	11.05
687.699	11.3
687.886	11.35
688.072	11.51
688.259	11.62
688.445	11.85
688.632	12.14
688.818	12.65
689.005	12.83
689.191	12.97
689.378	13.1
689.564	13.25
689.751	13.35
689.937	13.57
690.124	14
690.31	14.16
690.496	14.47
690.683	14.81
690.869	15.12
691.055	15.52
691.242	16.03
691.428	16.6
691.614	16.95
691.8	17.45
691.987	17.8
692.173	18.27
692.359	18.57
692.545	18.97
692.731	19.17
692.918	19.56
693.104	20.09
693.29	20.44
693.476	20.79
693.662	21.52
693.848	22.18
694.034	22.63
694.22	23.28
694.406	23.81
694.592	24.08
694.778	24.24
694.964	24.48
695.15	24.72
695.336	25.21
695.522	25.75
695.708	26.46
695.894	26.97
696.08	27.73
696.265	28.26
696.451	28.96
696.637	29.48
696.823	30.18
697.009	30.81
697.194	31.15
697.38	31.57
697.566	32.16
697.751	32.68
697.937	33.14
698.123	33.79
698.308	34.19
698.494	34.76
698.68	35.29
698.865	35.98
699.051	36.78
699.236	37.37
699.422	38.11
699.607	38.58
699.793	38.84
699.978	39.15
700.164	40.06
700.349	40.45
700.535	41.08
700.72	41.86
700.906	42.57
701.091	43.12
701.276	43.73
701.462	44.41
701.647	44.8
701.832	45.63
702.018	46.08
702.203	46.46
702.388	47.14
702.573	47.65
702.759	47.79
702.944	48.44
703.129	49.01
703.314	49.62
703.499	50.21
703.684	50.81
703.87	51.15
704.055	51.41
704.24	51.74
704.425	52.08
704.61	52.22
704.795	52.42
704.98	52.93
705.165	53.02
705.35	53.51
705.535	54.38
705.72	55.09
705.905	55.71
706.09	56.31
706.275	56.55
706.459	56.57
706.644	56.8
706.829	57.28
707.014	58
707.199	58.63
707.384	59.33
707.568	59.77
707.753	60.36
707.938	60.45
708.123	61.02
708.307	61.37
708.492	61.47
708.677	61.31
708.861	61.49
709.046	61.51
709.231	61.9
709.415	62.22
709.6	62.7
709.784	63.24
709.969	63.56
710.153	63.68
710.338	64.11
710.522	64.6
710.707	65.12
710.891	65.02
711.076	65.47
711.26	65.99
711.445	65.91
711.629	65.92
711.813	66.42
711.998	66.46
712.182	66.66
712.366	66.77
712.551	66.83
712.735	67.66
712.919	67.84
713.103	68.31
713.288	68.74
713.472	69.49
713.656	69.39
713.84	70.03
714.024	70.1
714.208	70.27
714.393	70.17
714.577	70.31
714.761	70.6
714.945	70.73
715.129	70.98
715.313	71.6
715.497	72.01
715.681	72.21
715.865	72.48
716.049	72.69
716.233	72.63
716.417	72.98
716.601	72.82
716.785	72.97
716.968	73.46
717.152	74.24
717.336	74.21
717.52	74.22
717.704	74.37
717.888	74.01
718.071	73.78
718.255	74.18
718.439	74.22
718.622	74.4
718.806	74.74
718.99	74.69
719.174	74.56
719.357	74.8
719.541	75.1
719.724	75.69
719.908	76.17
720.092	76.28
720.275	77.43
720.459	77.3
720.642	77.7
720.826	77.36
721.009	77.86
721.193	77.17
721.376	76.94
721.559	76.97
721.743	77.39
721.926	77.2
722.11	77.06
722.293	77.93
722.476	78.02
722.66	77.83
722.843	77.89
723.026	78.37
723.21	78.54
723.393	78.06
723.576	78.57
723.759	78.64
723.942	78.77
724.126	78.78
724.309	79.41
724.492	78.85
724.675	79.11
724.858	79.88
725.041	79.67
725.224	79.85
725.407	79.7
725.59	80.3
725.774	80.13
725.957	80.42
726.14	80.64
726.322	81
726.505	80.83
726.688	80.98
726.871	81.43
727.054	81.32
727.237	81.93
727.42	82.45
727.603	82.01
727.786	81.76
727.968	81.54
728.151	81.59
728.334	81.35
728.517	82.4
728.699	83.22
728.882	83.82
729.065	83.36
729.248	83.77
729.43	83.22
729.613	82.58
729.796	82.36
729.978	83.6
730.161	82.58
730.343	82.5
730.526	83.07
730.708	83.53
730.891	83.01
731.073	83.01
731.256	82.74
731.438	82.54
731.621	82.98
731.803	84
731.986	85.01
732.168	85.29
732.35	85.31
732.533	85.15
732.715	83.83
732.898	83.35
733.08	84.08
733.262	84.77
733.444	84.31
733.627	84.98
733.809	85.25
733.991	85.34
734.173	85.21
734.355	86.25
734.538	86.33
734.72	86.25
734.902	86.72
735.084	86.27
735.266	85.86
735.448	85.79
735.63	85.73
735.812	85.44
735.994	85.63
736.176	84.86
736.358	84.3
736.54	84.28
736.722	83.91
736.904	83.8
737.086	84.45
737.268	85.59
737.45	86.56
737.632	86.44
737.814	87.43
737.995	88
738.177	87.67
738.359	87.13
738.541	88.21
738.723	88.12
738.904	88.11
739.086	87.94
739.268	88.81
739.449	88.22
739.631	88.16
739.813	88.15
739.994	89
740.176	88.63
740.358	88.97
740.539	89.87
740.721	89.88
740.902	88.93
741.084	89.16
741.265	89.01
741.447	88.23
741.628	89.17
741.81	89.05
741.991	88.88
742.172	89.49
742.354	88.8
742.535	87.39
742.717	87.75
742.898	87.96
743.079	88.02
743.261	88.52
743.442	89.59
743.623	90.37
743.804	89.53
743.986	89.05
744.167	88.78
744.348	88.97
744.529	89.09
744.71	90.93
744.891	91.12
745.073	92.31
745.254	92.25
745.435	92.33
745.616	90.82
745.797	90.52
745.978	90.13
746.159	89.38
746.34	88.17
746.521	89.77
746.702	89.63
746.883	88.78
747.064	87.85
747.245	89.58
747.426	89.97
747.606	90.48
747.787	91.47
747.968	92.29
748.149	91.31
748.33	88.83
748.51	88.79
748.691	86.84
748.872	86.77
749.053	85.75
749.233	87.21
749.414	86.61
749.595	89.46
749.775	89.54
749.956	91.07
750.137	90.88
750.317	91.18
750.498	90.14
750.678	89.3
750.859	88.44
751.04	88.14
751.22	88.3
751.4	87.25
751.581	87.48
751.761	88.26
751.942	89.67
752.122	89.14
752.303	89.03
752.483	90.83
752.663	91.79
752.844	90.44
753.024	91.23
753.204	92.25
753.385	90.01
753.565	88.48
753.745	89.06
753.925	89.22
754.106	88.23
754.286	89.8
754.466	90.28
754.646	91.55
754.826	91.26
755.006	92.24
755.187	90.74
755.367	90.41
755.547	89.12
755.727	89.2
755.907	87.45
756.087	88.84
756.267	88.25
756.447	87.44
756.627	87.31
756.807	89.18
756.987	89.07
757.167	90.64
757.346	91.27
757.526	91.04
757.706	91.08
757.886	91.82
758.066	91.3
758.246	90.31
758.425	89.27
758.605	88.69
758.785	88.71
758.965	88.76
759.144	89.35
759.324	88.59
759.504	89.85
759.683	89.33
759.863	89.09
760.043	87.61
760.222	88.17
760.402	86.91
760.581	87.15
760.761	86.69
760.94	88.12
761.12	91.94
761.299	91.8
761.479	92.13
761.658	91.37
761.838	89.48
762.017	88.32
762.197	90.53
762.376	89.41
762.555	90.77
762.735	93.14
762.914	92.74
763.093	92.61
763.273	91.91
763.452	91.2
763.631	91.7
763.81	91.04
763.99	88.17
764.169	86.92
764.348	86.8
764.527	84.98
764.706	84.71
764.885	85.31
765.064	86.42
765.243	85.31
765.423	85.17
765.602	85.3
765.781	86.61
765.96	85.41
766.139	85.93
766.318	87.29
766.497	87.62
766.676	85.98
766.854	88.47
767.033	89.25
767.212	89.16
767.391	89.29
767.57	90.37
767.749	90.94
767.928	92.01
768.106	90.2
768.285	87.7
768.464	85.2
768.643	84.4
768.821	82.63
769	82.13
769.179	83.72
769.357	85.19
769.536	84.38
769.715	83.6
769.893	84.82
770.072	83.36
770.25	82.17
770.429	81.44
770.607	82.76
770.786	83.67
770.964	85.2
771.143	86.78
771.321	89.27
771.5	88.49
771.678	89.38
771.857	90.39
772.035	90.43
772.213	89.66
772.392	88.87
772.57	86.43
772.748	84.17
772.927	83.81
773.105	84.51
773.283	86.32
773.461	87.88
773.64	88.15
773.818	87.42
773.996	85.16
774.174	84.27
774.352	82.53
774.531	80.33
774.709	80.1
774.887	79.95
775.065	79.95
775.243	78.68
775.421	80.32
775.599	80.9
775.777	81.24
775.955	80.42
776.133	79.9
776.311	79.44
776.489	79.3
776.667	79.18
776.844	82.04
777.022	84.17
777.2	87.3
777.378	85.43
777.556	85.21
777.734	83.8
777.911	85.75
778.089	84.86
778.267	85.78
778.445	81.72
778.622	81.37
778.8	79.25
778.978	79.6
779.155	79.97
779.333	83.03
779.511	79.84
779.688	80.57
779.866	77.83
780.043	76.05
780.221	75.32
780.398	78.09
780.576	77.73
780.753	77.02
780.931	80.08
781.108	81.04
781.286	81.47
781.463	81.75
781.64	81.64
781.818	83.94
781.995	84.65
782.172	85.07
782.35	83.67
782.527	87.14
782.704	85.51
782.882	88.49
783.059	88.09
783.236	84.74
783.413	82.28
783.59	81.47
783.768	74.51
783.945	72.05
784.122	78.61
784.299	77.25
784.476	75.45
784.653	80.08
784.83	81.37
785.007	77.9
785.184	83.28
785.361	84.67
785.538	83.8
785.715	84.31
785.892	86.21
786.069	81.93
786.246	84
786.423	84.9
786.6	83.32
786.776	82.95
786.953	81.43
787.13	80.92
787.307	77.93
787.484	77.42
787.66	73.49
787.837	80.58
788.014	81.62
788.191	82.88
788.367	86.9
788.544	91.05
788.721	87.23
788.897	85.49
789.074	84.23
789.25	79
789.427	75.78
789.603	72.97
789.78	72.02
789.956	74.62
790.133	77.27
790.309	77.5
790.486	79.56
790.662	77.53
790.839	73.11
791.015	71.77
791.192	71.79
791.368	75.79
791.544	73.1
791.721	75.45
791.897	77.31
792.073	77.64
792.249	70.94
792.426	77.11
792.602	80.64
792.778	78.21
792.954	77.94
793.13	82.08
793.307	80.33
793.483	78.8
793.659	82.2
793.835	80.4
794.011	81.85
794.187	79.24
794.363	76.02
794.539	74.9
794.715	76.57
794.891	70.69
795.067	69.64
795.243	73.83
795.419	75.34
795.595	74.32
795.771	77.21
795.947	76.88
796.122	71.81
796.298	70.86
796.474	72.09
796.65	70.75
796.826	71.52
797.001	73.32
797.177	72.89
797.353	73.73
797.529	77.85
797.704	77.97
797.88	78.25
798.056	76.71
798.231	76.05
798.407	72.62
798.582	77.61
798.758	79.37
798.934	81.1
799.109	77.81
799.285	78.35
799.46	69.88
799.636	67.48
799.811	62.7
799.986	66.98
800.162	71.79
800.337	76.27
800.513	73.36
800.688	75.17
800.863	77.26
801.039	72.54
801.214	75.44
801.389	82.16
801.565	80.89
801.74	77.14
801.915	74.2
802.09	70.81
802.265	69.77
802.441	70.34
802.616	66.97
802.791	64.76
802.966	71.85
803.141	69.66
803.316	68.58
803.491	71.91
803.666	73.33
803.841	66.05
804.016	74.91
804.191	76.57
804.366	81.58
804.541	75.16
804.716	78.14
804.891	63.59
805.066	62.38
805.241	55.7
805.416	56.9
805.591	58.38
805.765	61.79
805.94	61.23
806.115	58.27
806.29	61.19
806.464	61.64
806.639	66.29
806.814	69.31
806.989	64.67
807.163	64.76
807.338	68.15
807.512	58.45
807.687	53.82
807.862	59.77
808.036	69.49
808.211	66
808.385	65.48
808.56	59.19
808.734	52.06
808.909	44.61
809.083	41.97
809.258	53.73
809.432	64.71
809.606	64.51
809.781	63.49
809.955	57.43
810.13	45.09
810.304	36.56
810.478	36.98
810.652	46.27
810.827	55.36
811.001	64.1
811.175	70.7
811.349	83.27
811.524	66.83
811.698	64.53
811.872	75.31
812.046	74.97
812.22	71.05
812.394	73.57
812.568	83.34
812.742	74.34
812.916	70.03
813.09	66.68
813.264	79.61
813.438	71.93
813.612	68.45
813.786	73.95
813.96	79.25
814.134	78.37
814.308	68.14
814.482	62.94
814.656	58.96
814.83	57.37
815.003	47.83
815.177	60.73
815.351	58.21
815.525	58.06
815.698	56.1
815.872	59.3
816.046	65.79
816.219	65.87
816.393	63.59
816.567	72.18
816.74	64.01
816.914	49.13
817.088	57.5
817.261	56.21
817.435	56.21
817.608	61.77
817.782	69.36
817.955	60.87
818.129	67.53
818.302	60.71
818.475	53.31
818.649	60.57
818.822	65.89
818.996	75.93
819.169	76.88
819.342	77.74
819.516	67.78
819.689	76.12
819.862	66.9
820.035	58.65
820.209	60.52
820.382	60.99
820.555	47.96
820.728	48.76
820.901	53.34
821.075	52.35
821.248	55.89
821.421	55.48
821.594	68.33
821.767	83.57
821.94	76.66
822.113	72.54
822.286	69.88
822.459	52.29
822.632	34.78
822.805	33.09
822.978	38.25
823.151	45.69
823.324	36.39
823.496	19.86
823.669	41.5
823.842	43.75
824.015	46.45
824.188	49.61
824.361	56.15
824.533	41.03
824.706	40.68
824.879	30.36
825.051	41.39
825.224	43.02
825.397	39.92
825.569	41.69
825.742	41
825.915	45.89
826.087	55.88
826.26	60.28
826.432	60.19
826.605	66.57
826.777	59.26
826.95	54.83
827.122	60.63
827.295	58.88
827.467	57.63
827.64	36.45
827.812	27.69
827.984	25.92
828.157	12.27
828.329	26.97
828.501	47.86
828.674	70.43
828.846	65.08
829.018	86.54
829.19	72.4
829.363	72.98
829.535	57.16
829.707	69.35
829.879	50.89
830.051	55.15
830.223	55.41
830.395	49.46
830.568	34.67
830.74	45.46
830.912	47.06
831.084	57.1
831.256	54.01
831.428	69
831.6	62.67
831.772	50.08
831.943	32.79
832.115	34.33
832.287	33.24
832.459	39.62
832.631	50.82
832.803	50.63
832.975	60.27
833.146	59.89
833.318	51.28
833.49	55.63
833.662	48.91
833.833	25.79
834.005	23.85
834.177	17.77
834.348	22.67
834.52	17.25
834.692	37.2
834.863	30.19
835.035	40.99
835.206	6.73
835.378	14.95
835.549	7.97
835.721	25
835.892	16.65
836.064	31.33
836.235	48.17
836.407	55.74
836.578	67.13
836.749	77.88
836.921	64.17
837.092	52.35
837.264	40.34
837.435	21.19
837.606	6.03
837.777	41.83
837.949	61.91
838.12	61.66
838.291	54.58
838.462	83.53
838.633	80.16
838.805	71.86
838.976	95.18
839.147	82.56
839.318	54.68
839.489	48.43
839.66	52.23
839.831	42.6
840.002	51.97
840.173	42.84
840.344	20.69
840.515	-8.56
840.686	-26.11
840.857	-18.01
841.028	-12.8
841.199	10.26
841.369	37.48
841.54	63.46
841.711	44.82
841.882	51.19
842.053	36.71
842.223	12.49
842.394	28.26
842.565	36.87
842.736	62.57
842.906	98.13
843.077	118.28
843.248	102.07
843.418	129.16
843.589	88.73
843.759	70.08
843.93	60.1
844.101	54.39
844.271	47.06
844.442	50.15
844.612	42.97
844.783	47.08
844.953	39.96
845.123	37.26
845.294	44.11
845.464	33.73
845.635	9.04
845.805	29.73
845.975	42.92
846.146	10.92
846.316	28.22
846.486	49.16
846.656	26.74
846.827	13.47
846.997	41.95
847.167	64.84
847.337	23.5
847.507	34.54
847.677	37.9
847.848	59.79
848.018	34.51
848.188	54.88
848.358	48.13
848.528	22.21
848.698	12.27
848.868	1.34
849.038	-23.32
849.208	6.97
849.378	44.54
849.548	45.59
849.718	52.77
849.887	81.87
850.057	67.16
850.227	60.19
850.397	46.54
850.567	42.13
850.737	49.2
850.906	40.65
851.076	30.86
851.246	32.66
851.415	45.82
851.585	32.07
851.755	30.14
851.924	28.04
852.094	35.99
852.264	12.91
852.433	-20.13
852.603	22.68
852.772	42.49
852.942	42.71
853.111	36.44
853.281	46.61
853.45	30.78
853.62	-6.74
853.789	-20.95
853.959	-14.99
854.128	-15.85
854.297	-5.96
854.467	16.02
854.636	8.52
854.805	18.01
854.975	22.42
855.144	38.7
855.313	55.82
855.482	58.47
855.652	50.39
855.821	65.76
855.99	52.69
856.159	50.97
856.328	65.12
856.497	51.3
856.667	51.48
856.836	46.45
857.005	-36.66
857.174	-140.31
857.343	-109.67
857.512	-314.5
857.681	-14.26
857.85	12.97
858.019	26.73
858.188	11.74
858.356	20.25
858.525	-7.29
858.694	21.3
858.863	4.34
859.032	-7.62
859.201	-32.07
859.369	-13.99
859.538	-63.65
859.707	-17.27
859.876	-1.92
860.044	7.73
860.213	18.32
860.382	31.28
860.55	19.89
860.719	48.74
860.888	44.67
861.056	43.02
861.225	36.92
861.393	61.17
861.562	47.86
861.73	69.9
861.899	44.08
862.067	42.54
862.236	41.98
862.404	38.14
862.572	-10.43
862.741	23.03
862.909	3.69
863.078	-15.77
863.246	18.27
863.414	39.79
863.582	29.95
863.751	33.53
863.919	24.16
864.087	42.88
864.255	28.02
864.424	15.26
864.592	17.82
864.76	16.89
864.928	15.06
865.096	31.74
865.264	38.25
865.432	46.47
865.6	48.64
865.768	19.94
865.936	-2.34
866.104	-24.83
866.272	-26.33
866.44	-62.08
866.608	-27.84
866.776	-2.24
866.944	73.77
867.112	44.75
867.28	58.3
867.448	24.69
867.615	114.73
867.783	27.14
867.951	46.56
868.119	63.64
868.286	48.46
868.454	36.09
868.622	18.46
868.789	-63.02
868.957	-36.99
869.125	-121.84
869.292	-113.15
869.46	-79.18
869.627	-31.43
869.795	-26.36
869.963	-10.73
870.13	8.38
870.298	13.6
870.465	-6.43
870.632	5.09
870.8	19.63
870.967	8.18
871.135	-9.64
871.302	63.33
871.469	-76.7
871.637	-26.35
871.804	22.72
871.971	-24.77
872.139	5.21
872.306	12
872.473	26.35
872.64	16.34
872.807	69.29
872.975	99.95
873.142	143.64
873.309	3698.55
873.476	988.97
873.643	192.54
873.81	85.93
873.977	39.42
874.144	40.28
874.311	-9.38
874.478	-37.18
874.645	-28.52
874.812	-32.78
874.979	-38.69
875.146	-64.49
875.313	-46.02
875.48	-242.42
875.647	376.4
875.813	-588.44
875.98	2088.89
876.147	-454.08
876.314	-119.86
876.481	-197.78
876.647	-81.38
876.814	-39.23
876.981	-43.42
877.147	28.58
877.314	41.96
877.481	40.07
877.647	81.52
877.814	95.3
877.98	62.28
878.147	98.17
878.314	83.37
878.48	104.23
878.647	48.09
878.813	359.69
878.979	162.33
879.146	96.51
879.312	57.91
879.479	47.27
879.645	77.98
879.811	16.12
879.978	21.71
880.144	11.59
880.31	14.28
880.477	-31.29
880.643	-8.59
880.809	-5.76
880.975	-2048.48
881.142	482.6
881.308	645.33
881.474	-147.05
881.64	-208.26
881.806	-52.07
881.972	-4.58
882.138	15.5
882.304	62.2
882.47	58.21
882.636	45.94
882.802	47.26
882.968	-6.8
883.134	10.41
883.3	27.1
883.466	80.15
883.632	72.54
883.798	58.25
883.964	40.61
884.129	34.33
884.295	-19.58
884.461	-14.01
884.627	27.69
884.793	36.6
884.958	64.11
885.124	74.03
885.29	28.58
885.455	-115.23
885.621	-110.97
885.787	-182.44
885.952	416.8
886.118	446.57
886.283	-2701.75
886.449	-111.41
886.614	-38.25
886.78	41.91
886.945	63.08
887.111	2.06
887.276	19.34
887.442	11.66
887.607	-89.91
887.773	-50.88
887.938	-95.74
888.103	-69.56
888.269	-89.53
888.434	-76.04
888.599	-89.2
888.764	-14.15
888.93	-100.45
889.095	-70.01
889.26	-12.49
889.425	-5.46
889.59	291.79
889.756	72.26
889.921	-84.11
890.086	-21.74
890.251	-47.68
890.416	-51.64
890.581	-40.43
890.746	59.47
890.911	73.59
891.076	78.35
891.241	76.86
891.406	86.42
891.571	66.57
891.736	13.09
891.901	-43.06
892.065	-7.32
892.23	-36.42
892.395	15.68
892.56	-52.31
892.725	25.41
892.889	49.9
893.054	-10.25
893.219	-159.65
893.384	-102.11
893.548	-412.67
893.713	1183.95
893.878	176.73
