Data from Ofav_PS_Phys_9JQ42_Reflection_1.txt Node
Date: Thu Jul 29 18:22:19 EDT 2021
User: USUARIO
Spectrometer: FLMT01687
Trigger mode: 0
Integration Time (sec): 9.010000E-1
Scans to average: 2
Electric dark correction enabled: true
Nonlinearity correction enabled: false
Boxcar width: 2
XAxis mode: Wavelengths
Number of Pixels in Spectrum: 3648
>>>>>Begin Spectral Data<<<<<
179.494	214.6
179.716	285.59
179.937	161.35
180.158	-757.06
180.38	-24.52
180.601	-707.61
180.823	-203.92
181.044	-157.74
181.265	-138.63
181.486	-1292.66
181.708	81.23
181.929	198.05
182.15	6190.48
182.372	-155.61
182.593	-86.66
182.814	-92.28
183.035	-611.68
183.257	214.29
183.478	97.01
183.699	67.87
183.92	53.65
184.141	84.77
184.363	43.29
184.584	35.97
184.805	32.34
185.026	59.27
185.247	42.64
185.468	39.68
185.689	45.22
185.91	79.97
186.132	27.66
186.353	7.87
186.574	50.97
186.795	59.05
187.016	56.7
187.237	37.46
187.458	56.59
187.679	57.54
187.9	52.29
188.121	47.36
188.342	58.72
188.563	59.44
188.784	48.1
189.005	31.56
189.226	39.81
189.447	43.29
189.667	32.72
189.888	51.19
190.109	71.46
190.33	81.36
190.551	42.31
190.772	81.45
190.993	54.24
191.214	44.31
191.434	59.37
191.655	61.69
191.876	44.6
192.097	8.47
192.318	24.66
192.538	11.21
192.759	2.66
192.98	41.67
193.201	67.59
193.421	60.3
193.642	79.38
193.863	79.47
194.083	57.91
194.304	34.26
194.525	65.06
194.745	32.33
194.966	34.53
195.187	24.31
195.407	17.46
195.628	-35.79
195.848	38.18
196.069	69.16
196.29	51.96
196.51	55.8
196.731	58.64
196.951	34.39
197.172	-7.88
197.392	20.18
197.613	34.7
197.833	15.74
198.054	10.48
198.274	21.42
198.495	23.49
198.715	-4.98
198.936	11.18
199.156	-2.34
199.377	0.91
199.597	-7.6
199.817	0.1
200.038	12.88
200.258	22.57
200.479	40.18
200.699	-3.21
200.919	23.28
201.14	12.27
201.36	33.58
201.58	36.05
201.801	39.97
202.021	56.56
202.241	61.25
202.461	70.28
202.682	72.88
202.902	99.31
203.122	83.07
203.342	98.54
203.563	65.55
203.783	51.81
204.003	37.14
204.223	27.25
204.443	13.17
204.663	20.9
204.884	23.1
205.104	2.04
205.324	12.47
205.544	21.24
205.764	44.22
205.984	66.03
206.204	85
206.424	100.34
206.644	102.61
206.864	75.32
207.084	46.72
207.304	41.4
207.525	7.94
207.745	28.04
207.964	28.6
208.184	36.06
208.404	23.46
208.624	41.65
208.844	34.11
209.064	53.93
209.284	78.04
209.504	88.11
209.724	92.87
209.944	91.66
210.164	82.45
210.384	54.44
210.604	37.62
210.823	22.93
211.043	14.59
211.263	41.66
211.483	34.22
211.703	29.24
211.922	33.13
212.142	55.97
212.362	43.69
212.582	44.76
212.801	47.61
213.021	30.42
213.241	6.05
213.461	1.74
213.68	-9.29
213.9	-5.91
214.12	-8.32
214.339	-33.36
214.559	-35.4
214.779	-28.58
214.998	-32.14
215.218	15.53
215.438	65.89
215.657	60.64
215.877	57.29
216.096	72.74
216.316	74.13
216.535	63.33
216.755	17.87
216.974	6.8
217.194	-40.85
217.413	-12.12
217.633	9.49
217.852	16.53
218.072	22.87
218.291	24.79
218.511	35.2
218.73	29.48
218.95	30.47
219.169	26.44
219.389	27.55
219.608	20.92
219.827	12.4
220.047	15.78
220.266	22.89
220.485	44.5
220.705	30.31
220.924	21.13
221.143	33.97
221.363	11.49
221.582	-19.87
221.801	-10.93
222.021	51.35
222.24	22.55
222.459	36.68
222.678	43.96
222.897	24.89
223.117	21.59
223.336	32.83
223.555	32.27
223.774	29.73
223.993	56.59
224.213	70.88
224.432	46.01
224.651	73.73
224.87	66.23
225.089	55.61
225.308	45.62
225.527	44.71
225.746	16.76
225.965	26.94
226.184	20.86
226.404	-5.69
226.623	42.86
226.842	47.88
227.061	24.39
227.28	43.99
227.499	92.86
227.718	119.55
227.936	76.28
228.155	100.75
228.374	83.64
228.593	41.63
228.812	21.12
229.031	23.5
229.25	18.9
229.469	25.94
229.688	30.24
229.907	43.99
230.125	39.09
230.344	34.01
230.563	40.41
230.782	51.79
231.001	16.55
231.22	26.99
231.438	41.21
231.657	22.9
231.876	21.52
232.095	24.51
232.313	21.2
232.532	6.78
232.751	1.91
232.969	6.15
233.188	7.16
233.407	19.13
233.625	30.79
233.844	50.67
234.063	40.85
234.281	27.55
234.5	13.4
234.719	13.12
234.937	16.68
235.156	32.53
235.374	58.13
235.593	45.51
235.811	41.99
236.03	21.49
236.249	22.91
236.467	28.85
236.686	27.49
236.904	39.14
237.123	56.9
237.341	49.02
237.559	19.24
237.778	34.58
237.996	23.73
238.215	20.82
238.433	38.68
238.652	48.61
238.87	52.62
239.088	59.98
239.307	55.13
239.525	40.2
239.743	40.34
239.962	38.62
240.18	37.91
240.398	34.02
240.617	26.11
240.835	24.35
241.053	32.65
241.271	27.09
241.49	38.4
241.708	46.88
241.926	56.9
242.144	36.78
242.363	36.15
242.581	24.31
242.799	33.76
243.017	26.67
243.235	36.64
243.453	29.53
243.672	33.9
243.89	16.61
244.108	30.38
244.326	15.66
244.544	8.79
244.762	-3.02
244.98	10.97
245.198	-8.02
245.416	-8.89
245.634	6.91
245.852	26.08
246.07	26.31
246.288	30.97
246.506	41.14
246.724	27.31
246.942	33.88
247.16	32.88
247.378	24.98
247.596	15.75
247.814	21.66
248.032	8.17
248.25	13.23
248.468	25.29
248.685	36.26
248.903	53.33
249.121	54.68
249.339	41.36
249.557	33.55
249.775	39.46
249.992	17.95
250.21	19.21
250.428	40.21
250.646	37.61
250.863	37.1
251.081	36.19
251.299	56.96
251.517	56.8
251.734	62.09
251.952	55.25
252.17	46.79
252.387	29.88
252.605	15.89
252.823	9.79
253.04	16.82
253.258	27.25
253.475	27.28
253.693	33.5
253.911	40.16
254.128	48.03
254.346	40.86
254.563	38.86
254.781	21.67
254.998	20.43
255.216	8.15
255.433	21.75
255.651	6.22
255.868	8.6
256.086	18.74
256.303	26.13
256.521	23.29
256.738	32.11
256.956	34.22
257.173	28.57
257.39	40.11
257.608	36.74
257.825	49.25
258.043	35.41
258.26	29.84
258.477	13.45
258.695	0.95
258.912	-16.52
259.129	7.36
259.346	4.1
259.564	-11
259.781	-10.2
259.998	-7.63
260.216	0.06
260.433	12.11
260.65	11.35
260.867	25.18
261.084	22.97
261.302	20.53
261.519	4.39
261.736	22.63
261.953	12.42
262.17	33.29
262.387	39.87
262.604	39.51
262.822	31.42
263.039	41.74
263.256	25.33
263.473	24.83
263.69	7.34
263.907	8.01
264.124	32.11
264.341	50.09
264.558	50.98
264.775	63.02
264.992	62.02
265.209	17.06
265.426	23.18
265.643	15.8
265.86	17.56
266.077	21.79
266.294	45.44
266.51	17.25
266.727	22.05
266.944	22.29
267.161	17.42
267.378	5.93
267.595	37.7
267.812	30.29
268.028	15.99
268.245	19.57
268.462	14.11
268.679	7.91
268.896	6.1
269.112	18.01
269.329	8.66
269.546	20.02
269.763	18.91
269.979	22.25
270.196	29.64
270.413	42.94
270.629	33.22
270.846	39.37
271.063	42.23
271.279	42.27
271.496	33.73
271.712	17.97
271.929	8.77
272.146	23.88
272.362	14.81
272.579	37.86
272.795	68.24
273.012	54.51
273.228	34.94
273.445	54.08
273.661	21.24
273.878	-1.83
274.094	-2.38
274.311	9.15
274.527	-1.61
274.744	27.65
274.96	29.9
275.177	27.59
275.393	20.65
275.609	23.23
275.826	3.95
276.042	-0.1
276.259	-11.77
276.475	3.91
276.691	9.91
276.908	10.74
277.124	25.02
277.34	39.81
277.557	27.8
277.773	16.64
277.989	21.41
278.205	29.3
278.422	27.07
278.638	25.71
278.854	39.96
279.07	66.09
279.286	29.23
279.503	33.5
279.719	34.65
279.935	27.89
280.151	-10.2
280.367	13.43
280.583	30.38
280.799	32.19
281.016	45.11
281.232	57.86
281.448	51.47
281.664	60.94
281.88	40.67
282.096	45.67
282.312	20.61
282.528	25.96
282.744	10.27
282.96	23.03
283.176	-18.67
283.392	12.37
283.608	10.76
283.824	0.21
284.04	3.46
284.256	30.36
284.471	19.04
284.687	37.16
284.903	42.52
285.119	45.85
285.335	18.53
285.551	32.66
285.767	33.16
285.982	37.09
286.198	32.01
286.414	39.19
286.63	38.92
286.846	35.24
287.061	32.37
287.277	29.07
287.493	22.35
287.709	24.15
287.924	29.14
288.14	22.54
288.356	35.44
288.571	44.26
288.787	35.76
289.003	28.84
289.218	18.74
289.434	11.57
289.65	22.06
289.865	25.89
290.081	16.59
290.296	33.14
290.512	24.98
290.727	7.8
290.943	4.65
291.159	25.44
291.374	39.13
291.59	38.49
291.805	36.5
292.021	42.26
292.236	36.83
292.451	-5.55
292.667	11.75
292.882	3.48
293.098	7.85
293.313	3.01
293.529	20.78
293.744	10.8
293.959	27.6
294.175	32.84
294.39	25.25
294.605	41.41
294.821	46.09
295.036	41.61
295.251	39.72
295.467	39.3
295.682	29.49
295.897	23.3
296.112	21.85
296.328	25.06
296.543	24.75
296.758	20.44
296.973	30.56
297.188	31.69
297.404	7.62
297.619	8.03
297.834	14.48
298.049	-12.88
298.264	-11.81
298.479	18.48
298.694	21.37
298.909	7.48
299.125	22.19
299.34	34.02
299.555	24.12
299.77	39.31
299.985	28.8
300.2	25.21
300.415	29
300.63	26.12
300.845	3.89
301.06	12.86
301.275	8.76
301.49	-7.04
301.704	-32.04
301.919	12.7
302.134	24.7
302.349	27.02
302.564	20.69
302.779	23.49
302.994	10.23
303.209	11.44
303.423	12.7
303.638	15.17
303.853	16.38
304.068	8.58
304.283	17.74
304.497	15.55
304.712	0.36
304.927	26.96
305.142	41.19
305.356	23.73
305.571	48.98
305.786	53.61
306	8.72
306.215	22.25
306.43	32.9
306.644	4.51
306.859	15.52
307.074	37.71
307.288	30.05
307.503	30.57
307.717	39.91
307.932	10.52
308.147	5.51
308.361	19.59
308.576	10.65
308.79	-2.27
309.005	31.76
309.219	33.73
309.434	20.95
309.648	32.15
309.863	46.01
310.077	49.74
310.292	47.69
310.506	36.62
310.72	40.37
310.935	32.29
311.149	24.98
311.364	36.2
311.578	49.9
311.792	30.54
312.007	42.71
312.221	39.96
312.435	38.69
312.649	26.54
312.864	116.64
313.078	91.04
313.292	54.13
313.507	72.51
313.721	78.95
313.935	40.55
314.149	32.59
314.363	38.82
314.578	30.07
314.792	27.31
315.006	36.34
315.22	33.71
315.434	37.78
315.648	40.47
315.862	34.65
316.077	28.59
316.291	37.64
316.505	41.61
316.719	47.91
316.933	70.7
317.147	72.16
317.361	46.57
317.575	38.92
317.789	15.09
318.003	5.82
318.217	17.91
318.431	39.27
318.645	45.91
318.859	51.71
319.073	54.24
319.287	37.21
319.5	12.2
319.714	25.79
319.928	27.81
320.142	36.75
320.356	43.92
320.57	47.64
320.784	30.17
320.997	28.75
321.211	24.45
321.425	23.45
321.639	10.19
321.853	24.83
322.066	11.15
322.28	6.51
322.494	5.59
322.707	21.94
322.921	19.32
323.135	23.43
323.349	25.17
323.562	15.37
323.776	17.4
323.989	2.07
324.203	17.18
324.417	16.59
324.63	9.86
324.844	10.32
325.057	21.15
325.271	10.3
325.485	33.01
325.698	58.96
325.912	51.18
326.125	46.18
326.339	43.58
326.552	19.73
326.766	18.77
326.979	26.62
327.193	24.53
327.406	40.72
327.619	39.02
327.833	43.56
328.046	38.67
328.26	49.92
328.473	46.55
328.686	59.36
328.9	57.98
329.113	41.63
329.326	24.6
329.54	-5.06
329.753	-6.21
329.966	-7.01
330.179	9.22
330.393	9.24
330.606	15.2
330.819	21.97
331.032	25.67
331.246	32.81
331.459	26.11
331.672	29.36
331.885	21.9
332.098	13.08
332.311	12.92
332.525	21.84
332.738	15.15
332.951	-1.75
333.164	0.05
333.377	-8.64
333.59	1.49
333.803	30.58
334.016	32.76
334.229	31.66
334.442	32.84
334.655	37.71
334.868	17.44
335.081	35.93
335.294	43.11
335.507	46.05
335.72	40.81
335.933	37.65
336.146	35.82
336.359	33.1
336.572	17.44
336.785	18.27
336.997	25.43
337.21	35.71
337.423	25.66
337.636	34.67
337.849	29.5
338.062	22.03
338.274	8.3
338.487	11.74
338.7	11.22
338.913	8.71
339.125	22.7
339.338	16.17
339.551	23.21
339.763	17.17
339.976	25.02
340.189	37.55
340.402	31.1
340.614	15.75
340.827	32.42
341.039	18.11
341.252	11.98
341.465	21.15
341.677	26.88
341.89	17.99
342.102	19.97
342.315	10.35
342.527	14.02
342.74	9.88
342.952	11.97
343.165	21.11
343.377	20.11
343.59	25.74
343.802	19.63
344.015	20.88
344.227	5.21
344.44	4.24
344.652	0.9
344.864	4.82
345.077	22.93
345.289	29.01
345.502	16.98
345.714	13.29
345.926	31.62
346.139	11.14
346.351	14.84
346.563	38.75
346.775	27.96
346.988	7.79
347.2	9.52
347.412	5.89
347.624	9.07
347.837	-1.5
348.049	4.6
348.261	7.26
348.473	16.55
348.685	19.49
348.897	38.43
349.11	43.1
349.322	41.48
349.534	55.2
349.746	43.88
349.958	40.2
350.17	25.53
350.382	35.98
350.594	29.39
350.806	35.89
351.018	28.61
351.23	35.93
351.442	29.7
351.654	33.4
351.866	22.12
352.078	27.54
352.29	16.76
352.502	20
352.714	14.08
352.926	19.52
353.138	27.08
353.35	46.82
353.561	37.74
353.773	40.31
353.985	44.62
354.197	40.52
354.409	38.17
354.621	27.48
354.832	6.65
355.044	-0.86
355.256	5.32
355.468	5.59
355.679	18.9
355.891	27.18
356.103	28.85
356.314	35.99
356.526	28.24
356.738	20.08
356.949	17.06
357.161	22.47
357.373	9.43
357.584	10.59
357.796	31.44
358.008	32.65
358.219	20
358.431	18.48
358.642	23
358.854	34.33
359.065	18.77
359.277	33.06
359.488	45.92
359.7	48.74
359.911	43.2
360.123	54.17
360.334	48.62
360.546	45.59
360.757	36.14
360.969	43.74
361.18	53.89
361.391	41.25
361.603	20.53
361.814	30.8
362.025	16.67
362.237	4.74
362.448	13.92
362.659	18.38
362.871	14.55
363.082	28.04
363.293	37.6
363.504	43.72
363.716	46.84
363.927	45.84
364.138	19.3
364.349	17.25
364.56	17.57
364.772	15.92
364.983	19.38
365.194	29.93
365.405	35.43
365.616	24.96
365.827	20.78
366.038	14.21
366.25	6.5
366.461	-1.04
366.672	3.37
366.883	8.17
367.094	3.14
367.305	17.18
367.516	23.34
367.727	26.26
367.938	27.41
368.149	25.97
368.36	21.16
368.571	10.6
368.781	0.22
368.992	-10.13
369.203	-1.85
369.414	3.5
369.625	10.88
369.836	18.22
370.047	26.71
370.258	27.31
370.468	25.19
370.679	14.9
370.89	-1.89
371.101	0.33
371.312	-6.04
371.522	6.72
371.733	19.32
371.944	25.69
372.155	31.69
372.365	31.75
372.576	19.52
372.787	24.26
372.997	25.82
373.208	23.43
373.419	12.52
373.629	17.72
373.84	22.43
374.05	22.13
374.261	20.53
374.472	29.77
374.682	13.41
374.893	12.16
375.103	23.19
375.314	22.72
375.524	25.49
375.735	31.02
375.945	25.48
376.156	17.5
376.366	6.18
376.577	15.4
376.787	19
376.997	28.15
377.208	20.61
377.418	27.94
377.629	22.2
377.839	24.93
378.049	17.94
378.26	25.78
378.47	32.41
378.68	29.59
378.89	19.39
379.101	25.94
379.311	15.42
379.521	4
379.732	3.18
379.942	7.87
380.152	-6.17
380.362	5
380.572	-0.43
380.783	-7.79
380.993	-7.1
381.203	5.47
381.413	3.86
381.623	8.62
381.833	26.88
382.043	29.87
382.253	27.08
382.463	24.01
382.674	31.76
382.884	27.66
383.094	14.18
383.304	14.97
383.514	7.06
383.724	14.39
383.934	6.68
384.144	17.35
384.353	18
384.563	30.36
384.773	21.75
384.983	24.27
385.193	21.71
385.403	13.27
385.613	7.92
385.823	4.9
386.033	6.23
386.242	9.55
386.452	14.63
386.662	14.83
386.872	13.76
387.082	11.79
387.291	7.12
387.501	8.78
387.711	10.34
387.921	11.4
388.13	10.27
388.34	13.71
388.55	13.8
388.759	9.41
388.969	8.52
389.179	8.57
389.388	4.38
389.598	3.6
389.807	4.81
390.017	7.16
390.227	9.6
390.436	10.85
390.646	11.59
390.855	13.51
391.065	11.7
391.274	10.61
391.484	9.18
391.693	6.39
391.903	4.73
392.112	5.33
392.322	5.29
392.531	6.11
392.74	5.51
392.95	7.03
393.159	8.25
393.369	6.64
393.578	6.25
393.787	7.76
393.997	6.42
394.206	6
394.415	7.63
394.625	8.05
394.834	8.03
395.043	8.14
395.252	8.45
395.462	7.52
395.671	7.06
395.88	7.92
396.089	8.9
396.298	9.27
396.508	9.08
396.717	9.11
396.926	8.31
397.135	7.4
397.344	6.84
397.553	7.28
397.762	7.74
397.971	8.13
398.181	8.77
398.39	8.09
398.599	7.89
398.808	7.78
399.017	7.54
399.226	6.85
399.435	7.71
399.644	8.12
399.853	8.06
400.062	8.7
400.27	9.24
400.479	8.79
400.688	8.57
400.897	8.68
401.106	8.03
401.315	7.73
401.524	8.03
401.733	8.04
401.941	8.09
402.15	8.33
402.359	8.25
402.568	8.12
402.777	8.06
402.985	8.04
403.194	7.7
403.403	7.59
403.612	7.47
403.82	7.37
404.029	7.1
404.238	7.17
404.446	7.27
404.655	7.23
404.864	7.21
405.072	7.22
405.281	7.19
405.489	7.12
405.698	7.16
405.906	7.11
406.115	7.13
406.324	7.06
406.532	7.07
406.741	7.11
406.949	7.13
407.158	7.21
407.366	7.27
407.574	7.19
407.783	7.2
407.991	6.97
408.2	6.85
408.408	6.77
408.617	6.89
408.825	6.77
409.033	6.83
409.242	6.92
409.45	6.91
409.658	6.91
409.867	6.91
410.075	7.02
410.283	6.89
410.491	6.85
410.7	6.86
410.908	6.91
411.116	6.95
411.324	6.98
411.533	7
411.741	6.9
411.949	6.84
412.157	6.72
412.365	6.61
412.573	6.6
412.781	6.52
412.99	6.47
413.198	6.44
413.406	6.47
413.614	6.53
413.822	6.63
414.03	6.56
414.238	6.58
414.446	6.67
414.654	6.6
414.862	6.48
415.07	6.35
415.278	6.39
415.486	6.26
415.694	6.3
415.902	6.37
416.109	6.44
416.317	6.4
416.525	6.42
416.733	6.5
416.941	6.44
417.149	6.65
417.357	6.54
417.564	6.62
417.772	6.34
417.98	6.47
418.188	6.23
418.395	6.23
418.603	6.12
418.811	6.33
419.019	6.29
419.226	6.66
419.434	6.73
419.642	6.78
419.849	6.63
420.057	6.54
420.265	6.25
420.472	6.19
420.68	6.07
420.887	6.11
421.095	6.14
421.302	6.25
421.51	6.29
421.717	6.31
421.925	6.22
422.132	6.27
422.34	5.99
422.547	5.86
422.755	5.93
422.962	6.01
423.17	5.92
423.377	6.19
423.585	6.51
423.792	6.57
423.999	6.48
424.207	6.47
424.414	6.34
424.621	6.18
424.829	6.03
425.036	6.15
425.243	6.15
425.451	6.12
425.658	6.11
425.865	6.11
426.072	6.09
426.28	6.05
426.487	6.14
426.694	6
426.901	5.88
427.108	5.83
427.315	6
427.523	5.84
427.73	5.9
427.937	5.96
428.144	5.88
428.351	5.69
428.558	5.89
428.765	5.88
428.972	6.11
429.179	6.09
429.386	6.13
429.593	5.99
429.8	6.1
430.007	6.05
430.214	6.24
430.421	6.29
430.628	6.29
430.835	6.27
431.042	6.02
431.249	6.06
431.456	6.03
431.662	6.26
431.869	6.32
432.076	6.49
432.283	6.46
432.49	6.45
432.697	6.4
432.903	6.24
433.11	6.17
433.317	6.13
433.524	6.2
433.73	6.06
433.937	6.14
434.144	6.11
434.35	6.03
434.557	5.94
434.764	5.91
434.97	5.79
435.177	5.88
435.384	5.83
435.59	5.81
435.797	5.94
436.003	5.99
436.21	5.95
436.416	5.97
436.623	5.93
436.829	5.85
437.036	5.85
437.242	5.99
437.449	6.12
437.655	6.3
437.862	6.39
438.068	6.32
438.275	6.08
438.481	6.01
438.687	5.94
438.894	5.85
439.1	5.82
439.307	6.02
439.513	5.92
439.719	5.79
439.926	5.78
440.132	5.97
440.338	5.89
440.544	5.83
440.751	5.88
440.957	6.01
441.163	5.88
441.369	5.87
441.575	5.93
441.782	5.88
441.988	5.77
442.194	5.83
442.4	5.82
442.606	6.04
442.812	6.18
443.018	6.12
443.224	6.13
443.431	6.13
443.637	5.98
443.843	5.94
444.049	5.99
444.255	5.92
444.461	6.04
444.667	5.98
444.873	5.98
445.079	5.95
445.284	6.02
445.49	5.94
445.696	6.01
445.902	5.97
446.108	5.93
446.314	5.91
446.52	5.97
446.726	5.95
446.931	5.99
447.137	6.07
447.343	6.07
447.549	5.98
447.755	5.92
447.96	6.06
448.166	6.03
448.372	5.96
448.578	6.07
448.783	6.18
448.989	6.13
449.195	6.05
449.4	6.1
449.606	6.07
449.812	5.99
450.017	5.94
450.223	6
450.428	6.04
450.634	6.07
450.84	6.26
451.045	6.22
451.251	6.28
451.456	6.3
451.662	6.22
451.867	6.09
452.073	6.1
452.278	6.16
452.483	6.14
452.689	6.25
452.894	6.33
453.1	6.42
453.305	6.51
453.51	6.52
453.716	6.46
453.921	6.39
454.127	6.45
454.332	6.28
454.537	6.27
454.742	6.36
454.948	6.31
455.153	6.2
455.358	6.21
455.563	6.23
455.769	6.15
455.974	6.28
456.179	6.15
456.384	6.1
456.589	6.14
456.795	6.16
457	6.17
457.205	6.43
457.41	6.62
457.615	6.52
457.82	6.56
458.025	6.53
458.23	6.42
458.435	6.3
458.64	6.36
458.845	6.39
459.05	6.39
459.255	6.44
459.46	6.42
459.665	6.49
459.87	6.4
460.075	6.38
460.28	6.31
460.485	6.29
460.69	6.23
460.895	6.16
461.099	6.2
461.304	6.28
461.509	6.33
461.714	6.39
461.919	6.54
462.123	6.51
462.328	6.53
462.533	6.57
462.738	6.55
462.942	6.43
463.147	6.54
463.352	6.47
463.556	6.51
463.761	6.35
463.966	6.44
464.17	6.4
464.375	6.33
464.58	6.3
464.784	6.46
464.989	6.38
465.193	6.36
465.398	6.58
465.602	6.72
465.807	6.73
466.011	6.89
466.216	6.83
466.42	6.62
466.625	6.62
466.829	6.66
467.034	6.69
467.238	6.75
467.443	6.81
467.647	6.61
467.851	6.62
468.056	6.52
468.26	6.54
468.464	6.6
468.669	6.65
468.873	6.71
469.077	6.69
469.282	6.7
469.486	6.69
469.69	6.68
469.894	6.53
470.099	6.54
470.303	6.58
470.507	6.6
470.711	6.61
470.915	6.69
471.119	6.74
471.324	6.72
471.528	6.72
471.732	6.7
471.936	6.72
472.14	6.75
472.344	6.78
472.548	6.79
472.752	6.88
472.956	6.81
473.16	6.77
473.364	6.73
473.568	6.7
473.772	6.71
473.976	6.71
474.18	6.74
474.384	6.68
474.588	6.66
474.792	6.65
474.995	6.69
475.199	6.67
475.403	6.67
475.607	6.71
475.811	6.7
476.015	6.7
476.218	6.64
476.422	6.62
476.626	6.58
476.83	6.53
477.033	6.51
477.237	6.48
477.441	6.51
477.644	6.52
477.848	6.55
478.052	6.51
478.255	6.55
478.459	6.57
478.663	6.62
478.866	6.56
479.07	6.57
479.273	6.54
479.477	6.52
479.681	6.54
479.884	6.65
480.088	6.57
480.291	6.56
480.495	6.54
480.698	6.45
480.901	6.4
481.105	6.45
481.308	6.5
481.512	6.56
481.715	6.59
481.919	6.64
482.122	6.72
482.325	6.78
482.529	6.78
482.732	6.83
482.935	6.72
483.138	6.64
483.342	6.54
483.545	6.52
483.748	6.47
483.952	6.53
484.155	6.57
484.358	6.56
484.561	6.57
484.764	6.51
484.967	6.59
485.171	6.6
485.374	6.58
485.577	6.56
485.78	6.6
485.983	6.49
486.186	6.42
486.389	6.45
486.592	6.4
486.795	6.4
486.998	6.38
487.201	6.47
487.404	6.52
487.607	6.58
487.81	6.51
488.013	6.56
488.216	6.46
488.419	6.47
488.622	6.48
488.825	6.58
489.028	6.54
489.231	6.66
489.433	6.69
489.636	6.61
489.839	6.57
490.042	6.58
490.245	6.46
490.447	6.41
490.65	6.48
490.853	6.49
491.056	6.58
491.258	6.57
491.461	6.59
491.664	6.63
491.866	6.64
492.069	6.63
492.272	6.62
492.474	6.55
492.677	6.49
492.879	6.48
493.082	6.51
493.285	6.6
493.487	6.6
493.69	6.62
493.892	6.62
494.095	6.56
494.297	6.51
494.5	6.59
494.702	6.68
494.905	6.79
495.107	6.81
495.309	6.9
495.512	6.87
495.714	6.85
495.917	6.87
496.119	6.91
496.321	6.82
496.524	6.88
496.726	6.85
496.928	6.75
497.13	6.73
497.333	6.82
497.535	6.84
497.737	6.8
497.939	6.82
498.142	6.91
498.344	6.88
498.546	6.83
498.748	6.94
498.95	6.97
499.152	6.99
499.355	7.1
499.557	7.15
499.759	7.15
499.961	7.18
500.163	7.07
500.365	7.02
500.567	7.01
500.769	6.99
500.971	7.02
501.173	7.06
501.375	7.03
501.577	7.06
501.779	7.1
501.981	7.12
502.183	7.13
502.385	7.13
502.587	7.05
502.788	7.06
502.99	7
503.192	7.07
503.394	7.09
503.596	7.19
503.798	7.17
503.999	7.19
504.201	7.17
504.403	7.17
504.605	7.14
504.806	7.12
505.008	7.11
505.21	7.11
505.411	7.09
505.613	7.12
505.815	7.16
506.016	7.2
506.218	7.1
506.42	7.14
506.621	7.12
506.823	7.01
507.024	6.96
507.226	6.96
507.427	6.94
507.629	6.99
507.83	7.01
508.032	7.03
508.233	7.07
508.435	7.12
508.636	7.14
508.838	7.14
509.039	7.18
509.24	7.16
509.442	7.13
509.643	7.06
509.845	7.16
510.046	7.12
510.247	7.16
510.448	7.19
510.65	7.24
510.851	7.12
511.052	7.13
511.254	7.06
511.455	7.02
511.656	6.93
511.857	6.94
512.058	6.87
512.26	6.85
512.461	6.79
512.662	6.75
512.863	6.68
513.064	6.67
513.265	6.67
513.466	6.65
513.667	6.7
513.868	6.75
514.069	6.78
514.27	6.77
514.471	6.78
514.672	6.68
514.873	6.63
515.074	6.68
515.275	6.67
515.476	6.63
515.677	6.68
515.878	6.82
516.079	6.71
516.28	6.71
516.481	6.82
516.682	6.78
516.882	6.66
517.083	6.74
517.284	6.71
517.485	6.62
517.686	6.6
517.886	6.63
518.087	6.63
518.288	6.6
518.488	6.6
518.689	6.64
518.89	6.61
519.091	6.61
519.291	6.64
519.492	6.66
519.692	6.64
519.893	6.72
520.094	6.69
520.294	6.76
520.495	6.8
520.695	6.78
520.896	6.68
521.096	6.7
521.297	6.69
521.497	6.64
521.698	6.63
521.898	6.61
522.099	6.55
522.299	6.5
522.499	6.49
522.7	6.57
522.9	6.61
523.101	6.62
523.301	6.61
523.501	6.63
523.702	6.61
523.902	6.61
524.102	6.63
524.302	6.68
524.503	6.71
524.703	6.68
524.903	6.69
525.103	6.69
525.304	6.67
525.504	6.69
525.704	6.68
525.904	6.68
526.104	6.67
526.304	6.71
526.504	6.69
526.705	6.68
526.905	6.64
527.105	6.67
527.305	6.6
527.505	6.57
527.705	6.58
527.905	6.62
528.105	6.57
528.305	6.58
528.505	6.6
528.705	6.62
528.905	6.61
529.105	6.64
529.304	6.68
529.504	6.7
529.704	6.66
529.904	6.65
530.104	6.64
530.304	6.62
530.503	6.57
530.703	6.61
530.903	6.59
531.103	6.6
531.303	6.63
531.502	6.73
531.702	6.77
531.902	6.82
532.101	6.82
532.301	6.81
532.501	6.79
532.7	6.78
532.9	6.77
533.1	6.82
533.299	6.81
533.499	6.75
533.698	6.74
533.898	6.74
534.097	6.68
534.297	6.72
534.496	6.73
534.696	6.76
534.895	6.86
535.095	6.9
535.294	6.89
535.494	6.92
535.693	6.86
535.892	6.85
536.092	6.86
536.291	6.88
536.491	6.87
536.69	6.92
536.889	6.8
537.088	6.77
537.288	6.73
537.487	6.75
537.686	6.78
537.886	6.87
538.085	6.88
538.284	6.94
538.483	6.93
538.682	6.92
538.882	6.93
539.081	6.99
539.28	7.02
539.479	7.07
539.678	7.09
539.877	7.11
540.076	7.09
540.275	7.05
540.474	6.98
540.673	6.94
540.872	6.92
541.071	6.92
541.27	6.9
541.469	6.98
541.668	7.06
541.867	7.12
542.066	7.19
542.265	7.25
542.464	7.3
542.663	7.33
542.862	7.46
543.06	7.52
543.259	7.61
543.458	7.6
543.657	7.64
543.856	7.58
544.054	7.54
544.253	7.46
544.452	7.43
544.651	7.4
544.849	7.35
545.048	7.36
545.247	7.37
545.445	7.47
545.644	7.53
545.843	7.56
546.041	7.6
546.24	7.65
546.438	7.66
546.637	7.62
546.836	7.71
547.034	7.71
547.233	7.71
547.431	7.7
547.63	7.71
547.828	7.67
548.027	7.7
548.225	7.74
548.423	7.77
548.622	7.83
548.82	7.85
549.019	7.92
549.217	7.93
549.415	8.02
549.614	8.14
549.812	8.11
550.01	8.08
550.209	8.16
550.407	8.16
550.605	8.13
550.803	8.2
551.002	8.26
551.2	8.29
551.398	8.33
551.596	8.31
551.794	8.46
551.993	8.5
552.191	8.54
552.389	8.54
552.587	8.62
552.785	8.62
552.983	8.69
553.181	8.76
553.379	8.91
553.577	8.95
553.775	8.95
553.973	8.95
554.171	8.97
554.369	8.97
554.567	8.98
554.765	8.99
554.963	9.02
555.161	9.04
555.359	9.12
555.557	9.22
555.755	9.34
555.952	9.39
556.15	9.47
556.348	9.42
556.546	9.49
556.744	9.52
556.941	9.58
557.139	9.62
557.337	9.83
557.535	9.83
557.732	9.88
557.93	9.96
558.128	10
558.325	9.95
558.523	10.02
558.721	10.09
558.918	10.12
559.116	10.17
559.313	10.13
559.511	10.27
559.708	10.25
559.906	10.36
560.104	10.48
560.301	10.65
560.498	10.67
560.696	10.82
560.893	10.8
561.091	10.89
561.288	10.91
561.486	10.95
561.683	10.98
561.88	11.12
562.078	11.16
562.275	11.23
562.473	11.26
562.67	11.31
562.867	11.38
563.064	11.41
563.262	11.5
563.459	11.65
563.656	11.73
563.853	11.78
564.051	11.8
564.248	11.86
564.445	11.92
564.642	11.95
564.839	12.08
565.036	12.18
565.234	12.24
565.431	12.25
565.628	12.33
565.825	12.32
566.022	12.37
566.219	12.41
566.416	12.5
566.613	12.55
566.81	12.5
567.007	12.55
567.204	12.64
567.401	12.67
567.598	12.85
567.795	12.98
567.991	13.04
568.188	13.17
568.385	13.26
568.582	13.21
568.779	13.31
568.976	13.4
569.172	13.47
569.369	13.45
569.566	13.5
569.763	13.58
569.96	13.6
570.156	13.56
570.353	13.65
570.55	13.63
570.746	13.58
570.943	13.58
571.14	13.62
571.336	13.65
571.533	13.78
571.729	13.87
571.926	14.01
572.123	14.04
572.319	14.07
572.516	14.03
572.712	14.07
572.909	13.97
573.105	13.97
573.302	14.01
573.498	14.08
573.695	14.07
573.891	14.15
574.087	14.23
574.284	14.31
574.48	14.31
574.677	14.33
574.873	14.28
575.069	14.22
575.266	14.1
575.462	14.15
575.658	14.26
575.854	14.42
576.051	14.45
576.247	14.56
576.443	14.55
576.639	14.48
576.835	14.32
577.032	14.28
577.228	14.26
577.424	14.28
577.62	14.24
577.816	14.32
578.012	14.35
578.208	14.37
578.404	14.21
578.6	14.22
578.796	14.25
578.993	14.28
579.189	14.24
579.384	14.31
579.58	14.23
579.776	14.14
579.972	14.08
580.168	14.02
580.364	14.01
580.56	14.06
580.756	14.02
580.952	14
581.148	14.06
581.343	14.1
581.539	14.09
581.735	14.14
581.931	14.18
582.127	14.1
582.322	13.98
582.518	13.98
582.714	13.93
582.909	13.85
583.105	13.8
583.301	13.84
583.496	13.79
583.692	13.78
583.888	13.78
584.083	13.84
584.279	13.83
584.474	13.85
584.67	13.78
584.866	13.78
585.061	13.73
585.257	13.71
585.452	13.61
585.648	13.56
585.843	13.53
586.039	13.5
586.234	13.46
586.429	13.47
586.625	13.47
586.82	13.48
587.015	13.54
587.211	13.52
587.406	13.5
587.601	13.61
587.797	13.54
587.992	13.51
588.187	13.47
588.383	13.46
588.578	13.43
588.773	13.47
588.968	13.48
589.163	13.53
589.359	13.64
589.554	13.68
589.749	13.7
589.944	13.6
590.139	13.63
590.334	13.63
590.529	13.58
590.724	13.59
590.919	13.64
591.114	13.67
591.309	13.52
591.504	13.59
591.699	13.55
591.894	13.56
592.089	13.53
592.284	13.62
592.479	13.58
592.674	13.63
592.869	13.68
593.064	13.8
593.259	13.91
593.454	13.79
593.648	13.75
593.843	13.79
594.038	13.71
594.233	13.63
594.428	13.76
594.622	13.87
594.817	13.9
595.012	13.92
595.206	14.06
595.401	14.15
595.596	14.24
595.79	14.29
595.985	14.34
596.18	14.35
596.374	14.41
596.569	14.44
596.763	14.5
596.958	14.58
597.153	14.59
597.347	14.66
597.542	14.66
597.736	14.6
597.931	14.63
598.125	14.75
598.319	14.77
598.514	14.85
598.708	15
598.903	15.01
599.097	15.02
599.291	15.02
599.486	15.06
599.68	14.99
599.874	15.06
600.069	15.21
600.263	15.19
600.457	15.22
600.651	15.3
600.846	15.31
601.04	15.28
601.234	15.33
601.428	15.42
601.622	15.47
601.817	15.55
602.011	15.6
602.205	15.58
602.399	15.47
602.593	15.49
602.787	15.43
602.981	15.37
603.175	15.46
603.369	15.45
603.563	15.4
603.757	15.43
603.951	15.45
604.145	15.36
604.339	15.43
604.533	15.46
604.727	15.42
604.921	15.38
605.115	15.35
605.309	15.3
605.502	15.25
605.696	15.21
605.89	15.12
606.084	15.12
606.278	15.06
606.471	15.06
606.665	14.99
606.859	15.03
607.053	15
607.246	14.99
607.44	14.9
607.634	14.81
607.827	14.72
608.021	14.64
608.214	14.57
608.408	14.53
608.602	14.62
608.795	14.62
608.989	14.54
609.182	14.38
609.376	14.37
609.569	14.2
609.763	14.06
609.956	14.03
610.15	14.08
610.343	13.89
610.537	13.87
610.73	13.83
610.923	13.81
611.117	13.76
611.31	13.76
611.504	13.69
611.697	13.63
611.89	13.58
612.083	13.44
612.277	13.37
612.47	13.33
612.663	13.3
612.856	13.26
613.05	13.26
613.243	13.22
613.436	13.17
613.629	13.15
613.822	13.12
614.015	13.07
614.209	12.98
614.402	12.94
614.595	12.86
614.788	12.77
614.981	12.64
615.174	12.63
615.367	12.51
615.56	12.44
615.753	12.42
615.946	12.42
616.139	12.45
616.332	12.47
616.525	12.43
616.718	12.26
616.911	12.22
617.103	12.18
617.296	12.01
617.489	11.91
617.682	11.94
617.875	11.93
618.067	11.78
618.26	11.78
618.453	11.82
618.646	11.77
618.838	11.7
619.031	11.67
619.224	11.67
619.417	11.58
619.609	11.59
619.802	11.6
619.994	11.61
620.187	11.59
620.38	11.64
620.572	11.58
620.765	11.57
620.957	11.51
621.15	11.51
621.342	11.47
621.535	11.49
621.727	11.46
621.92	11.41
622.112	11.37
622.305	11.32
622.497	11.26
622.69	11.22
622.882	11.25
623.074	11.24
623.267	11.17
623.459	11.14
623.651	11.13
623.844	11.13
624.036	11.13
624.228	11.22
624.42	11.2
624.613	11.22
624.805	11.2
624.997	11.18
625.189	11.13
625.381	11.15
625.574	11.08
625.766	11.05
625.958	11.05
626.15	11.1
626.342	11.11
626.534	11.05
626.726	11.02
626.918	10.93
627.11	10.82
627.302	10.63
627.494	10.61
627.686	10.62
627.878	10.65
628.07	10.61
628.262	10.76
628.454	10.71
628.646	10.71
628.838	10.76
629.029	10.7
629.221	10.66
629.413	10.66
629.605	10.55
629.797	10.51
629.989	10.6
630.18	10.55
630.372	10.56
630.564	10.62
630.755	10.62
630.947	10.58
631.139	10.53
631.33	10.44
631.522	10.39
631.714	10.3
631.905	10.32
632.097	10.38
632.289	10.41
632.48	10.36
632.672	10.31
632.863	10.11
633.055	10.05
633.246	9.95
633.438	9.89
633.629	9.82
633.821	9.92
634.012	9.86
634.203	9.86
634.395	9.95
634.586	10.09
634.777	9.99
634.969	9.95
635.16	10.02
635.351	10
635.543	10
635.734	10.02
635.925	10.04
636.117	10.03
636.308	10.03
636.499	9.97
636.69	9.93
636.881	9.97
637.073	9.98
637.264	9.98
637.455	9.87
637.646	9.9
637.837	9.89
638.028	9.9
638.219	9.82
638.41	9.87
638.601	9.85
638.792	9.74
638.983	9.64
639.174	9.62
639.365	9.62
639.556	9.64
639.747	9.7
639.938	9.81
640.129	9.93
640.32	9.88
640.511	9.81
640.701	9.82
640.892	9.69
641.083	9.52
641.274	9.5
641.465	9.44
641.655	9.35
641.846	9.35
642.037	9.32
642.228	9.31
642.418	9.32
642.609	9.38
642.8	9.31
642.99	9.34
643.181	9.37
643.372	9.39
643.562	9.29
643.753	9.35
643.943	9.34
644.134	9.31
644.324	9.31
644.515	9.38
644.705	9.37
644.896	9.35
645.086	9.3
645.277	9.34
645.467	9.33
645.658	9.3
645.848	9.22
646.038	9.27
646.229	9.19
646.419	9.17
646.61	9.17
646.8	9.28
646.99	9.19
647.18	9.23
647.371	9.19
647.561	9.13
647.751	8.97
647.941	8.91
648.132	8.89
648.322	8.93
648.512	8.91
648.702	9
648.892	9.06
649.082	9.02
649.272	8.89
649.462	8.95
649.653	8.99
649.843	9.01
650.033	9.01
650.223	9.04
650.413	8.99
650.603	9.01
650.793	8.98
650.983	8.91
651.172	8.91
651.362	8.85
651.552	8.68
651.742	8.66
651.932	8.56
652.122	8.62
652.312	8.65
652.502	8.57
652.691	8.53
652.881	8.59
653.071	8.49
653.261	8.41
653.45	8.43
653.64	8.32
653.83	8.26
654.019	8.21
654.209	8.16
654.399	8.2
654.588	8.2
654.778	8.17
654.968	8.08
655.157	8.02
655.347	7.86
655.536	7.81
655.726	7.73
655.915	7.72
656.105	7.62
656.294	7.71
656.484	7.6
656.673	7.55
656.863	7.5
657.052	7.51
657.241	7.27
657.431	7.24
657.62	7.2
657.809	7.04
657.999	7.02
658.188	7.01
658.377	7
658.567	6.91
658.756	6.8
658.945	6.69
659.134	6.58
659.324	6.52
659.513	6.5
659.702	6.44
659.891	6.46
660.08	6.45
660.269	6.3
660.458	6.18
660.648	6.23
660.837	6.13
661.026	6.01
661.215	6.01
661.404	5.92
661.593	5.88
661.782	5.75
661.971	5.8
662.16	5.77
662.349	5.69
662.538	5.64
662.726	5.64
662.915	5.59
663.104	5.52
663.293	5.53
663.482	5.54
663.671	5.51
663.86	5.58
664.048	5.63
664.237	5.77
664.426	5.77
664.615	5.73
664.803	5.75
664.992	5.65
665.181	5.59
665.369	5.56
665.558	5.53
665.747	5.54
665.935	5.64
666.124	5.6
666.312	5.67
666.501	5.77
666.69	5.65
666.878	5.5
667.067	5.55
667.255	5.55
667.444	5.69
667.632	5.76
667.82	5.91
668.009	5.99
668.197	5.98
668.386	5.83
668.574	5.89
668.762	5.8
668.951	5.92
669.139	5.89
669.327	5.95
669.516	5.9
669.704	6.04
669.892	5.96
670.08	5.98
670.269	6.02
670.457	6.08
670.645	6.1
670.833	6.16
671.021	6.26
671.21	6.21
671.398	6.29
671.586	6.26
671.774	6.24
671.962	6.24
672.15	6.41
672.338	6.49
672.526	6.54
672.714	6.55
672.902	6.51
673.09	6.48
673.278	6.38
673.466	6.64
673.654	6.84
673.842	7.01
674.03	7.22
674.218	7.35
674.405	7.29
674.593	7.34
674.781	7.4
674.969	7.4
675.157	7.53
675.344	7.49
675.532	7.49
675.72	7.47
675.908	7.5
676.095	7.41
676.283	7.61
676.471	7.7
676.658	7.88
676.846	8.04
677.033	8.3
677.221	8.32
677.409	8.32
677.596	8.4
677.784	8.38
677.971	8.35
678.159	8.3
678.346	8.44
678.534	8.48
678.721	8.51
678.909	8.64
679.096	8.89
679.283	8.91
679.471	8.94
679.658	9.21
679.846	9.2
680.033	9.25
680.22	9.32
680.408	9.3
680.595	9.3
680.782	9.3
680.969	9.17
681.157	9.16
681.344	9.36
681.531	9.29
681.718	9.4
681.905	9.42
682.093	9.5
682.28	9.38
682.467	9.45
682.654	9.54
682.841	9.63
683.028	9.6
683.215	9.89
683.402	9.87
683.589	9.9
683.776	10.04
683.963	10.2
684.15	10.2
684.337	10.45
684.524	10.49
684.711	10.68
684.898	10.74
685.085	10.95
685.271	10.9
685.458	11.12
685.645	11.18
685.832	11.38
686.019	11.43
686.205	11.64
686.392	11.81
686.579	11.94
686.766	11.96
686.952	12.17
687.139	12.45
687.326	12.6
687.512	12.92
687.699	13.19
687.886	13.25
688.072	13.36
688.259	13.63
688.445	13.78
688.632	13.96
688.818	14.52
689.005	14.9
689.191	15.3
689.378	15.69
689.564	16.2
689.751	16.36
689.937	16.65
690.124	16.87
690.31	17.16
690.496	17.63
690.683	17.98
690.869	18.34
691.055	18.68
691.242	19.16
691.428	19.49
691.614	19.96
691.8	20.33
691.987	20.76
692.173	21.34
692.359	21.84
692.545	22.5
692.731	23.26
692.918	23.85
693.104	24.25
693.29	24.74
693.476	25.25
693.662	25.83
693.848	26.43
694.034	27.03
694.22	27.79
694.406	28.41
694.592	29.02
694.778	29.53
694.964	30.09
695.15	30.56
695.336	31.06
695.522	31.7
695.708	32.54
695.894	33.37
696.08	34.3
696.265	34.87
696.451	35.44
696.637	36.06
696.823	36.52
697.009	37.01
697.194	37.7
697.38	38.29
697.566	38.96
697.751	39.71
697.937	40.35
698.123	41.11
698.308	41.86
698.494	42.57
698.68	43.13
698.865	43.9
699.051	44.74
699.236	45.6
699.422	46.41
699.607	47.27
699.793	47.83
699.978	48.41
700.164	48.73
700.349	49.44
700.535	50.12
700.72	50.6
700.906	51.31
701.091	51.89
701.276	52.41
701.462	52.73
701.647	53.61
701.832	54.1
702.018	55.17
702.203	55.6
702.388	56.52
702.573	56.91
702.759	57.59
702.944	57.61
703.129	58.23
703.314	58.61
703.499	59.31
703.684	59.6
703.87	60.28
704.055	60.85
704.24	61.28
704.425	61.79
704.61	62.11
704.795	62.2
704.98	62.48
705.165	62.74
705.35	63.05
705.535	63.48
705.72	64.54
705.905	65.3
706.09	65.88
706.275	66.53
706.459	67.14
706.644	67.17
706.829	67.65
707.014	68.64
707.199	68.93
707.384	69.26
707.568	69.7
707.753	69.93
707.938	70.4
708.123	71.28
708.307	71.93
708.492	72.7
708.677	73.28
708.861	73.19
709.046	73
709.231	73.6
709.415	73.79
709.6	73.84
709.784	74.39
709.969	74.72
710.153	74.8
710.338	75.29
710.522	76.15
710.707	76.8
710.891	77.2
711.076	77.73
711.26	78.01
711.445	77.47
711.629	77.12
711.813	77.1
711.998	77.53
712.182	77.5
712.366	77.84
712.551	78.64
712.735	79.23
712.919	78.77
713.103	79.06
713.288	80.02
713.472	80.42
713.656	80.57
713.84	81.13
714.024	81.83
714.208	81.82
714.393	81.61
714.577	81.89
714.761	82.53
714.945	82.82
715.129	82.75
715.313	83.63
715.497	84.28
715.681	84.29
715.865	84.31
716.049	84.73
716.233	84.63
716.417	84.53
716.601	84.81
716.785	85.07
716.968	85.06
717.152	85.38
717.336	85.4
717.52	85.63
717.704	86
717.888	85.89
718.071	85.29
718.255	85.22
718.439	85.13
718.622	85.24
718.806	85.85
718.99	87.04
719.174	87.82
719.357	88.17
719.541	88.36
719.724	89.04
719.908	88.99
720.092	89.21
720.275	89.71
720.459	89.48
720.642	89.55
720.826	88.68
721.009	89.15
721.193	88.77
721.376	88.78
721.559	88.68
721.743	89.14
721.926	88.98
722.11	89.11
722.293	89.57
722.476	90.12
722.66	90.4
722.843	90.28
723.026	90.55
723.21	91.22
723.393	90.85
723.576	91.54
723.759	91.93
723.942	91.97
724.126	91.56
724.309	92.36
724.492	92.01
724.675	92.2
724.858	93.01
725.041	92.95
725.224	92.82
725.407	92.55
725.59	93.03
725.774	92.75
725.957	92.92
726.14	92.56
726.322	93.02
726.505	92.79
726.688	93.11
726.871	93.8
727.054	94.47
727.237	94.68
727.42	94.66
727.603	94.6
727.786	94.14
727.968	93.91
728.151	93.71
728.334	94.19
728.517	94.23
728.699	94.65
728.882	95.13
729.065	95.44
729.248	95.38
729.43	94.89
729.613	95.31
729.796	94.96
729.978	95.76
730.161	95.41
730.343	96.38
730.526	96.67
730.708	97.08
730.891	96.79
731.073	97.14
731.256	96.89
731.438	97.37
731.621	97.51
731.803	98.03
731.986	98.53
732.168	98.52
732.35	97.41
732.533	97.57
732.715	97.08
732.898	96.48
733.08	97.15
733.262	98.14
733.444	98.12
733.627	98.54
733.809	98.97
733.991	99.01
734.173	98.35
734.355	97.98
734.538	98.11
734.72	98.28
734.902	98.64
735.084	98.11
735.266	99.19
735.448	98.52
735.63	98.69
735.812	98.34
735.994	99.76
736.176	99.15
736.358	98.98
736.54	98.45
736.722	98.05
736.904	97.91
737.086	98.16
737.268	99.28
737.45	100.92
737.632	100.86
737.814	100.7
737.995	101.06
738.177	100.99
738.359	99.82
738.541	100.66
738.723	100.77
738.904	99.88
739.086	99.05
739.268	99.33
739.449	98.41
739.631	98.32
739.813	99.15
739.994	100.4
740.176	100.67
740.358	102.65
740.539	103.18
740.721	102.06
740.902	102.19
741.084	102.31
741.265	100.81
741.447	100.55
741.628	103.53
741.81	102.13
741.991	101.52
742.172	102.91
742.354	102.47
742.535	100.17
742.717	100.32
742.898	100.33
743.079	99.48
743.261	100.91
743.442	101.13
743.623	102.86
743.804	103.52
743.986	104.65
744.167	102.76
744.348	102.48
744.529	102.57
744.71	102.71
744.891	101.47
745.073	102.83
745.254	103.74
745.435	102.01
745.616	100.99
745.797	101.18
745.978	100.1
746.159	99.78
746.34	99.89
746.521	100.96
746.702	100.8
746.883	99.64
747.064	98.76
747.245	99.11
747.426	98.56
747.606	97.81
747.787	99.73
747.968	100.78
748.149	101.18
748.33	100.63
748.51	101.84
748.691	100.86
748.872	99.88
749.053	99.44
749.233	99.25
749.414	98.09
749.595	100.02
749.775	100.47
749.956	100.03
750.137	101.03
750.317	101.91
750.498	99.33
750.678	99.55
750.859	98.52
751.04	98.15
751.22	97.87
751.4	99.03
751.581	99.76
751.761	101.37
751.942	102.08
752.122	102.82
752.303	100.85
752.483	101.59
752.663	100.6
752.844	100.49
753.024	100.55
753.204	102.97
753.385	100.15
753.565	102.06
753.745	102.56
753.925	101.89
754.106	101.35
754.286	102.47
754.466	101.48
754.646	101.67
754.826	101.71
755.006	101.09
755.187	100.63
755.367	100.85
755.547	99.44
755.727	98.46
755.907	97.31
756.087	97.93
756.267	96.86
756.447	98.08
756.627	98.64
756.807	100.18
756.987	100.52
757.167	100.98
757.346	100.02
757.526	99.72
757.706	100.18
757.886	99.25
758.066	101.56
758.246	101.78
758.425	100.77
758.605	99.44
758.785	100.37
758.965	98.07
759.144	97.69
759.324	98.04
759.504	99.38
759.683	97.76
759.863	97.93
760.043	97.98
760.222	98.36
760.402	97.15
760.581	99.16
760.761	99.16
760.94	97.89
761.12	100.33
761.299	99.92
761.479	99.12
761.658	96.94
761.838	97.71
762.017	95.82
762.197	96.38
762.376	96.04
762.555	98.4
762.735	98.55
762.914	99.17
763.093	100.07
763.273	99.52
763.452	99.03
763.631	99.47
763.81	99.12
763.99	98.15
764.169	97.47
764.348	97.42
764.527	95.81
764.706	95.12
764.885	94.73
765.064	95.32
765.243	94.83
765.423	95.06
765.602	94.21
765.781	96
765.96	94.66
766.139	95.24
766.318	94.74
766.497	96.01
766.676	93.74
766.854	96.06
767.033	95.46
767.212	96.35
767.391	95.08
767.57	96.37
767.749	95.84
767.928	97.48
768.106	96.42
768.285	94.7
768.464	93.84
768.643	93.14
768.821	91.61
769	92.65
769.179	95.57
769.357	95.66
769.536	95.44
769.715	96.46
769.893	97.11
770.072	94.92
770.25	93.98
770.429	94.76
770.607	94.53
770.786	93.44
770.964	95.5
771.143	97.56
771.321	96.93
771.5	96.19
771.678	96.09
771.857	97.69
772.035	97.41
772.213	96.48
772.392	94.46
772.57	96.39
772.748	91.89
772.927	90.77
773.105	92.77
773.283	94.48
773.461	92.17
773.64	91.56
773.818	91.16
773.996	90.04
774.174	89.97
774.352	91.48
774.531	94.23
774.709	94.38
774.887	95.78
775.065	95.16
775.243	93.9
775.421	92.06
775.599	92.28
775.777	88.69
775.955	89.3
776.133	88.46
776.311	90.17
776.489	90.35
776.667	91.9
776.844	92.54
777.022	92.63
777.2	91.88
777.378	90.48
777.556	90.5
777.734	89.88
777.911	91.78
778.089	92.06
778.267	93.3
778.445	91.89
778.622	90.97
778.8	88.71
778.978	88.85
779.155	86.71
779.333	85.43
779.511	82.75
779.688	83.67
779.866	82.09
780.043	82.12
780.221	82.36
780.398	83.93
780.576	84.6
780.753	84.05
780.931	85.62
781.108	89.04
781.286	92.26
781.463	90.38
781.64	91.86
781.818	93.3
781.995	92.26
782.172	92.85
782.35	95.38
782.527	95.42
782.704	93.68
782.882	94.58
783.059	91.12
783.236	87.2
783.413	86.44
783.59	87.38
783.768	82.93
783.945	81.22
784.122	85.5
784.299	85.04
784.476	85.8
784.653	89.18
784.83	92.65
785.007	88.64
785.184	89.63
785.361	89.26
785.538	90.14
785.715	91.81
785.892	94.37
786.069	95.11
786.246	96
786.423	96.72
786.6	96.07
786.776	97.73
786.953	94.77
787.13	95.71
787.307	93.38
787.484	90.42
787.66	88.34
787.837	93.92
788.014	93.77
788.191	94.98
788.367	99.87
788.544	99.95
788.721	98.89
788.897	95.59
789.074	94.35
789.25	89.76
789.427	89.04
789.603	83.98
789.78	82.23
789.956	80.68
790.133	81.19
790.309	79.75
790.486	81.63
790.662	82.19
790.839	79.79
791.015	77.33
791.192	79.06
791.368	80.02
791.544	79.26
791.721	84.46
791.897	86.08
792.073	85.4
792.249	82.9
792.426	87.18
792.602	90.04
792.778	91.29
792.954	90.98
793.13	93.1
793.307	91.19
793.483	86.73
793.659	85.2
793.835	84.3
794.011	83.67
794.187	80.32
794.363	78.12
794.539	80.03
794.715	77.72
794.891	78.3
795.067	80.44
795.243	86.81
795.419	84.35
795.595	86.78
795.771	86.08
795.947	82.93
796.122	80.25
796.298	80.38
796.474	79.28
796.65	78.58
796.826	81.83
797.001	82.83
797.177	86.45
797.353	85.22
797.529	91.51
797.704	93.05
797.88	91.32
798.056	89.75
798.231	92.22
798.407	90.45
798.582	90.6
798.758	98.88
798.934	99.87
799.109	100.5
799.285	99.83
799.46	94.57
799.636	88.35
799.811	86.4
799.986	85.68
800.162	91.98
800.337	95.49
800.513	96.09
800.688	96.69
800.863	100.04
801.039	93.83
801.214	96.54
801.389	92.84
801.565	87.28
801.74	87.96
801.915	82.14
802.09	80.97
802.265	80.92
802.441	85.7
802.616	84.84
802.791	89.04
802.966	96.79
803.141	99.85
803.316	98.53
803.491	96.02
803.666	95.44
803.841	87.26
804.016	84.03
804.191	84.75
804.366	90.96
804.541	88.12
804.716	88.03
804.891	84.23
805.066	91.35
805.241	83.61
805.416	86.93
805.591	89.12
805.765	91.8
805.94	80.59
806.115	81.34
806.29	80.71
806.464	77.32
806.639	74.83
806.814	75.65
806.989	68.99
807.163	66.46
807.338	70.73
807.512	70.9
807.687	81.36
807.862	82.09
808.036	89.33
808.211	81.16
808.385	82.31
808.56	76.56
808.734	81.62
808.909	84.85
809.083	81.95
809.258	80.17
809.432	78.93
809.606	76.15
809.781	69.82
809.955	72.73
810.13	83.9
810.304	77.99
810.478	77.12
810.652	81.49
810.827	86.48
811.001	83.95
811.175	89.06
811.349	90.03
811.524	76.97
811.698	74.32
811.872	79.81
812.046	79.02
812.22	86.76
812.394	88.6
812.568	90.03
812.742	73.17
812.916	86.91
813.09	92.44
813.264	102.44
813.438	101.57
813.612	103.81
813.786	86.36
813.96	83.01
814.134	82.24
814.308	83.71
814.482	85.14
814.656	105.98
814.83	101.2
815.003	102.09
815.177	89.55
815.351	87.89
815.525	70.85
815.698	74.92
815.872	60.8
816.046	65.76
816.219	61.25
816.393	71.85
816.567	74.6
816.74	87.1
816.914	79.45
817.088	98.4
817.261	91.43
817.435	87.89
817.608	89.45
817.782	89.85
817.955	73.81
818.129	73.17
818.302	63.27
818.475	64.75
818.649	71.13
818.822	70.4
818.996	75.75
819.169	78.58
819.342	77.12
819.516	75.72
819.689	87.41
819.862	81.95
820.035	79.71
820.209	79.21
820.382	71.25
820.555	52.61
820.728	57.15
820.901	67.7
821.075	64.99
821.248	71.05
821.421	78.82
821.594	79.35
821.767	83.53
821.94	77.48
822.113	80.27
822.286	74.76
822.459	79.29
822.632	73.27
822.805	78.28
822.978	85.94
823.151	94.23
823.324	83.51
823.496	75
823.669	80.45
823.842	64.09
824.015	67.16
824.188	67.51
824.361	63.41
824.533	60.97
824.706	70.15
824.879	61.01
825.051	65.36
825.224	75.17
825.397	64.51
825.569	63.47
825.742	54.59
825.915	48.5
826.087	54.25
826.26	58.4
826.432	63.36
826.605	77.26
826.777	68.27
826.95	66.61
827.122	70.62
827.295	70.75
827.467	76.96
827.64	76.59
827.812	66.8
827.984	75.47
828.157	67.67
828.329	65.16
828.501	79.55
828.674	92.87
828.846	88.96
829.018	106.09
829.19	105.79
829.363	111.31
829.535	104.54
829.707	109.19
829.879	91.75
830.051	80.07
830.223	84.56
830.395	81.72
830.568	80.36
830.74	81.46
830.912	90.61
831.084	96.19
831.256	85.97
831.428	91.05
831.6	95.44
831.772	79.93
831.943	57.73
832.115	48.94
832.287	55.26
832.459	57.27
832.631	59.86
832.803	60.68
832.975	76.2
833.146	79.13
833.318	62.57
833.49	80.57
833.662	59.37
833.833	51.98
834.005	23.78
834.177	42.92
834.348	38.26
834.52	53.96
834.692	42.65
834.863	52.78
835.035	53.9
835.206	44.4
835.378	50.18
835.549	69.42
835.721	68.99
835.892	59.01
836.064	70.03
836.235	77.77
836.407	73.8
836.578	85.22
836.749	110.98
836.921	100.1
837.092	93.75
837.264	98.18
837.435	119.4
837.606	104.95
837.777	93.31
837.949	89.51
838.12	80.55
838.291	69.17
838.462	73.04
838.633	71.23
838.805	62.79
838.976	84.75
839.147	73.88
839.318	63.11
839.489	85.84
839.66	69.41
839.831	50.82
840.002	63.23
840.173	76.95
840.344	57.9
840.515	55.79
840.686	52.53
840.857	51.49
841.028	38.64
841.199	42.52
841.369	58.63
841.54	76.89
841.711	58.07
841.882	66.09
842.053	60.77
842.223	47.36
842.394	39.44
842.565	50.43
842.736	73.99
842.906	114.2
843.077	117.23
843.248	133.73
843.418	142.21
843.589	116.61
843.759	84.13
843.93	77.98
844.101	45.96
844.271	58.78
844.442	53.96
844.612	55.1
844.783	56.74
844.953	77.01
845.123	65.1
845.294	75.32
845.464	72.77
845.635	62.53
845.805	64.66
845.975	76.39
846.146	48.64
846.316	52.58
846.486	67.71
846.656	62.05
846.827	72.79
846.997	67.09
847.167	85.01
847.337	56.08
847.507	57.12
847.677	54.19
847.848	82.09
848.018	71.55
848.188	98.02
848.358	90.23
848.528	35.45
848.698	30.5
848.868	20.37
849.038	11.97
849.208	23.34
849.378	72.08
849.548	86.83
849.718	113.45
849.887	120.01
850.057	116.54
850.227	148.46
850.397	90.3
850.567	69.32
850.737	47.38
850.906	29.75
851.076	21.89
851.246	31.97
851.415	26.63
851.585	16.44
851.755	32.42
851.924	53.35
852.094	45.05
852.264	50.25
852.433	50.49
852.603	46.15
852.772	39.48
852.942	47.39
853.111	54.62
853.281	45.32
853.45	38.42
853.62	36.8
853.789	44.18
853.959	37.08
854.128	55.77
854.297	70.05
854.467	75.38
854.636	80.98
854.805	113.27
854.975	123.92
855.144	165
855.313	122.68
855.482	172.12
855.652	123.32
855.821	116.27
855.99	102.65
856.159	146.77
856.328	96.99
856.497	126.74
856.667	101.72
856.836	141.63
857.005	49.27
857.174	-40.4
857.343	-188.92
857.512	-374.29
857.681	-66.74
857.85	-47.27
858.019	14.14
858.188	20
858.356	25.04
858.525	-8.77
858.694	18.57
858.863	22.82
859.032	68.12
859.201	56.31
859.369	92.76
859.538	95.4
859.707	29.4
859.876	21.23
860.044	22.77
860.213	26.24
860.382	44.34
860.55	76.86
860.719	102.2
860.888	79.16
861.056	62
861.225	37.38
861.393	28.12
861.562	28.49
861.73	30.73
861.899	52.98
862.067	64.94
862.236	86.78
862.404	71.51
862.572	77.47
862.741	56.15
862.909	42.04
863.078	1.83
863.246	31.01
863.414	47.67
863.582	65.65
863.751	64.74
863.919	74.92
864.087	77.32
864.255	65.41
864.424	24.03
864.592	29.97
864.76	49.51
864.928	77.25
865.096	67.23
865.264	58.16
865.432	92.57
865.6	76.98
865.768	58.06
865.936	49.43
866.104	73.48
866.272	61.05
866.44	37.89
866.608	16.3
866.776	24.17
866.944	-19.19
867.112	-0.36
867.28	-88.41
867.448	-11.02
867.615	218.29
867.783	174.04
867.951	116.51
868.119	110.1
868.286	88.89
868.454	57.68
868.622	68.81
868.789	110.29
868.957	109.25
869.125	65.91
869.292	40.21
869.46	20.79
869.627	29.36
869.795	21.06
869.963	55.81
870.13	58.1
870.298	48.55
870.465	48.66
870.632	38.74
870.8	20.97
870.967	-5.8
871.135	-18.17
871.302	15.11
871.469	-117.99
871.637	191.54
871.804	183.61
871.971	135.33
872.139	97.24
872.306	90.96
872.473	67.1
872.64	61.53
872.807	88.03
872.975	168.4
873.142	179.8
873.309	6179.71
873.476	1238.37
873.643	291.71
873.81	139.09
873.977	118.8
874.144	92.96
874.311	65.65
874.478	52.01
874.645	21.7
874.812	18.27
874.979	-11.21
875.146	-48.69
875.313	-73.36
875.48	-183.24
875.647	55.46
875.813	119.11
875.98	-16.16
876.147	138
876.314	125.75
876.481	10.57
876.647	59.11
876.814	88.45
876.981	132.05
877.147	55.51
877.314	70.27
877.481	86.83
877.647	57.83
877.814	45.31
877.98	26.88
878.147	5.53
878.314	-35.44
878.48	-4.05
878.647	22.75
878.813	375.19
878.979	116.63
879.146	134.71
879.312	138.94
879.479	71.03
879.645	83.79
879.811	67.74
879.978	42.68
880.144	34.83
880.31	43.18
880.477	1.63
880.643	17.05
880.809	-21.19
880.975	-2678.79
881.142	685.55
881.308	858.67
881.474	-17.56
881.64	-22.56
881.806	21.01
881.972	89.18
882.138	86.08
882.304	89.92
882.47	144.03
882.636	106.35
882.802	117.94
882.968	168.37
883.134	75.93
883.3	65.21
883.466	123.97
883.632	131.59
883.798	104.58
883.964	127.28
884.129	213.99
884.295	148.83
884.461	78.15
884.627	63.69
884.793	74.41
884.958	43.93
885.124	29.35
885.29	23.49
885.455	-35.16
885.621	-77.27
885.787	-139.81
885.952	273.61
886.118	359.17
886.283	-1298.25
886.449	-6.11
886.614	24.51
886.78	61.8
886.945	80.7
887.111	24.4
887.276	36.47
887.442	82.55
887.607	49.32
887.773	42.3
887.938	67.22
888.103	63.96
888.269	-5.53
888.434	-19.96
888.599	-22.62
888.764	-30.25
888.93	-105.37
889.095	-16.82
889.26	41.49
889.425	145.81
889.59	-912.08
889.756	513.99
889.921	48.85
890.086	50.36
890.251	46.77
890.416	30.61
890.581	57.98
890.746	143.42
890.911	192.77
891.076	140.66
891.241	146.02
891.406	145.75
891.571	114.4
891.736	50.22
891.901	74.84
892.065	139.15
892.23	215.2
892.395	111.51
892.56	198.62
892.725	153.6
892.889	77.76
893.054	27.91
893.219	-3.54
893.384	-1.57
893.548	-121.17
893.713	493.83
893.878	142.8
