Data from Ofav_PS_Phys_CX_Reflection_1.txt Node
Date: Thu Jul 29 18:20:44 EDT 2021
User: USUARIO
Spectrometer: FLMT01687
Trigger mode: 0
Integration Time (sec): 9.010000E-1
Scans to average: 2
Electric dark correction enabled: true
Nonlinearity correction enabled: false
Boxcar width: 2
XAxis mode: Wavelengths
Number of Pixels in Spectrum: 3648
>>>>>Begin Spectral Data<<<<<
179.494	287.94
179.716	303.15
179.937	180.99
180.158	-711.3
180.38	-75.33
180.601	-730.45
180.823	-168.32
181.044	-146.37
181.265	-101.16
181.486	-243.5
181.708	160.18
181.929	257.88
182.15	11147.62
182.372	-127.14
182.593	-40.77
182.814	-50.27
183.035	-585.91
183.257	103.84
183.478	65.42
183.699	68.08
183.92	54.05
184.141	56.15
184.363	69
184.584	71.56
184.805	39.43
185.026	39.29
185.247	38.48
185.468	23.64
185.689	0.76
185.91	72.72
186.132	93.32
186.353	69.96
186.574	81.54
186.795	83.96
187.016	74.27
187.237	58.58
187.458	60.75
187.679	66.37
187.9	65.28
188.121	64.89
188.342	70.14
188.563	61.51
188.784	45.34
189.005	41.33
189.226	47.79
189.447	46.46
189.667	47.62
189.888	65.04
190.109	85.26
190.33	131.98
190.551	120.16
190.772	110.43
190.993	57.02
191.214	55.36
191.434	33.74
191.655	31.14
191.876	15.02
192.097	38.17
192.318	30.72
192.538	54.29
192.759	57.58
192.98	67.62
193.201	66.21
193.421	55.79
193.642	55.8
193.863	24.69
194.083	7.08
194.304	13.55
194.525	36.41
194.745	26.93
194.966	34.24
195.187	28.62
195.407	11.6
195.628	-22.17
195.848	-6.67
196.069	42.42
196.29	59.77
196.51	60.49
196.731	67.57
196.951	54.95
197.172	52.26
197.392	53.32
197.613	64.91
197.833	40.17
198.054	71.11
198.274	58.94
198.495	35.01
198.715	21.81
198.936	53.52
199.156	70.51
199.377	86.49
199.597	139.55
199.817	119.75
200.038	101.48
200.258	81.64
200.479	68.02
200.699	37.73
200.919	41.7
201.14	33.98
201.36	40.44
201.58	49.14
201.801	52.7
202.021	70.05
202.241	78.62
202.461	94.06
202.682	108.99
202.902	110.93
203.122	96.23
203.342	129.61
203.563	111.44
203.783	76.69
204.003	61.56
204.223	44.05
204.443	42.42
204.663	79
204.884	93.13
205.104	89.17
205.324	70.78
205.544	67.76
205.764	38.62
205.984	59.92
206.204	82.57
206.424	95.95
206.644	93.84
206.864	98.24
207.084	60.6
207.304	55.02
207.525	43.94
207.745	53.7
207.964	72.38
208.184	67.72
208.404	52.34
208.624	67.53
208.844	77.7
209.064	72.08
209.284	108.18
209.504	85.1
209.724	89.19
209.944	77.54
210.164	62.15
210.384	35.02
210.604	33.6
210.823	6.06
211.043	1.14
211.263	31.47
211.483	18.75
211.703	20.53
211.922	36.92
212.142	44.16
212.362	23.04
212.582	48.77
212.801	61.54
213.021	48.89
213.241	48.65
213.461	46.92
213.68	1.06
213.9	7.06
214.12	26.17
214.339	19.81
214.559	0.03
214.779	46.24
214.998	22.4
215.218	9.27
215.438	18.73
215.657	42.61
215.877	32.09
216.096	34.43
216.316	29.87
216.535	15.61
216.755	-4.51
216.974	1.85
217.194	1.33
217.413	19.66
217.633	38.91
217.852	39.35
218.072	33.11
218.291	52.65
218.511	71.19
218.73	58.86
218.95	60.36
219.169	67.98
219.389	59.44
219.608	32.68
219.827	27.32
220.047	23.2
220.266	10.58
220.485	12.26
220.705	17.19
220.924	9.73
221.143	9
221.363	5.21
221.582	1.62
221.801	-4.64
222.021	40.72
222.24	35.88
222.459	52.41
222.678	46.84
222.897	45.19
223.117	32.76
223.336	27.21
223.555	34.21
223.774	52.11
223.993	62.71
224.213	69.43
224.432	74.54
224.651	74.56
224.87	48.34
225.089	49.73
225.308	60.83
225.527	67.73
225.746	55.45
225.965	76.46
226.184	77.49
226.404	43.75
226.623	78.69
226.842	60.24
227.061	70.87
227.28	74.56
227.499	112.22
227.718	104.39
227.936	96.86
228.155	97.49
228.374	69.69
228.593	49.93
228.812	21.29
229.031	31.81
229.25	20.47
229.469	33.06
229.688	32.45
229.907	61.05
230.125	58
230.344	61.23
230.563	78.43
230.782	90.57
231.001	48.36
231.22	70.82
231.438	65.77
231.657	45.36
231.876	39.12
232.095	52.86
232.313	28.44
232.532	22.59
232.751	16.18
232.969	30.85
233.188	28.03
233.407	27.42
233.625	46.57
233.844	49.48
234.063	36.34
234.281	16.61
234.5	21.19
234.719	30.84
234.937	12.06
235.156	13.56
235.374	49.58
235.593	55.58
235.811	46.61
236.03	53.89
236.249	50.69
236.467	49.96
236.686	54.72
236.904	51.55
237.123	45.46
237.341	31.58
237.559	26.14
237.778	26.28
237.996	38.56
238.215	46.19
238.433	50.49
238.652	58.41
238.87	44.32
239.088	36.69
239.307	29.12
239.525	31.59
239.743	15.16
239.962	20.9
240.18	20.77
240.398	36.51
240.617	36.04
240.835	50.91
241.053	69.36
241.271	74.24
241.49	58.54
241.708	56.27
241.926	44.01
242.144	16.35
242.363	20.09
242.581	7.21
242.799	6.76
243.017	8.27
243.235	29.11
243.453	34.6
243.672	25.91
243.89	16.56
244.108	39.64
244.326	36.05
244.544	25.45
244.762	42.19
244.98	37.51
245.198	43.14
245.416	27.11
245.634	22.93
245.852	30.69
246.07	50.05
246.288	46.77
246.506	58.61
246.724	66.89
246.942	59.21
247.16	65.11
247.378	43.05
247.596	28.28
247.814	18.29
248.032	19.06
248.25	10.42
248.468	27.7
248.685	34.95
248.903	50.04
249.121	41.67
249.339	30.14
249.557	16.06
249.775	18.99
249.992	-24.4
250.21	2.9
250.428	24.68
250.646	11.45
250.863	25.28
251.081	49.37
251.299	55.77
251.517	51.8
251.734	77.87
251.952	62.85
252.17	58.65
252.387	61.05
252.605	65.44
252.823	45.79
253.04	47.09
253.258	57.41
253.475	47.46
253.693	43.89
253.911	45.04
254.128	58.36
254.346	47.71
254.563	48.82
254.781	27.96
254.998	42.71
255.216	9.22
255.433	21.89
255.651	3.1
255.868	4.02
256.086	13.92
256.303	28.1
256.521	26.15
256.738	25.6
256.956	33.75
257.173	25.02
257.39	45.89
257.608	47.2
257.825	69.02
258.043	57.33
258.26	56.12
258.477	27.57
258.695	6.8
258.912	-16.75
259.129	-8.67
259.346	-7
259.564	-8.94
259.781	4.73
259.998	26.37
260.216	32.74
260.433	34.62
260.65	31.8
260.867	41.73
261.084	43.04
261.302	37.82
261.519	34.01
261.736	23.9
261.953	17.43
262.17	25.2
262.387	22.81
262.604	23.79
262.822	40.52
263.039	41.53
263.256	46.1
263.473	66.01
263.69	58.78
263.907	55.2
264.124	66.65
264.341	68.14
264.558	50.27
264.775	45.73
264.992	61.97
265.209	41.8
265.426	38.84
265.643	50.71
265.86	42.71
266.077	41.62
266.294	47.62
266.51	35.47
266.727	32.54
266.944	47.41
267.161	45.89
267.378	45.17
267.595	57.73
267.812	58.28
268.028	38.75
268.245	34.08
268.462	29.69
268.679	12.96
268.896	11.5
269.112	18.27
269.329	19.67
269.546	28.63
269.763	33.81
269.979	30.46
270.196	43.22
270.413	40.77
270.629	44.94
270.846	44.44
271.063	42.52
271.279	46.57
271.496	37.87
271.712	33.48
271.929	40.95
272.146	65.65
272.362	46.51
272.579	48.35
272.795	64.98
273.012	55.25
273.228	36.14
273.445	65.29
273.661	68.98
273.878	50.89
274.094	68.88
274.311	84.45
274.527	50.41
274.744	56.13
274.96	63.94
275.177	42.86
275.393	39.53
275.609	29.4
275.826	8.68
276.042	3.25
276.259	-1.06
276.475	-4.63
276.691	36.97
276.908	56.07
277.124	51.24
277.34	54.84
277.557	44.99
277.773	10.55
277.989	-0.38
278.205	5.78
278.422	9.86
278.638	16.85
278.854	38.15
279.07	55.74
279.286	49.46
279.503	61
279.719	64
279.935	70.91
280.151	53.3
280.367	65.43
280.583	52.72
280.799	36.55
281.016	27.08
281.232	39.7
281.448	30.06
281.664	43.98
281.88	43.24
282.096	51.71
282.312	38.23
282.528	35.04
282.744	24.46
282.96	28.66
283.176	5.38
283.392	24.42
283.608	18.42
283.824	12.18
284.04	20.95
284.256	45.75
284.471	43.74
284.687	48.98
284.903	57.39
285.119	41.46
285.335	13.39
285.551	16.39
285.767	32.56
285.982	27.29
286.198	33.23
286.414	39.97
286.63	49.19
286.846	41.03
287.061	50.11
287.277	44.99
287.493	50.19
287.709	38.66
287.924	55.63
288.14	58.67
288.356	57.81
288.571	49.13
288.787	51.86
289.003	42.47
289.218	41.35
289.434	45.1
289.65	53.84
289.865	48.92
290.081	52.68
290.296	51.37
290.512	49.7
290.727	50.79
290.943	54.87
291.159	50.34
291.374	52.88
291.59	51.04
291.805	39.15
292.021	39.48
292.236	33.91
292.451	25.09
292.667	33.89
292.882	40.32
293.098	50.7
293.313	51.97
293.529	47.48
293.744	27.32
293.959	41.95
294.175	34.33
294.39	30.69
294.605	28.62
294.821	40.4
295.036	28.12
295.251	25.06
295.467	25.48
295.682	21.31
295.897	15.08
296.112	21.52
296.328	24.08
296.543	18.38
296.758	25.57
296.973	37.41
297.188	27.38
297.404	8.09
297.619	24.1
297.834	28.84
298.049	13.12
298.264	35.6
298.479	52.77
298.694	48.99
298.909	41.09
299.125	51.05
299.34	61.46
299.555	58.55
299.77	80.62
299.985	54.1
300.2	53.07
300.415	23.52
300.63	44.03
300.845	47.35
301.06	48.93
301.275	60.52
301.49	67.49
301.704	36.81
301.919	29.36
302.134	45.04
302.349	22.12
302.564	22.59
302.779	29.99
302.994	21.8
303.209	17.64
303.423	39.89
303.638	31.5
303.853	22.59
304.068	24.01
304.283	18.64
304.497	16.05
304.712	-1.39
304.927	-0.94
305.142	-7.89
305.356	-6.58
305.571	6.3
305.786	23.1
306	20.81
306.215	39.02
306.43	50.37
306.644	50.44
306.859	67.86
307.074	67.65
307.288	38.16
307.503	15.88
307.717	13.84
307.932	13.71
308.147	5.25
308.361	-4.01
308.576	-9.46
308.79	-7.71
309.005	23.19
309.219	19.92
309.434	36.36
309.648	44.55
309.863	41.28
310.077	24.26
310.292	32.52
310.506	26.76
310.72	26.16
310.935	4.11
311.149	18.87
311.364	11.94
311.578	-3.07
311.792	-7.87
312.007	8.55
312.221	-7.62
312.435	-14.34
312.649	-1.86
312.864	-25.96
313.078	-2.6
313.292	0.03
313.507	40.25
313.721	36.72
313.935	28.75
314.149	36.53
314.363	39.94
314.578	24.41
314.792	21.12
315.006	23.78
315.22	28.68
315.434	26.65
315.648	39.33
315.862	43.66
316.077	44.08
316.291	47.52
316.505	52.62
316.719	56.84
316.933	59.62
317.147	69.32
317.361	52.16
317.575	41.47
317.789	10.18
318.003	17.01
318.217	16.97
318.431	16.86
318.645	33.36
318.859	52.99
319.073	43.14
319.287	33
319.5	28.53
319.714	32.18
319.928	30.41
320.142	54.91
320.356	58.66
320.57	60.6
320.784	49.17
320.997	36.37
321.211	25.76
321.425	25.65
321.639	19.05
321.853	23.51
322.066	22.36
322.28	19.84
322.494	26.48
322.707	41.34
322.921	23.32
323.135	26.75
323.349	15.15
323.562	0.86
323.776	-8.75
323.989	5.3
324.203	18.81
324.417	30.01
324.63	25.21
324.844	27.44
325.057	20.11
325.271	7.95
325.485	14.74
325.698	23.21
325.912	19.71
326.125	16.53
326.339	20.75
326.552	20.88
326.766	20.88
326.979	27.92
327.193	42.28
327.406	40.98
327.619	30.92
327.833	37.37
328.046	41.6
328.26	45.25
328.473	40.72
328.686	58.41
328.9	57.92
329.113	11.78
329.326	-11.37
329.54	-23.3
329.753	-30
329.966	-21.55
330.179	-4.25
330.393	2.38
330.606	6.82
330.819	11.04
331.032	15.58
331.246	15.88
331.459	-3.06
331.672	7.86
331.885	16.55
332.098	5.65
332.311	28.28
332.525	44.23
332.738	34.99
332.951	18.58
333.164	15.66
333.377	17.23
333.59	13.28
333.803	26.26
334.016	33.53
334.229	38.03
334.442	28.14
334.655	28.89
334.868	27.57
335.081	35.38
335.294	37.44
335.507	38.94
335.72	50.48
335.933	40.69
336.146	40.59
336.359	55.59
336.572	32.08
336.785	3.8
336.997	16.39
337.21	14.21
337.423	10.56
337.636	41.82
337.849	55.31
338.062	51.95
338.274	50.24
338.487	44.83
338.7	18.67
338.913	13.19
339.125	25.81
339.338	33.65
339.551	24.6
339.763	19.12
339.976	17.49
340.189	28.18
340.402	20.23
340.614	27.99
340.827	48.99
341.039	49.37
341.252	31.62
341.465	44.72
341.677	42.03
341.89	32.16
342.102	35.62
342.315	31.8
342.527	17.49
342.74	13.6
342.952	19.2
343.165	18.74
343.377	15.43
343.59	20.44
343.802	23.31
344.015	28.94
344.227	20.36
344.44	19.6
344.652	25.91
344.864	22.08
345.077	34.41
345.289	27.1
345.502	33.14
345.714	21.53
345.926	21.71
346.139	-0.42
346.351	14.58
346.563	5.77
346.775	17.73
346.988	19.95
347.2	21.7
347.412	25.47
347.624	37.73
347.837	12.4
348.049	17.72
348.261	25.65
348.473	25.79
348.685	31.71
348.897	61.39
349.11	53.26
349.322	47.42
349.534	51.79
349.746	48.02
349.958	33.41
350.17	33.85
350.382	36.74
350.594	25.03
350.806	40.88
351.018	42.94
351.23	42.62
351.442	24.18
351.654	23.03
351.866	5.99
352.078	22.89
352.29	16.32
352.502	43.8
352.714	50.95
352.926	52.67
353.138	50.84
353.35	48.67
353.561	24.52
353.773	26.65
353.985	22.21
354.197	23.63
354.409	32.17
354.621	19.96
354.832	15.13
355.044	12.67
355.256	14.44
355.468	13.28
355.679	33.45
355.891	40.55
356.103	45.78
356.314	42.58
356.526	45.64
356.738	39.2
356.949	41.21
357.161	45.65
357.373	43.3
357.584	36.67
357.796	53.06
358.008	34.53
358.219	34.1
358.431	24.76
358.642	33.75
358.854	24.89
359.065	36.6
359.277	23.19
359.488	47.19
359.7	40.4
359.911	37.8
360.123	30.05
360.334	35.26
360.546	19.84
360.757	22.31
360.969	27.95
361.18	37.51
361.391	33.2
361.603	38.64
361.814	39.19
362.025	37.62
362.237	33.96
362.448	31.15
362.659	29.64
362.871	19.67
363.082	14.3
363.293	3.86
363.504	15.83
363.716	11.4
363.927	28.25
364.138	5.06
364.349	15.97
364.56	20.28
364.772	18.49
364.983	22.57
365.194	44.77
365.405	42.84
365.616	32.43
365.827	38.99
366.038	17.93
366.25	-0.13
366.461	8.74
366.672	13.06
366.883	19.59
367.094	24.77
367.305	37.08
367.516	31.41
367.727	29.72
367.938	28.12
368.149	34.05
368.36	35.21
368.571	43.73
368.781	39.48
368.992	24.82
369.203	24.86
369.414	25.64
369.625	25.65
369.836	27.59
370.047	20.71
370.258	21.33
370.468	9.34
370.679	-7.48
370.89	-30.19
371.101	-3.11
371.312	1.94
371.522	29.27
371.733	34.23
371.944	54.81
372.155	65.85
372.365	45.34
372.576	30.21
372.787	32.88
372.997	24.26
373.208	13.65
373.419	18.15
373.629	15.68
373.84	18.57
374.05	25.68
374.261	42.15
374.472	32.02
374.682	28.36
374.893	35.06
375.103	32.24
375.314	26.43
375.524	27.24
375.735	32.23
375.945	25.35
376.156	26.54
376.366	10.44
376.577	24.52
376.787	14.68
376.997	4.95
377.208	-0.41
377.418	-4.28
377.629	-12.79
377.839	5.8
378.049	12.12
378.26	9.65
378.47	22.72
378.68	23.58
378.89	15.93
379.101	28.27
379.311	35
379.521	28.21
379.732	29.45
379.942	29.42
380.152	20.66
380.362	14.89
380.572	19.62
380.783	10.83
380.993	12.97
381.203	14.81
381.413	8.86
381.623	15.54
381.833	35.26
382.043	35.38
382.253	33.78
382.463	31.47
382.674	27.31
382.884	22.08
383.094	15.94
383.304	10.29
383.514	11.61
383.724	21.76
383.934	15.55
384.144	21.63
384.353	28.98
384.563	33.47
384.773	23.25
384.983	25.5
385.193	21.7
385.403	13.08
385.613	14.62
385.823	16.98
386.033	17.45
386.242	17.36
386.452	19.38
386.662	15.05
386.872	12.48
387.082	8.15
387.291	4.86
387.501	6.62
387.711	6.99
387.921	7
388.13	4.42
388.34	5.89
388.55	3.74
388.759	0.35
388.969	-2.36
389.179	1.39
389.388	3.32
389.598	4.66
389.807	6.33
390.017	7.16
390.227	7.86
390.436	6.68
390.646	6.64
390.855	7.95
391.065	7.86
391.274	4.63
391.484	3.21
391.693	0.87
391.903	1.36
392.112	2.65
392.322	4.8
392.531	5.82
392.74	5.98
392.95	4.16
393.159	3.98
393.369	3.58
393.578	3.09
393.787	4.73
393.997	3.56
394.206	2.71
394.415	3.28
394.625	3.76
394.834	3.46
395.043	4.26
395.252	5.75
395.462	5.38
395.671	5.62
395.88	6.59
396.089	7.15
396.298	6.63
396.508	5.88
396.717	5
396.926	4.35
397.135	3.68
397.344	3.72
397.553	3.95
397.762	4.63
397.971	4.15
398.181	4.48
398.39	3.73
398.599	4.06
398.808	3.75
399.017	4.45
399.226	4.48
399.435	4.61
399.644	4.91
399.853	4.9
400.062	4.63
400.27	4.95
400.479	5.11
400.688	4.77
400.897	4.85
401.106	4.64
401.315	4.2
401.524	4.3
401.733	4.26
401.941	4.43
402.15	4.47
402.359	4.39
402.568	4.43
402.777	4.29
402.985	4.19
403.194	4
403.403	3.92
403.612	3.86
403.82	3.87
404.029	3.71
404.238	3.75
404.446	3.94
404.655	3.85
404.864	3.82
405.072	3.66
405.281	3.73
405.489	3.46
405.698	3.5
405.906	3.44
406.115	3.42
406.324	3.33
406.532	3.49
406.741	3.43
406.949	3.5
407.158	3.68
407.366	3.69
407.574	3.62
407.783	3.6
407.991	3.42
408.2	3.32
408.408	3.27
408.617	3.36
408.825	3.37
409.033	3.53
409.242	3.57
409.45	3.62
409.658	3.68
409.867	3.55
410.075	3.52
410.283	3.36
410.491	3.25
410.7	3.14
410.908	3.29
411.116	3.34
411.324	3.35
411.533	3.48
411.741	3.44
411.949	3.39
412.157	3.35
412.365	3.33
412.573	3.21
412.781	3.2
412.99	3.17
413.198	3.11
413.406	3.16
413.614	3.2
413.822	3.23
414.03	3.23
414.238	3.17
414.446	3.34
414.654	3.28
414.862	3.37
415.07	3.19
415.278	3.31
415.486	3.09
415.694	3.17
415.902	3.05
416.109	3.12
416.317	3.12
416.525	3.18
416.733	3.28
416.941	3.24
417.149	3.26
417.357	3.18
417.564	3.14
417.772	3
417.98	3.15
418.188	3.04
418.395	2.89
418.603	2.88
418.811	2.85
419.019	2.78
419.226	3.04
419.434	3.06
419.642	3.05
419.849	2.97
420.057	2.9
420.265	2.79
420.472	2.84
420.68	2.87
420.887	3
421.095	3.09
421.302	3.11
421.51	3.06
421.717	3.07
421.925	3.12
422.132	2.96
422.34	2.76
422.547	2.67
422.755	2.75
422.962	2.7
423.17	2.67
423.377	2.81
423.585	3.25
423.792	3.21
423.999	3.15
424.207	3.22
424.414	3.19
424.621	2.88
424.829	2.73
425.036	2.79
425.243	2.99
425.451	2.97
425.658	3.09
425.865	3.19
426.072	3.08
426.28	3.03
426.487	3.07
426.694	3.14
426.901	2.93
427.108	2.81
427.315	2.86
427.523	2.8
427.73	2.77
427.937	2.86
428.144	2.95
428.351	2.71
428.558	2.82
428.765	2.84
428.972	3.03
429.179	3
429.386	3.16
429.593	3.18
429.8	3.09
430.007	3.11
430.214	3.4
430.421	3.44
430.628	3.4
430.835	3.45
431.042	3.4
431.249	3.41
431.456	3.19
431.662	3.3
431.869	3.37
432.076	3.39
432.283	3.32
432.49	3.38
432.697	3.36
432.903	3.22
433.11	3.22
433.317	3.13
433.524	3.3
433.73	3.27
433.937	3.33
434.144	3.28
434.35	3.31
434.557	3.26
434.764	3.21
434.97	3.21
435.177	3.25
435.384	3.24
435.59	3.19
435.797	3.35
436.003	3.37
436.21	3.31
436.416	3.31
436.623	3.35
436.829	3.26
437.036	3.33
437.242	3.48
437.449	3.61
437.655	3.66
437.862	3.75
438.068	3.7
438.275	3.67
438.481	3.7
438.687	3.58
438.894	3.48
439.1	3.46
439.307	3.44
439.513	3.38
439.719	3.47
439.926	3.45
440.132	3.52
440.338	3.5
440.544	3.41
440.751	3.33
440.957	3.44
441.163	3.45
441.369	3.58
441.575	3.63
441.782	3.62
441.988	3.61
442.194	3.55
442.4	3.48
442.606	3.66
442.812	3.79
443.018	3.81
443.224	3.95
443.431	3.87
443.637	3.74
443.843	3.74
444.049	3.76
444.255	3.69
444.461	3.9
444.667	3.84
444.873	3.73
445.079	3.66
445.284	3.73
445.49	3.59
445.696	3.66
445.902	3.71
446.108	3.62
446.314	3.61
446.52	3.7
446.726	3.77
446.931	3.8
447.137	3.96
447.343	3.96
447.549	3.86
447.755	3.87
447.96	3.96
448.166	3.88
448.372	3.79
448.578	3.97
448.783	3.95
448.989	3.94
449.195	3.94
449.4	4.02
449.606	3.9
449.812	3.85
450.017	3.83
450.223	3.88
450.428	3.82
450.634	3.85
450.84	3.94
451.045	3.86
451.251	3.86
451.456	3.94
451.662	3.89
451.867	3.85
452.073	3.95
452.278	3.97
452.483	3.96
452.689	4
452.894	4.05
453.1	3.99
453.305	3.99
453.51	3.98
453.716	3.93
453.921	3.93
454.127	3.98
454.332	3.89
454.537	3.87
454.742	3.99
454.948	3.9
455.153	3.93
455.358	3.98
455.563	4.12
455.769	4.06
455.974	4.14
456.179	4.06
456.384	4.07
456.589	4.04
456.795	4.06
457	4.08
457.205	4.24
457.41	4.26
457.615	4.18
457.82	4.23
458.025	4.17
458.23	4.14
458.435	4.2
458.64	4.22
458.845	4.21
459.05	4.23
459.255	4.31
459.46	4.36
459.665	4.54
459.87	4.47
460.075	4.47
460.28	4.31
460.485	4.28
460.69	4.12
460.895	4.13
461.099	4.14
461.304	4.09
461.509	4.05
461.714	4.12
461.919	4.17
462.123	4.19
462.328	4.42
462.533	4.45
462.738	4.51
462.942	4.51
463.147	4.61
463.352	4.61
463.556	4.59
463.761	4.48
463.966	4.58
464.17	4.55
464.375	4.38
464.58	4.33
464.784	4.44
464.989	4.33
465.193	4.32
465.398	4.54
465.602	4.72
465.807	4.73
466.011	4.87
466.216	4.86
466.42	4.68
466.625	4.72
466.829	4.71
467.034	4.68
467.238	4.73
467.443	4.77
467.647	4.61
467.851	4.58
468.056	4.49
468.26	4.52
468.464	4.6
468.669	4.69
468.873	4.78
469.077	4.87
469.282	4.88
469.486	4.92
469.69	4.9
469.894	4.86
470.099	4.85
470.303	4.86
470.507	4.77
470.711	4.81
470.915	4.83
471.119	4.77
471.324	4.81
471.528	4.87
471.732	4.86
471.936	4.87
472.14	4.92
472.344	4.97
472.548	5.02
472.752	5.09
472.956	5.09
473.16	5.12
473.364	5.11
473.568	5.12
473.772	5.12
473.976	5.19
474.18	5.23
474.384	5.2
474.588	5.14
474.792	5.16
474.995	5.19
475.199	5.2
475.403	5.19
475.607	5.28
475.811	5.2
476.015	5.16
476.218	5.06
476.422	5.12
476.626	5.07
476.83	5.08
477.033	5.09
477.237	5.1
477.441	5.11
477.644	5.13
477.848	5.17
478.052	5.13
478.255	5.22
478.459	5.13
478.663	5.11
478.866	5.08
479.07	5.17
479.273	5.15
479.477	5.23
479.681	5.34
479.884	5.42
480.088	5.36
480.291	5.39
480.495	5.41
480.698	5.35
480.901	5.27
481.105	5.25
481.308	5.25
481.512	5.25
481.715	5.28
481.919	5.38
482.122	5.48
482.325	5.4
482.529	5.37
482.732	5.38
482.935	5.33
483.138	5.18
483.342	5.24
483.545	5.32
483.748	5.3
483.952	5.42
484.155	5.63
484.358	5.56
484.561	5.52
484.764	5.46
484.967	5.45
485.171	5.34
485.374	5.4
485.577	5.43
485.78	5.46
485.983	5.47
486.186	5.5
486.389	5.51
486.592	5.45
486.795	5.53
486.998	5.42
487.201	5.48
487.404	5.55
487.607	5.63
487.81	5.57
488.013	5.6
488.216	5.52
488.419	5.47
488.622	5.45
488.825	5.46
489.028	5.48
489.231	5.53
489.433	5.6
489.636	5.56
489.839	5.55
490.042	5.5
490.245	5.48
490.447	5.39
490.65	5.43
490.853	5.45
491.056	5.5
491.258	5.45
491.461	5.48
491.664	5.47
491.866	5.45
492.069	5.43
492.272	5.45
492.474	5.49
492.677	5.42
492.879	5.43
493.082	5.49
493.285	5.47
493.487	5.44
493.69	5.48
493.892	5.44
494.095	5.4
494.297	5.42
494.5	5.44
494.702	5.45
494.905	5.49
495.107	5.44
495.309	5.54
495.512	5.49
495.714	5.63
495.917	5.67
496.119	5.75
496.321	5.7
496.524	5.77
496.726	5.63
496.928	5.6
497.13	5.51
497.333	5.53
497.535	5.52
497.737	5.49
497.939	5.54
498.142	5.68
498.344	5.63
498.546	5.57
498.748	5.75
498.95	5.78
499.152	5.73
499.355	5.79
499.557	5.87
499.759	5.76
499.961	5.67
500.163	5.66
500.365	5.64
500.567	5.67
500.769	5.71
500.971	5.78
501.173	5.78
501.375	5.78
501.577	5.72
501.779	5.79
501.981	5.8
502.183	5.78
502.385	5.76
502.587	5.77
502.788	5.68
502.99	5.65
503.192	5.71
503.394	5.73
503.596	5.8
503.798	5.81
503.999	5.88
504.201	5.91
504.403	5.93
504.605	5.92
504.806	5.93
505.008	5.91
505.21	5.89
505.411	5.88
505.613	5.86
505.815	5.91
506.016	5.88
506.218	5.88
506.42	5.88
506.621	5.94
506.823	5.89
507.024	5.89
507.226	5.89
507.427	5.92
507.629	5.89
507.83	5.92
508.032	5.96
508.233	6.04
508.435	6.03
508.636	6.04
508.838	6.04
509.039	6.02
509.24	5.99
509.442	6.05
509.643	6.01
509.845	6.03
510.046	6.1
510.247	6.1
510.448	6.13
510.65	6.17
510.851	6.15
511.052	6.15
511.254	6.14
511.455	6.1
511.656	6.12
511.857	6.18
512.058	6.14
512.26	6.07
512.461	6.03
512.662	5.98
512.863	5.86
513.064	5.87
513.265	5.92
513.466	5.96
513.667	5.99
513.868	6.1
514.069	6.1
514.27	6.09
514.471	6.04
514.672	5.99
514.873	5.9
515.074	5.94
515.275	5.95
515.476	5.96
515.677	5.99
515.878	6.17
516.079	6.16
516.28	6.17
516.481	6.23
516.682	6.31
516.882	6.19
517.083	6.19
517.284	6.18
517.485	6.17
517.686	6.08
517.886	6.1
518.087	6.07
518.288	6.06
518.488	6.05
518.689	6.1
518.89	6.08
519.091	6.15
519.291	6.15
519.492	6.14
519.692	6.12
519.893	6.22
520.094	6.19
520.294	6.23
520.495	6.28
520.695	6.29
520.896	6.19
521.096	6.18
521.297	6.19
521.497	6.17
521.698	6.13
521.898	6.17
522.099	6.16
522.299	6.18
522.499	6.18
522.7	6.24
522.9	6.26
523.101	6.29
523.301	6.32
523.501	6.35
523.702	6.34
523.902	6.33
524.102	6.35
524.302	6.33
524.503	6.34
524.703	6.39
524.903	6.36
525.103	6.38
525.304	6.44
525.504	6.49
525.704	6.49
525.904	6.54
526.104	6.54
526.304	6.49
526.504	6.46
526.705	6.41
526.905	6.41
527.105	6.39
527.305	6.38
527.505	6.41
527.705	6.48
527.905	6.49
528.105	6.49
528.305	6.46
528.505	6.39
528.705	6.36
528.905	6.34
529.105	6.35
529.304	6.43
529.504	6.53
529.704	6.55
529.904	6.59
530.104	6.57
530.304	6.53
530.503	6.5
530.703	6.49
530.903	6.49
531.103	6.54
531.303	6.61
531.502	6.6
531.702	6.64
531.902	6.64
532.101	6.65
532.301	6.63
532.501	6.61
532.7	6.59
532.9	6.66
533.1	6.68
533.299	6.65
533.499	6.67
533.698	6.67
533.898	6.66
534.097	6.63
534.297	6.68
534.496	6.67
534.696	6.71
534.895	6.74
535.095	6.76
535.294	6.77
535.494	6.79
535.693	6.73
535.892	6.72
536.092	6.72
536.291	6.69
536.491	6.72
536.69	6.77
536.889	6.69
537.088	6.71
537.288	6.78
537.487	6.82
537.686	6.81
537.886	6.91
538.085	6.91
538.284	6.89
538.483	6.89
538.682	6.94
538.882	6.96
539.081	7.05
539.28	7.07
539.479	7.02
539.678	6.99
539.877	6.98
540.076	6.97
540.275	6.95
540.474	7.07
540.673	7.11
540.872	7.15
541.071	7.15
541.27	7.23
541.469	7.28
541.668	7.35
541.867	7.37
542.066	7.42
542.265	7.42
542.464	7.39
542.663	7.4
542.862	7.54
543.06	7.61
543.259	7.7
543.458	7.69
543.657	7.76
543.856	7.7
544.054	7.65
544.253	7.58
544.452	7.69
544.651	7.66
544.849	7.65
545.048	7.72
545.247	7.81
545.445	7.79
545.644	7.85
545.843	7.88
546.041	7.95
546.24	7.92
546.438	7.96
546.637	7.96
546.836	8.02
547.034	7.98
547.233	8.03
547.431	8.03
547.63	8.01
547.828	8.05
548.027	8.06
548.225	8.09
548.423	8.09
548.622	8.18
548.82	8.15
549.019	8.25
549.217	8.3
549.415	8.37
549.614	8.47
549.812	8.52
550.01	8.58
550.209	8.68
550.407	8.75
550.605	8.73
550.803	8.8
551.002	8.85
551.2	8.88
551.398	8.92
551.596	8.95
551.794	9.02
551.993	9.05
552.191	9.08
552.389	9.17
552.587	9.31
552.785	9.39
552.983	9.43
553.181	9.56
553.379	9.58
553.577	9.58
553.775	9.65
553.973	9.73
554.171	9.78
554.369	9.88
554.567	9.99
554.765	9.98
554.963	10.03
555.161	10
555.359	10.06
555.557	10.11
555.755	10.24
555.952	10.31
556.15	10.43
556.348	10.43
556.546	10.52
556.744	10.61
556.941	10.62
557.139	10.73
557.337	10.88
557.535	10.9
557.732	10.95
557.93	11.11
558.128	11.07
558.325	11.11
558.523	11.18
558.721	11.23
558.918	11.26
559.116	11.42
559.313	11.42
559.511	11.52
559.708	11.65
559.906	11.78
560.104	11.83
560.301	12.01
560.498	12.06
560.696	12.12
560.893	12.13
561.091	12.25
561.288	12.29
561.486	12.37
561.683	12.4
561.88	12.53
562.078	12.65
562.275	12.77
562.473	12.88
562.67	12.95
562.867	12.99
563.064	13.01
563.262	13.06
563.459	13.07
563.656	13.25
563.853	13.35
564.051	13.41
564.248	13.52
564.445	13.67
564.642	13.68
564.839	13.79
565.036	13.95
565.234	14.04
565.431	14.12
565.628	14.17
565.825	14.21
566.022	14.24
566.219	14.22
566.416	14.31
566.613	14.47
566.81	14.55
567.007	14.69
567.204	14.78
567.401	14.86
567.598	14.94
567.795	14.99
567.991	14.95
568.188	15.07
568.385	15.11
568.582	15.08
568.779	15.17
568.976	15.25
569.172	15.37
569.369	15.43
569.566	15.51
569.763	15.51
569.96	15.54
570.156	15.54
570.353	15.51
570.55	15.6
570.746	15.72
570.943	15.76
571.14	15.75
571.336	15.84
571.533	15.83
571.729	15.91
571.926	16.01
572.123	16.07
572.319	16.23
572.516	16.32
572.712	16.28
572.909	16.28
573.105	16.3
573.302	16.25
573.498	16.25
573.695	16.37
573.891	16.34
574.087	16.45
574.284	16.51
574.48	16.59
574.677	16.52
574.873	16.62
575.069	16.62
575.266	16.58
575.462	16.54
575.658	16.63
575.854	16.8
576.051	16.81
576.247	16.83
576.443	16.84
576.639	16.81
576.835	16.68
577.032	16.64
577.228	16.68
577.424	16.69
577.62	16.7
577.816	16.69
578.012	16.67
578.208	16.65
578.404	16.7
578.6	16.7
578.796	16.66
578.993	16.73
579.189	16.75
579.384	16.7
579.58	16.63
579.776	16.66
579.972	16.69
580.168	16.64
580.364	16.54
580.56	16.56
580.756	16.52
580.952	16.38
581.148	16.44
581.343	16.51
581.539	16.54
581.735	16.59
581.931	16.67
582.127	16.71
582.322	16.67
582.518	16.72
582.714	16.69
582.909	16.63
583.105	16.52
583.301	16.6
583.496	16.4
583.692	16.31
583.888	16.38
584.083	16.4
584.279	16.38
584.474	16.47
584.67	16.5
584.866	16.47
585.061	16.42
585.257	16.46
585.452	16.42
585.648	16.49
585.843	16.42
586.039	16.52
586.234	16.44
586.429	16.4
586.625	16.38
586.82	16.46
587.015	16.38
587.211	16.38
587.406	16.4
587.601	16.36
587.797	16.33
587.992	16.3
588.187	16.23
588.383	16.24
588.578	16.25
588.773	16.26
588.968	16.33
589.163	16.5
589.359	16.59
589.554	16.61
589.749	16.61
589.944	16.64
590.139	16.55
590.334	16.5
590.529	16.51
590.724	16.46
590.919	16.39
591.114	16.47
591.309	16.42
591.504	16.52
591.699	16.51
591.894	16.58
592.089	16.52
592.284	16.64
592.479	16.68
592.674	16.81
592.869	16.81
593.064	17
593.259	17.09
593.454	17.01
593.648	16.95
593.843	17.07
594.038	16.96
594.233	16.98
594.428	17.01
594.622	17.1
594.817	17.05
595.012	17.11
595.206	17.15
595.401	17.32
595.596	17.38
595.79	17.47
595.985	17.56
596.18	17.61
596.374	17.63
596.569	17.64
596.763	17.76
596.958	17.86
597.153	17.84
597.347	17.94
597.542	17.97
597.736	17.93
597.931	17.9
598.125	18.03
598.319	18.12
598.514	18.29
598.708	18.33
598.903	18.37
599.097	18.44
599.291	18.46
599.486	18.49
599.68	18.53
599.874	18.54
600.069	18.62
600.263	18.53
600.457	18.53
600.651	18.62
600.846	18.7
601.04	18.63
601.234	18.64
601.428	18.7
601.622	18.73
601.817	18.74
602.011	18.8
602.205	18.84
602.399	18.84
602.593	18.77
602.787	18.84
602.981	18.8
603.175	18.84
603.369	18.82
603.563	18.85
603.757	18.78
603.951	18.83
604.145	18.79
604.339	18.9
604.533	18.82
604.727	18.81
604.921	18.78
605.115	18.84
605.309	18.74
605.502	18.81
605.696	18.81
605.89	18.79
606.084	18.65
606.278	18.58
606.471	18.46
606.665	18.44
606.859	18.41
607.053	18.4
607.246	18.4
607.44	18.42
607.634	18.35
607.827	18.29
608.021	18.2
608.214	18.07
608.408	18.06
608.602	18.03
608.795	17.94
608.989	17.88
609.182	17.89
609.376	17.87
609.569	17.84
609.763	17.77
609.956	17.73
610.15	17.59
610.343	17.47
610.537	17.34
610.73	17.27
610.923	17.24
611.117	17.29
611.31	17.25
611.504	17.26
611.697	17.25
611.89	17.18
612.083	17.04
612.277	16.91
612.47	16.82
612.663	16.78
612.856	16.78
613.05	16.72
613.243	16.72
613.436	16.65
613.629	16.63
613.822	16.52
614.015	16.48
614.209	16.4
614.402	16.33
614.595	16.25
614.788	16.17
614.981	16.06
615.174	16.02
615.367	15.93
615.56	15.81
615.753	15.81
615.946	15.77
616.139	15.77
616.332	15.77
616.525	15.78
616.718	15.64
616.911	15.64
617.103	15.62
617.296	15.49
617.489	15.49
617.682	15.57
617.875	15.62
618.067	15.51
618.26	15.46
618.453	15.34
618.646	15.27
618.838	15.16
619.031	15.07
619.224	15.09
619.417	15.11
619.609	14.92
619.802	14.88
619.994	14.86
620.187	14.77
620.38	14.71
620.572	14.8
620.765	14.76
620.957	14.8
621.15	14.82
621.342	14.82
621.535	14.83
621.727	14.83
621.92	14.76
622.112	14.75
622.305	14.78
622.497	14.71
622.69	14.66
622.882	14.61
623.074	14.6
623.267	14.53
623.459	14.56
623.651	14.5
623.844	14.59
624.036	14.59
624.228	14.56
624.42	14.49
624.613	14.53
624.805	14.47
624.997	14.38
625.189	14.36
625.381	14.36
625.574	14.36
625.766	14.32
625.958	14.32
626.15	14.33
626.342	14.3
626.534	14.25
626.726	14.24
626.918	14.17
627.11	14.15
627.302	14.1
627.494	14.09
627.686	14.07
627.878	14.11
628.07	14.03
628.262	14.01
628.454	13.94
628.646	13.88
628.838	13.96
629.029	13.9
629.221	13.86
629.413	13.81
629.605	13.74
629.797	13.68
629.989	13.65
630.18	13.72
630.372	13.69
630.564	13.66
630.755	13.56
630.947	13.55
631.139	13.38
631.33	13.38
631.522	13.4
631.714	13.31
631.905	13.31
632.097	13.33
632.289	13.3
632.48	13.25
632.672	13.26
632.863	13.14
633.055	13.04
633.246	12.96
633.438	12.92
633.629	12.89
633.821	12.98
634.012	13.01
634.203	13
634.395	13
634.586	13.1
634.777	12.99
634.969	12.96
635.16	13.06
635.351	12.99
635.543	12.96
635.734	12.96
635.925	12.97
636.117	12.9
636.308	12.95
636.499	12.83
636.69	12.72
636.881	12.69
637.073	12.63
637.264	12.55
637.455	12.49
637.646	12.58
637.837	12.58
638.028	12.57
638.219	12.52
638.41	12.53
638.601	12.45
638.792	12.4
638.983	12.4
639.174	12.34
639.365	12.31
639.556	12.27
639.747	12.27
639.938	12.23
640.129	12.36
640.32	12.35
640.511	12.38
640.701	12.29
640.892	12.27
641.083	12.17
641.274	12.15
641.465	12.16
641.655	12.18
641.846	12.14
642.037	12.03
642.228	11.98
642.418	11.87
642.609	11.8
642.8	11.72
642.99	11.69
643.181	11.59
643.372	11.61
643.562	11.57
643.753	11.53
643.943	11.59
644.134	11.54
644.324	11.45
644.515	11.45
644.705	11.45
644.896	11.45
645.086	11.47
645.277	11.5
645.467	11.54
645.658	11.59
645.848	11.47
646.038	11.48
646.229	11.45
646.419	11.43
646.61	11.39
646.8	11.49
646.99	11.47
647.18	11.41
647.371	11.33
647.561	11.25
647.751	11.08
647.941	11.04
648.132	11.13
648.322	11.18
648.512	11.17
648.702	11.24
648.892	11.23
649.082	11.19
649.272	11.05
649.462	11.07
649.653	11.13
649.843	11.13
650.033	11.16
650.223	11.23
650.413	11.24
650.603	11.16
650.793	11.15
650.983	11.08
651.172	11.04
651.362	10.96
651.552	10.88
651.742	10.83
651.932	10.77
652.122	10.75
652.312	10.75
652.502	10.74
652.691	10.81
652.881	10.83
653.071	10.75
653.261	10.64
653.45	10.57
653.64	10.37
653.83	10.25
654.019	10.17
654.209	10.13
654.399	10.07
654.588	10.05
654.778	9.95
654.968	9.97
655.157	9.89
655.347	9.82
655.536	9.74
655.726	9.72
655.915	9.66
656.105	9.6
656.294	9.58
656.484	9.53
656.673	9.43
656.863	9.31
657.052	9.25
657.241	9.14
657.431	9.02
657.62	9.03
657.809	8.95
657.999	8.91
658.188	8.83
658.377	8.85
658.567	8.7
658.756	8.6
658.945	8.51
659.134	8.36
659.324	8.25
659.513	8.21
659.702	8.07
659.891	7.92
660.08	7.83
660.269	7.67
660.458	7.52
660.648	7.59
660.837	7.55
661.026	7.51
661.215	7.52
661.404	7.42
661.593	7.34
661.782	7.31
661.971	7.25
662.16	7.13
662.349	6.97
662.538	6.83
662.726	6.78
662.915	6.73
663.104	6.68
663.293	6.69
663.482	6.72
663.671	6.58
663.86	6.47
664.048	6.43
664.237	6.46
664.426	6.38
664.615	6.34
664.803	6.36
664.992	6.3
665.181	6.28
665.369	6.21
665.558	6.15
665.747	6.15
665.935	6.15
666.124	6.1
666.312	6.11
666.501	6.26
666.69	6.2
666.878	6.16
667.067	6.1
667.255	6.03
667.444	6.05
667.632	6.07
667.82	6.17
668.009	6.18
668.197	6.22
668.386	6.08
668.574	6.15
668.762	6.1
668.951	6.26
669.139	6.31
669.327	6.3
669.516	6.21
669.704	6.23
669.892	6.22
670.08	6.23
670.269	6.26
670.457	6.48
670.645	6.4
670.833	6.38
671.021	6.34
671.21	6.37
671.398	6.36
671.586	6.44
671.774	6.49
671.962	6.59
672.15	6.67
672.338	6.62
672.526	6.74
672.714	6.66
672.902	6.72
673.09	6.8
673.278	6.9
673.466	7.08
673.654	7.37
673.842	7.38
674.03	7.42
674.218	7.45
674.405	7.44
674.593	7.56
674.781	7.6
674.969	7.59
675.157	7.64
675.344	7.71
675.532	7.6
675.72	7.55
675.908	7.67
676.095	7.72
676.283	7.64
676.471	7.82
676.658	8.07
676.846	8.2
677.033	8.35
677.221	8.54
677.409	8.28
677.596	8.32
677.784	8.26
677.971	8.27
678.159	8.22
678.346	8.47
678.534	8.57
678.721	8.66
678.909	8.78
679.096	8.9
679.283	9.04
679.471	9.04
679.658	9.21
679.846	9.24
680.033	9.55
680.22	9.5
680.408	9.51
680.595	9.53
680.782	9.56
680.969	9.46
681.157	9.58
681.344	9.7
681.531	9.75
681.718	9.88
681.905	9.78
682.093	9.94
682.28	10.04
682.467	10.35
682.654	10.54
682.841	10.75
683.028	10.84
683.215	11
683.402	10.87
683.589	10.95
683.776	11.09
683.963	11.08
684.15	11.15
684.337	11.39
684.524	11.5
684.711	11.76
684.898	11.98
685.085	12.33
685.271	12.47
685.458	12.7
685.645	12.69
685.832	12.96
686.019	13.2
686.205	13.35
686.392	13.58
686.579	13.85
686.766	14.01
686.952	14.01
687.139	14.43
687.326	14.6
687.512	14.95
687.699	15.34
687.886	15.67
688.072	15.86
688.259	16.19
688.445	16.48
688.632	16.69
688.818	17.34
689.005	17.8
689.191	18.33
689.378	18.84
689.564	19.33
689.751	19.55
689.937	19.99
690.124	20.27
690.31	20.63
690.496	21.14
690.683	21.61
690.869	21.91
691.055	22.46
691.242	23.05
691.428	23.55
691.614	24.41
691.8	25.13
691.987	25.74
692.173	26.33
692.359	26.97
692.545	27.36
692.731	28.01
692.918	28.6
693.104	29.2
693.29	29.77
693.476	30.27
693.662	31.02
693.848	31.72
694.034	32.24
694.22	32.94
694.406	33.6
694.592	33.93
694.778	34.44
694.964	35.23
695.15	35.72
695.336	36.34
695.522	37.13
695.708	37.82
695.894	38.46
696.08	39.24
696.265	39.89
696.451	40.4
696.637	40.86
696.823	41.5
697.009	41.89
697.194	42.61
697.38	43.62
697.566	44.53
697.751	45.17
697.937	46.08
698.123	46.58
698.308	46.75
698.494	47.52
698.68	47.94
698.865	48.6
699.051	49.27
699.236	50.29
699.422	50.72
699.607	51.58
699.793	52.16
699.978	52.99
700.164	53.41
700.349	54.12
700.535	54.7
700.72	55.25
700.906	55.56
701.091	56.06
701.276	56.47
701.462	56.96
701.647	57.34
701.832	58.08
702.018	58.84
702.203	59.35
702.388	59.73
702.573	60.07
702.759	60.33
702.944	60.49
703.129	60.94
703.314	61.51
703.499	62.25
703.684	62.55
703.87	62.95
704.055	63.05
704.24	63.53
704.425	64.14
704.61	64.68
704.795	64.86
704.98	65.49
705.165	65.62
705.35	66.12
705.535	66.69
705.72	67.52
705.905	68.1
706.09	68.54
706.275	68.6
706.459	69.01
706.644	69.24
706.829	69.68
707.014	70.44
707.199	70.68
707.384	71.09
707.568	71.64
707.753	72.36
707.938	72.48
708.123	73.29
708.307	73.71
708.492	73.83
708.677	73.74
708.861	74.17
709.046	73.98
709.231	74.14
709.415	74.03
709.6	74.1
709.784	74.55
709.969	75.13
710.153	75.49
710.338	76.24
710.522	76.77
710.707	77
710.891	77.26
711.076	77.39
711.26	77.66
711.445	77.78
711.629	78.11
711.813	78.48
711.998	78.75
712.182	79.12
712.366	79.71
712.551	79.45
712.735	79.81
712.919	79.59
713.103	79.91
713.288	79.71
713.472	80.36
713.656	79.86
713.84	80.88
714.024	81.17
714.208	81.81
714.393	81.49
714.577	81.72
714.761	81.43
714.945	81.45
715.129	81.15
715.313	81.92
715.497	82.46
715.681	83.23
715.865	83.22
716.049	83.63
716.233	83.46
716.417	83.79
716.601	83.09
716.785	83.27
716.968	83.18
717.152	83.63
717.336	83.47
717.52	84.09
717.704	84.27
717.888	84.15
718.071	83.99
718.255	84.7
718.439	84.24
718.622	84.34
718.806	84.77
718.99	85.3
719.174	85.12
719.357	85.39
719.541	85.45
719.724	85.6
719.908	85.6
720.092	85.95
720.275	86.67
720.459	86.67
720.642	87.35
720.826	86.91
721.009	86.86
721.193	87.12
721.376	87.85
721.559	87.43
721.743	88.01
721.926	88.4
722.11	87.91
722.293	87.86
722.476	88.5
722.66	87.98
722.843	87.7
723.026	88.34
723.21	88.31
723.393	87.91
723.576	88.36
723.759	88.7
723.942	88.5
724.126	88.55
724.309	89.27
724.492	89.39
724.675	89.94
724.858	90.11
725.041	90.27
725.224	90.33
725.407	90.62
725.59	90.12
725.774	90.24
725.957	90.49
726.14	91.06
726.322	90.84
726.505	91.5
726.688	92.06
726.871	92.5
727.054	91.77
727.237	92.74
727.42	92.07
727.603	91.68
727.786	90.99
727.968	91.13
728.151	90.54
728.334	91.2
728.517	91.95
728.699	92.93
728.882	92.86
729.065	92.89
729.248	92.68
729.43	91.86
729.613	91.62
729.796	91.92
729.978	92.66
730.161	92.08
730.343	92.53
730.526	92.88
730.708	93.25
730.891	93.15
731.073	93.92
731.256	93.13
731.438	93.3
731.621	93.68
731.803	93.91
731.986	94.04
732.168	94.43
732.35	93.96
732.533	93.57
732.715	92.86
732.898	92.66
733.08	92.86
733.262	93.59
733.444	93.53
733.627	93.62
733.809	93.68
733.991	94.06
734.173	94.02
734.355	94.02
734.538	94.57
734.72	94.55
734.902	95.51
735.084	94.42
735.266	95.45
735.448	95.65
735.63	95.82
735.812	96.05
735.994	97.27
736.176	96.53
736.358	95.43
736.54	95.83
736.722	95.21
736.904	95.27
737.086	95.37
737.268	96.89
737.45	97.35
737.632	97.01
737.814	97.59
737.995	97.62
738.177	96.77
738.359	96.46
738.541	97.7
738.723	97.45
738.904	97.14
739.086	97.57
739.268	97.34
739.449	95.47
739.631	94.92
739.813	94.89
739.994	95.12
740.176	95.28
740.358	96.96
740.539	97.62
740.721	98.13
740.902	97.93
741.084	98.08
741.265	96.89
741.447	96.47
741.628	97.43
741.81	97.69
741.991	97.03
742.172	98.03
742.354	97.64
742.535	96.41
742.717	95.92
742.898	96.16
743.079	96.45
743.261	97.56
743.442	97.52
743.623	98.81
743.804	98.93
743.986	98.67
744.167	97.83
744.348	98.15
744.529	98.77
744.71	99.08
744.891	98.83
745.073	99.35
745.254	99.37
745.435	98.25
745.616	98.03
745.797	97.78
745.978	97.22
746.159	97.99
746.34	97.67
746.521	99.5
746.702	99.81
746.883	99.67
747.064	99.19
747.245	99.21
747.426	98.98
747.606	97.92
747.787	98.77
747.968	98.72
748.149	98.91
748.33	97.5
748.51	99.07
748.691	98.07
748.872	97.87
749.053	96.91
749.233	96.58
749.414	96.04
749.595	97.9
749.775	97.22
749.956	97.75
750.137	97.85
750.317	98.88
750.498	97.17
750.678	97.54
750.859	96.53
751.04	97.32
751.22	95.64
751.4	96.05
751.581	95.96
751.761	98.63
751.942	99.7
752.122	99
752.303	97.27
752.483	97.32
752.663	96.22
752.844	95.39
753.024	98.13
753.204	100.02
753.385	99.12
753.565	99.4
753.745	98.61
753.925	97.23
754.106	96.3
754.286	97.64
754.466	97.28
754.646	98.42
754.826	97.66
755.006	98.07
755.187	97.84
755.367	97
755.547	97.18
755.727	99.04
755.907	98.36
756.087	98.49
756.267	98.35
756.447	97.19
756.627	95.05
756.807	95.94
756.987	96.78
757.167	97.49
757.346	98.91
757.526	99.72
757.706	100.71
757.886	99.55
758.066	101.54
758.246	100.27
758.425	99.32
758.605	97.3
758.785	97.83
758.965	97.07
759.144	96
759.324	96.02
759.504	98.07
759.683	99.58
759.863	98.78
760.043	99.28
760.222	98.24
760.402	95.35
760.581	94.91
760.761	95.4
760.94	95.37
761.12	100.49
761.299	101.51
761.479	100
761.658	97
761.838	96.69
762.017	95.89
762.197	96.58
762.376	95.76
762.555	98.22
762.735	97.96
762.914	96.88
763.093	99.34
763.273	98.78
763.452	98.5
763.631	100.03
763.81	99.59
763.99	97.58
764.169	98.13
764.348	97.11
764.527	95.67
764.706	95.22
764.885	93.47
765.064	95.05
765.243	94.52
765.423	95.35
765.602	95.18
765.781	95.84
765.96	93.38
766.139	94.78
766.318	93.02
766.497	92.65
766.676	92.18
766.854	94.75
767.033	94.01
767.212	95.49
767.391	93.72
767.57	94.7
767.749	92.68
767.928	92.76
768.106	90.92
768.285	90.5
768.464	90.2
768.643	91.22
768.821	89.39
769	91.92
769.179	94.14
769.357	93.32
769.536	92.38
769.715	93.35
769.893	92.41
770.072	90.98
770.25	91.06
770.429	91.1
770.607	91.43
770.786	90.94
770.964	90.9
771.143	93.09
771.321	94.11
771.5	93.81
771.678	95.45
771.857	97.04
772.035	96.28
772.213	94.68
772.392	94.43
772.57	94.58
772.748	92.93
772.927	92.01
773.105	93.72
773.283	94.42
773.461	94.52
773.64	95.03
773.818	94.92
773.996	95.37
774.174	94.78
774.352	94.55
774.531	96.02
774.709	94.99
774.887	93.86
775.065	95.07
775.243	91.55
775.421	90.58
775.599	91.58
775.777	90.2
775.955	91.83
776.133	91.98
776.311	90.86
776.489	90.77
776.667	91.81
776.844	91.88
777.022	93.48
777.2	95.56
777.378	94.53
777.556	94.46
777.734	93.26
777.911	94.27
778.089	92.34
778.267	92.73
778.445	87.83
778.622	85.02
778.8	86.24
778.978	88.75
779.155	87.7
779.333	92.71
779.511	92.63
779.688	89.98
779.866	87.64
780.043	87.91
780.221	85.49
780.398	86.84
780.576	88.09
780.753	87.89
780.931	87.79
781.108	88.61
781.286	90.59
781.463	89.74
781.64	89.79
781.818	90.47
781.995	89.75
782.172	88.07
782.35	89.17
782.527	90.81
782.704	90.9
782.882	92.58
783.059	91.74
783.236	88.83
783.413	86.69
783.59	86.53
783.768	82.87
783.945	82.79
784.122	84.42
784.299	82.27
784.476	80.54
784.653	84.85
784.83	88.28
785.007	85.92
785.184	89.09
785.361	91.96
785.538	91.33
785.715	87.32
785.892	93.79
786.069	92.7
786.246	92.51
786.423	92.1
786.6	93.58
786.776	89.45
786.953	89.05
787.13	90.35
787.307	91.5
787.484	91.19
787.66	92.24
787.837	96.46
788.014	100.46
788.191	103.25
788.367	107.71
788.544	105.25
788.721	101.3
788.897	96.91
789.074	92.87
789.25	88.31
789.427	87.58
789.603	85.96
789.78	83.37
789.956	91.6
790.133	90.49
790.309	90.65
790.486	94.86
790.662	100.3
790.839	87.79
791.015	89.82
791.192	92.94
791.368	96.03
791.544	90.77
791.721	98.54
791.897	98.64
792.073	99.85
792.249	97.87
792.426	101.78
792.602	104.2
792.778	101.02
792.954	95.39
793.13	93.13
793.307	90.51
793.483	84.84
793.659	83.75
793.835	84.08
794.011	83.84
794.187	81.67
794.363	78.62
794.539	85.75
794.715	85.38
794.891	87.07
795.067	89.52
795.243	91.56
795.419	92.4
795.595	94.02
795.771	91.17
795.947	87.71
796.122	88.11
796.298	82.86
796.474	83.04
796.65	78.2
796.826	79.96
797.001	79.49
797.177	80.21
797.353	77.2
797.529	80.91
797.704	82.61
797.88	83.04
798.056	83.18
798.231	86.7
798.407	88.93
798.582	87.76
798.758	92.22
798.934	94.46
799.109	92.85
799.285	94.09
799.46	94.56
799.636	92.59
799.811	90.91
799.986	91.67
800.162	101.72
800.337	104.83
800.513	104.97
800.688	100.32
800.863	107.54
801.039	100.34
801.214	96.46
801.389	94.42
801.565	93.55
801.74	84.49
801.915	79.81
802.09	81.79
802.265	81.86
802.441	83.55
802.616	83.93
802.791	83.88
802.966	85.71
803.141	83.33
803.316	88.52
803.491	88.69
803.666	91.75
803.841	86.73
804.016	94.55
804.191	91.29
804.366	98.41
804.541	92.86
804.716	98.07
804.891	85.9
805.066	85.96
805.241	80.09
805.416	83.15
805.591	81.78
805.765	87.56
805.94	81.61
806.115	79.33
806.29	77.67
806.464	70.46
806.639	71.75
806.814	74.97
806.989	74.06
807.163	77.1
807.338	88.22
807.512	78.27
807.687	79.14
807.862	75.99
808.036	80.16
808.211	64.43
808.385	65.29
808.56	69.66
808.734	67.84
808.909	64.26
809.083	71.85
809.258	71.16
809.432	66.64
809.606	72.17
809.781	73.88
809.955	71.12
810.13	78.57
810.304	75.68
810.478	76.38
810.652	78.88
810.827	86.9
811.001	90.47
811.175	106.94
811.349	105.25
811.524	90.3
811.698	87.57
811.872	92.82
812.046	84.47
812.22	91.98
812.394	105.61
812.568	114.64
812.742	99.52
812.916	106.61
813.09	99.72
813.264	106.86
813.438	103.26
813.612	105.61
813.786	94.05
813.96	92.63
814.134	81.46
814.308	80.71
814.482	75.65
814.656	85.67
814.83	86.13
815.003	89.56
815.177	83.09
815.351	104.06
815.525	94.11
815.698	98.47
815.872	97.84
816.046	108.3
816.219	93.59
816.393	95.46
816.567	100.78
816.74	92.71
816.914	84.4
817.088	81.67
817.261	79.37
817.435	71.67
817.608	67.31
817.782	58.25
817.955	67.75
818.129	76.08
818.302	72.2
818.475	84.73
818.649	105.51
818.822	105.42
818.996	108.94
819.169	107.25
819.342	102.45
819.516	90.47
819.689	82.83
819.862	76.49
820.035	75.62
820.209	81.43
820.382	71.74
820.555	72.69
820.728	73.85
820.901	76.52
821.075	67.45
821.248	69.34
821.421	72.61
821.594	80.73
821.767	96.77
821.94	90.55
822.113	97.22
822.286	90.06
822.459	79.89
822.632	64.29
822.805	67.31
822.978	71.55
823.151	81.72
823.324	86.47
823.496	96.6
823.669	103.14
823.842	95.64
824.015	98.38
824.188	92.09
824.361	72.2
824.533	69.82
824.706	77.91
824.879	68.22
825.051	70.31
825.224	87.99
825.397	88.59
825.569	85.55
825.742	91.45
825.915	93.31
826.087	94.54
826.26	79.7
826.432	81.86
826.605	84.41
826.777	72.88
826.95	69.85
827.122	78.86
827.295	77.28
827.467	73.16
827.64	82.17
827.812	69.84
827.984	88.08
828.157	78.49
828.329	86.97
828.501	92.77
828.674	96.25
828.846	75.59
829.018	92.03
829.19	84.17
829.363	82.56
829.535	104.86
829.707	110.9
829.879	89.71
830.051	78.38
830.223	85.85
830.395	66.05
830.568	54.62
830.74	81.72
830.912	99.88
831.084	123.89
831.256	130.72
831.428	156.38
831.6	134.74
831.772	109.53
831.943	62.13
832.115	56.44
832.287	50.87
832.459	61.52
832.631	76.16
832.803	94.92
832.975	102.03
833.146	111.49
833.318	104.74
833.49	98.39
833.662	73.86
833.833	77.79
834.005	73.66
834.177	76.49
834.348	76.13
834.52	86.36
834.692	85.19
834.863	86.14
835.035	81.61
835.206	68.26
835.378	80.35
835.549	82.12
835.721	75.72
835.892	63.96
836.064	75.3
836.235	64.93
836.407	51.96
836.578	56.9
836.749	81.89
836.921	57.85
837.092	49.42
837.264	40.64
837.435	57.27
837.606	34.09
837.777	64.53
837.949	71.86
838.12	72.82
838.291	55.72
838.462	74.14
838.633	72.97
838.805	73.38
838.976	94.5
839.147	97.4
839.318	69.86
839.489	83.44
839.66	92.1
839.831	75
840.002	76.69
840.173	79.75
840.344	41.16
840.515	32.12
840.686	37.1
840.857	34.99
841.028	41.92
841.199	80.29
841.369	76.79
841.54	92.33
841.711	81.87
841.882	86.03
842.053	65.16
842.223	67.41
842.394	67.12
842.565	80.28
842.736	95.34
842.906	100.49
843.077	107.37
843.248	114.78
843.418	138.6
843.589	99.52
843.759	105.26
843.93	97.28
844.101	72.02
844.271	68.15
844.442	66.1
844.612	68.15
844.783	51.12
844.953	62.78
845.123	56.39
845.294	75.5
845.464	42.79
845.635	47.65
845.805	56.32
845.975	56.89
846.146	39.6
846.316	48.85
846.486	55.64
846.656	59.68
846.827	69.52
846.997	69
847.167	85.44
847.337	58.09
847.507	45.95
847.677	54.55
847.848	75.28
848.018	77.02
848.188	129.71
848.358	117.58
848.528	70.04
848.698	59.69
848.868	51.47
849.038	24.05
849.208	49.4
849.378	75
849.548	96.01
849.718	87.37
849.887	105.6
850.057	114.21
850.227	163.31
850.397	124.5
850.567	153.07
850.737	118.75
850.906	95.81
851.076	70.41
851.246	67.75
851.415	58.08
851.585	53.78
851.755	51.87
851.924	61.5
852.094	62.28
852.264	56.16
852.433	55.07
852.603	69.64
852.772	78.53
852.942	73.82
853.111	79.39
853.281	73.28
853.45	74.52
853.62	65.58
853.789	61.01
853.959	64.16
854.128	40.99
854.297	40.35
854.467	41.38
854.636	39.22
854.805	64.22
854.975	138.17
855.144	208
855.313	127.15
855.482	156.61
855.652	103.71
855.821	109.59
855.99	109.9
856.159	165.8
856.328	160.54
856.497	185.2
856.667	138.4
856.836	163.22
857.005	73.61
857.174	70.62
857.343	73.33
857.512	-76.98
857.681	17.9
857.85	65.46
858.019	48.48
858.188	45.18
858.356	77.04
858.525	104.21
858.694	80.55
858.863	106.98
859.032	111.65
859.201	64.65
859.369	76.54
859.538	78.18
859.707	76.33
859.876	85.28
860.044	119.49
860.213	119.57
860.382	124.51
860.55	154.62
860.719	145.85
860.888	97.4
861.056	84.97
861.225	65.55
861.393	57
861.562	80.02
861.73	98.13
861.899	108.57
862.067	135.04
862.236	190.52
862.404	158.87
862.572	176.13
862.741	130
862.909	112.68
863.078	41.01
863.246	50.56
863.414	41.95
863.582	25.93
863.751	36.71
863.919	23.64
864.087	16.11
864.255	10.3
864.424	-16.71
864.592	-29.25
864.76	-14.73
864.928	-8.54
865.096	-2.22
865.264	30.05
865.432	74.64
865.6	58.77
865.768	45.04
865.936	57.49
866.104	50.34
866.272	52.79
866.44	58.69
866.608	94.16
866.776	75.71
866.944	200.44
867.112	102.89
867.28	99.04
867.448	46.82
867.615	154.57
867.783	36.07
867.951	62.95
868.119	92.8
868.286	65.42
868.454	80.22
868.622	81.54
868.789	-0.65
868.957	43.96
869.125	13.06
869.292	-9.02
869.46	-7.51
869.627	31.14
869.795	10.15
869.963	17.36
870.13	29.26
870.298	19.22
870.465	27.29
870.632	41.84
870.8	55.78
870.967	49.09
871.135	90.17
871.302	123.82
871.469	-156.05
871.637	195.97
871.804	132.18
871.971	93.4
872.139	75.2
872.306	87.03
872.473	78.6
872.64	68.57
872.807	90.54
872.975	189.64
873.142	194.89
873.309	4836.23
873.476	955.64
873.643	205
873.81	108.04
873.977	77.13
874.144	75.29
874.311	64.26
874.478	57.32
874.645	50.91
874.812	46.24
874.979	34.76
875.146	62.43
875.313	78.69
875.48	149.91
875.647	-251.62
875.813	400.44
875.98	-679.8
876.147	-16.55
876.314	27.02
876.481	20.55
876.647	81.97
876.814	77.56
876.981	198.91
877.147	170.45
877.314	140.32
877.481	147.82
877.647	146.84
877.814	94.8
877.98	102.57
878.147	133.98
878.314	129.92
878.48	100.95
878.647	215.19
878.813	2224.03
878.979	240.27
879.146	148.94
879.312	121.25
879.479	79.27
879.645	87.21
879.811	78.29
879.978	100.58
880.144	104.95
880.31	99.59
880.477	52.12
880.643	81.36
880.809	145.14
880.975	2330.3
881.142	-134.81
881.308	-1777.33
881.474	126.89
881.64	42.4
881.806	70.95
881.972	77.11
882.138	85.24
882.304	135.75
882.47	147.08
882.636	79.12
882.802	132.09
882.968	290.33
883.134	106.58
883.3	85.86
883.466	131.49
883.632	154.99
883.798	104.5
883.964	140.46
884.129	141.86
884.295	100.68
884.461	39.47
884.627	43.65
884.793	0.05
884.958	43.81
885.124	54.09
885.29	28.77
885.455	36.64
885.621	90.7
885.787	74.77
885.952	113.88
886.118	-26.95
886.283	-377.19
886.449	-32.26
886.614	13.8
886.78	42.88
886.945	64.57
887.111	37.08
887.276	49.21
887.442	60.88
887.607	44.57
887.773	55.08
887.938	120.12
888.103	94.59
888.269	24.93
888.434	16.56
888.599	1.16
888.764	31.97
888.93	35.02
889.095	66.85
889.26	262.34
889.425	346.39
889.59	-522.22
889.756	540.71
889.921	205.05
890.086	144
890.251	116.7
890.416	48.73
890.581	6.24
890.746	57.88
890.911	29.98
891.076	60.36
891.241	89.45
891.406	129.48
891.571	127.14
891.736	133.54
891.901	208.69
892.065	212.01
892.23	191.5
892.395	108.4
892.56	151.13
892.725	95.15
892.889	39.09
893.054	1.99
893.219	-47.75
893.384	-7.61
893.548	-138.28
893.713	327.16
893.878	25.05
