Data from Ofav_PS_Phys_313_Reflection_2.txt Node
Date: Thu Jul 29 18:24:31 EDT 2021
User: USUARIO
Spectrometer: FLMT01687
Trigger mode: 0
Integration Time (sec): 9.010000E-1
Scans to average: 2
Electric dark correction enabled: true
Nonlinearity correction enabled: false
Boxcar width: 2
XAxis mode: Wavelengths
Number of Pixels in Spectrum: 3648
>>>>>Begin Spectral Data<<<<<
179.494	93.02
179.716	80.63
179.937	45.34
180.158	74.01
180.38	52.34
180.601	-277.43
180.823	-141.28
181.044	-70.2
181.265	-126.14
181.486	-549.72
181.708	109.68
181.929	270.99
182.15	9652.38
182.372	-211.69
182.593	-13.34
182.814	-13.1
183.035	-601.72
183.257	164.26
183.478	102.49
183.699	108.7
183.92	89.73
184.141	110.53
184.363	75.78
184.584	69.14
184.805	69.36
185.026	73.65
185.247	47.31
185.468	91.08
185.689	68.9
185.91	72.64
186.132	89.22
186.353	76.43
186.574	66.68
186.795	82.92
187.016	85.35
187.237	70.43
187.458	69.42
187.679	72.26
187.9	59.92
188.121	56.5
188.342	59.62
188.563	47.02
188.784	48.56
189.005	37.78
189.226	42.61
189.447	37.86
189.667	44.43
189.888	43.86
190.109	89.4
190.33	77.54
190.551	70.68
190.772	96.01
190.993	68.32
191.214	51.12
191.434	59.1
191.655	57.13
191.876	58.56
192.097	44.85
192.318	27.6
192.538	22.74
192.759	22.04
192.98	25.98
193.201	48.68
193.421	52.7
193.642	62.04
193.863	47.04
194.083	35.57
194.304	17.55
194.525	31.17
194.745	14.83
194.966	4.23
195.187	1.14
195.407	1.91
195.628	-51.29
195.848	-5.67
196.069	49.21
196.29	40.01
196.51	37.21
196.731	58.08
196.951	70.13
197.172	57.71
197.392	65.71
197.613	78.13
197.833	59.61
198.054	44.54
198.274	50.6
198.495	42.42
198.715	29.11
198.936	43.5
199.156	59.78
199.377	56.81
199.597	55.23
199.817	63.52
200.038	78.09
200.258	61.38
200.479	80.05
200.699	54
200.919	38.13
201.14	3.61
201.36	3.55
201.58	19.24
201.801	33.16
202.021	41.25
202.241	48.84
202.461	69.61
202.682	40.97
202.902	67.55
203.122	52.08
203.342	84.15
203.563	73.89
203.783	80.81
204.003	42.39
204.223	66.22
204.443	53.84
204.663	53.03
204.884	52.69
205.104	60.15
205.324	23.42
205.544	26.5
205.764	17.29
205.984	30.72
206.204	58.33
206.424	82.46
206.644	63.06
206.864	69.9
207.084	30.26
207.304	30.02
207.525	14.85
207.745	36.23
207.964	50.55
208.184	84.18
208.404	48.51
208.624	59.01
208.844	67.73
209.064	72.04
209.284	64.44
209.504	63.74
209.724	68.46
209.944	64.37
210.164	60.93
210.384	49.21
210.604	54.88
210.823	45.7
211.043	31.25
211.263	51.73
211.483	65.42
211.703	42.47
211.922	38.69
212.142	65.33
212.362	31.96
212.582	30.86
212.801	46.51
213.021	56.69
213.241	37.45
213.461	39.17
213.68	6.75
213.9	1.28
214.12	7.42
214.339	-9.04
214.559	-10.74
214.779	14.95
214.998	36.27
215.218	14.98
215.438	43.62
215.657	28.71
215.877	44.54
216.096	14.92
216.316	3.78
216.535	-56.54
216.755	-63.25
216.974	-127.19
217.194	-47.07
217.413	0.29
217.633	48.77
217.852	48.69
218.072	49.88
218.291	50.38
218.511	60.59
218.73	30.39
218.95	39.04
219.169	37.42
219.389	25.43
219.608	9.39
219.827	21.86
220.047	24.79
220.266	16.01
220.485	34.22
220.705	16.11
220.924	-7.64
221.143	-10.19
221.363	-11.23
221.582	-59.1
221.801	-118.35
222.021	-28.84
222.24	-45.23
222.459	-25.53
222.678	8.03
222.897	20.89
223.117	25.31
223.336	50.12
223.555	47.64
223.774	83.38
223.993	62.66
224.213	65.45
224.432	65.73
224.651	76.64
224.87	55.55
225.089	57.79
225.308	32.19
225.527	29.31
225.746	22.54
225.965	37.03
226.184	15.16
226.404	41.65
226.623	43.99
226.842	42.16
227.061	20.15
227.28	38.01
227.499	68.18
227.718	76.11
227.936	34.42
228.155	38.15
228.374	3.52
228.593	-1.41
228.812	-17.6
229.031	-20.23
229.25	-1.64
229.469	23.11
229.688	24.07
229.907	40.26
230.125	38.88
230.344	48.74
230.563	52.5
230.782	47.82
231.001	17.22
231.22	22.98
231.438	10.19
231.657	22.14
231.876	37.27
232.095	57.84
232.313	44.63
232.532	44.92
232.751	22.13
232.969	16.91
233.188	23.09
233.407	26.51
233.625	41.73
233.844	49.22
234.063	37.29
234.281	29.89
234.5	37.77
234.719	37.44
234.937	47.6
235.156	50.91
235.374	46.47
235.593	57.65
235.811	72.48
236.03	53.44
236.249	64.64
236.467	74.59
236.686	78.02
236.904	71.63
237.123	84.31
237.341	44
237.559	19.15
237.778	23.2
237.996	19.53
238.215	22.89
238.433	66.08
238.652	71.75
238.87	62.47
239.088	70.56
239.307	66.39
239.525	49.53
239.743	49.59
239.962	48.81
240.18	42.3
240.398	46.85
240.617	35.53
240.835	31.41
241.053	31.52
241.271	22.29
241.49	-0.71
241.708	23.13
241.926	21.39
242.144	10.45
242.363	24.43
242.581	35.79
242.799	37.76
243.017	20.53
243.235	27.21
243.453	13.92
243.672	17.92
243.89	14.16
244.108	33.47
244.326	50.38
244.544	36
244.762	40.72
244.98	30.72
245.198	27.38
245.416	1.44
245.634	16.34
245.852	6.48
246.07	21.99
246.288	28.31
246.506	42.19
246.724	57.72
246.942	43.54
247.16	36.17
247.378	43.21
247.596	56.71
247.814	37.88
248.032	33.61
248.25	37.89
248.468	27.32
248.685	19.2
248.903	31.59
249.121	48.41
249.339	19.36
249.557	21.44
249.775	29.37
249.992	9.79
250.21	13.36
250.428	45.24
250.646	65.35
250.863	67.32
251.081	65.9
251.299	60.34
251.517	52.31
251.734	50.37
251.952	22.53
252.17	30.4
252.387	31
252.605	40.39
252.823	26.11
253.04	46.33
253.258	60.94
253.475	61.23
253.693	65.49
253.911	72.92
254.128	83.78
254.346	46.37
254.563	52.46
254.781	17.76
254.998	23.41
255.216	-10.79
255.433	30.99
255.651	28.08
255.868	40.6
256.086	52.62
256.303	69.35
256.521	79.05
256.738	70.58
256.956	72.54
257.173	50.17
257.39	37.92
257.608	24
257.825	33.83
258.043	23.84
258.26	27.14
258.477	33.33
258.695	29.28
258.912	34.65
259.129	33.57
259.346	34.59
259.564	39.79
259.781	40.89
259.998	43.09
260.216	69.57
260.433	83.5
260.65	75.82
260.867	77.85
261.084	62.95
261.302	38.22
261.519	15.06
261.736	22.93
261.953	21.14
262.17	42.5
262.387	43.54
262.604	42.79
262.822	47.21
263.039	45.14
263.256	38.99
263.473	38.69
263.69	26.75
263.907	20.31
264.124	9.96
264.341	20.32
264.558	34.14
264.775	33.07
264.992	32.42
265.209	27.08
265.426	18.95
265.643	4.64
265.86	11.21
266.077	16.13
266.294	23.66
266.51	19.97
266.727	29.92
266.944	39.83
267.161	35.19
267.378	38.93
267.595	57.54
267.812	52.94
268.028	44.95
268.245	53.12
268.462	43.91
268.679	35.1
268.896	31.13
269.112	40.27
269.329	32.97
269.546	44.98
269.763	28.5
269.979	46.63
270.196	47.74
270.413	54.45
270.629	50.99
270.846	65.67
271.063	58.37
271.279	57.44
271.496	43.16
271.712	37.07
271.929	48.03
272.146	67.22
272.362	53.75
272.579	64.86
272.795	78.58
273.012	50.89
273.228	29.56
273.445	48.56
273.661	30.1
273.878	3.99
274.094	46.56
274.311	56.13
274.527	23.51
274.744	41.92
274.96	51.1
275.177	31.71
275.393	19.03
275.609	29.93
275.826	12.18
276.042	12.78
276.259	-3.42
276.475	10.9
276.691	17.73
276.908	34.99
277.124	32.69
277.34	28.31
277.557	23.16
277.773	20.46
277.989	25.24
278.205	44.86
278.422	78.06
278.638	80.06
278.854	94.53
279.07	95.87
279.286	68.94
279.503	42.77
279.719	37.34
279.935	26.18
280.151	-2.38
280.367	16.39
280.583	47.14
280.799	33.02
281.016	54.78
281.232	43.15
281.448	29.51
281.664	40.93
281.88	57.15
282.096	48.33
282.312	55.87
282.528	75.02
282.744	51.16
282.96	46.74
283.176	21.65
283.392	26
283.608	25.08
283.824	22.08
284.04	20.21
284.256	47.82
284.471	49.25
284.687	49.42
284.903	46.61
285.119	45.37
285.335	22.13
285.551	31.24
285.767	37.48
285.982	36.02
286.198	36.72
286.414	42.92
286.63	41.32
286.846	26.52
287.061	28.28
287.277	29.15
287.493	23.53
287.709	19.56
287.924	43.27
288.14	41.37
288.356	56.64
288.571	55.91
288.787	59.91
289.003	57.57
289.218	50.25
289.434	20.72
289.65	30.46
289.865	21.68
290.081	7.83
290.296	34.02
290.512	45.09
290.727	40.57
290.943	50.24
291.159	59.28
291.374	49.14
291.59	37.48
291.805	27.4
292.021	13.52
292.236	15.42
292.451	-26.6
292.667	-15.07
292.882	-5.63
293.098	-4.76
293.313	-19.44
293.529	13.96
293.744	3.16
293.959	11.89
294.175	37.67
294.39	35.87
294.605	45.02
294.821	55.59
295.036	58.19
295.251	42.9
295.467	46.42
295.682	39.72
295.897	34.94
296.112	19.76
296.328	32.34
296.543	25.77
296.758	36.36
296.973	47.22
297.188	68.39
297.404	42.79
297.619	43.52
297.834	27.77
298.049	27.76
298.264	29.02
298.479	50.36
298.694	43.41
298.909	41.98
299.125	29.05
299.34	18.38
299.555	2.89
299.77	22.97
299.985	0.81
300.2	20.46
300.415	18.47
300.63	24.87
300.845	16.58
301.06	42.61
301.275	48.22
301.49	38.68
301.704	33.11
301.919	40.33
302.134	32.59
302.349	21.94
302.564	22.12
302.779	25.47
302.994	26.71
303.209	27.15
303.423	32.74
303.638	39.87
303.853	24.81
304.068	30.56
304.283	32.39
304.497	22.37
304.712	8.25
304.927	24.52
305.142	4.73
305.356	-3.43
305.571	38.34
305.786	40.77
306	11.8
306.215	18.1
306.43	25.5
306.644	2.58
306.859	14.27
307.074	42.73
307.288	44.81
307.503	34.55
307.717	19.99
307.932	1.7
308.147	12.54
308.361	23.74
308.576	15.41
308.79	26.93
309.005	47.2
309.219	32.84
309.434	24.1
309.648	24.06
309.863	27.97
310.077	27.29
310.292	24.48
310.506	16.77
310.72	43.74
310.935	25.88
311.149	24.42
311.364	44.84
311.578	43.3
311.792	0.88
312.007	17.46
312.221	-13.39
312.435	-22.86
312.649	1.02
312.864	72.14
313.078	96.56
313.292	75.58
313.507	42.45
313.721	41.82
313.935	13.81
314.149	-0.28
314.363	13.97
314.578	25.11
314.792	27.71
315.006	52.5
315.22	57.33
315.434	56.46
315.648	51.8
315.862	41.3
316.077	35.29
316.291	31.34
316.505	36.38
316.719	49.77
316.933	67.71
317.147	61.28
317.361	48.3
317.575	40.35
317.789	24.72
318.003	20.51
318.217	23.2
318.431	26.18
318.645	25.03
318.859	23.58
319.073	25
319.287	23.55
319.5	20.06
319.714	27.72
319.928	37.06
320.142	48.53
320.356	55.71
320.57	71.59
320.784	67.45
320.997	63.91
321.211	41.83
321.425	50.98
321.639	36.11
321.853	30.42
322.066	11.24
322.28	22.97
322.494	2.76
322.707	5.05
322.921	9.86
323.135	20.16
323.349	12.25
323.562	2.03
323.776	6.92
323.989	13.52
324.203	23.48
324.417	33.39
324.63	33.48
324.844	32.77
325.057	21.37
325.271	16.59
325.485	16.17
325.698	22.53
325.912	24.86
326.125	17.6
326.339	23.73
326.552	23.84
326.766	36.96
326.979	46.89
327.193	66.25
327.406	60.1
327.619	51.5
327.833	52.13
328.046	41.28
328.26	50.15
328.473	41.16
328.686	50.74
328.9	34.72
329.113	58.76
329.326	8.4
329.54	2.15
329.753	-7
329.966	7.92
330.179	10.1
330.393	30.67
330.606	28.5
330.819	35.3
331.032	33.33
331.246	16.29
331.459	-25.23
331.672	-16.39
331.885	-2.35
332.098	4.26
332.311	35.87
332.525	45.6
332.738	41.33
332.951	29.34
333.164	30.21
333.377	15.03
333.59	18.36
333.803	32.18
334.016	33.51
334.229	17.43
334.442	23.32
334.655	20.68
334.868	6.38
335.081	21.93
335.294	31.41
335.507	23.67
335.72	35.19
335.933	25.06
336.146	20.27
336.359	21.32
336.572	5.57
336.785	1.07
336.997	23.38
337.21	31.93
337.423	39.91
337.636	57.34
337.849	50.84
338.062	37.18
338.274	27.84
338.487	5.61
338.7	-28.67
338.913	-13.19
339.125	13.49
339.338	13.34
339.551	18.24
339.763	22.45
339.976	12.63
340.189	18.99
340.402	20.2
340.614	12.52
340.827	50.13
341.039	50.87
341.252	50.35
341.465	47.93
341.677	45.67
341.89	23.53
342.102	31.67
342.315	24.37
342.527	12.16
342.74	5.88
342.952	3
343.165	8.12
343.377	4.77
343.59	24.24
343.802	35.69
344.015	56.99
344.227	49.15
344.44	54.12
344.652	40.34
344.864	23.57
345.077	25.97
345.289	19
345.502	21.23
345.714	21.49
345.926	30.64
346.139	3.3
346.351	0.19
346.563	3.99
346.775	12.69
346.988	14.42
347.2	16.79
347.412	20.8
347.624	25
347.837	14.23
348.049	19.15
348.261	29.98
348.473	29.6
348.685	27.65
348.897	40.55
349.11	35.61
349.322	36.85
349.534	50.01
349.746	53.06
349.958	52.5
350.17	63.65
350.382	57.5
350.594	48.93
350.806	51.07
351.018	35.15
351.23	20.03
351.442	9.61
351.654	30.67
351.866	5.96
352.078	29.32
352.29	26.14
352.502	44.58
352.714	32.01
352.926	44.5
353.138	60.33
353.35	52.86
353.561	27.53
353.773	37.67
353.985	30.03
354.197	22.1
354.409	27.19
354.621	14.17
354.832	-3.07
355.044	8.53
355.256	0.54
355.468	7.57
355.679	37.83
355.891	48.5
356.103	46.2
356.314	51.69
356.526	47.94
356.738	31.56
356.949	25.15
357.161	23.34
357.373	28.57
357.584	21.98
357.796	36.58
358.008	29.95
358.219	22.82
358.431	18.77
358.642	21.38
358.854	29.46
359.065	30.28
359.277	26.82
359.488	20.52
359.7	25.03
359.911	24.19
360.123	22.09
360.334	29.14
360.546	39.05
360.757	35.57
360.969	25.97
361.18	34.93
361.391	38.07
361.603	14.84
361.814	27.92
362.025	34.74
362.237	25.32
362.448	15.87
362.659	22.84
362.871	16.12
363.082	10.85
363.293	9.38
363.504	21.13
363.716	22.3
363.927	20.89
364.138	1.25
364.349	4.39
364.56	3
364.772	-0.83
364.983	-3.88
365.194	10.87
365.405	17.88
365.616	26.24
365.827	23.69
366.038	25.29
366.25	20.08
366.461	12.3
366.672	16.33
366.883	34.19
367.094	31.7
367.305	41.84
367.516	40.51
367.727	28.19
367.938	25.76
368.149	26.97
368.36	17.4
368.571	17.99
368.781	18.18
368.992	2.29
369.203	6.48
369.414	11.65
369.625	23.38
369.836	28.5
370.047	28.26
370.258	29.68
370.468	26.87
370.679	12.8
370.89	-17.81
371.101	0.7
371.312	0.43
371.522	1.35
371.733	7.54
371.944	11.05
372.155	9.51
372.365	3.49
372.576	4.06
372.787	0.31
372.997	23.78
373.208	21.29
373.419	21.24
373.629	31.86
373.84	39.03
374.05	26.82
374.261	25.92
374.472	24.97
374.682	-1
374.893	11.39
375.103	21.37
375.314	25.77
375.524	30.67
375.735	52.46
375.945	44.28
376.156	31.27
376.366	18.03
376.577	22.74
376.787	12.71
376.997	19.11
377.208	23.07
377.418	20.77
377.629	20.22
377.839	24.5
378.049	16.97
378.26	19.97
378.47	26.31
378.68	19.81
378.89	16.76
379.101	14.46
379.311	14.01
379.521	7.37
379.732	6.59
379.942	1.58
380.152	1.06
380.362	1.32
380.572	4.66
380.783	3.67
380.993	24.14
381.203	29.25
381.413	31.56
381.623	33.17
381.833	50
382.043	28.14
382.253	20.7
382.463	17.29
382.674	16.31
382.884	1.52
383.094	-8.58
383.304	-13.37
383.514	-5.49
383.724	2.07
383.934	-1.34
384.144	8.02
384.353	19.41
384.563	19.97
384.773	14.95
384.983	12.27
385.193	18.23
385.403	8.43
385.613	11.11
385.823	5.22
386.033	11.68
386.242	4.41
386.452	8.48
386.662	4.2
386.872	10.49
387.082	7.88
387.291	5.22
387.501	3.79
387.711	4.2
387.921	6.07
388.13	7.21
388.34	12.96
388.55	10.46
388.759	10.99
388.969	7.76
389.179	5.13
389.388	0.5
389.598	2.88
389.807	1.71
390.017	3.04
390.227	8.26
390.436	9.62
390.646	10.38
390.855	11.12
391.065	8.46
391.274	4.47
391.484	1.95
391.693	1.71
391.903	1.77
392.112	3.81
392.322	4.91
392.531	5.75
392.74	3.35
392.95	4.03
393.159	4.14
393.369	5.07
393.578	5.3
393.787	6.92
393.997	4.97
394.206	3.85
394.415	4.1
394.625	3.91
394.834	2.8
395.043	2.46
395.252	3.32
395.462	2.53
395.671	3.49
395.88	4.82
396.089	5.54
396.298	5.33
396.508	4.48
396.717	3.6
396.926	3.07
397.135	2.72
397.344	2.56
397.553	3.34
397.762	3.82
397.971	3.51
398.181	3.85
398.39	3.43
398.599	3.32
398.808	3.19
399.017	3.78
399.226	3.97
399.435	4.51
399.644	5.02
399.853	5.06
400.062	5.09
400.27	4.9
400.479	4.5
400.688	3.76
400.897	3.77
401.106	3.41
401.315	3.39
401.524	3.73
401.733	3.78
401.941	3.82
402.15	3.93
402.359	3.57
402.568	3.72
402.777	3.69
402.985	3.54
403.194	3.43
403.403	3.64
403.612	3.3
403.82	3.37
404.029	3.2
404.238	3.19
404.446	3.32
404.655	3.32
404.864	3.18
405.072	3.26
405.281	3.24
405.489	2.96
405.698	3.02
405.906	3.06
406.115	3.05
406.324	2.98
406.532	3.17
406.741	3.14
406.949	3.3
407.158	3.32
407.366	3.35
407.574	3.25
407.783	3.23
407.991	2.94
408.2	2.86
408.408	2.75
408.617	2.82
408.825	2.85
409.033	3.07
409.242	3.21
409.45	3.31
409.658	3.23
409.867	3.14
410.075	2.96
410.283	2.86
410.491	2.75
410.7	2.72
410.908	2.82
411.116	2.99
411.324	2.97
411.533	3.02
411.741	3
411.949	2.91
412.157	2.76
412.365	2.65
412.573	2.69
412.781	2.7
412.99	2.76
413.198	2.85
413.406	2.94
413.614	2.93
413.822	3.09
414.03	2.98
414.238	2.93
414.446	3.01
414.654	2.87
414.862	2.78
415.07	2.74
415.278	2.68
415.486	2.61
415.694	2.79
415.902	2.69
416.109	2.78
416.317	2.82
416.525	2.72
416.733	2.63
416.941	2.75
417.149	2.7
417.357	2.64
417.564	2.5
417.772	2.36
417.98	2.29
418.188	2.27
418.395	2.11
418.603	2.36
418.811	2.53
419.019	2.58
419.226	2.73
419.434	2.83
419.642	2.68
419.849	2.73
420.057	2.5
420.265	2.37
420.472	2.36
420.68	2.46
420.887	2.43
421.095	2.57
421.302	2.71
421.51	2.76
421.717	2.74
421.925	2.68
422.132	2.73
422.34	2.48
422.547	2.35
422.755	2.4
422.962	2.46
423.17	2.37
423.377	2.52
423.585	2.74
423.792	2.63
423.999	2.47
424.207	2.5
424.414	2.33
424.621	2.29
424.829	2.5
425.036	2.71
425.243	2.77
425.451	2.79
425.658	2.76
425.865	2.51
426.072	2.31
426.28	2.33
426.487	2.49
426.694	2.41
426.901	2.4
427.108	2.32
427.315	2.43
427.523	2.49
427.73	2.53
427.937	2.55
428.144	2.59
428.351	2.3
428.558	2.37
428.765	2.37
428.972	2.43
429.179	2.49
429.386	2.62
429.593	2.53
429.8	2.55
430.007	2.7
430.214	2.8
430.421	2.73
430.628	2.59
430.835	2.57
431.042	2.49
431.249	2.55
431.456	2.52
431.662	2.73
431.869	2.86
432.076	2.94
432.283	2.95
432.49	3.04
432.697	2.84
432.903	2.66
433.11	2.56
433.317	2.49
433.524	2.57
433.73	2.56
433.937	2.5
434.144	2.49
434.35	2.53
434.557	2.42
434.764	2.48
434.97	2.55
435.177	2.59
435.384	2.44
435.59	2.49
435.797	2.56
436.003	2.62
436.21	2.56
436.416	2.51
436.623	2.51
436.829	2.57
437.036	2.55
437.242	2.63
437.449	2.82
437.655	2.97
437.862	2.97
438.068	2.91
438.275	2.91
438.481	2.85
438.687	2.66
438.894	2.63
439.1	2.62
439.307	2.67
439.513	2.73
439.719	2.74
439.926	2.64
440.132	2.7
440.338	2.71
440.544	2.7
440.751	2.59
440.957	2.68
441.163	2.68
441.369	2.68
441.575	2.62
441.782	2.78
441.988	2.73
442.194	2.7
442.4	2.61
442.606	2.81
442.812	2.83
443.018	2.89
443.224	3.04
443.431	3.01
443.637	2.91
443.843	2.84
444.049	2.86
444.255	2.8
444.461	2.92
444.667	2.77
444.873	2.72
445.079	2.63
445.284	2.57
445.49	2.47
445.696	2.5
445.902	2.63
446.108	2.56
446.314	2.61
446.52	2.73
446.726	2.84
446.931	2.76
447.137	2.86
447.343	2.88
447.549	2.77
447.755	2.71
447.96	2.87
448.166	2.84
448.372	2.81
448.578	2.95
448.783	3.01
448.989	2.91
449.195	2.91
449.4	2.92
449.606	2.83
449.812	2.78
450.017	2.82
450.223	2.9
450.428	2.93
450.634	2.98
450.84	3.15
451.045	3.11
451.251	3.12
451.456	3.11
451.662	3.06
451.867	2.93
452.073	2.91
452.278	2.92
452.483	3.06
452.689	3.13
452.894	3.08
453.1	3.07
453.305	3.01
453.51	2.89
453.716	2.75
453.921	2.89
454.127	2.97
454.332	2.83
454.537	2.82
454.742	2.96
454.948	2.83
455.153	2.81
455.358	2.95
455.563	2.97
455.769	2.78
455.974	2.78
456.179	2.67
456.384	2.56
456.589	2.59
456.795	2.7
457	2.81
457.205	2.98
457.41	3.06
457.615	3.06
457.82	3.08
458.025	2.97
458.23	2.91
458.435	2.88
458.64	2.79
458.845	2.85
459.05	2.95
459.255	3
459.46	3.13
459.665	3.24
459.87	3.15
460.075	3.08
460.28	3
460.485	2.96
460.69	2.93
460.895	2.95
461.099	2.86
461.304	2.91
461.509	2.89
461.714	2.87
461.919	2.84
462.123	2.95
462.328	3.01
462.533	2.99
462.738	3.02
462.942	3.08
463.147	3.19
463.352	3.21
463.556	3.21
463.761	3.08
463.966	3.08
464.17	3.05
464.375	2.95
464.58	2.97
464.784	3.05
464.989	2.98
465.193	2.98
465.398	3.05
465.602	3.14
465.807	3.22
466.011	3.33
466.216	3.2
466.42	3.21
466.625	3.21
466.829	3.22
467.034	3.29
467.238	3.39
467.443	3.37
467.647	3.25
467.851	3.23
468.056	3.13
468.26	3.13
468.464	3.15
468.669	3.29
468.873	3.33
469.077	3.38
469.282	3.4
469.486	3.36
469.69	3.29
469.894	3.27
470.099	3.31
470.303	3.29
470.507	3.34
470.711	3.39
470.915	3.45
471.119	3.36
471.324	3.4
471.528	3.34
471.732	3.35
471.936	3.24
472.14	3.26
472.344	3.28
472.548	3.35
472.752	3.41
472.956	3.46
473.16	3.56
473.364	3.58
473.568	3.57
473.772	3.62
473.976	3.64
474.18	3.66
474.384	3.62
474.588	3.61
474.792	3.55
474.995	3.59
475.199	3.52
475.403	3.56
475.607	3.6
475.811	3.6
476.015	3.56
476.218	3.57
476.422	3.62
476.626	3.59
476.83	3.59
477.033	3.68
477.237	3.7
477.441	3.68
477.644	3.76
477.848	3.78
478.052	3.66
478.255	3.68
478.459	3.63
478.663	3.66
478.866	3.7
479.07	3.81
479.273	3.79
479.477	3.79
479.681	3.81
479.884	3.82
480.088	3.77
480.291	3.88
480.495	3.93
480.698	3.9
480.901	3.85
481.105	3.88
481.308	3.84
481.512	3.87
481.715	3.85
481.919	3.97
482.122	4.02
482.325	4
482.529	4.03
482.732	4.08
482.935	3.96
483.138	3.89
483.342	3.89
483.545	3.97
483.748	4
483.952	4.15
484.155	4.24
484.358	4.25
484.561	4.14
484.764	4.04
484.967	3.92
485.171	3.92
485.374	3.89
485.577	3.97
485.78	4.03
485.983	4.13
486.186	4.04
486.389	4.09
486.592	4.03
486.795	4.08
486.998	4
487.201	4.14
487.404	4.22
487.607	4.29
487.81	4.22
488.013	4.21
488.216	4.14
488.419	4.11
488.622	4.1
488.825	4.11
489.028	4.16
489.231	4.29
489.433	4.28
489.636	4.25
489.839	4.24
490.042	4.23
490.245	4.13
490.447	4.15
490.65	4.21
490.853	4.2
491.056	4.27
491.258	4.24
491.461	4.25
491.664	4.27
491.866	4.26
492.069	4.25
492.272	4.27
492.474	4.25
492.677	4.17
492.879	4.2
493.082	4.26
493.285	4.33
493.487	4.27
493.69	4.27
493.892	4.28
494.095	4.25
494.297	4.15
494.5	4.24
494.702	4.34
494.905	4.36
495.107	4.31
495.309	4.4
495.512	4.33
495.714	4.31
495.917	4.34
496.119	4.39
496.321	4.32
496.524	4.4
496.726	4.37
496.928	4.37
497.13	4.31
497.333	4.41
497.535	4.42
497.737	4.44
497.939	4.45
498.142	4.56
498.344	4.56
498.546	4.53
498.748	4.62
498.95	4.69
499.152	4.69
499.355	4.77
499.557	4.86
499.759	4.81
499.961	4.73
500.163	4.7
500.365	4.66
500.567	4.66
500.769	4.66
500.971	4.65
501.173	4.62
501.375	4.63
501.577	4.56
501.779	4.68
501.981	4.75
502.183	4.85
502.385	4.84
502.587	4.86
502.788	4.77
502.99	4.82
503.192	4.82
503.394	4.86
503.596	4.93
503.798	5.05
503.999	5.08
504.201	5.11
504.403	5.11
504.605	5.18
504.806	5.12
505.008	5.09
505.21	5.12
505.411	5.15
505.613	5.09
505.815	5.17
506.016	5.24
506.218	5.19
506.42	5.18
506.621	5.2
506.823	5.17
507.024	5.15
507.226	5.25
507.427	5.28
507.629	5.33
507.83	5.32
508.032	5.38
508.233	5.38
508.435	5.37
508.636	5.46
508.838	5.44
509.039	5.4
509.24	5.33
509.442	5.42
509.643	5.34
509.845	5.39
510.046	5.53
510.247	5.63
510.448	5.65
510.65	5.74
510.851	5.78
511.052	5.72
511.254	5.68
511.455	5.66
511.656	5.62
511.857	5.66
512.058	5.67
512.26	5.72
512.461	5.63
512.662	5.62
512.863	5.58
513.064	5.59
513.265	5.58
513.466	5.68
513.667	5.74
513.868	5.78
514.069	5.83
514.27	5.87
514.471	5.86
514.672	5.82
514.873	5.84
515.074	5.92
515.275	5.89
515.476	5.95
515.677	6.03
515.878	6.11
516.079	6
516.28	6.08
516.481	6.16
516.682	6.12
516.882	6.03
517.083	6.09
517.284	6.06
517.485	6
517.686	6.05
517.886	6.12
518.087	6.13
518.288	6.12
518.488	6.12
518.689	6.15
518.89	6.14
519.091	6.2
519.291	6.23
519.492	6.24
519.692	6.28
519.893	6.39
520.094	6.38
520.294	6.42
520.495	6.44
520.695	6.44
520.896	6.39
521.096	6.38
521.297	6.4
521.497	6.49
521.698	6.48
521.898	6.51
522.099	6.54
522.299	6.55
522.499	6.49
522.7	6.52
522.9	6.48
523.101	6.54
523.301	6.55
523.501	6.57
523.702	6.6
523.902	6.68
524.102	6.65
524.302	6.67
524.503	6.74
524.703	6.74
524.903	6.73
525.103	6.77
525.304	6.84
525.504	6.85
525.704	6.91
525.904	6.95
526.104	6.99
526.304	6.95
526.504	6.9
526.705	6.82
526.905	6.83
527.105	6.85
527.305	6.92
527.505	6.98
527.705	7.08
527.905	7.08
528.105	7.04
528.305	6.96
528.505	6.96
528.705	6.96
528.905	6.95
529.105	6.97
529.304	7.05
529.504	7.07
529.704	7.06
529.904	7.12
530.104	7.13
530.304	7.15
530.503	7.16
530.703	7.12
530.903	7.17
531.103	7.22
531.303	7.24
531.502	7.3
531.702	7.43
531.902	7.35
532.101	7.4
532.301	7.43
532.501	7.42
532.7	7.43
532.9	7.56
533.1	7.59
533.299	7.62
533.499	7.64
533.698	7.64
533.898	7.62
534.097	7.62
534.297	7.63
534.496	7.63
534.696	7.67
534.895	7.71
535.095	7.65
535.294	7.67
535.494	7.73
535.693	7.71
535.892	7.78
536.092	7.83
536.291	7.89
536.491	7.9
536.69	7.94
536.889	7.85
537.088	7.9
537.288	7.94
537.487	7.99
537.686	8.04
537.886	8.17
538.085	8.23
538.284	8.23
538.483	8.24
538.682	8.29
538.882	8.29
539.081	8.38
539.28	8.38
539.479	8.42
539.678	8.45
539.877	8.51
540.076	8.49
540.275	8.56
540.474	8.63
540.673	8.65
540.872	8.61
541.071	8.61
541.27	8.67
541.469	8.68
541.668	8.71
541.867	8.84
542.066	8.95
542.265	8.94
542.464	8.98
542.663	9.11
542.862	9.22
543.06	9.28
543.259	9.41
543.458	9.47
543.657	9.54
543.856	9.54
544.054	9.51
544.253	9.5
544.452	9.44
544.651	9.45
544.849	9.43
545.048	9.59
545.247	9.63
545.445	9.72
545.644	9.72
545.843	9.74
546.041	9.73
546.24	9.84
546.438	9.94
546.637	10.01
546.836	10.11
547.034	10.09
547.233	10.17
547.431	10.23
547.63	10.27
547.828	10.34
548.027	10.43
548.225	10.46
548.423	10.48
548.622	10.54
548.82	10.6
549.019	10.63
549.217	10.6
549.415	10.74
549.614	10.92
549.812	10.95
550.01	11.03
550.209	11.23
550.407	11.24
550.605	11.24
550.803	11.35
551.002	11.49
551.2	11.54
551.398	11.68
551.596	11.75
551.794	11.83
551.993	11.85
552.191	11.86
552.389	11.92
552.587	11.94
552.785	12.13
552.983	12.37
553.181	12.5
553.379	12.65
553.577	12.77
553.775	12.77
553.973	12.73
554.171	12.8
554.369	12.88
554.567	12.99
554.765	13.09
554.963	13.19
555.161	13.24
555.359	13.32
555.557	13.45
555.755	13.53
555.952	13.63
556.15	13.81
556.348	13.85
556.546	13.93
556.744	14.06
556.941	14.16
557.139	14.31
557.337	14.47
557.535	14.54
557.732	14.59
557.93	14.73
558.128	14.76
558.325	14.84
558.523	14.91
558.721	15.09
558.918	15.16
559.116	15.31
559.313	15.33
559.511	15.53
559.708	15.55
559.906	15.68
560.104	15.68
560.301	15.86
560.498	15.91
560.696	16.09
560.893	16.23
561.091	16.44
561.288	16.56
561.486	16.67
561.683	16.81
561.88	16.89
562.078	17.03
562.275	17.18
562.473	17.38
562.67	17.47
562.867	17.54
563.064	17.61
563.262	17.7
563.459	17.66
563.656	17.78
563.853	17.88
564.051	17.95
564.248	18.06
564.445	18.25
564.642	18.36
564.839	18.63
565.036	18.85
565.234	19.01
565.431	19.14
565.628	19.22
565.825	19.22
566.022	19.23
566.219	19.19
566.416	19.27
566.613	19.34
566.81	19.39
567.007	19.44
567.204	19.58
567.401	19.64
567.598	19.8
567.795	19.93
567.991	20.11
568.188	20.26
568.385	20.36
568.582	20.49
568.779	20.49
568.976	20.49
569.172	20.65
569.369	20.77
569.566	20.8
569.763	20.89
569.96	21.04
570.156	20.99
570.353	20.99
570.55	20.95
570.746	21.08
570.943	21.09
571.14	21.12
571.336	21.18
571.533	21.23
571.729	21.26
571.926	21.3
572.123	21.35
572.319	21.44
572.516	21.6
572.712	21.67
572.909	21.72
573.105	21.82
573.302	21.87
573.498	21.85
573.695	21.88
573.891	22
574.087	22.01
574.284	22.08
574.48	22.17
574.677	22.17
574.873	22.09
575.069	22.16
575.266	22.08
575.462	22.06
575.658	22.15
575.854	22.23
576.051	22.16
576.247	22.3
576.443	22.37
576.639	22.39
576.835	22.41
577.032	22.48
577.228	22.5
577.424	22.52
577.62	22.47
577.816	22.5
578.012	22.56
578.208	22.54
578.404	22.43
578.6	22.53
578.796	22.51
578.993	22.41
579.189	22.29
579.384	22.32
579.58	22.19
579.776	22.21
579.972	22.21
580.168	22.26
580.364	22.2
580.56	22.21
580.756	22.16
580.952	22.11
581.148	22.1
581.343	22.12
581.539	22.14
581.735	22.16
581.931	22.23
582.127	22.24
582.322	22.18
582.518	22.2
582.714	22.11
582.909	22.01
583.105	21.96
583.301	22.02
583.496	21.92
583.692	21.94
583.888	21.95
584.083	22.07
584.279	22.08
584.474	22.08
584.67	21.98
584.866	21.99
585.061	21.81
585.257	21.75
585.452	21.77
585.648	21.84
585.843	21.86
586.039	22
586.234	21.97
586.429	21.93
586.625	21.86
586.82	21.87
587.015	21.89
587.211	21.92
587.406	21.94
587.601	22.04
587.797	22.01
587.992	21.93
588.187	21.92
588.383	22.01
588.578	22.08
588.773	22.06
588.968	22.11
589.163	22.21
589.359	22.1
589.554	22.07
589.749	22.09
589.944	22.12
590.139	22.02
590.334	22.06
590.529	22.04
590.724	22.07
590.919	22.01
591.114	22.09
591.309	22.12
591.504	22.23
591.699	22.14
591.894	22.22
592.089	22.16
592.284	22.21
592.479	22.14
592.674	22.24
592.869	22.31
593.064	22.52
593.259	22.59
593.454	22.59
593.648	22.64
593.843	22.7
594.038	22.63
594.233	22.65
594.428	22.84
594.622	23
594.817	23
595.012	23.07
595.206	23.15
595.401	23.26
595.596	23.27
595.79	23.34
595.985	23.5
596.18	23.65
596.374	23.62
596.569	23.76
596.763	23.8
596.958	23.82
597.153	23.8
597.347	23.96
597.542	23.93
597.736	23.95
597.931	24.01
598.125	24.15
598.319	24.22
598.514	24.34
598.708	24.45
598.903	24.51
599.097	24.51
599.291	24.55
599.486	24.64
599.68	24.68
599.874	24.69
600.069	24.82
600.263	24.79
600.457	24.77
600.651	24.83
600.846	24.88
601.04	24.89
601.234	24.94
601.428	25.03
601.622	25.09
601.817	25.17
602.011	25.14
602.205	25.16
602.399	25.08
602.593	25.06
602.787	25.06
602.981	25.04
603.175	25.09
603.369	25.11
603.563	25.07
603.757	25.03
603.951	25.14
604.145	25.02
604.339	25.1
604.533	25.14
604.727	25.1
604.921	24.99
605.115	25.06
605.309	24.91
605.502	24.92
605.696	24.83
605.89	24.82
606.084	24.82
606.278	24.8
606.471	24.72
606.665	24.69
606.859	24.68
607.053	24.55
607.246	24.57
607.44	24.43
607.634	24.46
607.827	24.29
608.021	24.17
608.214	24.02
608.408	24.06
608.602	24.02
608.795	24.08
608.989	24.06
609.182	24.01
609.376	23.91
609.569	23.78
609.763	23.64
609.956	23.51
610.15	23.36
610.343	23.28
610.537	23.24
610.73	23.17
610.923	23.14
611.117	23.16
611.31	23.12
611.504	23
611.697	22.97
611.89	22.92
612.083	22.75
612.277	22.64
612.47	22.62
612.663	22.54
612.856	22.48
613.05	22.57
613.243	22.51
613.436	22.38
613.629	22.38
613.822	22.32
614.015	22.18
614.209	22.12
614.402	22.09
614.595	21.92
614.788	21.8
614.981	21.74
615.174	21.7
615.367	21.56
615.56	21.47
615.753	21.47
615.946	21.36
616.139	21.26
616.332	21.35
616.525	21.2
616.718	21.11
616.911	21.1
617.103	21.14
617.296	21.06
617.489	21.11
617.682	21.1
617.875	21.06
618.067	20.91
618.26	20.81
618.453	20.8
618.646	20.78
618.838	20.72
619.031	20.64
619.224	20.57
619.417	20.49
619.609	20.39
619.802	20.35
619.994	20.27
620.187	20.2
620.38	20.19
620.572	20.06
620.765	20
620.957	19.98
621.15	19.94
621.342	19.9
621.535	19.99
621.727	19.99
621.92	19.97
622.112	19.97
622.305	19.97
622.497	19.81
622.69	19.77
622.882	19.7
623.074	19.76
623.267	19.66
623.459	19.72
623.651	19.73
623.844	19.86
624.036	19.81
624.228	19.81
624.42	19.83
624.613	19.83
624.805	19.72
624.997	19.59
625.189	19.6
625.381	19.52
625.574	19.37
625.766	19.34
625.958	19.38
626.15	19.34
626.342	19.27
626.534	19.24
626.726	19.21
626.918	19.26
627.11	19.24
627.302	19.16
627.494	19.16
627.686	19.07
627.878	18.99
628.07	18.88
628.262	18.86
628.454	18.82
628.646	18.86
628.838	18.9
629.029	18.79
629.221	18.81
629.413	18.75
629.605	18.7
629.797	18.58
629.989	18.6
630.18	18.57
630.372	18.54
630.564	18.54
630.755	18.55
630.947	18.5
631.139	18.43
631.33	18.4
631.522	18.32
631.714	18.19
631.905	18.27
632.097	18.23
632.289	18.25
632.48	18.27
632.672	18.32
632.863	18.12
633.055	18.14
633.246	18.01
633.438	17.9
633.629	17.76
633.821	17.77
634.012	17.71
634.203	17.76
634.395	17.7
634.586	17.86
634.777	17.84
634.969	17.76
635.16	17.76
635.351	17.78
635.543	17.74
635.734	17.75
635.925	17.79
636.117	17.73
636.308	17.74
636.499	17.65
636.69	17.5
636.881	17.54
637.073	17.62
637.264	17.6
637.455	17.53
637.646	17.57
637.837	17.47
638.028	17.23
638.219	17.14
638.41	17.11
638.601	17.04
638.792	16.93
638.983	16.94
639.174	16.91
639.365	16.86
639.556	16.85
639.747	16.85
639.938	16.89
640.129	16.89
640.32	16.91
640.511	16.84
640.701	16.79
640.892	16.63
641.083	16.57
641.274	16.46
641.465	16.59
641.655	16.6
641.846	16.66
642.037	16.55
642.228	16.59
642.418	16.39
642.609	16.31
642.8	16.27
642.99	16.25
643.181	16.12
643.372	16.2
643.562	16.13
643.753	16.1
643.943	16.16
644.134	16.23
644.324	16.18
644.515	16.16
644.705	16.1
644.896	16.06
645.086	15.95
645.277	15.93
645.467	15.97
645.658	15.93
645.848	15.83
646.038	15.85
646.229	15.75
646.419	15.69
646.61	15.7
646.8	15.81
646.99	15.72
647.18	15.75
647.371	15.73
647.561	15.69
647.751	15.54
647.941	15.52
648.132	15.55
648.322	15.54
648.512	15.47
648.702	15.53
648.892	15.49
649.082	15.42
649.272	15.37
649.462	15.38
649.653	15.34
649.843	15.29
650.033	15.38
650.223	15.37
650.413	15.35
650.603	15.33
650.793	15.39
650.983	15.28
651.172	15.27
651.362	15.23
651.552	15.12
651.742	15.06
651.932	14.94
652.122	14.92
652.312	14.93
652.502	14.81
652.691	14.77
652.881	14.74
653.071	14.64
653.261	14.42
653.45	14.45
653.64	14.34
653.83	14.2
654.019	14.17
654.209	14.17
654.399	14.03
654.588	13.96
654.778	13.9
654.968	13.77
655.157	13.66
655.347	13.59
655.536	13.46
655.726	13.27
655.915	13.11
656.105	12.93
656.294	12.82
656.484	12.7
656.673	12.66
656.863	12.58
657.052	12.54
657.241	12.37
657.431	12.26
657.62	12.06
657.809	11.95
657.999	11.82
658.188	11.65
658.377	11.56
658.567	11.45
658.756	11.23
658.945	11.07
659.134	10.88
659.324	10.69
659.513	10.48
659.702	10.28
659.891	10.1
660.08	9.99
660.269	9.84
660.458	9.74
660.648	9.77
660.837	9.7
661.026	9.56
661.215	9.45
661.404	9.29
661.593	9.08
661.782	8.82
661.971	8.74
662.16	8.59
662.349	8.4
662.538	8.23
662.726	8.17
662.915	8.07
663.104	7.95
663.293	7.84
663.482	7.82
663.671	7.72
663.86	7.58
664.048	7.45
664.237	7.47
664.426	7.38
664.615	7.34
664.803	7.26
664.992	7.12
665.181	7.06
665.369	6.94
665.558	6.83
665.747	6.78
665.935	6.85
666.124	6.79
666.312	6.72
666.501	6.68
666.69	6.61
666.878	6.4
667.067	6.27
667.255	6.22
667.444	6.25
667.632	6.26
667.82	6.44
668.009	6.44
668.197	6.37
668.386	6.29
668.574	6.27
668.762	6.09
668.951	6.14
669.139	6.23
669.327	6.2
669.516	6.1
669.704	6.12
669.892	6.1
670.08	6.09
670.269	6.11
670.457	6.24
670.645	6.23
670.833	6.25
671.021	6.27
671.21	6.26
671.398	6.3
671.586	6.37
671.774	6.45
671.962	6.45
672.15	6.62
672.338	6.62
672.526	6.66
672.714	6.58
672.902	6.64
673.09	6.61
673.278	6.67
673.466	6.9
673.654	7.17
673.842	7.26
674.03	7.34
674.218	7.37
674.405	7.34
674.593	7.3
674.781	7.24
674.969	7.3
675.157	7.44
675.344	7.47
675.532	7.47
675.72	7.55
675.908	7.64
676.095	7.64
676.283	7.71
676.471	7.84
676.658	7.95
676.846	7.98
677.033	8.19
677.221	8.34
677.409	8.31
677.596	8.44
677.784	8.57
677.971	8.61
678.159	8.58
678.346	8.64
678.534	8.79
678.721	8.83
678.909	8.92
679.096	9.12
679.283	9.33
679.471	9.46
679.658	9.78
679.846	9.77
680.033	10.03
680.22	10.18
680.408	10.23
680.595	10.2
680.782	10.38
680.969	10.33
681.157	10.38
681.344	10.43
681.531	10.54
681.718	10.68
681.905	10.7
682.093	10.85
682.28	11.07
682.467	11.18
682.654	11.3
682.841	11.53
683.028	11.71
683.215	11.94
683.402	12.1
683.589	12.44
683.776	12.63
683.963	12.72
684.15	12.86
684.337	13.11
684.524	13.21
684.711	13.59
684.898	13.93
685.085	14.19
685.271	14.49
685.458	14.85
685.645	15.12
685.832	15.46
686.019	15.78
686.205	16.09
686.392	16.46
686.579	16.83
686.766	17.03
686.952	17.34
687.139	17.72
687.326	17.88
687.512	18.17
687.699	18.66
687.886	18.99
688.072	19.3
688.259	19.78
688.445	20.2
688.632	20.78
688.818	21.51
689.005	22.06
689.191	22.62
689.378	23.18
689.564	23.5
689.751	24.04
689.937	24.77
690.124	25.3
690.31	25.89
690.496	26.61
690.683	27.21
690.869	27.6
691.055	28.17
691.242	28.88
691.428	29.4
691.614	29.86
691.8	30.58
691.987	31.03
692.173	31.53
692.359	32.32
692.545	32.94
692.731	33.57
692.918	34.49
693.104	35.1
693.29	35.82
693.476	36.49
693.662	37.22
693.848	37.74
694.034	38.44
694.22	39.06
694.406	39.7
694.592	40.15
694.778	40.68
694.964	41.19
695.15	41.58
695.336	42.13
695.522	42.92
695.708	43.8
695.894	44.3
696.08	45.12
696.265	45.95
696.451	46.48
696.637	46.87
696.823	47.72
697.009	48.03
697.194	48.4
697.38	49.15
697.566	49.99
697.751	50.69
697.937	51.48
698.123	52.13
698.308	52.43
698.494	52.82
698.68	53.18
698.865	53.7
699.051	54.26
699.236	54.8
699.422	55.41
699.607	56.05
699.793	56.69
699.978	57.1
700.164	57.87
700.349	58.67
700.535	59.17
700.72	59.53
700.906	60.38
701.091	60.68
701.276	60.75
701.462	61.41
701.647	61.82
701.832	62.12
702.018	62.92
702.203	63.49
702.388	63.55
702.573	63.84
702.759	63.87
702.944	63.8
703.129	64.22
703.314	64.73
703.499	65.23
703.684	65.74
703.87	66.21
704.055	66.65
704.24	67.26
704.425	67.65
704.61	68.05
704.795	68.12
704.98	68.09
705.165	68.37
705.35	68.76
705.535	69.22
705.72	70.05
705.905	70.44
706.09	70.29
706.275	70.37
706.459	70.47
706.644	70.35
706.829	70.75
707.014	71.3
707.199	71.73
707.384	72.12
707.568	72.71
707.753	73.32
707.938	73.69
708.123	74.04
708.307	74.48
708.492	74.62
708.677	74.51
708.861	74.61
709.046	74.54
709.231	74.93
709.415	75.16
709.6	75.14
709.784	75.27
709.969	75.69
710.153	75.6
710.338	75.6
710.522	76.32
710.707	76.61
710.891	76.7
711.076	76.94
711.26	77.17
711.445	76.69
711.629	76.7
711.813	76.97
711.998	76.73
712.182	76.93
712.366	77.47
712.551	77.85
712.735	77.87
712.919	78.34
713.103	78.51
713.288	78.7
713.472	78.53
713.656	78.38
713.84	78.67
714.024	78.78
714.208	78.95
714.393	79.49
714.577	79.54
714.761	79.97
714.945	80.3
715.129	80.02
715.313	80.35
715.497	80.85
715.681	81.01
715.865	80.83
716.049	81.35
716.233	80.93
716.417	81.46
716.601	81.09
716.785	81.09
716.968	81.13
717.152	81.8
717.336	81.43
717.52	81.17
717.704	81.52
717.888	81.63
718.071	81.68
718.255	82.45
718.439	82.31
718.622	82.4
718.806	82.27
718.99	82.24
719.174	81.75
719.357	82.1
719.541	82.22
719.724	82.59
719.908	82.92
720.092	83.48
720.275	84.41
720.459	84.5
720.642	84.78
720.826	83.87
721.009	83.9
721.193	84.07
721.376	84.23
721.559	84.83
721.743	85.47
721.926	85.47
722.11	84.76
722.293	84.92
722.476	84.31
722.66	84.23
722.843	83.82
723.026	84.73
723.21	84.95
723.393	84.75
723.576	84.91
723.759	85.28
723.942	84.83
724.126	84.71
724.309	85.51
724.492	85.68
724.675	86.07
724.858	86.56
725.041	86.74
725.224	86.62
725.407	86.53
725.59	86.66
725.774	86.38
725.957	85.98
726.14	86.24
726.322	85.91
726.505	86.03
726.688	85.86
726.871	86.78
727.054	86.6
727.237	87.36
727.42	87.42
727.603	87.58
727.786	87.32
727.968	87.41
728.151	87.42
728.334	87.59
728.517	88.68
728.699	89.15
728.882	89.18
729.065	89.21
729.248	89.4
729.43	88.15
729.613	87.97
729.796	88.62
729.978	88.92
730.161	88.05
730.343	88.92
730.526	89
730.708	88.83
730.891	89.08
731.073	89.46
731.256	88.95
731.438	89.1
731.621	89.38
731.803	89.58
731.986	89.91
732.168	90.09
732.35	89.96
732.533	90.01
732.715	89.12
732.898	88.86
733.08	89.52
733.262	90.36
733.444	90.33
733.627	91.29
733.809	91.22
733.991	91.9
734.173	90.85
734.355	90.72
734.538	90.53
734.72	90.63
734.902	90.2
735.084	89.88
735.266	89.84
735.448	90.03
735.63	90.74
735.812	90.06
735.994	91
736.176	92.02
736.358	91.22
736.54	91.08
736.722	91.51
736.904	91.93
737.086	90.87
737.268	91.88
737.45	92.83
737.632	92.77
737.814	92.49
737.995	93.28
738.177	93.29
738.359	92.25
738.541	92.99
738.723	92.93
738.904	92.06
739.086	91.1
739.268	91.04
739.449	90.1
739.631	89.99
739.813	90.83
739.994	92.12
740.176	92.2
740.358	93.4
740.539	93.76
740.721	93.02
740.902	93.17
741.084	93.96
741.265	92.59
741.447	92.63
741.628	94
741.81	93.34
741.991	93.77
742.172	95.1
742.354	94.74
742.535	94.1
742.717	93.77
742.898	92.49
743.079	92.71
743.261	93.73
743.442	94.05
743.623	95.62
743.804	95.99
743.986	95.76
744.167	93.68
744.348	92.4
744.529	91.56
744.71	91.97
744.891	91.36
745.073	92.99
745.254	93.47
745.435	94.15
745.616	93.45
745.797	93.28
745.978	93.08
746.159	93.67
746.34	93.18
746.521	95.01
746.702	95.01
746.883	94.32
747.064	93.1
747.245	93.03
747.426	93.07
747.606	93.1
747.787	93.93
747.968	95.43
748.149	94.98
748.33	91.94
748.51	91.35
748.691	90.79
748.872	89.57
749.053	89.48
749.233	91.02
749.414	91.84
749.595	92.74
749.775	93.5
749.956	93.12
750.137	93.44
750.317	93.16
750.498	92.26
750.678	91.71
750.859	92.01
751.04	91.33
751.22	91.27
751.4	90.82
751.581	91.44
751.761	90.87
751.942	93.15
752.122	92.9
752.303	91.74
752.483	91.58
752.663	93.23
752.844	91.15
753.024	91.63
753.204	93.55
753.385	91.86
753.565	90.27
753.745	91.42
753.925	92.32
754.106	92.64
754.286	93.96
754.466	95.58
754.646	95.33
754.826	94.55
755.006	95.11
755.187	94.5
755.367	93.53
755.547	92.92
755.727	93.46
755.907	90.91
756.087	89.68
756.267	88.66
756.447	89.62
756.627	87.9
756.807	89.43
756.987	92.63
757.167	94.49
757.346	93.61
757.526	94.77
757.706	95.53
757.886	94.25
758.066	95.24
758.246	95.36
758.425	93.28
758.605	91.21
758.785	91.18
758.965	89.33
759.144	87.77
759.324	88.87
759.504	90.67
759.683	91.84
759.863	92.49
760.043	93.59
760.222	92.7
760.402	91.63
760.581	90.54
760.761	89.29
760.94	88.6
761.12	92.6
761.299	92.55
761.479	91.89
761.658	91.81
761.838	91.77
762.017	88.89
762.197	88.66
762.376	88.41
762.555	89.08
762.735	89.14
762.914	91.24
763.093	93.31
763.273	92.52
763.452	92.33
763.631	93.51
763.81	92.03
763.99	90.76
764.169	92.83
764.348	92.65
764.527	91.98
764.706	91.78
764.885	91.2
765.064	91.25
765.243	91.46
765.423	91.95
765.602	92.51
765.781	92.96
765.96	90.05
766.139	90.58
766.318	90.23
766.497	90.05
766.676	91.07
766.854	94.36
767.033	93.61
767.212	94.12
767.391	93.16
767.57	92.69
767.749	91.5
767.928	92.68
768.106	90.31
768.285	87.8
768.464	85.03
768.643	84.9
768.821	82.61
769	84.94
769.179	87.62
769.357	89.46
769.536	88.55
769.715	89.97
769.893	89.12
770.072	88.06
770.25	88
770.429	88.27
770.607	87.22
770.786	86.25
770.964	87.03
771.143	87.04
771.321	87.7
771.5	88.66
771.678	90.79
771.857	91.63
772.035	92.57
772.213	91.59
772.392	91.05
772.57	91.97
772.748	89.48
772.927	89.06
773.105	89.51
773.283	90.29
773.461	88.43
773.64	89.75
773.818	89.42
773.996	88.79
774.174	87.16
774.352	86.85
774.531	85.6
774.709	83.77
774.887	84.82
775.065	84.46
775.243	85.16
775.421	86.51
775.599	88.23
775.777	86.78
775.955	86.55
776.133	86.1
776.311	83.52
776.489	83.84
776.667	83.85
776.844	88.65
777.022	86.88
777.2	89.47
777.378	86.12
777.556	86.45
777.734	83.05
777.911	86.29
778.089	87
778.267	90.18
778.445	85.95
778.622	86.72
778.8	84.41
778.978	84.75
779.155	83.2
779.333	86.8
779.511	85.37
779.688	83.68
779.866	81
780.043	80.49
780.221	80.05
780.398	78.74
780.576	80.16
780.753	80.99
780.931	81.84
781.108	83.21
781.286	86.3
781.463	83.64
781.64	83.01
781.818	83.33
781.995	83.21
782.172	82.14
782.35	84.25
782.527	86.35
782.704	85.94
782.882	86.19
783.059	86.28
783.236	85.68
783.413	81.81
783.59	82.12
783.768	80.09
783.945	77.93
784.122	78.98
784.299	80.53
784.476	79.5
784.653	79.79
784.83	80.41
785.007	77.78
785.184	79.71
785.361	80.66
785.538	82.13
785.715	83.21
785.892	87.02
786.069	86.45
786.246	89.22
786.423	87.92
786.6	87.35
786.776	86.62
786.953	84.8
787.13	82.9
787.307	83.22
787.484	83.75
787.66	81.48
787.837	87.39
788.014	89.68
788.191	87.82
788.367	89.75
788.544	91.79
788.721	87.35
788.897	82.4
789.074	84.98
789.25	81.46
789.427	82.14
789.603	82.43
789.78	85.76
789.956	85.53
790.133	88.4
790.309	87.2
790.486	86.53
790.662	83.71
790.839	78.49
791.015	75.6
791.192	73.71
791.368	74.61
791.544	75.72
791.721	80.71
791.897	77.62
792.073	79.29
792.249	77.41
792.426	79.18
792.602	81.69
792.778	82.86
792.954	78.94
793.13	81.68
793.307	80.75
793.483	77.72
793.659	78.94
793.835	83.6
794.011	82.89
794.187	79.93
794.363	72.22
794.539	70.95
794.715	69.87
794.891	67.48
795.067	67.21
795.243	75.86
795.419	76.35
795.595	76.49
795.771	74.02
795.947	74.22
796.122	75.27
796.298	77.33
796.474	76.94
796.65	76.78
796.826	81.76
797.001	79.35
797.177	77.02
797.353	79.3
797.529	85.09
797.704	82.96
797.88	81.99
798.056	85.67
798.231	82.45
798.407	81.13
798.582	80.21
798.758	85.22
798.934	82.86
799.109	81.05
799.285	78.56
799.46	75.4
799.636	70.48
799.811	70.94
799.986	74.09
800.162	78.09
800.337	78.15
800.513	80.96
800.688	75.78
800.863	83.73
801.039	80.88
801.214	87.03
801.389	86.42
801.565	89.09
801.74	80.21
801.915	81.09
802.09	79.32
802.265	76.93
802.441	81.23
802.616	77.24
802.791	73.96
802.966	76.92
803.141	81.37
803.316	76.77
803.491	82.72
803.666	85.24
803.841	85.56
804.016	89.2
804.191	93.12
804.366	92.15
804.541	90.57
804.716	89.01
804.891	74.15
805.066	75.08
805.241	69.15
805.416	67.57
805.591	70.64
805.765	76.48
805.94	72.26
806.115	81.64
806.29	85.2
806.464	79.65
806.639	79.52
806.814	75.08
806.989	67.23
807.163	65.9
807.338	66.63
807.512	63.43
807.687	63.43
807.862	64.33
808.036	72.19
808.211	70.6
808.385	72.19
808.56	75.95
808.734	71.68
808.909	66.29
809.083	60.69
809.258	68.45
809.432	70.79
809.606	72.23
809.781	69.29
809.955	74.14
810.13	74.14
810.304	73.23
810.478	69.4
810.652	82.72
810.827	88.08
811.001	87.27
811.175	97.49
811.349	97.66
811.524	74.72
811.698	59.37
811.872	68.4
812.046	54.91
812.22	69.45
812.394	75.04
812.568	91.24
812.742	80.34
812.916	88.95
813.09	81.95
813.264	87.5
813.438	76.41
813.612	70.01
813.786	63.65
813.96	62.77
814.134	64.77
814.308	69.33
814.482	76.25
814.656	86.69
814.83	98.39
815.003	94.46
815.177	89.27
815.351	92.66
815.525	87.95
815.698	86.66
815.872	78.96
816.046	90.71
816.219	77.15
816.393	72.65
816.567	75.56
816.74	84.08
816.914	68.41
817.088	84.64
817.261	88.3
817.435	77.21
817.608	73.59
817.782	73.66
817.955	69.61
818.129	64.72
818.302	65.17
818.475	68.1
818.649	79.17
818.822	72.5
818.996	78.05
819.169	77.28
819.342	76.96
819.516	81.95
819.689	91.14
819.862	92.1
820.035	85.56
820.209	94.33
820.382	89.98
820.555	92.11
820.728	93.25
820.901	117.2
821.075	108.32
821.248	98.23
821.421	89.69
821.594	97.6
821.767	94.54
821.94	86.28
822.113	86.02
822.286	88.8
822.459	76.18
822.632	59.33
822.805	62.12
822.978	64.26
823.151	60.87
823.324	63.87
823.496	56.75
823.669	62.51
823.842	50.7
824.015	57.63
824.188	60.21
824.361	62.1
824.533	50.68
824.706	71.6
824.879	61.66
825.051	54.73
825.224	70.61
825.397	70.05
825.569	62.68
825.742	71.13
825.915	73.06
826.087	69.94
826.26	63.99
826.432	70.32
826.605	72.87
826.777	65.73
826.95	69.02
827.122	73.32
827.295	68.69
827.467	80.8
827.64	78.45
827.812	64.88
827.984	86.03
828.157	68.9
828.329	56.62
828.501	57.51
828.674	70.72
828.846	53.86
829.018	75.55
829.19	74.44
829.363	77.61
829.535	74.56
829.707	79.6
829.879	77.02
830.051	62.91
830.223	60.88
830.395	50.91
830.568	49.39
830.74	44.13
830.912	43.06
831.084	62.33
831.256	70.32
831.428	67.1
831.6	55.34
831.772	71.45
831.943	60.4
832.115	52.42
832.287	57.54
832.459	60.78
832.631	62.11
832.803	65.24
832.975	74.81
833.146	79.05
833.318	67.16
833.49	90.58
833.662	75.93
833.833	84.92
834.005	75.16
834.177	102.9
834.348	89.34
834.52	97.51
834.692	91.04
834.863	100.03
835.035	87.9
835.206	64.71
835.378	74.88
835.549	76.59
835.721	74.4
835.892	63
836.064	70.41
836.235	75.7
836.407	58.02
836.578	69.46
836.749	88.23
836.921	80.69
837.092	69.15
837.264	78.21
837.435	84.08
837.606	58.79
837.777	86.38
837.949	83.69
838.12	72.5
838.291	55.43
838.462	67.68
838.633	50.89
838.805	38.74
838.976	57.59
839.147	69.08
839.318	57.94
839.489	61.61
839.66	68.96
839.831	61.3
840.002	59.5
840.173	52.57
840.344	37.61
840.515	34.37
840.686	29.47
840.857	15.69
841.028	26.17
841.199	44.85
841.369	37.15
841.54	54.44
841.711	57.19
841.882	50.64
842.053	39.58
842.223	36.53
842.394	35.95
842.565	19.99
842.736	39.64
842.906	32.35
843.077	55.85
843.248	68.29
843.418	107.75
843.589	95.72
843.759	80.97
843.93	83.48
844.101	74.75
844.271	82.9
844.442	71.79
844.612	69.73
844.783	59.54
844.953	52.49
845.123	45.97
845.294	44.42
845.464	46.1
845.635	28.47
845.805	35.46
845.975	46.67
846.146	21.22
846.316	30.32
846.486	39.59
846.656	32.5
846.827	0.72
846.997	36.13
847.167	42.2
847.337	37.31
847.507	50.53
847.677	67.73
847.848	95.46
848.018	106.03
848.188	122.19
848.358	116.63
848.528	77.75
848.698	47.92
848.868	17.21
849.038	12.92
849.208	34.73
849.378	74.97
849.548	87.54
849.718	80.82
849.887	83.47
850.057	76.11
850.227	48.62
850.397	67
850.567	93.88
850.737	100.29
850.906	76.41
851.076	66.2
851.246	71.45
851.415	58.05
851.585	40.61
851.755	45.4
851.924	61.21
852.094	59.28
852.264	61.84
852.433	40.01
852.603	46.83
852.772	17.28
852.942	12.88
853.111	3.14
853.281	14.59
853.45	30.84
853.62	32.51
853.789	36.15
853.959	55.07
854.128	69.31
854.297	55.35
854.467	54.96
854.636	52.79
854.805	55.82
854.975	69.28
855.144	61.13
855.313	75.33
855.482	73.55
855.652	44.45
855.821	39.08
855.99	48.64
856.159	80.25
856.328	92.06
856.497	125.78
856.667	115.5
856.836	160.49
857.005	114.83
857.174	72.64
857.343	53.99
857.512	50.07
857.681	34.86
857.85	56.2
858.019	47.78
858.188	48.16
858.356	65.88
858.525	51.55
858.694	23.74
858.863	53.7
859.032	51.71
859.201	2.08
859.369	30
859.538	35.61
859.707	15.14
859.876	29.98
860.044	31.48
860.213	27.2
860.382	34.56
860.55	44.45
860.719	46.08
860.888	54.59
861.056	71.08
861.225	85.24
861.393	92.63
861.562	96.92
861.73	98.08
861.899	91.56
862.067	94.42
862.236	75.42
862.404	48.14
862.572	32.59
862.741	9.31
862.909	-11.11
863.078	5.46
863.246	41.46
863.414	71.23
863.582	104.85
863.751	85.42
863.919	70.8
864.087	99.26
864.255	50.16
864.424	36.18
864.592	22.08
864.76	33.01
864.928	29.96
865.096	61.07
865.264	40.34
865.432	70.22
865.6	56.58
865.768	39.09
865.936	42.02
866.104	41.39
866.272	54.78
866.44	38.1
866.608	42.87
866.776	22.96
866.944	-3.8
867.112	-24.4
867.28	-89.01
867.448	-8.07
867.615	94.73
867.783	82.91
867.951	78.92
868.119	95.17
868.286	56.96
868.454	48.89
868.622	42.49
868.789	21.11
868.957	4.21
869.125	-74.85
869.292	-50.1
869.46	-19.89
869.627	17.96
869.795	9.38
869.963	20.29
870.13	10.72
870.298	2.14
870.465	-26.3
870.632	6.32
870.8	27.71
870.967	18.17
871.135	6.07
871.302	16.49
871.469	131.27
871.637	21.14
871.804	50.63
871.971	27.23
872.139	45.25
872.306	64.51
872.473	55.44
872.64	42.13
872.807	78.9
872.975	137.22
873.142	155.05
873.309	4485.51
873.476	1286.09
873.643	387.79
873.81	178.55
873.977	135.99
874.144	103.22
874.311	62.62
874.478	23.22
874.645	23.86
874.812	28.99
874.979	36.64
875.146	41.56
875.313	50.87
875.48	205.17
875.647	-527.14
875.813	618.22
875.98	-1211.11
876.147	259.91
876.314	63.93
876.481	-59.42
876.647	34.92
876.814	19.75
876.981	83.94
877.147	71.88
877.314	96.27
877.481	108.34
877.647	136.96
877.814	115.33
877.98	127.63
878.147	148.69
878.314	187.29
878.48	129.46
878.647	139.02
878.813	715.5
878.979	167.3
879.146	76.79
879.312	75.6
879.479	64.04
879.645	92.53
879.811	69.02
879.978	80.97
880.144	74.39
880.31	78.25
880.477	48.46
880.643	86.81
880.809	136.04
880.975	5015.15
881.142	-180.24
881.308	-3390.67
881.474	324.14
881.64	179.96
881.806	126.5
881.972	157.66
882.138	138.02
882.304	169.04
882.47	179.08
882.636	162.81
882.802	213.28
882.968	344.97
883.134	148.3
883.3	131.47
883.466	136.06
883.632	103.12
883.798	74.95
883.964	72.61
884.129	78.95
884.295	82.72
884.461	38.1
884.627	26.96
884.793	38.56
884.958	38.15
885.124	55.49
885.29	72.24
885.455	175.37
885.621	116.7
885.787	150.3
885.952	-1
886.118	-84.05
886.283	3724.56
886.449	209.07
886.614	150.24
886.78	110.88
886.945	178.75
887.111	53.33
887.276	62.42
887.442	96.86
887.607	69.99
887.773	39.29
887.938	-1.38
888.103	8.34
888.269	-48.54
888.434	-29.46
888.599	-48.45
888.764	51.38
888.93	62.07
889.095	110.51
889.26	259.72
889.425	652.44
889.59	-1112.56
889.756	650.13
889.921	190.54
890.086	123.99
890.251	101.06
890.416	63.58
890.581	56.73
890.746	134.33
890.911	109.46
891.076	66.93
891.241	96.22
891.406	119.63
891.571	82.53
891.736	115.3
891.901	123.6
892.065	100.75
892.23	65.84
892.395	48.51
892.56	-59.1
892.725	144.68
892.889	91.07
893.054	73.24
893.219	69.77
893.384	71.23
893.548	-97.47
893.713	402.47
893.878	131.16
