Data from Ofav_PS_Phys_358_Reflection_1.txt Node
Date: Thu Jul 29 18:25:05 EDT 2021
User: USUARIO
Spectrometer: FLMT01687
Trigger mode: 0
Integration Time (sec): 9.010000E-1
Scans to average: 2
Electric dark correction enabled: true
Nonlinearity correction enabled: false
Boxcar width: 2
XAxis mode: Wavelengths
Number of Pixels in Spectrum: 3648
>>>>>Begin Spectral Data<<<<<
179.494	123.17
179.716	108.56
179.937	55.12
180.158	-167.23
180.38	62.84
180.601	-301.31
180.823	-127.14
181.044	-79.9
181.265	-21.51
181.486	-268.93
181.708	149.49
181.929	353.7
182.15	7961.9
182.372	-113.25
182.593	13.2
182.814	36.27
183.035	-166.32
183.257	104.02
183.478	75.21
183.699	82
183.92	67.16
184.141	75.74
184.363	75.64
184.584	43.81
184.805	40.72
185.026	53.61
185.247	42
185.468	44.33
185.689	83.72
185.91	169.42
186.132	227.37
186.353	146.18
186.574	121.18
186.795	117.63
187.016	70.13
187.237	41.35
187.458	32.3
187.679	26.79
187.9	37.54
188.121	78.25
188.342	67.46
188.563	68.11
188.784	65.43
189.005	46.94
189.226	51.35
189.447	66.52
189.667	63.47
189.888	69.65
190.109	113.42
190.33	138.51
190.551	62.76
190.772	78.87
190.993	63.27
191.214	33.44
191.434	39.29
191.655	51.15
191.876	44.37
192.097	46.61
192.318	53.82
192.538	65.74
192.759	54.14
192.98	57.06
193.201	65.49
193.421	62.18
193.642	55.87
193.863	48.29
194.083	33.25
194.304	-9.69
194.525	21.66
194.745	-2.43
194.966	2.91
195.187	16.44
195.407	43.65
195.628	10.63
195.848	69.9
196.069	108.71
196.29	69.24
196.51	63.84
196.731	80.54
196.951	74.1
197.172	71.02
197.392	83.64
197.613	85.17
197.833	52.05
198.054	33.72
198.274	41.25
198.495	31.73
198.715	21.11
198.936	54.42
199.156	49.53
199.377	55.56
199.597	72.01
199.817	86.67
200.038	72.37
200.258	77.91
200.479	85.64
200.699	64.22
200.919	38.25
201.14	15.9
201.36	37.82
201.58	44.14
201.801	45.82
202.021	64.89
202.241	94.81
202.461	110.58
202.682	121.64
202.902	122.69
203.122	111.19
203.342	120.08
203.563	107.28
203.783	92.61
204.003	77.77
204.223	109.47
204.443	70.54
204.663	85.41
204.884	95.61
205.104	110.49
205.324	85.26
205.544	93.67
205.764	78.39
205.984	74.78
206.204	82.84
206.424	76.47
206.644	68.07
206.864	93.03
207.084	75.53
207.304	91.84
207.525	89.8
207.745	123.78
207.964	76.75
208.184	81.73
208.404	57.32
208.624	79.51
208.844	64.45
209.064	82.76
209.284	86.4
209.504	90.38
209.724	111
209.944	96.73
210.164	80.26
210.384	70.43
210.604	63.09
210.823	37.59
211.043	44.74
211.263	77.07
211.483	90.18
211.703	68.52
211.922	88.13
212.142	89.32
212.362	61.86
212.582	54.72
212.801	61.41
213.021	34.81
213.241	23.19
213.461	42.17
213.68	17.29
213.9	6.08
214.12	21.44
214.339	3.59
214.559	-32.64
214.779	17.32
214.998	37.89
215.218	29
215.438	52.17
215.657	67.05
215.877	52.49
216.096	46.71
216.316	58.91
216.535	96.26
216.755	110.41
216.974	118.94
217.194	106.72
217.413	84.42
217.633	75.38
217.852	64.07
218.072	71.41
218.291	52.21
218.511	59.41
218.73	36.02
218.95	31.75
219.169	17.39
219.389	16.33
219.608	3.82
219.827	6.42
220.047	19.02
220.266	24.6
220.485	33.82
220.705	33.21
220.924	22.78
221.143	16.17
221.363	2.56
221.582	-14.55
221.801	-85.31
222.021	-30.02
222.24	-5.82
222.459	9.79
222.678	28.59
222.897	41.87
223.117	49.63
223.336	55.34
223.555	63.46
223.774	85.22
223.993	68.4
224.213	45.12
224.432	50.09
224.651	53.51
224.87	46.07
225.089	55.31
225.308	70.64
225.527	71.45
225.746	72.43
225.965	93.75
226.184	72.61
226.404	93.03
226.623	92.03
226.842	94.98
227.061	89.81
227.28	110.87
227.499	124.73
227.718	169.37
227.936	108.19
228.155	85.42
228.374	49.4
228.593	33.74
228.812	13.09
229.031	12.16
229.25	27.21
229.469	32.74
229.688	19.64
229.907	43.71
230.125	37.22
230.344	33.83
230.563	41.65
230.782	72.11
231.001	26.74
231.22	37.14
231.438	37.81
231.657	39.17
231.876	35.71
232.095	35.37
232.313	37.78
232.532	33.42
232.751	15.98
232.969	28.13
233.188	45.77
233.407	47.97
233.625	55.27
233.844	77.9
234.063	63.33
234.281	73.78
234.5	75.69
234.719	80.22
234.937	73.4
235.156	96.29
235.374	83.85
235.593	90.18
235.811	80.59
236.03	53.74
236.249	52.03
236.467	44.94
236.686	43.92
236.904	39.94
237.123	49.47
237.341	29.49
237.559	12.5
237.778	6.37
237.996	21.75
238.215	21.89
238.433	37.06
238.652	58.75
238.87	56.38
239.088	59.65
239.307	52
239.525	46.46
239.743	33.95
239.962	29.97
240.18	29.82
240.398	39.32
240.617	32.7
240.835	35.53
241.053	30.98
241.271	21.69
241.49	25.78
241.708	37.44
241.926	48.73
242.144	44.67
242.363	48.29
242.581	47.23
242.799	60.3
243.017	38.79
243.235	49.4
243.453	52.99
243.672	38.9
243.89	20.75
244.108	37.91
244.326	61.19
244.544	34.69
244.762	55.83
244.98	64.16
245.198	75.36
245.416	43.63
245.634	70.17
245.852	71.3
246.07	62.78
246.288	51.38
246.506	65.44
246.724	87.02
246.942	76.32
247.16	80.06
247.378	75
247.596	73.71
247.814	31.46
248.032	20.1
248.25	25.76
248.468	26.87
248.685	20.7
248.903	51.35
249.121	56.27
249.339	28.93
249.557	44.98
249.775	50.51
249.992	20.13
250.21	28.89
250.428	75.94
250.646	77.62
250.863	78.98
251.081	70.49
251.299	82.38
251.517	55.21
251.734	64.09
251.952	65.1
252.17	90.76
252.387	80.51
252.605	87.94
252.823	55.36
253.04	60.95
253.258	58.17
253.475	67.37
253.693	67.11
253.911	76.15
254.128	80.34
254.346	46.08
254.563	34.17
254.781	19.89
254.998	39.26
255.216	5.68
255.433	47.61
255.651	54.25
255.868	37.36
256.086	24.87
256.303	51.21
256.521	47.81
256.738	41.05
256.956	59.66
257.173	58.25
257.39	53.87
257.608	56.25
257.825	68.57
258.043	45.87
258.26	41.19
258.477	30.2
258.695	17.57
258.912	13.06
259.129	33.2
259.346	48.74
259.564	70.79
259.781	63.38
259.998	50.92
260.216	71.34
260.433	71.52
260.65	62.66
260.867	73.72
261.084	68.44
261.302	54.1
261.519	55.38
261.736	45.2
261.953	32.25
262.17	53.3
262.387	47.02
262.604	29.12
262.822	26.75
263.039	36.53
263.256	29.98
263.473	32.58
263.69	44.55
263.907	72.96
264.124	90.85
264.341	73.89
264.558	82.28
264.775	77.86
264.992	83.34
265.209	45.21
265.426	55.68
265.643	58.99
265.86	55.19
266.077	41.39
266.294	54.29
266.51	48.47
266.727	55.8
266.944	66.35
267.161	21.56
267.378	19.86
267.595	38.53
267.812	13.8
268.028	-19.72
268.245	57.06
268.462	54.13
268.679	34.79
268.896	32.38
269.112	42.3
269.329	29.4
269.546	33.56
269.763	28.87
269.979	33.5
270.196	39.97
270.413	43.91
270.629	38.32
270.846	36.01
271.063	40.18
271.279	40.09
271.496	25.74
271.712	34.43
271.929	60.57
272.146	79.51
272.362	63.8
272.579	83.37
272.795	83.27
273.012	49.01
273.228	25.73
273.445	44.03
273.661	22.79
273.878	4.71
274.094	26.37
274.311	38.28
274.527	33.78
274.744	45.19
274.96	50.43
275.177	41.65
275.393	27.82
275.609	18.12
275.826	0.24
276.042	4.06
276.259	-10.52
276.475	-9.23
276.691	16.65
276.908	19.1
277.124	22.93
277.34	44.11
277.557	47.02
277.773	36.54
277.989	40.59
278.205	37.12
278.422	19.12
278.638	23.56
278.854	21.45
279.07	51.62
279.286	19.19
279.503	36.3
279.719	37.69
279.935	29.2
280.151	0.46
280.367	29.64
280.583	20.87
280.799	15.44
281.016	39.79
281.232	61.15
281.448	59.11
281.664	61.83
281.88	55.31
282.096	48.07
282.312	17.55
282.528	9.64
282.744	29.11
282.96	39.25
283.176	41.71
283.392	66.63
283.608	64.3
283.824	55.28
284.04	56.97
284.256	63.52
284.471	58.71
284.687	62.35
284.903	40.95
285.119	56.31
285.335	43.7
285.551	48.49
285.767	51.27
285.982	52.55
286.198	40.28
286.414	51.48
286.63	53.6
286.846	58.66
287.061	51.54
287.277	68.19
287.493	52.24
287.709	57.27
287.924	51.41
288.14	64.99
288.356	58.13
288.571	61.41
288.787	47.62
289.003	49.99
289.218	38.75
289.434	34.11
289.65	41.7
289.865	41.04
290.081	32.95
290.296	44.79
290.512	42.79
290.727	24.41
290.943	36.36
291.159	36.54
291.374	36.22
291.59	36.19
291.805	37.21
292.021	47.9
292.236	38.95
292.451	-1.22
292.667	5.02
292.882	15.91
293.098	1.58
293.313	5.95
293.529	41.96
293.744	34.58
293.959	29.2
294.175	48
294.39	55.13
294.605	55.05
294.821	54.57
295.036	56.13
295.251	48.02
295.467	42.4
295.682	40.06
295.897	42.9
296.112	38.3
296.328	38.97
296.543	36.49
296.758	42.86
296.973	41.88
297.188	55.81
297.404	44.58
297.619	55.83
297.834	38.57
298.049	39.38
298.264	33.29
298.479	54.22
298.694	37.91
298.909	54.43
299.125	52.11
299.34	71.21
299.555	53.75
299.77	62.56
299.985	26.02
300.2	37.08
300.415	17.75
300.63	32.39
300.845	43.82
301.06	47.64
301.275	79.73
301.49	62.47
301.704	28.28
301.919	20.65
302.134	26.56
302.349	7.11
302.564	23.38
302.779	30.85
302.994	44.43
303.209	46.5
303.423	49.9
303.638	55.06
303.853	68.8
304.068	43.03
304.283	44.67
304.497	49.12
304.712	35.58
304.927	37.88
305.142	26.56
305.356	21.22
305.571	33.05
305.786	36.22
306	21.79
306.215	38.41
306.43	44.41
306.644	23.48
306.859	29.09
307.074	40.43
307.288	40.7
307.503	50.09
307.717	47.39
307.932	36.58
308.147	38.79
308.361	30.46
308.576	34.01
308.79	23.28
309.005	54.08
309.219	48.67
309.434	59.67
309.648	39.84
309.863	50.23
310.077	41.77
310.292	46.21
310.506	37.09
310.72	56.35
310.935	57.63
311.149	59.42
311.364	66.46
311.578	74.55
311.792	55.28
312.007	44.38
312.221	28.26
312.435	17.27
312.649	21.54
312.864	-8.89
313.078	25.17
313.292	6.24
313.507	4.93
313.721	30.12
313.935	26.59
314.149	23.99
314.363	29.89
314.578	39.46
314.792	24
315.006	41.32
315.22	48.36
315.434	57.9
315.648	50.86
315.862	50.16
316.077	47.37
316.291	46.87
316.505	50.61
316.719	59.44
316.933	54.64
317.147	38.81
317.361	26.84
317.575	16.35
317.789	13.99
318.003	22.34
318.217	41.52
318.431	49.67
318.645	48.77
318.859	58.96
319.073	51.2
319.287	32.32
319.5	10.52
319.714	22.88
319.928	13.7
320.142	45.33
320.356	62.5
320.57	76.65
320.784	64.91
320.997	48.65
321.211	31.56
321.425	18.99
321.639	13.66
321.853	14.94
322.066	-6.79
322.28	-5.66
322.494	3.09
322.707	15.51
322.921	15.27
323.135	31.83
323.349	25.48
323.562	12.99
323.776	9.01
323.989	13.59
324.203	24
324.417	38.4
324.63	39.13
324.844	30.84
325.057	30.91
325.271	29.64
325.485	36.94
325.698	47.28
325.912	53.14
326.125	41.35
326.339	41.52
326.552	24.2
326.766	32.27
326.979	39.68
327.193	52.77
327.406	62.4
327.619	51.26
327.833	39.18
328.046	30.53
328.26	43.4
328.473	24.63
328.686	27.71
328.9	29.03
329.113	7.66
329.326	-24.44
329.54	-49.81
329.753	-16.44
329.966	-2.53
330.179	4.32
330.393	1.38
330.606	14.17
330.819	26.96
331.032	22.09
331.246	23.41
331.459	4.99
331.672	18.06
331.885	11.52
332.098	20.27
332.311	32.61
332.525	50.94
332.738	46.95
332.951	32.55
333.164	30.74
333.377	37.94
333.59	42.72
333.803	52.96
334.016	55.56
334.229	60.28
334.442	48.21
334.655	48.43
334.868	41.06
335.081	47.41
335.294	46.86
335.507	59.25
335.72	63.19
335.933	56.07
336.146	66.64
336.359	61.48
336.572	31.96
336.785	24.03
336.997	29.93
337.21	21.19
337.423	46.6
337.636	60.63
337.849	57.15
338.062	51.38
338.274	68.14
338.487	43.43
338.7	30.09
338.913	24.83
339.125	33.2
339.338	20.2
339.551	21.65
339.763	35.16
339.976	31.27
340.189	31.5
340.402	29.06
340.614	15.27
340.827	13.67
341.039	33.48
341.252	33.73
341.465	40.08
341.677	42.88
341.89	36.79
342.102	32.79
342.315	38.24
342.527	37.76
342.74	46.88
342.952	44.86
343.165	56.22
343.377	48.49
343.59	56.54
343.802	46.9
344.015	46.5
344.227	23.27
344.44	34.89
344.652	35.53
344.864	39.63
345.077	43.45
345.289	54.64
345.502	54.22
345.714	27.5
345.926	26.77
346.139	12.69
346.351	19.41
346.563	15.05
346.775	16.05
346.988	14.67
347.2	16.55
347.412	14.73
347.624	30.11
347.837	31.64
348.049	32.86
348.261	55.02
348.473	49.7
348.685	44.16
348.897	51.63
349.11	41.3
349.322	27.62
349.534	33.71
349.746	25.1
349.958	17.4
350.17	30.26
350.382	34.21
350.594	23.45
350.806	25.82
351.018	22.67
351.23	15.89
351.442	17.81
351.654	37.78
351.866	13.83
352.078	31.8
352.29	26.74
352.502	26.43
352.714	21.55
352.926	42.97
353.138	57.25
353.35	48.3
353.561	45.84
353.773	38.19
353.985	40.86
354.197	28.78
354.409	32.96
354.621	18.16
354.832	2.31
355.044	-3.46
355.256	9.34
355.468	20.76
355.679	43.25
355.891	42.89
356.103	56.79
356.314	54.45
356.526	46.09
356.738	42.73
356.949	50.6
357.161	45.28
357.373	50.06
357.584	60.84
357.796	70.22
358.008	70.84
358.219	56.98
358.431	47.92
358.642	48.26
358.854	36.17
359.065	39.2
359.277	32.92
359.488	28.01
359.7	23.82
359.911	30.32
360.123	24.56
360.334	42.4
360.546	44
360.757	32.91
360.969	36.76
361.18	41.44
361.391	35.53
361.603	29.11
361.814	53.43
362.025	36.03
362.237	39.35
362.448	34.8
362.659	33.26
362.871	32.17
363.082	49.77
363.293	47.3
363.504	44.92
363.716	41.61
363.927	42.33
364.138	16.31
364.349	11.33
364.56	29.46
364.772	36.72
364.983	23.5
365.194	44.31
365.405	46.14
365.616	34.03
365.827	29.96
366.038	29.67
366.25	24.25
366.461	19.53
366.672	15.25
366.883	21.02
367.094	10.5
367.305	9.74
367.516	20.43
367.727	22.2
367.938	20.91
368.149	25.62
368.36	23.88
368.571	18.05
368.781	13.53
368.992	5.48
369.203	15.41
369.414	18.12
369.625	28.98
369.836	32.12
370.047	28.7
370.258	31.81
370.468	27.73
370.679	5.48
370.89	-6.98
371.101	9.68
371.312	3.02
371.522	14.3
371.733	34.12
371.944	38.26
372.155	31.69
372.365	17.2
372.576	4.88
372.787	5.02
372.997	14.75
373.208	15.37
373.419	24.56
373.629	35.53
373.84	35.93
374.05	25.48
374.261	40.21
374.472	30.31
374.682	18.49
374.893	19.76
375.103	31.94
375.314	28.06
375.524	40.05
375.735	47.69
375.945	45.64
376.156	35.18
376.366	22.62
376.577	27.36
376.787	22.91
376.997	20.18
377.208	20.05
377.418	27.13
377.629	24.95
377.839	26.53
378.049	32.29
378.26	31.42
378.47	32.88
378.68	32.17
378.89	28.32
379.101	25.61
379.311	29.97
379.521	27.58
379.732	28.29
379.942	28.88
380.152	28.33
380.362	30.16
380.572	30.97
380.783	16.27
380.993	22.76
381.203	36.12
381.413	32.98
381.623	27.13
381.833	43.26
382.043	40.94
382.253	34.54
382.463	34.71
382.674	39.05
382.884	28.42
383.094	12.48
383.304	12.36
383.514	8.96
383.724	16.27
383.934	12.98
384.144	24.64
384.353	28.94
384.563	32.55
384.773	26.17
384.983	32.21
385.193	32.73
385.403	21.95
385.613	24.12
385.823	21.25
386.033	19.29
386.242	14.73
386.452	15.84
386.662	11.49
386.872	18.48
387.082	16.47
387.291	12.18
387.501	12.43
387.711	13.44
387.921	5.91
388.13	4.14
388.34	8.99
388.55	9.68
388.759	9.71
388.969	10.73
389.179	13.1
389.388	10.27
389.598	10.36
389.807	7.66
390.017	9.61
390.227	13.2
390.436	13.18
390.646	12.74
390.855	15.21
391.065	12.58
391.274	7.05
391.484	6.54
391.693	5.89
391.903	4.99
392.112	6.17
392.322	7.66
392.531	7.23
392.74	5.71
392.95	5.02
393.159	6.29
393.369	8.04
393.578	8.37
393.787	9.81
393.997	9.14
394.206	8.34
394.415	7.7
394.625	8.02
394.834	6.34
395.043	6.44
395.252	7.31
395.462	6.75
395.671	7.14
395.88	9.18
396.089	9.78
396.298	9.13
396.508	8.9
396.717	8.36
396.926	7.84
397.135	7.2
397.344	6.8
397.553	7.07
397.762	7.59
397.971	7.17
398.181	7.26
398.39	6.7
398.599	6.8
398.808	6.61
399.017	7.36
399.226	7.79
399.435	8.31
399.644	8.44
399.853	8.53
400.062	8.34
400.27	8.46
400.479	8.38
400.688	8.13
400.897	7.88
401.106	7.58
401.315	6.99
401.524	7.11
401.733	7.01
401.941	6.95
402.15	7.12
402.359	7.06
402.568	6.94
402.777	6.83
402.985	6.93
403.194	6.66
403.403	6.72
403.612	6.63
403.82	6.84
404.029	6.69
404.238	6.62
404.446	6.68
404.655	6.58
404.864	6.41
405.072	6.36
405.281	6.4
405.489	6.21
405.698	6.28
405.906	6.22
406.115	6.21
406.324	6.12
406.532	6.17
406.741	6.15
406.949	6.17
407.158	6.08
407.366	6.14
407.574	6.01
407.783	5.98
407.991	5.81
408.2	5.9
408.408	5.93
408.617	5.98
408.825	5.9
409.033	6.12
409.242	6.16
409.45	6.05
409.658	6.1
409.867	6.05
410.075	5.91
410.283	5.76
410.491	5.7
410.7	5.74
410.908	5.89
411.116	5.91
411.324	5.9
411.533	5.95
411.741	5.93
411.949	5.94
412.157	5.77
412.365	5.7
412.573	5.57
412.781	5.51
412.99	5.34
413.198	5.37
413.406	5.48
413.614	5.59
413.822	5.58
414.03	5.6
414.238	5.65
414.446	5.6
414.654	5.59
414.862	5.54
415.07	5.36
415.278	5.24
415.486	5.21
415.694	5.22
415.902	5.17
416.109	5.24
416.317	5.32
416.525	5.3
416.733	5.35
416.941	5.42
417.149	5.42
417.357	5.31
417.564	5.3
417.772	5.14
417.98	5.14
418.188	5.17
418.395	5.19
418.603	4.98
418.811	5.12
419.019	5.18
419.226	5.39
419.434	5.43
419.642	5.49
419.849	5.37
420.057	5.24
420.265	4.96
420.472	5.01
420.68	5.12
420.887	5.08
421.095	5.05
421.302	5.17
421.51	5.26
421.717	5.23
421.925	5.29
422.132	5.3
422.34	4.99
422.547	4.75
422.755	4.88
422.962	4.96
423.17	4.78
423.377	5.09
423.585	5.24
423.792	5.1
423.999	4.95
424.207	5.17
424.414	4.97
424.621	4.95
424.829	4.96
425.036	4.94
425.243	5.01
425.451	5.12
425.658	5.07
425.865	5.03
426.072	5
426.28	5.06
426.487	5.05
426.694	5.04
426.901	4.89
427.108	5.04
427.315	4.94
427.523	4.92
427.73	4.96
427.937	5.19
428.144	5.03
428.351	4.89
428.558	4.98
428.765	4.98
428.972	4.95
429.179	4.98
429.386	5.03
429.593	5.08
429.8	5.1
430.007	5.19
430.214	5.26
430.421	5.34
430.628	5.29
430.835	5.16
431.042	5.08
431.249	5.2
431.456	5.1
431.662	5.24
431.869	5.48
432.076	5.55
432.283	5.47
432.49	5.5
432.697	5.4
432.903	5.22
433.11	5.08
433.317	5.01
433.524	5.12
433.73	5.05
433.937	5.14
434.144	5.26
434.35	5.52
434.557	5.43
434.764	5.46
434.97	5.43
435.177	5.49
435.384	5.23
435.59	5.19
435.797	5.15
436.003	5.19
436.21	5.14
436.416	5.21
436.623	5.31
436.829	5.37
437.036	5.39
437.242	5.52
437.449	5.61
437.655	5.6
437.862	5.74
438.068	5.75
438.275	5.71
438.481	5.64
438.687	5.59
438.894	5.54
439.1	5.55
439.307	5.51
439.513	5.54
439.719	5.5
439.926	5.5
440.132	5.57
440.338	5.53
440.544	5.48
440.751	5.48
440.957	5.51
441.163	5.54
441.369	5.71
441.575	5.74
441.782	5.78
441.988	5.73
442.194	5.72
442.4	5.63
442.606	5.85
442.812	5.95
443.018	6.02
443.224	6.03
443.431	6.03
443.637	5.82
443.843	5.81
444.049	5.81
444.255	5.83
444.461	5.9
444.667	5.85
444.873	5.76
445.079	5.7
445.284	5.61
445.49	5.51
445.696	5.59
445.902	5.64
446.108	5.58
446.314	5.65
446.52	5.75
446.726	5.8
446.931	5.89
447.137	5.99
447.343	5.98
447.549	6
447.755	5.93
447.96	6
448.166	6.06
448.372	6.02
448.578	5.97
448.783	6.08
448.989	6.08
449.195	5.95
449.4	6
449.606	6.1
449.812	6.05
450.017	5.95
450.223	5.95
450.428	5.93
450.634	5.86
450.84	5.95
451.045	5.91
451.251	6.03
451.456	6.13
451.662	6.11
451.867	6.11
452.073	6.17
452.278	6.12
452.483	6
452.689	6.14
452.894	6.1
453.1	6.17
453.305	6.27
453.51	6.33
453.716	6.25
453.921	6.3
454.127	6.31
454.332	6.14
454.537	6.19
454.742	6.28
454.948	6.16
455.153	6.09
455.358	6.2
455.563	6.11
455.769	5.92
455.974	6.07
456.179	6.01
456.384	5.99
456.589	6.21
456.795	6.3
457	6.33
457.205	6.55
457.41	6.53
457.615	6.41
457.82	6.55
458.025	6.47
458.23	6.32
458.435	6.36
458.64	6.32
458.845	6.23
459.05	6.28
459.255	6.36
459.46	6.5
459.665	6.69
459.87	6.75
460.075	6.67
460.28	6.64
460.485	6.67
460.69	6.51
460.895	6.38
461.099	6.46
461.304	6.52
461.509	6.43
461.714	6.47
461.919	6.54
462.123	6.53
462.328	6.49
462.533	6.56
462.738	6.61
462.942	6.54
463.147	6.58
463.352	6.65
463.556	6.68
463.761	6.62
463.966	6.82
464.17	6.87
464.375	6.83
464.58	6.77
464.784	6.86
464.989	6.74
465.193	6.78
465.398	6.83
465.602	6.9
465.807	6.9
466.011	7.05
466.216	7.01
466.42	7.03
466.625	7.17
466.829	7.28
467.034	7.27
467.238	7.27
467.443	7.26
467.647	7.04
467.851	6.99
468.056	6.91
468.26	6.92
468.464	6.9
468.669	7.09
468.873	7.15
469.077	7.2
469.282	7.14
469.486	7.08
469.69	6.95
469.894	6.88
470.099	6.92
470.303	7.11
470.507	7.26
470.711	7.34
470.915	7.38
471.119	7.33
471.324	7.28
471.528	7.19
471.732	7.24
471.936	7.19
472.14	7.28
472.344	7.32
472.548	7.4
472.752	7.47
472.956	7.53
473.16	7.42
473.364	7.38
473.568	7.4
473.772	7.33
473.976	7.39
474.18	7.5
474.384	7.47
474.588	7.39
474.792	7.37
474.995	7.33
475.199	7.43
475.403	7.41
475.607	7.48
475.811	7.51
476.015	7.52
476.218	7.38
476.422	7.43
476.626	7.36
476.83	7.3
477.033	7.37
477.237	7.39
477.441	7.4
477.644	7.44
477.848	7.51
478.052	7.47
478.255	7.46
478.459	7.44
478.663	7.52
478.866	7.49
479.07	7.56
479.273	7.59
479.477	7.58
479.681	7.6
479.884	7.62
480.088	7.43
480.291	7.43
480.495	7.51
480.698	7.51
480.901	7.52
481.105	7.67
481.308	7.63
481.512	7.63
481.715	7.57
481.919	7.63
482.122	7.64
482.325	7.73
482.529	7.77
482.732	7.85
482.935	7.74
483.138	7.69
483.342	7.61
483.545	7.61
483.748	7.52
483.952	7.66
484.155	7.73
484.358	7.78
484.561	7.71
484.764	7.71
484.967	7.71
485.171	7.72
485.374	7.69
485.577	7.73
485.78	7.73
485.983	7.67
486.186	7.62
486.389	7.67
486.592	7.64
486.795	7.6
486.998	7.55
487.201	7.62
487.404	7.64
487.607	7.74
487.81	7.78
488.013	7.87
488.216	7.8
488.419	7.8
488.622	7.69
488.825	7.7
489.028	7.67
489.231	7.68
489.433	7.64
489.636	7.65
489.839	7.65
490.042	7.64
490.245	7.64
490.447	7.62
490.65	7.67
490.853	7.67
491.056	7.71
491.258	7.68
491.461	7.69
491.664	7.67
491.866	7.68
492.069	7.63
492.272	7.6
492.474	7.58
492.677	7.55
492.879	7.49
493.082	7.49
493.285	7.58
493.487	7.56
493.69	7.53
493.892	7.57
494.095	7.58
494.297	7.54
494.5	7.62
494.702	7.66
494.905	7.66
495.107	7.64
495.309	7.61
495.512	7.55
495.714	7.63
495.917	7.62
496.119	7.62
496.321	7.65
496.524	7.71
496.726	7.6
496.928	7.59
497.13	7.57
497.333	7.59
497.535	7.54
497.737	7.58
497.939	7.63
498.142	7.69
498.344	7.68
498.546	7.61
498.748	7.65
498.95	7.68
499.152	7.64
499.355	7.65
499.557	7.73
499.759	7.73
499.961	7.65
500.163	7.64
500.365	7.63
500.567	7.64
500.769	7.57
500.971	7.59
501.173	7.61
501.375	7.66
501.577	7.6
501.779	7.69
501.981	7.71
502.183	7.71
502.385	7.6
502.587	7.57
502.788	7.52
502.99	7.56
503.192	7.55
503.394	7.63
503.596	7.7
503.798	7.68
503.999	7.59
504.201	7.65
504.403	7.66
504.605	7.68
504.806	7.69
505.008	7.74
505.21	7.78
505.411	7.78
505.613	7.78
505.815	7.82
506.016	7.84
506.218	7.79
506.42	7.78
506.621	7.74
506.823	7.67
507.024	7.63
507.226	7.69
507.427	7.71
507.629	7.79
507.83	7.83
508.032	7.88
508.233	7.86
508.435	7.78
508.636	7.83
508.838	7.84
509.039	7.8
509.24	7.76
509.442	7.8
509.643	7.7
509.845	7.71
510.046	7.82
510.247	7.85
510.448	7.94
510.65	7.96
510.851	7.94
511.052	7.94
511.254	7.91
511.455	7.93
511.656	7.92
511.857	7.93
512.058	7.82
512.26	7.82
512.461	7.73
512.662	7.75
512.863	7.7
513.064	7.72
513.265	7.66
513.466	7.68
513.667	7.7
513.868	7.78
514.069	7.75
514.27	7.82
514.471	7.83
514.672	7.8
514.873	7.74
515.074	7.83
515.275	7.8
515.476	7.76
515.677	7.83
515.878	7.93
516.079	7.88
516.28	7.92
516.481	7.99
516.682	7.96
516.882	7.86
517.083	7.87
517.284	7.83
517.485	7.78
517.686	7.82
517.886	7.85
518.087	7.87
518.288	7.87
518.488	7.87
518.689	7.84
518.89	7.84
519.091	7.91
519.291	7.92
519.492	7.96
519.692	7.99
519.893	8.09
520.094	8.02
520.294	8.04
520.495	8.03
520.695	8.03
520.896	7.99
521.096	8.04
521.297	8.11
521.497	8.16
521.698	8.08
521.898	8.06
522.099	8.03
522.299	7.93
522.499	7.91
522.7	7.95
522.9	7.96
523.101	7.97
523.301	7.97
523.501	7.91
523.702	7.97
523.902	7.99
524.102	8.07
524.302	8.15
524.503	8.23
524.703	8.2
524.903	8.21
525.103	8.14
525.304	8.1
525.504	8.1
525.704	8.04
525.904	8.06
526.104	8.05
526.304	8.04
526.504	8.03
526.705	8.06
526.905	8.04
527.105	8.09
527.305	8.1
527.505	8.08
527.705	8.13
527.905	8.15
528.105	8.08
528.305	8.05
528.505	8.08
528.705	8.1
528.905	8.07
529.105	8.06
529.304	8.1
529.504	8.13
529.704	8.11
529.904	8.12
530.104	8.12
530.304	8.12
530.503	8.08
530.703	8.02
530.903	8.06
531.103	8.09
531.303	8.14
531.502	8.19
531.702	8.25
531.902	8.23
532.101	8.25
532.301	8.23
532.501	8.29
532.7	8.31
532.9	8.31
533.1	8.38
533.299	8.34
533.499	8.3
533.698	8.28
533.898	8.36
534.097	8.29
534.297	8.35
534.496	8.3
534.696	8.35
534.895	8.34
535.095	8.36
535.294	8.32
535.494	8.36
535.693	8.23
535.892	8.27
536.092	8.28
536.291	8.33
536.491	8.36
536.69	8.44
536.889	8.32
537.088	8.34
537.288	8.34
537.487	8.34
537.686	8.35
537.886	8.44
538.085	8.43
538.284	8.42
538.483	8.44
538.682	8.49
538.882	8.5
539.081	8.57
539.28	8.51
539.479	8.53
539.678	8.54
539.877	8.53
540.076	8.53
540.275	8.68
540.474	8.67
540.673	8.7
540.872	8.7
541.071	8.64
541.27	8.64
541.469	8.65
541.668	8.67
541.867	8.74
542.066	8.78
542.265	8.79
542.464	8.82
542.663	8.87
542.862	9
543.06	9.14
543.259	9.23
543.458	9.31
543.657	9.4
543.856	9.33
544.054	9.26
544.253	9.19
544.452	9.14
544.651	9.08
544.849	9.05
545.048	9.05
545.247	9.12
545.445	9.18
545.644	9.17
545.843	9.24
546.041	9.3
546.24	9.33
546.438	9.32
546.637	9.36
546.836	9.42
547.034	9.42
547.233	9.44
547.431	9.49
547.63	9.49
547.828	9.49
548.027	9.52
548.225	9.48
548.423	9.5
548.622	9.6
548.82	9.58
549.019	9.62
549.217	9.66
549.415	9.72
549.614	9.78
549.812	9.83
550.01	9.85
550.209	9.95
550.407	9.97
550.605	9.96
550.803	9.99
551.002	10.01
551.2	9.97
551.398	10.04
551.596	10.06
551.794	10.15
551.993	10.21
552.191	10.26
552.389	10.25
552.587	10.31
552.785	10.27
552.983	10.34
553.181	10.5
553.379	10.62
553.577	10.66
553.775	10.79
553.973	10.87
554.171	10.83
554.369	10.87
554.567	10.91
554.765	10.88
554.963	10.87
555.161	10.9
555.359	10.93
555.557	11.02
555.755	11.14
555.952	11.3
556.15	11.39
556.348	11.4
556.546	11.44
556.744	11.46
556.941	11.43
557.139	11.53
557.337	11.72
557.535	11.74
557.732	11.83
557.93	11.92
558.128	11.89
558.325	11.87
558.523	11.96
558.721	11.95
558.918	11.92
559.116	12.03
559.313	12.06
559.511	12.19
559.708	12.29
559.906	12.43
560.104	12.48
560.301	12.53
560.498	12.55
560.696	12.6
560.893	12.58
561.091	12.7
561.288	12.84
561.486	12.81
561.683	12.9
561.88	13.05
562.078	13.16
562.275	13.18
562.473	13.27
562.67	13.33
562.867	13.38
563.064	13.47
563.262	13.5
563.459	13.63
563.656	13.71
563.853	13.79
564.051	13.74
564.248	13.86
564.445	13.94
564.642	13.93
564.839	14.01
565.036	14.11
565.234	14.18
565.431	14.21
565.628	14.29
565.825	14.31
566.022	14.36
566.219	14.36
566.416	14.4
566.613	14.47
566.81	14.57
567.007	14.61
567.204	14.7
567.401	14.74
567.598	14.82
567.795	14.75
567.991	14.81
568.188	14.87
568.385	14.91
568.582	14.92
568.779	14.98
568.976	14.97
569.172	15.08
569.369	15.11
569.566	15.13
569.763	15.33
569.96	15.54
570.156	15.5
570.353	15.55
570.55	15.62
570.746	15.6
570.943	15.43
571.14	15.45
571.336	15.47
571.533	15.48
571.729	15.47
571.926	15.62
572.123	15.61
572.319	15.67
572.516	15.76
572.712	15.77
572.909	15.73
573.105	15.87
573.302	15.82
573.498	15.8
573.695	15.87
573.891	15.95
574.087	15.95
574.284	16.11
574.48	16.18
574.677	16.14
574.873	16.09
575.069	16.11
575.266	16.1
575.462	16.05
575.658	16.1
575.854	16.19
576.051	16.2
576.247	16.16
576.443	16.2
576.639	16.26
576.835	16.25
577.032	16.18
577.228	16.28
577.424	16.33
577.62	16.24
577.816	16.25
578.012	16.26
578.208	16.19
578.404	16.11
578.6	16.19
578.796	16.16
578.993	16.16
579.189	16.17
579.384	16.13
579.58	16.03
579.776	16.01
579.972	15.91
580.168	15.85
580.364	15.86
580.56	15.9
580.756	15.83
580.952	15.83
581.148	15.87
581.343	15.86
581.539	15.85
581.735	15.96
581.931	16.07
582.127	15.97
582.322	15.99
582.518	15.99
582.714	15.91
582.909	15.79
583.105	15.81
583.301	15.79
583.496	15.78
583.692	15.75
583.888	15.84
584.083	15.86
584.279	15.9
584.474	15.89
584.67	15.85
584.866	15.8
585.061	15.77
585.257	15.76
585.452	15.71
585.648	15.78
585.843	15.75
586.039	15.78
586.234	15.72
586.429	15.7
586.625	15.6
586.82	15.6
587.015	15.52
587.211	15.41
587.406	15.37
587.601	15.46
587.797	15.4
587.992	15.44
588.187	15.52
588.383	15.64
588.578	15.71
588.773	15.77
588.968	15.73
589.163	15.85
589.359	15.83
589.554	15.78
589.749	15.84
589.944	15.92
590.139	15.81
590.334	15.74
590.529	15.68
590.724	15.63
590.919	15.6
591.114	15.69
591.309	15.77
591.504	15.89
591.699	15.87
591.894	15.86
592.089	15.81
592.284	15.83
592.479	15.78
592.674	15.77
592.869	15.78
593.064	15.88
593.259	15.97
593.454	15.93
593.648	16
593.843	16.07
594.038	16
594.233	15.96
594.428	16.05
594.622	16.11
594.817	16.16
595.012	16.24
595.206	16.28
595.401	16.34
595.596	16.36
595.79	16.3
595.985	16.38
596.18	16.36
596.374	16.36
596.569	16.35
596.763	16.49
596.958	16.55
597.153	16.63
597.347	16.74
597.542	16.83
597.736	16.83
597.931	16.72
598.125	16.8
598.319	16.86
598.514	16.88
598.708	17
598.903	17.14
599.097	17.13
599.291	17.1
599.486	17.23
599.68	17.15
599.874	17.1
600.069	17.16
600.263	17.14
600.457	17.06
600.651	17.12
600.846	17.18
601.04	17.19
601.234	17.2
601.428	17.27
601.622	17.31
601.817	17.22
602.011	17.25
602.205	17.28
602.399	17.23
602.593	17.22
602.787	17.32
602.981	17.24
603.175	17.32
603.369	17.36
603.563	17.35
603.757	17.32
603.951	17.46
604.145	17.33
604.339	17.4
604.533	17.34
604.727	17.33
604.921	17.26
605.115	17.31
605.309	17.11
605.502	17.04
605.696	16.99
605.89	16.89
606.084	16.91
606.278	16.89
606.471	16.98
606.665	16.99
606.859	16.91
607.053	16.75
607.246	16.82
607.44	16.66
607.634	16.64
607.827	16.75
608.021	16.82
608.214	16.73
608.408	16.77
608.602	16.76
608.795	16.6
608.989	16.49
609.182	16.42
609.376	16.43
609.569	16.33
609.763	16.27
609.956	16.31
610.15	16.19
610.343	16.02
610.537	15.87
610.73	15.78
610.923	15.7
611.117	15.78
611.31	15.78
611.504	15.92
611.697	15.96
611.89	15.92
612.083	15.82
612.277	15.73
612.47	15.58
612.663	15.55
612.856	15.51
613.05	15.58
613.243	15.57
613.436	15.47
613.629	15.42
613.822	15.28
614.015	15.13
614.209	15.06
614.402	15.04
614.595	14.93
614.788	14.95
614.981	14.91
615.174	14.9
615.367	14.89
615.56	14.85
615.753	14.8
615.946	14.71
616.139	14.74
616.332	14.73
616.525	14.67
616.718	14.52
616.911	14.49
617.103	14.41
617.296	14.29
617.489	14.31
617.682	14.38
617.875	14.41
618.067	14.32
618.26	14.32
618.453	14.26
618.646	14.17
618.838	14.09
619.031	13.99
619.224	13.9
619.417	13.91
619.609	13.88
619.802	13.94
619.994	13.93
620.187	13.91
620.38	13.91
620.572	13.89
620.765	13.82
620.957	13.78
621.15	13.73
621.342	13.67
621.535	13.72
621.727	13.71
621.92	13.74
622.112	13.82
622.305	13.83
622.497	13.84
622.69	13.7
622.882	13.74
623.074	13.75
623.267	13.66
623.459	13.65
623.651	13.7
623.844	13.68
624.036	13.57
624.228	13.6
624.42	13.51
624.613	13.51
624.805	13.49
624.997	13.48
625.189	13.47
625.381	13.54
625.574	13.53
625.766	13.53
625.958	13.64
626.15	13.65
626.342	13.56
626.534	13.55
626.726	13.47
626.918	13.41
627.11	13.34
627.302	13.24
627.494	13.15
627.686	13.16
627.878	13.06
628.07	13.04
628.262	13.12
628.454	13.11
628.646	13.13
628.838	13.24
629.029	13.12
629.221	13.06
629.413	13.07
629.605	12.99
629.797	12.92
629.989	13.02
630.18	13.02
630.372	13
630.564	13.01
630.755	12.91
630.947	12.86
631.139	12.76
631.33	12.76
631.522	12.74
631.714	12.66
631.905	12.62
632.097	12.58
632.289	12.56
632.48	12.5
632.672	12.5
632.863	12.44
633.055	12.48
633.246	12.44
633.438	12.42
633.629	12.42
633.821	12.4
634.012	12.36
634.203	12.39
634.395	12.4
634.586	12.49
634.777	12.47
634.969	12.41
635.16	12.38
635.351	12.27
635.543	12.21
635.734	12.22
635.925	12.25
636.117	12.25
636.308	12.39
636.499	12.36
636.69	12.33
636.881	12.41
637.073	12.42
637.264	12.29
637.455	12.21
637.646	12.23
637.837	12.21
638.028	12.21
638.219	12.22
638.41	12.23
638.601	12.18
638.792	12.11
638.983	12.01
639.174	11.95
639.365	11.92
639.556	11.91
639.747	11.9
639.938	11.95
640.129	12.01
640.32	12.04
640.511	11.97
640.701	11.96
640.892	11.89
641.083	11.83
641.274	11.82
641.465	11.87
641.655	11.8
641.846	11.72
642.037	11.67
642.228	11.63
642.418	11.55
642.609	11.59
642.8	11.6
642.99	11.6
643.181	11.56
643.372	11.64
643.562	11.55
643.753	11.59
643.943	11.58
644.134	11.58
644.324	11.54
644.515	11.57
644.705	11.55
644.896	11.52
645.086	11.51
645.277	11.46
645.467	11.48
645.658	11.45
645.848	11.38
646.038	11.36
646.229	11.39
646.419	11.38
646.61	11.4
646.8	11.51
646.99	11.49
647.18	11.4
647.371	11.42
647.561	11.31
647.751	11.2
647.941	11.2
648.132	11.23
648.322	11.2
648.512	11.2
648.702	11.26
648.892	11.24
649.082	11.29
649.272	11.19
649.462	11.18
649.653	11.17
649.843	11.12
650.033	11.15
650.223	11.16
650.413	11.19
650.603	11.28
650.793	11.39
650.983	11.19
651.172	11.17
651.362	11.1
651.552	10.96
651.742	10.85
651.932	10.82
652.122	10.89
652.312	10.91
652.502	10.75
652.691	10.75
652.881	10.78
653.071	10.66
653.261	10.58
653.45	10.67
653.64	10.53
653.83	10.43
654.019	10.35
654.209	10.34
654.399	10.28
654.588	10.28
654.778	10.26
654.968	10.23
655.157	10.2
655.347	10.04
655.536	10
655.726	9.95
655.915	9.91
656.105	9.79
656.294	9.76
656.484	9.69
656.673	9.69
656.863	9.63
657.052	9.54
657.241	9.42
657.431	9.38
657.62	9.29
657.809	9.19
657.999	9.18
658.188	9.19
658.377	9.11
658.567	9
658.756	8.9
658.945	8.79
659.134	8.72
659.324	8.69
659.513	8.62
659.702	8.54
659.891	8.53
660.08	8.54
660.269	8.39
660.458	8.35
660.648	8.42
660.837	8.26
661.026	8.09
661.215	7.98
661.404	7.93
661.593	7.83
661.782	7.79
661.971	7.8
662.16	7.85
662.349	7.68
662.538	7.58
662.726	7.62
662.915	7.55
663.104	7.44
663.293	7.47
663.482	7.51
663.671	7.36
663.86	7.2
664.048	7.25
664.237	7.32
664.426	7.22
664.615	7.26
664.803	7.39
664.992	7.29
665.181	7.17
665.369	7.15
665.558	7
665.747	7.01
665.935	7.02
666.124	7.06
666.312	7.04
666.501	7.2
666.69	6.97
666.878	6.84
667.067	6.79
667.255	6.88
667.444	6.91
667.632	7.06
667.82	7.13
668.009	7.17
668.197	7.09
668.386	6.99
668.574	7.05
668.762	7.01
668.951	7
669.139	7.05
669.327	7.01
669.516	6.96
669.704	7.05
669.892	7.04
670.08	7.04
670.269	7.14
670.457	7.16
670.645	7.19
670.833	7.24
671.021	7.31
671.21	7.31
671.398	7.33
671.586	7.38
671.774	7.43
671.962	7.42
672.15	7.47
672.338	7.57
672.526	7.6
672.714	7.53
672.902	7.52
673.09	7.58
673.278	7.59
673.466	7.83
673.654	8.13
673.842	8.14
674.03	8.17
674.218	8.19
674.405	8.14
674.593	8.11
674.781	8.25
674.969	8.25
675.157	8.43
675.344	8.36
675.532	8.37
675.72	8.38
675.908	8.51
676.095	8.35
676.283	8.49
676.471	8.59
676.658	8.67
676.846	8.64
677.033	8.87
677.221	8.81
677.409	8.71
677.596	8.78
677.784	8.79
677.971	8.75
678.159	8.91
678.346	8.89
678.534	8.96
678.721	9.02
678.909	9.15
679.096	9.21
679.283	9.49
679.471	9.55
679.658	9.85
679.846	9.87
680.033	10.1
680.22	10.12
680.408	10.27
680.595	10.19
680.782	10.31
680.969	10.15
681.157	10.2
681.344	10.17
681.531	10.24
681.718	10.22
681.905	10.38
682.093	10.35
682.28	10.43
682.467	10.61
682.654	10.85
682.841	10.99
683.028	11.13
683.215	11.31
683.402	11.21
683.589	11.34
683.776	11.32
683.963	11.39
684.15	11.44
684.337	11.72
684.524	11.69
684.711	11.92
684.898	12.1
685.085	12.15
685.271	12.22
685.458	12.4
685.645	12.41
685.832	12.53
686.019	12.75
686.205	12.95
686.392	13.15
686.579	13.45
686.766	13.65
686.952	13.81
687.139	14
687.326	14.19
687.512	14.25
687.699	14.32
687.886	14.43
688.072	14.66
688.259	14.92
688.445	15.16
688.632	15.47
688.818	16.08
689.005	16.5
689.191	16.59
689.378	16.91
689.564	17.31
689.751	17.5
689.937	17.68
690.124	18.16
690.31	18.47
690.496	18.89
690.683	19.23
690.869	19.44
691.055	19.83
691.242	20.29
691.428	20.43
691.614	20.67
691.8	21.1
691.987	21.24
692.173	21.7
692.359	22.22
692.545	22.81
692.731	23.16
692.918	23.72
693.104	24.02
693.29	24.52
693.476	24.99
693.662	25.69
693.848	26.21
694.034	26.48
694.22	26.98
694.406	27.54
694.592	28.09
694.778	28.48
694.964	29.25
695.15	29.75
695.336	30.03
695.522	30.49
695.708	31.1
695.894	31.72
696.08	32.24
696.265	32.66
696.451	33.09
696.637	33.56
696.823	33.92
697.009	34.48
697.194	34.98
697.38	35.55
697.566	36.11
697.751	36.81
697.937	37.35
698.123	37.96
698.308	38.27
698.494	38.77
698.68	39.23
698.865	39.7
699.051	40.13
699.236	41.11
699.422	41.96
699.607	42.56
699.793	43.07
699.978	43.72
700.164	43.96
700.349	44.51
700.535	44.85
700.72	45.09
700.906	45.91
701.091	46.41
701.276	46.68
701.462	47.15
701.647	48.03
701.832	48.25
702.018	48.74
702.203	49.16
702.388	49.86
702.573	49.98
702.759	50.68
702.944	51.33
703.129	51.85
703.314	52.34
703.499	53.27
703.684	53.35
703.87	53.71
704.055	54.37
704.24	54.69
704.425	55.08
704.61	55.41
704.795	55.72
704.98	55.85
705.165	56.23
705.35	56.81
705.535	57.61
705.72	58.09
705.905	58.57
706.09	59.15
706.275	59.29
706.459	59.58
706.644	59.88
706.829	60.49
707.014	61.06
707.199	61.56
707.384	62.03
707.568	62.61
707.753	63.26
707.938	63.73
708.123	64.32
708.307	64.85
708.492	65.03
708.677	64.87
708.861	64.92
709.046	64.81
709.231	65.54
709.415	66.02
709.6	66.21
709.784	66.59
709.969	67.04
710.153	66.95
710.338	67.16
710.522	67.97
710.707	68.58
710.891	69.1
711.076	69.25
711.26	69.6
711.445	69.79
711.629	69.93
711.813	69.93
711.998	70.34
712.182	70.74
712.366	71.24
712.551	71.51
712.735	72.12
712.919	72.26
713.103	72.42
713.288	72.32
713.472	72.68
713.656	72.79
713.84	73.25
714.024	73.55
714.208	73.92
714.393	73.91
714.577	74.61
714.761	74.6
714.945	74.84
715.129	75.15
715.313	75.65
715.497	75.75
715.681	76.19
715.865	76.31
716.049	76.2
716.233	76.05
716.417	75.93
716.601	76.39
716.785	76.68
716.968	77.06
717.152	77.74
717.336	77.78
717.52	77.51
717.704	77.36
717.888	77.42
718.071	77.24
718.255	77.8
718.439	77.86
718.622	78.51
718.806	78.48
718.99	79.03
719.174	79.13
719.357	79.31
719.541	79.58
719.724	79.73
719.908	79.65
720.092	79.71
720.275	80.2
720.459	80.36
720.642	81.48
720.826	80.82
721.009	80.96
721.193	81.11
721.376	81.39
721.559	81.62
721.743	82.74
721.926	83.26
722.11	83.09
722.293	82.78
722.476	82.21
722.66	82.09
722.843	82.33
723.026	83.03
723.21	83.85
723.393	83.97
723.576	84.27
723.759	83.74
723.942	83.2
724.126	83.04
724.309	83.57
724.492	83.28
724.675	83.8
724.858	84.94
725.041	85.11
725.224	85.25
725.407	85.38
725.59	85.41
725.774	84.67
725.957	84.91
726.14	85.05
726.322	84.87
726.505	85.48
726.688	85.94
726.871	86.11
727.054	86.22
727.237	87.18
727.42	87.12
727.603	87.46
727.786	86.87
727.968	86.25
728.151	86.48
728.334	86.36
728.517	86.51
728.699	87.49
728.882	88.06
729.065	87.83
729.248	88.02
729.43	87.49
729.613	87.31
729.796	88.07
729.978	88.75
730.161	88.63
730.343	89.12
730.526	89.74
730.708	89.83
730.891	89.34
731.073	89.54
731.256	89.63
731.438	88.92
731.621	89.11
731.803	90.25
731.986	90.99
732.168	91.08
732.35	91.29
732.533	90.86
732.715	89.9
732.898	88.81
733.08	88.73
733.262	89.83
733.444	89.57
733.627	89.9
733.809	90.73
733.991	91.16
734.173	90.48
734.355	90.53
734.538	91.04
734.72	90.86
734.902	91.1
735.084	90.68
735.266	91.24
735.448	91.34
735.63	91.32
735.812	91.67
735.994	92.16
736.176	92.07
736.358	90.99
736.54	91.15
736.722	90.69
736.904	91.25
737.086	90.91
737.268	92.35
737.45	93.7
737.632	93.7
737.814	92.62
737.995	93.33
738.177	92.76
738.359	91.45
738.541	92.45
738.723	93.76
738.904	93.79
739.086	93.68
739.268	93.73
739.449	93.36
739.631	92.99
739.813	92.95
739.994	93.74
740.176	94.48
740.358	94.7
740.539	94.99
740.721	95.11
740.902	94.98
741.084	95.4
741.265	94.48
741.447	94.88
741.628	95.48
741.81	94.79
741.991	94.68
742.172	96.08
742.354	95.23
742.535	94.89
742.717	95.19
742.898	94.7
743.079	94.53
743.261	95.82
743.442	96.47
743.623	96.6
743.804	96.4
743.986	96.99
744.167	94.99
744.348	94.59
744.529	95.43
744.71	96.33
744.891	95.31
745.073	97.45
745.254	97.34
745.435	96.25
745.616	95.2
745.797	95.04
745.978	93.43
746.159	94.27
746.34	94.21
746.521	94.9
746.702	94.86
746.883	94.34
747.064	92.98
747.245	94.4
747.426	95.69
747.606	95.56
747.787	97.57
747.968	99.09
748.149	98.37
748.33	97.13
748.51	97.89
748.691	96.14
748.872	94.77
749.053	94.38
749.233	94.75
749.414	95.8
749.595	97.6
749.775	97.8
749.956	97.94
750.137	98.71
750.317	97.02
750.498	96.21
750.678	96.23
750.859	95.13
751.04	94.18
751.22	93.49
751.4	93.63
751.581	94.26
751.761	94.66
751.942	95.05
752.122	95.48
752.303	92.64
752.483	92.75
752.663	94.38
752.844	93.54
753.024	95.52
753.204	98.32
753.385	97.22
753.565	97.6
753.745	98.53
753.925	96.96
754.106	97.11
754.286	97.53
754.466	96.76
754.646	97.82
754.826	96.62
755.006	96.19
755.187	97.18
755.367	96.86
755.547	95.94
755.727	97.39
755.907	96.56
756.087	96.68
756.267	95.62
756.447	95.25
756.627	93.92
756.807	95.34
756.987	94.6
757.167	96.38
757.346	96.61
757.526	97.31
757.706	96.24
757.886	96.27
758.066	96.89
758.246	96.76
758.425	97.32
758.605	96.18
758.785	96.79
758.965	94.64
759.144	93.29
759.324	92.93
759.504	95.75
759.683	94.7
759.863	95.13
760.043	95.41
760.222	94.05
760.402	91.91
760.581	92.16
760.761	92.4
760.94	93.32
761.12	97.47
761.299	96.4
761.479	95.51
761.658	95.3
761.838	94.06
762.017	91.05
762.197	92.97
762.376	94.8
762.555	96.02
762.735	96.76
762.914	97.95
763.093	99.34
763.273	96.13
763.452	94.57
763.631	95.54
763.81	96.41
763.99	95.98
764.169	97.69
764.348	98.33
764.527	96.92
764.706	96.49
764.885	95.78
765.064	95.15
765.243	93.51
765.423	93.04
765.602	91.62
765.781	91.35
765.96	90.99
766.139	92.02
766.318	92.4
766.497	93.17
766.676	91.55
766.854	93.35
767.033	92.72
767.212	93.03
767.391	92.27
767.57	94.71
767.749	95
767.928	97.18
768.106	94.98
768.285	94.12
768.464	91.14
768.643	91.48
768.821	89.49
769	92.05
769.179	93.45
769.357	95.01
769.536	92.39
769.715	93.21
769.893	92.71
770.072	89.94
770.25	89.14
770.429	89.42
770.607	88.89
770.786	87.24
770.964	87.78
771.143	89.32
771.321	90.16
771.5	90.24
771.678	92.51
771.857	95.91
772.035	94.96
772.213	95.2
772.392	93.14
772.57	93.69
772.748	90.34
772.927	91.63
773.105	91.44
773.283	94.52
773.461	93.77
773.64	94.13
773.818	92.83
773.996	92.49
774.174	91.13
774.352	89.92
774.531	89.13
774.709	89.51
774.887	90.36
775.065	89.83
775.243	89.08
775.421	90.6
775.599	89.39
775.777	86.67
775.955	86.97
776.133	85.83
776.311	85.83
776.489	86.81
776.667	89.23
776.844	88.64
777.022	90.5
777.2	88.75
777.378	88.78
777.556	87.23
777.734	89.6
777.911	93.74
778.089	94.87
778.267	93.72
778.445	90.74
778.622	88.8
778.8	85.3
778.978	86.9
779.155	87.44
779.333	90.67
779.511	88.2
779.688	89.44
779.866	87.76
780.043	86.73
780.221	86.04
780.398	87.63
780.576	84.12
780.753	82.15
780.931	82.56
781.108	83.32
781.286	84.45
781.463	86.79
781.64	88.74
781.818	92.26
781.995	92.57
782.172	94.32
782.35	94.61
782.527	95.04
782.704	91.92
782.882	91.58
783.059	90.67
783.236	86.37
783.413	86.67
783.59	89.49
783.768	85.76
783.945	82.41
784.122	89.62
784.299	85.37
784.476	83.22
784.653	89.18
784.83	91.37
785.007	84.78
785.184	89
785.361	93.25
785.538	93.31
785.715	93.26
785.892	98.86
786.069	100.05
786.246	96.93
786.423	94.82
786.6	94.53
786.776	92.18
786.953	87.42
787.13	90.83
787.307	87.9
787.484	88.63
787.66	88.14
787.837	95.14
788.014	95.83
788.191	100.5
788.367	103.46
788.544	105.15
788.721	103.43
788.897	96.4
789.074	94.94
789.25	92.81
789.427	89.72
789.603	83.83
789.78	86.77
789.956	87.19
790.133	87.91
790.309	88.03
790.486	93.51
790.662	91.51
790.839	88.8
791.015	84.42
791.192	84.84
791.368	82.68
791.544	79.43
791.721	87.36
791.897	89.61
792.073	91.79
792.249	92.02
792.426	98.14
792.602	92.85
792.778	93.75
792.954	92.46
793.13	93.43
793.307	92.77
793.483	91.16
793.659	90.26
793.835	86.72
794.011	86.55
794.187	82.09
794.363	80.28
794.539	81.51
794.715	84.14
794.891	84.37
795.067	87.59
795.243	95.66
795.419	96.94
795.595	95.88
795.771	91.74
795.947	91.34
796.122	85.08
796.298	82.83
796.474	79.11
796.65	79.87
796.826	80.42
797.001	80.74
797.177	83.03
797.353	90.92
797.529	91.98
797.704	90.99
797.88	94.28
798.056	95.75
798.231	91.12
798.407	91.55
798.582	89.33
798.758	91.25
798.934	89.03
799.109	90.52
799.285	93.5
799.46	93.42
799.636	91.2
799.811	86.91
799.986	85.19
800.162	90.28
800.337	92.66
800.513	91.95
800.688	95.61
800.863	103.39
801.039	99.97
801.214	102.58
801.389	98.07
801.565	94.1
801.74	90.54
801.915	82.4
802.09	82.98
802.265	85.78
802.441	92.62
802.616	84.36
802.791	83.72
802.966	85.72
803.141	88.77
803.316	78.99
803.491	85.89
803.666	92.68
803.841	90.29
804.016	87.76
804.191	96.3
804.366	96.82
804.541	91.8
804.716	91.21
804.891	77.62
805.066	83.73
805.241	81.4
805.416	85.7
805.591	87.25
805.765	96.51
805.94	88.41
806.115	89.92
806.29	92.02
806.464	89.59
806.639	92
806.814	88.71
806.989	84.23
807.163	81.2
807.338	77.69
807.512	79.39
807.687	79.51
807.862	79.09
808.036	85.39
808.211	82.32
808.385	73.25
808.56	71.92
808.734	78.89
808.909	75.98
809.083	79.89
809.258	85.95
809.432	90.91
809.606	85.13
809.781	80.4
809.955	82.99
810.13	83
810.304	75.28
810.478	68.5
810.652	79.94
810.827	75.35
811.001	81.37
811.175	95.58
811.349	106.94
811.524	88.2
811.698	88.14
811.872	85.36
812.046	85.63
812.22	94.72
812.394	93.56
812.568	107.48
812.742	102.12
812.916	95.57
813.09	83.46
813.264	98.3
813.438	87.35
813.612	93.71
813.786	96.2
813.96	101.04
814.134	101.58
814.308	105.16
814.482	95.84
814.656	105.86
814.83	106.22
815.003	103.36
815.177	92.36
815.351	103.02
815.525	87.99
815.698	87.94
815.872	81.53
816.046	91.11
816.219	87.52
816.393	94.64
816.567	107.07
816.74	112.08
816.914	100.41
817.088	106.04
817.261	103.26
817.435	92.01
817.608	95.54
817.782	98.81
817.955	89.86
818.129	87.84
818.302	91.97
818.475	87.93
818.649	95.28
818.822	90.98
818.996	102.82
819.169	96.59
819.342	99.26
819.516	97.4
819.689	107.39
819.862	98.54
820.035	96.21
820.209	93.67
820.382	87.03
820.555	68.3
820.728	75.8
820.901	83.29
821.075	81.58
821.248	82.38
821.421	87.99
821.594	91.31
821.767	101.32
821.94	101.77
822.113	108.57
822.286	99.12
822.459	87.61
822.632	73.27
822.805	77.68
822.978	83.95
823.151	88
823.324	95.37
823.496	82.69
823.669	73.19
823.842	64.59
824.015	78.94
824.188	71.28
824.361	78.15
824.533	85.15
824.706	95.43
824.879	87.29
825.051	84.27
825.224	85.9
825.397	73.7
825.569	74.16
825.742	80.52
825.915	80.65
826.087	87.8
826.26	90.9
826.432	88.07
826.605	85.58
826.777	88.98
826.95	87.08
827.122	91.42
827.295	86.82
827.467	104.44
827.64	97.13
827.812	90.38
827.984	116.63
828.157	113.88
828.329	99.37
828.501	103.58
828.674	107.78
828.846	94.98
829.018	101.51
829.19	96.85
829.363	102.65
829.535	99.37
829.707	94.83
829.879	88.36
830.051	74.14
830.223	78.58
830.395	78.62
830.568	77.45
830.74	70
830.912	86.56
831.084	84.38
831.256	80.87
831.428	84.9
831.6	96.32
831.772	92.07
831.943	58.58
832.115	63.42
832.287	64.8
832.459	71.69
832.631	70.65
832.803	84.69
832.975	79.82
833.146	78.94
833.318	71.1
833.49	100.75
833.662	102.41
833.833	105.09
834.005	89.02
834.177	99.5
834.348	70.45
834.52	65.49
834.692	69.27
834.863	82.1
835.035	76
835.206	68.53
835.378	63.69
835.549	62.97
835.721	60.5
835.892	55.78
836.064	67.97
836.235	75.61
836.407	57.61
836.578	63.64
836.749	78.19
836.921	68.99
837.092	63.23
837.264	70.09
837.435	72.79
837.606	61.03
837.777	53.52
837.949	60.95
838.12	67.38
838.291	57.92
838.462	74.32
838.633	84.25
838.805	86.41
838.976	107.99
839.147	122.67
839.318	103.51
839.489	123.57
839.66	105.42
839.831	101.99
840.002	98.65
840.173	90.81
840.344	55.09
840.515	62.42
840.686	34.07
840.857	19.88
841.028	34.28
841.199	56.78
841.369	52.62
841.54	91.27
841.711	79.37
841.882	74.85
842.053	66.39
842.223	75.69
842.394	66.57
842.565	75.94
842.736	83.91
842.906	113.46
843.077	97.97
843.248	93.58
843.418	121.68
843.589	109.4
843.759	106.49
843.93	124.39
844.101	120.73
844.271	106.77
844.442	110.63
844.612	92.93
844.783	69.52
844.953	68.29
845.123	59.9
845.294	66.38
845.464	76.12
845.635	70.73
845.805	97.06
845.975	92.51
846.146	52.42
846.316	50.81
846.486	63.54
846.656	48.3
846.827	43.46
846.997	71.39
847.167	106.98
847.337	84.6
847.507	96.35
847.677	107.25
847.848	144.12
848.018	107.28
848.188	142.32
848.358	127.61
848.528	92.39
848.698	66.7
848.868	67.57
849.038	65.04
849.208	85.78
849.378	103.74
849.548	118.65
849.718	117.13
849.887	116.25
850.057	106.29
850.227	164.83
850.397	119.33
850.567	130.73
850.737	85.21
850.906	57.15
851.076	32.26
851.246	48.33
851.415	55.92
851.585	66.57
851.755	75.27
851.924	81.97
852.094	62.34
852.264	28.94
852.433	-18.9
852.603	12.8
852.772	14.46
852.942	26.79
853.111	45.61
853.281	89.97
853.45	94.35
853.62	94.48
853.789	91.18
853.959	76.47
854.128	50.25
854.297	53.04
854.467	45.41
854.636	41.79
854.805	58.14
854.975	61.79
855.144	114.34
855.313	132.19
855.482	140.89
855.652	104.08
855.821	118
855.99	101.28
856.159	147.12
856.328	166.05
856.497	196.37
856.667	155.78
856.836	222.69
857.005	173.96
857.174	108.36
857.343	195.31
857.512	253.51
857.681	80.3
857.85	95.96
858.019	86.06
858.188	82.3
858.356	84.7
858.525	99.86
858.694	86.69
858.863	144.46
859.032	131.99
859.201	114.6
859.369	110.2
859.538	146.68
859.707	100.91
859.876	100.33
860.044	105.44
860.213	107.36
860.382	103.36
860.55	134.32
860.719	161.31
860.888	121.91
861.056	114.02
861.225	85.63
861.393	70.07
861.562	66.02
861.73	51.53
861.899	65.71
862.067	95.44
862.236	112.96
862.404	70.48
862.572	109.2
862.741	80.42
862.909	42.04
863.078	23.37
863.246	55.14
863.414	64.39
863.582	75.57
863.751	79.37
863.919	75.92
864.087	85.76
864.255	60.27
864.424	47.94
864.592	53.87
864.76	74.85
864.928	79.58
865.096	64.6
865.264	50.82
865.432	28.51
865.6	21.09
865.768	7.35
865.936	12.99
866.104	52.35
866.272	73.3
866.44	94.71
866.608	137.64
866.776	113.29
866.944	204.36
867.112	135.5
867.28	249.94
867.448	161.06
867.615	437.83
867.783	163.08
867.951	150.15
868.119	133.17
868.286	122.13
868.454	110.23
868.622	91.84
868.789	84.19
868.957	87.05
869.125	91.92
869.292	44.5
869.46	29.13
869.627	46.88
869.795	17.68
869.963	14.94
870.13	31.37
870.298	36.79
870.465	13.41
870.632	50.28
870.8	63.86
870.967	32.97
871.135	28.56
871.302	134.5
871.469	-110.91
871.637	62.93
871.804	109.4
871.971	75.94
872.139	64.95
872.306	60.75
872.473	56.72
872.64	41.34
872.807	62.24
872.975	63.76
873.142	127.77
873.309	3605.8
873.476	792.33
873.643	183.93
873.81	132.97
873.977	131.32
874.144	114.59
874.311	108.38
874.478	113.68
874.645	79.13
874.812	46.3
874.979	32.62
875.146	48.05
875.313	78.83
875.48	56.33
875.647	-415.34
875.813	369.78
875.98	395.96
876.147	-166.9
876.314	33.96
876.481	-123.44
876.647	-15.64
876.814	9.81
876.981	16.44
877.147	33.93
877.314	77.09
877.481	61.22
877.647	91.59
877.814	66.82
877.98	28.5
878.147	23.31
878.314	85.69
878.48	48.18
878.647	148.88
878.813	2105.43
878.979	312.37
879.146	216.35
879.312	236.31
879.479	180.22
879.645	175.54
879.811	147.68
879.978	151.17
880.144	137.22
880.31	127.14
880.477	71.78
880.643	99.11
880.809	58.26
880.975	1866.67
881.142	94.4
881.308	-1141.33
881.474	151.99
881.64	246.93
881.806	89.61
881.972	133.48
882.138	158.64
882.304	240.95
882.47	274.37
882.636	324.18
882.802	217.45
882.968	364.44
883.134	93.84
883.3	70.07
883.466	114.4
883.632	155.1
883.798	114.3
883.964	156.07
884.129	167.43
884.295	132.48
884.461	83.35
884.627	90.69
884.793	81.65
884.958	121.23
885.124	130.17
885.29	133.93
885.455	210.27
885.621	237.33
885.787	189.6
885.952	34.7
886.118	-21.69
886.283	2217.54
886.449	92
886.614	111.78
886.78	89.42
886.945	86.84
887.111	49.1
887.276	58.18
887.442	33.02
887.607	-35.79
887.773	28.72
887.938	-67.44
888.103	-28.34
888.269	4.04
888.434	59.53
888.599	77.52
888.764	149.3
888.93	222.39
889.095	233.27
889.26	359.32
889.425	515.4
889.59	-488.89
889.756	385.75
889.921	85.22
890.086	146.59
890.251	186.18
890.416	135.73
890.581	171.01
890.746	194.14
890.911	146.29
891.076	117.64
891.241	112.66
891.406	101.72
891.571	52.9
891.736	69.37
891.901	78.3
892.065	133.33
892.23	254.03
892.395	161.18
892.56	380.33
892.725	360.03
892.889	221.94
893.054	73.7
893.219	42
893.384	-11
893.548	-326.49
893.713	1064.2
893.878	192.5
