Data from Ofav_PS_Phys_2HS2_Reflection_1.txt Node
Date: Thu Jul 29 18:16:01 EDT 2021
User: USUARIO
Spectrometer: FLMT01687
Trigger mode: 0
Integration Time (sec): 9.010000E-1
Scans to average: 2
Electric dark correction enabled: true
Nonlinearity correction enabled: false
Boxcar width: 2
XAxis mode: Wavelengths
Number of Pixels in Spectrum: 3648
>>>>>Begin Spectral Data<<<<<
179.494	-50.79
179.716	-199.1
179.937	-123.48
180.158	675.71
180.38	112.8
180.601	-375.85
180.823	-215.89
181.044	-115.86
181.265	-106.53
181.486	-680.23
181.708	135.03
181.929	275.59
182.15	7580.95
182.372	-153.1
182.593	-47.23
182.814	0.2
183.035	-283.16
183.257	104.26
183.478	59.6
183.699	42.01
183.92	48.01
184.141	58.49
184.363	47.42
184.584	25.83
184.805	30.79
185.026	34.91
185.247	21.54
185.468	11.53
185.689	67.34
185.91	132.49
186.132	158.89
186.353	83.19
186.574	109.54
186.795	94.55
187.016	73.97
187.237	70.59
187.458	94.96
187.679	80.56
187.9	85.48
188.121	103.06
188.342	81.76
188.563	73.38
188.784	53.57
189.005	37.73
189.226	52.08
189.447	73.01
189.667	68.81
189.888	78.31
190.109	97.07
190.33	136.63
190.551	42.03
190.772	67.22
190.993	58.97
191.214	79.47
191.434	65.69
191.655	67.78
191.876	62.49
192.097	59.05
192.318	63.75
192.538	64.5
192.759	75.03
192.98	75.23
193.201	76.21
193.421	68.58
193.642	55.41
193.863	53.77
194.083	56.62
194.304	67.51
194.525	59.95
194.745	85.4
194.966	56.56
195.187	43.96
195.407	25.82
195.628	-0.94
195.848	18.56
196.069	102.79
196.29	109.68
196.51	111.59
196.731	92.83
196.951	81.41
197.172	24.1
197.392	18.22
197.613	16.05
197.833	-3.05
198.054	-6.38
198.274	40.76
198.495	48.53
198.715	44.75
198.936	59.23
199.156	79.53
199.377	77.95
199.597	85.67
199.817	83.4
200.038	96.64
200.258	88.1
200.479	56.59
200.699	51.8
200.919	53.02
201.14	53.83
201.36	55.31
201.58	75.51
201.801	80.12
202.021	104.78
202.241	109.97
202.461	132.05
202.682	142.44
202.902	154.43
203.122	138.3
203.342	157.3
203.563	151.96
203.783	124.67
204.003	102.07
204.223	138.17
204.443	87.86
204.663	81.59
204.884	81.52
205.104	75.52
205.324	47.25
205.544	47.17
205.764	45.63
205.984	68.57
206.204	80.32
206.424	90
206.644	85.84
206.864	95.31
207.084	61.67
207.304	71.27
207.525	50.11
207.745	71.68
207.964	46.72
208.184	28.07
208.404	-9.16
208.624	27.97
208.844	36.48
209.064	60.82
209.284	60.87
209.504	59.6
209.724	67.13
209.944	64.7
210.164	52.54
210.384	49.52
210.604	47.07
210.823	31.41
211.043	22.71
211.263	38.28
211.483	29.32
211.703	32.28
211.922	27.77
212.142	43.12
212.362	31.42
212.582	42.12
212.801	34.37
213.021	32.01
213.241	15.48
213.461	16.19
213.68	7.73
213.9	34.31
214.12	33.03
214.339	23.76
214.559	39.38
214.779	33.36
214.998	20.41
215.218	35.29
215.438	53.52
215.657	49.95
215.877	70.41
216.096	68.74
216.316	84.17
216.535	123.1
216.755	107.04
216.974	36.98
217.194	21.86
217.413	36.26
217.633	46.98
217.852	36.88
218.072	48.72
218.291	72.06
218.511	64.84
218.73	46.37
218.95	56.93
219.169	52.42
219.389	37.72
219.608	29.19
219.827	23.87
220.047	26.37
220.266	15.79
220.485	29.32
220.705	27.84
220.924	11.61
221.143	7.57
221.363	28.99
221.582	13.22
221.801	30.26
222.021	96.76
222.24	76.28
222.459	78.08
222.678	62.31
222.897	43.43
223.117	43.72
223.336	38.25
223.555	30.86
223.774	65.25
223.993	61.75
224.213	68.87
224.432	67.93
224.651	72.38
224.87	50.43
225.089	65.24
225.308	42.26
225.527	43.92
225.746	15.37
225.965	29.66
226.184	9.5
226.404	57.96
226.623	80.8
226.842	84.75
227.061	87.05
227.28	84.15
227.499	84.36
227.718	62.83
227.936	29.62
228.155	22.75
228.374	49.2
228.593	24.07
228.812	16.86
229.031	47.98
229.25	64.54
229.469	50.97
229.688	60.16
229.907	69.33
230.125	45.74
230.344	47.98
230.563	55.92
230.782	63.45
231.001	41.45
231.22	91.61
231.438	93.43
231.657	62.08
231.876	49.6
232.095	54.45
232.313	48.6
232.532	28.2
232.751	31.18
232.969	45.9
233.188	71.43
233.407	66.81
233.625	64.47
233.844	69.81
234.063	83.18
234.281	47.22
234.5	40.41
234.719	53.03
234.937	53.15
235.156	42.98
235.374	69.77
235.593	65.23
235.811	52.56
236.03	23.23
236.249	31.99
236.467	29.67
236.686	41.01
236.904	49.41
237.123	71.82
237.341	56.61
237.559	33
237.778	30.53
237.996	29.34
238.215	40.03
238.433	65.86
238.652	70.18
238.87	60.78
239.088	64.29
239.307	55.37
239.525	38.2
239.743	43.16
239.962	42.92
240.18	41.75
240.398	44.29
240.617	48.84
240.835	43.89
241.053	47.97
241.271	46.66
241.49	45.36
241.708	37.68
241.926	42.76
242.144	37.75
242.363	28.27
242.581	7.81
242.799	20.35
243.017	14.6
243.235	6.75
243.453	20.23
243.672	43.77
243.89	30.26
244.108	46.1
244.326	78.31
244.544	73.85
244.762	64.01
244.98	65.54
245.198	55.67
245.416	50.17
245.634	41.9
245.852	48.52
246.07	68.63
246.288	59.77
246.506	54.2
246.724	62.87
246.942	57.07
247.16	48.37
247.378	42.03
247.596	45.73
247.814	25.54
248.032	22.97
248.25	15.07
248.468	21.32
248.685	24.72
248.903	36.42
249.121	42.78
249.339	39.11
249.557	49.26
249.775	35.57
249.992	36.98
250.21	32.05
250.428	55.24
250.646	49.29
250.863	56.71
251.081	55.49
251.299	64.73
251.517	59.33
251.734	65.79
251.952	61.01
252.17	42.45
252.387	26.75
252.605	13.4
252.823	14.11
253.04	31.58
253.258	52.18
253.475	60.44
253.693	56.74
253.911	63.84
254.128	67.29
254.346	63.28
254.563	68.13
254.781	68.49
254.998	47.22
255.216	20.56
255.433	26.38
255.651	15.16
255.868	9.18
256.086	23.28
256.303	38.36
256.521	33.51
256.738	22.45
256.956	37.76
257.173	29.29
257.39	29.23
257.608	35.96
257.825	51.62
258.043	41.3
258.26	46.51
258.477	48.37
258.695	26.56
258.912	28.01
259.129	26.93
259.346	4.18
259.564	-27.38
259.781	15.21
259.998	28.65
260.216	45.26
260.433	76.74
260.65	84.98
260.867	84.17
261.084	87.39
261.302	89.98
261.519	56.41
261.736	31.91
261.953	15.35
262.17	21.74
262.387	11.51
262.604	11.74
262.822	3.11
263.039	21.31
263.256	9.03
263.473	15.42
263.69	13.54
263.907	24.47
264.124	16.17
264.341	17.62
264.558	25.27
264.775	18.18
264.992	37.66
265.209	28.27
265.426	50.32
265.643	53.94
265.86	54.97
266.077	50.37
266.294	55.76
266.51	39.92
266.727	33.98
266.944	49.39
267.161	48.69
267.378	30.33
267.595	33.57
267.812	27.24
268.028	-15.99
268.245	-20
268.462	-9.51
268.679	-5.95
268.896	-3.96
269.112	12.78
269.329	12.88
269.546	28.7
269.763	31.33
269.979	37
270.196	36.58
270.413	36.44
270.629	18.38
270.846	19.28
271.063	4.55
271.279	27.27
271.496	27.52
271.712	34.13
271.929	38.69
272.146	67.57
272.362	62.41
272.579	68.2
272.795	73.12
273.012	75.41
273.228	57.31
273.445	41.53
273.661	42.48
273.878	35.81
274.094	39.15
274.311	66
274.527	71.27
274.744	67.81
274.96	74.65
275.177	63.26
275.393	46
275.609	49.21
275.826	37.77
276.042	20.3
276.259	21.1
276.475	37.53
276.691	30.83
276.908	35.41
277.124	43.44
277.34	36.88
277.557	13.6
277.773	24.7
277.989	22.45
278.205	31.43
278.422	39.07
278.638	39.88
278.854	54.58
279.07	66.52
279.286	55.37
279.503	61.09
279.719	72.63
279.935	53.32
280.151	44.93
280.367	51.78
280.583	64.32
280.799	61.12
281.016	71.14
281.232	67.61
281.448	57.26
281.664	49.61
281.88	45.95
282.096	50.05
282.312	39.96
282.528	61.92
282.744	57.97
282.96	58.07
283.176	38.39
283.392	38.86
283.608	26.54
283.824	25.72
284.04	20.16
284.256	46.24
284.471	56.01
284.687	61
284.903	61.47
285.119	44.53
285.335	24
285.551	35.03
285.767	43.96
285.982	35.77
286.198	40.2
286.414	38.56
286.63	32.91
286.846	29.33
287.061	35.05
287.277	43.98
287.493	53.06
287.709	47.79
287.924	46.64
288.14	38.92
288.356	37.77
288.571	42.85
288.787	39.36
289.003	32.86
289.218	24.91
289.434	10.15
289.65	10.44
289.865	28.53
290.081	16.65
290.296	47.21
290.512	46.91
290.727	43.35
290.943	40.53
291.159	44.8
291.374	28.18
291.59	39.75
291.805	17.33
292.021	-0.21
292.236	14.78
292.451	8.36
292.667	16.58
292.882	32.41
293.098	46.83
293.313	47.36
293.529	51.47
293.744	33.94
293.959	44.01
294.175	43.46
294.39	35.97
294.605	24.45
294.821	38.46
295.036	41.13
295.251	35.55
295.467	33.44
295.682	41.97
295.897	31.83
296.112	24.06
296.328	30.9
296.543	31.13
296.758	25.66
296.973	31.43
297.188	33.46
297.404	25.56
297.619	26.25
297.834	20.11
298.049	26.85
298.264	18.52
298.479	29.78
298.694	33.56
298.909	43.65
299.125	24.79
299.34	58.35
299.555	54.81
299.77	54.54
299.985	7.15
300.2	16.68
300.415	-4.49
300.63	7.56
300.845	5.98
301.06	8
301.275	38.2
301.49	32.76
301.704	-1.44
301.919	4.42
302.134	33.1
302.349	10.92
302.564	26.57
302.779	29.53
302.994	23.64
303.209	20.13
303.423	36.26
303.638	19.77
303.853	24.24
304.068	46.96
304.283	50.83
304.497	36.76
304.712	15.37
304.927	34.45
305.142	19.71
305.356	-14.4
305.571	10.92
305.786	29.19
306	-4.94
306.215	-2.01
306.43	18.62
306.644	9.79
306.859	46.81
307.074	86.63
307.288	78.68
307.503	86.97
307.717	70.71
307.932	53.19
308.147	47.44
308.361	48.05
308.576	17.34
308.79	24.06
309.005	48.86
309.219	52.37
309.434	63.81
309.648	75.1
309.863	66.38
310.077	53.19
310.292	53.53
310.506	43.95
310.72	50.42
310.935	35.52
311.149	43.57
311.364	39.64
311.578	27.85
311.792	12.49
312.007	19.9
312.221	5.65
312.435	-9.73
312.649	9.52
312.864	9.54
313.078	25.32
313.292	4.56
313.507	31.43
313.721	27.19
313.935	15.97
314.149	26.55
314.363	43.2
314.578	41.96
314.792	41.54
315.006	41.38
315.22	32.52
315.434	31.59
315.648	38.54
315.862	39.04
316.077	38.14
316.291	34.57
316.505	35.93
316.719	46.21
316.933	54.51
317.147	77.26
317.361	88.11
317.575	95.64
317.789	79.66
318.003	65.2
318.217	60.34
318.431	47.87
318.645	40.51
318.859	33.04
319.073	18.22
319.287	-9.12
319.5	6.86
319.714	26.91
319.928	36.24
320.142	51.15
320.356	64.3
320.57	58.97
320.784	55.16
320.997	40.15
321.211	29.19
321.425	33.95
321.639	30.38
321.853	19.6
322.066	12.26
322.28	22.63
322.494	18.52
322.707	29.65
322.921	29.41
323.135	47.19
323.349	44.9
323.562	31.25
323.776	32.8
323.989	37.91
324.203	42.69
324.417	38.8
324.63	42.8
324.844	41.47
325.057	31.24
325.271	17.13
325.485	22.26
325.698	24.13
325.912	24.96
326.125	26.28
326.339	22.42
326.552	16.2
326.766	17.9
326.979	17.76
327.193	24.92
327.406	31.35
327.619	30.86
327.833	37.04
328.046	42.27
328.26	51.27
328.473	36.11
328.686	42.69
328.9	28.18
329.113	10.36
329.326	-11.48
329.54	-6.33
329.753	-3.8
329.966	19.78
330.179	24.29
330.393	34.78
330.606	34.11
330.819	41.18
331.032	29.03
331.246	29.04
331.459	11.41
331.672	25.28
331.885	13.5
332.098	28.1
332.311	32.82
332.525	32.71
332.738	22.48
332.951	14.78
333.164	2.1
333.377	-0.6
333.59	7.3
333.803	32.15
334.016	41.66
334.229	45.12
334.442	47.16
334.655	49.52
334.868	33.57
335.081	39.58
335.294	39.65
335.507	46.23
335.72	48.36
335.933	43.71
336.146	30.92
336.359	38.25
336.572	14.31
336.785	3.36
336.997	14.51
337.21	36.09
337.423	41.68
337.636	51
337.849	42.47
338.062	37.6
338.274	30.34
338.487	13.48
338.7	9.48
338.913	41.8
339.125	53.79
339.338	34.98
339.551	38.26
339.763	30.86
339.976	14.31
340.189	12.9
340.402	14.84
340.614	1.13
340.827	18.2
341.039	30.85
341.252	18.24
341.465	27.52
341.677	39.53
341.89	24.93
342.102	18.66
342.315	18.43
342.527	12.01
342.74	-0.71
342.952	25.03
343.165	32.11
343.377	34.75
343.59	40.47
343.802	46.32
344.015	41.39
344.227	36.5
344.44	34.04
344.652	51.39
344.864	46.54
345.077	38.63
345.289	51.82
345.502	50.41
345.714	33.48
345.926	28.09
346.139	20.96
346.351	-3.61
346.563	13.54
346.775	14.53
346.988	6.99
347.2	0.25
347.412	17.62
347.624	10.89
347.837	8.16
348.049	9.53
348.261	22.57
348.473	16.3
348.685	24.62
348.897	27.31
349.11	33.54
349.322	36.82
349.534	45.38
349.746	35.73
349.958	42.82
350.17	35.96
350.382	33.13
350.594	20.81
350.806	47.22
351.018	42.7
351.23	41.21
351.442	47.13
351.654	51.61
351.866	29.14
352.078	34.4
352.29	34.6
352.502	46.69
352.714	43.41
352.926	41.91
353.138	53.92
353.35	54.08
353.561	25.86
353.773	40.36
353.985	48.6
354.197	31.69
354.409	30.21
354.621	24.77
354.832	4.13
355.044	-0.66
355.256	8.69
355.468	7.83
355.679	30.91
355.891	31.26
356.103	43.89
356.314	44.82
356.526	48.66
356.738	38.55
356.949	44.81
357.161	34.32
357.373	47.87
357.584	33.24
357.796	33.01
358.008	29.55
358.219	26.7
358.431	-12.52
358.642	-2.96
358.854	4.91
359.065	0.1
359.277	3.04
359.488	18.74
359.7	18.08
359.911	19.51
360.123	21.49
360.334	16.78
360.546	5.59
360.757	21.61
360.969	25.93
361.18	43.14
361.391	39.01
361.603	49.47
361.814	51.14
362.025	45.51
362.237	43.7
362.448	50.72
362.659	44.99
362.871	27.74
363.082	20.2
363.293	7.03
363.504	16.44
363.716	18.73
363.927	23.08
364.138	17.94
364.349	19.63
364.56	19.57
364.772	24.18
364.983	16.84
365.194	24.47
365.405	35.22
365.616	21.85
365.827	26.83
366.038	31.23
366.25	20.78
366.461	7.74
366.672	15.12
366.883	11.6
367.094	-1.71
367.305	25.73
367.516	30.35
367.727	35.01
367.938	36.9
368.149	43.15
368.36	30.83
368.571	36.1
368.781	39.25
368.992	28.36
369.203	34.61
369.414	48.73
369.625	42.51
369.836	40.22
370.047	34.1
370.258	27.56
370.468	22.08
370.679	16.51
370.89	-1.4
371.101	18.09
371.312	23.55
371.522	19.5
371.733	26.46
371.944	26.42
372.155	21.8
372.365	23.15
372.576	30.51
372.787	24.48
372.997	23.9
373.208	20.74
373.419	16.81
373.629	25.27
373.84	30.79
374.05	27.37
374.261	25.08
374.472	18.89
374.682	3.67
374.893	5.66
375.103	26.33
375.314	34.41
375.524	37.42
375.735	42.1
375.945	45.57
376.156	37.32
376.366	22.54
376.577	40.42
376.787	34.93
376.997	27.81
377.208	18
377.418	28.92
377.629	7.38
377.839	22.01
378.049	23.12
378.26	28.52
378.47	38.39
378.68	38.42
378.89	33.75
379.101	35.73
379.311	32.11
379.521	16.6
379.732	22.59
379.942	19.04
380.152	6.05
380.362	1.41
380.572	6.5
380.783	2.84
380.993	6.15
381.203	14.19
381.413	26.36
381.623	22.33
381.833	41.14
382.043	29.24
382.253	25
382.463	12.69
382.674	11.94
382.884	0.05
383.094	-7.38
383.304	-6.98
383.514	-2.91
383.724	8.85
383.934	7.47
384.144	17.31
384.353	23.88
384.563	33.51
384.773	25.29
384.983	26.72
385.193	25.54
385.403	13.89
385.613	10.03
385.823	12.53
386.033	10.07
386.242	5.98
386.452	11.27
386.662	10.47
386.872	7.78
387.082	3.77
387.291	2.49
387.501	4.61
387.711	4.69
387.921	3.44
388.13	5.57
388.34	7.81
388.55	6.67
388.759	5.56
388.969	6.01
389.179	3.98
389.388	6.18
389.598	7.4
389.807	7.91
390.017	7.35
390.227	13.13
390.436	12.69
390.646	11.72
390.855	11
391.065	10.28
391.274	5.98
391.484	4.53
391.693	1.5
391.903	1.45
392.112	1.69
392.322	3.55
392.531	1.17
392.74	0.85
392.95	0.68
393.159	1.8
393.369	2.34
393.578	3.41
393.787	4.57
393.997	3.3
394.206	2.56
394.415	2.64
394.625	2.69
394.834	2.01
395.043	2.18
395.252	3.64
395.462	2.36
395.671	2.56
395.88	3.66
396.089	4.61
396.298	3.81
396.508	3.01
396.717	2.76
396.926	2.75
397.135	2.21
397.344	2
397.553	2.86
397.762	3.54
397.971	3.32
398.181	3.42
398.39	3.16
398.599	2.56
398.808	2.09
399.017	2.54
399.226	2.54
399.435	2.84
399.644	3.32
399.853	3.27
400.062	3.02
400.27	3.19
400.479	2.89
400.688	2.61
400.897	2.77
401.106	2.58
401.315	2.26
401.524	2.59
401.733	2.72
401.941	2.36
402.15	2.57
402.359	2.44
402.568	2.24
402.777	2.2
402.985	2.3
403.194	2.08
403.403	2.37
403.612	2.19
403.82	2.19
404.029	2.15
404.238	1.98
404.446	1.85
404.655	1.94
404.864	1.9
405.072	1.94
405.281	1.92
405.489	1.83
405.698	1.9
405.906	1.99
406.115	1.98
406.324	1.97
406.532	2.02
406.741	1.95
406.949	1.99
407.158	1.96
407.366	2.1
407.574	1.97
407.783	2
407.991	1.77
408.2	1.67
408.408	1.67
408.617	1.82
408.825	1.88
409.033	2.01
409.242	2.19
409.45	2.23
409.658	2.24
409.867	2.04
410.075	2.02
410.283	1.97
410.491	1.8
410.7	1.8
410.908	1.89
411.116	1.8
411.324	1.75
411.533	1.9
411.741	1.89
411.949	1.91
412.157	1.87
412.365	1.73
412.573	1.62
412.781	1.57
412.99	1.57
413.198	1.67
413.406	1.88
413.614	2
413.822	2.03
414.03	1.94
414.238	1.91
414.446	1.97
414.654	1.83
414.862	1.8
415.07	1.63
415.278	1.65
415.486	1.47
415.694	1.56
415.902	1.58
416.109	1.8
416.317	1.81
416.525	1.9
416.733	1.94
416.941	1.96
417.149	1.94
417.357	1.92
417.564	1.92
417.772	1.79
417.98	1.87
418.188	1.79
418.395	1.67
418.603	1.59
418.811	1.75
419.019	1.79
419.226	1.99
419.434	2.14
419.642	2.08
419.849	1.97
420.057	1.75
420.265	1.64
420.472	1.58
420.68	1.6
420.887	1.6
421.095	1.68
421.302	1.68
421.51	1.6
421.717	1.71
421.925	1.72
422.132	1.67
422.34	1.57
422.547	1.44
422.755	1.43
422.962	1.41
423.17	1.35
423.377	1.5
423.585	1.75
423.792	1.6
423.999	1.52
424.207	1.49
424.414	1.32
424.621	1.35
424.829	1.62
425.036	1.73
425.243	1.83
425.451	1.84
425.658	1.81
425.865	1.59
426.072	1.51
426.28	1.6
426.487	1.69
426.694	1.46
426.901	1.28
427.108	1.28
427.315	1.42
427.523	1.37
427.73	1.54
427.937	1.89
428.144	1.91
428.351	1.65
428.558	1.75
428.765	1.78
428.972	1.77
429.179	1.77
429.386	1.77
429.593	1.74
429.8	1.74
430.007	1.67
430.214	1.88
430.421	1.95
430.628	1.89
430.835	1.91
431.042	1.79
431.249	1.67
431.456	1.55
431.662	1.6
431.869	1.59
432.076	1.67
432.283	1.6
432.49	1.65
432.697	1.67
432.903	1.65
433.11	1.6
433.317	1.6
433.524	1.7
433.73	1.67
433.937	1.76
434.144	1.63
434.35	1.65
434.557	1.54
434.764	1.57
434.97	1.42
435.177	1.6
435.384	1.54
435.59	1.61
435.797	1.68
436.003	1.76
436.21	1.74
436.416	1.73
436.623	1.67
436.829	1.65
437.036	1.61
437.242	1.67
437.449	1.75
437.655	1.86
437.862	1.88
438.068	1.84
438.275	1.87
438.481	1.89
438.687	1.79
438.894	1.79
439.1	1.88
439.307	1.88
439.513	1.77
439.719	1.75
439.926	1.74
440.132	1.7
440.338	1.67
440.544	1.7
440.751	1.75
440.957	1.78
441.163	1.78
441.369	1.79
441.575	1.79
441.782	1.75
441.988	1.73
442.194	1.73
442.4	1.66
442.606	1.86
442.812	1.83
443.018	1.87
443.224	2.05
443.431	2.12
443.637	2.02
443.843	2.13
444.049	2.08
444.255	1.92
444.461	1.92
444.667	1.83
444.873	1.72
445.079	1.68
445.284	1.73
445.49	1.75
445.696	1.78
445.902	1.8
446.108	1.73
446.314	1.76
446.52	1.78
446.726	1.78
446.931	1.79
447.137	1.89
447.343	1.81
447.549	1.76
447.755	1.76
447.96	1.83
448.166	1.79
448.372	1.79
448.578	1.87
448.783	2.01
448.989	2.03
449.195	2.04
449.4	2.14
449.606	2.09
449.812	1.91
450.017	1.87
450.223	1.97
450.428	1.89
450.634	1.93
450.84	2.05
451.045	2.05
451.251	2.04
451.456	2.09
451.662	2.06
451.867	2.04
452.073	2.02
452.278	1.92
452.483	1.92
452.689	1.93
452.894	1.92
453.1	1.95
453.305	2.04
453.51	2
453.716	1.99
453.921	1.99
454.127	2.1
454.332	1.93
454.537	1.9
454.742	1.91
454.948	1.73
455.153	1.67
455.358	1.79
455.563	1.85
455.769	1.76
455.974	1.88
456.179	1.73
456.384	1.72
456.589	1.72
456.795	1.8
457	1.87
457.205	2.04
457.41	2.15
457.615	2.1
457.82	2.13
458.025	2.03
458.23	1.99
458.435	1.87
458.64	1.85
458.845	1.86
459.05	1.87
459.255	1.84
459.46	1.95
459.665	2.03
459.87	1.97
460.075	2.04
460.28	2.05
460.485	1.95
460.69	2
460.895	2
461.099	1.93
461.304	1.88
461.509	1.9
461.714	1.86
461.919	1.84
462.123	1.92
462.328	2.02
462.533	2.02
462.738	2.02
462.942	2.05
463.147	2.01
463.352	1.95
463.556	1.99
463.761	1.88
463.966	1.99
464.17	2.07
464.375	2.07
464.58	2.05
464.784	2.15
464.989	2.01
465.193	2
465.398	2.04
465.602	2.12
465.807	2.11
466.011	2.16
466.216	2.08
466.42	2.07
466.625	2.08
466.829	2.09
467.034	2.11
467.238	2.18
467.443	2.13
467.647	2
467.851	2.08
468.056	2.07
468.26	2.01
468.464	2.06
468.669	2.22
468.873	2.2
469.077	2.23
469.282	2.24
469.486	2.24
469.69	2.11
469.894	2.01
470.099	1.95
470.303	2.03
470.507	2.07
470.711	2.16
470.915	2.23
471.119	2.3
471.324	2.31
471.528	2.24
471.732	2.23
471.936	2.24
472.14	2.2
472.344	2.18
472.548	2.22
472.752	2.26
472.956	2.28
473.16	2.25
473.364	2.27
473.568	2.29
473.772	2.31
473.976	2.29
474.18	2.38
474.384	2.38
474.588	2.32
474.792	2.27
474.995	2.35
475.199	2.17
475.403	2.24
475.607	2.26
475.811	2.22
476.015	2.18
476.218	2.3
476.422	2.19
476.626	2.21
476.83	2.21
477.033	2.26
477.237	2.26
477.441	2.27
477.644	2.28
477.848	2.3
478.052	2.23
478.255	2.22
478.459	2.21
478.663	2.23
478.866	2.23
479.07	2.27
479.273	2.26
479.477	2.24
479.681	2.28
479.884	2.27
480.088	2.21
480.291	2.22
480.495	2.33
480.698	2.31
480.901	2.29
481.105	2.33
481.308	2.32
481.512	2.35
481.715	2.3
481.919	2.29
482.122	2.31
482.325	2.33
482.529	2.26
482.732	2.36
482.935	2.36
483.138	2.36
483.342	2.43
483.545	2.5
483.748	2.44
483.952	2.51
484.155	2.54
484.358	2.49
484.561	2.5
484.764	2.47
484.967	2.45
485.171	2.42
485.374	2.42
485.577	2.38
485.78	2.36
485.983	2.41
486.186	2.42
486.389	2.46
486.592	2.42
486.795	2.46
486.998	2.34
487.201	2.36
487.404	2.39
487.607	2.47
487.81	2.44
488.013	2.53
488.216	2.5
488.419	2.51
488.622	2.44
488.825	2.49
489.028	2.42
489.231	2.44
489.433	2.35
489.636	2.35
489.839	2.35
490.042	2.33
490.245	2.32
490.447	2.31
490.65	2.4
490.853	2.36
491.056	2.4
491.258	2.37
491.461	2.39
491.664	2.32
491.866	2.3
492.069	2.31
492.272	2.33
492.474	2.3
492.677	2.28
492.879	2.3
493.082	2.35
493.285	2.39
493.487	2.45
493.69	2.48
493.892	2.47
494.095	2.48
494.297	2.47
494.5	2.52
494.702	2.52
494.905	2.6
495.107	2.54
495.309	2.59
495.512	2.52
495.714	2.61
495.917	2.57
496.119	2.58
496.321	2.58
496.524	2.6
496.726	2.49
496.928	2.46
497.13	2.47
497.333	2.46
497.535	2.51
497.737	2.52
497.939	2.54
498.142	2.61
498.344	2.52
498.546	2.42
498.748	2.47
498.95	2.55
499.152	2.48
499.355	2.65
499.557	2.7
499.759	2.68
499.961	2.57
500.163	2.58
500.365	2.57
500.567	2.6
500.769	2.61
500.971	2.66
501.173	2.65
501.375	2.6
501.577	2.54
501.779	2.56
501.981	2.57
502.183	2.57
502.385	2.56
502.587	2.57
502.788	2.52
502.99	2.5
503.192	2.47
503.394	2.44
503.596	2.5
503.798	2.51
503.999	2.53
504.201	2.6
504.403	2.6
504.605	2.57
504.806	2.61
505.008	2.65
505.21	2.69
505.411	2.68
505.613	2.7
505.815	2.72
506.016	2.65
506.218	2.59
506.42	2.63
506.621	2.63
506.823	2.59
507.024	2.67
507.226	2.73
507.427	2.72
507.629	2.74
507.83	2.77
508.032	2.78
508.233	2.81
508.435	2.81
508.636	2.91
508.838	2.95
509.039	2.94
509.24	2.92
509.442	2.91
509.643	2.85
509.845	2.84
510.046	2.92
510.247	2.92
510.448	3.01
510.65	3.03
510.851	2.97
511.052	2.93
511.254	2.89
511.455	2.86
511.656	2.79
511.857	2.87
512.058	2.84
512.26	2.87
512.461	2.8
512.662	2.85
512.863	2.78
513.064	2.75
513.265	2.72
513.466	2.78
513.667	2.75
513.868	2.76
514.069	2.8
514.27	2.83
514.471	2.88
514.672	2.91
514.873	2.9
515.074	2.93
515.275	2.94
515.476	2.93
515.677	2.9
515.878	3.01
516.079	3
516.28	3.01
516.481	3.02
516.682	3.07
516.882	2.96
517.083	2.96
517.284	2.92
517.485	2.87
517.686	2.83
517.886	2.9
518.087	2.92
518.288	2.94
518.488	2.94
518.689	2.96
518.89	2.97
519.091	3.04
519.291	3.05
519.492	3.08
519.692	3.15
519.893	3.16
520.094	3.07
520.294	3.16
520.495	3.11
520.695	3.06
520.896	3.07
521.096	3.11
521.297	3.07
521.497	3.13
521.698	3.14
521.898	3.09
522.099	3.08
522.299	3.03
522.499	3.08
522.7	3.08
522.9	3.11
523.101	3.11
523.301	3.16
523.501	3.14
523.702	3.2
523.902	3.22
524.102	3.25
524.302	3.22
524.503	3.23
524.703	3.16
524.903	3.12
525.103	3.12
525.304	3.15
525.504	3.17
525.704	3.21
525.904	3.26
526.104	3.28
526.304	3.28
526.504	3.22
526.705	3.21
526.905	3.18
527.105	3.19
527.305	3.17
527.505	3.15
527.705	3.12
527.905	3.12
528.105	3.1
528.305	3.11
528.505	3.17
528.705	3.22
528.905	3.24
529.105	3.26
529.304	3.3
529.504	3.31
529.704	3.31
529.904	3.34
530.104	3.32
530.304	3.28
530.503	3.23
530.703	3.24
530.903	3.23
531.103	3.22
531.303	3.32
531.502	3.37
531.702	3.42
531.902	3.43
532.101	3.42
532.301	3.42
532.501	3.4
532.7	3.41
532.9	3.46
533.1	3.55
533.299	3.52
533.499	3.55
533.698	3.52
533.898	3.5
534.097	3.45
534.297	3.45
534.496	3.4
534.696	3.43
534.895	3.49
535.095	3.49
535.294	3.51
535.494	3.57
535.693	3.54
535.892	3.56
536.092	3.52
536.291	3.55
536.491	3.57
536.69	3.59
536.889	3.53
537.088	3.56
537.288	3.58
537.487	3.56
537.686	3.55
537.886	3.6
538.085	3.63
538.284	3.63
538.483	3.67
538.682	3.72
538.882	3.73
539.081	3.8
539.28	3.76
539.479	3.75
539.678	3.75
539.877	3.72
540.076	3.72
540.275	3.75
540.474	3.77
540.673	3.83
540.872	3.86
541.071	3.8
541.27	3.83
541.469	3.86
541.668	3.87
541.867	3.89
542.066	3.99
542.265	4.02
542.464	4.03
542.663	4.04
542.862	4.17
543.06	4.16
543.259	4.24
543.458	4.24
543.657	4.27
543.856	4.2
544.054	4.21
544.253	4.2
544.452	4.22
544.651	4.22
544.849	4.21
545.048	4.26
545.247	4.26
545.445	4.28
545.644	4.27
545.843	4.3
546.041	4.33
546.24	4.34
546.438	4.36
546.637	4.38
546.836	4.42
547.034	4.38
547.233	4.46
547.431	4.52
547.63	4.57
547.828	4.58
548.027	4.64
548.225	4.61
548.423	4.61
548.622	4.65
548.82	4.63
549.019	4.66
549.217	4.68
549.415	4.75
549.614	4.78
549.812	4.81
550.01	4.84
550.209	4.93
550.407	4.94
550.605	5
550.803	5.05
551.002	5.11
551.2	5.13
551.398	5.18
551.596	5.19
551.794	5.26
551.993	5.27
552.191	5.3
552.389	5.29
552.587	5.33
552.785	5.39
552.983	5.43
553.181	5.49
553.379	5.58
553.577	5.58
553.775	5.64
553.973	5.67
554.171	5.69
554.369	5.75
554.567	5.82
554.765	5.79
554.963	5.83
555.161	5.86
555.359	5.89
555.557	5.96
555.755	6.03
555.952	6.13
556.15	6.2
556.348	6.18
556.546	6.24
556.744	6.28
556.941	6.3
557.139	6.36
557.337	6.49
557.535	6.48
557.732	6.52
557.93	6.59
558.128	6.62
558.325	6.64
558.523	6.65
558.721	6.77
558.918	6.77
559.116	6.79
559.313	6.8
559.511	6.93
559.708	6.91
559.906	7.02
560.104	7.06
560.301	7.19
560.498	7.2
560.696	7.29
560.893	7.3
561.091	7.39
561.288	7.38
561.486	7.54
561.683	7.58
561.88	7.71
562.078	7.82
562.275	7.88
562.473	7.8
562.67	7.78
562.867	7.74
563.064	7.77
563.262	7.81
563.459	7.87
563.656	7.95
563.853	8.06
564.051	8.04
564.248	8.03
564.445	8.14
564.642	8.22
564.839	8.31
565.036	8.42
565.234	8.57
565.431	8.61
565.628	8.66
565.825	8.63
566.022	8.63
566.219	8.67
566.416	8.65
566.613	8.66
566.81	8.68
567.007	8.76
567.204	8.76
567.401	8.85
567.598	8.92
567.795	9.01
567.991	9.01
568.188	9.04
568.385	9.08
568.582	9.13
568.779	9.13
568.976	9.21
569.172	9.38
569.369	9.36
569.566	9.35
569.763	9.37
569.96	9.34
570.156	9.24
570.353	9.26
570.55	9.35
570.746	9.4
570.943	9.42
571.14	9.46
571.336	9.47
571.533	9.43
571.729	9.41
571.926	9.5
572.123	9.48
572.319	9.58
572.516	9.68
572.712	9.66
572.909	9.63
573.105	9.7
573.302	9.67
573.498	9.58
573.695	9.71
573.891	9.73
574.087	9.68
574.284	9.71
574.48	9.76
574.677	9.7
574.873	9.66
575.069	9.78
575.266	9.73
575.462	9.72
575.658	9.81
575.854	9.85
576.051	9.76
576.247	9.85
576.443	9.91
576.639	9.9
576.835	9.87
577.032	9.86
577.228	9.84
577.424	9.86
577.62	9.82
577.816	9.81
578.012	9.85
578.208	9.87
578.404	9.83
578.6	9.8
578.796	9.88
578.993	9.84
579.189	9.77
579.384	9.72
579.58	9.68
579.776	9.62
579.972	9.61
580.168	9.6
580.364	9.55
580.56	9.52
580.756	9.49
580.952	9.47
581.148	9.45
581.343	9.5
581.539	9.58
581.735	9.62
581.931	9.65
582.127	9.67
582.322	9.64
582.518	9.62
582.714	9.52
582.909	9.48
583.105	9.45
583.301	9.44
583.496	9.33
583.692	9.33
583.888	9.35
584.083	9.35
584.279	9.44
584.474	9.48
584.67	9.46
584.866	9.45
585.061	9.4
585.257	9.39
585.452	9.37
585.648	9.41
585.843	9.37
586.039	9.45
586.234	9.35
586.429	9.29
586.625	9.27
586.82	9.26
587.015	9.21
587.211	9.2
587.406	9.15
587.601	9.11
587.797	9.05
587.992	9.04
588.187	9.03
588.383	9.17
588.578	9.25
588.773	9.29
588.968	9.24
589.163	9.31
589.359	9.25
589.554	9.23
589.749	9.25
589.944	9.23
590.139	9.2
590.334	9.24
590.529	9.17
590.724	9.14
590.919	9.17
591.114	9.28
591.309	9.22
591.504	9.35
591.699	9.38
591.894	9.39
592.089	9.34
592.284	9.39
592.479	9.38
592.674	9.35
592.869	9.41
593.064	9.43
593.259	9.4
593.454	9.3
593.648	9.35
593.843	9.43
594.038	9.42
594.233	9.41
594.428	9.47
594.622	9.51
594.817	9.46
595.012	9.43
595.206	9.55
595.401	9.6
595.596	9.6
595.79	9.66
595.985	9.75
596.18	9.74
596.374	9.82
596.569	9.89
596.763	9.87
596.958	9.96
597.153	9.97
597.347	10.04
597.542	10.02
597.736	10.03
597.931	9.95
598.125	9.98
598.319	9.92
598.514	10.04
598.708	10.13
598.903	10.25
599.097	10.31
599.291	10.43
599.486	10.45
599.68	10.46
599.874	10.41
600.069	10.46
600.263	10.39
600.457	10.37
600.651	10.37
600.846	10.38
601.04	10.42
601.234	10.43
601.428	10.5
601.622	10.57
601.817	10.63
602.011	10.69
602.205	10.69
602.399	10.67
602.593	10.63
602.787	10.62
602.981	10.59
603.175	10.65
603.369	10.55
603.563	10.57
603.757	10.54
603.951	10.48
604.145	10.44
604.339	10.53
604.533	10.44
604.727	10.45
604.921	10.43
605.115	10.45
605.309	10.32
605.502	10.36
605.696	10.31
605.89	10.34
606.084	10.3
606.278	10.29
606.471	10.31
606.665	10.31
606.859	10.25
607.053	10.21
607.246	10.34
607.44	10.25
607.634	10.27
607.827	10.21
608.021	10.13
608.214	10.03
608.408	10.02
608.602	9.98
608.795	10.01
608.989	10.04
609.182	10
609.376	10.06
609.569	9.95
609.763	9.87
609.956	9.82
610.15	9.74
610.343	9.55
610.537	9.58
610.73	9.55
610.923	9.57
611.117	9.62
611.31	9.65
611.504	9.6
611.697	9.56
611.89	9.49
612.083	9.39
612.277	9.3
612.47	9.21
612.663	9.19
612.856	9.13
613.05	9.11
613.243	9.09
613.436	9.08
613.629	9.05
613.822	9.05
614.015	8.98
614.209	8.95
614.402	8.99
614.595	8.92
614.788	8.84
614.981	8.79
615.174	8.85
615.367	8.71
615.56	8.61
615.753	8.62
615.946	8.64
616.139	8.54
616.332	8.63
616.525	8.6
616.718	8.46
616.911	8.37
617.103	8.35
617.296	8.23
617.489	8.27
617.682	8.29
617.875	8.33
618.067	8.21
618.26	8.2
618.453	8.16
618.646	8.17
618.838	8.06
619.031	8.14
619.224	8.07
619.417	8.04
619.609	8
619.802	8.03
619.994	7.9
620.187	7.89
620.38	7.89
620.572	7.81
620.765	7.83
620.957	7.84
621.15	7.86
621.342	7.79
621.535	7.83
621.727	7.84
621.92	7.83
622.112	7.73
622.305	7.76
622.497	7.73
622.69	7.61
622.882	7.64
623.074	7.74
623.267	7.7
623.459	7.67
623.651	7.7
623.844	7.72
624.036	7.66
624.228	7.71
624.42	7.71
624.613	7.69
624.805	7.67
624.997	7.58
625.189	7.55
625.381	7.63
625.574	7.61
625.766	7.58
625.958	7.68
626.15	7.7
626.342	7.6
626.534	7.59
626.726	7.6
626.918	7.54
627.11	7.49
627.302	7.45
627.494	7.44
627.686	7.39
627.878	7.38
628.07	7.38
628.262	7.4
628.454	7.33
628.646	7.34
628.838	7.27
629.029	7.2
629.221	7.15
629.413	7.18
629.605	7.15
629.797	7.16
629.989	7.18
630.18	7.19
630.372	7.16
630.564	7.17
630.755	7.1
630.947	6.98
631.139	6.91
631.33	6.89
631.522	6.86
631.714	6.83
631.905	6.91
632.097	6.9
632.289	6.91
632.48	6.81
632.672	6.86
632.863	6.8
633.055	6.79
633.246	6.72
633.438	6.74
633.629	6.64
633.821	6.61
634.012	6.57
634.203	6.59
634.395	6.65
634.586	6.73
634.777	6.79
634.969	6.8
635.16	6.84
635.351	6.74
635.543	6.74
635.734	6.64
635.925	6.61
636.117	6.58
636.308	6.61
636.499	6.56
636.69	6.54
636.881	6.59
637.073	6.54
637.264	6.56
637.455	6.57
637.646	6.56
637.837	6.47
638.028	6.47
638.219	6.37
638.41	6.3
638.601	6.31
638.792	6.37
638.983	6.31
639.174	6.3
639.365	6.24
639.556	6.18
639.747	6.1
639.938	6.15
640.129	6.21
640.32	6.22
640.511	6.2
640.701	6.16
640.892	6.06
641.083	5.93
641.274	5.98
641.465	6.04
641.655	6.01
641.846	6.04
642.037	6.09
642.228	6.06
642.418	5.91
642.609	5.9
642.8	5.88
642.99	5.79
643.181	5.7
643.372	5.75
643.562	5.72
643.753	5.64
643.943	5.7
644.134	5.69
644.324	5.76
644.515	5.81
644.705	5.79
644.896	5.79
645.086	5.81
645.277	5.76
645.467	5.77
645.658	5.8
645.848	5.72
646.038	5.66
646.229	5.6
646.419	5.57
646.61	5.62
646.8	5.74
646.99	5.73
647.18	5.73
647.371	5.62
647.561	5.57
647.751	5.41
647.941	5.33
648.132	5.29
648.322	5.34
648.512	5.31
648.702	5.36
648.892	5.44
649.082	5.49
649.272	5.4
649.462	5.44
649.653	5.51
649.843	5.52
650.033	5.6
650.223	5.72
650.413	5.67
650.603	5.67
650.793	5.66
650.983	5.54
651.172	5.49
651.362	5.47
651.552	5.35
651.742	5.28
651.932	5.22
652.122	5.22
652.312	5.24
652.502	5.17
652.691	5.22
652.881	5.31
653.071	5.29
653.261	5.22
653.45	5.25
653.64	5.17
653.83	5.08
654.019	4.96
654.209	4.96
654.399	4.95
654.588	4.91
654.778	4.86
654.968	4.92
655.157	4.84
655.347	4.81
655.536	4.83
655.726	4.82
655.915	4.81
656.105	4.84
656.294	4.76
656.484	4.7
656.673	4.63
656.863	4.62
657.052	4.48
657.241	4.41
657.431	4.35
657.62	4.33
657.809	4.25
657.999	4.33
658.188	4.35
658.377	4.3
658.567	4.28
658.756	4.13
658.945	4.02
659.134	3.88
659.324	3.9
659.513	3.79
659.702	3.8
659.891	3.83
660.08	3.94
660.269	3.86
660.458	3.85
660.648	3.84
660.837	3.71
661.026	3.61
661.215	3.61
661.404	3.52
661.593	3.51
661.782	3.45
661.971	3.41
662.16	3.35
662.349	3.31
662.538	3.23
662.726	3.17
662.915	3.11
663.104	3.13
663.293	3.1
663.482	3.1
663.671	3.13
663.86	3.13
664.048	3.17
664.237	3.23
664.426	3.26
664.615	3.32
664.803	3.38
664.992	3.3
665.181	3.26
665.369	3.3
665.558	3.28
665.747	3.23
665.935	3.16
666.124	3.16
666.312	3.11
666.501	3.08
666.69	3.02
666.878	3
667.067	3.08
667.255	3.04
667.444	3.12
667.632	3.17
667.82	3.39
668.009	3.33
668.197	3.37
668.386	3.23
668.574	3.31
668.762	3.14
668.951	3.25
669.139	3.33
669.327	3.4
669.516	3.41
669.704	3.44
669.892	3.37
670.08	3.35
670.269	3.42
670.457	3.39
670.645	3.33
670.833	3.44
671.021	3.5
671.21	3.4
671.398	3.43
671.586	3.53
671.774	3.65
671.962	3.61
672.15	3.72
672.338	3.86
672.526	3.93
672.714	3.78
672.902	3.74
673.09	3.79
673.278	3.79
673.466	4.03
673.654	4.2
673.842	4.23
674.03	4.3
674.218	4.21
674.405	4.13
674.593	4.11
674.781	4.17
674.969	4.1
675.157	4.18
675.344	4.1
675.532	4.06
675.72	4.12
675.908	4.23
676.095	4.18
676.283	4.25
676.471	4.4
676.658	4.5
676.846	4.63
677.033	4.75
677.221	4.86
677.409	4.79
677.596	4.81
677.784	4.81
677.971	4.89
678.159	4.82
678.346	4.92
678.534	5.06
678.721	5.05
678.909	5.13
679.096	5.28
679.283	5.31
679.471	5.27
679.658	5.44
679.846	5.38
680.033	5.51
680.22	5.49
680.408	5.51
680.595	5.49
680.782	5.55
680.969	5.47
681.157	5.55
681.344	5.53
681.531	5.54
681.718	5.61
681.905	5.61
682.093	5.65
682.28	5.7
682.467	5.85
682.654	5.89
682.841	5.83
683.028	5.82
683.215	5.97
683.402	5.92
683.589	5.93
683.776	6.23
683.963	6.42
684.15	6.42
684.337	6.57
684.524	6.72
684.711	6.85
684.898	6.9
685.085	7.01
685.271	7.01
685.458	7.15
685.645	7.24
685.832	7.43
686.019	7.53
686.205	7.76
686.392	7.92
686.579	7.86
686.766	7.93
686.952	8.18
687.139	8.15
687.326	8.17
687.512	8.39
687.699	8.53
687.886	8.56
688.072	8.76
688.259	9.07
688.445	9.19
688.632	9.27
688.818	9.73
689.005	10
689.191	10.14
689.378	10.27
689.564	10.56
689.751	10.62
689.937	10.86
690.124	10.99
690.31	11.22
690.496	11.68
690.683	12.04
690.869	12.29
691.055	12.77
691.242	13.3
691.428	13.36
691.614	13.88
691.8	14.42
691.987	14.68
692.173	15.19
692.359	15.65
692.545	15.89
692.731	16.24
692.918	16.61
693.104	16.77
693.29	17.19
693.476	17.52
693.662	18.06
693.848	18.5
694.034	19.06
694.22	19.67
694.406	20.22
694.592	20.59
694.778	21.06
694.964	21.43
695.15	21.74
695.336	21.97
695.522	22.21
695.708	22.58
695.894	23.08
696.08	23.7
696.265	24.45
696.451	25.2
696.637	25.81
696.823	26.44
697.009	26.99
697.194	27.26
697.38	27.68
697.566	28.28
697.751	28.74
697.937	29.31
698.123	29.88
698.308	30.32
698.494	30.76
698.68	31.36
698.865	31.64
699.051	32.07
699.236	32.62
699.422	33.3
699.607	33.84
699.793	34.62
699.978	35.35
700.164	35.85
700.349	36.47
700.535	36.9
700.72	37.41
700.906	37.93
701.091	38.46
701.276	38.78
701.462	39.52
701.647	40.01
701.832	40.57
702.018	41.44
702.203	41.88
702.388	42.23
702.573	42.45
702.759	42.92
702.944	43.11
703.129	43.78
703.314	44.23
703.499	44.99
703.684	45.29
703.87	45.85
704.055	46.36
704.24	46.89
704.425	47.46
704.61	47.71
704.795	48
704.98	48.34
705.165	48.64
705.35	48.86
705.535	49.43
705.72	50.16
705.905	50.54
706.09	51.01
706.275	51.25
706.459	51.79
706.644	51.94
706.829	52.23
707.014	52.99
707.199	53.67
707.384	54.07
707.568	54.38
707.753	55.07
707.938	55.3
708.123	55.99
708.307	56.79
708.492	57.49
708.677	57.91
708.861	58.3
709.046	58.26
709.231	58.64
709.415	58.75
709.6	59
709.784	59.18
709.969	59.55
710.153	59.89
710.338	60.56
710.522	61.02
710.707	61.64
710.891	62
711.076	62.11
711.26	62.3
711.445	62.44
711.629	62.36
711.813	63.07
711.998	63.3
712.182	64.07
712.366	64.33
712.551	65.07
712.735	65.39
712.919	65.53
713.103	65.21
713.288	65.68
713.472	66.01
713.656	66.02
713.84	66.77
714.024	67.55
714.208	68.01
714.393	68.16
714.577	68.44
714.761	68.61
714.945	68.52
715.129	68.36
715.313	68.45
715.497	69.08
715.681	69.25
715.865	69.53
716.049	70.19
716.233	70.76
716.417	70.5
716.601	70.92
716.785	71.22
716.968	71.31
717.152	71.97
717.336	72.24
717.52	72.26
717.704	72.17
717.888	72.17
718.071	71.88
718.255	71.93
718.439	71.97
718.622	72.46
718.806	72.89
718.99	73.22
719.174	73.63
719.357	73.91
719.541	74.09
719.724	74.67
719.908	74.83
720.092	74.81
720.275	75.28
720.459	75.81
720.642	76.11
720.826	75.79
721.009	76.83
721.193	76.75
721.376	76.55
721.559	76.56
721.743	77.09
721.926	77.31
722.11	77.5
722.293	77.9
722.476	78.01
722.66	77.91
722.843	77.66
723.026	78.42
723.21	78.44
723.393	78.73
723.576	79.37
723.759	79.39
723.942	79.25
724.126	79.54
724.309	79.38
724.492	78.74
724.675	78.79
724.858	79.36
725.041	79.32
725.224	79.33
725.407	79.42
725.59	80.03
725.774	79.35
725.957	79.52
726.14	79.7
726.322	79.98
726.505	80.3
726.688	81.24
726.871	81.7
727.054	81.29
727.237	82.11
727.42	82.11
727.603	81.77
727.786	81.42
727.968	81.87
728.151	81.72
728.334	81.52
728.517	82.17
728.699	82.66
728.882	83.57
729.065	84.27
729.248	84.47
729.43	84.05
729.613	84.24
729.796	84.26
729.978	84.19
730.161	83.77
730.343	83.71
730.526	84.13
730.708	84.4
730.891	84.22
731.073	84.49
731.256	85.18
731.438	84.74
731.621	84.61
731.803	85.32
731.986	85.68
732.168	85.07
732.35	85.64
732.533	85.59
732.715	84.67
732.898	84.65
733.08	85.03
733.262	85.43
733.444	85.85
733.627	86.56
733.809	86.55
733.991	86.88
734.173	86.65
734.355	86.09
734.538	86.56
734.72	86.66
734.902	87.1
735.084	85.86
735.266	86.63
735.448	86.5
735.63	87
735.812	86.72
735.994	87.43
736.176	86.77
736.358	85.53
736.54	84.79
736.722	84.71
736.904	85.38
737.086	86.71
737.268	87.95
737.45	89.39
737.632	89.61
737.814	89.22
737.995	89.06
738.177	88.97
738.359	88.86
738.541	89.95
738.723	91.5
738.904	90.5
739.086	90.7
739.268	90.21
739.449	88.99
739.631	87.53
739.813	88.12
739.994	88.49
740.176	88.79
740.358	89.74
740.539	91.13
740.721	91.66
740.902	91.88
741.084	92.69
741.265	91.39
741.447	90.69
741.628	91.52
741.81	90.65
741.991	90.32
742.172	91.62
742.354	91.45
742.535	89.74
742.717	89.6
742.898	89.07
743.079	88.69
743.261	89.15
743.442	90.32
743.623	91.76
743.804	92.52
743.986	93.16
744.167	92.3
744.348	92.76
744.529	92.29
744.71	92.9
744.891	92.59
745.073	93.49
745.254	92.6
745.435	92.63
745.616	91.62
745.797	91.4
745.978	91.7
746.159	91.92
746.34	91.81
746.521	92.44
746.702	92.19
746.883	91.03
747.064	90.54
747.245	91.2
747.426	92.01
747.606	90.95
747.787	92.76
747.968	93.36
748.149	92.82
748.33	91.08
748.51	92.47
748.691	91.28
748.872	90.95
749.053	90.97
749.233	91.44
749.414	91.29
749.595	93.44
749.775	92.67
749.956	93.84
750.137	93.12
750.317	93.72
750.498	91.09
750.678	92.2
750.859	90.49
751.04	91.76
751.22	91.54
751.4	92.69
751.581	92.99
751.761	92.96
751.942	92.95
752.122	92.47
752.303	90.8
752.483	91.47
752.663	92.18
752.844	91
753.024	91.8
753.204	92.97
753.385	90.48
753.565	90.27
753.745	90.25
753.925	90.52
754.106	90.11
754.286	92.73
754.466	93.05
754.646	94.51
754.826	93.03
755.006	93.58
755.187	90.96
755.367	90.04
755.547	90.14
755.727	91.89
755.907	90.84
756.087	89.53
756.267	90.64
756.447	91.11
756.627	90.4
756.807	90.99
756.987	94.58
757.167	93.47
757.346	91.72
757.526	91.09
757.706	92.33
757.886	92.68
758.066	94.01
758.246	94.67
758.425	93.05
758.605	91.78
758.785	92.03
758.965	91.31
759.144	90.65
759.324	91.74
759.504	93.42
759.683	92.62
759.863	92.97
760.043	93.3
760.222	93.09
760.402	91.81
760.581	92.3
760.761	92.85
760.94	93.69
761.12	97.05
761.299	96.21
761.479	94.04
761.658	92.79
761.838	92.07
762.017	90.58
762.197	91.07
762.376	92.48
762.555	93.42
762.735	91.34
762.914	92.72
763.093	93.98
763.273	92.5
763.452	92.07
763.631	94.68
763.81	93.42
763.99	93.33
764.169	92.66
764.348	91.83
764.527	90.71
764.706	89.17
764.885	87.81
765.064	89.57
765.243	90.02
765.423	90.78
765.602	91.61
765.781	93.13
765.96	89.42
766.139	89.63
766.318	88.77
766.497	88.25
766.676	86.68
766.854	89.78
767.033	88.11
767.212	88.29
767.391	88.03
767.57	87.78
767.749	88.61
767.928	90.23
768.106	89.71
768.285	89.24
768.464	88.2
768.643	87.41
768.821	86.51
769	88.51
769.179	89.37
769.357	91.46
769.536	91.67
769.715	92.42
769.893	91.57
770.072	88.43
770.25	86.63
770.429	86.74
770.607	84.88
770.786	84.5
770.964	86.15
771.143	88.61
771.321	88.41
771.5	88.97
771.678	89.61
771.857	91.6
772.035	92.53
772.213	92.54
772.392	93.32
772.57	93.33
772.748	91.05
772.927	88.78
773.105	87.79
773.283	85.6
773.461	85.28
773.64	86.05
773.818	86.39
773.996	88.46
774.174	90.31
774.352	89.54
774.531	90.69
774.709	87.73
774.887	86.56
775.065	86.99
775.243	86.98
775.421	84.85
775.599	87.61
775.777	86.95
775.955	88.54
776.133	88.74
776.311	90.05
776.489	89.63
776.667	88.94
776.844	89.91
777.022	90.82
777.2	89.37
777.378	89.02
777.556	90.25
777.734	87.42
777.911	88.24
778.089	89.68
778.267	87.98
778.445	84.07
778.622	85.34
778.8	84.53
778.978	84.65
779.155	85.92
779.333	90.4
779.511	88.18
779.688	87.31
779.866	87.32
780.043	88.17
780.221	84.5
780.398	87.81
780.576	89.47
780.753	89.53
780.931	89.51
781.108	93.18
781.286	91.31
781.463	90.79
781.64	91.05
781.818	92.91
781.995	92.81
782.172	94.1
782.35	91.14
782.527	92.85
782.704	91.27
782.882	88.69
783.059	89.06
783.236	89.08
783.413	85.11
783.59	85.68
783.768	84.31
783.945	84.43
784.122	85.51
784.299	85.98
784.476	86.46
784.653	89.98
784.83	86.46
785.007	86.91
785.184	86.99
785.361	87.67
785.538	88.08
785.715	90.27
785.892	91.88
786.069	91.12
786.246	90.77
786.423	91.34
786.6	93.77
786.776	92.8
786.953	92.66
787.13	93.85
787.307	89.68
787.484	88.07
787.66	85.3
787.837	89.94
788.014	92.1
788.191	97.04
788.367	98.66
788.544	100.99
788.721	96.09
788.897	90.32
789.074	87.62
789.25	82.68
789.427	80.91
789.603	83.43
789.78	82.62
789.956	89.21
790.133	91.39
790.309	90.75
790.486	90.65
790.662	88.86
790.839	79.24
791.015	75.63
791.192	77.99
791.368	76.81
791.544	77.74
791.721	85.12
791.897	88.03
792.073	87.05
792.249	84.62
792.426	88.79
792.602	87.65
792.778	87.87
792.954	83.8
793.13	87.35
793.307	89.66
793.483	84.48
793.659	82.37
793.835	84.45
794.011	83.33
794.187	76.83
794.363	79.68
794.539	77.76
794.715	81.55
794.891	79.76
795.067	85.2
795.243	85.63
795.419	88.44
795.595	84.14
795.771	84.52
795.947	82.49
796.122	81.1
796.298	81.95
796.474	81.56
796.65	77.39
796.826	75.59
797.001	73.68
797.177	76.02
797.353	76.43
797.529	84.61
797.704	86.7
797.88	88.16
798.056	92.22
798.231	92.89
798.407	89.08
798.582	90.5
798.758	99.82
798.934	94.17
799.109	93.55
799.285	95.47
799.46	89.99
799.636	81.37
799.811	82.09
799.986	80.63
800.162	85.36
800.337	86.6
800.513	89.28
800.688	88.99
800.863	99.44
801.039	92.83
801.214	95.67
801.389	93.54
801.565	86.17
801.74	81.54
801.915	80.76
802.09	85.24
802.265	89.99
802.441	93.74
802.616	88.07
802.791	89.6
802.966	88.51
803.141	82.51
803.316	84.92
803.491	85.25
803.666	88.31
803.841	77.54
804.016	83.11
804.191	82.47
804.366	83.25
804.541	80.25
804.716	88.27
804.891	78.42
805.066	77.38
805.241	77.42
805.416	77.9
805.591	80.29
805.765	82.34
805.94	78.74
806.115	79.9
806.29	77.44
806.464	71.91
806.639	74.66
806.814	75.55
806.989	74.03
807.163	73.7
807.338	78.42
807.512	75.5
807.687	78.26
807.862	80.72
808.036	87.78
808.211	78.2
808.385	70.7
808.56	68.32
808.734	67.37
808.909	65.03
809.083	72.97
809.258	79.45
809.432	87.5
809.606	82.96
809.781	82.42
809.955	77.37
810.13	81.23
810.304	75.02
810.478	77.22
810.652	83
810.827	87.61
811.001	91.47
811.175	99.31
811.349	103.73
811.524	80.89
811.698	82.35
811.872	86.68
812.046	82.96
812.22	88.33
812.394	102.88
812.568	99.42
812.742	91.03
812.916	91.12
813.09	83.39
813.264	93.99
813.438	91.93
813.612	89.8
813.786	87.45
813.96	84.57
814.134	73.03
814.308	74.93
814.482	73.96
814.656	85.85
814.83	95.48
815.003	103.27
815.177	94.97
815.351	105.75
815.525	83.5
815.698	77.09
815.872	76.3
816.046	85.92
816.219	79.82
816.393	87.23
816.567	98.82
816.74	100.41
816.914	85.72
817.088	93.24
817.261	88.27
817.435	84.38
817.608	84.07
817.782	94.16
817.955	88.4
818.129	90.02
818.302	81.86
818.475	81.95
818.649	85.64
818.822	91.02
818.996	98.03
819.169	93.16
819.342	91.16
819.516	79.05
819.689	69.02
819.862	64.84
820.035	74.07
820.209	75.93
820.382	76.12
820.555	83.76
820.728	88.87
820.901	95.89
821.075	91.34
821.248	76.85
821.421	73.25
821.594	80.69
821.767	83.57
821.94	77.41
822.113	101.97
822.286	101.08
822.459	113.43
822.632	107.85
822.805	145.24
822.978	138.66
823.151	152.68
823.324	117.99
823.496	116.29
823.669	101.2
823.842	89.8
824.015	85.64
824.188	84.79
824.361	81.97
824.533	77.29
824.706	98.35
824.879	96.01
825.051	103.72
825.224	115.09
825.397	108.11
825.569	107.16
825.742	105.17
825.915	97.79
826.087	84.55
826.26	70.6
826.432	60.19
826.605	61.67
826.777	53.48
826.95	57.29
827.122	79.43
827.295	90.75
827.467	110.65
827.64	119.64
827.812	101.53
827.984	105.05
828.157	91.88
828.329	71.24
828.501	66.06
828.674	94.31
828.846	78.02
829.018	86.54
829.19	99.83
829.363	103.89
829.535	87.99
829.707	95.36
829.879	75.75
830.051	59.01
830.223	61.12
830.395	63.03
830.568	64.04
830.74	70.97
830.912	74.67
831.084	100.81
831.256	102.77
831.428	102.68
831.6	136.39
831.772	139.09
831.943	89.6
832.115	82.36
832.287	78.07
832.459	66.45
832.631	73.47
832.803	81.6
832.975	87.13
833.146	92.3
833.318	92.88
833.49	90.31
833.662	92.33
833.833	99.19
834.005	95.39
834.177	87.89
834.348	86.75
834.52	78.89
834.692	79.42
834.863	89.03
835.035	91.34
835.206	83.09
835.378	93.79
835.549	83.79
835.721	71.78
835.892	73.73
836.064	75.24
836.235	64
836.407	57.34
836.578	69.91
836.749	83.68
836.921	87.04
837.092	92.93
837.264	106.03
837.435	133.67
837.606	88
837.777	105.63
837.949	108.43
838.12	98.21
838.291	72.74
838.462	91.54
838.633	70.54
838.805	56.18
838.976	59.08
839.147	66.77
839.318	57.13
839.489	75.38
839.66	77.25
839.831	73.68
840.002	72.97
840.173	73.98
840.344	38.1
840.515	31
840.686	40.1
840.857	31.92
841.028	24.73
841.199	53.23
841.369	55.87
841.54	70.76
841.711	82.53
841.882	129.06
842.053	110.06
842.223	111.4
842.394	98.98
842.565	85.03
842.736	85.56
842.906	95.19
843.077	96.19
843.248	106.57
843.418	126.92
843.589	106.32
843.759	113.87
843.93	118.41
844.101	67.45
844.271	77.49
844.442	80.05
844.612	60.54
844.783	57.52
844.953	78.61
845.123	72.86
845.294	93.28
845.464	122.34
845.635	80.84
845.805	90.28
845.975	88.87
846.146	53.92
846.316	43.9
846.486	70.49
846.656	65.68
846.827	77.8
846.997	99.98
847.167	119.26
847.337	82.35
847.507	72.09
847.677	54.05
847.848	57.63
848.018	75.54
848.188	93.84
848.358	111.13
848.528	66.79
848.698	56.03
848.868	42.16
849.038	65.92
849.208	86.65
849.378	136.73
849.548	174.48
849.718	163.86
849.887	126.04
850.057	116.85
850.227	152.36
850.397	97.5
850.567	110.7
850.737	78.57
850.906	70.56
851.076	60.69
851.246	60.42
851.415	53.27
851.585	56.53
851.755	64.2
851.924	81.06
852.094	94.54
852.264	95.56
852.433	120.66
852.603	97.86
852.772	73.36
852.942	53.35
853.111	65.9
853.281	62.84
853.45	72.25
853.62	81.5
853.789	98.92
853.959	91.46
854.128	86.32
854.297	78.84
854.467	72.24
854.636	76.91
854.805	68.42
854.975	87.12
855.144	100.97
855.313	60.77
855.482	60.61
855.652	72.93
855.821	83.58
855.99	75.77
856.159	175.04
856.328	151.77
856.497	178.7
856.667	141.98
856.836	220.75
857.005	121.66
857.174	138.48
857.343	121.31
857.512	51.42
857.681	39.74
857.85	95.37
858.019	95.74
858.188	88.4
858.356	136.05
858.525	144.38
858.694	83.87
858.863	125.98
859.032	179.27
859.201	76.44
859.369	78.34
859.538	81.4
859.707	63.09
859.876	54.37
860.044	62.93
860.213	60.75
860.382	96.29
860.55	105.9
860.719	140.16
860.888	95.56
861.056	104.25
861.225	76.4
861.393	67.23
861.562	56.2
861.73	113.47
861.899	106.22
862.067	115.96
862.236	143.31
862.404	144.04
862.572	133.48
862.741	123.87
862.909	128.84
863.078	109.68
863.246	97.97
863.414	102.81
863.582	97.1
863.751	90.49
863.919	83.68
864.087	92.73
864.255	44.04
864.424	60.01
864.592	63.83
864.76	66.93
864.928	54.01
865.096	90.6
865.264	76.29
865.432	84.68
865.6	74.91
865.768	63.6
865.936	59.33
866.104	74.96
866.272	94.18
866.44	91.54
866.608	145.64
866.776	114.82
866.944	186.67
867.112	106.99
867.28	234.65
867.448	130.67
867.615	345.43
867.783	164.91
867.951	130.65
868.119	109.78
868.286	122.25
868.454	118.99
868.622	118.12
868.789	136.63
868.957	131.13
869.125	94.74
869.292	64.68
869.46	47.14
869.627	60.1
869.795	32.23
869.963	42.27
870.13	39.22
870.298	45.99
870.465	38.46
870.632	71.43
870.8	66.24
870.967	61.98
871.135	82.71
871.302	140.89
871.469	-172.27
871.637	197.84
871.804	163.9
871.971	102.96
872.139	73.51
872.306	63.97
872.473	52.07
872.64	45.85
872.807	59.49
872.975	151.71
873.142	215.3
873.309	6689.86
873.476	1449.4
873.643	424.79
873.81	180.26
873.977	141.94
874.144	122.47
874.311	101.84
874.478	74.7
874.645	91.16
874.812	78.34
874.979	58.9
875.146	79.16
875.313	104.48
875.48	234.58
875.647	-328.02
875.813	531.56
875.98	-759.6
876.147	298.37
876.314	126.88
876.481	194.03
876.647	253.41
876.814	150.31
876.981	264.87
877.147	176.86
877.314	145.85
877.481	132.28
877.647	172.59
877.814	122.42
877.98	116.99
878.147	94.62
878.314	81.63
878.48	54.86
878.647	70.55
878.813	824.81
878.979	171.79
879.146	132.88
879.312	165.79
879.479	85.94
879.645	78.52
879.811	65.32
879.978	84.38
880.144	65.85
880.31	77.19
880.477	63.1
880.643	97.76
880.809	106.85
880.975	2787.88
881.142	-126.25
881.308	-1434.67
881.474	101.51
881.64	15.31
881.806	56.39
881.972	57
882.138	73.55
882.304	91.75
882.47	119.85
882.636	17.99
882.802	57.02
882.968	27.71
883.134	71.03
883.3	56.57
883.466	98.65
883.632	99.96
883.798	70.17
883.964	63.64
884.129	108.41
884.295	97.4
884.461	86.1
884.627	124.47
884.793	112.02
884.958	77.61
885.124	57.23
885.29	88.29
885.455	154.22
885.621	110.38
885.787	129.58
885.952	-12.79
886.118	81.02
886.283	-1122.81
886.449	113.93
886.614	118.52
886.78	147.21
886.945	200.72
887.111	142.3
887.276	132.3
887.442	174.79
887.607	48.88
887.773	61.36
887.938	69.43
888.103	44.01
888.269	45.72
888.434	116.99
888.599	107.74
888.764	101.53
888.93	199.35
889.095	193.44
889.26	313.8
889.425	682.26
889.59	-1992.27
889.756	1192.88
889.921	358.86
890.086	182.64
890.251	188.31
890.416	117.66
890.581	108.73
890.746	148.46
890.911	165.66
891.076	125.43
891.241	117.93
891.406	107.87
891.571	54.86
891.736	87.2
891.901	79.91
892.065	46.31
892.23	60.2
892.395	108.62
892.56	178.96
892.725	260.96
892.889	171.55
893.054	110.11
893.219	137.13
893.384	128.82
893.548	156.15
893.713	-316.05
893.878	-19.72
