Data from Ofav_PS_Phys_9JQ42_Reflection_2.txt Node
Date: Thu Jul 29 18:22:30 EDT 2021
User: USUARIO
Spectrometer: FLMT01687
Trigger mode: 0
Integration Time (sec): 9.010000E-1
Scans to average: 2
Electric dark correction enabled: true
Nonlinearity correction enabled: false
Boxcar width: 2
XAxis mode: Wavelengths
Number of Pixels in Spectrum: 3648
>>>>>Begin Spectral Data<<<<<
179.494	117.78
179.716	175.23
179.937	120.63
180.158	-458.19
180.38	-2.38
180.601	-770.34
180.823	-214.96
181.044	-114.52
181.265	-114.72
181.486	-932.77
181.708	147.63
181.929	285.22
182.15	11566.67
182.372	-154.75
182.593	-39.84
182.814	-7.42
183.035	-669.76
183.257	101.2
183.478	48.2
183.699	77.41
183.92	61.92
184.141	34.02
184.363	20.83
184.584	29.81
184.805	23.97
185.026	42.09
185.247	50.01
185.468	58.33
185.689	67.25
185.91	87.12
186.132	60.9
186.353	61.98
186.574	85.31
186.795	68.73
187.016	56.09
187.237	49.36
187.458	43.94
187.679	30.05
187.9	44.33
188.121	42.75
188.342	66.98
188.563	59.65
188.784	53.35
189.005	52.14
189.226	45.8
189.447	29.37
189.667	24.1
189.888	20.98
190.109	18.54
190.33	27.1
190.551	38.94
190.772	45.42
190.993	14.03
191.214	24.07
191.434	37.41
191.655	28.25
191.876	35.01
192.097	73.25
192.318	54.77
192.538	23.67
192.759	57.05
192.98	53.96
193.201	59.8
193.421	60.79
193.642	85.96
193.863	66.45
194.083	40.68
194.304	29.22
194.525	28.7
194.745	27.59
194.966	4.82
195.187	-5.42
195.407	-16.43
195.628	-40.6
195.848	-17.83
196.069	59.5
196.29	90.8
196.51	95.73
196.731	88.86
196.951	81.6
197.172	44.38
197.392	21.1
197.613	29.25
197.833	1.89
198.054	3.94
198.274	13.74
198.495	13.48
198.715	-2.17
198.936	21.46
199.156	32.16
199.377	50.42
199.597	61.22
199.817	67.36
200.038	69.61
200.258	63.02
200.479	29.37
200.699	-2.76
200.919	3.06
201.14	-14.67
201.36	2.55
201.58	21.49
201.801	45.13
202.021	68.66
202.241	88.67
202.461	102.65
202.682	122.78
202.902	102.76
203.122	73.99
203.342	82.66
203.563	79.37
203.783	69.24
204.003	53.3
204.223	77.11
204.443	57.5
204.663	72.77
204.884	78.24
205.104	111.48
205.324	73.11
205.544	79.87
205.764	71.09
205.984	89.83
206.204	88.04
206.424	109.48
206.644	113.23
206.864	103
207.084	82.38
207.304	93.2
207.525	66.39
207.745	45.12
207.964	39.12
208.184	26.05
208.404	-28.82
208.624	33.73
208.844	22.23
209.064	38.73
209.284	32.21
209.504	41.39
209.724	21.42
209.944	42.69
210.164	28.67
210.384	25.48
210.604	32.4
210.823	31.36
211.043	19.75
211.263	51.12
211.483	67.67
211.703	34.45
211.922	38.58
212.142	37.09
212.362	18.03
212.582	19.64
212.801	32.96
213.021	10.96
213.241	36.75
213.461	32.81
213.68	9.75
213.9	20.43
214.12	30.09
214.339	-16.46
214.559	-30.78
214.779	-19.31
214.998	-34.68
215.218	-37.57
215.438	1.69
215.657	4.21
215.877	28.12
216.096	23.41
216.316	28.51
216.535	56.25
216.755	76.06
216.974	49.43
217.194	32.97
217.413	51.3
217.633	52.61
217.852	25.95
218.072	48.66
218.291	41.36
218.511	55.83
218.73	33.25
218.95	55.61
219.169	50.54
219.389	58.54
219.608	36.84
219.827	41.03
220.047	38.66
220.266	25.12
220.485	31.79
220.705	38.51
220.924	25.63
221.143	18.38
221.363	18.98
221.582	-20.12
221.801	-150.85
222.021	-72.5
222.24	-52.87
222.459	-36.2
222.678	20.01
222.897	36.85
223.117	43.86
223.336	58.92
223.555	65.73
223.774	84.23
223.993	101.03
224.213	101.32
224.432	92.58
224.651	86.4
224.87	59.93
225.089	61.01
225.308	57.63
225.527	74.27
225.746	61.17
225.965	71.02
226.184	26.47
226.404	-6.01
226.623	14.12
226.842	27.05
227.061	14.85
227.28	46.56
227.499	84.59
227.718	69.76
227.936	30.61
228.155	36.56
228.374	-6.08
228.593	-10.12
228.812	-0.34
229.031	10.95
229.25	28.64
229.469	42.11
229.688	34.43
229.907	42.02
230.125	41.11
230.344	51.36
230.563	61.58
230.782	87.05
231.001	66.99
231.22	83.77
231.438	60.62
231.657	42.82
231.876	47.01
232.095	33.09
232.313	19.57
232.532	17.57
232.751	13.4
232.969	-5.96
233.188	17.52
233.407	25.21
233.625	12.34
233.844	25.05
234.063	32.72
234.281	16.43
234.5	27.64
234.719	57.72
234.937	45.06
235.156	48.23
235.374	62.16
235.593	57.93
235.811	49.46
236.03	50.42
236.249	42.29
236.467	44.8
236.686	35.06
236.904	19.85
237.123	32.38
237.341	8.89
237.559	-6.65
237.778	-0.34
237.996	16.03
238.215	9.92
238.433	43.9
238.652	55.23
238.87	62.25
239.088	79.32
239.307	77.81
239.525	49.05
239.743	37.15
239.962	36.37
240.18	28.92
240.398	22.28
240.617	16.95
240.835	1.62
241.053	0.5
241.271	9.49
241.49	29.93
241.708	40.84
241.926	54.97
242.144	44.68
242.363	30.99
242.581	23.49
242.799	16.22
243.017	20.28
243.235	15.89
243.453	13.66
243.672	15.98
243.89	15.25
244.108	25.84
244.326	40.27
244.544	23.17
244.762	12.01
244.98	23.63
245.198	9.15
245.416	-3.46
245.634	-14.61
245.852	-5.35
246.07	11.65
246.288	21.68
246.506	34.37
246.724	56.19
246.942	51.12
247.16	42.82
247.378	26.69
247.596	11.02
247.814	21.67
248.032	22.26
248.25	21.7
248.468	34.59
248.685	39.61
248.903	43.78
249.121	49.51
249.339	35.47
249.557	35.17
249.775	51.36
249.992	28.65
250.21	19.85
250.428	44.14
250.646	39.72
250.863	31.23
251.081	30.52
251.299	45.33
251.517	39.31
251.734	57.92
251.952	67.96
252.17	70.26
252.387	66.12
252.605	74.92
252.823	42.21
253.04	34.93
253.258	29.93
253.475	19.57
253.693	28.69
253.911	41.6
254.128	58.04
254.346	58.95
254.563	68.08
254.781	48.36
254.998	43.88
255.216	-0.8
255.433	8.07
255.651	2.79
255.868	6
256.086	1.11
256.303	15.97
256.521	27.98
256.738	32.28
256.956	27.11
257.173	21.58
257.39	29.19
257.608	29.42
257.825	43.98
258.043	40.4
258.26	53.22
258.477	40.87
258.695	19.19
258.912	2.15
259.129	29.46
259.346	31.2
259.564	39.25
259.781	42.21
259.998	54.4
260.216	49.16
260.433	56.21
260.65	65.42
260.867	70.17
261.084	67.41
261.302	51.23
261.519	38.16
261.736	17.38
261.953	1.19
262.17	13.47
262.387	19.3
262.604	8.18
262.822	20.42
263.039	36.89
263.256	16.05
263.473	15.37
263.69	14.39
263.907	6.45
264.124	-12.44
264.341	2.73
264.558	9.13
264.775	3.49
264.992	2.44
265.209	2.55
265.426	12.72
265.643	24.06
265.86	26.61
266.077	17.13
266.294	27.37
266.51	11.7
266.727	-3.77
266.944	11.26
267.161	21.09
267.378	20.88
267.595	40.39
267.812	39.29
268.028	-6.37
268.245	13.59
268.462	13.44
268.679	22.84
268.896	13.71
269.112	34.92
269.329	24.56
269.546	24.55
269.763	13.49
269.979	38.46
270.196	59.24
270.413	60.34
270.629	60.7
270.846	57.76
271.063	45.65
271.279	48.23
271.496	47.82
271.712	51.45
271.929	65.53
272.146	89.13
272.362	64.64
272.579	69.85
272.795	78.08
273.012	78.12
273.228	44.87
273.445	58.87
273.661	47.09
273.878	27.11
274.094	23.05
274.311	29.01
274.527	12.86
274.744	31.02
274.96	42.43
275.177	26.77
275.393	28.49
275.609	41.45
275.826	30.83
276.042	27.04
276.259	12.8
276.475	17.47
276.691	22.57
276.908	36.77
277.124	38.41
277.34	55.89
277.557	43.87
277.773	26.02
277.989	19.46
278.205	24.17
278.422	28.97
278.638	40.81
278.854	43.51
279.07	40.96
279.286	5.49
279.503	5.2
279.719	12.37
279.935	12.18
280.151	1.66
280.367	35.32
280.583	53.38
280.799	43.84
281.016	38.25
281.232	39.4
281.448	31.16
281.664	26.6
281.88	20.46
282.096	16.55
282.312	-1.55
282.528	-7.3
282.744	-10.84
282.96	-6.86
283.176	3.51
283.392	32.36
283.608	28.68
283.824	15.91
284.04	16
284.256	31.52
284.471	21.84
284.687	35.04
284.903	37.83
285.119	39.94
285.335	14.08
285.551	22.85
285.767	20.58
285.982	26.76
286.198	33.9
286.414	43.53
286.63	49.36
286.846	47.81
287.061	46.91
287.277	53.75
287.493	41.1
287.709	34.7
287.924	47.03
288.14	48.53
288.356	44.44
288.571	45.05
288.787	38.5
289.003	13.43
289.218	5.36
289.434	-5.03
289.65	7.18
289.865	20.22
290.081	22.57
290.296	37.88
290.512	37.37
290.727	40.48
290.943	34.63
291.159	46.28
291.374	43.38
291.59	43.1
291.805	22.67
292.021	23.59
292.236	22.61
292.451	11.11
292.667	6.42
292.882	24.95
293.098	9.38
293.313	15
293.529	18.54
293.744	17.51
293.959	19.09
294.175	37.75
294.39	25.66
294.605	15.32
294.821	17.02
295.036	14.44
295.251	-5.85
295.467	-9.37
295.682	6.2
295.897	6.35
296.112	1.21
296.328	22.73
296.543	21.83
296.758	10.1
296.973	22.37
297.188	43.85
297.404	23.97
297.619	31.57
297.834	22.53
298.049	23.36
298.264	21.91
298.479	41.28
298.694	40.64
298.909	51.44
299.125	34.54
299.34	38.89
299.555	17.34
299.77	42.3
299.985	3.74
300.2	20.57
300.415	5.51
300.63	15.31
300.845	-7.53
301.06	16.47
301.275	26.91
301.49	17.67
301.704	-5.83
301.919	5.38
302.134	-1.4
302.349	3.67
302.564	23.09
302.779	11.1
302.994	7.54
303.209	12.38
303.423	15.74
303.638	2.03
303.853	30.2
304.068	37.43
304.283	40.77
304.497	39.83
304.712	27.49
304.927	36.16
305.142	21.44
305.356	3.28
305.571	11.53
305.786	26.38
306	10.15
306.215	27.81
306.43	32.42
306.644	18.3
306.859	23.62
307.074	20.75
307.288	12.24
307.503	42.79
307.717	41.55
307.932	38.88
308.147	52.42
308.361	65.51
308.576	57.39
308.79	43.68
309.005	36.54
309.219	30.6
309.434	37.78
309.648	32
309.863	37.27
310.077	42.97
310.292	37.17
310.506	14.95
310.72	20.23
310.935	20.2
311.149	13.84
311.364	36.92
311.578	24.91
311.792	6.71
312.007	8.82
312.221	16.1
312.435	-17.32
312.649	6.34
312.864	-30.3
313.078	-17.82
313.292	-14.61
313.507	35.21
313.721	57.75
313.935	31.67
314.149	30.36
314.363	32.92
314.578	26.77
314.792	15.82
315.006	37.96
315.22	44.47
315.434	37.94
315.648	26.39
315.862	22.71
316.077	11.7
316.291	6.84
316.505	15.87
316.719	32.4
316.933	39.36
317.147	47.4
317.361	42.96
317.575	45.02
317.789	34.11
318.003	41.43
318.217	50.79
318.431	46.65
318.645	54.63
318.859	58.7
319.073	47.36
319.287	23.09
319.5	26.73
319.714	19.83
319.928	19.76
320.142	32.32
320.356	34.28
320.57	30.21
320.784	25.29
320.997	14.09
321.211	7.83
321.425	8.7
321.639	9.23
321.853	12.25
322.066	15.87
322.28	9.83
322.494	16.55
322.707	33.45
322.921	22.89
323.135	13.02
323.349	23.98
323.562	19.98
323.776	3.36
323.989	19.51
324.203	36.44
324.417	29.21
324.63	32.81
324.844	33
325.057	25.03
325.271	14.06
325.485	16.98
325.698	13.07
325.912	16.54
326.125	4.43
326.339	6.87
326.552	11.99
326.766	19.55
326.979	19.36
327.193	19.82
327.406	34.01
327.619	29.48
327.833	28.93
328.046	37.8
328.26	60.23
328.473	46.72
328.686	49.92
328.9	49.2
329.113	31.98
329.326	14.22
329.54	12.05
329.753	20.11
329.966	12.32
330.179	14.29
330.393	10.14
330.606	10.84
330.819	29.85
331.032	45.11
331.246	42.22
331.459	31.66
331.672	41.13
331.885	8.14
332.098	-5.94
332.311	26.11
332.525	33.69
332.738	32.52
332.951	16.98
333.164	26.15
333.377	24.36
333.59	41.94
333.803	45.24
334.016	58.25
334.229	44.34
334.442	40.26
334.655	36.53
334.868	21.88
335.081	31.68
335.294	30.6
335.507	25.64
335.72	34.22
335.933	35.87
336.146	34.44
336.359	43.32
336.572	22.72
336.785	4.4
336.997	11.05
337.21	9.43
337.423	12.87
337.636	32.33
337.849	28.96
338.062	25.57
338.274	23.62
338.487	25.1
338.7	-3.77
338.913	-4.24
339.125	3.21
339.338	-2.22
339.551	-10.69
339.763	2.16
339.976	1.31
340.189	8.37
340.402	35.61
340.614	54.83
340.827	52.82
341.039	54.81
341.252	52.07
341.465	29.46
341.677	27.71
341.89	12.26
342.102	10.62
342.315	12.37
342.527	9.33
342.74	-7.46
342.952	-4.46
343.165	8.31
343.377	1.42
343.59	5.01
343.802	29.06
344.015	36.34
344.227	29.3
344.44	32.81
344.652	30.5
344.864	17.58
345.077	39.55
345.289	42.67
345.502	56.75
345.714	47.44
345.926	54.04
346.139	30.42
346.351	12.98
346.563	25.34
346.775	25.15
346.988	4.37
347.2	22.21
347.412	21.78
347.624	3.61
347.837	-8.45
348.049	1.53
348.261	6.94
348.473	14.21
348.685	22.04
348.897	35.17
349.11	28.84
349.322	16.32
349.534	29.93
349.746	34.05
349.958	33.47
350.17	46.46
350.382	58.22
350.594	44.34
350.806	50.69
351.018	33.58
351.23	17.75
351.442	-1.43
351.654	17.29
351.866	-17.68
352.078	18.06
352.29	18.93
352.502	19.74
352.714	8.76
352.926	29.11
353.138	30.5
353.35	27.38
353.561	19.53
353.773	31.69
353.985	26.02
354.197	13
354.409	18.74
354.621	25.92
354.832	8.27
355.044	5.86
355.256	17.4
355.468	21.06
355.679	22.21
355.891	21.53
356.103	24.51
356.314	18.94
356.526	18.53
356.738	25.8
356.949	29.34
357.161	37.34
357.373	32
357.584	31.98
357.796	31.29
358.008	13.21
358.219	4.33
358.431	15.24
358.642	19.74
358.854	15.37
359.065	33.36
359.277	24.79
359.488	12.87
359.7	9.87
359.911	14.95
360.123	2.61
360.334	27.71
360.546	28.21
360.757	27.12
360.969	30.6
361.18	46.26
361.391	28.67
361.603	37.71
361.814	47.98
362.025	38.03
362.237	37.8
362.448	36.56
362.659	29.28
362.871	25.4
363.082	26.41
363.293	16.38
363.504	13.65
363.716	21.61
363.927	5.65
364.138	-15.08
364.349	-11.78
364.56	5.28
364.772	-1.45
364.983	17.46
365.194	26.56
365.405	29.44
365.616	29.44
365.827	30.73
366.038	20.9
366.25	19.28
366.461	17.52
366.672	-8.09
366.883	8.39
367.094	4.59
367.305	24.9
367.516	39.69
367.727	49.25
367.938	54.18
368.149	47.4
368.36	39.32
368.571	24.96
368.781	9.49
368.992	-1.41
369.203	9.56
369.414	12.88
369.625	19.08
369.836	27.32
370.047	18.45
370.258	15.83
370.468	11.2
370.679	-4.06
370.89	-23.71
371.101	-2.21
371.312	0.8
371.522	7.04
371.733	17.79
371.944	21.52
372.155	14.82
372.365	5.79
372.576	-2.33
372.787	-0.09
372.997	-3.73
373.208	-0.47
373.419	9.41
373.629	21.48
373.84	32.79
374.05	36.24
374.261	35.24
374.472	30.11
374.682	20.11
374.893	23.33
375.103	32.83
375.314	34.28
375.524	36.61
375.735	37.78
375.945	34.64
376.156	31.44
376.366	14.29
376.577	23.97
376.787	28.54
376.997	33.1
377.208	23.84
377.418	32.77
377.629	38.72
377.839	44.89
378.049	41.38
378.26	40.25
378.47	48.26
378.68	36.87
378.89	29.56
379.101	33.46
379.311	30.19
379.521	24.17
379.732	20.51
379.942	19.01
380.152	5.54
380.362	12.63
380.572	9.27
380.783	4.42
380.993	-0.19
381.203	9.65
381.413	7.95
381.623	12.73
381.833	29.26
382.043	36.63
382.253	27.18
382.463	26.19
382.674	25.53
382.884	19.06
383.094	10.79
383.304	15.13
383.514	10.72
383.724	17.57
383.934	15.93
384.144	17.11
384.353	19.5
384.563	24
384.773	18.19
384.983	17.22
385.193	21.77
385.403	13.04
385.613	12.38
385.823	8.37
386.033	8.75
386.242	-0.03
386.452	5.58
386.662	2.62
386.872	9.69
387.082	8.8
387.291	6.7
387.501	6.93
387.711	7.83
387.921	2.01
388.13	3.9
388.34	13.37
388.55	13.2
388.759	13.92
388.969	16.43
389.179	14.71
389.388	10.1
389.598	10.53
389.807	10.78
390.017	9.84
390.227	12.31
390.436	13.7
390.646	12.52
390.855	11.04
391.065	11.68
391.274	8.85
391.484	5.34
391.693	4.23
391.903	4.74
392.112	5.33
392.322	6.25
392.531	7.04
392.74	7.07
392.95	7.83
393.159	8.37
393.369	9.2
393.578	9.64
393.787	10.75
393.997	9.54
394.206	8.84
394.415	8.61
394.625	9.15
394.834	7.99
395.043	8.35
395.252	9.12
395.462	8.21
395.671	7.82
395.88	9.15
396.089	9.08
396.298	8.66
396.508	8.2
396.717	7.82
396.926	7.49
397.135	6.83
397.344	6.78
397.553	8.11
397.762	8.78
397.971	8.91
398.181	9.89
398.39	9.42
398.599	8.79
398.808	8.92
399.017	9.34
399.226	9.01
399.435	9.25
399.644	10.05
399.853	9.64
400.062	9.7
400.27	10
400.479	10.16
400.688	9.56
400.897	9.75
401.106	9.46
401.315	9.24
401.524	9.49
401.733	9.63
401.941	9.86
402.15	9.9
402.359	9.61
402.568	9.51
402.777	9.33
402.985	9.02
403.194	8.72
403.403	8.87
403.612	8.49
403.82	8.52
404.029	8.27
404.238	8.3
404.446	8.45
404.655	8.48
404.864	8.35
405.072	8.52
405.281	8.49
405.489	8.26
405.698	8.2
405.906	8.21
406.115	8.22
406.324	8.19
406.532	8.31
406.741	8.45
406.949	8.49
407.158	8.39
407.366	8.39
407.574	8.26
407.783	8.22
407.991	8.14
408.2	8.08
408.408	8
408.617	7.99
408.825	8.02
409.033	8.18
409.242	8.28
409.45	8.36
409.658	8.49
409.867	8.42
410.075	8.17
410.283	8.07
410.491	7.82
410.7	7.68
410.908	7.76
411.116	7.82
411.324	7.84
411.533	8.04
411.741	8.01
411.949	7.87
412.157	7.77
412.365	7.57
412.573	7.51
412.781	7.47
412.99	7.48
413.198	7.59
413.406	7.71
413.614	7.85
413.822	7.97
414.03	7.94
414.238	7.98
414.446	8.05
414.654	7.89
414.862	7.73
415.07	7.49
415.278	7.45
415.486	7.3
415.694	7.3
415.902	7.39
416.109	7.64
416.317	7.65
416.525	7.7
416.733	7.72
416.941	7.59
417.149	7.51
417.357	7.18
417.564	7.07
417.772	6.89
417.98	7.12
418.188	7.07
418.395	7.27
418.603	7.34
418.811	7.49
419.019	7.38
419.226	7.56
419.434	7.49
419.642	7.44
419.849	7.28
420.057	7.21
420.265	7.05
420.472	7.09
420.68	7.28
420.887	7.48
421.095	7.49
421.302	7.54
421.51	7.53
421.717	7.4
421.925	7.35
422.132	7.17
422.34	7.07
422.547	6.98
422.755	6.87
422.962	6.66
423.17	6.65
423.377	6.77
423.585	6.76
423.792	6.89
423.999	6.88
424.207	6.91
424.414	6.69
424.621	6.77
424.829	6.57
425.036	6.7
425.243	6.75
425.451	6.86
425.658	6.81
425.865	6.8
426.072	6.69
426.28	6.8
426.487	6.79
426.694	6.74
426.901	6.69
427.108	6.76
427.315	6.78
427.523	6.78
427.73	6.82
427.937	7.05
428.144	6.98
428.351	6.8
428.558	6.91
428.765	6.91
428.972	6.94
429.179	6.91
429.386	7.08
429.593	6.85
429.8	6.98
430.007	6.88
430.214	7.15
430.421	7.12
430.628	7.14
430.835	7.18
431.042	7.15
431.249	7.09
431.456	7
431.662	7.17
431.869	7.11
432.076	7.18
432.283	7.18
432.49	7.2
432.697	7.13
432.903	7.09
433.11	7.11
433.317	7
433.524	7.15
433.73	7
433.937	7.02
434.144	6.98
434.35	6.92
434.557	6.78
434.764	6.9
434.97	6.87
435.177	7.07
435.384	6.96
435.59	6.93
435.797	6.98
436.003	6.86
436.21	6.64
436.416	6.72
436.623	6.74
436.829	6.76
437.036	6.78
437.242	6.91
437.449	7.01
437.655	7.14
437.862	7.21
438.068	7.23
438.275	7.26
438.481	7.09
438.687	6.89
438.894	6.8
439.1	6.87
439.307	6.83
439.513	6.93
439.719	7.02
439.926	6.95
440.132	6.93
440.338	6.9
440.544	6.86
440.751	6.81
440.957	7.01
441.163	6.92
441.369	6.96
441.575	7.05
441.782	7.06
441.988	7.01
442.194	7.06
442.4	7.03
442.606	7.16
442.812	7.17
443.018	7.22
443.224	7.26
443.431	7.26
443.637	7.11
443.843	7.13
444.049	7.05
444.255	7.06
444.461	7
444.667	6.96
444.873	6.92
445.079	7.02
445.284	7.01
445.49	7.06
445.696	7.08
445.902	7.09
446.108	6.91
446.314	6.96
446.52	7.03
446.726	7.1
446.931	7.18
447.137	7.29
447.343	7.22
447.549	7.16
447.755	7.14
447.96	7.22
448.166	7.21
448.372	7.22
448.578	7.27
448.783	7.36
448.989	7.29
449.195	7.19
449.4	7.2
449.606	7.12
449.812	7.04
450.017	7.1
450.223	7.24
450.428	7.22
450.634	7.18
450.84	7.22
451.045	7.12
451.251	7.06
451.456	7.21
451.662	7.3
451.867	7.2
452.073	7.27
452.278	7.26
452.483	7.27
452.689	7.3
452.894	7.43
453.1	7.53
453.305	7.59
453.51	7.57
453.716	7.54
453.921	7.57
454.127	7.41
454.332	7.31
454.537	7.24
454.742	7.36
454.948	7.21
455.153	7.26
455.358	7.39
455.563	7.51
455.769	7.39
455.974	7.52
456.179	7.51
456.384	7.46
456.589	7.43
456.795	7.49
457	7.46
457.205	7.63
457.41	7.66
457.615	7.67
457.82	7.71
458.025	7.72
458.23	7.66
458.435	7.61
458.64	7.53
458.845	7.56
459.05	7.59
459.255	7.52
459.46	7.54
459.665	7.6
459.87	7.48
460.075	7.49
460.28	7.45
460.485	7.58
460.69	7.57
460.895	7.55
461.099	7.57
461.304	7.58
461.509	7.46
461.714	7.49
461.919	7.57
462.123	7.5
462.328	7.64
462.533	7.65
462.738	7.62
462.942	7.7
463.147	7.93
463.352	7.96
463.556	8.05
463.761	7.94
463.966	7.9
464.17	7.79
464.375	7.68
464.58	7.6
464.784	7.76
464.989	7.73
465.193	7.71
465.398	7.79
465.602	7.93
465.807	7.84
466.011	7.97
466.216	7.95
466.42	7.96
466.625	7.97
466.829	8.01
467.034	7.99
467.238	7.98
467.443	7.97
467.647	7.83
467.851	7.86
468.056	7.8
468.26	7.89
468.464	7.82
468.669	8.03
468.873	8.09
469.077	8.05
469.282	8.01
469.486	8.11
469.69	8.01
469.894	8.02
470.099	8.07
470.303	8.08
470.507	8.06
470.711	8.02
470.915	8.01
471.119	8.02
471.324	8.03
471.528	8.03
471.732	8.04
471.936	7.99
472.14	8.04
472.344	8.08
472.548	8.03
472.752	8.12
472.956	8.15
473.16	8.09
473.364	8.08
473.568	8.14
473.772	8.09
473.976	8.15
474.18	8.22
474.384	8.2
474.588	8.12
474.792	8.14
474.995	8.13
475.199	8.11
475.403	8.06
475.607	8.15
475.811	8.11
476.015	8.11
476.218	8.04
476.422	8.13
476.626	8.09
476.83	8.06
477.033	8.04
477.237	7.99
477.441	7.95
477.644	7.98
477.848	7.99
478.052	7.95
478.255	7.97
478.459	7.92
478.663	7.84
478.866	7.8
479.07	7.86
479.273	7.87
479.477	7.84
479.681	7.92
479.884	7.94
480.088	7.87
480.291	7.92
480.495	7.98
480.698	7.93
480.901	7.85
481.105	7.84
481.308	7.79
481.512	7.83
481.715	7.85
481.919	7.89
482.122	7.97
482.325	7.94
482.529	7.84
482.732	7.84
482.935	7.86
483.138	7.74
483.342	7.83
483.545	7.96
483.748	7.92
483.952	8.07
484.155	8.21
484.358	8.14
484.561	8.07
484.764	8.09
484.967	8.01
485.171	7.95
485.374	7.93
485.577	7.9
485.78	7.84
485.983	7.85
486.186	7.74
486.389	7.77
486.592	7.77
486.795	7.78
486.998	7.67
487.201	7.75
487.404	7.81
487.607	7.85
487.81	7.81
488.013	7.82
488.216	7.84
488.419	7.83
488.622	7.85
488.825	7.9
489.028	7.95
489.231	7.95
489.433	7.94
489.636	7.9
489.839	7.93
490.042	7.87
490.245	7.87
490.447	7.83
490.65	7.85
490.853	7.84
491.056	7.87
491.258	7.82
491.461	7.88
491.664	7.9
491.866	7.84
492.069	7.85
492.272	7.88
492.474	7.85
492.677	7.74
492.879	7.89
493.082	7.92
493.285	7.95
493.487	7.96
493.69	8.07
493.892	8
494.095	8.07
494.297	8.08
494.5	8.1
494.702	8.11
494.905	8.14
495.107	8.05
495.309	8.06
495.512	8.02
495.714	8.09
495.917	8.05
496.119	8.18
496.321	8.22
496.524	8.2
496.726	8.12
496.928	8.17
497.13	8.11
497.333	8.1
497.535	8.19
497.737	8.21
497.939	8.16
498.142	8.19
498.344	8.22
498.546	8.22
498.748	8.26
498.95	8.33
499.152	8.27
499.355	8.33
499.557	8.39
499.759	8.37
499.961	8.3
500.163	8.36
500.365	8.39
500.567	8.31
500.769	8.31
500.971	8.36
501.173	8.33
501.375	8.23
501.577	8.21
501.779	8.25
501.981	8.25
502.183	8.26
502.385	8.3
502.587	8.27
502.788	8.2
502.99	8.2
503.192	8.2
503.394	8.17
503.596	8.21
503.798	8.26
503.999	8.31
504.201	8.3
504.403	8.28
504.605	8.27
504.806	8.22
505.008	8.21
505.21	8.31
505.411	8.33
505.613	8.33
505.815	8.43
506.016	8.39
506.218	8.33
506.42	8.32
506.621	8.26
506.823	8.2
507.024	8.2
507.226	8.18
507.427	8.16
507.629	8.2
507.83	8.14
508.032	8.15
508.233	8.14
508.435	8.15
508.636	8.21
508.838	8.28
509.039	8.13
509.24	8.15
509.442	8.16
509.643	8.07
509.845	8.04
510.046	8.2
510.247	8.13
510.448	8.16
510.65	8.21
510.851	8.17
511.052	8.12
511.254	8.1
511.455	8.06
511.656	8.01
511.857	7.98
512.058	7.94
512.26	7.96
512.461	7.87
512.662	7.91
512.863	7.87
513.064	7.85
513.265	7.76
513.466	7.83
513.667	7.73
513.868	7.78
514.069	7.79
514.27	7.87
514.471	7.84
514.672	7.81
514.873	7.76
515.074	7.77
515.275	7.72
515.476	7.7
515.677	7.72
515.878	7.82
516.079	7.81
516.28	7.82
516.481	7.84
516.682	7.86
516.882	7.75
517.083	7.71
517.284	7.67
517.485	7.58
517.686	7.54
517.886	7.59
518.087	7.62
518.288	7.64
518.488	7.65
518.689	7.7
518.89	7.62
519.091	7.61
519.291	7.56
519.492	7.62
519.692	7.61
519.893	7.71
520.094	7.67
520.294	7.76
520.495	7.76
520.695	7.81
520.896	7.78
521.096	7.82
521.297	7.76
521.497	7.7
521.698	7.61
521.898	7.57
522.099	7.54
522.299	7.55
522.499	7.63
522.7	7.66
522.9	7.69
523.101	7.7
523.301	7.7
523.501	7.65
523.702	7.67
523.902	7.65
524.102	7.63
524.302	7.59
524.503	7.67
524.703	7.66
524.903	7.63
525.103	7.66
525.304	7.72
525.504	7.74
525.704	7.73
525.904	7.75
526.104	7.75
526.304	7.72
526.504	7.67
526.705	7.61
526.905	7.62
527.105	7.65
527.305	7.69
527.505	7.66
527.705	7.76
527.905	7.72
528.105	7.69
528.305	7.65
528.505	7.64
528.705	7.62
528.905	7.65
529.105	7.61
529.304	7.66
529.504	7.67
529.704	7.65
529.904	7.65
530.104	7.62
530.304	7.6
530.503	7.59
530.703	7.57
530.903	7.6
531.103	7.62
531.303	7.69
531.502	7.77
531.702	7.8
531.902	7.75
532.101	7.77
532.301	7.74
532.501	7.73
532.7	7.83
532.9	7.88
533.1	7.95
533.299	7.88
533.499	7.87
533.698	7.73
533.898	7.73
534.097	7.74
534.297	7.81
534.496	7.78
534.696	7.82
534.895	7.82
535.095	7.82
535.294	7.8
535.494	7.79
535.693	7.77
535.892	7.85
536.092	7.83
536.291	7.81
536.491	7.84
536.69	7.86
536.889	7.76
537.088	7.8
537.288	7.84
537.487	7.83
537.686	7.84
537.886	7.9
538.085	7.9
538.284	7.9
538.483	7.95
538.682	8
538.882	7.98
539.081	8.02
539.28	8.04
539.479	8
539.678	8.02
539.877	8.05
540.076	7.99
540.275	8
540.474	8.04
540.673	8.04
540.872	8.07
541.071	8.11
541.27	8.13
541.469	8.21
541.668	8.23
541.867	8.24
542.066	8.28
542.265	8.31
542.464	8.27
542.663	8.35
542.862	8.51
543.06	8.57
543.259	8.64
543.458	8.66
543.657	8.67
543.856	8.6
544.054	8.53
544.253	8.51
544.452	8.6
544.651	8.55
544.849	8.5
545.048	8.53
545.247	8.48
545.445	8.44
545.644	8.54
545.843	8.62
546.041	8.67
546.24	8.74
546.438	8.8
546.637	8.79
546.836	8.79
547.034	8.8
547.233	8.85
547.431	8.85
547.63	8.87
547.828	8.89
548.027	8.87
548.225	8.86
548.423	8.85
548.622	8.87
548.82	8.86
549.019	8.98
549.217	9.01
549.415	9.08
549.614	9.15
549.812	9.18
550.01	9.1
550.209	9.17
550.407	9.21
550.605	9.21
550.803	9.25
551.002	9.37
551.2	9.4
551.398	9.44
551.596	9.52
551.794	9.59
551.993	9.6
552.191	9.63
552.389	9.65
552.587	9.59
552.785	9.64
552.983	9.7
553.181	9.77
553.379	9.82
553.577	9.89
553.775	9.95
553.973	9.96
554.171	10
554.369	10.05
554.567	10.14
554.765	10.16
554.963	10.22
555.161	10.21
555.359	10.24
555.557	10.3
555.755	10.37
555.952	10.43
556.15	10.54
556.348	10.58
556.546	10.67
556.744	10.74
556.941	10.8
557.139	10.86
557.337	11.03
557.535	11.01
557.732	11.01
557.93	11.1
558.128	11.16
558.325	11.15
558.523	11.22
558.721	11.33
558.918	11.31
559.116	11.36
559.313	11.41
559.511	11.52
559.708	11.53
559.906	11.63
560.104	11.67
560.301	11.78
560.498	11.88
560.696	11.99
560.893	12.03
561.091	12.19
561.288	12.19
561.486	12.21
561.683	12.3
561.88	12.44
562.078	12.44
562.275	12.48
562.473	12.54
562.67	12.56
562.867	12.58
563.064	12.68
563.262	12.79
563.459	12.85
563.656	12.92
563.853	12.99
564.051	12.96
564.248	12.94
564.445	13.01
564.642	13.12
564.839	13.26
565.036	13.4
565.234	13.61
565.431	13.72
565.628	13.76
565.825	13.77
566.022	13.85
566.219	13.84
566.416	13.85
566.613	13.95
566.81	13.9
567.007	13.92
567.204	13.97
567.401	14.04
567.598	14.09
567.795	14.25
567.991	14.26
568.188	14.41
568.385	14.48
568.582	14.44
568.779	14.43
568.976	14.45
569.172	14.54
569.369	14.57
569.566	14.65
569.763	14.71
569.96	14.79
570.156	14.74
570.353	14.76
570.55	14.79
570.746	14.84
570.943	14.82
571.14	14.76
571.336	14.86
571.533	14.85
571.729	14.86
571.926	14.97
572.123	15.06
572.319	15.08
572.516	15.19
572.712	15.23
572.909	15.22
573.105	15.22
573.302	15.23
573.498	15.18
573.695	15.24
573.891	15.35
574.087	15.45
574.284	15.46
574.48	15.54
574.677	15.57
574.873	15.56
575.069	15.54
575.266	15.52
575.462	15.48
575.658	15.51
575.854	15.52
576.051	15.56
576.247	15.61
576.443	15.68
576.639	15.62
576.835	15.56
577.032	15.43
577.228	15.46
577.424	15.45
577.62	15.46
577.816	15.48
578.012	15.59
578.208	15.49
578.404	15.44
578.6	15.39
578.796	15.37
578.993	15.3
579.189	15.26
579.384	15.23
579.58	15.19
579.776	15.13
579.972	15.14
580.168	15.08
580.364	14.99
580.56	15.04
580.756	15.01
580.952	14.9
581.148	15.03
581.343	15.14
581.539	15.14
581.735	15.2
581.931	15.29
582.127	15.26
582.322	15.18
582.518	15.15
582.714	15.08
582.909	14.95
583.105	14.88
583.301	14.92
583.496	14.86
583.692	14.8
583.888	14.8
584.083	14.78
584.279	14.82
584.474	14.84
584.67	14.86
584.866	14.87
585.061	14.85
585.257	14.79
585.452	14.72
585.648	14.68
585.843	14.77
586.039	14.72
586.234	14.68
586.429	14.73
586.625	14.79
586.82	14.65
587.015	14.66
587.211	14.57
587.406	14.5
587.601	14.42
587.797	14.38
587.992	14.37
588.187	14.46
588.383	14.44
588.578	14.52
588.773	14.58
588.968	14.6
589.163	14.65
589.359	14.68
589.554	14.62
589.749	14.63
589.944	14.6
590.139	14.52
590.334	14.5
590.529	14.56
590.724	14.6
590.919	14.6
591.114	14.64
591.309	14.55
591.504	14.6
591.699	14.51
591.894	14.6
592.089	14.59
592.284	14.75
592.479	14.74
592.674	14.8
592.869	14.75
593.064	14.88
593.259	14.82
593.454	14.73
593.648	14.72
593.843	14.77
594.038	14.7
594.233	14.81
594.428	14.87
594.622	14.94
594.817	14.92
595.012	14.93
595.206	14.94
595.401	15.07
595.596	15.07
595.79	15.2
595.985	15.27
596.18	15.28
596.374	15.3
596.569	15.38
596.763	15.39
596.958	15.42
597.153	15.51
597.347	15.57
597.542	15.54
597.736	15.58
597.931	15.61
598.125	15.62
598.319	15.66
598.514	15.87
598.708	15.91
598.903	16
599.097	16.04
599.291	16.11
599.486	16.13
599.68	16.14
599.874	16.15
600.069	16.3
600.263	16.23
600.457	16.23
600.651	16.26
600.846	16.27
601.04	16.16
601.234	16.19
601.428	16.27
601.622	16.38
601.817	16.41
602.011	16.47
602.205	16.47
602.399	16.3
602.593	16.19
602.787	16.18
602.981	16.18
603.175	16.28
603.369	16.36
603.563	16.38
603.757	16.35
603.951	16.4
604.145	16.33
604.339	16.39
604.533	16.35
604.727	16.31
604.921	16.26
605.115	16.29
605.309	16.19
605.502	16.21
605.696	16.19
605.89	16.16
606.084	16.1
606.278	16.07
606.471	16.01
606.665	15.92
606.859	15.85
607.053	15.77
607.246	15.73
607.44	15.67
607.634	15.71
607.827	15.66
608.021	15.58
608.214	15.52
608.408	15.47
608.602	15.43
608.795	15.38
608.989	15.3
609.182	15.28
609.376	15.27
609.569	15.14
609.763	15.1
609.956	15.16
610.15	14.97
610.343	14.89
610.537	14.89
610.73	14.83
610.923	14.76
611.117	14.81
611.31	14.73
611.504	14.67
611.697	14.59
611.89	14.5
612.083	14.38
612.277	14.37
612.47	14.35
612.663	14.34
612.856	14.35
613.05	14.36
613.243	14.32
613.436	14.13
613.629	14.02
613.822	13.89
614.015	13.76
614.209	13.66
614.402	13.67
614.595	13.69
614.788	13.58
614.981	13.48
615.174	13.51
615.367	13.49
615.56	13.34
615.753	13.37
615.946	13.36
616.139	13.27
616.332	13.22
616.525	13.14
616.718	13.03
616.911	13.03
617.103	13.06
617.296	12.99
617.489	12.99
617.682	13.07
617.875	13.07
618.067	12.89
618.26	12.93
618.453	12.93
618.646	12.85
618.838	12.71
619.031	12.7
619.224	12.63
619.417	12.55
619.609	12.44
619.802	12.47
619.994	12.46
620.187	12.37
620.38	12.37
620.572	12.37
620.765	12.32
620.957	12.35
621.15	12.34
621.342	12.33
621.535	12.39
621.727	12.37
621.92	12.29
622.112	12.32
622.305	12.3
622.497	12.19
622.69	12.13
622.882	12.17
623.074	12.14
623.267	12.07
623.459	12.11
623.651	12.04
623.844	12.04
624.036	12.04
624.228	12.12
624.42	12.08
624.613	12.11
624.805	12.04
624.997	11.98
625.189	11.9
625.381	11.91
625.574	11.95
625.766	11.97
625.958	11.97
626.15	11.93
626.342	11.86
626.534	11.78
626.726	11.76
626.918	11.72
627.11	11.63
627.302	11.56
627.494	11.53
627.686	11.48
627.878	11.48
628.07	11.55
628.262	11.64
628.454	11.55
628.646	11.56
628.838	11.57
629.029	11.45
629.221	11.4
629.413	11.41
629.605	11.33
629.797	11.32
629.989	11.36
630.18	11.29
630.372	11.29
630.564	11.34
630.755	11.28
630.947	11.19
631.139	11.19
631.33	11.18
631.522	11.15
631.714	11.12
631.905	11.22
632.097	11.19
632.289	11.25
632.48	11.18
632.672	11.07
632.863	10.96
633.055	10.95
633.246	10.85
633.438	10.82
633.629	10.84
633.821	10.83
634.012	10.82
634.203	10.84
634.395	10.91
634.586	11.01
634.777	10.97
634.969	10.94
635.16	10.93
635.351	10.77
635.543	10.7
635.734	10.69
635.925	10.63
636.117	10.58
636.308	10.64
636.499	10.61
636.69	10.56
636.881	10.63
637.073	10.64
637.264	10.65
637.455	10.55
637.646	10.6
637.837	10.61
638.028	10.69
638.219	10.66
638.41	10.67
638.601	10.54
638.792	10.48
638.983	10.36
639.174	10.28
639.365	10.21
639.556	10.21
639.747	10.16
639.938	10.18
640.129	10.21
640.32	10.29
640.511	10.27
640.701	10.26
640.892	10.19
641.083	10.13
641.274	10.08
641.465	10.14
641.655	10.05
641.846	10
642.037	9.93
642.228	9.87
642.418	9.78
642.609	9.79
642.8	9.79
642.99	9.8
643.181	9.88
643.372	9.92
643.562	9.89
643.753	9.89
643.943	9.92
644.134	9.8
644.324	9.74
644.515	9.77
644.705	9.68
644.896	9.67
645.086	9.65
645.277	9.73
645.467	9.73
645.658	9.78
645.848	9.68
646.038	9.74
646.229	9.69
646.419	9.68
646.61	9.73
646.8	9.77
646.99	9.75
647.18	9.67
647.371	9.66
647.561	9.52
647.751	9.41
647.941	9.3
648.132	9.4
648.322	9.44
648.512	9.45
648.702	9.5
648.892	9.64
649.082	9.6
649.272	9.43
649.462	9.41
649.653	9.39
649.843	9.31
650.033	9.36
650.223	9.37
650.413	9.39
650.603	9.52
650.793	9.46
650.983	9.29
651.172	9.3
651.362	9.27
651.552	9.1
651.742	9.08
651.932	8.96
652.122	8.99
652.312	9.01
652.502	8.97
652.691	8.97
652.881	9.07
653.071	9.01
653.261	8.91
653.45	8.91
653.64	8.83
653.83	8.77
654.019	8.7
654.209	8.62
654.399	8.57
654.588	8.59
654.778	8.5
654.968	8.5
655.157	8.54
655.347	8.48
655.536	8.41
655.726	8.43
655.915	8.33
656.105	8.15
656.294	8.12
656.484	8.02
656.673	7.99
656.863	8
657.052	7.99
657.241	7.93
657.431	7.87
657.62	7.79
657.809	7.69
657.999	7.7
658.188	7.68
658.377	7.66
658.567	7.53
658.756	7.36
658.945	7.28
659.134	7.16
659.324	7.11
659.513	7.12
659.702	7.09
659.891	6.99
660.08	7
660.269	6.92
660.458	6.84
660.648	6.81
660.837	6.76
661.026	6.6
661.215	6.63
661.404	6.51
661.593	6.38
661.782	6.36
661.971	6.39
662.16	6.29
662.349	6.34
662.538	6.31
662.726	6.25
662.915	6.26
663.104	6.24
663.293	6.13
663.482	6.25
663.671	6.24
663.86	6.12
664.048	6.15
664.237	6.13
664.426	6.11
664.615	6.07
664.803	6.03
664.992	5.96
665.181	5.93
665.369	5.83
665.558	5.79
665.747	5.88
665.935	5.9
666.124	5.9
666.312	5.88
666.501	5.96
666.69	5.87
666.878	5.86
667.067	5.85
667.255	5.99
667.444	6.04
667.632	6.17
667.82	6.25
668.009	6.38
668.197	6.32
668.386	6.22
668.574	6.21
668.762	6.11
668.951	6.21
669.139	6.21
669.327	6.29
669.516	6.26
669.704	6.33
669.892	6.27
670.08	6.36
670.269	6.35
670.457	6.38
670.645	6.38
670.833	6.41
671.021	6.34
671.21	6.31
671.398	6.41
671.586	6.49
671.774	6.56
671.962	6.63
672.15	6.85
672.338	6.91
672.526	6.89
672.714	6.75
672.902	6.8
673.09	6.69
673.278	6.71
673.466	6.87
673.654	7.19
673.842	7.12
674.03	7.21
674.218	7.27
674.405	7.26
674.593	7.2
674.781	7.45
674.969	7.51
675.157	7.65
675.344	7.66
675.532	7.68
675.72	7.6
675.908	7.67
676.095	7.61
676.283	7.67
676.471	7.81
676.658	7.95
676.846	8.16
677.033	8.31
677.221	8.38
677.409	8.31
677.596	8.32
677.784	8.12
677.971	8.14
678.159	8.17
678.346	8.27
678.534	8.43
678.721	8.49
678.909	8.43
679.096	8.53
679.283	8.46
679.471	8.45
679.658	8.77
679.846	8.86
680.033	8.92
680.22	9.11
680.408	9.15
680.595	9.07
680.782	9.05
680.969	9.16
681.157	9.16
681.344	9.11
681.531	9.21
681.718	9.25
681.905	9.14
682.093	9.23
682.28	9.28
682.467	9.41
682.654	9.56
682.841	9.84
683.028	9.85
683.215	10.08
683.402	9.98
683.589	10.05
683.776	10.03
683.963	10.1
684.15	10.13
684.337	10.2
684.524	10.24
684.711	10.37
684.898	10.54
685.085	10.69
685.271	10.85
685.458	11.04
685.645	11.12
685.832	11.2
686.019	11.36
686.205	11.51
686.392	11.75
686.579	11.99
686.766	12.02
686.952	12.01
687.139	12.26
687.326	12.23
687.512	12.32
687.699	12.64
687.886	12.95
688.072	13.19
688.259	13.44
688.445	13.87
688.632	14.2
688.818	14.54
689.005	14.69
689.191	15.04
689.378	15.25
689.564	15.48
689.751	15.79
689.937	16.2
690.124	16.61
690.31	16.78
690.496	17.13
690.683	17.58
690.869	18
691.055	18.47
691.242	19.09
691.428	19.63
691.614	20.05
691.8	20.6
691.987	21.01
692.173	21.62
692.359	22.16
692.545	22.74
692.731	23.17
692.918	23.64
693.104	24.27
693.29	24.63
693.476	25.11
693.662	25.78
693.848	26.52
694.034	26.98
694.22	27.95
694.406	28.62
694.592	29.16
694.778	29.64
694.964	30.16
695.15	30.36
695.336	30.96
695.522	31.63
695.708	32.59
695.894	33.18
696.08	34.37
696.265	35.06
696.451	35.71
696.637	35.95
696.823	36.63
697.009	37.29
697.194	37.95
697.38	38.67
697.566	39.54
697.751	40.37
697.937	40.74
698.123	41.5
698.308	42.19
698.494	42.84
698.68	43.46
698.865	44.31
699.051	44.74
699.236	45.17
699.422	46.03
699.607	46.71
699.793	47.15
699.978	47.92
700.164	48.9
700.349	49.67
700.535	49.97
700.72	50.77
700.906	51.48
701.091	51.75
701.276	52.28
701.462	53.32
701.647	53.83
701.832	54.47
702.018	55.34
702.203	55.92
702.388	56.54
702.573	57.22
702.759	57.68
702.944	58.2
703.129	58.78
703.314	59.18
703.499	60.05
703.684	60.51
703.87	61.22
704.055	61.41
704.24	62.18
704.425	62.38
704.61	62.76
704.795	62.83
704.98	63.29
705.165	63.24
705.35	63.92
705.535	64.67
705.72	65.53
705.905	66.15
706.09	66.97
706.275	67.19
706.459	67.81
706.644	68.16
706.829	68.61
707.014	69.26
707.199	69.71
707.384	69.9
707.568	70.25
707.753	70.98
707.938	71.5
708.123	72.05
708.307	72.61
708.492	73.17
708.677	73.19
708.861	72.93
709.046	73.02
709.231	73.27
709.415	73.07
709.6	73.68
709.784	74.35
709.969	74.7
710.153	74.75
710.338	75.47
710.522	76.04
710.707	76.62
710.891	77.11
711.076	77.78
711.26	77.82
711.445	77.74
711.629	77.65
711.813	77.94
711.998	78.52
712.182	79.15
712.366	79.7
712.551	80.28
712.735	80.89
712.919	80.74
713.103	80.62
713.288	80.74
713.472	80.9
713.656	80.43
713.84	80.58
714.024	81.36
714.208	82.01
714.393	82.14
714.577	82.95
714.761	83.67
714.945	83.74
715.129	83.39
715.313	83.99
715.497	84.05
715.681	84.3
715.865	84.62
716.049	85.07
716.233	85.31
716.417	85.93
716.601	85.76
716.785	85.49
716.968	85.47
717.152	85.77
717.336	85.68
717.52	85.67
717.704	86.1
717.888	86.28
718.071	86.03
718.255	86.44
718.439	86.67
718.622	86.85
718.806	87.21
718.99	87.91
719.174	87.61
719.357	87.9
719.541	88.27
719.724	88.46
719.908	88.1
720.092	88.48
720.275	89.15
720.459	88.92
720.642	89.56
720.826	89.6
721.009	90.1
721.193	89.87
721.376	90.25
721.559	89.56
721.743	90.4
721.926	90.85
722.11	90.7
722.293	90.87
722.476	91.32
722.66	90.4
722.843	89.68
723.026	90.49
723.21	90.72
723.393	90.08
723.576	90.47
723.759	90.89
723.942	90.55
724.126	90.69
724.309	91.79
724.492	92.02
724.675	91.87
724.858	92.52
725.041	92.75
725.224	92.89
725.407	93.07
725.59	93.66
725.774	93.23
725.957	93.65
726.14	93.63
726.322	93.96
726.505	93.97
726.688	94.38
726.871	94.58
727.054	94.95
727.237	94.97
727.42	94.72
727.603	94.69
727.786	94.03
727.968	93.24
728.151	92.95
728.334	93.47
728.517	93.61
728.699	94.39
728.882	94.66
729.065	94.78
729.248	94.48
729.43	93.87
729.613	93.83
729.796	94.51
729.978	95.84
730.161	95.64
730.343	96.56
730.526	95.98
730.708	96.01
730.891	95.4
731.073	95.44
731.256	95.26
731.438	95.99
731.621	96.58
731.803	96.68
731.986	97.01
732.168	97.13
732.35	97.5
732.533	97.25
732.715	96.71
732.898	96.06
733.08	96.37
733.262	96.2
733.444	95.7
733.627	95.64
733.809	95.87
733.991	96.18
734.173	95.73
734.355	96.42
734.538	97.04
734.72	97.7
734.902	97.97
735.084	97.81
735.266	97.22
735.448	96.91
735.63	96.12
735.812	96.24
735.994	96.54
736.176	97.24
736.358	96.86
736.54	97.32
736.722	95.46
736.904	96.2
737.086	95.61
737.268	97.11
737.45	99.26
737.632	100.37
737.814	99.91
737.995	100.63
738.177	100.2
738.359	98.86
738.541	99.65
738.723	100.11
738.904	100.33
739.086	100.05
739.268	100.14
739.449	98.59
739.631	98.44
739.813	98.26
739.994	99.11
740.176	98.7
740.358	100.03
740.539	100.37
740.721	100.33
740.902	100.03
741.084	100.8
741.265	100.79
741.447	100.96
741.628	101.98
741.81	102
741.991	101.26
742.172	101.59
742.354	100.93
742.535	99.29
742.717	98.42
742.898	98.7
743.079	99.05
743.261	99.93
743.442	100.25
743.623	101.27
743.804	100.86
743.986	101.12
744.167	100.03
744.348	100.69
744.529	100.66
744.71	101.94
744.891	101.39
745.073	101.65
745.254	101.28
745.435	101.49
745.616	101.17
745.797	100.85
745.978	102.03
746.159	102.25
746.34	101.02
746.521	100.73
746.702	100.41
746.883	99.1
747.064	97.85
747.245	98.62
747.426	100.29
747.606	101
747.787	101.9
747.968	104.1
748.149	104.41
748.33	101.36
748.51	100.6
748.691	98.7
748.872	96.72
749.053	96.09
749.233	96.96
749.414	96.96
749.595	99.74
749.775	99.76
749.956	99.99
750.137	100.1
750.317	100.68
750.498	98.74
750.678	99.22
750.859	98.2
751.04	98.18
751.22	97.31
751.4	97.4
751.581	97.75
751.761	97.12
751.942	97.63
752.122	97.91
752.303	96.96
752.483	97.05
752.663	97.62
752.844	97.14
753.024	96.83
753.204	97.49
753.385	95.67
753.565	96.54
753.745	97.38
753.925	96.7
754.106	97.39
754.286	100.41
754.466	100.81
754.646	100.78
754.826	101.66
755.006	101.01
755.187	99.88
755.367	99.49
755.547	98.98
755.727	100.01
755.907	99.27
756.087	99.93
756.267	99.37
756.447	98.82
756.627	97.77
756.807	98.83
756.987	98.21
757.167	99.82
757.346	99.98
757.526	99.49
757.706	100.06
757.886	99.3
758.066	99.2
758.246	100.38
758.425	101.29
758.605	100.72
758.785	101.89
758.965	101.2
759.144	100.73
759.324	100.06
759.504	100.81
759.683	100
759.863	100.33
760.043	99
760.222	98.7
760.402	97.03
760.581	98.48
760.761	97
760.94	97.03
761.12	99.65
761.299	98.56
761.479	96.92
761.658	95.75
761.838	95.6
762.017	93.1
762.197	94.24
762.376	94.37
762.555	96.42
762.735	96.55
762.914	96.74
763.093	98.38
763.273	97.64
763.452	97.67
763.631	97.78
763.81	99.73
763.99	98.44
764.169	97.17
764.348	96.11
764.527	94.77
764.706	93.72
764.885	93.35
765.064	95.95
765.243	95.33
765.423	96.73
765.602	96.86
765.781	98.37
765.96	95.33
766.139	97.65
766.318	95.86
766.497	95.46
766.676	93
766.854	96.79
767.033	94.53
767.212	95.85
767.391	95.12
767.57	95.57
767.749	93.94
767.928	96
768.106	93.13
768.285	90.86
768.464	89.03
768.643	89.55
768.821	87.68
769	90.44
769.179	93.13
769.357	94.7
769.536	93.08
769.715	94.07
769.893	92.75
770.072	90.22
770.25	89.99
770.429	90.85
770.607	90.38
770.786	91.12
770.964	95.19
771.143	95.73
771.321	95.48
771.5	94.43
771.678	95.29
771.857	93.57
772.035	93.24
772.213	92.84
772.392	92.09
772.57	92.1
772.748	89.11
772.927	89.43
773.105	88.07
773.283	90.2
773.461	89.91
773.64	92.63
773.818	92.58
773.996	95.42
774.174	95.45
774.352	95.45
774.531	95.3
774.709	94.01
774.887	93.81
775.065	92.82
775.243	92.27
775.421	93.01
775.599	95.05
775.777	92.29
775.955	91.27
776.133	89.18
776.311	88.91
776.489	87.46
776.667	87.6
776.844	89.41
777.022	91.6
777.2	88.28
777.378	88.41
777.556	89.21
777.734	89.63
777.911	91.76
778.089	93.12
778.267	93.55
778.445	89.69
778.622	86.49
778.8	84.91
778.978	86.83
779.155	86.03
779.333	88.46
779.511	90.01
779.688	89.44
779.866	86.51
780.043	87.18
780.221	87.25
780.398	87.44
780.576	88.25
780.753	87.74
780.931	87.25
781.108	88.61
781.286	91.64
781.463	91.4
781.64	93.76
781.818	96.77
781.995	97.01
782.172	96.05
782.35	94.28
782.527	96.16
782.704	93.8
782.882	92.59
783.059	89.87
783.236	86.83
783.413	82.22
783.59	83.64
783.768	81.42
783.945	79.19
784.122	82.84
784.299	84.74
784.476	79.6
784.653	81.69
784.83	84.23
785.007	83.44
785.184	83.21
785.361	87.5
785.538	88.17
785.715	88.44
785.892	91.27
786.069	92.87
786.246	92.42
786.423	93.36
786.6	93.56
786.776	91.88
786.953	90.46
787.13	93.47
787.307	89.77
787.484	92.69
787.66	91.53
787.837	93.81
788.014	97.22
788.191	100.82
788.367	99.47
788.544	100.25
788.721	96.77
788.897	88.32
789.074	87.13
789.25	83.49
789.427	83.87
789.603	84.51
789.78	88.66
789.956	93.48
790.133	92.62
790.309	91.51
790.486	94.65
790.662	91.8
790.839	84.48
791.015	85.61
791.192	88.8
791.368	87.24
791.544	84.15
791.721	90.92
791.897	91.72
792.073	87.72
792.249	86.19
792.426	89.78
792.602	88.55
792.778	87.65
792.954	87.59
793.13	89.08
793.307	89.32
793.483	86.56
793.659	88.39
793.835	89.13
794.011	87.32
794.187	85.14
794.363	84.8
794.539	83.24
794.715	82.6
794.891	83.44
795.067	83.52
795.243	86.2
795.419	87.52
795.595	88.09
795.771	88.68
795.947	86.78
796.122	85.41
796.298	86.04
796.474	81.47
796.65	78.01
796.826	80.11
797.001	75.22
797.177	76.34
797.353	78.82
797.529	84.29
797.704	88.07
797.88	92.48
798.056	93.26
798.231	94.53
798.407	99.23
798.582	97.22
798.758	103.74
798.934	102.87
799.109	102.94
799.285	93.5
799.46	91.27
799.636	87.39
799.811	84.5
799.986	83.89
800.162	94.16
800.337	99.08
800.513	98.98
800.688	95.91
800.863	97.06
801.039	92.3
801.214	91.33
801.389	89.83
801.565	87.46
801.74	85.33
801.915	83.7
802.09	85.28
802.265	83.22
802.441	86.79
802.616	87.82
802.791	82.7
802.966	79.35
803.141	82.19
803.316	79.56
803.491	76.78
803.666	84.48
803.841	82.88
804.016	82.23
804.191	86.66
804.366	90.51
804.541	87.32
804.716	94.55
804.891	85.08
805.066	84.32
805.241	79.12
805.416	79.19
805.591	75.65
805.765	80.18
805.94	74.09
806.115	76.15
806.29	74.61
806.464	69.24
806.639	70.75
806.814	72.17
806.989	68
807.163	72.45
807.338	72.64
807.512	69.4
807.687	71.14
807.862	72.57
808.036	74.67
808.211	73.68
808.385	75.17
808.56	77.65
808.734	85.55
808.909	83.77
809.083	88.9
809.258	86.4
809.432	84.63
809.606	75.66
809.781	73.9
809.955	81.19
810.13	84.53
810.304	83.35
810.478	80.14
810.652	86.92
810.827	79.14
811.001	86.46
811.175	87.22
811.349	105.67
811.524	88.03
811.698	86.97
811.872	84.72
812.046	84.5
812.22	84.69
812.394	84.58
812.568	95.74
812.742	91.31
812.916	96.52
813.09	95.37
813.264	106.48
813.438	96.65
813.612	94.58
813.786	93.79
813.96	89.69
814.134	88.73
814.308	91.47
814.482	89.26
814.656	102.28
814.83	110.36
815.003	110.69
815.177	101.25
815.351	106.12
815.525	89.62
815.698	76.27
815.872	69.58
816.046	77.63
816.219	74.4
816.393	67.99
816.567	80
816.74	86.41
816.914	82.18
817.088	98.52
817.261	97.41
817.435	93.84
817.608	92.99
817.782	91.94
817.955	76.99
818.129	78.07
818.302	74.5
818.475	76.79
818.649	79.57
818.822	85
818.996	84.66
819.169	78.71
819.342	82.64
819.516	80.19
819.689	70.77
819.862	78.7
820.035	80.15
820.209	70.57
820.382	66.18
820.555	77.16
820.728	67.76
820.901	72.73
821.075	71.28
821.248	70.07
821.421	72.93
821.594	85.39
821.767	87.54
821.94	90.91
822.113	102.92
822.286	84.9
822.459	71.3
822.632	77.6
822.805	74.33
822.978	68.71
823.151	87.48
823.324	87.52
823.496	71.72
823.669	77.77
823.842	78.95
824.015	81.13
824.188	85.91
824.361	88.49
824.533	79.24
824.706	78.5
824.879	72.1
825.051	64
825.224	62.59
825.397	55.6
825.569	64.65
825.742	66.9
825.915	65.45
826.087	75.37
826.26	80.17
826.432	74.3
826.605	82.74
826.777	85.82
826.95	81.83
827.122	87.42
827.295	84.96
827.467	69.46
827.64	51.48
827.812	45.84
827.984	70.25
828.157	56.49
828.329	63.3
828.501	86.85
828.674	94.02
828.846	74.98
829.018	92.65
829.19	98.25
829.363	95.19
829.535	90.16
829.707	81.28
829.879	77.25
830.051	59.8
830.223	55.11
830.395	55.89
830.568	71.04
830.74	73.53
830.912	87.81
831.084	104.7
831.256	95.28
831.428	94.51
831.6	97.24
831.772	95.32
831.943	76.61
832.115	96.99
832.287	83.55
832.459	78.97
832.631	77.14
832.803	65.66
832.975	53.14
833.146	48.79
833.318	38.64
833.49	20.48
833.662	33.56
833.833	34.29
834.005	40.44
834.177	33.5
834.348	62.94
834.52	70.92
834.692	77.54
834.863	61.33
835.035	81.83
835.206	61.53
835.378	69.15
835.549	66.44
835.721	69.73
835.892	53.51
836.064	66.51
836.235	54.9
836.407	55.38
836.578	76.57
836.749	84.39
836.921	72.54
837.092	64.83
837.264	51.09
837.435	41.14
837.606	47.75
837.777	64.84
837.949	86.11
838.12	81.6
838.291	77.45
838.462	82.78
838.633	88.7
838.805	79.75
838.976	74.4
839.147	71.23
839.318	64.07
839.489	64.07
839.66	78.15
839.831	92.47
840.002	80.4
840.173	78.48
840.344	37.7
840.515	21.22
840.686	19.43
840.857	26.63
841.028	18.41
841.199	60.58
841.369	71.59
841.54	91.29
841.711	67.33
841.882	93.64
842.053	57.04
842.223	20.2
842.394	30.02
842.565	37.91
842.736	58.23
842.906	68.97
843.077	139.67
843.248	140.05
843.418	149.61
843.589	105.09
843.759	107.46
843.93	91.53
844.101	62.66
844.271	74.86
844.442	87.02
844.612	82.73
844.783	66.65
844.953	68.13
845.123	70.88
845.294	64.66
845.464	54.06
845.635	50.47
845.805	52.14
845.975	44.36
846.146	42
846.316	44.46
846.486	55.7
846.656	57.78
846.827	70.84
846.997	60.66
847.167	76.73
847.337	45.47
847.507	59.24
847.677	59.87
847.848	92.36
848.018	91.39
848.188	129.26
848.358	123.41
848.528	88.29
848.698	69.7
848.868	49.66
849.038	45.79
849.208	51.84
849.378	68.07
849.548	77.07
849.718	75.03
849.887	75.85
850.057	68.7
850.227	81.13
850.397	73.33
850.567	104.77
850.737	81.25
850.906	84.08
851.076	55.56
851.246	56.64
851.415	47.81
851.585	43.34
851.755	53.01
851.924	63.82
852.094	63.35
852.264	72.62
852.433	73.2
852.603	58.88
852.772	53.87
852.942	46.05
853.111	33.94
853.281	41.69
853.45	41.09
853.62	38.06
853.789	33.64
853.959	33.38
854.128	32.41
854.297	35.4
854.467	34.28
854.636	66.27
854.805	79.21
854.975	108.04
855.144	187.25
855.313	134.89
855.482	65.63
855.652	63.54
855.821	34.91
855.99	52.41
856.159	77.99
856.328	98.29
856.497	92.75
856.667	114.11
856.836	79.69
857.005	7.3
857.174	-43.62
857.343	-89.67
857.512	-194.77
857.681	33.4
857.85	55.32
858.019	48.33
858.188	74.21
858.356	82.01
858.525	89.3
858.694	57.93
858.863	95.29
859.032	81.62
859.201	62.66
859.369	50.17
859.538	78.35
859.707	44.33
859.876	51.04
860.044	54.8
860.213	46.01
860.382	63.27
860.55	83.94
860.719	73.86
860.888	62.57
861.056	53.14
861.225	48.37
861.393	66.27
861.562	79.07
861.73	94.57
861.899	106.16
862.067	100.49
862.236	119.23
862.404	71.88
862.572	46.22
862.741	41.61
862.909	33.89
863.078	-22.63
863.246	41.34
863.414	56.7
863.582	66.64
863.751	59.12
863.919	48.02
864.087	61.68
864.255	43.66
864.424	26.79
864.592	35.67
864.76	55.31
864.928	72.61
865.096	61.64
865.264	65.86
865.432	27.45
865.6	28.04
865.768	-4.23
865.936	-8.01
866.104	2.34
866.272	32.48
866.44	14.08
866.608	10.8
866.776	11.46
866.944	-25.11
867.112	-11.14
867.28	-23.78
867.448	40.36
867.615	173.8
867.783	51.99
867.951	9.81
868.119	31.12
868.286	29.01
868.454	48.66
868.622	41.38
868.789	96.24
868.957	85.2
869.125	62.71
869.292	9.73
869.46	1.36
869.627	8.17
869.795	-7.62
869.963	-12.03
870.13	-6.3
870.298	27.93
870.465	24.74
870.632	47.7
870.8	62.16
870.967	53.18
871.135	12.47
871.302	25.64
871.469	189.68
871.637	34.71
871.804	111.87
871.971	86.8
872.139	73.97
872.306	83.48
872.473	75.14
872.64	47.57
872.807	80.57
872.975	111.06
873.142	163.15
873.309	4981.16
873.476	1345.08
873.643	287.98
873.81	167.21
873.977	112.78
874.144	101.06
874.311	56.91
874.478	52.04
874.645	49.87
874.812	43.37
874.979	27.41
875.146	44.22
875.313	28.52
875.48	-99.64
875.647	-174.93
875.813	306.22
875.98	-235.35
876.147	222.14
876.314	145.19
876.481	-5.71
876.647	1.92
876.814	1.93
876.981	-3.53
877.147	-16.92
877.314	16.08
877.481	41.54
877.647	40.6
877.814	31.93
877.98	14.35
878.147	-4.49
878.314	-57.15
878.48	-7.57
878.647	110.94
878.813	1445.74
878.979	279.35
879.146	202.69
879.312	174.72
879.479	91.91
879.645	83.55
879.811	60.21
879.978	76.88
880.144	92.09
880.31	76.88
880.477	42.92
880.643	64.18
880.809	58.32
880.975	-2603.03
881.142	363.13
881.308	169.33
881.474	-20.71
881.64	-73.21
881.806	-14.64
881.972	42.27
882.138	35.5
882.304	50.02
882.47	52.92
882.636	49.56
882.802	23.69
882.968	49.28
883.134	81.02
883.3	63.94
883.466	82.38
883.632	82.44
883.798	85.46
883.964	79.03
884.129	126.57
884.295	99.83
884.461	76.89
884.627	62.06
884.793	-0.96
884.958	16.03
885.124	16.23
885.29	30.27
885.455	12.97
885.621	91.87
885.787	83.29
885.952	3.93
886.118	167.62
886.283	-1191.23
886.449	-40.52
886.614	-23.91
886.78	16.98
886.945	49.41
887.111	48.25
887.276	66.63
887.442	56.21
887.607	53.96
887.773	62.7
887.938	40.08
888.103	37.16
888.269	59.6
888.434	37.38
888.599	10.25
888.764	28.98
888.93	-4.34
889.095	42.61
889.26	70.59
889.425	269.98
889.59	-657.49
889.756	471.5
889.921	100.73
890.086	160.17
890.251	147.08
890.416	52.24
890.581	-8.56
890.746	66.04
890.911	48.01
891.076	16.54
891.241	42.1
891.406	107.78
891.571	34.8
891.736	38
891.901	35.52
892.065	55.2
892.23	60.87
892.395	77.67
892.56	86.63
892.725	113.42
892.889	76.8
893.054	12.56
893.219	-62.68
893.384	-43.94
893.548	-172.75
893.713	617.28
893.878	108.68
