Data from Ofav_PS_Phys_9GT46_Reflection_2.txt Node
Date: Thu Jul 29 18:25:55 EDT 2021
User: USUARIO
Spectrometer: FLMT01687
Trigger mode: 0
Integration Time (sec): 9.010000E-1
Scans to average: 2
Electric dark correction enabled: true
Nonlinearity correction enabled: false
Boxcar width: 2
XAxis mode: Wavelengths
Number of Pixels in Spectrum: 3648
>>>>>Begin Spectral Data<<<<<
179.494	117.78
179.716	161.71
179.937	105.85
180.158	-681.92
180.38	-16.17
180.601	-433.33
180.823	-161.71
181.044	-136.87
181.265	-90.9
181.486	-525.99
181.708	61.51
181.929	315.34
182.15	14252.38
182.372	-178.27
182.593	-23.66
182.814	-32.54
183.035	-26.46
183.257	20.48
183.478	6.22
183.699	20.31
183.92	12.69
184.141	25.97
184.363	5.92
184.584	16.5
184.805	19.16
185.026	40.14
185.247	27.53
185.468	18.43
185.689	4.55
185.91	11.39
186.132	-18.07
186.353	0.44
186.574	46.11
186.795	51.22
187.016	35.54
187.237	0.74
187.458	-12.56
187.679	-19.04
187.9	-17.06
188.121	-25.2
188.342	21.31
188.563	31.69
188.784	40.71
189.005	39.54
189.226	50.41
189.447	56.53
189.667	53.38
189.888	28.47
190.109	24.67
190.33	-78.72
190.551	-81.19
190.772	-45.11
190.993	-31.61
191.214	-39.67
191.434	1.22
191.655	24.84
191.876	18.84
192.097	-10.56
192.318	38.81
192.538	32.94
192.759	25.71
192.98	28.79
193.201	49.15
193.421	31.26
193.642	28.28
193.863	21.66
194.083	-12.19
194.304	-2.9
194.525	8.95
194.745	12.17
194.966	2.93
195.187	12.08
195.407	8.66
195.628	-33.33
195.848	-17.83
196.069	29.23
196.29	31.97
196.51	20.08
196.731	36.75
196.951	29.25
197.172	-1.53
197.392	5.06
197.613	-11.13
197.833	-8.73
198.054	-4.26
198.274	15.82
198.495	20.94
198.715	13.28
198.936	26.73
199.156	25.76
199.377	25.67
199.597	38.81
199.817	55.69
200.038	42.65
200.258	24.87
200.479	-28.61
200.699	-88.62
200.919	-35.97
201.14	-48.11
201.36	-21.35
201.58	11.41
201.801	32
202.021	47.4
202.241	54.68
202.461	52.2
202.682	34.87
202.902	62.27
203.122	21.62
203.342	26.98
203.563	36.22
203.783	68.46
204.003	31.49
204.223	53.41
204.443	40.29
204.663	61.32
204.884	60.31
205.104	72.86
205.324	51.92
205.544	81.43
205.764	54.45
205.984	48.78
206.204	59.3
206.424	64.33
206.644	32.74
206.864	32.76
207.084	28.63
207.304	24.26
207.525	26.57
207.745	38.23
207.964	53.37
208.184	42.56
208.404	24.24
208.624	32.14
208.844	54.55
209.064	48.52
209.284	40.84
209.504	40.48
209.724	34.44
209.944	16.97
210.164	14.97
210.384	26.02
210.604	26.98
210.823	16.69
211.043	22.2
211.263	38.75
211.483	25.94
211.703	27.03
211.922	34.05
212.142	51.74
212.362	34.99
212.582	30.27
212.801	21.89
213.021	6.57
213.241	-10.08
213.461	-26.39
213.68	-57.48
213.9	-42.11
214.12	-11.9
214.339	-37.7
214.559	-3.24
214.779	27.22
214.998	17.38
215.218	-24.86
215.438	26.01
215.657	24.22
215.877	44.82
216.096	41.29
216.316	55.13
216.535	39.34
216.755	12.85
216.974	-31.53
217.194	-14.92
217.413	10.11
217.633	30.32
217.852	15.97
218.072	-3.14
218.291	8.26
218.511	36.47
218.73	11.67
218.95	23.6
219.169	35.2
219.389	36.26
219.608	10.16
219.827	21.96
220.047	11.74
220.266	12.34
220.485	8.07
220.705	14.86
220.924	2.6
221.143	18.38
221.363	-12.16
221.582	-4.41
221.801	-14.4
222.021	18.93
222.24	-9.85
222.459	25.34
222.678	30.99
222.897	11.84
223.117	12.2
223.336	33.74
223.555	26.8
223.774	16.48
223.993	37.22
224.213	43.74
224.432	38.88
224.651	56.69
224.87	52.85
225.089	60.11
225.308	75.1
225.527	87.64
225.746	49.89
225.965	36.59
226.184	14.07
226.404	-25.82
226.623	-25.71
226.842	-10.21
227.061	0.37
227.28	14.4
227.499	16.71
227.718	-5.91
227.936	15.38
228.155	6.48
228.374	-5.78
228.593	4.97
228.812	8.12
229.031	-5.07
229.25	9.4
229.469	7.79
229.688	3.44
229.907	20.55
230.125	25.32
230.344	26.26
230.563	30.97
230.782	41.01
231.001	6.64
231.22	-13.92
231.438	0.63
231.657	3.71
231.876	9.72
232.095	9.07
232.313	17.21
232.532	-4.39
232.751	15.22
232.969	20.32
233.188	43.35
233.407	54.63
233.625	62.25
233.844	39.8
234.063	38.89
234.281	20.51
234.5	-2.29
234.719	3.18
234.937	14.56
235.156	-4.84
235.374	29.12
235.593	41.51
235.811	45.33
236.03	31.91
236.249	33.99
236.467	33.15
236.686	37.52
236.904	23.84
237.123	24.78
237.341	8.46
237.559	-0.97
237.778	-15.1
237.996	22.84
238.215	27.82
238.433	44.8
238.652	51.39
238.87	37.91
239.088	26.27
239.307	11.4
239.525	0.06
239.743	-11.47
239.962	10.7
240.18	13.11
240.398	15.84
240.617	10.04
240.835	6.63
241.053	4.26
241.271	-0.84
241.49	12.72
241.708	31.76
241.926	41.15
242.144	34.77
242.363	29.21
242.581	29.35
242.799	37.25
243.017	36.11
243.235	36.31
243.453	34.13
243.672	24.3
243.89	-3.27
244.108	1.47
244.326	14.22
244.544	2.22
244.762	1.77
244.98	15.79
245.198	10.11
245.416	-2.83
245.634	7.2
245.852	18.56
246.07	23.66
246.288	21.28
246.506	16.28
246.724	19.62
246.942	20.81
247.16	21.36
247.378	25
247.596	32.89
247.814	35.63
248.032	31.87
248.25	43.83
248.468	56.31
248.685	50.88
248.903	45.22
249.121	41.74
249.339	11.04
249.557	-13.95
249.775	-14.09
249.992	-20.62
250.21	-16.59
250.428	13
250.646	10.94
250.863	10.11
251.081	8.94
251.299	24.83
251.517	25
251.734	33.73
251.952	31.18
252.17	34.34
252.387	29.1
252.605	39
252.823	43.43
253.04	52.73
253.258	58.89
253.475	42.01
253.693	40.36
253.911	42.56
254.128	43.55
254.346	35.85
254.563	53.79
254.781	27.79
254.998	28.77
255.216	12.66
255.433	30.51
255.651	26.36
255.868	35.8
256.086	33.56
256.303	32.31
256.521	37.18
256.738	33.2
256.956	28.56
257.173	14.41
257.39	20.54
257.608	18.24
257.825	24.01
258.043	16.37
258.26	27.71
258.477	18.79
258.695	-0.1
258.912	8.37
259.129	18.65
259.346	-11.68
259.564	-19.58
259.781	-9.59
259.998	-19.32
260.216	-7.26
260.433	8.68
260.65	-1.06
260.867	23.33
261.084	5.32
261.302	-18.36
261.519	-31.26
261.736	0.27
261.953	-32.97
262.17	-3.68
262.387	-3.16
262.604	-6.8
262.822	-19.89
263.039	-1.14
263.256	-12.04
263.473	1.24
263.69	3.72
263.907	19.12
264.124	7.06
264.341	9.64
264.558	15.08
264.775	11.71
264.992	-4.66
265.209	-13.56
265.426	-14.73
265.643	-8.19
265.86	-1.04
266.077	4.86
266.294	11.63
266.51	8.66
266.727	11.95
266.944	10.82
267.161	-34.02
267.378	-33
267.595	-22.01
267.812	-29.97
268.028	-61.23
268.245	15.73
268.462	19.65
268.679	1.26
268.896	-13.54
269.112	-7.63
269.329	-17.18
269.546	-12.84
269.763	-10.35
269.979	-3.69
270.196	23.55
270.413	38.13
270.629	25.78
270.846	27.55
271.063	27.05
271.279	7.81
271.496	-14.57
271.712	-3
271.929	2.65
272.146	21.69
272.362	17.52
272.579	50.48
272.795	51.81
273.012	34.87
273.228	10.52
273.445	21.72
273.661	-9.05
273.878	-30.73
274.094	5
274.311	8.95
274.527	8.97
274.744	27.36
274.96	25.11
275.177	3.12
275.393	12.84
275.609	30.14
275.826	16.16
276.042	26.27
276.259	21.77
276.475	22.12
276.691	12.88
276.908	26.55
277.124	22.14
277.34	30.05
277.557	19.89
277.773	-2.06
277.989	-12.25
278.205	-3
278.422	-22.94
278.638	-11.86
278.854	8.25
279.07	31.74
279.286	5.87
279.503	19.2
279.719	22.35
279.935	15.46
280.151	-12.74
280.367	13.05
280.583	34.36
280.799	23.37
281.016	27.82
281.232	45.44
281.448	50.09
281.664	52.05
281.88	43.65
282.096	49.21
282.312	39.19
282.528	20.97
282.744	3.67
282.96	24.31
283.176	17.87
283.392	23.48
283.608	36.87
283.824	39.92
284.04	45.71
284.256	67.16
284.471	75.66
284.687	71.88
284.903	62.98
285.119	54.15
285.335	10.74
285.551	6.47
285.767	-1.78
285.982	5.16
286.198	-6.72
286.414	8.29
286.63	28.89
286.846	29.95
287.061	23.72
287.277	22.68
287.493	16.32
287.709	2.08
287.924	13.82
288.14	25.23
288.356	38.45
288.571	27.45
288.787	20.1
289.003	8.58
289.218	-6.21
289.434	-6.68
289.65	29.52
289.865	36.06
290.081	28.53
290.296	33.62
290.512	30.76
290.727	3.48
290.943	2.76
291.159	1.28
291.374	20.59
291.59	19.41
291.805	16.45
292.021	28.42
292.236	45.47
292.451	5.92
292.667	-3.29
292.882	-8.94
293.098	-6.95
293.313	-12.78
293.529	26.05
293.744	27.37
293.959	22.11
294.175	24.27
294.39	23.53
294.605	11.65
294.821	17.29
295.036	21.83
295.251	14.97
295.467	1.61
295.682	9.21
295.897	6.35
296.112	10.02
296.328	11.94
296.543	17.05
296.758	3.99
296.973	18.93
297.188	25.55
297.404	1.96
297.619	18.05
297.834	33.02
298.049	16.63
298.264	16.3
298.479	41.42
298.694	24.74
298.909	23.92
299.125	22.21
299.34	30.2
299.555	15.64
299.77	43.11
299.985	18.79
300.2	13.36
300.415	4.7
300.63	17.17
300.845	1.44
301.06	5.93
301.275	34.06
301.49	23.02
301.704	-7.48
301.919	12.51
302.134	17.12
302.349	4.77
302.564	4.7
302.779	17.64
302.994	13.27
303.209	24.67
303.423	26.24
303.638	21.01
303.853	10.89
304.068	15.95
304.283	13.37
304.497	13.81
304.712	4.12
304.927	4.02
305.142	-15.74
305.356	-48.11
305.571	-33.78
305.786	0.53
306	-14.11
306.215	4.64
306.43	24.91
306.644	18.82
306.859	19.95
307.074	34.39
307.288	4.56
307.503	14.52
307.717	10.97
307.932	-4.68
308.147	-7.03
308.361	7.73
308.576	-12.47
308.79	-6.7
309.005	22.23
309.219	21.8
309.434	25.21
309.648	31.83
309.863	27.58
310.077	5.16
310.292	10.75
310.506	4.66
310.72	8.43
310.935	0.64
311.149	13.19
311.364	27.49
311.578	29.8
311.792	-0.64
312.007	11.74
312.221	11.32
312.435	-7.44
312.649	-7.63
312.864	21.73
313.078	29.6
313.292	2.31
313.507	22.98
313.721	30.45
313.935	19.49
314.149	9.19
314.363	18.22
314.578	10.31
314.792	4.79
315.006	10.34
315.22	14.87
315.434	10.05
315.648	18.48
315.862	16.68
316.077	8.06
316.291	13.22
316.505	28.4
316.719	32.72
316.933	35.49
317.147	35.85
317.361	17.6
317.575	4
317.789	-15.59
318.003	-2.02
318.217	22.23
318.431	26.25
318.645	39.25
318.859	51.98
319.073	41.43
319.287	27.81
319.5	27.23
319.714	27.03
319.928	23.33
320.142	48.3
320.356	69.24
320.57	67.23
320.784	52.53
320.997	38.84
321.211	42.03
321.425	21.24
321.639	10.62
321.853	17.52
322.066	12.07
322.28	-1.59
322.494	12.39
322.707	34.27
322.921	16.58
323.135	16.21
323.349	14.44
323.562	-14.22
323.776	-48.67
323.989	-22.49
324.203	-4.33
324.417	-14.59
324.63	-13.97
324.844	2.36
325.057	-1.52
325.271	-12.35
325.485	-1.11
325.698	12.08
325.912	15.85
326.125	15.96
326.339	18.74
326.552	14.23
326.766	14.64
326.979	30.79
327.193	36.13
327.406	38.79
327.619	42.62
327.833	50.28
328.046	38.98
328.26	44.71
328.473	28.09
328.686	29.91
328.9	13.3
329.113	-7.99
329.326	-24.66
329.54	-17.24
329.753	-39.23
329.966	-19.07
330.179	1.17
330.393	0.06
330.606	7.63
330.819	16.86
331.032	13.7
331.246	8.29
331.459	-16.11
331.672	-21.81
331.885	-12.21
332.098	-10.02
332.311	6.42
332.525	22.98
332.738	27.08
332.951	17.58
333.164	18.78
333.377	-3.37
333.59	2.14
333.803	8.9
334.016	25.8
334.229	13.03
334.442	28.32
334.655	38.02
334.868	27.13
335.081	36.84
335.294	52.38
335.507	55.18
335.72	49.1
335.933	50.84
336.146	30.88
336.359	24.1
336.572	-8.55
336.785	-17.77
336.997	-23.14
337.21	-7.03
337.423	-4.76
337.636	17.52
337.849	15.06
338.062	16.2
338.274	6.36
338.487	3.84
338.7	-16.51
338.913	12.27
339.125	20.76
339.338	19.33
339.551	18.17
339.763	18.54
339.976	-2.28
340.189	-5.8
340.402	-17.88
340.614	-30.52
340.827	3.85
341.039	3.34
341.252	-7
341.465	23.87
341.677	37.87
341.89	19.58
342.102	35.22
342.315	26.19
342.527	21.5
342.74	4.16
342.952	7.87
343.165	16.81
343.377	24.89
343.59	12.83
343.802	22.86
344.015	25.79
344.227	-3.95
344.44	-1.58
344.652	-3.63
344.864	-20.46
345.077	-15.75
345.289	0.91
345.502	-5.39
345.714	8.96
345.926	28.4
346.139	29.31
346.351	20.47
346.563	30.92
346.775	23.74
346.988	19.84
347.2	7.7
347.412	17.13
347.624	23.15
347.837	23.91
348.049	13.87
348.261	29.4
348.473	21.87
348.685	17.71
348.897	15.03
349.11	22.48
349.322	22.68
349.534	33.85
349.746	19.44
349.958	15.16
350.17	6.99
350.382	5.87
350.594	-5.68
350.806	19.89
351.018	17.73
351.23	20.79
351.442	23.3
351.654	35.29
351.866	7.2
352.078	20.62
352.29	11.92
352.502	23.62
352.714	8.15
352.926	14.75
353.138	27.32
353.35	21.88
353.561	-6.19
353.773	18.38
353.985	14.07
354.197	24.13
354.409	25.35
354.621	15.81
354.832	4.25
355.044	13.18
355.256	-11.6
355.468	-2.27
355.679	9.28
355.891	12.18
356.103	15.38
356.314	20.68
356.526	23.49
356.738	25.5
356.949	20.59
357.161	19.03
357.373	28.64
357.584	18.39
357.796	25.58
358.008	19
358.219	3.31
358.431	-8.77
358.642	-7.44
358.854	-14.48
359.065	12.06
359.277	18.04
359.488	20.45
359.7	20.81
359.911	32.96
360.123	13.38
360.334	17.12
360.546	11.44
360.757	9.72
360.969	-1.72
361.18	26.01
361.391	45.67
361.603	38.2
361.814	52.35
362.025	48.45
362.237	38.58
362.448	26.44
362.659	27.16
362.871	24.86
363.082	27.9
363.293	11.3
363.504	3.17
363.716	11.91
363.927	0.23
364.138	-26.92
364.349	-9.44
364.56	-6.22
364.772	-22.11
364.983	-11.03
365.194	9.43
365.405	8.02
365.616	3.44
365.827	22.54
366.038	18.09
366.25	-2.87
366.461	-3.05
366.672	-1.28
366.883	-0.71
367.094	-17.1
367.305	5.1
367.516	11.96
367.727	17.69
367.938	14.66
368.149	23.32
368.36	27.47
368.571	28.21
368.781	21.99
368.992	9.27
369.203	21.75
369.414	17.32
369.625	17.63
369.836	21.19
370.047	21.24
370.258	13.84
370.468	10.49
370.679	-6.84
370.89	-19.38
371.101	-3.06
371.312	-8.7
371.522	-4.79
371.733	-7.95
371.944	-8.14
372.155	-22
372.365	-27.19
372.576	-30.49
372.787	-0.09
372.997	14.61
373.208	16.81
373.419	23.86
373.629	35.94
373.84	42.69
374.05	26.41
374.261	12.9
374.472	8.91
374.682	3.27
374.893	1.36
375.103	15.78
375.314	31.5
375.524	31.17
375.735	30.21
375.945	21.64
376.156	18.84
376.366	6.92
376.577	22.1
376.787	20.6
376.997	20.57
377.208	3.7
377.418	-0.08
377.629	-16.18
377.839	-13.75
378.049	-19.56
378.26	-0.42
378.47	9.6
378.68	19.75
378.89	21.97
379.101	35.82
379.311	24.71
379.521	19.88
379.732	5.67
379.942	4.59
380.152	-8.43
380.362	-9.02
380.572	-13.02
380.783	-12.61
380.993	-17.2
381.203	-17.53
381.413	-20.36
381.623	-13.37
381.833	9.53
382.043	10.64
382.253	9.06
382.463	8.08
382.674	22.5
382.884	18.15
383.094	9.41
383.304	7.86
383.514	7.13
383.724	3.46
383.934	-4.03
384.144	5.72
384.353	8.81
384.563	13.51
384.773	9.05
384.983	13.36
385.193	20.43
385.403	15.06
385.613	17.75
385.823	16.37
386.033	13.25
386.242	4.44
386.452	4.04
386.662	-4.18
386.872	-4.15
387.082	-4.81
387.291	-8.9
387.501	-1.83
387.711	1.85
387.921	0.42
388.13	5.06
388.34	10.97
388.55	8.44
388.759	7.35
388.969	12.22
389.179	8.43
389.388	5.5
389.598	4.48
389.807	5.64
390.017	1.97
390.227	6.87
390.436	8.55
390.646	11
390.855	11.97
391.065	10.93
391.274	6.6
391.484	2.38
391.693	0.46
391.903	0.4
392.112	1.24
392.322	3.43
392.531	5.26
392.74	5.18
392.95	4.92
393.159	5.12
393.369	6.19
393.578	6.49
393.787	6.89
393.997	4.56
394.206	4.57
394.415	3.94
394.625	3.98
394.834	3.21
395.043	4.01
395.252	5.59
395.462	5.29
395.671	6.05
395.88	7.62
396.089	8.94
396.298	8.15
396.508	7.21
396.717	6.71
396.926	6.12
397.135	4.9
397.344	4.59
397.553	5.56
397.762	5.8
397.971	5.86
398.181	6.97
398.39	6.97
398.599	6.83
398.808	6.86
399.017	7.28
399.226	6.9
399.435	7.22
399.644	7.44
399.853	7.55
400.062	7.62
400.27	7.76
400.479	7.49
400.688	7.01
400.897	6.83
401.106	6.66
401.315	6.35
401.524	6.66
401.733	6.65
401.941	6.94
402.15	6.79
402.359	6.72
402.568	6.75
402.777	6.97
402.985	6.75
403.194	6.69
403.403	6.76
403.612	6.52
403.82	6.39
404.029	6.15
404.238	6.17
404.446	6.15
404.655	5.96
404.864	5.95
405.072	5.92
405.281	5.98
405.489	5.97
405.698	6.17
405.906	6.13
406.115	6.22
406.324	5.96
406.532	5.94
406.741	5.85
406.949	5.96
407.158	5.95
407.366	6
407.574	5.88
407.783	5.88
407.991	5.69
408.2	5.61
408.408	5.62
408.617	5.67
408.825	5.67
409.033	5.83
409.242	5.98
409.45	5.93
409.658	6.12
409.867	6.22
410.075	6.12
410.283	6.09
410.491	6.02
410.7	5.82
410.908	5.7
411.116	5.77
411.324	5.72
411.533	5.79
411.741	5.85
411.949	5.93
412.157	5.72
412.365	5.53
412.573	5.5
412.781	5.5
412.99	5.49
413.198	5.49
413.406	5.58
413.614	5.67
413.822	5.63
414.03	5.58
414.238	5.64
414.446	5.77
414.654	5.62
414.862	5.58
415.07	5.4
415.278	5.38
415.486	5.12
415.694	5.19
415.902	5.1
416.109	5.13
416.317	5.12
416.525	5.13
416.733	5.13
416.941	5.22
417.149	5.11
417.357	4.88
417.564	4.85
417.772	4.73
417.98	4.85
418.188	5.01
418.395	5.19
418.603	5.29
418.811	5.31
419.019	5.19
419.226	5.53
419.434	5.66
419.642	5.68
419.849	5.65
420.057	5.66
420.265	5.22
420.472	5
420.68	4.95
420.887	5.11
421.095	5.08
421.302	5.14
421.51	5.12
421.717	5.12
421.925	4.93
422.132	4.81
422.34	4.71
422.547	4.77
422.755	4.89
422.962	4.88
423.17	4.81
423.377	4.88
423.585	4.92
423.792	4.98
423.999	5.05
424.207	5.14
424.414	5.23
424.621	5.33
424.829	5.05
425.036	5.08
425.243	5.15
425.451	4.94
425.658	4.75
425.865	4.88
426.072	4.84
426.28	4.96
426.487	5.11
426.694	5.05
426.901	4.87
427.108	4.84
427.315	4.85
427.523	4.81
427.73	4.96
427.937	5.16
428.144	5.08
428.351	4.94
428.558	4.98
428.765	4.99
428.972	4.99
429.179	5.05
429.386	5.13
429.593	5.16
429.8	5.13
430.007	5.22
430.214	5.47
430.421	5.48
430.628	5.39
430.835	5.5
431.042	5.49
431.249	5.41
431.456	5.28
431.662	5.66
431.869	5.73
432.076	5.76
432.283	5.84
432.49	5.8
432.697	5.63
432.903	5.44
433.11	5.39
433.317	5.22
433.524	5.46
433.73	5.39
433.937	5.39
434.144	5.4
434.35	5.42
434.557	5.27
434.764	5.2
434.97	5.25
435.177	5.32
435.384	5.22
435.59	5.36
435.797	5.44
436.003	5.48
436.21	5.48
436.416	5.63
436.623	5.6
436.829	5.69
437.036	5.72
437.242	5.84
437.449	5.84
437.655	5.92
437.862	5.96
438.068	5.9
438.275	5.84
438.481	5.86
438.687	5.79
438.894	5.86
439.1	5.9
439.307	5.88
439.513	5.89
439.719	5.93
439.926	5.83
440.132	5.98
440.338	6.12
440.544	6.07
440.751	6.03
440.957	6.15
441.163	6.03
441.369	5.99
441.575	6.06
441.782	6.08
441.988	6.01
442.194	5.96
442.4	5.95
442.606	6.1
442.812	6.14
443.018	6.12
443.224	6.3
443.431	6.23
443.637	6.12
443.843	6.14
444.049	6.23
444.255	6.07
444.461	6.06
444.667	6.07
444.873	5.98
445.079	5.88
445.284	6.03
445.49	6.05
445.696	6.02
445.902	6.09
446.108	6.1
446.314	6.05
446.52	6.15
446.726	6.12
446.931	6.18
447.137	6.26
447.343	6.2
447.549	6.17
447.755	6.12
447.96	6.15
448.166	6.11
448.372	6.09
448.578	6.23
448.783	6.4
448.989	6.42
449.195	6.39
449.4	6.5
449.606	6.34
449.812	6.31
450.017	6.32
450.223	6.35
450.428	6.37
450.634	6.5
450.84	6.63
451.045	6.54
451.251	6.51
451.456	6.53
451.662	6.38
451.867	6.27
452.073	6.32
452.278	6.31
452.483	6.38
452.689	6.51
452.894	6.49
453.1	6.5
453.305	6.54
453.51	6.44
453.716	6.42
453.921	6.52
454.127	6.59
454.332	6.53
454.537	6.51
454.742	6.55
454.948	6.51
455.153	6.46
455.358	6.59
455.563	6.69
455.769	6.57
455.974	6.48
456.179	6.38
456.384	6.31
456.589	6.32
456.795	6.42
457	6.56
457.205	6.82
457.41	6.86
457.615	6.77
457.82	6.83
458.025	6.81
458.23	6.66
458.435	6.66
458.64	6.64
458.845	6.67
459.05	6.62
459.255	6.65
459.46	6.8
459.665	6.94
459.87	6.88
460.075	6.86
460.28	6.85
460.485	6.74
460.69	6.68
460.895	6.6
461.099	6.67
461.304	6.63
461.509	6.6
461.714	6.53
461.919	6.62
462.123	6.66
462.328	6.73
462.533	6.66
462.738	6.72
462.942	6.68
463.147	6.79
463.352	6.83
463.556	6.94
463.761	6.95
463.966	7.08
464.17	7.05
464.375	6.93
464.58	6.98
464.784	6.98
464.989	6.91
465.193	6.87
465.398	6.99
465.602	7.1
465.807	7.22
466.011	7.27
466.216	7.23
466.42	7.26
466.625	7.32
466.829	7.31
467.034	7.34
467.238	7.36
467.443	7.35
467.647	7.16
467.851	7.13
468.056	7.14
468.26	7.09
468.464	7.08
468.669	7.17
468.873	7.17
469.077	7.15
469.282	7.22
469.486	7.25
469.69	7.19
469.894	7.19
470.099	7.17
470.303	7.21
470.507	7.21
470.711	7.14
470.915	7.24
471.119	7.31
471.324	7.34
471.528	7.32
471.732	7.51
471.936	7.49
472.14	7.41
472.344	7.44
472.548	7.52
472.752	7.51
472.956	7.51
473.16	7.6
473.364	7.61
473.568	7.55
473.772	7.64
473.976	7.57
474.18	7.61
474.384	7.5
474.588	7.49
474.792	7.42
474.995	7.45
475.199	7.47
475.403	7.53
475.607	7.52
475.811	7.52
476.015	7.54
476.218	7.48
476.422	7.51
476.626	7.55
476.83	7.54
477.033	7.63
477.237	7.66
477.441	7.64
477.644	7.69
477.848	7.67
478.052	7.52
478.255	7.53
478.459	7.56
478.663	7.59
478.866	7.6
479.07	7.73
479.273	7.66
479.477	7.7
479.681	7.72
479.884	7.76
480.088	7.69
480.291	7.81
480.495	7.73
480.698	7.66
480.901	7.59
481.105	7.59
481.308	7.51
481.512	7.52
481.715	7.51
481.919	7.56
482.122	7.58
482.325	7.6
482.529	7.62
482.732	7.72
482.935	7.7
483.138	7.66
483.342	7.7
483.545	7.83
483.748	7.83
483.952	7.9
484.155	7.98
484.358	7.96
484.561	7.93
484.764	7.85
484.967	7.85
485.171	7.84
485.374	7.75
485.577	7.67
485.78	7.64
485.983	7.66
486.186	7.66
486.389	7.81
486.592	7.89
486.795	8
486.998	7.94
487.201	8.05
487.404	8.04
487.607	8.1
487.81	8
488.013	8.06
488.216	8.01
488.419	7.98
488.622	7.91
488.825	8.03
489.028	7.98
489.231	7.98
489.433	7.95
489.636	7.91
489.839	7.81
490.042	7.77
490.245	7.73
490.447	7.79
490.65	7.86
490.853	7.94
491.056	8.01
491.258	7.99
491.461	7.93
491.664	7.93
491.866	7.93
492.069	7.99
492.272	7.98
492.474	8.02
492.677	7.97
492.879	8.02
493.082	7.99
493.285	8.08
493.487	8.06
493.69	8.07
493.892	7.94
494.095	7.97
494.297	7.96
494.5	8.02
494.702	8.03
494.905	8.24
495.107	8.2
495.309	8.32
495.512	8.32
495.714	8.43
495.917	8.37
496.119	8.43
496.321	8.36
496.524	8.42
496.726	8.31
496.928	8.3
497.13	8.28
497.333	8.34
497.535	8.37
497.737	8.48
497.939	8.54
498.142	8.66
498.344	8.66
498.546	8.64
498.748	8.62
498.95	8.64
499.152	8.56
499.355	8.67
499.557	8.74
499.759	8.77
499.961	8.75
500.163	8.83
500.365	8.78
500.567	8.79
500.769	8.83
500.971	8.91
501.173	8.86
501.375	8.81
501.577	8.78
501.779	8.8
501.981	8.84
502.183	8.84
502.385	8.81
502.587	8.82
502.788	8.83
502.99	8.75
503.192	8.76
503.394	8.78
503.596	8.83
503.798	8.88
503.999	8.94
504.201	9.06
504.403	9.1
504.605	9.1
504.806	9.1
505.008	9.09
505.21	9.06
505.411	9.07
505.613	9.05
505.815	9.06
506.016	9.07
506.218	9.02
506.42	9.04
506.621	9.04
506.823	8.92
507.024	8.87
507.226	8.88
507.427	8.87
507.629	8.84
507.83	8.92
508.032	8.96
508.233	8.97
508.435	8.9
508.636	8.99
508.838	8.93
509.039	8.87
509.24	8.87
509.442	8.93
509.643	8.82
509.845	8.84
510.046	8.94
510.247	8.93
510.448	8.92
510.65	8.94
510.851	8.89
511.052	8.78
511.254	8.68
511.455	8.68
511.656	8.61
511.857	8.63
512.058	8.69
512.26	8.76
512.461	8.73
512.662	8.76
512.863	8.69
513.064	8.61
513.265	8.51
513.466	8.52
513.667	8.55
513.868	8.56
514.069	8.64
514.27	8.68
514.471	8.65
514.672	8.58
514.873	8.57
515.074	8.56
515.275	8.56
515.476	8.55
515.677	8.58
515.878	8.67
516.079	8.59
516.28	8.61
516.481	8.66
516.682	8.69
516.882	8.52
517.083	8.54
517.284	8.47
517.485	8.39
517.686	8.37
517.886	8.52
518.087	8.53
518.288	8.49
518.488	8.48
518.689	8.45
518.89	8.37
519.091	8.44
519.291	8.48
519.492	8.54
519.692	8.57
519.893	8.65
520.094	8.6
520.294	8.66
520.495	8.63
520.695	8.65
520.896	8.62
521.096	8.62
521.297	8.6
521.497	8.64
521.698	8.51
521.898	8.49
522.099	8.45
522.299	8.46
522.499	8.45
522.7	8.61
522.9	8.6
523.101	8.61
523.301	8.6
523.501	8.56
523.702	8.49
523.902	8.51
524.102	8.58
524.302	8.58
524.503	8.61
524.703	8.63
524.903	8.56
525.103	8.48
525.304	8.51
525.504	8.54
525.704	8.59
525.904	8.68
526.104	8.71
526.304	8.7
526.504	8.65
526.705	8.57
526.905	8.54
527.105	8.56
527.305	8.53
527.505	8.54
527.705	8.61
527.905	8.6
528.105	8.57
528.305	8.57
528.505	8.59
528.705	8.55
528.905	8.53
529.105	8.53
529.304	8.55
529.504	8.6
529.704	8.62
529.904	8.66
530.104	8.69
530.304	8.64
530.503	8.58
530.703	8.52
530.903	8.5
531.103	8.46
531.303	8.57
531.502	8.61
531.702	8.7
531.902	8.69
532.101	8.71
532.301	8.7
532.501	8.69
532.7	8.72
532.9	8.76
533.1	8.86
533.299	8.82
533.499	8.84
533.698	8.84
533.898	8.85
534.097	8.76
534.297	8.76
534.496	8.76
534.696	8.75
534.895	8.8
535.095	8.86
535.294	8.91
535.494	8.91
535.693	8.87
535.892	8.9
536.092	8.83
536.291	8.8
536.491	8.85
536.69	8.9
536.889	8.85
537.088	8.89
537.288	8.95
537.487	8.95
537.686	8.91
537.886	8.98
538.085	8.96
538.284	8.97
538.483	9.01
538.682	9.1
538.882	9.07
539.081	9.16
539.28	9.19
539.479	9.15
539.678	9.1
539.877	9.17
540.076	9.18
540.275	9.17
540.474	9.2
540.673	9.24
540.872	9.2
541.071	9.15
541.27	9.15
541.469	9.23
541.668	9.29
541.867	9.38
542.066	9.47
542.265	9.53
542.464	9.5
542.663	9.6
542.862	9.78
543.06	9.89
543.259	10.04
543.458	10.14
543.657	10.19
543.856	10.1
544.054	9.98
544.253	9.83
544.452	9.77
544.651	9.77
544.849	9.74
545.048	9.86
545.247	9.94
545.445	9.99
545.644	9.95
545.843	9.98
546.041	9.99
546.24	10.07
546.438	10.1
546.637	10.12
546.836	10.19
547.034	10.16
547.233	10.16
547.431	10.26
547.63	10.29
547.828	10.32
548.027	10.36
548.225	10.34
548.423	10.33
548.622	10.42
548.82	10.41
549.019	10.49
549.217	10.51
549.415	10.5
549.614	10.56
549.812	10.58
550.01	10.6
550.209	10.69
550.407	10.8
550.605	10.81
550.803	10.92
551.002	10.99
551.2	11.02
551.398	11.1
551.596	11.06
551.794	11.17
551.993	11.24
552.191	11.28
552.389	11.31
552.587	11.4
552.785	11.46
552.983	11.5
553.181	11.69
553.379	11.83
553.577	11.9
553.775	11.96
553.973	12.05
554.171	12.03
554.369	12
554.567	12.06
554.765	12.04
554.963	12.04
555.161	11.97
555.359	11.99
555.557	12.09
555.755	12.19
555.952	12.32
556.15	12.47
556.348	12.54
556.546	12.67
556.744	12.71
556.941	12.73
557.139	12.85
557.337	12.96
557.535	12.87
557.732	12.9
557.93	12.92
558.128	12.93
558.325	12.91
558.523	13.02
558.721	13.16
558.918	13.22
559.116	13.25
559.313	13.33
559.511	13.42
559.708	13.39
559.906	13.52
560.104	13.57
560.301	13.68
560.498	13.78
560.696	13.82
560.893	13.83
561.091	14.02
561.288	14.03
561.486	14.04
561.683	14.07
561.88	14.16
562.078	14.16
562.275	14.27
562.473	14.33
562.67	14.43
562.867	14.47
563.064	14.55
563.262	14.58
563.459	14.59
563.656	14.72
563.853	14.85
564.051	14.83
564.248	14.89
564.445	15.08
564.642	15.05
564.839	15.08
565.036	15.18
565.234	15.18
565.431	15.15
565.628	15.23
565.825	15.16
566.022	15.18
566.219	15.2
566.416	15.27
566.613	15.34
566.81	15.44
567.007	15.46
567.204	15.53
567.401	15.49
567.598	15.54
567.795	15.58
567.991	15.63
568.188	15.63
568.385	15.68
568.582	15.67
568.779	15.66
568.976	15.73
569.172	15.8
569.369	15.8
569.566	15.84
569.763	15.9
569.96	15.89
570.156	15.93
570.353	15.89
570.55	15.9
570.746	15.82
570.943	15.75
571.14	15.72
571.336	15.78
571.533	15.78
571.729	15.9
571.926	16.01
572.123	15.96
572.319	15.99
572.516	16.07
572.712	15.97
572.909	15.87
573.105	15.91
573.302	15.84
573.498	15.73
573.695	15.74
573.891	15.78
574.087	15.75
574.284	15.85
574.48	15.92
574.677	15.92
574.873	15.89
575.069	15.98
575.266	15.88
575.462	15.79
575.658	15.89
575.854	16.01
576.051	15.93
576.247	15.99
576.443	16.07
576.639	15.98
576.835	15.81
577.032	15.72
577.228	15.71
577.424	15.65
577.62	15.59
577.816	15.53
578.012	15.62
578.208	15.55
578.404	15.56
578.6	15.57
578.796	15.7
578.993	15.76
579.189	15.7
579.384	15.55
579.58	15.45
579.776	15.4
579.972	15.22
580.168	15.16
580.364	15.19
580.56	15.2
580.756	15.14
580.952	15.09
581.148	15.22
581.343	15.23
581.539	15.22
581.735	15.27
581.931	15.28
582.127	15.19
582.322	15.16
582.518	15.15
582.714	15.03
582.909	15.02
583.105	14.96
583.301	14.92
583.496	14.88
583.692	14.85
583.888	14.84
584.083	14.86
584.279	14.98
584.474	14.95
584.67	14.96
584.866	14.96
585.061	14.92
585.257	14.89
585.452	14.88
585.648	14.79
585.843	14.76
586.039	14.78
586.234	14.61
586.429	14.57
586.625	14.61
586.82	14.68
587.015	14.63
587.211	14.59
587.406	14.52
587.601	14.56
587.797	14.41
587.992	14.37
588.187	14.42
588.383	14.49
588.578	14.48
588.773	14.52
588.968	14.54
589.163	14.58
589.359	14.64
589.554	14.63
589.749	14.65
589.944	14.57
590.139	14.45
590.334	14.34
590.529	14.39
590.724	14.38
590.919	14.37
591.114	14.52
591.309	14.62
591.504	14.63
591.699	14.58
591.894	14.73
592.089	14.6
592.284	14.55
592.479	14.55
592.674	14.56
592.869	14.54
593.064	14.67
593.259	14.77
593.454	14.67
593.648	14.74
593.843	14.83
594.038	14.86
594.233	14.82
594.428	14.89
594.622	14.91
594.817	14.85
595.012	14.85
595.206	14.89
595.401	15.01
595.596	15.1
595.79	15.12
595.985	15.18
596.18	15.21
596.374	15.25
596.569	15.3
596.763	15.38
596.958	15.44
597.153	15.46
597.347	15.48
597.542	15.53
597.736	15.54
597.931	15.48
598.125	15.57
598.319	15.64
598.514	15.66
598.708	15.74
598.903	15.85
599.097	15.86
599.291	15.81
599.486	15.88
599.68	15.87
599.874	15.86
600.069	15.96
600.263	15.97
600.457	15.87
600.651	15.85
600.846	15.83
601.04	15.89
601.234	15.85
601.428	15.95
601.622	16.03
601.817	16.1
602.011	16.05
602.205	16.12
602.399	16.1
602.593	16.1
602.787	16.12
602.981	16.09
603.175	16.09
603.369	16.08
603.563	16.01
603.757	16.02
603.951	16.06
604.145	16.02
604.339	16.11
604.533	16.07
604.727	16.01
604.921	15.99
605.115	15.99
605.309	15.87
605.502	15.97
605.696	15.93
605.89	15.86
606.084	15.84
606.278	15.85
606.471	15.75
606.665	15.64
606.859	15.6
607.053	15.53
607.246	15.47
607.44	15.45
607.634	15.52
607.827	15.54
608.021	15.52
608.214	15.49
608.408	15.42
608.602	15.4
608.795	15.26
608.989	15.21
609.182	15.15
609.376	15.2
609.569	15.07
609.763	14.96
609.956	14.9
610.15	14.8
610.343	14.61
610.537	14.61
610.73	14.56
610.923	14.56
611.117	14.59
611.31	14.61
611.504	14.58
611.697	14.62
611.89	14.54
612.083	14.46
612.277	14.37
612.47	14.29
612.663	14.24
612.856	14.21
613.05	14.17
613.243	14.14
613.436	14.01
613.629	13.9
613.822	13.8
614.015	13.69
614.209	13.6
614.402	13.6
614.595	13.62
614.788	13.52
614.981	13.46
615.174	13.43
615.367	13.35
615.56	13.3
615.753	13.37
615.946	13.3
616.139	13.28
616.332	13.25
616.525	13.17
616.718	13.05
616.911	13.06
617.103	13.07
617.296	12.98
617.489	12.99
617.682	13.06
617.875	13.06
618.067	12.89
618.26	12.91
618.453	12.88
618.646	12.74
618.838	12.64
619.031	12.65
619.224	12.65
619.417	12.63
619.609	12.6
619.802	12.63
619.994	12.6
620.187	12.57
620.38	12.55
620.572	12.57
620.765	12.58
620.957	12.58
621.15	12.56
621.342	12.5
621.535	12.49
621.727	12.51
621.92	12.45
622.112	12.39
622.305	12.34
622.497	12.27
622.69	12.12
622.882	12.15
623.074	12.23
623.267	12.23
623.459	12.24
623.651	12.27
623.844	12.27
624.036	12.18
624.228	12.15
624.42	12.19
624.613	12.24
624.805	12.26
624.997	12.22
625.189	12.2
625.381	12.18
625.574	12.07
625.766	11.99
625.958	12.04
626.15	12.07
626.342	11.96
626.534	11.96
626.726	11.86
626.918	11.77
627.11	11.73
627.302	11.64
627.494	11.62
627.686	11.64
627.878	11.67
628.07	11.56
628.262	11.62
628.454	11.57
628.646	11.6
628.838	11.66
629.029	11.68
629.221	11.66
629.413	11.64
629.605	11.54
629.797	11.38
629.989	11.43
630.18	11.45
630.372	11.45
630.564	11.46
630.755	11.48
630.947	11.36
631.139	11.26
631.33	11.28
631.522	11.29
631.714	11.32
631.905	11.43
632.097	11.49
632.289	11.46
632.48	11.42
632.672	11.27
632.863	11.12
633.055	11.01
633.246	10.95
633.438	10.9
633.629	10.86
633.821	10.88
634.012	10.88
634.203	10.83
634.395	10.87
634.586	10.99
634.777	10.97
634.969	10.97
635.16	11.03
635.351	10.98
635.543	10.97
635.734	10.9
635.925	10.83
636.117	10.84
636.308	10.85
636.499	10.78
636.69	10.74
636.881	10.87
637.073	10.88
637.264	10.81
637.455	10.85
637.646	10.91
637.837	10.88
638.028	10.88
638.219	10.93
638.41	10.89
638.601	10.84
638.792	10.7
638.983	10.64
639.174	10.58
639.365	10.5
639.556	10.48
639.747	10.53
639.938	10.56
640.129	10.58
640.32	10.6
640.511	10.57
640.701	10.54
640.892	10.43
641.083	10.38
641.274	10.33
641.465	10.44
641.655	10.34
641.846	10.31
642.037	10.29
642.228	10.29
642.418	10.16
642.609	10.21
642.8	10.24
642.99	10.13
643.181	10.13
643.372	10.22
643.562	10.21
643.753	10.17
643.943	10.25
644.134	10.24
644.324	10.19
644.515	10.22
644.705	10.26
644.896	10.24
645.086	10.22
645.277	10.19
645.467	10.18
645.658	10.11
645.848	10.05
646.038	10.05
646.229	10.02
646.419	9.98
646.61	10.05
646.8	10.15
646.99	10.1
647.18	10.05
647.371	10.01
647.561	9.99
647.751	9.89
647.941	9.85
648.132	9.82
648.322	9.9
648.512	9.8
648.702	9.79
648.892	9.84
649.082	9.89
649.272	9.74
649.462	9.74
649.653	9.78
649.843	9.72
650.033	9.77
650.223	9.82
650.413	9.88
650.603	9.94
650.793	10
650.983	9.89
651.172	9.87
651.362	9.71
651.552	9.59
651.742	9.45
651.932	9.5
652.122	9.54
652.312	9.67
652.502	9.58
652.691	9.66
652.881	9.73
653.071	9.61
653.261	9.5
653.45	9.55
653.64	9.47
653.83	9.29
654.019	9.28
654.209	9.24
654.399	9.18
654.588	9.08
654.778	9.05
654.968	8.98
655.157	8.96
655.347	8.87
655.536	8.83
655.726	8.79
655.915	8.77
656.105	8.72
656.294	8.66
656.484	8.59
656.673	8.58
656.863	8.55
657.052	8.43
657.241	8.36
657.431	8.4
657.62	8.24
657.809	8.15
657.999	8.11
658.188	8.04
658.377	7.94
658.567	7.91
658.756	7.8
658.945	7.71
659.134	7.66
659.324	7.65
659.513	7.58
659.702	7.5
659.891	7.55
660.08	7.47
660.269	7.32
660.458	7.26
660.648	7.28
660.837	7.11
661.026	7.05
661.215	7.09
661.404	7.02
661.593	6.92
661.782	6.84
661.971	6.84
662.16	6.75
662.349	6.7
662.538	6.67
662.726	6.8
662.915	6.75
663.104	6.73
663.293	6.72
663.482	6.75
663.671	6.65
663.86	6.6
664.048	6.6
664.237	6.59
664.426	6.57
664.615	6.61
664.803	6.67
664.992	6.5
665.181	6.47
665.369	6.38
665.558	6.35
665.747	6.37
665.935	6.5
666.124	6.48
666.312	6.56
666.501	6.48
666.69	6.36
666.878	6.27
667.067	6.23
667.255	6.17
667.444	6.33
667.632	6.36
667.82	6.47
668.009	6.57
668.197	6.64
668.386	6.4
668.574	6.4
668.762	6.29
668.951	6.33
669.139	6.26
669.327	6.36
669.516	6.45
669.704	6.43
669.892	6.43
670.08	6.45
670.269	6.44
670.457	6.38
670.645	6.42
670.833	6.39
671.021	6.32
671.21	6.33
671.398	6.3
671.586	6.28
671.774	6.4
671.962	6.54
672.15	6.7
672.338	6.77
672.526	6.83
672.714	6.66
672.902	6.62
673.09	6.65
673.278	6.73
673.466	6.95
673.654	7.23
673.842	7.26
674.03	7.27
674.218	7.28
674.405	7.19
674.593	7.24
674.781	7.29
674.969	7.28
675.157	7.39
675.344	7.39
675.532	7.22
675.72	7.28
675.908	7.35
676.095	7.26
676.283	7.39
676.471	7.56
676.658	7.57
676.846	7.7
677.033	7.83
677.221	7.76
677.409	7.65
677.596	7.67
677.784	7.51
677.971	7.59
678.159	7.64
678.346	7.72
678.534	7.92
678.721	8.11
678.909	8.09
679.096	8.26
679.283	8.41
679.471	8.33
679.658	8.46
679.846	8.47
680.033	8.57
680.22	8.59
680.408	8.61
680.595	8.54
680.782	8.47
680.969	8.32
681.157	8.26
681.344	8.23
681.531	8.22
681.718	8.38
681.905	8.36
682.093	8.51
682.28	8.6
682.467	8.79
682.654	8.86
682.841	9.01
683.028	8.9
683.215	9.01
683.402	8.89
683.589	8.82
683.776	8.98
683.963	9.1
684.15	9.19
684.337	9.48
684.524	9.71
684.711	9.79
684.898	9.9
685.085	10.01
685.271	9.93
685.458	9.95
685.645	9.92
685.832	10.04
686.019	10.17
686.205	10.23
686.392	10.5
686.579	10.66
686.766	10.77
686.952	10.78
687.139	11.14
687.326	11.08
687.512	11.08
687.699	11.17
687.886	11.34
688.072	11.3
688.259	11.46
688.445	11.74
688.632	11.9
688.818	12.26
689.005	12.6
689.191	12.93
689.378	13.15
689.564	13.55
689.751	13.65
689.937	13.85
690.124	14.06
690.31	14.35
690.496	14.59
690.683	14.79
690.869	15.03
691.055	15.29
691.242	15.72
691.428	16.11
691.614	16.49
691.8	16.88
691.987	17.21
692.173	17.66
692.359	17.94
692.545	18.44
692.731	18.78
692.918	19.48
693.104	19.77
693.29	20.19
693.476	20.51
693.662	21.26
693.848	21.42
694.034	21.68
694.22	22.19
694.406	22.85
694.592	23.16
694.778	23.65
694.964	24.3
695.15	24.73
695.336	25.1
695.522	25.56
695.708	26.26
695.894	26.7
696.08	27.38
696.265	28.09
696.451	28.65
696.637	28.98
696.823	29.51
697.009	30.01
697.194	30.1
697.38	30.62
697.566	31.3
697.751	32.01
697.937	32.48
698.123	32.97
698.308	33.57
698.494	33.95
698.68	34.4
698.865	34.97
699.051	35.82
699.236	36.53
699.422	37.28
699.607	37.9
699.793	38.52
699.978	39.02
700.164	39.44
700.349	40.07
700.535	40.38
700.72	40.9
700.906	41.61
701.091	41.89
701.276	42.22
701.462	43
701.647	43.44
701.832	44.05
702.018	44.92
702.203	45.58
702.388	45.88
702.573	46.32
702.759	46.61
702.944	46.87
703.129	47.12
703.314	47.67
703.499	48.36
703.684	48.57
703.87	48.99
704.055	49.8
704.24	50.41
704.425	50.66
704.61	51.26
704.795	51.52
704.98	51.67
705.165	51.76
705.35	52.4
705.535	53.03
705.72	53.48
705.905	54.1
706.09	54.9
706.275	55.3
706.459	55.42
706.644	56.04
706.829	56.42
707.014	56.8
707.199	57.08
707.384	57.68
707.568	57.97
707.753	58.88
707.938	59.3
708.123	59.95
708.307	60.29
708.492	60.67
708.677	60.49
708.861	60.36
709.046	60.6
709.231	61.17
709.415	61.49
709.6	61.67
709.784	62.21
709.969	62.11
710.153	62.16
710.338	62.54
710.522	63.16
710.707	63.73
710.891	64.05
711.076	64.29
711.26	64.38
711.445	64.32
711.629	64.4
711.813	64.95
711.998	65.17
712.182	65.63
712.366	66
712.551	66.36
712.735	66.4
712.919	67.01
713.103	67.3
713.288	67.25
713.472	67.71
713.656	68.16
713.84	68.4
714.024	68.4
714.208	68.77
714.393	68.4
714.577	68.31
714.761	68.27
714.945	68.52
715.129	68.72
715.313	69.56
715.497	69.97
715.681	70.18
715.865	70.29
716.049	70.29
716.233	69.66
716.417	70.37
716.601	70.38
716.785	70.43
716.968	71.06
717.152	71.64
717.336	71.31
717.52	71.64
717.704	72.1
717.888	71.77
718.071	71.77
718.255	71.89
718.439	71.46
718.622	71.44
718.806	71.89
718.99	72.16
719.174	72.5
719.357	72.78
719.541	73.09
719.724	73.26
719.908	73.52
720.092	73.52
720.275	74.53
720.459	74.7
720.642	75.54
720.826	75.54
721.009	75.69
721.193	75.6
721.376	75.83
721.559	75.59
721.743	75.67
721.926	75.86
722.11	75.86
722.293	75.84
722.476	75.47
722.66	75.58
722.843	75.43
723.026	75.77
723.21	75.93
723.393	76.18
723.576	76.73
723.759	76.93
723.942	76.87
724.126	76.78
724.309	77.42
724.492	76.96
724.675	77.27
724.858	77.27
725.041	77.72
725.224	77.67
725.407	78.13
725.59	78.75
725.774	78.71
725.957	78.65
726.14	78.66
726.322	78.51
726.505	78.39
726.688	78.22
726.871	78.73
727.054	78.49
727.237	78.95
727.42	79.01
727.603	79.57
727.786	79.22
727.968	79.16
728.151	78.97
728.334	79.4
728.517	79.61
728.699	80.03
728.882	80.2
729.065	79.98
729.248	80.18
729.43	79.98
729.613	79.9
729.796	79.98
729.978	81.28
730.161	80.55
730.343	81.04
730.526	81.01
730.708	81.61
730.891	80.8
731.073	80.77
731.256	79.97
731.438	80.34
731.621	80.63
731.803	81.23
731.986	81.54
732.168	81.64
732.35	81.81
732.533	81.66
732.715	81.1
732.898	80.44
733.08	81.16
733.262	81.38
733.444	80.76
733.627	80.51
733.809	81.16
733.991	82.07
734.173	82.19
734.355	82.79
734.538	83.4
734.72	83.33
734.902	83.19
735.084	82.29
735.266	82.58
735.448	83.09
735.63	83.31
735.812	83.1
735.994	83.81
736.176	83.73
736.358	82.79
736.54	82.86
736.722	82.6
736.904	82.41
737.086	82.43
737.268	83.49
737.45	84.13
737.632	84.11
737.814	84.55
737.995	84.65
738.177	84.41
738.359	83.94
738.541	84.33
738.723	85.39
738.904	85
739.086	84.89
739.268	85.48
739.449	84.56
739.631	83.72
739.813	84.29
739.994	85.04
740.176	85.15
740.358	86.33
740.539	86.47
740.721	86.4
740.902	87.02
741.084	87.27
741.265	86.13
741.447	85.73
741.628	86.53
741.81	85.25
741.991	84.99
742.172	86.58
742.354	86.4
742.535	85.78
742.717	85.56
742.898	85.01
743.079	85.18
743.261	86.12
743.442	87.11
743.623	88.84
743.804	88.48
743.986	87.45
744.167	87.53
744.348	86.33
744.529	85.74
744.71	87.35
744.891	87.35
745.073	86.6
745.254	87.1
745.435	87
745.616	86.04
745.797	86.52
745.978	86.84
746.159	86.81
746.34	86.43
746.521	86.64
746.702	84.69
746.883	83.98
747.064	82.08
747.245	82.18
747.426	82.38
747.606	84.41
747.787	85.12
747.968	87.7
748.149	87.28
748.33	86.24
748.51	85.83
748.691	85.07
748.872	84.39
749.053	83.91
749.233	83.64
749.414	84.02
749.595	85.58
749.775	84.64
749.956	85.92
750.137	86.43
750.317	87.05
750.498	85.96
750.678	86.5
750.859	85.25
751.04	85.56
751.22	84.27
751.4	84.47
751.581	84.41
751.761	84.81
751.942	85.02
752.122	85.32
752.303	83.42
752.483	83.89
752.663	83.86
752.844	83.55
753.024	84.97
753.204	86.88
753.385	85.64
753.565	86.41
753.745	86.56
753.925	86.05
754.106	85.73
754.286	86.62
754.466	86.45
754.646	86.42
754.826	83.64
755.006	82.98
755.187	82.88
755.367	82.21
755.547	82.52
755.727	85.54
755.907	84.42
756.087	84.83
756.267	84.71
756.447	84.26
756.627	82.69
756.807	84.33
756.987	84.71
757.167	85.29
757.346	85.85
757.526	87.23
757.706	88.01
757.886	85.88
758.066	87.07
758.246	86.47
758.425	85.45
758.605	84.25
758.785	86.51
758.965	84.13
759.144	84.91
759.324	84.34
759.504	86.55
759.683	86.98
759.863	88.37
760.043	86.77
760.222	85.06
760.402	82.06
760.581	82.11
760.761	81.74
760.94	80.84
761.12	84.8
761.299	84.54
761.479	83.79
761.658	82.4
761.838	84.13
762.017	82.46
762.197	84.24
762.376	84.36
762.555	85.13
762.735	85.31
762.914	85.6
763.093	86.78
763.273	85.37
763.452	85.49
763.631	85.7
763.81	85.75
763.99	84.99
764.169	86.54
764.348	86.62
764.527	86
764.706	85.69
764.885	84.77
765.064	83.57
765.243	82.94
765.423	81.61
765.602	81.63
765.781	83.37
765.96	82.06
766.139	82.92
766.318	84.74
766.497	84.76
766.676	82.95
766.854	85.15
767.033	85.07
767.212	84.27
767.391	82.29
767.57	82.55
767.749	82.08
767.928	83.33
768.106	82.52
768.285	83.99
768.464	82.65
768.643	82.94
768.821	81.3
769	83.06
769.179	83.5
769.357	83.55
769.536	82.45
769.715	82.42
769.893	82.45
770.072	82.3
770.25	82.9
770.429	83.01
770.607	83.66
770.786	81.81
770.964	81.41
771.143	83.13
771.321	83.96
771.5	83.63
771.678	85.39
771.857	86.59
772.035	85.21
772.213	84.73
772.392	82.93
772.57	83.78
772.748	81.37
772.927	82.83
773.105	83.74
773.283	86.34
773.461	86.57
773.64	87.27
773.818	84.87
773.996	85.02
774.174	83.13
774.352	81.92
774.531	82.41
774.709	83.04
774.887	82.19
775.065	80.98
775.243	79.84
775.421	78.7
775.599	78.74
775.777	78.09
775.955	78.15
776.133	78.02
776.311	78.98
776.489	77.82
776.667	76.96
776.844	78.76
777.022	79.53
777.2	78.15
777.378	79
777.556	79.3
777.734	78.57
777.911	79.22
778.089	80.59
778.267	80.69
778.445	79.31
778.622	79.01
778.8	78.98
778.978	79.04
779.155	79.74
779.333	80.22
779.511	79.79
779.688	79.22
779.866	77.75
780.043	77.16
780.221	77.19
780.398	77.74
780.576	77.93
780.753	78.08
780.931	76.74
781.108	78.74
781.286	79.54
781.463	78.65
781.64	78.3
781.818	82.89
781.995	81.57
782.172	82.3
782.35	80.33
782.527	83.68
782.704	80.66
782.882	79.38
783.059	77
783.236	73.44
783.413	69.57
783.59	69.87
783.768	68.44
783.945	69.03
784.122	74.12
784.299	71.78
784.476	71.61
784.653	73.78
784.83	74.5
785.007	72.44
785.184	75.33
785.361	75.79
785.538	76.09
785.715	79.82
785.892	84.56
786.069	83.67
786.246	84.59
786.423	86.01
786.6	80.2
786.776	77.19
786.953	78.81
787.13	79.07
787.307	76.96
787.484	79.34
787.66	80.23
787.837	84.9
788.014	85.24
788.191	87.72
788.367	91.82
788.544	92.23
788.721	85.06
788.897	82.38
789.074	78.84
789.25	74.12
789.427	73.8
789.603	72.51
789.78	72.9
789.956	75.01
790.133	73.57
790.309	70.91
790.486	75
790.662	73.97
790.839	70.42
791.015	69.57
791.192	72.32
791.368	72.59
791.544	71.89
791.721	75.66
791.897	82.51
792.073	80.53
792.249	79.93
792.426	82.35
792.602	82.66
792.778	78.45
792.954	79.08
793.13	77.97
793.307	77.44
793.483	76.66
793.659	78.12
793.835	74.7
794.011	73.57
794.187	69.44
794.363	65.75
794.539	63.43
794.715	67.58
794.891	66.38
795.067	70.45
795.243	76.55
795.419	78.1
795.595	72.91
795.771	75.99
795.947	71.4
796.122	65.96
796.298	64.93
796.474	66.55
796.65	64
796.826	67.79
797.001	67.61
797.177	71.28
797.353	73.12
797.529	77.11
797.704	76.73
797.88	82.73
798.056	80.92
798.231	79.07
798.407	75.32
798.582	70.46
798.758	72.13
798.934	73.3
799.109	74.01
799.285	78.63
799.46	78.2
799.636	75.23
799.811	71.69
799.986	73.46
800.162	72.83
800.337	78.5
800.513	75.48
800.688	77.55
800.863	77.93
801.039	77.45
801.214	81.72
801.389	79.93
801.565	77.85
801.74	79.18
801.915	82.09
802.09	79.74
802.265	83.95
802.441	87.4
802.616	85.73
802.791	78.35
802.966	80.73
803.141	79.15
803.316	72.84
803.491	71.15
803.666	72.4
803.841	66.94
804.016	64.35
804.191	66.9
804.366	71.26
804.541	71.73
804.716	69.36
804.891	64.41
805.066	66.42
805.241	62.97
805.416	59.56
805.591	66.87
805.765	75.06
805.94	72.71
806.115	74.89
806.29	73.86
806.464	71.3
806.639	69.09
806.814	66.54
806.989	59.45
807.163	58.23
807.338	53.1
807.512	50.79
807.687	55.72
807.862	59.6
808.036	66.16
808.211	67.36
808.385	67.52
808.56	68.38
808.734	63.65
808.909	66.68
809.083	61.49
809.258	65.41
809.432	60.74
809.606	61.74
809.781	59.75
809.955	61.75
810.13	62.18
810.304	62.21
810.478	62.61
810.652	69.7
810.827	73.51
811.001	76.04
811.175	84.98
811.349	81.08
811.524	67.16
811.698	61.32
811.872	65.49
812.046	62.17
812.22	70.4
812.394	75.6
812.568	84.11
812.742	76.68
812.916	72.51
813.09	70.21
813.264	68.11
813.438	67.73
813.612	69.1
813.786	64.76
813.96	64.8
814.134	68.63
814.308	68.11
814.482	71.87
814.656	75.5
814.83	72
815.003	70.53
815.177	71.21
815.351	65.67
815.525	75.82
815.698	78.86
815.872	64.76
816.046	65.42
816.219	58.68
816.393	55.38
816.567	65
816.74	83.59
816.914	72.43
817.088	75.95
817.261	72.91
817.435	67.11
817.608	57.72
817.782	57.77
817.955	59.07
818.129	53.23
818.302	54
818.475	69.03
818.649	72.16
818.822	70.88
818.996	80.34
819.169	76.1
819.342	61.42
819.516	65.63
819.689	72.43
819.862	75.23
820.035	73.08
820.209	73.53
820.382	74.39
820.555	65.23
820.728	62.01
820.901	61.63
821.075	66.42
821.248	67.68
821.421	70.23
821.594	81.27
821.767	84.07
821.94	79.62
822.113	66.56
822.286	62.6
822.459	36.72
822.632	40.76
822.805	44.75
822.978	65.62
823.151	66.47
823.324	67.66
823.496	52.44
823.669	55.45
823.842	50.01
824.015	62.05
824.188	62.75
824.361	76.9
824.533	68.75
824.706	76.04
824.879	64
825.051	70.97
825.224	56.1
825.397	47.47
825.569	34.77
825.742	26.74
825.915	20.76
826.087	21.96
826.26	34.82
826.432	47.57
826.605	57.53
826.777	57.08
826.95	65.68
827.122	66.24
827.295	53.22
827.467	56.09
827.64	49.12
827.812	44.46
827.984	53.55
828.157	70.27
828.329	76.96
828.501	75.34
828.674	80.89
828.846	79.17
829.018	76.91
829.19	64.5
829.363	73.62
829.535	67.82
829.707	75.06
829.879	82.5
830.051	74.01
830.223	67.72
830.395	65.06
830.568	54.21
830.74	48.48
830.912	48.25
831.084	50.01
831.256	46.53
831.428	50.26
831.6	17.59
831.772	15.76
831.943	13.44
832.115	23.79
832.287	29.51
832.459	44.16
832.631	48.16
832.803	69.63
832.975	52.81
833.146	56.66
833.318	44.33
833.49	47.59
833.662	35.47
833.833	48.81
834.005	46.76
834.177	62.62
834.348	53.62
834.52	38.83
834.692	38.08
834.863	35.53
835.035	26.49
835.206	2.72
835.378	27.11
835.549	37.19
835.721	36.76
835.892	41.25
836.064	69.01
836.235	71.16
836.407	76.22
836.578	81.47
836.749	95.82
836.921	68.33
837.092	55.12
837.264	42.45
837.435	41.9
837.606	24.33
837.777	38.71
837.949	55.76
838.12	43.12
838.291	30.83
838.462	43.28
838.633	38.98
838.805	24.23
838.976	37.91
839.147	49.09
839.318	38.4
839.489	42.51
839.66	45.93
839.831	54.36
840.002	53.93
840.173	51.53
840.344	29.26
840.515	15.21
840.686	10.75
840.857	4.94
841.028	11.77
841.199	37.03
841.369	41.94
841.54	47.91
841.711	38.34
841.882	29.53
842.053	20.48
842.223	22.94
842.394	39.86
842.565	53.09
842.736	74.69
842.906	130.42
843.077	138.73
843.248	110.99
843.418	105.67
843.589	87.5
843.759	47.66
843.93	43.25
844.101	26.25
844.271	55.37
844.442	50.65
844.612	64.98
844.783	54.06
844.953	56.51
845.123	58.38
845.294	60.44
845.464	63.85
845.635	52.74
845.805	63.73
845.975	42.87
846.146	22.03
846.316	25.22
846.486	39.67
846.656	29.02
846.827	23.27
846.997	32.71
847.167	37.44
847.337	5.81
847.507	32.81
847.677	45.39
847.848	75.37
848.018	54.97
848.188	72.96
848.358	45.34
848.528	31.11
848.698	33.1
848.868	20.16
849.038	34.17
849.208	61.25
849.378	73.16
849.548	74.08
849.718	88.03
849.887	67.02
850.057	47.27
850.227	18.91
850.397	11.25
850.567	2.73
850.737	28.98
850.906	26
851.076	27.36
851.246	39.24
851.415	43.91
851.585	40.31
851.755	42.94
851.924	37.19
852.094	31.97
852.264	26.1
852.433	-5.53
852.603	18.91
852.772	39.23
852.942	35.41
853.111	42.71
853.281	64.42
853.45	61.1
853.62	40.28
853.789	50.01
853.959	62.12
854.128	39.24
854.297	51.32
854.467	62.02
854.636	62.1
854.805	32.06
854.975	31.54
855.144	-92.44
855.313	-3.27
855.482	-25.92
855.652	-8.29
855.821	18.52
855.99	39.39
856.159	52.97
856.328	53.85
856.497	89.98
856.667	71.48
856.836	79.69
857.005	66.14
857.174	72.08
857.343	65.82
857.512	-17.19
857.681	40.05
857.85	67.34
858.019	51.46
858.188	47.11
858.356	52.72
858.525	20.98
858.694	5.65
858.863	-7.12
859.032	-67.62
859.201	-30.06
859.369	-8.91
859.538	-58.89
859.707	-26.43
859.876	16.93
860.044	20.27
860.213	35.6
860.382	58.89
860.55	72.07
860.719	70.71
860.888	51.03
861.056	31.08
861.225	14.37
861.393	29.93
861.562	6.36
861.73	14.73
861.899	24.31
862.067	35.06
862.236	64.67
862.404	32.25
862.572	32.81
862.741	34.52
862.909	31.49
863.078	-19.68
863.246	36.81
863.414	57.98
863.582	87.74
863.751	72.2
863.919	61.98
864.087	74.54
864.255	38.83
864.424	13.81
864.592	-0.17
864.76	14.25
864.928	7.56
865.096	-12.21
865.264	-20.54
865.432	5.25
865.6	19.2
865.768	-14.46
865.936	0.4
866.104	18.18
866.272	30.44
866.44	36.45
866.608	64.32
866.776	58.86
866.944	128.91
867.112	13.22
867.28	-127
867.448	-23.46
867.615	-4.81
867.783	-92.82
867.951	-34.06
868.119	6.09
868.286	10.38
868.454	-43.3
868.622	-51.64
868.789	-92.83
868.957	-16.8
869.125	-126.56
869.292	-77.51
869.46	-45.91
869.627	-24.57
869.795	-47.88
869.963	-8.07
870.13	-10.41
870.298	0.58
870.465	-25.46
870.632	-5.36
870.8	-15.61
870.967	-38.21
871.135	-65.97
871.302	-85.91
871.469	387.91
871.637	-37.27
871.804	76.87
871.971	40.87
872.139	45.91
872.306	34.66
872.473	19.45
872.64	0.54
872.807	21.77
872.975	53.68
873.142	114.07
873.309	1850.72
873.476	651.56
873.643	152.88
873.81	97.72
873.977	47.39
874.144	75.1
874.311	53.46
874.478	11.93
874.645	1.82
874.812	14.85
874.979	9.49
875.146	-26.4
875.313	15.51
875.48	-110.34
875.647	-61.65
875.813	-88.44
875.98	528.28
876.147	-264.57
876.314	-10.6
876.481	-174.51
876.647	-45
876.814	2.5
876.981	98.97
877.147	82.66
877.314	79.4
877.481	77.01
877.647	77.49
877.814	54.69
877.98	-2.26
878.147	-16.35
878.314	-22.29
878.48	-13.3
878.647	-28.15
878.813	87.6
878.979	146.97
879.146	99.09
879.312	98.37
879.479	98.74
879.645	95.08
879.811	50.43
879.978	43.2
880.144	35.91
880.31	42.21
880.477	5.52
880.643	20.39
880.809	36.21
880.975	-239.39
881.142	575.52
881.308	409.33
881.474	115.91
881.64	-39.38
881.806	34.03
881.972	76.82
882.138	86.11
882.304	68.63
882.47	76.67
882.636	23.53
882.802	84.17
882.968	137.12
883.134	72.29
883.3	68.15
883.466	113.76
883.632	97.68
883.798	54.41
883.964	71.95
884.129	81.42
884.295	18.6
884.461	2.78
884.627	31.74
884.793	-17.85
884.958	44.9
885.124	48.74
885.29	31.61
885.455	57.88
885.621	46.55
885.787	-75.28
885.952	111.32
886.118	37.48
886.283	-2328.07
886.449	-83.65
886.614	-40.07
886.78	-15.45
886.945	-81.46
887.111	-64.65
887.276	-60.5
887.442	-27.23
887.607	-67.81
887.773	-16.65
887.938	-69.38
888.103	-47.88
888.269	-106.27
888.434	-60.69
888.599	-34.26
888.764	20.03
888.93	20.52
889.095	61.9
889.26	99.6
889.425	66.47
889.59	-344.44
889.756	425.7
889.921	109.55
890.086	121.21
890.251	191.72
890.416	71.05
890.581	59.57
890.746	132.33
890.911	111.02
891.076	75.47
891.241	111.84
891.406	110.03
891.571	58.81
891.736	41.43
891.901	-16.29
892.065	-28.81
892.23	-28.52
892.395	12.95
892.56	-70.3
892.725	126.27
892.889	102.84
893.054	26.3
893.219	17.01
893.384	55.62
893.548	-26.74
893.713	198.77
893.878	2.17
