Data from Ofav_PS_Phys_358_Reflection_2.txt Node
Date: Thu Jul 29 18:25:14 EDT 2021
User: USUARIO
Spectrometer: FLMT01687
Trigger mode: 0
Integration Time (sec): 9.010000E-1
Scans to average: 2
Electric dark correction enabled: true
Nonlinearity correction enabled: false
Boxcar width: 2
XAxis mode: Wavelengths
Number of Pixels in Spectrum: 3648
>>>>>Begin Spectral Data<<<<<
179.494	330.16
179.716	391.44
179.937	297.77
180.158	-2063.28
180.38	-123.52
180.601	-719.16
180.823	-109.39
181.044	7.45
181.265	67.16
181.486	-124.29
181.708	135.03
181.929	79.78
182.15	1180.95
182.372	-100.39
182.593	-2.05
182.814	-3.99
183.035	-402.75
183.257	22.82
183.478	-11.84
183.699	24.99
183.92	12.75
184.141	17.49
184.363	19.88
184.584	34.38
184.805	22.05
185.026	31
185.247	25.64
185.468	19.17
185.689	-16.62
185.91	53.71
186.132	79.92
186.353	90.03
186.574	86.53
186.795	84.48
187.016	45.03
187.237	23.05
187.458	-4.31
187.679	-6.56
187.9	4.99
188.121	7.93
188.342	38.84
188.563	47.55
188.784	60.26
189.005	56.82
189.226	52.62
189.447	43
189.667	22.26
189.888	13.29
190.109	37.99
190.33	40.68
190.551	53.53
190.772	75.31
190.993	53.04
191.214	45.13
191.434	36.7
191.655	46.72
191.876	43.74
192.097	32.04
192.318	51.47
192.538	49.42
192.759	33.79
192.98	41.53
193.201	57.76
193.421	22.89
193.642	29.44
193.863	17.77
194.083	-10.34
194.304	-16
194.525	40.2
194.745	38.59
194.966	27.53
195.187	9.82
195.407	-30.97
195.628	-122.44
195.848	-76.95
196.069	-30.41
196.29	-19.81
196.51	0.5
196.731	12.37
196.951	5.85
197.172	-40.78
197.392	1.28
197.613	-17.11
197.833	-9.54
198.054	3.46
198.274	22.4
198.495	15.35
198.715	18.91
198.936	38.44
199.156	21.56
199.377	49.94
199.597	94.56
199.817	98.75
200.038	51.33
200.258	55
200.479	38.23
200.699	-13.54
200.919	13.11
201.14	31.54
201.36	37
201.58	34.67
201.801	41.45
202.021	52.46
202.241	58.56
202.461	53.64
202.682	45.68
202.902	60.63
203.122	28.3
203.342	31.04
203.563	34.54
203.783	31.36
204.003	-2.19
204.223	-25.8
204.443	-0.11
204.663	16.48
204.884	31.75
205.104	42.05
205.324	44.54
205.544	56.3
205.764	30.32
205.984	46.59
206.204	44.44
206.424	46.37
206.644	35.8
206.864	45.89
207.084	23.95
207.304	57.32
207.525	46.02
207.745	20.55
207.964	46.98
208.184	25.8
208.404	-11.04
208.624	11.03
208.844	5.86
209.064	-16.68
209.284	-0.36
209.504	4.92
209.724	36.62
209.944	54.56
210.164	60.48
210.384	58.58
210.604	61.7
210.823	23.22
211.043	2.83
211.263	21.77
211.483	9.88
211.703	-5.02
211.922	23.69
212.142	44.66
212.362	34.32
212.582	31.32
212.801	52.95
213.021	22.85
213.241	3.12
213.461	-3.2
213.68	-26.93
213.9	-47.51
214.12	-7.52
214.339	-6.21
214.559	-3.47
214.779	13.92
214.998	18.58
215.218	-29.39
215.438	-1.66
215.657	6.84
215.877	12.03
216.096	-4.83
216.316	21.56
216.535	-10.38
216.755	-51.75
216.974	-60.17
217.194	-52.79
217.413	-51.92
217.633	-11.23
217.852	-13.01
218.072	-7.14
218.291	-3.54
218.511	21.99
218.73	18.25
218.95	14.35
219.169	20.82
219.389	31.4
219.608	25.77
219.827	17.14
220.047	24.75
220.266	5.91
220.485	8.74
220.705	9.07
220.924	-2.14
221.143	-0.9
221.363	-12.52
221.582	-29.1
221.801	-81.02
222.021	-59.12
222.24	-51.55
222.459	-8.13
222.678	12.01
222.897	12.82
223.117	29.79
223.336	58.98
223.555	54.31
223.774	76.82
223.993	60.9
224.213	52.62
224.432	43.42
224.651	52.34
224.87	35.65
225.089	46.97
225.308	49.62
225.527	63.76
225.746	37.44
225.965	52.71
226.184	41.11
226.404	22.77
226.623	17.87
226.842	27.34
227.061	31.46
227.28	55.82
227.499	79.26
227.718	74.11
227.936	46.3
228.155	42.42
228.374	-12.79
228.593	9.44
228.812	8.18
229.031	19.39
229.25	0.95
229.469	23.99
229.688	12.63
229.907	33.44
230.125	32.96
230.344	42.2
230.563	30.04
230.782	31.04
231.001	-17.59
231.22	-12.05
231.438	1.48
231.657	8.94
231.876	16.49
232.095	15.39
232.313	14.88
232.532	4
232.751	2.26
232.969	7.5
233.188	17.04
233.407	5.96
233.625	19.36
233.844	26.24
234.063	20.67
234.281	-5.26
234.5	-1.31
234.719	17.94
234.937	-5.71
235.156	-21.85
235.374	26.82
235.593	28
235.811	-2.02
236.03	17.2
236.249	18.15
236.467	18.79
236.686	22.12
236.904	8.24
237.123	13.07
237.341	-9.3
237.559	-8.71
237.778	-14.4
237.996	27.01
238.215	39.31
238.433	55.8
238.652	55.12
238.87	49.37
239.088	46.45
239.307	29.22
239.525	22.28
239.743	19.4
239.962	23.77
240.18	21.9
240.398	26.23
240.617	23.43
240.835	2.83
241.053	17.48
241.271	12.61
241.49	7.27
241.708	20.77
241.926	32.05
242.144	10.59
242.363	9.17
242.581	2.96
242.799	-9.05
243.017	-9.66
243.235	-18.26
243.453	-3.23
243.672	0.86
243.89	-5.78
244.108	13.6
244.326	37.65
244.544	8.87
244.762	23.98
244.98	37.42
245.198	32.32
245.416	33.07
245.634	58.53
245.852	38.38
246.07	56.85
246.288	44.11
246.506	39.69
246.724	33.11
246.942	33.77
247.16	30.45
247.378	25.8
247.596	34.59
247.814	34.84
248.032	31.58
248.25	17.51
248.468	27.97
248.685	11.38
248.903	12.4
249.121	9.9
249.339	-10.39
249.557	-10.89
249.775	-3.61
249.992	-12.28
250.21	-1.3
250.428	40.95
250.646	44.53
250.863	47.19
251.081	40.43
251.299	52.59
251.517	31.23
251.734	32.14
251.952	15.91
252.17	27.79
252.387	15.54
252.605	25.58
252.823	32.74
253.04	49.68
253.258	58.23
253.475	49.78
253.693	40.55
253.911	43.7
254.128	47.9
254.346	33.29
254.563	39.34
254.781	27.6
254.998	37.58
255.216	2.62
255.433	14.39
255.651	11.36
255.868	8.48
256.086	-1.4
256.303	18.3
256.521	19.15
256.738	13.2
256.956	27.72
257.173	33.79
257.39	34.35
257.608	22.29
257.825	43.53
258.043	21.91
258.26	11.96
258.477	-4.77
258.695	-12.57
258.912	-37.37
259.129	-25.92
259.346	-34.44
259.564	-58.24
259.781	-23.94
259.998	-5.15
260.216	17.8
260.433	29.39
260.65	27.22
260.867	29.57
261.084	28.1
261.302	-5.41
261.519	-21.38
261.736	-5.89
261.953	-8.89
262.17	4.41
262.387	17.47
262.604	1.53
262.822	4.98
263.039	2.89
263.256	-17.25
263.473	-11.29
263.69	-18
263.907	-1.41
264.124	8.98
264.341	15.39
264.558	-10.87
264.775	14.77
264.992	19.07
265.209	-7.85
265.426	-11.62
265.643	6.25
265.86	-1.69
266.077	-9.78
266.294	8.28
266.51	2.87
266.727	22.37
266.944	39.21
267.161	-1.96
267.378	-6.27
267.595	15
267.812	-14.72
268.028	-50.42
268.245	9.57
268.462	-0.54
268.679	-6.74
268.896	-10.38
269.112	-2.31
269.329	-8.93
269.546	0.09
269.763	-5.63
269.979	-1.1
270.196	4.02
270.413	7.85
270.629	13.67
270.846	21.52
271.063	15.99
271.279	26.09
271.496	6.59
271.712	-3.32
271.929	-5.21
272.146	16.94
272.362	10.31
272.579	40.18
272.795	67.1
273.012	57.13
273.228	38.19
273.445	46.64
273.661	44.23
273.878	6.47
274.094	12.85
274.311	7.95
274.527	1.05
274.744	2.85
274.96	22.52
275.177	17.21
275.393	30.34
275.609	28.52
275.826	21.68
276.042	11.36
276.259	-7.95
276.475	-2.49
276.691	11.77
276.908	25.65
277.124	21.86
277.34	42.68
277.557	31.63
277.773	27.82
277.989	12.86
278.205	25.66
278.422	18.14
278.638	11.88
278.854	27.25
279.07	50.23
279.286	36.44
279.503	45.22
279.719	62.64
279.935	60.2
280.151	24.8
280.367	36.39
280.583	38.57
280.799	16.91
281.016	35.64
281.232	44.02
281.448	41.97
281.664	47.29
281.88	31.66
282.096	17.87
282.312	24.09
282.528	39.3
282.744	42.18
282.96	48.59
283.176	28.65
283.392	25.95
283.608	9.81
283.824	-5.34
284.04	2.45
284.256	12.32
284.471	15.83
284.687	23.45
284.903	34.75
285.119	32.89
285.335	28.14
285.551	29.02
285.767	34.34
285.982	26.56
286.198	20.64
286.414	18.45
286.63	22.49
286.846	18.07
287.061	14.17
287.277	23.26
287.493	27.82
287.709	12.49
287.924	25.07
288.14	32.23
288.356	33.35
288.571	23.24
288.787	23.81
289.003	14.35
289.218	-1.05
289.434	11.63
289.65	42.26
289.865	48.16
290.081	29.26
290.296	45
290.512	15.54
290.727	-3.27
290.943	8.83
291.159	13.02
291.374	26.06
291.59	29.33
291.805	24.68
292.021	16.7
292.236	24.47
292.451	-7.64
292.667	12.22
292.882	-7.08
293.098	3.54
293.313	1.28
293.529	17.67
293.744	-4.29
293.959	18.6
294.175	30.89
294.39	34.1
294.605	39.26
294.821	47.48
295.036	49.58
295.251	47.23
295.467	53
295.682	49.68
295.897	46.75
296.112	29.98
296.328	12.3
296.543	-9.16
296.758	-26.55
296.973	-26.46
297.188	-17.16
297.404	-11.4
297.619	-5.06
297.834	1.99
298.049	7.53
298.264	11.34
298.479	4.88
298.694	8.36
298.909	10.39
299.125	4.68
299.34	16.71
299.555	31.25
299.77	33.45
299.985	16.07
300.2	13.88
300.415	-10.11
300.63	15.18
300.845	-1.65
301.06	3.74
301.275	-5.45
301.49	-18.16
301.704	-56.45
301.919	-17.8
302.134	1.24
302.349	13.75
302.564	22.38
302.779	12.49
302.994	11.08
303.209	4.9
303.423	15.43
303.638	19.12
303.853	29.76
304.068	53.73
304.283	43.31
304.497	28.54
304.712	9.76
304.927	5.17
305.142	-40.4
305.356	-38.28
305.571	-22.73
305.786	10.57
306	3.57
306.215	27.04
306.43	20.12
306.644	17.07
306.859	43.14
307.074	23.55
307.288	8.59
307.503	17.22
307.717	18.82
307.932	-9.76
308.147	-8.23
308.361	0.13
308.576	-6.69
308.79	-9.22
309.005	29.26
309.219	41.92
309.434	50.05
309.648	41.86
309.863	31.84
310.077	18.09
310.292	14.79
310.506	6.12
310.72	18.28
310.935	16.15
311.149	9.46
311.364	13.29
311.578	7.55
311.792	-13.15
312.007	-15.25
312.221	-28.98
312.435	-31.63
312.649	-32.59
312.864	-210.95
313.078	-118.26
313.292	-76.81
313.507	-34.22
313.721	-19.81
313.935	26.09
314.149	27.21
314.363	29.07
314.578	16.26
314.792	27.99
315.006	21.79
315.22	15.69
315.434	13.83
315.648	11.95
315.862	8.11
316.077	7.72
316.291	3.62
316.505	18.35
316.719	33.24
316.933	28.77
317.147	29.19
317.361	23.49
317.575	-10.27
317.789	-34.75
318.003	-20.73
318.217	4.13
318.431	2.33
318.645	6.22
318.859	21.83
319.073	10.37
319.287	-20.36
319.5	-18.95
319.714	-1.89
319.928	-10.6
320.142	17.12
320.356	33.15
320.57	41.11
320.784	30.22
320.997	31.6
321.211	23.29
321.425	20.02
321.639	10.24
321.853	27.95
322.066	10.14
322.28	7.76
322.494	4.11
322.707	15.83
322.921	-6.04
323.135	-8.97
323.349	-11.7
323.562	-23.88
323.776	-25.44
323.989	-15.92
324.203	3.59
324.417	0.11
324.63	8.1
324.844	10.98
325.057	15.88
325.271	9.77
325.485	17.74
325.698	21.17
325.912	13.65
326.125	4.93
326.339	12.29
326.552	19.33
326.766	27.11
326.979	51.6
327.193	57.39
327.406	50.34
327.619	28.77
327.833	20.89
328.046	-2.86
328.26	14.01
328.473	7.78
328.686	7.03
328.9	8.72
329.113	-2.7
329.326	-19.4
329.54	-22.87
329.753	-24.28
329.966	-4.89
330.179	8.48
330.393	7.36
330.606	22.3
330.819	48.53
331.032	32.61
331.246	35.21
331.459	27.2
331.672	15.14
331.885	7.98
332.098	29.46
332.311	49.65
332.525	45.94
332.738	35.46
332.951	17.62
333.164	10.23
333.377	-25.43
333.59	-12.68
333.803	8.24
334.016	17.52
334.229	0.55
334.442	13.68
334.655	11.86
334.868	-2.35
335.081	16.99
335.294	28
335.507	32.89
335.72	33.47
335.933	22.73
336.146	9.09
336.359	9.41
336.572	-5.48
336.785	-2.76
336.997	11.28
337.21	16.24
337.423	26.77
337.636	34.13
337.849	29.69
338.062	25.77
338.274	19.75
338.487	13.9
338.7	-5.76
338.913	-8.52
339.125	13.15
339.338	8.65
339.551	10.83
339.763	-0.29
339.976	-6.29
340.189	-10.77
340.402	-1.09
340.614	-6.35
340.827	24.06
341.039	29.12
341.252	17.78
341.465	13.64
341.677	26.79
341.89	19.9
342.102	11.27
342.315	22.08
342.527	13.34
342.74	-4.64
342.952	11.74
343.165	29.65
343.377	14.01
343.59	17.82
343.802	20.16
344.015	6.58
344.227	-12.23
344.44	-3.34
344.652	2.13
344.864	-19.84
345.077	10.29
345.289	7.37
345.502	-0.3
345.714	-12.5
345.926	6.75
346.139	-29.96
346.351	-13.8
346.563	3.95
346.775	9.51
346.988	5.44
347.2	14.92
347.412	-2.6
347.624	-0.05
347.837	0.88
348.049	-3.79
348.261	6.31
348.473	21.76
348.685	13.86
348.897	21.32
349.11	26.95
349.322	14.57
349.534	19.83
349.746	24.25
349.958	12.63
350.17	9.22
350.382	24.76
350.594	7.5
350.806	31.36
351.018	26.52
351.23	39.19
351.442	13.91
351.654	30.01
351.866	-8.18
352.078	6.04
352.29	-5.71
352.502	14.15
352.714	6.96
352.926	16.22
353.138	14.9
353.35	21.08
353.561	-2.3
353.773	14.33
353.985	18.72
354.197	22.21
354.409	15.46
354.621	16.5
354.832	-4.56
355.044	1.63
355.256	15.35
355.468	8.85
355.679	32.29
355.891	40.74
356.103	35.84
356.314	27.01
356.526	31.86
356.738	22.82
356.949	15.76
357.161	15.21
357.373	20.41
357.584	16.44
357.796	22.44
358.008	16.76
358.219	16.82
358.431	12.76
358.642	13.82
358.854	17.07
359.065	22.67
359.277	20.75
359.488	18.59
359.7	24.75
359.911	17.01
360.123	12.56
360.334	23.88
360.546	26.16
360.757	16.33
360.969	29.5
361.18	37.6
361.391	20.22
361.603	16.29
361.814	23.2
362.025	1.45
362.237	6.49
362.448	12.34
362.659	2.08
362.871	0.09
363.082	11.12
363.293	1.8
363.504	-0.4
363.716	5.8
363.927	6.65
364.138	-1.16
364.349	3.26
364.56	7.67
364.772	1.19
364.983	11.95
365.194	12.09
365.405	17.46
365.616	9.64
365.827	18.64
366.038	7.81
366.25	-6.94
366.461	-28.41
366.672	-31.21
366.883	-23.2
367.094	-32.4
367.305	4.47
367.516	16.8
367.727	20.15
367.938	7.32
368.149	25.78
368.36	29.47
368.571	28.92
368.781	19.27
368.992	13.74
369.203	3.59
369.414	-10.9
369.625	-4.4
369.836	5.28
370.047	8.43
370.258	8.43
370.468	5.24
370.679	-18.28
370.89	-41.77
371.101	-28.24
371.312	-31.96
371.522	-19.75
371.733	-4.06
371.944	3.3
372.155	-18.7
372.365	-25.12
372.576	-25.63
372.787	-22.5
372.997	-10.21
373.208	7.75
373.419	7.89
373.629	17.5
373.84	31.13
374.05	17.19
374.261	22.77
374.472	33.59
374.682	16.42
374.893	11.6
375.103	33.42
375.314	24.14
375.524	19.3
375.735	28.3
375.945	27.72
376.156	15.11
376.366	2.05
376.577	4.53
376.787	1.67
376.997	7.3
377.208	0.79
377.418	14.71
377.629	11.37
377.839	20.41
378.049	9.96
378.26	27.47
378.47	32.68
378.68	31.74
378.89	24.45
379.101	28
379.311	11.98
379.521	3.82
379.732	-5.56
379.942	-8.55
380.152	-11.5
380.362	-5.24
380.572	-4.71
380.783	0.54
380.993	2.58
381.203	-0.62
381.413	-14.34
381.623	-13.34
381.833	10.42
382.043	17.42
382.253	25.64
382.463	33.61
382.674	37.52
382.884	25.47
383.094	9.92
383.304	6.85
383.514	-1.43
383.724	3.28
383.934	-0.09
384.144	7.02
384.353	11.39
384.563	19.52
384.773	14.09
384.983	13.38
385.193	13.99
385.403	0.75
385.613	1.28
385.823	-2.01
386.033	-2.53
386.242	-2.43
386.452	1.13
386.662	-2.15
386.872	-2.11
387.082	-1.44
387.291	-8.16
387.501	-4.98
387.711	-4.17
387.921	-2.54
388.13	-3.39
388.34	4.4
388.55	5.5
388.759	4.07
388.969	7.01
389.179	5.55
389.388	6.15
389.598	8.24
389.807	9.65
390.017	9.24
390.227	12.64
390.436	11.32
390.646	9.76
390.855	10.35
391.065	8.09
391.274	7.1
391.484	4.89
391.693	3.88
391.903	3.76
392.112	5.45
392.322	4.52
392.531	4.02
392.74	3.79
392.95	3.69
393.159	3.99
393.369	4.87
393.578	6.28
393.787	6.59
393.997	5.63
394.206	5.7
394.415	6.74
394.625	6.43
394.834	5.91
395.043	5.87
395.252	7.38
395.462	7.07
395.671	7.15
395.88	8.39
396.089	8.6
396.298	7.38
396.508	7.33
396.717	7.02
396.926	6.68
397.135	6.34
397.344	6.46
397.553	6.1
397.762	6.35
397.971	6.18
398.181	6.58
398.39	6.11
398.599	6.39
398.808	6.42
399.017	7.21
399.226	7.23
399.435	7.61
399.644	7.78
399.853	7.99
400.062	7.87
400.27	8.08
400.479	7.84
400.688	7.74
400.897	7.76
401.106	7.53
401.315	6.89
401.524	7.2
401.733	7.12
401.941	7.11
402.15	7.18
402.359	7.35
402.568	6.97
402.777	6.82
402.985	6.75
403.194	6.6
403.403	6.59
403.612	6.65
403.82	6.63
404.029	6.56
404.238	6.44
404.446	6.71
404.655	6.65
404.864	6.67
405.072	6.45
405.281	6.51
405.489	6.26
405.698	6.22
405.906	6.3
406.115	6.39
406.324	6.22
406.532	6.23
406.741	6.2
406.949	6.12
407.158	6.12
407.366	6.19
407.574	5.99
407.783	6.09
407.991	5.94
408.2	6.03
408.408	5.85
408.617	6.03
408.825	6.03
409.033	6.25
409.242	6.29
409.45	6.44
409.658	6.42
409.867	6.35
410.075	6.14
410.283	6.06
410.491	6.02
410.7	6.05
410.908	6.14
411.116	6.26
411.324	6.24
411.533	6.29
411.741	6.39
411.949	6.35
412.157	6.25
412.365	6.17
412.573	6.14
412.781	6.02
412.99	5.99
413.198	6.03
413.406	6.06
413.614	6.05
413.822	5.89
414.03	5.84
414.238	5.81
414.446	5.85
414.654	5.83
414.862	6.05
415.07	5.85
415.278	5.81
415.486	5.72
415.694	5.74
415.902	5.68
416.109	5.85
416.317	5.92
416.525	5.88
416.733	5.97
416.941	5.88
417.149	5.8
417.357	5.58
417.564	5.61
417.772	5.41
417.98	5.45
418.188	5.37
418.395	5.35
418.603	5.23
418.811	5.28
419.019	5.24
419.226	5.61
419.434	5.67
419.642	5.66
419.849	5.59
420.057	5.45
420.265	5.13
420.472	5.1
420.68	5.24
420.887	5.24
421.095	5.44
421.302	5.48
421.51	5.6
421.717	5.59
421.925	5.76
422.132	5.77
422.34	5.56
422.547	5.35
422.755	5.42
422.962	5.25
423.17	5.02
423.377	5.3
423.585	5.52
423.792	5.33
423.999	5.36
424.207	5.45
424.414	5.26
424.621	5.24
424.829	5.37
425.036	5.18
425.243	5.25
425.451	5.25
425.658	5.3
425.865	5.03
426.072	5.19
426.28	5.26
426.487	5.3
426.694	5.23
426.901	5.16
427.108	5.11
427.315	4.97
427.523	5.05
427.73	4.93
427.937	5.15
428.144	5.19
428.351	5.13
428.558	5.25
428.765	5.42
428.972	5.54
429.179	5.61
429.386	5.6
429.593	5.42
429.8	5.41
430.007	5.43
430.214	5.52
430.421	5.71
430.628	5.67
430.835	5.67
431.042	5.4
431.249	5.43
431.456	5.28
431.662	5.59
431.869	5.6
432.076	5.84
432.283	5.81
432.49	5.91
432.697	5.93
432.903	5.82
433.11	5.78
433.317	5.72
433.524	5.73
433.73	5.51
433.937	5.73
434.144	5.59
434.35	5.76
434.557	5.7
434.764	5.78
434.97	5.7
435.177	5.96
435.384	5.77
435.59	5.78
435.797	5.72
436.003	5.66
436.21	5.49
436.416	5.52
436.623	5.65
436.829	5.74
437.036	5.8
437.242	5.96
437.449	6.03
437.655	6.09
437.862	6.21
438.068	6.14
438.275	6.07
438.481	6.04
438.687	5.91
438.894	5.91
439.1	6.01
439.307	6.07
439.513	6.09
439.719	6.04
439.926	5.88
440.132	5.95
440.338	5.98
440.544	5.93
440.751	6.04
440.957	6.18
441.163	6.08
441.369	6.08
441.575	6.08
441.782	6.05
441.988	6.03
442.194	6.13
442.4	6.16
442.606	6.38
442.812	6.38
443.018	6.46
443.224	6.49
443.431	6.38
443.637	6.33
443.843	6.37
444.049	6.39
444.255	6.23
444.461	6.32
444.667	6.23
444.873	6.11
445.079	6.07
445.284	6.16
445.49	6.1
445.696	6.18
445.902	6.28
446.108	6.17
446.314	6.25
446.52	6.39
446.726	6.25
446.931	6.4
447.137	6.44
447.343	6.42
447.549	6.38
447.755	6.46
447.96	6.42
448.166	6.54
448.372	6.5
448.578	6.53
448.783	6.56
448.989	6.61
449.195	6.54
449.4	6.66
449.606	6.61
449.812	6.65
450.017	6.55
450.223	6.59
450.428	6.5
450.634	6.64
450.84	6.71
451.045	6.74
451.251	6.84
451.456	6.98
451.662	6.95
451.867	6.92
452.073	6.98
452.278	6.89
452.483	6.93
452.689	7.01
452.894	6.85
453.1	6.84
453.305	6.93
453.51	6.84
453.716	6.68
453.921	6.89
454.127	6.91
454.332	6.76
454.537	6.69
454.742	6.74
454.948	6.57
455.153	6.57
455.358	6.73
455.563	6.82
455.769	6.82
455.974	6.99
456.179	6.94
456.384	6.9
456.589	7
456.795	7.08
457	7.07
457.205	7.25
457.41	7.26
457.615	7.07
457.82	7.11
458.025	7.07
458.23	6.99
458.435	6.96
458.64	7.07
458.845	7.03
459.05	7.07
459.255	7.1
459.46	7.24
459.665	7.37
459.87	7.34
460.075	7.43
460.28	7.29
460.485	7.24
460.69	7.16
460.895	7.19
461.099	7.17
461.304	7.29
461.509	7.28
461.714	7.24
461.919	7.25
462.123	7.21
462.328	7.25
462.533	7.3
462.738	7.35
462.942	7.35
463.147	7.5
463.352	7.5
463.556	7.56
463.761	7.56
463.966	7.61
464.17	7.55
464.375	7.52
464.58	7.44
464.784	7.5
464.989	7.45
465.193	7.53
465.398	7.7
465.602	7.84
465.807	7.82
466.011	7.96
466.216	7.91
466.42	7.81
466.625	7.86
466.829	7.87
467.034	7.85
467.238	7.87
467.443	7.91
467.647	7.8
467.851	7.89
468.056	7.82
468.26	7.78
468.464	7.81
468.669	7.97
468.873	7.94
469.077	7.99
469.282	8.02
469.486	7.98
469.69	7.97
469.894	8.02
470.099	8.05
470.303	8.15
470.507	8.18
470.711	8.11
470.915	8.12
471.119	8.04
471.324	7.99
471.528	8
471.732	8.06
471.936	8.1
472.14	8.21
472.344	8.22
472.548	8.34
472.752	8.43
472.956	8.36
473.16	8.37
473.364	8.47
473.568	8.37
473.772	8.3
473.976	8.34
474.18	8.41
474.384	8.35
474.588	8.4
474.792	8.35
474.995	8.41
475.199	8.33
475.403	8.28
475.607	8.32
475.811	8.42
476.015	8.41
476.218	8.44
476.422	8.46
476.626	8.42
476.83	8.36
477.033	8.42
477.237	8.33
477.441	8.41
477.644	8.46
477.848	8.46
478.052	8.38
478.255	8.46
478.459	8.46
478.663	8.42
478.866	8.49
479.07	8.5
479.273	8.57
479.477	8.53
479.681	8.62
479.884	8.56
480.088	8.5
480.291	8.51
480.495	8.58
480.698	8.55
480.901	8.55
481.105	8.68
481.308	8.66
481.512	8.63
481.715	8.59
481.919	8.7
482.122	8.71
482.325	8.73
482.529	8.76
482.732	8.84
482.935	8.71
483.138	8.61
483.342	8.63
483.545	8.68
483.748	8.69
483.952	8.77
484.155	8.82
484.358	8.8
484.561	8.78
484.764	8.64
484.967	8.66
485.171	8.66
485.374	8.66
485.577	8.66
485.78	8.69
485.983	8.73
486.186	8.67
486.389	8.66
486.592	8.58
486.795	8.6
486.998	8.54
487.201	8.74
487.404	8.86
487.607	8.94
487.81	8.91
488.013	8.96
488.216	8.81
488.419	8.79
488.622	8.75
488.825	8.8
489.028	8.7
489.231	8.81
489.433	8.69
489.636	8.63
489.839	8.64
490.042	8.69
490.245	8.58
490.447	8.62
490.65	8.67
490.853	8.61
491.056	8.6
491.258	8.58
491.461	8.58
491.664	8.59
491.866	8.63
492.069	8.65
492.272	8.64
492.474	8.61
492.677	8.49
492.879	8.48
493.082	8.5
493.285	8.55
493.487	8.53
493.69	8.61
493.892	8.57
494.095	8.56
494.297	8.53
494.5	8.54
494.702	8.59
494.905	8.66
495.107	8.6
495.309	8.7
495.512	8.75
495.714	8.73
495.917	8.71
496.119	8.76
496.321	8.68
496.524	8.69
496.726	8.56
496.928	8.61
497.13	8.57
497.333	8.54
497.535	8.5
497.737	8.56
497.939	8.53
498.142	8.56
498.344	8.57
498.546	8.53
498.748	8.64
498.95	8.6
499.152	8.57
499.355	8.68
499.557	8.72
499.759	8.65
499.961	8.67
500.163	8.66
500.365	8.63
500.567	8.61
500.769	8.57
500.971	8.57
501.173	8.6
501.375	8.58
501.577	8.58
501.779	8.65
501.981	8.67
502.183	8.63
502.385	8.55
502.587	8.52
502.788	8.51
502.99	8.52
503.192	8.56
503.394	8.55
503.596	8.62
503.798	8.61
503.999	8.66
504.201	8.69
504.403	8.68
504.605	8.7
504.806	8.74
505.008	8.69
505.21	8.73
505.411	8.82
505.613	8.81
505.815	8.82
506.016	8.82
506.218	8.76
506.42	8.73
506.621	8.75
506.823	8.72
507.024	8.69
507.226	8.74
507.427	8.72
507.629	8.77
507.83	8.76
508.032	8.78
508.233	8.74
508.435	8.71
508.636	8.7
508.838	8.69
509.039	8.7
509.24	8.74
509.442	8.75
509.643	8.68
509.845	8.72
510.046	8.73
510.247	8.72
510.448	8.78
510.65	8.86
510.851	8.88
511.052	8.93
511.254	8.89
511.455	8.92
511.656	8.83
511.857	8.79
512.058	8.77
512.26	8.86
512.461	8.79
512.662	8.81
512.863	8.77
513.064	8.72
513.265	8.68
513.466	8.69
513.667	8.73
513.868	8.76
514.069	8.8
514.27	8.74
514.471	8.78
514.672	8.78
514.873	8.78
515.074	8.74
515.275	8.8
515.476	8.8
515.677	8.82
515.878	8.91
516.079	8.92
516.28	8.92
516.481	8.96
516.682	8.97
516.882	8.86
517.083	8.89
517.284	8.82
517.485	8.79
517.686	8.75
517.886	8.85
518.087	8.79
518.288	8.8
518.488	8.75
518.689	8.74
518.89	8.62
519.091	8.67
519.291	8.64
519.492	8.67
519.692	8.67
519.893	8.8
520.094	8.78
520.294	8.91
520.495	8.89
520.695	8.91
520.896	8.8
521.096	8.82
521.297	8.79
521.497	8.82
521.698	8.77
521.898	8.88
522.099	8.82
522.299	8.83
522.499	8.9
522.7	8.95
522.9	8.89
523.101	8.97
523.301	8.95
523.501	8.92
523.702	8.97
523.902	9.02
524.102	9.04
524.302	9.07
524.503	9.09
524.703	9.06
524.903	9.05
525.103	9.01
525.304	9.01
525.504	8.97
525.704	8.95
525.904	8.95
526.104	8.99
526.304	8.98
526.504	8.99
526.705	9.01
526.905	9.02
527.105	8.98
527.305	9.01
527.505	9.02
527.705	9.08
527.905	9.11
528.105	9.09
528.305	9.04
528.505	9.04
528.705	9.01
528.905	8.99
529.105	9.04
529.304	9.15
529.504	9.18
529.704	9.11
529.904	9.11
530.104	9.15
530.304	9.11
530.503	9.13
530.703	9.17
530.903	9.22
531.103	9.15
531.303	9.16
531.502	9.17
531.702	9.2
531.902	9.11
532.101	9.15
532.301	9.19
532.501	9.18
532.7	9.19
532.9	9.25
533.1	9.3
533.299	9.24
533.499	9.28
533.698	9.28
533.898	9.3
534.097	9.19
534.297	9.22
534.496	9.15
534.696	9.16
534.895	9.22
535.095	9.31
535.294	9.35
535.494	9.36
535.693	9.32
535.892	9.28
536.092	9.27
536.291	9.24
536.491	9.32
536.69	9.33
536.889	9.3
537.088	9.26
537.288	9.35
537.487	9.35
537.686	9.35
537.886	9.38
538.085	9.47
538.284	9.44
538.483	9.4
538.682	9.44
538.882	9.54
539.081	9.58
539.28	9.57
539.479	9.52
539.678	9.57
539.877	9.53
540.076	9.5
540.275	9.59
540.474	9.69
540.673	9.69
540.872	9.68
541.071	9.67
541.27	9.66
541.469	9.73
541.668	9.75
541.867	9.8
542.066	9.87
542.265	9.88
542.464	9.86
542.663	9.9
542.862	10.05
543.06	10.13
543.259	10.22
543.458	10.26
543.657	10.3
543.856	10.23
544.054	10.2
544.253	10.17
544.452	10.22
544.651	10.22
544.849	10.23
545.048	10.2
545.247	10.22
545.445	10.21
545.644	10.25
545.843	10.28
546.041	10.36
546.24	10.36
546.438	10.42
546.637	10.38
546.836	10.45
547.034	10.41
547.233	10.55
547.431	10.61
547.63	10.62
547.828	10.61
548.027	10.61
548.225	10.52
548.423	10.5
548.622	10.58
548.82	10.62
549.019	10.71
549.217	10.76
549.415	10.82
549.614	10.96
549.812	10.98
550.01	11.02
550.209	11.08
550.407	11.16
550.605	11.03
550.803	11.06
551.002	11.16
551.2	11.23
551.398	11.21
551.596	11.29
551.794	11.37
551.993	11.38
552.191	11.42
552.389	11.46
552.587	11.5
552.785	11.53
552.983	11.6
553.181	11.66
553.379	11.83
553.577	11.9
553.775	12.01
553.973	12.01
554.171	12.04
554.369	12.02
554.567	12.08
554.765	12.03
554.963	12.11
555.161	12.13
555.359	12.18
555.557	12.26
555.755	12.42
555.952	12.53
556.15	12.59
556.348	12.63
556.546	12.73
556.744	12.75
556.941	12.8
557.139	12.87
557.337	12.96
557.535	12.92
557.732	13
557.93	13.03
558.128	13.08
558.325	13.11
558.523	13.26
558.721	13.29
558.918	13.31
559.116	13.4
559.313	13.49
559.511	13.51
559.708	13.54
559.906	13.72
560.104	13.76
560.301	13.85
560.498	13.92
560.696	14.08
560.893	14.12
561.091	14.25
561.288	14.35
561.486	14.42
561.683	14.45
561.88	14.53
562.078	14.57
562.275	14.61
562.473	14.7
562.67	14.83
562.867	14.88
563.064	14.96
563.262	15.03
563.459	15.08
563.656	15.12
563.853	15.25
564.051	15.35
564.248	15.42
564.445	15.53
564.642	15.5
564.839	15.57
565.036	15.58
565.234	15.71
565.431	15.79
565.628	15.99
565.825	15.98
566.022	16.1
566.219	16.08
566.416	16.1
566.613	16.08
566.81	16.12
567.007	16.09
567.204	16.15
567.401	16.21
567.598	16.35
567.795	16.33
567.991	16.44
568.188	16.54
568.385	16.6
568.582	16.57
568.779	16.74
568.976	16.79
569.172	16.86
569.369	16.95
569.566	17.06
569.763	17.14
569.96	17.15
570.156	17.16
570.353	17.12
570.55	17.1
570.746	17.09
570.943	17.12
571.14	17.13
571.336	17.15
571.533	17.15
571.729	17.24
571.926	17.34
572.123	17.39
572.319	17.58
572.516	17.74
572.712	17.71
572.909	17.68
573.105	17.74
573.302	17.69
573.498	17.61
573.695	17.65
573.891	17.65
574.087	17.64
574.284	17.66
574.48	17.76
574.677	17.83
574.873	17.81
575.069	17.84
575.266	17.85
575.462	17.75
575.658	17.78
575.854	17.98
576.051	18
576.247	18.05
576.443	18.16
576.639	18.13
576.835	18.07
577.032	18.03
577.228	18.09
577.424	18.12
577.62	18.08
577.816	17.97
578.012	17.96
578.208	17.81
578.404	17.74
578.6	17.76
578.796	17.79
578.993	17.85
579.189	17.86
579.384	17.77
579.58	17.69
579.776	17.7
579.972	17.74
580.168	17.68
580.364	17.76
580.56	17.81
580.756	17.75
580.952	17.51
581.148	17.56
581.343	17.55
581.539	17.53
581.735	17.56
581.931	17.7
582.127	17.76
582.322	17.7
582.518	17.69
582.714	17.62
582.909	17.51
583.105	17.43
583.301	17.48
583.496	17.44
583.692	17.51
583.888	17.64
584.083	17.7
584.279	17.75
584.474	17.82
584.67	17.75
584.866	17.71
585.061	17.63
585.257	17.58
585.452	17.55
585.648	17.57
585.843	17.53
586.039	17.52
586.234	17.46
586.429	17.33
586.625	17.32
586.82	17.34
587.015	17.41
587.211	17.4
587.406	17.42
587.601	17.44
587.797	17.39
587.992	17.32
588.187	17.31
588.383	17.38
588.578	17.35
588.773	17.35
588.968	17.42
589.163	17.48
589.359	17.48
589.554	17.57
589.749	17.62
589.944	17.57
590.139	17.5
590.334	17.47
590.529	17.4
590.724	17.36
590.919	17.31
591.114	17.43
591.309	17.43
591.504	17.53
591.699	17.53
591.894	17.59
592.089	17.58
592.284	17.68
592.479	17.72
592.674	17.78
592.869	17.82
593.064	17.95
593.259	17.89
593.454	17.8
593.648	17.86
593.843	17.98
594.038	17.92
594.233	18
594.428	18.06
594.622	18.09
594.817	18
595.012	17.98
595.206	18.03
595.401	18.16
595.596	18.12
595.79	18.23
595.985	18.32
596.18	18.36
596.374	18.38
596.569	18.55
596.763	18.49
596.958	18.56
597.153	18.6
597.347	18.66
597.542	18.63
597.736	18.71
597.931	18.7
598.125	18.8
598.319	18.78
598.514	18.89
598.708	18.98
598.903	18.99
599.097	19.02
599.291	19.14
599.486	19.09
599.68	19.08
599.874	19.18
600.069	19.26
600.263	19.22
600.457	19.26
600.651	19.37
600.846	19.29
601.04	19.17
601.234	19.22
601.428	19.33
601.622	19.3
601.817	19.4
602.011	19.47
602.205	19.48
602.399	19.44
602.593	19.44
602.787	19.4
602.981	19.33
603.175	19.33
603.369	19.27
603.563	19.29
603.757	19.34
603.951	19.48
604.145	19.49
604.339	19.49
604.533	19.44
604.727	19.38
604.921	19.26
605.115	19.2
605.309	19.18
605.502	19.13
605.696	19.05
605.89	18.95
606.084	18.95
606.278	18.94
606.471	18.9
606.665	18.91
606.859	18.98
607.053	18.88
607.246	18.87
607.44	18.78
607.634	18.73
607.827	18.68
608.021	18.61
608.214	18.62
608.408	18.64
608.602	18.64
608.795	18.62
608.989	18.64
609.182	18.59
609.376	18.6
609.569	18.55
609.763	18.4
609.956	18.38
610.15	18.26
610.343	18.1
610.537	18.04
610.73	18.07
610.923	18
611.117	17.97
611.31	17.95
611.504	17.9
611.697	17.83
611.89	17.76
612.083	17.66
612.277	17.63
612.47	17.54
612.663	17.48
612.856	17.38
613.05	17.47
613.243	17.41
613.436	17.4
613.629	17.31
613.822	17.38
614.015	17.23
614.209	17.18
614.402	17.18
614.595	17.17
614.788	17.06
614.981	17.02
615.174	16.94
615.367	16.7
615.56	16.57
615.753	16.43
615.946	16.24
616.139	16.23
616.332	16.26
616.525	16.3
616.718	16.26
616.911	16.32
617.103	16.31
617.296	16.3
617.489	16.19
617.682	16.31
617.875	16.24
618.067	16.2
618.26	16.2
618.453	16.19
618.646	16.07
618.838	16.08
619.031	16.02
619.224	15.97
619.417	15.96
619.609	15.86
619.802	15.83
619.994	15.77
620.187	15.72
620.38	15.69
620.572	15.7
620.765	15.71
620.957	15.66
621.15	15.63
621.342	15.59
621.535	15.7
621.727	15.62
621.92	15.65
622.112	15.67
622.305	15.72
622.497	15.58
622.69	15.5
622.882	15.5
623.074	15.48
623.267	15.43
623.459	15.36
623.651	15.46
623.844	15.46
624.036	15.34
624.228	15.37
624.42	15.42
624.613	15.37
624.805	15.38
624.997	15.34
625.189	15.27
625.381	15.28
625.574	15.21
625.766	15.17
625.958	15.29
626.15	15.28
626.342	15.23
626.534	15.2
626.726	15.14
626.918	15.07
627.11	14.98
627.302	14.91
627.494	14.95
627.686	14.94
627.878	14.82
628.07	14.8
628.262	14.78
628.454	14.73
628.646	14.63
628.838	14.75
629.029	14.67
629.221	14.63
629.413	14.58
629.605	14.57
629.797	14.43
629.989	14.53
630.18	14.55
630.372	14.51
630.564	14.55
630.755	14.55
630.947	14.42
631.139	14.32
631.33	14.25
631.522	14.23
631.714	14.18
631.905	14.24
632.097	14.26
632.289	14.32
632.48	14.26
632.672	14.22
632.863	14.17
633.055	14.1
633.246	14.08
633.438	14.05
633.629	14.07
633.821	14.04
634.012	14.01
634.203	13.98
634.395	13.92
634.586	13.96
634.777	13.87
634.969	13.79
635.16	13.82
635.351	13.83
635.543	13.79
635.734	13.82
635.925	13.94
636.117	13.97
636.308	14.06
636.499	14.02
636.69	13.94
636.881	13.9
637.073	13.93
637.264	13.82
637.455	13.8
637.646	13.94
637.837	13.94
638.028	13.83
638.219	13.86
638.41	13.84
638.601	13.77
638.792	13.71
638.983	13.76
639.174	13.68
639.365	13.61
639.556	13.57
639.747	13.52
639.938	13.45
640.129	13.5
640.32	13.63
640.511	13.66
640.701	13.72
640.892	13.68
641.083	13.64
641.274	13.51
641.465	13.47
641.655	13.46
641.846	13.42
642.037	13.3
642.228	13.26
642.418	13.19
642.609	13.09
642.8	13.05
642.99	13.05
643.181	13.08
643.372	13.17
643.562	13.14
643.753	13.11
643.943	13.18
644.134	13.19
644.324	13.16
644.515	13.24
644.705	13.28
644.896	13.21
645.086	13.11
645.277	13.06
645.467	13.03
645.658	13.04
645.848	13.04
646.038	12.96
646.229	12.96
646.419	12.88
646.61	12.95
646.8	12.98
646.99	12.99
647.18	12.86
647.371	12.88
647.561	12.67
647.751	12.48
647.941	12.48
648.132	12.54
648.322	12.57
648.512	12.57
648.702	12.68
648.892	12.68
649.082	12.73
649.272	12.59
649.462	12.59
649.653	12.58
649.843	12.59
650.033	12.58
650.223	12.62
650.413	12.68
650.603	12.72
650.793	12.65
650.983	12.49
651.172	12.5
651.362	12.39
651.552	12.23
651.742	12.19
651.932	12.21
652.122	12.24
652.312	12.31
652.502	12.25
652.691	12.28
652.881	12.27
653.071	12.12
653.261	12.04
653.45	12.05
653.64	11.88
653.83	11.78
654.019	11.76
654.209	11.67
654.399	11.66
654.588	11.75
654.778	11.77
654.968	11.74
655.157	11.63
655.347	11.53
655.536	11.32
655.726	11.2
655.915	11.11
656.105	11.12
656.294	11.05
656.484	11.07
656.673	10.94
656.863	10.85
657.052	10.74
657.241	10.72
657.431	10.56
657.62	10.46
657.809	10.36
657.999	10.33
658.188	10.18
658.377	10.18
658.567	10.16
658.756	10.03
658.945	9.91
659.134	9.85
659.324	9.72
659.513	9.6
659.702	9.46
659.891	9.46
660.08	9.39
660.269	9.33
660.458	9.28
660.648	9.32
660.837	9.14
661.026	9.01
661.215	8.97
661.404	8.81
661.593	8.67
661.782	8.58
661.971	8.58
662.16	8.44
662.349	8.41
662.538	8.32
662.726	8.38
662.915	8.31
663.104	8.31
663.293	8.17
663.482	8.27
663.671	8.16
663.86	8.04
664.048	8.02
664.237	8.09
664.426	8.05
664.615	8.07
664.803	8.09
664.992	8.04
665.181	8.03
665.369	7.88
665.558	7.74
665.747	7.72
665.935	7.71
666.124	7.63
666.312	7.67
666.501	7.68
666.69	7.67
666.878	7.59
667.067	7.64
667.255	7.73
667.444	7.83
667.632	7.77
667.82	7.89
668.009	7.83
668.197	7.74
668.386	7.63
668.574	7.72
668.762	7.57
668.951	7.74
669.139	7.67
669.327	7.63
669.516	7.61
669.704	7.66
669.892	7.64
670.08	7.83
670.269	7.87
670.457	7.88
670.645	7.93
670.833	7.9
671.021	7.88
671.21	7.86
671.398	7.92
671.586	7.93
671.774	7.93
671.962	7.9
672.15	8.09
672.338	8.08
672.526	8.2
672.714	8.12
672.902	8.15
673.09	8.14
673.278	8.27
673.466	8.34
673.654	8.72
673.842	8.68
674.03	8.69
674.218	8.71
674.405	8.69
674.593	8.55
674.781	8.63
674.969	8.62
675.157	8.65
675.344	8.7
675.532	8.73
675.72	8.81
675.908	8.92
676.095	8.8
676.283	8.8
676.471	8.94
676.658	9.04
676.846	9.08
677.033	9.29
677.221	9.38
677.409	9.32
677.596	9.33
677.784	9.38
677.971	9.46
678.159	9.48
678.346	9.53
678.534	9.69
678.721	9.76
678.909	9.75
679.096	9.92
679.283	10.12
679.471	10.22
679.658	10.53
679.846	10.61
680.033	10.67
680.22	10.65
680.408	10.6
680.595	10.42
680.782	10.49
680.969	10.52
681.157	10.5
681.344	10.53
681.531	10.73
681.718	10.84
681.905	10.84
682.093	11.03
682.28	11.29
682.467	11.45
682.654	11.55
682.841	11.69
683.028	11.75
683.215	11.76
683.402	11.66
683.589	11.8
683.776	12
683.963	12.1
684.15	12.24
684.337	12.55
684.524	12.59
684.711	12.68
684.898	12.81
685.085	13.04
685.271	13.08
685.458	13.16
685.645	13.21
685.832	13.45
686.019	13.53
686.205	13.73
686.392	14.11
686.579	14.39
686.766	14.67
686.952	14.85
687.139	15.06
687.326	15.16
687.512	15.36
687.699	15.57
687.886	15.75
688.072	15.97
688.259	16.16
688.445	16.41
688.632	16.53
688.818	17.09
689.005	17.37
689.191	17.72
689.378	18.06
689.564	18.54
689.751	18.67
689.937	19.16
690.124	19.61
690.31	19.92
690.496	20.26
690.683	20.69
690.869	21.11
691.055	21.52
691.242	22.11
691.428	22.39
691.614	22.88
691.8	23.31
691.987	23.51
692.173	23.93
692.359	24.36
692.545	24.76
692.731	25.11
692.918	25.6
693.104	25.95
693.29	26.63
693.476	27.12
693.662	27.69
693.848	28.47
694.034	29.07
694.22	29.59
694.406	30.1
694.592	30.6
694.778	30.87
694.964	31.16
695.15	31.48
695.336	32.04
695.522	32.5
695.708	33.24
695.894	33.88
696.08	34.5
696.265	34.85
696.451	35.16
696.637	35.56
696.823	36.39
697.009	36.95
697.194	37.56
697.38	38.31
697.566	38.72
697.751	39.11
697.937	39.9
698.123	40.51
698.308	41.09
698.494	41.67
698.68	42.36
698.865	42.64
699.051	43.24
699.236	43.73
699.422	44.61
699.607	44.88
699.793	45.49
699.978	45.97
700.164	46.7
700.349	47.28
700.535	47.72
700.72	47.96
700.906	48.78
701.091	49.1
701.276	49.33
701.462	50.03
701.647	50.83
701.832	51.2
702.018	51.79
702.203	52.36
702.388	52.74
702.573	52.92
702.759	53.26
702.944	53.39
703.129	53.84
703.314	54.35
703.499	55.46
703.684	55.73
703.87	56.51
704.055	56.88
704.24	57.41
704.425	57.39
704.61	57.58
704.795	57.76
704.98	58.3
705.165	58.27
705.35	58.83
705.535	59.78
705.72	60.48
705.905	60.88
706.09	61.48
706.275	61.72
706.459	61.77
706.644	62.04
706.829	62.48
707.014	63.04
707.199	63.44
707.384	63.83
707.568	64.14
707.753	64.48
707.938	64.82
708.123	65.52
708.307	65.93
708.492	66.14
708.677	66.47
708.861	66.56
709.046	66.02
709.231	66.48
709.415	66.71
709.6	66.82
709.784	67.4
709.969	68.17
710.153	68.12
710.338	68.76
710.522	69.19
710.707	69.33
710.891	69.48
711.076	69.79
711.26	69.83
711.445	69.93
711.629	69.8
711.813	69.84
711.998	69.9
712.182	70.06
712.366	70.17
712.551	71.02
712.735	71.51
712.919	71.61
713.103	71.95
713.288	72.04
713.472	72.12
713.656	72.26
713.84	72.73
714.024	72.97
714.208	73.5
714.393	73.55
714.577	73.74
714.761	73.82
714.945	74.12
715.129	74.13
715.313	74.19
715.497	74.29
715.681	74.78
715.865	74.64
716.049	74.81
716.233	74.92
716.417	75.5
716.601	75.29
716.785	75.51
716.968	75.61
717.152	76.01
717.336	75.9
717.52	76.11
717.704	76.1
717.888	76.36
718.071	76.11
718.255	76.26
718.439	76.31
718.622	76.64
718.806	76.75
718.99	77.3
719.174	77.61
719.357	78.5
719.541	78.52
719.724	78.94
719.908	79.49
720.092	79.73
720.275	79.7
720.459	80.17
720.642	80.33
720.826	79.82
721.009	79.85
721.193	79.89
721.376	80.05
721.559	80.35
721.743	80.97
721.926	81.21
722.11	81.04
722.293	81.16
722.476	80.78
722.66	80.8
722.843	80.26
723.026	80.35
723.21	80.88
723.393	81.39
723.576	81.4
723.759	81.7
723.942	81.74
724.126	81.25
724.309	81.35
724.492	80.89
724.675	81.66
724.858	82.23
725.041	82.45
725.224	82.04
725.407	82.3
725.59	82.4
725.774	82.43
725.957	82.72
726.14	83.6
726.322	83.52
726.505	83.43
726.688	83.18
726.871	82.88
727.054	82.92
727.237	83.65
727.42	84.04
727.603	84.87
727.786	84.63
727.968	83.82
728.151	83.85
728.334	83.97
728.517	84.26
728.699	85.05
728.882	85.17
729.065	85.39
729.248	85.65
729.43	85
729.613	85.65
729.796	86.71
729.978	87.01
730.161	86.29
730.343	87.34
730.526	86.89
730.708	86.73
730.891	86.74
731.073	86.76
731.256	86.01
731.438	85.59
731.621	85.9
731.803	85.85
731.986	87.07
732.168	87.02
732.35	88.03
732.533	87.66
732.715	87.74
732.898	86.21
733.08	86.2
733.262	86.28
733.444	86.29
733.627	86.26
733.809	86.59
733.991	86.77
734.173	87.1
734.355	87.15
734.538	87.43
734.72	87.54
734.902	87.9
735.084	86.77
735.266	87.04
735.448	87.46
735.63	87.58
735.812	87.54
735.994	87.62
736.176	87.32
736.358	87.04
736.54	87.97
736.722	87.56
736.904	88.18
737.086	88.22
737.268	88.98
737.45	88.63
737.632	89.07
737.814	89.64
737.995	90.47
738.177	89.64
738.359	89.67
738.541	90.79
738.723	90.1
738.904	88.98
739.086	88.92
739.268	88.81
739.449	87.39
739.631	88.01
739.813	88.82
739.994	89.05
740.176	89.18
740.358	90.73
740.539	90.08
740.721	90.32
740.902	90.31
741.084	91.22
741.265	90.05
741.447	91.2
741.628	92.26
741.81	92.04
741.991	90.64
742.172	91.7
742.354	90.1
742.535	88.92
742.717	89.1
742.898	89.37
743.079	88.84
743.261	90.83
743.442	91.69
743.623	92.58
743.804	92.73
743.986	92.73
744.167	91.07
744.348	90.67
744.529	90.66
744.71	91.66
744.891	90.91
745.073	92.31
745.254	91.97
745.435	92.5
745.616	91.15
745.797	92.13
745.978	91.49
746.159	91.51
746.34	89.81
746.521	91.04
746.702	89.56
746.883	88.22
747.064	87.01
747.245	88.04
747.426	89.21
747.606	89.78
747.787	91.35
747.968	92.34
748.149	91.41
748.33	89.76
748.51	90.02
748.691	89.34
748.872	88.95
749.053	88.7
749.233	88.84
749.414	89.22
749.595	90.18
749.775	90.63
749.956	91.51
750.137	91.33
750.317	90.75
750.498	89.43
750.678	89.24
750.859	86.97
751.04	87.84
751.22	88.36
751.4	89.51
751.581	90.3
751.761	93.13
751.942	93.34
752.122	93.23
752.303	92.05
752.483	91.79
752.663	91.06
752.844	90.46
753.024	91.41
753.204	91.61
753.385	90.47
753.565	91.28
753.745	90.44
753.925	90.57
754.106	90.49
754.286	91.59
754.466	90.89
754.646	91.8
754.826	91.23
755.006	91.7
755.187	91.49
755.367	90.52
755.547	90.74
755.727	90.8
755.907	90.39
756.087	89.97
756.267	90.87
756.447	90.82
756.627	88.62
756.807	89.43
756.987	90.38
757.167	89.88
757.346	89.61
757.526	91.25
757.706	91.48
757.886	90.34
758.066	91.26
758.246	91.04
758.425	89.99
758.605	89.51
758.785	90.83
758.965	90.55
759.144	88.86
759.324	88.79
759.504	89.34
759.683	88.08
759.863	87.64
760.043	88.69
760.222	88.64
760.402	87.1
760.581	87.24
760.761	86.77
760.94	87.3
761.12	90.72
761.299	90.04
761.479	90.55
761.658	90
761.838	89.76
762.017	88.75
762.197	90.53
762.376	89.78
762.555	90.97
762.735	89.19
762.914	90.08
763.093	90.22
763.273	89.05
763.452	87.24
763.631	89.69
763.81	88.18
763.99	87.68
764.169	88.74
764.348	89.71
764.527	87.53
764.706	87.47
764.885	86.86
765.064	87.02
765.243	86.79
765.423	88.14
765.602	88.51
765.781	89.09
765.96	85.94
766.139	86.4
766.318	85.92
766.497	84.58
766.676	83.79
766.854	89.27
767.033	88.36
767.212	88.68
767.391	88.05
767.57	88.9
767.749	87.21
767.928	89.3
768.106	87.31
768.285	85.93
768.464	83.67
768.643	83.09
768.821	81.68
769	84.15
769.179	85.4
769.357	87.38
769.536	87.33
769.715	87.76
769.893	87.06
770.072	86.32
770.25	85.87
770.429	84.85
770.607	84.15
770.786	83.03
770.964	84.33
771.143	85.18
771.321	84.92
771.5	84.98
771.678	88.82
771.857	88.93
772.035	89.64
772.213	90.67
772.392	89.18
772.57	86.51
772.748	85.65
772.927	85.45
773.105	84.42
773.283	86.88
773.461	86.77
773.64	87.24
773.818	83.77
773.996	84.16
774.174	84.29
774.352	84.69
774.531	84.11
774.709	86.53
774.887	89.45
775.065	87.54
775.243	86.47
775.421	86.23
775.599	87.22
775.777	85.03
775.955	86.28
776.133	86.26
776.311	86.39
776.489	86.13
776.667	88.29
776.844	87.27
777.022	87.35
777.2	85.05
777.378	83.51
777.556	80.52
777.734	81.48
777.911	81.95
778.089	83.79
778.267	83.66
778.445	79.34
778.622	77.69
778.8	78.35
778.978	78.85
779.155	78.61
779.333	82.38
779.511	80.36
779.688	79.75
779.866	79.84
780.043	78.67
780.221	77.01
780.398	78.61
780.576	78.61
780.753	76.49
780.931	77.27
781.108	79.61
781.286	83
781.463	82.86
781.64	82.65
781.818	83.21
781.995	84.54
782.172	82.62
782.35	81.35
782.527	84.28
782.704	85.71
782.882	85.15
783.059	83.8
783.236	83.18
783.413	82.67
783.59	80.78
783.768	77.52
783.945	74.18
784.122	75.77
784.299	74.01
784.476	74.28
784.653	75.67
784.83	79.09
785.007	76.44
785.184	76.57
785.361	78.16
785.538	77.17
785.715	80.43
785.892	86.59
786.069	85.83
786.246	86.45
786.423	89.54
786.6	87.41
786.776	81.67
786.953	81.14
787.13	83.06
787.307	80.34
787.484	79.95
787.66	80.61
787.837	86.24
788.014	87.57
788.191	89.47
788.367	92.34
788.544	94.15
788.721	89.39
788.897	83.64
789.074	83.35
789.25	77.77
789.427	74.11
789.603	73
789.78	72.17
789.956	71.22
790.133	72.49
790.309	74.76
790.486	74.94
790.662	75.99
790.839	73.15
791.015	74
791.192	75.2
791.368	77.65
791.544	79.65
791.721	85.21
791.897	85.32
792.073	86.84
792.249	83.98
792.426	85.26
792.602	89.18
792.778	85.24
792.954	79.71
793.13	83.08
793.307	81.16
793.483	72.9
793.659	75.71
793.835	76.22
794.011	72.77
794.187	69.13
794.363	70.04
794.539	71.03
794.715	70.83
794.891	75.37
795.067	76.88
795.243	82.86
795.419	85.13
795.595	84.45
795.771	83.69
795.947	80.27
796.122	75.03
796.298	74.16
796.474	72.56
796.65	71.45
796.826	77.72
797.001	77.97
797.177	76.73
797.353	78.73
797.529	84.2
797.704	81.2
797.88	79.18
798.056	78.88
798.231	80.12
798.407	71.53
798.582	70.3
798.758	78.73
798.934	80.72
799.109	78.75
799.285	83.37
799.46	80.37
799.636	73.9
799.811	68.82
799.986	70.97
800.162	71.91
800.337	78.07
800.513	79.94
800.688	84.44
800.863	89
801.039	84.89
801.214	80.59
801.389	79.02
801.565	75.14
801.74	70.17
801.915	70.76
802.09	69.75
802.265	70.33
802.441	73.99
802.616	69.66
802.791	66.21
802.966	70.47
803.141	72.77
803.316	71.1
803.491	74.39
803.666	80.62
803.841	77.93
804.016	78.98
804.191	78.47
804.366	83.89
804.541	79.51
804.716	82.84
804.891	73.14
805.066	77.6
805.241	70.13
805.416	68.2
805.591	68.89
805.765	73.35
805.94	69.95
806.115	77.5
806.29	80.39
806.464	73.68
806.639	75.74
806.814	73.33
806.989	61.7
807.163	58.13
807.338	67.17
807.512	65.11
807.687	63.62
807.862	69.59
808.036	80.21
808.211	67.02
808.385	63.42
808.56	69.92
808.734	63.45
808.909	59.8
809.083	63.27
809.258	70.83
809.432	66.31
809.606	70.94
809.781	64.63
809.955	66.03
810.13	64.88
810.304	63.69
810.478	59.61
810.652	75.43
810.827	79.09
811.001	79.59
811.175	84.81
811.349	86.22
811.524	60.82
811.698	49.62
811.872	59.96
812.046	59.67
812.22	71.41
812.394	82.86
812.568	92.92
812.742	79.59
812.916	78.06
813.09	67.52
813.264	80.75
813.438	80.27
813.612	78.06
813.786	73.27
813.96	74.92
814.134	64.46
814.308	61.98
814.482	69.33
814.656	87.47
814.83	86.08
815.003	91.78
815.177	83.63
815.351	79.9
815.525	66.36
815.698	75.4
815.872	67.64
816.046	74.17
816.219	67.27
816.393	59.86
816.567	59.22
816.74	72.9
816.914	66.35
817.088	77.64
817.261	82.73
817.435	79.01
817.608	66.88
817.782	72.07
817.955	75.13
818.129	75.25
818.302	74.53
818.475	85.01
818.649	91.45
818.822	83.36
818.996	93.45
819.169	91.91
819.342	84.73
819.516	75.86
819.689	80.12
819.862	71.78
820.035	61.22
820.209	55.78
820.382	48.34
820.555	38.44
820.728	50.55
820.901	57.44
821.075	57.56
821.248	72.78
821.421	80.01
821.594	81.09
821.767	92.62
821.94	94.66
822.113	97.72
822.286	91.5
822.459	88.14
822.632	69.93
822.805	73.58
822.978	81.1
823.151	92.15
823.324	89.27
823.496	84.62
823.669	83.18
823.842	60.35
824.015	59
824.188	62.35
824.361	69.63
824.533	56.82
824.706	62.54
824.879	43.29
825.051	31.68
825.224	32.55
825.397	36.85
825.569	46.97
825.742	56.27
825.915	58.59
826.087	57.45
826.26	59.3
826.432	49.98
826.605	62.24
826.777	59.48
826.95	65.24
827.122	80.18
827.295	88.47
827.467	75.5
827.64	68.96
827.812	58.68
827.984	38.07
828.157	34.16
828.329	44.51
828.501	53.39
828.674	71.19
828.846	79.46
829.018	90.97
829.19	89.66
829.363	88.95
829.535	74.51
829.707	69.35
829.879	53.98
830.051	43.56
830.223	56.87
830.395	50.49
830.568	56.55
830.74	61.5
830.912	78.01
831.084	77.61
831.256	68.41
831.428	55.73
831.6	66.81
831.772	44.41
831.943	27.06
832.115	49.22
832.287	51.64
832.459	52.61
832.631	62.22
832.803	62.39
832.975	60.6
833.146	46.4
833.318	45.39
833.49	47.22
833.662	55.79
833.833	52.84
834.005	57.71
834.177	52.62
834.348	58.92
834.52	49.69
834.692	39.77
834.863	36.13
835.035	36.84
835.206	11.56
835.378	28.28
835.549	48.08
835.721	68.9
835.892	63.37
836.064	69.2
836.235	74.37
836.407	74.18
836.578	66.97
836.749	76.57
836.921	67.87
837.092	55.52
837.264	58.06
837.435	59.7
837.606	42.49
837.777	56.66
837.949	76.64
838.12	61.22
838.291	46.85
838.462	68.65
838.633	69.65
838.805	51.86
838.976	62.92
839.147	72.1
839.318	49.39
839.489	54.29
839.66	51.48
839.831	53.37
840.002	57.63
840.173	48.92
840.344	18.93
840.515	14.02
840.686	3.02
840.857	6.11
841.028	13.56
841.199	40.17
841.369	50.43
841.54	75.19
841.711	69.96
841.882	71.83
842.053	59.68
842.223	50.87
842.394	49.15
842.565	39.95
842.736	66.18
842.906	57.65
843.077	56.09
843.248	41.25
843.418	71.1
843.589	43.16
843.759	54.54
843.93	70.36
844.101	49.94
844.271	43.21
844.442	49.22
844.612	50.68
844.783	44.92
844.953	54.5
845.123	53.81
845.294	60
845.464	48.26
845.635	27.5
845.805	39.9
845.975	51.44
846.146	17.75
846.316	19.04
846.486	37.62
846.656	33.53
846.827	39.35
846.997	59.34
847.167	90.46
847.337	51.76
847.507	54.47
847.677	33.07
847.848	55.47
848.018	69.09
848.188	113.85
848.358	103.29
848.528	81.32
848.698	65.97
848.868	47.35
849.038	40.04
849.208	53.21
849.378	82.14
849.548	88.28
849.718	75.95
849.887	69.72
850.057	67.84
850.227	67.68
850.397	66.92
850.567	91.2
850.737	74.34
850.906	53.47
851.076	32.68
851.246	30.17
851.415	26.52
851.585	23.38
851.755	26.92
851.924	30.04
852.094	16.97
852.264	8.75
852.433	-19.79
852.603	9.97
852.772	33.98
852.942	50.63
853.111	52.99
853.281	76.44
853.45	60.44
853.62	25.8
853.789	4.4
853.959	4.17
854.128	-9.81
854.297	18.89
854.467	18.25
854.636	33.26
854.805	11.12
854.975	-22.25
855.144	-129.11
855.313	5.96
855.482	-20.68
855.652	2.3
855.821	12.84
855.99	42.87
856.159	90.94
856.328	112.12
856.497	132.81
856.667	112.02
856.836	141.81
857.005	90.13
857.174	24.98
857.343	66.1
857.512	-4.19
857.681	16.89
857.85	9.08
858.019	23.15
858.188	12.43
858.356	30.01
858.525	1.25
858.694	18.66
858.863	16.78
859.032	-29.13
859.201	-12.41
859.369	21.2
859.538	18.88
859.707	34.79
859.876	71.02
860.044	86.62
860.213	79.96
860.382	82.69
860.55	72.17
860.719	52.28
860.888	-5.54
861.056	2.85
861.225	-15.17
861.393	8.45
861.562	-7.12
861.73	24.08
861.899	23.62
862.067	6.12
862.236	44.79
862.404	4.33
862.572	-13.11
862.741	-13.2
862.909	-2.09
863.078	-68.57
863.246	15.5
863.414	33.1
863.582	72.16
863.751	64.31
863.919	47.1
864.087	70.22
864.255	24.39
864.424	-16.17
864.592	6.77
864.76	40.95
864.928	11.55
865.096	49.36
865.264	50.6
865.432	30.82
865.6	30.25
865.768	16.3
865.936	17.29
866.104	-2.87
866.272	29.16
866.44	24.44
866.608	35.37
866.776	3.77
866.944	-2.49
867.112	-27.79
867.28	-215.53
867.448	-90.41
867.615	124.03
867.783	75.67
867.951	26.08
868.119	57.26
868.286	40.06
868.454	-26.88
868.622	-36.03
868.789	-85.6
868.957	-53.99
869.125	-167.37
869.292	-115.06
869.46	-66.07
869.627	-22.9
869.795	-21.54
869.963	0.41
870.13	12.49
870.298	14.08
870.465	-11.75
870.632	12.02
870.8	13.63
870.967	-2.11
871.135	-60.27
871.302	-49.09
871.469	783.48
871.637	-225.76
871.804	-103.97
871.971	-48.3
872.139	-15.71
872.306	29.41
872.473	35.08
872.64	26.77
872.807	44.27
872.975	45.94
873.142	57.75
873.309	342.03
873.476	557.31
873.643	156.1
873.81	100.69
873.977	60.41
874.144	79.79
874.311	37.87
874.478	17.75
874.645	41.41
874.812	40.73
874.979	4.32
875.146	-2.1
875.313	16.22
875.48	-167.56
875.647	206.49
875.813	-119.11
875.98	319.19
876.147	10.26
876.314	67.09
876.481	-16.71
876.647	67.33
876.814	99.95
876.981	212.46
877.147	142.55
877.314	125.75
877.481	136.22
877.647	127.05
877.814	75.03
877.98	48.9
878.147	40.69
878.314	5.81
878.48	-22.42
878.647	-54.72
878.813	-1137.98
878.979	-29.63
879.146	-49.63
879.312	-127.73
879.479	-27.05
879.645	15.47
879.811	-14.07
879.978	1.4
880.144	15.19
880.31	15.52
880.477	-7.57
880.643	16.07
880.809	33.62
880.975	8024.24
881.142	-282.01
881.308	-1722.67
881.474	142.66
881.64	-8.86
881.806	-71.07
881.972	-28.5
882.138	5.83
882.304	-23.16
882.47	-34.24
882.636	-81.29
882.802	-26.88
882.968	-78.95
883.134	31.99
883.3	36.17
883.466	82.47
883.632	108.23
883.798	87.11
883.964	88
884.129	162.73
884.295	126.52
884.461	102.13
884.627	92.9
884.793	23.93
884.958	32.91
885.124	2.07
885.29	-55.37
885.455	-155.96
885.621	7.55
885.787	-48.42
885.952	97.9
886.118	136.52
886.283	-1017.54
886.449	-10.06
886.614	13.47
886.78	28.7
886.945	-5.73
887.111	-44.25
887.276	-30.71
887.442	-45.4
887.607	-112.17
887.773	-14.42
887.938	-49.31
888.103	-91.38
888.269	-153.96
888.434	-94.11
888.599	-91.98
888.764	-16.49
888.93	-58.51
889.095	19.05
889.26	22.56
889.425	-47.56
889.59	268.6
889.756	169.97
889.921	-3.67
890.086	25.18
890.251	-56.8
890.416	-53.3
890.581	-10.49
890.746	89.28
890.911	67.34
891.076	80.44
891.241	109.8
891.406	74
891.571	-31.82
891.736	6.71
891.901	-2.3
892.065	-48.03
892.23	-49.06
892.395	39.39
892.56	-103.05
892.725	14.28
892.889	62.41
893.054	-6.32
893.219	-121.7
893.384	-57.34
893.548	-324.46
893.713	969.14
893.878	138.86
