Data from Ofav_PS_Phys_9AZ9_Reflection_3.txt Node
Date: Thu Jul 29 18:23:44 EDT 2021
User: USUARIO
Spectrometer: FLMT01687
Trigger mode: 0
Integration Time (sec): 9.010000E-1
Scans to average: 2
Electric dark correction enabled: true
Nonlinearity correction enabled: false
Boxcar width: 2
XAxis mode: Wavelengths
Number of Pixels in Spectrum: 3648
>>>>>Begin Spectral Data<<<<<
179.494	44.13
179.716	35.59
179.937	18.4
180.158	271.75
180.38	88.35
180.601	-383.99
180.823	-185.66
181.044	-130.19
181.265	-114.06
181.486	-833.33
181.708	139.77
181.929	380.06
182.15	13719.05
182.372	-136.55
182.593	-16.78
182.814	10.71
183.035	-119.93
183.257	107.45
183.478	57.75
183.699	60.59
183.92	38.03
184.141	62.5
184.363	38.43
184.584	55.87
184.805	48.7
185.026	71.34
185.247	42.37
185.468	43.25
185.689	44.03
185.91	75.77
186.132	95.61
186.353	84.87
186.574	75.69
186.795	83.36
187.016	61.48
187.237	33.3
187.458	14.02
187.679	24.3
187.9	-4.81
188.121	-13.26
188.342	6.76
188.563	41.85
188.784	39.2
189.005	45.78
189.226	62.99
189.447	74.51
189.667	65.1
189.888	61.83
190.109	53.94
190.33	-7.7
190.551	0.46
190.772	57.07
190.993	64.24
191.214	71.92
191.434	77.51
191.655	64.59
191.876	55.79
192.097	26.25
192.318	43.31
192.538	34.7
192.759	44.15
192.98	43.7
193.201	68.68
193.421	70.08
193.642	57.99
193.863	43.11
194.083	8.14
194.304	-6.06
194.525	-6.74
194.745	-12.59
194.966	-12.25
195.187	-20.98
195.407	-39.12
195.628	-78.27
195.848	-17.59
196.069	28.29
196.29	43.09
196.51	57.21
196.731	50.51
196.951	47.22
197.172	36.31
197.392	30.96
197.613	23.67
197.833	15.08
198.054	-1.07
198.274	10.98
198.495	15.97
198.715	5.85
198.936	22.75
199.156	43.35
199.377	40.27
199.597	54.91
199.817	78
200.038	63.96
200.258	50.31
200.479	25.06
200.699	-3.32
200.919	38.76
201.14	39.94
201.36	51.83
201.58	59.21
201.801	68.31
202.021	69.22
202.241	80.32
202.461	73.77
202.682	74.27
202.902	77.86
203.122	47.16
203.342	58.69
203.563	58.38
203.783	44.99
204.003	11.38
204.223	-21.73
204.443	-37.58
204.663	-22.28
204.884	9.12
205.104	59.56
205.324	59.06
205.544	81.58
205.764	77.44
205.984	96.04
206.204	95.1
206.424	92.26
206.644	90.03
206.864	101.97
207.084	56.74
207.304	45.63
207.525	51.75
207.745	53.34
207.964	45.75
208.184	84.89
208.404	64.75
208.624	58.26
208.844	67.78
209.064	83.78
209.284	77.43
209.504	76.25
209.724	81.3
209.944	79.04
210.164	67.11
210.384	46.93
210.604	50.22
210.823	54.79
211.043	54.51
211.263	71.18
211.483	78.03
211.703	68.21
211.922	59.33
212.142	63.82
212.362	54.05
212.582	66.48
212.801	61.37
213.021	49.85
213.241	47.65
213.461	32.53
213.68	-18.48
213.9	9.92
214.12	29.05
214.339	-3.18
214.559	0.94
214.779	26.8
214.998	5.16
215.218	-27.3
215.438	20.91
215.657	33.38
215.877	31.51
216.096	30.35
216.316	50.65
216.535	40.97
216.755	-15.13
216.974	-22.74
217.194	-15.93
217.413	-24.43
217.633	4.73
217.852	3.55
218.072	3.55
218.291	8.42
218.511	35.16
218.73	7.04
218.95	13.3
219.169	31.62
219.389	19.45
219.608	1.55
219.827	24.89
220.047	34.71
220.266	15.18
220.485	24.83
220.705	31.06
220.924	18.7
221.143	12.05
221.363	6.24
221.582	6.94
221.801	-43.88
222.021	-2.25
222.24	3.77
222.459	19.15
222.678	22.51
222.897	25.59
223.117	17.56
223.336	20.97
223.555	25.47
223.774	45.3
223.993	47.81
224.213	50.16
224.432	51.88
224.651	57.51
224.87	36.49
225.089	51.53
225.308	54.32
225.527	51.12
225.746	29.94
225.965	33.58
226.184	9.63
226.404	22.23
226.623	38.86
226.842	42.9
227.061	38.81
227.28	47.5
227.499	52.93
227.718	48.45
227.936	40.65
228.155	57
228.374	44.6
228.593	32.99
228.812	21.72
229.031	26.14
229.25	22.5
229.469	21.86
229.688	8.2
229.907	27.42
230.125	30.73
230.344	48.05
230.563	37.86
230.782	61.76
231.001	32.42
231.22	35.57
231.438	10.76
231.657	30.48
231.876	17.3
232.095	14.22
232.313	4.21
232.532	-0.19
232.751	-28.64
232.969	-15.39
233.188	-4.87
233.407	-8.05
233.625	11.3
233.844	32.92
234.063	33.37
234.281	24.22
234.5	35.4
234.719	20.17
234.937	6.71
235.156	-16
235.374	25.51
235.593	40.49
235.811	40.82
236.03	38.91
236.249	50.83
236.467	56.7
236.686	57.84
236.904	54.1
237.123	60.66
237.341	69.15
237.559	41.72
237.778	41.26
237.996	52.55
238.215	48.34
238.433	44.56
238.652	49.96
238.87	39.82
239.088	41.27
239.307	39.06
239.525	35.13
239.743	31.13
239.962	30.34
240.18	21.3
240.398	28.93
240.617	11.43
240.835	24.88
241.053	27.8
241.271	53.1
241.49	61.75
241.708	85.46
241.926	67.17
242.144	58.02
242.363	37.08
242.581	17.25
242.799	11.25
243.017	6.08
243.235	23.49
243.453	30.01
243.672	39.78
243.89	20.11
244.108	51.33
244.326	59.18
244.544	40.98
244.762	29.08
244.98	52.99
245.198	23.13
245.416	-0.19
245.634	4.93
245.852	31.73
246.07	22.03
246.288	30.53
246.506	31.86
246.724	47.17
246.942	39.42
247.16	39.93
247.378	30.97
247.596	33.64
247.814	20.12
248.032	7.8
248.25	7.66
248.468	15.26
248.685	6.05
248.903	15.73
249.121	27.52
249.339	9.29
249.557	15.05
249.775	21.7
249.992	-8.92
250.21	-6.36
250.428	25.02
250.646	31.46
250.863	41.9
251.081	55.89
251.299	66.43
251.517	55.87
251.734	58.41
251.952	55.63
252.17	61.77
252.387	42.04
252.605	43.63
252.823	37.49
253.04	47.68
253.258	54.04
253.475	64.93
253.693	61.93
253.911	64.54
254.128	73.63
254.346	49.57
254.563	52.7
254.781	27.7
254.998	30.23
255.216	-13.67
255.433	5.72
255.651	-0.17
255.868	12.04
256.086	1.21
256.303	19.5
256.521	23.09
256.738	22.06
256.956	35.34
257.173	41.2
257.39	56.12
257.608	51.37
257.825	71.99
258.043	51.15
258.26	50.03
258.477	35.03
258.695	14.49
258.912	6.61
259.129	26.33
259.346	46.42
259.564	47.74
259.781	57.71
259.998	30.1
260.216	38.94
260.433	30.84
260.65	31.32
260.867	48.4
261.084	55.11
261.302	35.15
261.519	31.86
261.736	34.05
261.953	11.04
262.17	25.92
262.387	22.98
262.604	8.29
262.822	6.36
263.039	31.28
263.256	5.27
263.473	20.34
263.69	27.02
263.907	35.93
264.124	25.56
264.341	53.3
264.558	36.6
264.775	30.89
264.992	31.72
265.209	14.36
265.426	13.56
265.643	31.36
265.86	38.88
266.077	43.23
266.294	58.94
266.51	48.7
266.727	47.3
266.944	54.97
267.161	50.03
267.378	34.76
267.595	37.66
267.812	33.91
268.028	9.27
268.245	13.09
268.462	12.21
268.679	20.42
268.896	8
269.112	17.97
269.329	16.98
269.546	22.44
269.763	14.8
269.979	25.96
270.196	27.1
270.413	22.23
270.629	22.18
270.846	21.27
271.063	25.28
271.279	28.55
271.496	21.32
271.712	14.31
271.929	28.49
272.146	30.63
272.362	19.74
272.579	35.93
272.795	51.75
273.012	44.83
273.228	51.72
273.445	79.26
273.661	65.29
273.878	39.7
274.094	56.62
274.311	42.87
274.527	17.99
274.744	34.32
274.96	45.59
275.177	32.15
275.393	23.23
275.609	22.36
275.826	10.09
276.042	19.59
276.259	2.7
276.475	7.09
276.691	17.75
276.908	22.16
277.124	8.71
277.34	23.04
277.557	23.2
277.773	13.47
277.989	4.91
278.205	15.46
278.422	6.72
278.638	22.73
278.854	34.62
279.07	59.54
279.286	29.18
279.503	34.4
279.719	33.02
279.935	25.56
280.151	-5.31
280.367	21.69
280.583	40.43
280.799	16.08
281.016	11.78
281.232	42.81
281.448	49.86
281.664	42.38
281.88	43.76
282.096	65.48
282.312	43.28
282.528	34.17
282.744	21.92
282.96	18.97
283.176	-6.07
283.392	9.09
283.608	12.06
283.824	22.58
284.04	18.81
284.256	23.27
284.471	14.93
284.687	17.85
284.903	-8.88
285.119	14.82
285.335	-0.62
285.551	11.48
285.767	15.58
285.982	30.25
286.198	27.59
286.414	50.1
286.63	52.15
286.846	46.34
287.061	40.21
287.277	46.35
287.493	31.14
287.709	20.76
287.924	28.39
288.14	44.07
288.356	47.1
288.571	49.24
288.787	54.12
289.003	53.19
289.218	29.12
289.434	24.37
289.65	29.81
289.865	31.35
290.081	39.72
290.296	52
290.512	59.19
290.727	57.02
290.943	46.62
291.159	35.74
291.374	49.96
291.59	44.68
291.805	38.02
292.021	37.87
292.236	47.08
292.451	17.31
292.667	13.88
292.882	3.63
293.098	3.81
293.313	-11.73
293.529	15.48
293.744	3.89
293.959	18.14
294.175	34.02
294.39	43.49
294.605	48.42
294.821	49.69
295.036	48.31
295.251	40.95
295.467	33.36
295.682	30.88
295.897	34.82
296.112	24.12
296.328	35.96
296.543	28.42
296.758	15.69
296.973	13.63
297.188	28.57
297.404	0.87
297.619	10.58
297.834	7.43
298.049	9.67
298.264	14.84
298.479	33.78
298.694	23.53
298.909	22.83
299.125	9.82
299.34	18.61
299.555	-15.28
299.77	-8.63
299.985	-34.82
300.2	0.48
300.415	-16.46
300.63	20.5
300.845	13.03
301.06	29.18
301.275	28.1
301.49	49.16
301.704	29.52
301.919	28.75
302.134	34.66
302.349	25.73
302.564	20.2
302.779	20.59
302.994	17.83
303.209	18.37
303.423	14.61
303.638	-6.88
303.853	-2.99
304.068	8.53
304.283	1.27
304.497	6.21
304.712	-17.28
304.927	-30.22
305.142	-49.81
305.356	-63.2
305.571	-37.67
305.786	2.48
306	-1.4
306.215	11.93
306.43	26.19
306.644	14.32
306.859	26.43
307.074	31.87
307.288	32.22
307.503	39.06
307.717	31.9
307.932	42.43
308.147	46.69
308.361	29.81
308.576	20.29
308.79	17.36
309.005	18.76
309.219	32.86
309.434	45.7
309.648	43.08
309.863	43.47
310.077	24.94
310.292	-1.03
310.506	-13.6
310.72	3.1
310.935	8.4
311.149	27.07
311.364	50.22
311.578	60.37
311.792	31.21
312.007	42.24
312.221	15.78
312.435	28.04
312.649	17.32
312.864	-118.97
313.078	-78.12
313.292	-75.94
313.507	-62.08
313.721	-41.82
313.935	21.36
314.149	21.84
314.363	37.92
314.578	23.69
314.792	32.47
315.006	46.9
315.22	41.15
315.434	38.31
315.648	35.13
315.862	24.23
316.077	20.42
316.291	16.03
316.505	28.5
316.719	40.83
316.933	48.98
317.147	36.72
317.361	20.95
317.575	11.96
317.789	2.01
318.003	10.92
318.217	18.27
318.431	22.65
318.645	6.41
318.859	11.35
319.073	-7.52
319.287	-11.95
319.5	-10.61
319.714	17.32
319.928	9.63
320.142	36.42
320.356	42.72
320.57	63.89
320.784	63.29
320.997	65.85
321.211	52.31
321.425	42.92
321.639	20.99
321.853	21.33
322.066	17.5
322.28	15.63
322.494	26.06
322.707	34.5
322.921	16.69
323.135	1.86
323.349	-7.1
323.562	-20.4
323.776	-20.98
323.989	-7.61
324.203	17.14
324.417	32.4
324.63	29.89
324.844	29.27
325.057	23.98
325.271	8.53
325.485	16.49
325.698	23.71
325.912	21.11
326.125	27.59
326.339	31.51
326.552	19.99
326.766	5.08
326.979	14.41
327.193	3.93
327.406	16.31
327.619	11.51
327.833	38.19
328.046	31.83
328.26	47.71
328.473	35.39
328.686	43.67
328.9	7.2
329.113	0.28
329.326	-27.47
329.54	-39.03
329.753	-16.97
329.966	4.33
330.179	14.55
330.393	17.06
330.606	22.35
330.819	18.65
331.032	23.3
331.246	13.67
331.459	-7.77
331.672	5.55
331.885	15.28
332.098	13.62
332.311	33.36
332.525	46.25
332.738	36.84
332.951	20.98
333.164	21.95
333.377	19.41
333.59	28.46
333.803	42.71
334.016	44.4
334.229	33.56
334.442	28.83
334.655	21.45
334.868	0.01
335.081	12.92
335.294	10.65
335.507	16.07
335.72	26.41
335.933	25.47
336.146	25.41
336.359	32.31
336.572	11.98
336.785	-2.15
336.997	1.81
337.21	6.31
337.423	5.13
337.636	15.56
337.849	11.96
338.062	10
338.274	8.26
338.487	12.94
338.7	5.48
338.913	15.94
339.125	13.06
339.338	14.75
339.551	22.14
339.763	25.58
339.976	25.45
340.189	45.98
340.402	42.08
340.614	25.58
340.827	25.33
341.039	18.64
341.252	15.13
341.465	26.69
341.677	32.68
341.89	18.67
342.102	27.47
342.315	23.89
342.527	11.46
342.74	-2.77
342.952	9.88
343.165	16.76
343.377	8.06
343.59	9.75
343.802	28.15
344.015	32.99
344.227	16.06
344.44	21.1
344.652	29.94
344.864	10.86
345.077	7.83
345.289	-2.67
345.502	-9.12
345.714	-11.63
345.926	10.41
346.139	-21.67
346.351	-9.55
346.563	-3.47
346.775	-5.32
346.988	-20.44
347.2	-7.47
347.412	3.16
347.624	10.67
347.837	5.74
348.049	8.78
348.261	21.3
348.473	14.6
348.685	19.15
348.897	32
349.11	34.07
349.322	39.54
349.534	50.7
349.746	44.29
349.958	39.68
350.17	33.3
350.382	34.97
350.594	23.59
350.806	30.21
351.018	27.58
351.23	25.61
351.442	9.83
351.654	18.96
351.866	3.5
352.078	20.09
352.29	22.8
352.502	34.03
352.714	35.24
352.926	46.44
353.138	62.64
353.35	55.44
353.561	40.93
353.773	39.82
353.985	41.16
354.197	37.92
354.409	29.63
354.621	21.02
354.832	17.71
355.044	6.11
355.256	1.68
355.468	-0.72
355.679	10.47
355.891	23.46
356.103	35.67
356.314	36.5
356.526	39.2
356.738	44.21
356.949	31.61
357.161	34.37
357.373	31.96
357.584	43.39
357.796	37.95
358.008	42.94
358.219	37.68
358.431	35.59
358.642	19.87
358.854	24.7
359.065	26.59
359.277	24.04
359.488	31.17
359.7	37.13
359.911	50.56
360.123	44.65
360.334	43.11
360.546	31.48
360.757	30.05
360.969	22.43
361.18	44.71
361.391	35.81
361.603	32.04
361.814	35.6
362.025	29.92
362.237	27.17
362.448	26.39
362.659	20.87
362.871	25.09
363.082	20.7
363.293	8.63
363.504	27.35
363.716	44.18
363.927	50.11
364.138	36.94
364.349	43.63
364.56	37.28
364.772	27.24
364.983	17.41
365.194	24.64
365.405	24.56
365.616	20.81
365.827	32.44
366.038	24.61
366.25	20.55
366.461	12.79
366.672	-7.77
366.883	-11.85
367.094	-6.73
367.305	9.84
367.516	16.34
367.727	31.11
367.938	37.94
368.149	35.9
368.36	31.13
368.571	29.25
368.781	21.29
368.992	-9.51
369.203	3.97
369.414	7.41
369.625	20.1
369.836	22.89
370.047	29.57
370.258	28.33
370.468	30.44
370.679	12.09
370.89	0.91
371.101	5.82
371.312	-7.41
371.522	-6.35
371.733	5.1
371.944	10.74
372.155	20.59
372.365	40.37
372.576	42.44
372.787	38.01
372.997	36.39
373.208	29.5
373.419	18.57
373.629	19.29
373.84	23.75
374.05	19.9
374.261	22.01
374.472	18.93
374.682	10.41
374.893	14.38
375.103	25.49
375.314	30.07
375.524	34.13
375.735	38.98
375.945	40.99
376.156	32.28
376.366	16.46
376.577	32.38
376.787	33.39
376.997	22.55
377.208	28.41
377.418	29.78
377.629	19.41
377.839	14.3
378.049	21.86
378.26	20.93
378.47	30.05
378.68	23.35
378.89	27.19
379.101	31.63
379.311	18.14
379.521	10.47
379.732	12.89
379.942	-2.15
380.152	-10.73
380.362	9.81
380.572	11.8
380.783	4.27
380.993	15.35
381.203	19.44
381.413	13.76
381.623	17.66
381.833	39.78
382.043	33.88
382.253	29.73
382.463	26.8
382.674	22.47
382.884	14.7
383.094	8.25
383.304	7.52
383.514	3.8
383.724	14.89
383.934	9.88
384.144	12.19
384.353	15.84
384.563	19.92
384.773	15.81
384.983	13.52
385.193	22.63
385.403	14.45
385.613	13.1
385.823	8.69
386.033	15.86
386.242	11.12
386.452	16.45
386.662	15.91
386.872	15.78
387.082	10.62
387.291	5.28
387.501	7.6
387.711	6.17
387.921	4.39
388.13	7.97
388.34	14.79
388.55	11.72
388.759	13.33
388.969	13.72
389.179	8.78
389.388	5.01
389.598	8.64
389.807	7.07
390.017	6.78
390.227	11.6
390.436	12.39
390.646	9.97
390.855	11.92
391.065	11.56
391.274	8.82
391.484	5.8
391.693	4.02
391.903	4.35
392.112	5.55
392.322	5.69
392.531	6.53
392.74	7.01
392.95	7.03
393.159	8.21
393.369	8.91
393.578	9.91
393.787	10.42
393.997	8.44
394.206	7.33
394.415	7.4
394.625	7.78
394.834	7.35
395.043	7.37
395.252	8.84
395.462	8.46
395.671	7.69
395.88	8.99
396.089	10.69
396.298	9.72
396.508	9.42
396.717	9.12
396.926	8.28
397.135	7.23
397.344	6.98
397.553	7.42
397.762	7.9
397.971	8.16
398.181	8.54
398.39	8.21
398.599	7.63
398.808	7.77
399.017	8.04
399.226	8.06
399.435	8.53
399.644	8.99
399.853	8.72
400.062	8.86
400.27	8.84
400.479	9.03
400.688	8.83
400.897	9.08
401.106	8.65
401.315	8.48
401.524	8.34
401.733	8.33
401.941	8.32
402.15	8.35
402.359	8.23
402.568	8.17
402.777	8.08
402.985	7.9
403.194	7.65
403.403	7.7
403.612	7.57
403.82	7.71
404.029	7.58
404.238	7.51
404.446	7.62
404.655	7.55
404.864	7.41
405.072	7.38
405.281	7.55
405.489	7.36
405.698	7.4
405.906	7.45
406.115	7.5
406.324	7.49
406.532	7.5
406.741	7.56
406.949	7.52
407.158	7.56
407.366	7.5
407.574	7.49
407.783	7.4
407.991	7.2
408.2	7.01
408.408	6.89
408.617	6.95
408.825	6.97
409.033	7.21
409.242	7.38
409.45	7.51
409.658	7.56
409.867	7.48
410.075	7.31
410.283	7.24
410.491	7.1
410.7	7.04
410.908	7.11
411.116	7.27
411.324	7.22
411.533	7.34
411.741	7.21
411.949	7.2
412.157	7.16
412.365	7.17
412.573	7.11
412.781	7.08
412.99	6.99
413.198	6.84
413.406	6.76
413.614	6.79
413.822	6.82
414.03	6.76
414.238	6.69
414.446	6.81
414.654	6.71
414.862	6.72
415.07	6.67
415.278	6.88
415.486	6.55
415.694	6.57
415.902	6.6
416.109	6.64
416.317	6.56
416.525	6.8
416.733	6.83
416.941	6.74
417.149	6.78
417.357	6.6
417.564	6.52
417.772	6.38
417.98	6.39
418.188	6.37
418.395	6.49
418.603	6.41
418.811	6.57
419.019	6.75
419.226	6.92
419.434	6.82
419.642	6.76
419.849	6.69
420.057	6.5
420.265	6.26
420.472	6.18
420.68	6.31
420.887	6.29
421.095	6.33
421.302	6.44
421.51	6.44
421.717	6.49
421.925	6.42
422.132	6.4
422.34	6.1
422.547	6.16
422.755	6.25
422.962	6.25
423.17	6.15
423.377	6.46
423.585	6.55
423.792	6.43
423.999	6.4
424.207	6.38
424.414	6.2
424.621	6.12
424.829	6.04
425.036	6.07
425.243	6.22
425.451	6.19
425.658	6.21
425.865	6.15
426.072	6.17
426.28	6.15
426.487	6.4
426.694	6.42
426.901	6.4
427.108	6.53
427.315	6.49
427.523	6.27
427.73	6.21
427.937	6.3
428.144	6.09
428.351	5.87
428.558	6.13
428.765	6.19
428.972	6.15
429.179	6.23
429.386	6.43
429.593	6.26
429.8	6.28
430.007	6.39
430.214	6.47
430.421	6.59
430.628	6.6
430.835	6.63
431.042	6.59
431.249	6.55
431.456	6.34
431.662	6.57
431.869	6.67
432.076	6.84
432.283	6.86
432.49	6.88
432.697	6.75
432.903	6.43
433.11	6.29
433.317	6.3
433.524	6.4
433.73	6.47
433.937	6.63
434.144	6.58
434.35	6.56
434.557	6.41
434.764	6.29
434.97	6.13
435.177	6.34
435.384	6.31
435.59	6.36
435.797	6.42
436.003	6.5
436.21	6.39
436.416	6.36
436.623	6.46
436.829	6.47
437.036	6.53
437.242	6.57
437.449	6.61
437.655	6.62
437.862	6.65
438.068	6.63
438.275	6.56
438.481	6.55
438.687	6.62
438.894	6.66
439.1	6.75
439.307	6.72
439.513	6.78
439.719	6.73
439.926	6.66
440.132	6.75
440.338	6.88
440.544	6.82
440.751	6.67
440.957	6.68
441.163	6.6
441.369	6.62
441.575	6.62
441.782	6.67
441.988	6.74
442.194	6.67
442.4	6.58
442.606	6.71
442.812	6.89
443.018	6.82
443.224	7.03
443.431	7.07
443.637	7.06
443.843	6.98
444.049	7
444.255	6.89
444.461	7
444.667	6.87
444.873	6.83
445.079	6.76
445.284	6.78
445.49	6.65
445.696	6.78
445.902	6.82
446.108	6.81
446.314	6.8
446.52	6.96
446.726	7
446.931	6.96
447.137	7.03
447.343	7.01
447.549	6.87
447.755	6.69
447.96	6.76
448.166	6.83
448.372	6.88
448.578	7.03
448.783	7.14
448.989	7.16
449.195	7.05
449.4	7.02
449.606	6.9
449.812	6.86
450.017	6.84
450.223	6.93
450.428	6.96
450.634	7.03
450.84	7.12
451.045	7.17
451.251	7.18
451.456	7.26
451.662	7.23
451.867	7.13
452.073	7.16
452.278	7.15
452.483	7.09
452.689	7.02
452.894	7.08
453.1	7.01
453.305	7
453.51	7.02
453.716	7
453.921	7.07
454.127	7.07
454.332	6.95
454.537	6.88
454.742	6.96
454.948	6.78
455.153	6.8
455.358	6.88
455.563	6.95
455.769	6.89
455.974	6.97
456.179	6.89
456.384	6.82
456.589	6.87
456.795	6.87
457	6.97
457.205	7.1
457.41	7.24
457.615	7.17
457.82	7.29
458.025	7.26
458.23	7.21
458.435	7.16
458.64	7.16
458.845	7.15
459.05	6.99
459.255	6.99
459.46	7.05
459.665	7.08
459.87	7.14
460.075	7.22
460.28	7.22
460.485	7.22
460.69	7.23
460.895	7.17
461.099	7.15
461.304	7.1
461.509	7.03
461.714	6.99
461.919	6.91
462.123	7.06
462.328	7.12
462.533	7.21
462.738	7.31
462.942	7.34
463.147	7.33
463.352	7.41
463.556	7.38
463.761	7.28
463.966	7.39
464.17	7.37
464.375	7.29
464.58	7.22
464.784	7.27
464.989	7.14
465.193	7.05
465.398	7.14
465.602	7.37
465.807	7.4
466.011	7.49
466.216	7.48
466.42	7.38
466.625	7.42
466.829	7.39
467.034	7.46
467.238	7.57
467.443	7.63
467.647	7.38
467.851	7.39
468.056	7.31
468.26	7.26
468.464	7.31
468.669	7.42
468.873	7.51
469.077	7.48
469.282	7.42
469.486	7.37
469.69	7.38
469.894	7.26
470.099	7.29
470.303	7.4
470.507	7.42
470.711	7.4
470.915	7.49
471.119	7.5
471.324	7.59
471.528	7.56
471.732	7.62
471.936	7.57
472.14	7.55
472.344	7.48
472.548	7.52
472.752	7.55
472.956	7.56
473.16	7.62
473.364	7.7
473.568	7.67
473.772	7.68
473.976	7.7
474.18	7.77
474.384	7.62
474.588	7.64
474.792	7.54
474.995	7.53
475.199	7.54
475.403	7.59
475.607	7.57
475.811	7.58
476.015	7.64
476.218	7.5
476.422	7.45
476.626	7.5
476.83	7.51
477.033	7.47
477.237	7.48
477.441	7.5
477.644	7.45
477.848	7.5
478.052	7.45
478.255	7.5
478.459	7.51
478.663	7.62
478.866	7.65
479.07	7.72
479.273	7.77
479.477	7.78
479.681	7.78
479.884	7.67
480.088	7.65
480.291	7.65
480.495	7.61
480.698	7.58
480.901	7.59
481.105	7.62
481.308	7.58
481.512	7.59
481.715	7.52
481.919	7.55
482.122	7.6
482.325	7.63
482.529	7.65
482.732	7.8
482.935	7.76
483.138	7.61
483.342	7.53
483.545	7.5
483.748	7.44
483.952	7.56
484.155	7.72
484.358	7.76
484.561	7.78
484.764	7.73
484.967	7.68
485.171	7.56
485.374	7.58
485.577	7.59
485.78	7.57
485.983	7.52
486.186	7.52
486.389	7.44
486.592	7.45
486.795	7.57
486.998	7.51
487.201	7.66
487.404	7.76
487.607	7.74
487.81	7.62
488.013	7.68
488.216	7.66
488.419	7.62
488.622	7.65
488.825	7.69
489.028	7.67
489.231	7.61
489.433	7.56
489.636	7.49
489.839	7.51
490.042	7.51
490.245	7.46
490.447	7.56
490.65	7.58
490.853	7.52
491.056	7.58
491.258	7.56
491.461	7.51
491.664	7.49
491.866	7.48
492.069	7.43
492.272	7.46
492.474	7.43
492.677	7.41
492.879	7.43
493.082	7.48
493.285	7.52
493.487	7.48
493.69	7.5
493.892	7.45
494.095	7.34
494.297	7.28
494.5	7.29
494.702	7.32
494.905	7.43
495.107	7.4
495.309	7.51
495.512	7.55
495.714	7.61
495.917	7.54
496.119	7.56
496.321	7.48
496.524	7.46
496.726	7.37
496.928	7.4
497.13	7.39
497.333	7.36
497.535	7.41
497.737	7.39
497.939	7.37
498.142	7.55
498.344	7.64
498.546	7.55
498.748	7.61
498.95	7.6
499.152	7.48
499.355	7.43
499.557	7.49
499.759	7.44
499.961	7.42
500.163	7.4
500.365	7.41
500.567	7.38
500.769	7.35
500.971	7.38
501.173	7.4
501.375	7.4
501.577	7.45
501.779	7.55
501.981	7.49
502.183	7.45
502.385	7.36
502.587	7.28
502.788	7.21
502.99	7.32
503.192	7.37
503.394	7.39
503.596	7.46
503.798	7.49
503.999	7.43
504.201	7.42
504.403	7.41
504.605	7.39
504.806	7.45
505.008	7.45
505.21	7.51
505.411	7.55
505.613	7.53
505.815	7.45
506.016	7.42
506.218	7.35
506.42	7.31
506.621	7.33
506.823	7.38
507.024	7.4
507.226	7.47
507.427	7.51
507.629	7.51
507.83	7.54
508.032	7.58
508.233	7.58
508.435	7.57
508.636	7.64
508.838	7.59
509.039	7.57
509.24	7.51
509.442	7.55
509.643	7.47
509.845	7.52
510.046	7.57
510.247	7.61
510.448	7.62
510.65	7.67
510.851	7.6
511.052	7.57
511.254	7.51
511.455	7.49
511.656	7.44
511.857	7.43
512.058	7.38
512.26	7.44
512.461	7.38
512.662	7.37
512.863	7.36
513.064	7.36
513.265	7.34
513.466	7.37
513.667	7.36
513.868	7.43
514.069	7.48
514.27	7.56
514.471	7.56
514.672	7.54
514.873	7.44
515.074	7.47
515.275	7.37
515.476	7.33
515.677	7.43
515.878	7.56
516.079	7.5
516.28	7.55
516.481	7.63
516.682	7.6
516.882	7.5
517.083	7.55
517.284	7.48
517.485	7.47
517.686	7.48
517.886	7.55
518.087	7.47
518.288	7.53
518.488	7.51
518.689	7.46
518.89	7.39
519.091	7.48
519.291	7.44
519.492	7.46
519.692	7.49
519.893	7.63
520.094	7.62
520.294	7.7
520.495	7.7
520.695	7.71
520.896	7.61
521.096	7.62
521.297	7.59
521.497	7.6
521.698	7.59
521.898	7.63
522.099	7.54
522.299	7.53
522.499	7.53
522.7	7.57
522.9	7.55
523.101	7.62
523.301	7.62
523.501	7.59
523.702	7.59
523.902	7.61
524.102	7.66
524.302	7.67
524.503	7.7
524.703	7.72
524.903	7.7
525.103	7.68
525.304	7.76
525.504	7.78
525.704	7.73
525.904	7.81
526.104	7.79
526.304	7.72
526.504	7.7
526.705	7.73
526.905	7.68
527.105	7.69
527.305	7.7
527.505	7.72
527.705	7.74
527.905	7.77
528.105	7.75
528.305	7.7
528.505	7.75
528.705	7.73
528.905	7.68
529.105	7.7
529.304	7.74
529.504	7.7
529.704	7.7
529.904	7.76
530.104	7.81
530.304	7.87
530.503	7.83
530.703	7.81
530.903	7.82
531.103	7.8
531.303	7.83
531.502	7.92
531.702	7.98
531.902	7.93
532.101	7.89
532.301	7.86
532.501	7.78
532.7	7.79
532.9	7.83
533.1	7.9
533.299	7.88
533.499	7.97
533.698	7.96
533.898	7.98
534.097	8.03
534.297	8.05
534.496	8.04
534.696	8.04
534.895	8.05
535.095	7.96
535.294	7.96
535.494	7.95
535.693	7.91
535.892	7.96
536.092	7.96
536.291	7.99
536.491	7.97
536.69	7.98
536.889	7.87
537.088	7.84
537.288	7.87
537.487	7.89
537.686	7.85
537.886	7.94
538.085	8
538.284	7.97
538.483	7.99
538.682	8.12
538.882	8.13
539.081	8.2
539.28	8.26
539.479	8.3
539.678	8.29
539.877	8.29
540.076	8.28
540.275	8.26
540.474	8.3
540.673	8.35
540.872	8.35
541.071	8.36
541.27	8.4
541.469	8.4
541.668	8.41
541.867	8.44
542.066	8.46
542.265	8.47
542.464	8.5
542.663	8.5
542.862	8.63
543.06	8.76
543.259	8.85
543.458	8.9
543.657	8.97
543.856	8.96
544.054	8.91
544.253	8.86
544.452	8.83
544.651	8.81
544.849	8.72
545.048	8.7
545.247	8.7
545.445	8.8
545.644	8.84
545.843	8.93
546.041	9.01
546.24	9.15
546.438	9.1
546.637	9.09
546.836	9.19
547.034	9.17
547.233	9.12
547.431	9.11
547.63	9.19
547.828	9.13
548.027	9.18
548.225	9.24
548.423	9.35
548.622	9.39
548.82	9.45
549.019	9.49
549.217	9.42
549.415	9.46
549.614	9.61
549.812	9.61
550.01	9.64
550.209	9.77
550.407	9.82
550.605	9.74
550.803	9.77
551.002	9.83
551.2	9.86
551.398	9.88
551.596	9.94
551.794	10.06
551.993	10.08
552.191	10.18
552.389	10.18
552.587	10.18
552.785	10.23
552.983	10.32
553.181	10.38
553.379	10.53
553.577	10.59
553.775	10.63
553.973	10.67
554.171	10.67
554.369	10.69
554.567	10.82
554.765	10.82
554.963	10.88
555.161	10.86
555.359	10.93
555.557	10.99
555.755	11.1
555.952	11.18
556.15	11.32
556.348	11.32
556.546	11.4
556.744	11.42
556.941	11.47
557.139	11.62
557.337	11.81
557.535	11.85
557.732	11.92
557.93	12.09
558.128	12.03
558.325	12.03
558.523	12.11
558.721	12.21
558.918	12.19
559.116	12.28
559.313	12.33
559.511	12.43
559.708	12.52
559.906	12.63
560.104	12.7
560.301	12.79
560.498	12.85
560.696	12.92
560.893	12.94
561.091	13.11
561.288	13.17
561.486	13.28
561.683	13.43
561.88	13.56
562.078	13.63
562.275	13.77
562.473	13.78
562.67	13.84
562.867	13.96
563.064	14.03
563.262	14.12
563.459	14.21
563.656	14.28
563.853	14.31
564.051	14.37
564.248	14.49
564.445	14.69
564.642	14.77
564.839	14.93
565.036	14.99
565.234	15.1
565.431	15.09
565.628	15.16
565.825	15.25
566.022	15.37
566.219	15.38
566.416	15.41
566.613	15.57
566.81	15.63
567.007	15.7
567.204	15.75
567.401	15.91
567.598	15.92
567.795	15.93
567.991	16
568.188	16.11
568.385	16.13
568.582	16.18
568.779	16.24
568.976	16.38
569.172	16.51
569.369	16.52
569.566	16.55
569.763	16.63
569.96	16.64
570.156	16.62
570.353	16.66
570.55	16.7
570.746	16.77
570.943	16.79
571.14	16.83
571.336	16.91
571.533	17.01
571.729	17.08
571.926	17.23
572.123	17.29
572.319	17.41
572.516	17.51
572.712	17.54
572.909	17.53
573.105	17.55
573.302	17.54
573.498	17.52
573.695	17.61
573.891	17.61
574.087	17.63
574.284	17.71
574.48	17.71
574.677	17.62
574.873	17.64
575.069	17.8
575.266	17.73
575.462	17.72
575.658	17.83
575.854	17.98
576.051	17.86
576.247	17.95
576.443	18.06
576.639	18.07
576.835	17.97
577.032	18.01
577.228	18.11
577.424	18.09
577.62	18.02
577.816	17.95
578.012	17.92
578.208	17.84
578.404	17.84
578.6	17.88
578.796	17.96
578.993	17.97
579.189	17.9
579.384	17.85
579.58	17.85
579.776	17.83
579.972	17.8
580.168	17.77
580.364	17.73
580.56	17.72
580.756	17.64
580.952	17.55
581.148	17.64
581.343	17.6
581.539	17.61
581.735	17.68
581.931	17.75
582.127	17.68
582.322	17.67
582.518	17.65
582.714	17.58
582.909	17.55
583.105	17.54
583.301	17.6
583.496	17.55
583.692	17.59
583.888	17.64
584.083	17.67
584.279	17.69
584.474	17.67
584.67	17.68
584.866	17.66
585.061	17.63
585.257	17.59
585.452	17.59
585.648	17.51
585.843	17.54
586.039	17.53
586.234	17.5
586.429	17.49
586.625	17.53
586.82	17.54
587.015	17.54
587.211	17.49
587.406	17.39
587.601	17.33
587.797	17.21
587.992	17.19
588.187	17.27
588.383	17.31
588.578	17.38
588.773	17.45
588.968	17.55
589.163	17.57
589.359	17.66
589.554	17.6
589.749	17.68
589.944	17.64
590.139	17.66
590.334	17.7
590.529	17.7
590.724	17.6
590.919	17.5
591.114	17.48
591.309	17.42
591.504	17.6
591.699	17.65
591.894	17.81
592.089	17.88
592.284	18.02
592.479	17.94
592.674	17.93
592.869	17.91
593.064	17.9
593.259	17.83
593.454	17.75
593.648	17.8
593.843	17.93
594.038	18.04
594.233	18.13
594.428	18.29
594.622	18.34
594.817	18.44
595.012	18.41
595.206	18.54
595.401	18.64
595.596	18.74
595.79	18.69
595.985	18.77
596.18	18.73
596.374	18.69
596.569	18.75
596.763	18.8
596.958	18.85
597.153	19
597.347	19.11
597.542	19.21
597.736	19.25
597.931	19.36
598.125	19.32
598.319	19.41
598.514	19.47
598.708	19.61
598.903	19.7
599.097	19.78
599.291	19.84
599.486	19.79
599.68	19.72
599.874	19.76
600.069	19.82
600.263	19.76
600.457	19.84
600.651	19.9
600.846	19.83
601.04	19.83
601.234	19.85
601.428	19.93
601.622	20
601.817	20.01
602.011	20.11
602.205	20.16
602.399	20.16
602.593	20.17
602.787	20.16
602.981	20.09
603.175	20.09
603.369	20
603.563	20
603.757	20.07
603.951	20.11
604.145	20.13
604.339	20.2
604.533	20.18
604.727	20.14
604.921	20.13
605.115	20.19
605.309	20.15
605.502	20.05
605.696	19.97
605.89	19.92
606.084	19.82
606.278	19.73
606.471	19.78
606.665	19.67
606.859	19.64
607.053	19.54
607.246	19.52
607.44	19.37
607.634	19.39
607.827	19.3
608.021	19.18
608.214	19.15
608.408	19.14
608.602	19.16
608.795	19.14
608.989	19.09
609.182	19
609.376	18.97
609.569	18.86
609.763	18.72
609.956	18.8
610.15	18.61
610.343	18.49
610.537	18.41
610.73	18.42
610.923	18.31
611.117	18.36
611.31	18.31
611.504	18.25
611.697	18.14
611.89	18.08
612.083	17.97
612.277	17.9
612.47	17.74
612.663	17.65
612.856	17.56
613.05	17.57
613.243	17.51
613.436	17.54
613.629	17.53
613.822	17.41
614.015	17.28
614.209	17.18
614.402	17.07
614.595	16.98
614.788	16.88
614.981	16.88
615.174	16.85
615.367	16.83
615.56	16.68
615.753	16.73
615.946	16.59
616.139	16.52
616.332	16.46
616.525	16.46
616.718	16.35
616.911	16.28
617.103	16.37
617.296	16.29
617.489	16.21
617.682	16.28
617.875	16.32
618.067	16.15
618.26	16.07
618.453	15.98
618.646	15.88
618.838	15.8
619.031	15.73
619.224	15.71
619.417	15.7
619.609	15.63
619.802	15.55
619.994	15.46
620.187	15.44
620.38	15.48
620.572	15.4
620.765	15.41
620.957	15.45
621.15	15.36
621.342	15.28
621.535	15.33
621.727	15.29
621.92	15.29
622.112	15.31
622.305	15.32
622.497	15.22
622.69	15.12
622.882	15.11
623.074	15.12
623.267	15.1
623.459	15.14
623.651	15.17
623.844	15.22
624.036	15.2
624.228	15.22
624.42	15.16
624.613	15.17
624.805	15.05
624.997	14.95
625.189	14.97
625.381	15
625.574	14.94
625.766	14.93
625.958	14.96
626.15	14.86
626.342	14.79
626.534	14.73
626.726	14.76
626.918	14.74
627.11	14.74
627.302	14.64
627.494	14.62
627.686	14.58
627.878	14.53
628.07	14.46
628.262	14.57
628.454	14.58
628.646	14.55
628.838	14.58
629.029	14.54
629.221	14.44
629.413	14.4
629.605	14.24
629.797	14.26
629.989	14.28
630.18	14.36
630.372	14.33
630.564	14.42
630.755	14.32
630.947	14.25
631.139	14.09
631.33	14.06
631.522	14
631.714	13.93
631.905	13.91
632.097	13.93
632.289	13.92
632.48	13.87
632.672	13.84
632.863	13.76
633.055	13.72
633.246	13.69
633.438	13.71
633.629	13.66
633.821	13.74
634.012	13.7
634.203	13.59
634.395	13.57
634.586	13.65
634.777	13.53
634.969	13.47
635.16	13.55
635.351	13.52
635.543	13.44
635.734	13.49
635.925	13.52
636.117	13.53
636.308	13.53
636.499	13.54
636.69	13.46
636.881	13.5
637.073	13.53
637.264	13.48
637.455	13.36
637.646	13.37
637.837	13.39
638.028	13.34
638.219	13.34
638.41	13.39
638.601	13.41
638.792	13.36
638.983	13.33
639.174	13.28
639.365	13.24
639.556	13.17
639.747	13.09
639.938	13.16
640.129	13.28
640.32	13.37
640.511	13.4
640.701	13.41
640.892	13.3
641.083	13.16
641.274	13.08
641.465	13.09
641.655	13.01
641.846	12.98
642.037	12.98
642.228	12.96
642.418	12.88
642.609	12.86
642.8	12.89
642.99	12.73
643.181	12.73
643.372	12.75
643.562	12.77
643.753	12.71
643.943	12.83
644.134	12.74
644.324	12.76
644.515	12.68
644.705	12.7
644.896	12.71
645.086	12.71
645.277	12.64
645.467	12.71
645.658	12.64
645.848	12.56
646.038	12.57
646.229	12.55
646.419	12.51
646.61	12.58
646.8	12.59
646.99	12.52
647.18	12.46
647.371	12.47
647.561	12.38
647.751	12.27
647.941	12.24
648.132	12.3
648.322	12.25
648.512	12.2
648.702	12.22
648.892	12.24
649.082	12.22
649.272	12.12
649.462	12.18
649.653	12.17
649.843	12.14
650.033	12.16
650.223	12.24
650.413	12.23
650.603	12.28
650.793	12.27
650.983	12.21
651.172	12.13
651.362	12
651.552	11.86
651.742	11.79
651.932	11.76
652.122	11.84
652.312	11.84
652.502	11.78
652.691	11.82
652.881	11.79
653.071	11.68
653.261	11.66
653.45	11.68
653.64	11.48
653.83	11.37
654.019	11.23
654.209	11.16
654.399	11.08
654.588	11.12
654.778	11.1
654.968	11.03
655.157	10.9
655.347	10.87
655.536	10.76
655.726	10.61
655.915	10.59
656.105	10.51
656.294	10.39
656.484	10.21
656.673	10.15
656.863	10.05
657.052	9.93
657.241	9.73
657.431	9.68
657.62	9.53
657.809	9.34
657.999	9.32
658.188	9.26
658.377	9.14
658.567	9.04
658.756	8.87
658.945	8.7
659.134	8.55
659.324	8.5
659.513	8.44
659.702	8.41
659.891	8.41
660.08	8.37
660.269	8.28
660.458	8.17
660.648	8.16
660.837	8.06
661.026	7.99
661.215	7.96
661.404	7.85
661.593	7.72
661.782	7.59
661.971	7.58
662.16	7.46
662.349	7.38
662.538	7.36
662.726	7.36
662.915	7.25
663.104	7.24
663.293	7.21
663.482	7.17
663.671	7.12
663.86	7.05
664.048	7.03
664.237	7.1
664.426	7.14
664.615	7.04
664.803	7.07
664.992	6.99
665.181	6.93
665.369	6.8
665.558	6.82
665.747	6.87
665.935	6.89
666.124	6.82
666.312	6.85
666.501	6.83
666.69	6.74
666.878	6.64
667.067	6.6
667.255	6.62
667.444	6.67
667.632	6.76
667.82	6.8
668.009	6.9
668.197	6.87
668.386	6.81
668.574	6.77
668.762	6.78
668.951	6.86
669.139	6.84
669.327	6.81
669.516	6.8
669.704	6.85
669.892	6.82
670.08	6.93
670.269	7
670.457	7.02
670.645	7.01
670.833	7.03
671.021	7
671.21	6.98
671.398	7.08
671.586	7.04
671.774	7.12
671.962	7.16
672.15	7.29
672.338	7.31
672.526	7.47
672.714	7.36
672.902	7.29
673.09	7.42
673.278	7.36
673.466	7.46
673.654	7.77
673.842	7.93
674.03	7.95
674.218	8.15
674.405	8.16
674.593	8.06
674.781	8.06
674.969	7.9
675.157	7.91
675.344	7.96
675.532	7.97
675.72	8.05
675.908	8.22
676.095	8.13
676.283	8.11
676.471	8.2
676.658	8.21
676.846	8.34
677.033	8.55
677.221	8.64
677.409	8.59
677.596	8.74
677.784	8.77
677.971	8.82
678.159	8.86
678.346	9.04
678.534	9.08
678.721	9.04
678.909	9.05
679.096	9.22
679.283	9.3
679.471	9.37
679.658	9.64
679.846	9.72
680.033	9.8
680.22	9.88
680.408	9.84
680.595	9.83
680.782	9.77
680.969	9.68
681.157	9.61
681.344	9.7
681.531	9.72
681.718	9.84
681.905	9.91
682.093	9.98
682.28	10.16
682.467	10.22
682.654	10.24
682.841	10.37
683.028	10.56
683.215	10.67
683.402	10.82
683.589	11.12
683.776	11.36
683.963	11.43
684.15	11.52
684.337	11.58
684.524	11.76
684.711	11.8
684.898	12.03
685.085	12.24
685.271	12.35
685.458	12.27
685.645	12.48
685.832	12.66
686.019	12.76
686.205	13.05
686.392	13.39
686.579	13.5
686.766	13.71
686.952	13.95
687.139	14.25
687.326	14.59
687.512	14.87
687.699	15.07
687.886	15.26
688.072	15.43
688.259	15.85
688.445	16.37
688.632	16.67
688.818	17.3
689.005	17.79
689.191	17.97
689.378	18.26
689.564	18.78
689.751	19.13
689.937	19.69
690.124	20.14
690.31	20.45
690.496	20.92
690.683	21.27
690.869	21.61
691.055	22.1
691.242	22.72
691.428	23.22
691.614	23.81
691.8	24.43
691.987	24.95
692.173	25.8
692.359	26.49
692.545	27.04
692.731	27.54
692.918	28.06
693.104	28.45
693.29	29.13
693.476	29.75
693.662	30.46
693.848	31.29
694.034	31.74
694.22	32.47
694.406	33.28
694.592	34.05
694.778	34.61
694.964	35.28
695.15	35.64
695.336	36.01
695.522	36.48
695.708	37.12
695.894	37.86
696.08	38.83
696.265	39.59
696.451	40.57
696.637	41.22
696.823	41.79
697.009	42.22
697.194	42.84
697.38	43.31
697.566	44.07
697.751	44.73
697.937	45.34
698.123	45.97
698.308	46.69
698.494	47.34
698.68	48.17
698.865	48.71
699.051	49.42
699.236	50.14
699.422	50.75
699.607	51.37
699.793	52.02
699.978	52.54
700.164	53.14
700.349	53.91
700.535	54.22
700.72	54.67
700.906	55.48
701.091	55.78
701.276	56.24
701.462	56.96
701.647	57.62
701.832	58.4
702.018	59.22
702.203	59.61
702.388	60.02
702.573	60.35
702.759	60.24
702.944	60.37
703.129	60.8
703.314	61.49
703.499	62.35
703.684	62.5
703.87	62.71
704.055	62.95
704.24	63.03
704.425	63.22
704.61	63.68
704.795	63.96
704.98	64.44
705.165	64.87
705.35	65.3
705.535	65.58
705.72	66.31
705.905	66.65
706.09	67
706.275	67.49
706.459	68.31
706.644	68.51
706.829	68.87
707.014	69.53
707.199	69.5
707.384	69.44
707.568	69.59
707.753	70.07
707.938	70.03
708.123	70.82
708.307	71.12
708.492	71.43
708.677	71.23
708.861	71.31
709.046	71.04
709.231	71.87
709.415	72.3
709.6	72.86
709.784	73.3
709.969	73.89
710.153	73.84
710.338	73.96
710.522	74.2
710.707	75.07
710.891	75.01
711.076	75.33
711.26	75.73
711.445	75.45
711.629	75.07
711.813	74.89
711.998	74.71
712.182	74.81
712.366	75.75
712.551	76.14
712.735	76.7
712.919	76.86
713.103	76.89
713.288	76.41
713.472	76.56
713.656	76.49
713.84	77.45
714.024	77.73
714.208	78.76
714.393	78.46
714.577	78.63
714.761	78.45
714.945	78.81
715.129	77.96
715.313	78.58
715.497	79.28
715.681	79.38
715.865	79.24
716.049	79.49
716.233	79.61
716.417	79.58
716.601	79.26
716.785	79.55
716.968	79.92
717.152	79.92
717.336	80.03
717.52	80.32
717.704	79.93
717.888	79.61
718.071	79.32
718.255	78.91
718.439	78.66
718.622	78.76
718.806	79.13
718.99	79.89
719.174	80.54
719.357	81.05
719.541	81.77
719.724	82.41
719.908	81.88
720.092	82.17
720.275	82.68
720.459	82.7
720.642	82.91
720.826	82.88
721.009	82.67
721.193	82.29
721.376	82.19
721.559	82.21
721.743	82.73
721.926	83.05
722.11	82.91
722.293	82.99
722.476	83.07
722.66	82.95
722.843	82.25
723.026	82.78
723.21	82.98
723.393	82.37
723.576	82.55
723.759	82.7
723.942	82.58
724.126	82.68
724.309	83.36
724.492	83.33
724.675	84.58
724.858	85.04
725.041	85.23
725.224	85.25
725.407	85.38
725.59	84.86
725.774	84.24
725.957	84.6
726.14	85.18
726.322	85.18
726.505	85.64
726.688	86.32
726.871	86.22
727.054	85.68
727.237	86.21
727.42	86.48
727.603	86.82
727.786	86.75
727.968	86.27
728.151	86.4
728.334	86.6
728.517	86.7
728.699	87.01
728.882	87.66
729.065	87.55
729.248	87.37
729.43	86.91
729.613	87.39
729.796	87.65
729.978	88.19
730.161	88.03
730.343	88.31
730.526	88.03
730.708	88.42
730.891	88.32
731.073	88.08
731.256	88.03
731.438	88.05
731.621	88.15
731.803	89.15
731.986	89.57
732.168	90
732.35	90.31
732.533	90.67
732.715	89.28
732.898	88.89
733.08	88.94
733.262	89.76
733.444	89.2
733.627	89.73
733.809	90.22
733.991	90.44
734.173	89.4
734.355	89.94
734.538	90.45
734.72	90.44
734.902	90.63
735.084	90.77
735.266	90.58
735.448	90.39
735.63	90.36
735.812	90.58
735.994	90.89
736.176	90.55
736.358	90.26
736.54	90
736.722	89.31
736.904	90
737.086	90.49
737.268	91.23
737.45	92.77
737.632	92.8
737.814	92.15
737.995	92.5
738.177	91.71
738.359	90.45
738.541	91.95
738.723	93.19
738.904	93.22
739.086	93.93
739.268	94.41
739.449	92.78
739.631	91.34
739.813	92.03
739.994	92.67
740.176	92.46
740.358	93.84
740.539	95.31
740.721	94.09
740.902	93.92
741.084	94.7
741.265	93.82
741.447	92.81
741.628	94.36
741.81	92.96
741.991	92.85
742.172	93.83
742.354	93.7
742.535	92.09
742.717	92.19
742.898	91.59
743.079	91.4
743.261	92.45
743.442	93.15
743.623	94.19
743.804	94.99
743.986	95.73
744.167	94.2
744.348	94.01
744.529	93.87
744.71	93.98
744.891	93.07
745.073	94.26
745.254	95.59
745.435	96.35
745.616	95.17
745.797	94.55
745.978	94.71
746.159	94.16
746.34	93.69
746.521	95.02
746.702	94.25
746.883	91.9
747.064	89.76
747.245	90.46
747.426	91.45
747.606	92.11
747.787	94.08
747.968	96.53
748.149	97.03
748.33	95.33
748.51	96.6
748.691	95.66
748.872	94.42
749.053	92.17
749.233	92.61
749.414	92.28
749.595	93.8
749.775	93.34
749.956	95.4
750.137	94.79
750.317	94.81
750.498	93.45
750.678	93.76
750.859	91.32
751.04	91.66
751.22	91.38
751.4	92.09
751.581	92.46
751.761	93.83
751.942	95.87
752.122	95.46
752.303	93.28
752.483	94.97
752.663	95.93
752.844	93.43
753.024	94.57
753.204	96.09
753.385	94.13
753.565	92.85
753.745	94.4
753.925	95.11
754.106	95.1
754.286	95.86
754.466	96.12
754.646	95.92
754.826	94.38
755.006	94.17
755.187	92.85
755.367	92.25
755.547	92.38
755.727	93.74
755.907	93.2
756.087	93.83
756.267	93.73
756.447	93.17
756.627	90.56
756.807	91.34
756.987	91.93
757.167	92.46
757.346	92.71
757.526	94.68
757.706	94.9
757.886	95.38
758.066	96.05
758.246	96.3
758.425	94.41
758.605	94.5
758.785	95.2
758.965	95.36
759.144	94.5
759.324	95.3
759.504	96.14
759.683	96.24
759.863	96.1
760.043	95.83
760.222	94.23
760.402	92.97
760.581	92.24
760.761	91.82
760.94	92.7
761.12	98.08
761.299	98.12
761.479	97.86
761.658	97.83
761.838	96.32
762.017	93.75
762.197	93.64
762.376	92.65
762.555	91.97
762.735	91.93
762.914	91.94
763.093	93.6
763.273	93.37
763.452	93.73
763.631	94.73
763.81	93.67
763.99	92.55
764.169	93.34
764.348	93.19
764.527	91.23
764.706	91.33
764.885	91.02
765.064	91.36
765.243	91.22
765.423	93.59
765.602	94.12
765.781	94.44
765.96	91.28
766.139	90.53
766.318	88.37
766.497	88.04
766.676	87.55
766.854	92.31
767.033	92.62
767.212	93.62
767.391	92.87
767.57	92.48
767.749	91.21
767.928	91.38
768.106	90.61
768.285	89.59
768.464	89.12
768.643	87.01
768.821	86.52
769	87.91
769.179	89.32
769.357	89.58
769.536	89.88
769.715	89.71
769.893	89.16
770.072	88.07
770.25	87.78
770.429	87.38
770.607	89.12
770.786	89.98
770.964	91.75
771.143	92.33
771.321	93.23
771.5	92.41
771.678	92.69
771.857	92.26
772.035	92.34
772.213	91.8
772.392	91.11
772.57	88.43
772.748	86.16
772.927	87.36
773.105	87.79
773.283	88.45
773.461	90.56
773.64	93.19
773.818	92.3
773.996	93.39
774.174	91.94
774.352	91.7
774.531	91.11
774.709	89.77
774.887	89.55
775.065	88.82
775.243	88.35
775.421	87.1
775.599	89.68
775.777	87.7
775.955	88.53
776.133	88.33
776.311	90.01
776.489	89.48
776.667	88.77
776.844	90.64
777.022	91.71
777.2	90.09
777.378	87.48
777.556	88.3
777.734	87.87
777.911	87.74
778.089	89.33
778.267	90.21
778.445	87.49
778.622	87.76
778.8	86.78
778.978	85.48
779.155	85.78
779.333	90.31
779.511	88.8
779.688	88.11
779.866	86.88
780.043	85.19
780.221	80.96
780.398	82.92
780.576	81.74
780.753	80.16
780.931	81.25
781.108	83.46
781.286	82.23
781.463	84.87
781.64	86.81
781.818	88.67
781.995	90.8
782.172	90.11
782.35	87.99
782.527	88.95
782.704	87.19
782.882	85.36
783.059	83.95
783.236	83.19
783.413	83.75
783.59	84.44
783.768	82.2
783.945	83.28
784.122	86.27
784.299	85.24
784.476	85.13
784.653	88.38
784.83	88.78
785.007	83.43
785.184	82.16
785.361	84.01
785.538	83.14
785.715	84.19
785.892	90.16
786.069	89.12
786.246	87.23
786.423	88.61
786.6	86.85
786.776	85.15
786.953	86.7
787.13	89.52
787.307	86.93
787.484	89.33
787.66	87.68
787.837	91.25
788.014	90.32
788.191	91.77
788.367	93.27
788.544	96.34
788.721	94.86
788.897	92.37
789.074	90.14
789.25	85.41
789.427	83.25
789.603	78.74
789.78	80.45
789.956	84.73
790.133	85.93
790.309	84.62
790.486	86.69
790.662	85.53
790.839	79.7
791.015	76.64
791.192	76.13
791.368	76.21
791.544	74.15
791.721	82.62
791.897	87.06
792.073	88.21
792.249	88.12
792.426	92.5
792.602	90.19
792.778	84.96
792.954	83.41
793.13	83.97
793.307	83.1
793.483	80.82
793.659	86.72
793.835	83.52
794.011	83.35
794.187	80.26
794.363	76.41
794.539	76.68
794.715	78.62
794.891	74.08
795.067	74.28
795.243	78.29
795.419	79.4
795.595	84.56
795.771	88.57
795.947	90.2
796.122	88.57
796.298	87.27
796.474	85.7
796.65	83.64
796.826	85.93
797.001	88.16
797.177	88.03
797.353	87.56
797.529	93.1
797.704	90.31
797.88	90.82
798.056	90.74
798.231	89.06
798.407	85.12
798.582	90.29
798.758	92.91
798.934	93.59
799.109	89.21
799.285	91.88
799.46	80.1
799.636	80.14
799.811	78.41
799.986	85.72
800.162	89.62
800.337	94.32
800.513	94.07
800.688	91.47
800.863	94.18
801.039	92.34
801.214	101.42
801.389	93.5
801.565	88.33
801.74	83.79
801.915	79.97
802.09	79.45
802.265	79.9
802.441	88.23
802.616	85.6
802.791	81.89
802.966	83.24
803.141	82.66
803.316	76.65
803.491	77.1
803.666	80.98
803.841	80.41
804.016	88.35
804.191	90.64
804.366	93
804.541	92.26
804.716	91.56
804.891	79.71
805.066	75.89
805.241	71.02
805.416	69.39
805.591	64.84
805.765	67.01
805.94	67.42
806.115	74.67
806.29	77.47
806.464	76.06
806.639	73.72
806.814	73.23
806.989	61.66
807.163	60.7
807.338	60.03
807.512	63.77
807.687	62.8
807.862	68.88
808.036	73.46
808.211	71.77
808.385	66.98
808.56	66.54
808.734	60.96
808.909	61.86
809.083	61.32
809.258	57.89
809.432	64.81
809.606	73.52
809.781	65.59
809.955	65.48
810.13	76.16
810.304	68.38
810.478	59.28
810.652	67.82
810.827	74.59
811.001	69.73
811.175	78.04
811.349	94.33
811.524	74.03
811.698	68.93
811.872	78.77
812.046	77.7
812.22	75.43
812.394	87.96
812.568	92.17
812.742	88.08
812.916	91.58
813.09	91.89
813.264	103.86
813.438	99.65
813.612	102.15
813.786	97.33
813.96	91.28
814.134	83.93
814.308	83.58
814.482	85.42
814.656	94.01
814.83	92.4
815.003	91.45
815.177	92.91
815.351	94.42
815.525	89.69
815.698	100.26
815.872	93.13
816.046	90.5
816.219	79.75
816.393	67.94
816.567	77.92
816.74	77.75
816.914	82.03
817.088	90.41
817.261	90.13
817.435	75.7
817.608	81.66
817.782	71.38
817.955	66.66
818.129	74.51
818.302	75.54
818.475	68.88
818.649	81.58
818.822	81.61
818.996	82.39
819.169	74.82
819.342	82.37
819.516	76.97
819.689	77.94
819.862	66.62
820.035	70.58
820.209	66.74
820.382	67.44
820.555	65.05
820.728	79.22
820.901	73.48
821.075	74.56
821.248	71.53
821.421	70.1
821.594	67.06
821.767	74.87
821.94	79.58
822.113	74.86
822.286	67.2
822.459	70.12
822.632	66.91
822.805	38.13
822.978	53.03
823.151	73
823.324	69.18
823.496	65.56
823.669	80.95
823.842	76.89
824.015	76.22
824.188	71.96
824.361	74.59
824.533	68.96
824.706	77.77
824.879	66.23
825.051	80.63
825.224	84.01
825.397	75.94
825.569	72.51
825.742	74.56
825.915	67.75
826.087	75
826.26	78.71
826.432	79.49
826.605	87.95
826.777	82.84
826.95	80.27
827.122	98.54
827.295	99.38
827.467	106.66
827.64	87.93
827.812	69.84
827.984	70.36
828.157	66.33
828.329	64.12
828.501	80.39
828.674	97.52
828.846	81.21
829.018	89.17
829.19	80.78
829.363	93.6
829.535	98.03
829.707	103.72
829.879	89.71
830.051	85.83
830.223	75.23
830.395	55.97
830.568	51.87
830.74	64.01
830.912	57.51
831.084	66.72
831.256	74.31
831.428	71.07
831.6	74.34
831.772	81.21
831.943	54.71
832.115	60.64
832.287	53.72
832.459	50.96
832.631	62.75
832.803	70.74
832.975	74.51
833.146	86.95
833.318	79.57
833.49	76.53
833.662	76.92
833.833	71.42
834.005	58.36
834.177	64.39
834.348	57.93
834.52	47.96
834.692	62.8
834.863	79.27
835.035	66.65
835.206	54.87
835.378	65.9
835.549	59
835.721	59.75
835.892	65.71
836.064	78.98
836.235	77.88
836.407	71.52
836.578	75.86
836.749	83.01
836.921	68.11
837.092	61.95
837.264	60.09
837.435	49.67
837.606	26.37
837.777	35.1
837.949	57.85
838.12	56.25
838.291	47.86
838.462	58.97
838.633	62.46
838.805	52.47
838.976	64.92
839.147	62.34
839.318	63.44
839.489	63.05
839.66	52.5
839.831	38.34
840.002	39.81
840.173	29.63
840.344	9.86
840.515	8.72
840.686	12.86
840.857	26.38
841.028	30.22
841.199	47.29
841.369	51.07
841.54	85.24
841.711	72.89
841.882	94.16
842.053	87.66
842.223	75.4
842.394	64.71
842.565	59.83
842.736	59.96
842.906	67
843.077	83.69
843.248	76.43
843.418	106.2
843.589	95.48
843.759	98.2
843.93	114.54
844.101	112.05
844.271	105.43
844.442	99.51
844.612	100.24
844.783	86.2
844.953	81.07
845.123	79.86
845.294	77.98
845.464	70.18
845.635	39.91
845.805	57.5
845.975	67.08
846.146	64.61
846.316	59.21
846.486	78.57
846.656	71.12
846.827	71.74
846.997	67.04
847.167	76.41
847.337	57.05
847.507	57.91
847.677	66.3
847.848	90.65
848.018	90.62
848.188	112.63
848.358	127.23
848.528	64.71
848.698	43.58
848.868	28.34
849.038	29.86
849.208	26.93
849.378	78.62
849.548	91.12
849.718	100.38
849.887	81.3
850.057	88.22
850.227	70.21
850.397	75.08
850.567	103.03
850.737	93.36
850.906	68.66
851.076	62.04
851.246	51.6
851.415	40.47
851.585	41.25
851.755	43.08
851.924	69.22
852.094	67.72
852.264	58.76
852.433	59.74
852.603	74.15
852.772	52.18
852.942	49.37
853.111	33.13
853.281	33.71
853.45	21.72
853.62	16.78
853.789	17.45
853.959	47.66
854.128	32.85
854.297	34.9
854.467	35.44
854.636	57.84
854.805	47.9
854.975	82.2
855.144	107.74
855.313	53.69
855.482	58.22
855.652	55.02
855.821	64.44
855.99	65.58
856.159	133.13
856.328	131.76
856.497	138.51
856.667	125.74
856.836	247.99
857.005	182.19
857.174	163.18
857.343	157.84
857.512	46.79
857.681	14.57
857.85	47.07
858.019	48.26
858.188	52.36
858.356	51.28
858.525	35.55
858.694	44.11
858.863	53.23
859.032	101.57
859.201	118.73
859.369	123.68
859.538	170.49
859.707	96.29
859.876	91.23
860.044	91.77
860.213	91.55
860.382	77.94
860.55	153.51
860.719	163.19
860.888	108.93
861.056	87.6
861.225	69.66
861.393	54.08
861.562	38.85
861.73	62.99
861.899	80.12
862.067	100.69
862.236	108.52
862.404	86.45
862.572	91.66
862.741	66.14
862.909	48.66
863.078	18.2
863.246	34.72
863.414	35.78
863.582	34.88
863.751	34.15
863.919	10
864.087	48.27
864.255	34.49
864.424	37.94
864.592	36.17
864.76	80.86
864.928	67.02
865.096	78.01
865.264	75.09
865.432	91.02
865.6	54.95
865.768	32.08
865.936	44.87
866.104	45.05
866.272	49.39
866.44	56.86
866.608	82.16
866.776	57.32
866.944	90.53
867.112	33.6
867.28	-77.3
867.448	-12.44
867.615	31.78
867.783	27.46
867.951	60.76
868.119	78.08
868.286	49.35
868.454	48.06
868.622	19.97
868.789	-16.17
868.957	15.62
869.125	-12.95
869.292	-35.24
869.46	-43.66
869.627	6.47
869.795	-6.25
869.963	1.51
870.13	16.24
870.298	21.62
870.465	-22.91
870.632	-8.63
870.8	27.47
870.967	20.61
871.135	31.2
871.302	89.83
871.469	-53.39
871.637	7.18
871.804	60.38
871.971	38.87
872.139	37.35
872.306	60.44
872.473	75.54
872.64	53.48
872.807	89.51
872.975	164.89
873.142	182.13
873.309	3375.36
873.476	949.88
873.643	250.54
873.81	155.21
873.977	105.79
874.144	92.6
874.311	47.53
874.478	35.75
874.645	24.76
874.812	41.32
874.979	9.67
875.146	8.26
875.313	3.44
875.48	-87.52
875.647	208.55
875.813	165.78
875.98	-25.25
876.147	-33.33
876.314	60.7
876.481	17.48
876.647	58.12
876.814	66.81
876.981	99.49
877.147	86.91
877.314	49.7
877.481	50.08
877.647	91.1
877.814	95.12
877.98	63.26
878.147	123.31
878.314	136.02
878.48	68.04
878.647	161.63
878.813	1563.57
878.979	179.75
879.146	137.28
879.312	123.35
879.479	48.94
879.645	71.65
879.811	59.56
879.978	82.99
880.144	67.64
880.31	74.08
880.477	45.93
880.643	69.95
880.809	103.68
880.975	6293.94
881.142	-396.76
881.308	-3441.33
881.474	424.83
881.64	235.75
881.806	92.74
881.972	115.65
882.138	79.29
882.304	78.29
882.47	48.85
882.636	37.67
882.802	46.23
882.968	94.25
883.134	90.51
883.3	52.17
883.466	72.36
883.632	82.73
883.798	56.5
883.964	36.36
884.129	127.75
884.295	98.64
884.461	63.74
884.627	71.89
884.793	50.73
884.958	26.58
885.124	27.43
885.29	-6.7
885.455	-53.18
885.621	-39.14
885.787	-98.12
885.952	193.88
886.118	170.18
886.283	-2271.93
886.449	-53.82
886.614	11.38
886.78	3.24
886.945	-36.82
887.111	-18.04
887.276	1.37
887.442	19.96
887.607	16.42
887.773	45.43
887.938	40.52
888.103	20.75
888.269	15.36
888.434	1.59
888.599	-27.77
888.764	26.52
888.93	21.04
889.095	74.27
889.26	188.62
889.425	470.37
889.59	-1194.69
889.756	751.4
889.921	165.38
890.086	148.77
890.251	72.06
890.416	0.05
890.581	-12.34
890.746	75.23
890.911	88.98
891.076	98.02
891.241	102.71
891.406	101.63
891.571	30.5
891.736	28.51
891.901	-36.56
892.065	40.12
892.23	84.05
892.395	64.75
892.56	26.06
892.725	84.01
892.889	74.13
893.054	36.66
893.219	-22.71
893.384	-35.89
893.548	-208.24
893.713	875.31
893.878	202.56
