Data from Ofav_PS_Phys_CX_Reflection_3.txt Node
Date: Thu Jul 29 18:21:05 EDT 2021
User: USUARIO
Spectrometer: FLMT01687
Trigger mode: 0
Integration Time (sec): 9.010000E-1
Scans to average: 2
Electric dark correction enabled: true
Nonlinearity correction enabled: false
Boxcar width: 2
XAxis mode: Wavelengths
Number of Pixels in Spectrum: 3648
>>>>>Begin Spectral Data<<<<<
179.494	272.38
179.716	263.51
179.937	244.34
180.158	-1467.8
180.38	-116.32
180.601	-974.8
180.823	-411.76
181.044	-158.38
181.265	-88.83
181.486	-511.86
181.708	165.55
181.929	501.26
182.15	7628.57
182.372	-136.94
182.593	-44.91
182.814	-28.4
183.035	-488.66
183.257	176.94
183.478	62.76
183.699	82.62
183.92	66.29
184.141	76.75
184.363	75.17
184.584	84.73
184.805	48.6
185.026	77.28
185.247	43.54
185.468	48.71
185.689	33.91
185.91	90.72
186.132	12.3
186.353	49.26
186.574	64.46
186.795	71.36
187.016	47.93
187.237	42.25
187.458	11.75
187.679	-1.21
187.9	5.92
188.121	-1.08
188.342	24.33
188.563	57.73
188.784	57.7
189.005	41.96
189.226	50.83
189.447	44.39
189.667	46.23
189.888	59.8
190.109	58.92
190.33	29.28
190.551	19.81
190.772	3.86
190.993	-5.03
191.214	19.15
191.434	36.29
191.655	44.37
191.876	33.63
192.097	11.32
192.318	34.84
192.538	31.37
192.759	52.6
192.98	64.79
193.201	64.95
193.421	51.67
193.642	44.43
193.863	3.54
194.083	-40
194.304	-7.27
194.525	10.01
194.745	12.47
194.966	19.71
195.187	22.61
195.407	-1.52
195.628	-52.67
195.848	-33.66
196.069	19.58
196.29	24.41
196.51	33.8
196.731	28.01
196.951	19.21
197.172	-23.51
197.392	-10.73
197.613	-25.52
197.833	1.03
198.054	5.06
198.274	12.29
198.495	36.66
198.715	33.06
198.936	37.01
199.156	40.12
199.377	41.74
199.597	28.41
199.817	38.22
200.038	16.26
200.258	8.97
200.479	-28.57
200.699	-25.76
200.919	-11.89
201.14	-0.91
201.36	17.98
201.58	30.32
201.801	24.75
202.021	34.71
202.241	43.44
202.461	39.62
202.682	26.78
202.902	77.98
203.122	57.2
203.342	88.98
203.563	104.51
203.783	101.75
204.003	68.86
204.223	137.61
204.443	69.96
204.663	65.26
204.884	62.74
205.104	72.57
205.324	34.37
205.544	32.87
205.764	26.96
205.984	30.17
206.204	27.55
206.424	52.63
206.644	52.35
206.864	23.47
207.084	6.98
207.304	29.64
207.525	-22.51
207.745	5.98
207.964	49.63
208.184	87.94
208.404	61.52
208.624	78.76
208.844	71.86
209.064	73.01
209.284	82.94
209.504	100.17
209.724	109.97
209.944	99.01
210.164	88.83
210.384	69.39
210.604	46.14
210.823	34.82
211.043	25.35
211.263	44.78
211.483	22.17
211.703	31.01
211.922	25.47
212.142	37.69
212.362	21.2
212.582	34.84
212.801	44.57
213.021	35.04
213.241	25.21
213.461	24.28
213.68	8.73
213.9	0.65
214.12	13.8
214.339	13.82
214.559	-4.74
214.779	38.09
214.998	14.48
215.218	4.81
215.438	27.9
215.657	45.54
215.877	30.82
216.096	34.52
216.316	19.75
216.535	-34.04
216.755	-114.54
216.974	-170.61
217.194	-111.54
217.413	-50.36
217.633	-6.07
217.852	6.9
218.072	15.05
218.291	31.25
218.511	47.6
218.73	36.86
218.95	37.54
219.169	38.59
219.389	16.36
219.608	-16.5
219.827	-21.41
220.047	2.19
220.266	-7.93
220.485	7.46
220.705	12.88
220.924	-0.82
221.143	-1.44
221.363	-14.43
221.582	-36.06
221.801	-101.02
222.021	-36.8
222.24	-49.42
222.459	-21.21
222.678	-5.21
222.897	11.11
223.117	9.14
223.336	8.8
223.555	16.84
223.774	44.77
223.993	41.46
224.213	53.28
224.432	57.68
224.651	59.34
224.87	45.17
225.089	47.85
225.308	53.7
225.527	55.53
225.746	50.64
225.965	66.96
226.184	52.21
226.404	49.02
226.623	55.93
226.842	30.11
227.061	25.99
227.28	40.71
227.499	35.54
227.718	9.17
227.936	38.62
228.155	33.98
228.374	10.48
228.593	-8.71
228.812	-10.09
229.031	-19.35
229.25	-9.62
229.469	2.48
229.688	18.23
229.907	38.22
230.125	39.54
230.344	48.67
230.563	58.87
230.782	76.01
231.001	34.1
231.22	21.06
231.438	10.87
231.657	3.38
231.876	-12.64
232.095	-29.35
232.313	-24.33
232.532	-18.61
232.751	-19.15
232.969	2.91
233.188	33.58
233.407	44.27
233.625	43.55
233.844	44.36
234.063	46.32
234.281	25.42
234.5	24.04
234.719	19.32
234.937	23.41
235.156	7.66
235.374	44.25
235.593	54.13
235.811	56.37
236.03	32.35
236.249	26.72
236.467	18.15
236.686	23.57
236.904	15.56
237.123	37.06
237.341	29.52
237.559	26.65
237.778	19.21
237.996	27.34
238.215	16.91
238.433	32.24
238.652	35.27
238.87	32.37
239.088	35.28
239.307	29.19
239.525	40.49
239.743	38.56
239.962	33.99
240.18	27.36
240.398	26.46
240.617	-9.25
240.835	-13.2
241.053	-8.46
241.271	-7.16
241.49	0.8
241.708	26.97
241.926	25.99
242.144	20.47
242.363	28.25
242.581	22.33
242.799	17.25
243.017	22.48
243.235	14.04
243.453	13.85
243.672	16.37
243.89	14.08
244.108	16.54
244.326	57.33
244.544	38.49
244.762	44.67
244.98	49.59
245.198	35.62
245.416	12.61
245.634	41.31
245.852	41.46
246.07	57.03
246.288	48.24
246.506	40.23
246.724	39.71
246.942	34.06
247.16	33.79
247.378	37.28
247.596	40.12
247.814	29.66
248.032	30.89
248.25	16.51
248.468	28.12
248.685	33.11
248.903	32.96
249.121	28.8
249.339	5.79
249.557	-8.92
249.775	-7.61
249.992	-24.52
250.21	-8.96
250.428	14.55
250.646	16.67
250.863	21.03
251.081	25.01
251.299	36.33
251.517	41.1
251.734	71.21
251.952	56.6
252.17	49.75
252.387	28.51
252.605	28.54
252.823	5.37
253.04	28.03
253.258	36.52
253.475	50.3
253.693	41.46
253.911	48.12
254.128	44.74
254.346	39.96
254.563	27.05
254.781	20.19
254.998	11.49
255.216	-3.25
255.433	14.74
255.651	8.79
255.868	25.71
256.086	35.21
256.303	51.95
256.521	47.68
256.738	48.79
256.956	44.27
257.173	48.1
257.39	34.32
257.608	29.76
257.825	48.45
258.043	42.81
258.26	27.07
258.477	21.55
258.695	2.77
258.912	-16.49
259.129	0.82
259.346	-6.9
259.564	-34.98
259.781	-5.45
259.998	4.39
260.216	19.09
260.433	21.61
260.65	36.71
260.867	54.21
261.084	55.53
261.302	14.56
261.519	1.08
261.736	12.32
261.953	-6.94
262.17	1.34
262.387	-2.13
262.604	12.42
262.822	-7.37
263.039	12.07
263.256	1.11
263.473	22.74
263.69	-7.37
263.907	17.29
264.124	8.47
264.341	36.1
264.558	43.97
264.775	61.65
264.992	72.62
265.209	57.28
265.426	49.21
265.643	47.32
265.86	48.1
266.077	43.95
266.294	50.8
266.51	30.37
266.727	30.41
266.944	30.03
267.161	15.85
267.378	8.31
267.595	47.6
267.812	51.95
268.028	32.38
268.245	39.1
268.462	54.17
268.679	29.33
268.896	13.72
269.112	36.44
269.329	33.05
269.546	32.03
269.763	33.27
269.979	41.32
270.196	38.28
270.413	25.21
270.629	8.93
270.846	14.14
271.063	13.06
271.279	18.92
271.496	16.83
271.712	18.72
271.929	24.02
272.146	34.12
272.362	20.65
272.579	50.31
272.795	75.09
273.012	51.01
273.228	30.72
273.445	38.94
273.661	24.77
273.878	-0.11
274.094	25.29
274.311	37.47
274.527	28.99
274.744	21.58
274.96	33.71
275.177	19.69
275.393	22.89
275.609	33.6
275.826	29.96
276.042	26.13
276.259	10.31
276.475	19.5
276.691	10.1
276.908	25.94
277.124	28.92
277.34	46.63
277.557	33.58
277.773	9.65
277.989	-12.24
278.205	-21.1
278.422	-30.66
278.638	-30.25
278.854	-21.05
279.07	22.34
279.286	14
279.503	38.51
279.719	38.44
279.935	46.91
280.151	26.34
280.367	36.76
280.583	22.49
280.799	25.01
281.016	28.73
281.232	42.52
281.448	34.65
281.664	48.69
281.88	34.25
282.096	30.01
282.312	9.28
282.528	11.2
282.744	15.66
282.96	20.96
283.176	16.92
283.392	30.56
283.608	18.49
283.824	4.4
284.04	-3.85
284.256	6.96
284.471	-9.73
284.687	8.91
284.903	-9.04
285.119	15.69
285.335	-5.02
285.551	7.03
285.767	15.78
285.982	24.15
286.198	30.52
286.414	49.07
286.63	55.04
286.846	38.76
287.061	31.47
287.277	27.05
287.493	15.41
287.709	10.29
287.924	23.77
288.14	26.18
288.356	33.46
288.571	36.7
288.787	23.55
289.003	27.84
289.218	29.68
289.434	16.87
289.65	27.85
289.865	48.82
290.081	27.69
290.296	26.39
290.512	27.38
290.727	9.72
290.943	-13.71
291.159	-1.29
291.374	4.31
291.59	1.29
291.805	-5.72
292.021	12.65
292.236	12.03
292.451	-14.37
292.667	-16.15
292.882	-15.34
293.098	-13.19
293.313	-19.09
293.529	15.7
293.744	5.72
293.959	9.15
294.175	7.58
294.39	-3.67
294.605	-8.29
294.821	3.43
295.036	10.36
295.251	-1.2
295.467	14.7
295.682	11.65
295.897	6.07
296.112	0.07
296.328	6.8
296.543	3.01
296.758	-2.27
296.973	0.25
297.188	11.54
297.404	5.41
297.619	15.47
297.834	0.93
298.049	12.51
298.264	8.82
298.479	23.85
298.694	8.21
298.909	19.63
299.125	14.79
299.34	21.73
299.555	-0.12
299.77	6.9
299.985	-19.09
300.2	-5.47
300.415	-3.52
300.63	23.28
300.845	15.59
301.06	36.23
301.275	36.63
301.49	33.74
301.704	9.11
301.919	11.31
302.134	9.17
302.349	3.37
302.564	3.07
302.779	12.61
302.994	17.26
303.209	22.85
303.423	25.72
303.638	16.28
303.853	-6.65
304.068	9.97
304.283	6.97
304.497	16.38
304.712	1.48
304.927	7.04
305.142	-8.21
305.356	-15.12
305.571	4.15
305.786	27.47
306	13.78
306.215	21.95
306.43	22.93
306.644	-0.13
306.859	10.45
307.074	26.54
307.288	32.32
307.503	39.55
307.717	31.64
307.932	14.36
308.147	9.11
308.361	-9.96
308.576	-18.84
308.79	-24.25
309.005	2.81
309.219	8.21
309.434	27.77
309.648	28.08
309.863	28.84
310.077	25.01
310.292	30.8
310.506	17.65
310.72	20.97
310.935	12.95
311.149	3.69
311.364	-1.87
311.578	11.51
311.792	-1.88
312.007	6.76
312.221	13.25
312.435	24.13
312.649	18.03
312.864	35.45
313.078	46.32
313.292	33.3
313.507	11.75
313.721	-0.76
313.935	23.88
314.149	18.33
314.363	16.5
314.578	16.24
314.792	27.96
315.006	30.43
315.22	25.63
315.434	17.97
315.648	26.89
315.862	19.48
316.077	-1.82
316.291	-1.7
316.505	18.06
316.719	25.05
316.933	30.09
317.147	41.08
317.361	25.26
317.575	23.11
317.789	4.53
318.003	18.52
318.217	27.06
318.431	34.16
318.645	27.7
318.859	38.15
319.073	24.77
319.287	15.86
319.5	5.48
319.714	25.2
319.928	31.87
320.142	43.73
320.356	52.58
320.57	63.09
320.784	50.38
320.997	30.56
321.211	27.56
321.425	24.03
321.639	17.16
321.853	24.33
322.066	16.8
322.28	16.3
322.494	23.76
322.707	32.23
322.921	16.59
323.135	16.9
323.349	37.15
323.562	11.48
323.776	-2.83
323.989	9.88
324.203	18.87
324.417	-20.2
324.63	-8.22
324.844	4.06
325.057	0.07
325.271	-1.23
325.485	2.26
325.698	14.07
325.912	22.56
326.125	23.14
326.339	30
326.552	44.65
326.766	41.35
326.979	35.4
327.193	41.04
327.406	30.58
327.619	18.44
327.833	19.77
328.046	15.61
328.26	23.27
328.473	23.41
328.686	21.01
328.9	14.01
329.113	25.21
329.326	-8.05
329.54	-15.86
329.753	4.3
329.966	0.95
330.179	-2.77
330.393	16.67
330.606	26.39
330.819	31.57
331.032	46.23
331.246	36.06
331.459	8.3
331.672	0.12
331.885	2.01
332.098	-7.67
332.311	25.49
332.525	39.12
332.738	27.63
332.951	12.95
333.164	24.32
333.377	1
333.59	9.51
333.803	27.7
334.016	42.57
334.229	17.07
334.442	30.12
334.655	30.29
334.868	16.81
335.081	16.46
335.294	33.74
335.507	30.96
335.72	23.1
335.933	23.22
336.146	26.56
336.359	33.42
336.572	15.24
336.785	12.89
336.997	22.58
337.21	16.86
337.423	9.87
337.636	14.01
337.849	17.99
338.062	15.75
338.274	7.95
338.487	-6.77
338.7	-3.3
338.913	15.43
339.125	12.37
339.338	5.23
339.551	19.86
339.763	18.8
339.976	0.86
340.189	-0.95
340.402	4.59
340.614	-40.63
340.827	-26.36
341.039	-3.94
341.252	-0.57
341.465	15.05
341.677	33.68
341.89	27.63
342.102	24.97
342.315	23.81
342.527	27.54
342.74	28.24
342.952	28.85
343.165	34.19
343.377	42.37
343.59	32.15
343.802	34.27
344.015	28.62
344.227	19.56
344.44	4.86
344.652	6.98
344.864	4.66
345.077	13.78
345.289	20.57
345.502	32.1
345.714	19.04
345.926	8.16
346.139	-8.08
346.351	-9.88
346.563	-1.31
346.775	2.12
346.988	5.24
347.2	12.75
347.412	2.17
347.624	4.17
347.837	-2.71
348.049	-2.35
348.261	2.43
348.473	12.45
348.685	12.04
348.897	28.1
349.11	34
349.322	34.25
349.534	34.81
349.746	28.55
349.958	25.93
350.17	8.64
350.382	16.03
350.594	16.46
350.806	35.46
351.018	18.74
351.23	14.57
351.442	-4.25
351.654	14.32
351.866	-12.19
352.078	15.15
352.29	24.47
352.502	43.99
352.714	46.74
352.926	60.87
353.138	66.14
353.35	45.8
353.561	18.53
353.773	15.51
353.985	14.08
354.197	12.41
354.409	19
354.621	20.41
354.832	12.14
355.044	6.94
355.256	18.24
355.468	18.16
355.679	28.28
355.891	31.94
356.103	32.67
356.314	29.49
356.526	29.1
356.738	30.12
356.949	31.3
357.161	42.39
357.373	40
357.584	46.96
357.796	41.71
358.008	33.2
358.219	26.16
358.431	26.82
358.642	10.31
358.854	11.88
359.065	12.93
359.277	6.25
359.488	12.6
359.7	26.36
359.911	33.08
360.123	35.21
360.334	35.57
360.546	24.3
360.757	19.79
360.969	14.21
361.18	23.17
361.391	18.55
361.603	26.99
361.814	38.94
362.025	32.58
362.237	14.56
362.448	19.82
362.659	12.42
362.871	9.15
363.082	-3.94
363.293	-1.31
363.504	-4.04
363.716	-5.93
363.927	-10.77
364.138	-1.97
364.349	17.68
364.56	17.85
364.772	21.55
364.983	21.33
365.194	21.82
365.405	17.04
365.616	12.28
365.827	14.36
366.038	3.92
366.25	-8.58
366.461	-10.52
366.672	-3.41
366.883	8.21
367.094	-1.94
367.305	20.26
367.516	19.94
367.727	16.3
367.938	9.27
368.149	18.81
368.36	10.81
368.571	16.31
368.781	3
368.992	2.05
369.203	12.27
369.414	9.45
369.625	8.52
369.836	23.45
370.047	23.94
370.258	25.24
370.468	29.67
370.679	21.32
370.89	5.01
371.101	27.84
371.312	18.48
371.522	22.36
371.733	25.82
371.944	28.07
372.155	0.76
372.365	15.38
372.576	9.36
372.787	10.98
372.997	26.75
373.208	24.75
373.419	19.77
373.629	22.56
373.84	24.36
374.05	16.94
374.261	15.69
374.472	7.3
374.682	-6.62
374.893	3.62
375.103	6.48
375.314	15.14
375.524	19.73
375.735	32.06
375.945	30.57
376.156	33.32
376.366	20.68
376.577	28.44
376.787	28.31
376.997	23.24
377.208	27.49
377.418	29.84
377.629	17.68
377.839	14.97
378.049	26.13
378.26	16.16
378.47	16.01
378.68	23.51
378.89	22.34
379.101	13.51
379.311	8.59
379.521	5.12
379.732	-4.49
379.942	-1.08
380.152	-7.82
380.362	-10.58
380.572	-10.1
380.783	0.4
380.993	6.24
381.203	13.7
381.413	24.43
381.623	29.89
381.833	29.7
382.043	20.13
382.253	20.66
382.463	19.03
382.674	15.54
382.884	13.28
383.094	1.25
383.304	-0.04
383.514	-0.11
383.724	10.65
383.934	7.46
384.144	18.34
384.353	19.33
384.563	21.88
384.773	15.71
384.983	17.52
385.193	17.15
385.403	10.61
385.613	10.36
385.823	10.81
386.033	5.9
386.242	1.74
386.452	5.76
386.662	5.45
386.872	9.2
387.082	8.33
387.291	7.23
387.501	5.82
387.711	2.85
387.921	-2.06
388.13	0.48
388.34	1.49
388.55	1.83
388.759	1.78
388.969	2.38
389.179	0.98
389.388	3.98
389.598	4.13
389.807	4.14
390.017	2.94
390.227	7.9
390.436	6.04
390.646	4.22
390.855	4.7
391.065	4.23
391.274	0.14
391.484	-0.35
391.693	-0.71
391.903	-0.76
392.112	-0.76
392.322	-0.01
392.531	-1.16
392.74	-0.48
392.95	0.86
393.159	1.83
393.369	3.67
393.578	4.68
393.787	5.02
393.997	3.18
394.206	2.93
394.415	2.74
394.625	3.01
394.834	2.64
395.043	2.78
395.252	3.98
395.462	3.02
395.671	3.7
395.88	4.33
396.089	5.25
396.298	4.33
396.508	4.43
396.717	4.15
396.926	4.42
397.135	3.57
397.344	3.72
397.553	3.83
397.762	3.99
397.971	3.82
398.181	4.5
398.39	4.25
398.599	4.31
398.808	3.87
399.017	4.56
399.226	4.26
399.435	4.34
399.644	4.81
399.853	4.79
400.062	4.44
400.27	4.9
400.479	4.96
400.688	4.5
400.897	4.5
401.106	4.55
401.315	4.02
401.524	4.03
401.733	4.02
401.941	4.22
402.15	4.07
402.359	4.02
402.568	4.09
402.777	4.05
402.985	3.86
403.194	3.63
403.403	3.78
403.612	3.76
403.82	3.68
404.029	3.69
404.238	3.78
404.446	3.85
404.655	3.68
404.864	3.82
405.072	3.71
405.281	3.74
405.489	3.64
405.698	3.73
405.906	3.67
406.115	3.62
406.324	3.59
406.532	3.68
406.741	3.72
406.949	3.78
407.158	3.86
407.366	3.79
407.574	3.64
407.783	3.59
407.991	3.36
408.2	3.32
408.408	3.2
408.617	3.32
408.825	3.34
409.033	3.49
409.242	3.63
409.45	3.81
409.658	3.79
409.867	3.81
410.075	3.78
410.283	3.71
410.491	3.56
410.7	3.53
410.908	3.59
411.116	3.72
411.324	3.66
411.533	3.84
411.741	3.85
411.949	3.68
412.157	3.49
412.365	3.34
412.573	3.24
412.781	3.22
412.99	3.32
413.198	3.4
413.406	3.53
413.614	3.44
413.822	3.48
414.03	3.38
414.238	3.3
414.446	3.4
414.654	3.36
414.862	3.25
415.07	3.11
415.278	3.13
415.486	2.88
415.694	2.98
415.902	3.04
416.109	3.22
416.317	3.15
416.525	3.25
416.733	3.28
416.941	3.21
417.149	3.16
417.357	3.17
417.564	3.26
417.772	3.11
417.98	3.28
418.188	3.22
418.395	3.14
418.603	2.97
418.811	3.15
419.019	3.1
419.226	3.26
419.434	3.35
419.642	3.44
419.849	3.29
420.057	3.1
420.265	3.04
420.472	2.97
420.68	3.06
420.887	3.08
421.095	3.15
421.302	3.09
421.51	3.1
421.717	2.98
421.925	3.15
422.132	3.25
422.34	3.04
422.547	2.9
422.755	2.98
422.962	2.92
423.17	2.8
423.377	3.07
423.585	3.29
423.792	3.21
423.999	3.1
424.207	3.16
424.414	3.07
424.621	3.09
424.829	3.12
425.036	3.19
425.243	3.2
425.451	3.07
425.658	2.97
425.865	2.9
426.072	2.87
426.28	3.04
426.487	3.28
426.694	3.22
426.901	3.16
427.108	3.16
427.315	3.05
427.523	3.06
427.73	3.14
427.937	3.19
428.144	3.07
428.351	2.95
428.558	2.96
428.765	3.11
428.972	3.3
429.179	3.4
429.386	3.41
429.593	3.33
429.8	3.27
430.007	3.22
430.214	3.38
430.421	3.55
430.628	3.47
430.835	3.43
431.042	3.24
431.249	3.21
431.456	2.98
431.662	3.17
431.869	3.28
432.076	3.55
432.283	3.57
432.49	3.66
432.697	3.78
432.903	3.64
433.11	3.57
433.317	3.5
433.524	3.7
433.73	3.62
433.937	3.69
434.144	3.68
434.35	3.83
434.557	3.65
434.764	3.53
434.97	3.46
435.177	3.64
435.384	3.49
435.59	3.53
435.797	3.65
436.003	3.67
436.21	3.48
436.416	3.55
436.623	3.53
436.829	3.51
437.036	3.52
437.242	3.59
437.449	3.67
437.655	3.86
437.862	3.87
438.068	3.99
438.275	4.08
438.481	4.02
438.687	3.93
438.894	3.96
439.1	4.03
439.307	4
439.513	4.1
439.719	4.06
439.926	4
440.132	3.93
440.338	4.06
440.544	4.01
440.751	4.07
440.957	4.2
441.163	4.24
441.369	4.19
441.575	4.24
441.782	4.28
441.988	4.28
442.194	4.24
442.4	4.22
442.606	4.3
442.812	4.31
443.018	4.39
443.224	4.49
443.431	4.47
443.637	4.37
443.843	4.42
444.049	4.44
444.255	4.46
444.461	4.57
444.667	4.59
444.873	4.46
445.079	4.39
445.284	4.38
445.49	4.24
445.696	4.27
445.902	4.33
446.108	4.34
446.314	4.32
446.52	4.47
446.726	4.52
446.931	4.53
447.137	4.56
447.343	4.61
447.549	4.48
447.755	4.36
447.96	4.5
448.166	4.58
448.372	4.54
448.578	4.76
448.783	4.87
448.989	4.94
449.195	4.79
449.4	4.87
449.606	4.77
449.812	4.71
450.017	4.63
450.223	4.74
450.428	4.75
450.634	4.76
450.84	4.97
451.045	4.94
451.251	4.97
451.456	5.02
451.662	5.01
451.867	4.85
452.073	4.87
452.278	4.85
452.483	4.85
452.689	4.94
452.894	4.99
453.1	5.06
453.305	5.05
453.51	4.97
453.716	4.97
453.921	5.03
454.127	5.03
454.332	4.92
454.537	4.96
454.742	4.92
454.948	4.85
455.153	4.83
455.358	4.98
455.563	4.95
455.769	4.93
455.974	5.07
456.179	5.01
456.384	4.96
456.589	5.06
456.795	5.08
457	5.11
457.205	5.3
457.41	5.34
457.615	5.31
457.82	5.41
458.025	5.29
458.23	5.23
458.435	5.25
458.64	5.33
458.845	5.28
459.05	5.32
459.255	5.36
459.46	5.4
459.665	5.36
459.87	5.4
460.075	5.42
460.28	5.39
460.485	5.39
460.69	5.36
460.895	5.32
461.099	5.35
461.304	5.29
461.509	5.29
461.714	5.34
461.919	5.33
462.123	5.29
462.328	5.37
462.533	5.5
462.738	5.49
462.942	5.58
463.147	5.78
463.352	5.78
463.556	5.72
463.761	5.79
463.966	5.81
464.17	5.72
464.375	5.7
464.58	5.66
464.784	5.65
464.989	5.59
465.193	5.6
465.398	5.77
465.602	5.87
465.807	5.82
466.011	5.94
466.216	5.89
466.42	5.83
466.625	6
466.829	6.16
467.034	6.25
467.238	6.38
467.443	6.27
467.647	6.03
467.851	6
468.056	5.97
468.26	5.89
468.464	6.05
468.669	6.23
468.873	6.23
469.077	6.17
469.282	6.18
469.486	6.15
469.69	6.05
469.894	6.02
470.099	5.99
470.303	6.11
470.507	6.08
470.711	6.12
470.915	6.27
471.119	6.24
471.324	6.19
471.528	6.3
471.732	6.35
471.936	6.29
472.14	6.43
472.344	6.49
472.548	6.43
472.752	6.46
472.956	6.43
473.16	6.47
473.364	6.5
473.568	6.48
473.772	6.46
473.976	6.53
474.18	6.61
474.384	6.65
474.588	6.64
474.792	6.69
474.995	6.75
475.199	6.75
475.403	6.59
475.607	6.66
475.811	6.62
476.015	6.59
476.218	6.49
476.422	6.62
476.626	6.63
476.83	6.63
477.033	6.64
477.237	6.64
477.441	6.56
477.644	6.59
477.848	6.65
478.052	6.63
478.255	6.66
478.459	6.72
478.663	6.73
478.866	6.76
479.07	6.79
479.273	6.82
479.477	6.78
479.681	6.85
479.884	6.84
480.088	6.74
480.291	6.83
480.495	6.9
480.698	6.79
480.901	6.75
481.105	6.79
481.308	6.69
481.512	6.73
481.715	6.69
481.919	6.69
482.122	6.81
482.325	6.79
482.529	6.8
482.732	6.92
482.935	6.92
483.138	6.82
483.342	6.82
483.545	6.87
483.748	6.86
483.952	6.93
484.155	7.04
484.358	7.05
484.561	7.02
484.764	7
484.967	7.02
485.171	6.95
485.374	6.96
485.577	6.93
485.78	6.9
485.983	6.88
486.186	6.91
486.389	6.88
486.592	6.9
486.795	6.95
486.998	6.89
487.201	6.9
487.404	6.99
487.607	7.06
487.81	6.97
488.013	7.02
488.216	6.98
488.419	6.96
488.622	6.98
488.825	7.04
489.028	7.05
489.231	7.13
489.433	7.1
489.636	6.97
489.839	7
490.042	6.92
490.245	6.84
490.447	6.86
490.65	6.9
490.853	6.87
491.056	6.96
491.258	6.94
491.461	6.9
491.664	6.86
491.866	6.84
492.069	6.84
492.272	6.82
492.474	6.84
492.677	6.85
492.879	6.88
493.082	6.88
493.285	6.96
493.487	6.88
493.69	6.9
493.892	6.86
494.095	6.79
494.297	6.75
494.5	6.82
494.702	6.81
494.905	6.89
495.107	6.96
495.309	7.02
495.512	7.02
495.714	7.08
495.917	7.05
496.119	7.02
496.321	6.98
496.524	7
496.726	6.9
496.928	6.89
497.13	6.83
497.333	6.78
497.535	6.84
497.737	6.86
497.939	6.83
498.142	6.89
498.344	6.95
498.546	6.88
498.748	6.97
498.95	6.96
499.152	6.97
499.355	7.02
499.557	6.97
499.759	6.87
499.961	6.85
500.163	6.83
500.365	6.83
500.567	6.91
500.769	6.97
500.971	7.02
501.173	6.99
501.375	6.93
501.577	6.89
501.779	6.95
501.981	6.93
502.183	7.01
502.385	6.96
502.587	6.84
502.788	6.82
502.99	6.83
503.192	6.78
503.394	6.79
503.596	6.93
503.798	6.92
503.999	6.97
504.201	7.05
504.403	7.07
504.605	7.05
504.806	7
505.008	6.98
505.21	7
505.411	7
505.613	6.96
505.815	6.94
506.016	6.89
506.218	6.75
506.42	6.75
506.621	6.73
506.823	6.82
507.024	6.84
507.226	6.93
507.427	6.94
507.629	6.94
507.83	6.85
508.032	6.91
508.233	6.88
508.435	6.85
508.636	6.94
508.838	6.95
509.039	6.86
509.24	6.91
509.442	6.94
509.643	6.84
509.845	6.85
510.046	6.98
510.247	6.92
510.448	6.97
510.65	7
510.851	6.99
511.052	6.96
511.254	6.91
511.455	6.88
511.656	6.91
511.857	6.88
512.058	6.83
512.26	6.9
512.461	6.84
512.662	6.88
512.863	6.84
513.064	6.82
513.265	6.8
513.466	6.81
513.667	6.76
513.868	6.81
514.069	6.85
514.27	6.77
514.471	6.77
514.672	6.73
514.873	6.72
515.074	6.71
515.275	6.75
515.476	6.78
515.677	6.76
515.878	6.88
516.079	6.85
516.28	6.92
516.481	6.92
516.682	7.03
516.882	6.96
517.083	6.98
517.284	6.91
517.485	6.81
517.686	6.76
517.886	6.73
518.087	6.7
518.288	6.7
518.488	6.77
518.689	6.8
518.89	6.8
519.091	6.88
519.291	6.88
519.492	6.89
519.692	6.93
519.893	7.01
520.094	6.96
520.294	7
520.495	6.99
520.695	6.97
520.896	6.9
521.096	6.94
521.297	6.94
521.497	6.95
521.698	6.86
521.898	6.85
522.099	6.75
522.299	6.76
522.499	6.75
522.7	6.79
522.9	6.83
523.101	6.87
523.301	6.85
523.501	6.86
523.702	6.9
523.902	6.84
524.102	6.89
524.302	6.88
524.503	6.92
524.703	6.84
524.903	6.85
525.103	6.85
525.304	6.91
525.504	6.86
525.704	6.97
525.904	6.97
526.104	6.95
526.304	6.89
526.504	6.89
526.705	6.8
526.905	6.83
527.105	6.87
527.305	6.89
527.505	6.89
527.705	6.96
527.905	6.94
528.105	6.87
528.305	6.85
528.505	6.84
528.705	6.82
528.905	6.81
529.105	6.84
529.304	6.86
529.504	6.92
529.704	6.91
529.904	6.92
530.104	6.87
530.304	6.9
530.503	6.88
530.703	6.9
530.903	6.91
531.103	6.94
531.303	6.96
531.502	6.93
531.702	6.94
531.902	6.88
532.101	6.88
532.301	6.85
532.501	6.87
532.7	6.9
532.9	6.96
533.1	7.02
533.299	7.02
533.499	7.06
533.698	6.98
533.898	7
534.097	6.95
534.297	6.97
534.496	6.88
534.696	6.93
534.895	6.95
535.095	6.91
535.294	6.93
535.494	6.96
535.693	6.9
535.892	6.92
536.092	6.91
536.291	6.89
536.491	6.89
536.69	6.91
536.889	6.84
537.088	6.85
537.288	6.89
537.487	6.93
537.686	6.95
537.886	6.98
538.085	7.02
538.284	6.98
538.483	6.96
538.682	6.95
538.882	6.99
539.081	7.04
539.28	7.06
539.479	7.04
539.678	7.06
539.877	7.05
540.076	7.03
540.275	7.05
540.474	7.09
540.673	7.16
540.872	7.16
541.071	7.17
541.27	7.15
541.469	7.17
541.668	7.17
541.867	7.18
542.066	7.17
542.265	7.22
542.464	7.18
542.663	7.22
542.862	7.34
543.06	7.49
543.259	7.58
543.458	7.63
543.657	7.66
543.856	7.59
544.054	7.5
544.253	7.4
544.452	7.44
544.651	7.44
544.849	7.43
545.048	7.44
545.247	7.49
545.445	7.46
545.644	7.46
545.843	7.44
546.041	7.43
546.24	7.44
546.438	7.48
546.637	7.49
546.836	7.61
547.034	7.64
547.233	7.67
547.431	7.68
547.63	7.72
547.828	7.71
548.027	7.74
548.225	7.71
548.423	7.71
548.622	7.77
548.82	7.73
549.019	7.81
549.217	7.87
549.415	7.94
549.614	8
549.812	8
550.01	8.01
550.209	8.04
550.407	8.09
550.605	8.06
550.803	8.15
551.002	8.22
551.2	8.25
551.398	8.23
551.596	8.25
551.794	8.27
551.993	8.28
552.191	8.32
552.389	8.37
552.587	8.43
552.785	8.52
552.983	8.5
553.181	8.64
553.379	8.73
553.577	8.77
553.775	8.83
553.973	8.92
554.171	8.87
554.369	8.86
554.567	8.9
554.765	8.85
554.963	8.85
555.161	8.88
555.359	8.96
555.557	9.02
555.755	9.1
555.952	9.19
556.15	9.27
556.348	9.33
556.546	9.39
556.744	9.43
556.941	9.52
557.139	9.62
557.337	9.72
557.535	9.79
557.732	9.83
557.93	9.92
558.128	9.95
558.325	9.92
558.523	9.94
558.721	10
558.918	9.96
559.116	9.98
559.313	10.03
559.511	10.15
559.708	10.22
559.906	10.36
560.104	10.47
560.301	10.51
560.498	10.57
560.696	10.59
560.893	10.59
561.091	10.61
561.288	10.74
561.486	10.73
561.683	10.83
561.88	10.98
562.078	11.08
562.275	11.15
562.473	11.2
562.67	11.27
562.867	11.27
563.064	11.3
563.262	11.31
563.459	11.39
563.656	11.42
563.853	11.52
564.051	11.53
564.248	11.62
564.445	11.73
564.642	11.79
564.839	11.86
565.036	11.97
565.234	12.03
565.431	12.01
565.628	12.07
565.825	12.13
566.022	12.15
566.219	12.16
566.416	12.27
566.613	12.39
566.81	12.4
567.007	12.52
567.204	12.62
567.401	12.62
567.598	12.65
567.795	12.67
567.991	12.66
568.188	12.69
568.385	12.79
568.582	12.88
568.779	12.94
568.976	13.02
569.172	13.11
569.369	13.14
569.566	13.09
569.763	13.12
569.96	13.14
570.156	13.14
570.353	13.14
570.55	13.11
570.746	13.15
570.943	13.13
571.14	13.13
571.336	13.15
571.533	13.22
571.729	13.29
571.926	13.36
572.123	13.34
572.319	13.43
572.516	13.51
572.712	13.48
572.909	13.51
573.105	13.56
573.302	13.55
573.498	13.52
573.695	13.58
573.891	13.58
574.087	13.67
574.284	13.67
574.48	13.79
574.677	13.8
574.873	13.76
575.069	13.8
575.266	13.76
575.462	13.64
575.658	13.65
575.854	13.79
576.051	13.73
576.247	13.83
576.443	13.9
576.639	13.89
576.835	13.87
577.032	13.86
577.228	13.91
577.424	13.98
577.62	14.03
577.816	13.92
578.012	13.99
578.208	13.92
578.404	13.85
578.6	13.84
578.796	13.89
578.993	13.84
579.189	13.76
579.384	13.72
579.58	13.66
579.776	13.64
579.972	13.65
580.168	13.64
580.364	13.55
580.56	13.58
580.756	13.57
580.952	13.46
581.148	13.56
581.343	13.64
581.539	13.61
581.735	13.67
581.931	13.76
582.127	13.71
582.322	13.7
582.518	13.68
582.714	13.59
582.909	13.53
583.105	13.52
583.301	13.55
583.496	13.54
583.692	13.48
583.888	13.53
584.083	13.52
584.279	13.53
584.474	13.58
584.67	13.57
584.866	13.57
585.061	13.54
585.257	13.54
585.452	13.52
585.648	13.63
585.843	13.64
586.039	13.67
586.234	13.59
586.429	13.47
586.625	13.42
586.82	13.41
587.015	13.49
587.211	13.44
587.406	13.51
587.601	13.52
587.797	13.48
587.992	13.39
588.187	13.45
588.383	13.48
588.578	13.44
588.773	13.44
588.968	13.49
589.163	13.52
589.359	13.5
589.554	13.59
589.749	13.64
589.944	13.6
590.139	13.61
590.334	13.55
590.529	13.47
590.724	13.48
590.919	13.43
591.114	13.52
591.309	13.56
591.504	13.65
591.699	13.59
591.894	13.68
592.089	13.6
592.284	13.63
592.479	13.62
592.674	13.66
592.869	13.69
593.064	13.74
593.259	13.8
593.454	13.72
593.648	13.78
593.843	13.79
594.038	13.81
594.233	13.82
594.428	13.96
594.622	13.93
594.817	14.01
595.012	14.03
595.206	14.05
595.401	14.16
595.596	14.24
595.79	14.2
595.985	14.26
596.18	14.36
596.374	14.31
596.569	14.36
596.763	14.45
596.958	14.49
597.153	14.44
597.347	14.54
597.542	14.61
597.736	14.61
597.931	14.59
598.125	14.64
598.319	14.59
598.514	14.68
598.708	14.72
598.903	14.84
599.097	15.02
599.291	15.08
599.486	15.03
599.68	15.03
599.874	15.06
600.069	15.07
600.263	15.07
600.457	15.14
600.651	15.19
600.846	15.12
601.04	15.04
601.234	15.04
601.428	15.07
601.622	15.1
601.817	15.18
602.011	15.2
602.205	15.15
602.399	15.11
602.593	15.1
602.787	15.11
602.981	15.11
603.175	15.3
603.369	15.36
603.563	15.37
603.757	15.38
603.951	15.4
604.145	15.31
604.339	15.29
604.533	15.22
604.727	15.18
604.921	15.15
605.115	15.12
605.309	15.07
605.502	15.11
605.696	15.05
605.89	14.95
606.084	14.84
606.278	14.74
606.471	14.74
606.665	14.73
606.859	14.75
607.053	14.79
607.246	14.84
607.44	14.76
607.634	14.78
607.827	14.81
608.021	14.74
608.214	14.68
608.408	14.63
608.602	14.63
608.795	14.56
608.989	14.57
609.182	14.63
609.376	14.68
609.569	14.62
609.763	14.59
609.956	14.64
610.15	14.43
610.343	14.26
610.537	14.16
610.73	14.1
610.923	13.95
611.117	13.95
611.31	14.07
611.504	14.06
611.697	14.05
611.89	14.1
612.083	14.03
612.277	13.89
612.47	13.85
612.663	13.78
612.856	13.7
613.05	13.77
613.243	13.71
613.436	13.61
613.629	13.53
613.822	13.46
614.015	13.34
614.209	13.27
614.402	13.34
614.595	13.34
614.788	13.28
614.981	13.12
615.174	13.13
615.367	12.99
615.56	12.85
615.753	12.88
615.946	12.87
616.139	12.83
616.332	12.86
616.525	12.89
616.718	12.75
616.911	12.79
617.103	12.79
617.296	12.73
617.489	12.71
617.682	12.78
617.875	12.84
618.067	12.76
618.26	12.71
618.453	12.65
618.646	12.55
618.838	12.43
619.031	12.44
619.224	12.41
619.417	12.39
619.609	12.35
619.802	12.31
619.994	12.23
620.187	12.14
620.38	12.15
620.572	12.15
620.765	12.17
620.957	12.15
621.15	12.16
621.342	12.09
621.535	12.08
621.727	12.06
621.92	12.05
622.112	12.09
622.305	12.1
622.497	12.06
622.69	12
622.882	11.98
623.074	11.96
623.267	11.94
623.459	11.91
623.651	11.87
623.844	11.92
624.036	11.88
624.228	11.89
624.42	11.91
624.613	12.03
624.805	11.94
624.997	11.87
625.189	11.86
625.381	11.84
625.574	11.73
625.766	11.8
625.958	11.84
626.15	11.79
626.342	11.74
626.534	11.69
626.726	11.65
626.918	11.62
627.11	11.56
627.302	11.53
627.494	11.51
627.686	11.43
627.878	11.48
628.07	11.53
628.262	11.54
628.454	11.46
628.646	11.51
628.838	11.5
629.029	11.41
629.221	11.37
629.413	11.43
629.605	11.31
629.797	11.22
629.989	11.26
630.18	11.19
630.372	11.17
630.564	11.26
630.755	11.23
630.947	11.15
631.139	11.14
631.33	11.03
631.522	10.99
631.714	10.98
631.905	10.98
632.097	10.94
632.289	10.96
632.48	10.86
632.672	10.86
632.863	10.78
633.055	10.79
633.246	10.77
633.438	10.81
633.629	10.69
633.821	10.79
634.012	10.72
634.203	10.77
634.395	10.78
634.586	10.9
634.777	10.83
634.969	10.83
635.16	10.81
635.351	10.75
635.543	10.73
635.734	10.7
635.925	10.66
636.117	10.6
636.308	10.6
636.499	10.5
636.69	10.48
636.881	10.5
637.073	10.5
637.264	10.47
637.455	10.39
637.646	10.41
637.837	10.46
638.028	10.41
638.219	10.39
638.41	10.43
638.601	10.39
638.792	10.26
638.983	10.27
639.174	10.19
639.365	10.08
639.556	10
639.747	10.05
639.938	10.06
640.129	10.09
640.32	10.14
640.511	10.17
640.701	10.18
640.892	10.02
641.083	10.01
641.274	10.01
641.465	9.99
641.655	9.92
641.846	9.95
642.037	9.91
642.228	9.82
642.418	9.72
642.609	9.72
642.8	9.7
642.99	9.64
643.181	9.7
643.372	9.75
643.562	9.69
643.753	9.62
643.943	9.57
644.134	9.51
644.324	9.54
644.515	9.56
644.705	9.62
644.896	9.61
645.086	9.6
645.277	9.53
645.467	9.57
645.658	9.64
645.848	9.58
646.038	9.56
646.229	9.56
646.419	9.47
646.61	9.35
646.8	9.41
646.99	9.44
647.18	9.38
647.371	9.37
647.561	9.3
647.751	9.22
647.941	9.14
648.132	9.18
648.322	9.25
648.512	9.3
648.702	9.4
648.892	9.42
649.082	9.33
649.272	9.2
649.462	9.23
649.653	9.19
649.843	9.17
650.033	9.34
650.223	9.43
650.413	9.37
650.603	9.45
650.793	9.43
650.983	9.3
651.172	9.2
651.362	9.17
651.552	9.04
651.742	9.04
651.932	8.96
652.122	9.02
652.312	9.06
652.502	8.88
652.691	8.91
652.881	8.99
653.071	8.91
653.261	8.82
653.45	8.9
653.64	8.7
653.83	8.63
654.019	8.55
654.209	8.54
654.399	8.59
654.588	8.71
654.778	8.67
654.968	8.7
655.157	8.65
655.347	8.56
655.536	8.51
655.726	8.55
655.915	8.49
656.105	8.46
656.294	8.52
656.484	8.38
656.673	8.23
656.863	8.2
657.052	8.13
657.241	7.93
657.431	7.84
657.62	7.8
657.809	7.76
657.999	7.7
658.188	7.68
658.377	7.74
658.567	7.79
658.756	7.57
658.945	7.46
659.134	7.49
659.324	7.45
659.513	7.32
659.702	7.32
659.891	7.35
660.08	7.22
660.269	7.12
660.458	6.99
660.648	7.05
660.837	7.04
661.026	6.96
661.215	6.98
661.404	6.92
661.593	6.89
661.782	6.77
661.971	6.83
662.16	6.71
662.349	6.75
662.538	6.65
662.726	6.65
662.915	6.58
663.104	6.62
663.293	6.59
663.482	6.66
663.671	6.69
663.86	6.6
664.048	6.59
664.237	6.59
664.426	6.56
664.615	6.62
664.803	6.71
664.992	6.63
665.181	6.64
665.369	6.61
665.558	6.45
665.747	6.44
665.935	6.57
666.124	6.61
666.312	6.58
666.501	6.69
666.69	6.62
666.878	6.44
667.067	6.42
667.255	6.43
667.444	6.47
667.632	6.59
667.82	6.73
668.009	6.65
668.197	6.61
668.386	6.46
668.574	6.45
668.762	6.43
668.951	6.58
669.139	6.63
669.327	6.71
669.516	6.7
669.704	6.76
669.892	6.75
670.08	6.83
670.269	6.91
670.457	6.95
670.645	6.87
670.833	6.89
671.021	6.82
671.21	6.67
671.398	6.7
671.586	6.81
671.774	6.87
671.962	7.03
672.15	7.26
672.338	7.26
672.526	7.3
672.714	7.17
672.902	7.09
673.09	7.17
673.278	7.29
673.466	7.47
673.654	7.77
673.842	7.85
674.03	7.76
674.218	7.73
674.405	7.67
674.593	7.64
674.781	7.64
674.969	7.64
675.157	7.71
675.344	7.74
675.532	7.67
675.72	7.77
675.908	7.95
676.095	7.91
676.283	8.04
676.471	8.12
676.658	8.26
676.846	8.27
677.033	8.48
677.221	8.47
677.409	8.54
677.596	8.62
677.784	8.72
677.971	8.73
678.159	8.74
678.346	8.66
678.534	8.71
678.721	8.66
678.909	8.67
679.096	8.78
679.283	8.9
679.471	8.84
679.658	9.06
679.846	9.16
680.033	9.28
680.22	9.31
680.408	9.37
680.595	9.37
680.782	9.43
680.969	9.35
681.157	9.4
681.344	9.37
681.531	9.35
681.718	9.35
681.905	9.31
682.093	9.37
682.28	9.58
682.467	9.7
682.654	9.66
682.841	9.83
683.028	9.81
683.215	9.86
683.402	9.8
683.589	9.93
683.776	10.04
683.963	10.17
684.15	10.14
684.337	10.36
684.524	10.47
684.711	10.52
684.898	10.68
685.085	10.93
685.271	10.96
685.458	11.01
685.645	11.17
685.832	11.35
686.019	11.43
686.205	11.58
686.392	11.91
686.579	12.05
686.766	12.03
686.952	12.18
687.139	12.4
687.326	12.31
687.512	12.38
687.699	12.68
687.886	12.72
688.072	12.89
688.259	13.24
688.445	13.56
688.632	13.67
688.818	14.3
689.005	14.52
689.191	14.84
689.378	15
689.564	15.5
689.751	15.66
689.937	16.07
690.124	16.29
690.31	16.74
690.496	17.06
690.683	17.31
690.869	17.61
691.055	18.15
691.242	18.7
691.428	19.01
691.614	19.58
691.8	20.14
691.987	20.4
692.173	20.83
692.359	21.33
692.545	21.7
692.731	22.02
692.918	22.64
693.104	22.96
693.29	23.48
693.476	24.03
693.662	24.68
693.848	25.13
694.034	25.78
694.22	26.47
694.406	27.14
694.592	27.5
694.778	28.12
694.964	28.46
695.15	28.87
695.336	29.15
695.522	29.79
695.708	30.49
695.894	31.14
696.08	31.8
696.265	32.76
696.451	33.44
696.637	33.79
696.823	34.44
697.009	35.08
697.194	35.34
697.38	36.11
697.566	36.93
697.751	37.48
697.937	38.01
698.123	38.46
698.308	38.84
698.494	39.42
698.68	39.93
698.865	40.77
699.051	41.38
699.236	42.11
699.422	42.66
699.607	43.56
699.793	43.8
699.978	44.63
700.164	45.07
700.349	45.67
700.535	46.05
700.72	46.67
700.906	47.32
701.091	47.85
701.276	48.24
701.462	49.02
701.647	49.55
701.832	50.37
702.018	51.2
702.203	51.92
702.388	52.12
702.573	52.54
702.759	52.47
702.944	52.79
703.129	53.51
703.314	54.55
703.499	55.62
703.684	56.49
703.87	57.17
704.055	57.63
704.24	57.91
704.425	58.3
704.61	58.58
704.795	58.89
704.98	59.48
705.165	59.84
705.35	60.14
705.535	60.84
705.72	61.57
705.905	61.79
706.09	62.47
706.275	62.97
706.459	63.62
706.644	63.71
706.829	64.44
707.014	64.93
707.199	65.39
707.384	65.53
707.568	66.13
707.753	66.88
707.938	67.36
708.123	68.02
708.307	68.77
708.492	69.25
708.677	69.19
708.861	69.34
709.046	69.48
709.231	69.97
709.415	70.22
709.6	70.15
709.784	70.83
709.969	70.77
710.153	70.99
710.338	71.25
710.522	72.5
710.707	72.8
710.891	73.45
711.076	73.42
711.26	73.9
711.445	73.57
711.629	73.52
711.813	73.9
711.998	74.27
712.182	74.66
712.366	75.15
712.551	75.74
712.735	75.83
712.919	75.83
713.103	75.95
713.288	75.79
713.472	76.03
713.656	76.61
713.84	76.99
714.024	77.32
714.208	78.44
714.393	78.79
714.577	78.88
714.761	79.36
714.945	79.63
715.129	78.99
715.313	79.31
715.497	79.72
715.681	80.4
715.865	80.11
716.049	80.7
716.233	80.7
716.417	81.27
716.601	80.81
716.785	81.61
716.968	81.76
717.152	82.31
717.336	81.85
717.52	82.19
717.704	82.19
717.888	82.06
718.071	81.5
718.255	81.99
718.439	82.15
718.622	82.1
718.806	82.5
718.99	82.98
719.174	83.12
719.357	83.02
719.541	83.65
719.724	84.43
719.908	85.05
720.092	85.48
720.275	86.27
720.459	86.26
720.642	86.53
720.826	86.17
721.009	85.99
721.193	86.13
721.376	86.19
721.559	86.57
721.743	87.01
721.926	87.67
722.11	87.65
722.293	88.04
722.476	87.1
722.66	86.8
722.843	86.36
723.026	86.87
723.21	87.14
723.393	87.3
723.576	88
723.759	88.01
723.942	87.37
724.126	87.47
724.309	88.13
724.492	87.79
724.675	88.72
724.858	89.23
725.041	89.09
725.224	89.62
725.407	89.74
725.59	89.72
725.774	89.84
725.957	90.35
726.14	90.12
726.322	89.97
726.505	90.08
726.688	90.67
726.871	91.24
727.054	91.7
727.237	92.58
727.42	92.54
727.603	92.47
727.786	91.82
727.968	91.17
728.151	91.22
728.334	91.33
728.517	91.21
728.699	92
728.882	92.26
729.065	92.66
729.248	92.76
729.43	93.25
729.613	93.07
729.796	93.2
729.978	93.83
730.161	93.25
730.343	92.93
730.526	92.99
730.708	93.21
730.891	92.47
731.073	93.01
731.256	93.17
731.438	93.44
731.621	94.26
731.803	94.84
731.986	94.56
732.168	94.34
732.35	93.65
732.533	93.11
732.715	92.27
732.898	91.97
733.08	92.55
733.262	93.81
733.444	94.02
733.627	94.27
733.809	94.67
733.991	95.34
734.173	95.18
734.355	95.1
734.538	95.72
734.72	96.44
734.902	96.12
735.084	95.05
735.266	95.31
735.448	94.58
735.63	94.36
735.812	94.92
735.994	96.2
736.176	95.72
736.358	95.92
736.54	96.01
736.722	94.93
736.904	94.4
737.086	94.78
737.268	95.66
737.45	96.15
737.632	96.37
737.814	96.69
737.995	96.71
738.177	95.82
738.359	95.67
738.541	96.72
738.723	97.69
738.904	97.41
739.086	97.5
739.268	97.67
739.449	96.82
739.631	95.79
739.813	96.13
739.994	96.64
740.176	96.77
740.358	97.51
740.539	98.13
740.721	98.28
740.902	98.47
741.084	98.98
741.265	97.76
741.447	97.5
741.628	98.6
741.81	98.51
741.991	97.89
742.172	99.55
742.354	98.9
742.535	97.27
742.717	97.07
742.898	96.67
743.079	96.02
743.261	96.97
743.442	98.38
743.623	99.53
743.804	99.45
743.986	100.14
744.167	99.36
744.348	98.6
744.529	98.39
744.71	99.23
744.891	98.29
745.073	99.05
745.254	99.74
745.435	99.43
745.616	99.53
745.797	99.96
745.978	99.5
746.159	98.68
746.34	97.63
746.521	97.81
746.702	96.76
746.883	95.8
747.064	96.13
747.245	97.15
747.426	96.39
747.606	97.41
747.787	99.54
747.968	99.04
748.149	98.18
748.33	97.27
748.51	97.41
748.691	96.13
748.872	96.1
749.053	96.42
749.233	96.81
749.414	96.16
749.595	98.64
749.775	98.54
749.956	99.18
750.137	99.07
750.317	100.1
750.498	97.67
750.678	97.86
750.859	94.61
751.04	96.48
751.22	95.86
751.4	97.93
751.581	98.5
751.761	101.94
751.942	103.18
752.122	102.5
752.303	98.75
752.483	99.85
752.663	100.33
752.844	98.63
753.024	99.52
753.204	101.2
753.385	98.87
753.565	98.26
753.745	98.75
753.925	99.22
754.106	99.66
754.286	100.55
754.466	100.22
754.646	100.1
754.826	98.13
755.006	98.21
755.187	97.72
755.367	97.61
755.547	97.48
755.727	98.12
755.907	96.9
756.087	97.14
756.267	96.35
756.447	95.44
756.627	94.43
756.807	95.09
756.987	95.28
757.167	96.2
757.346	97.07
757.526	98.74
757.706	99.64
757.886	99.91
758.066	100.95
758.246	99.84
758.425	98.87
758.605	97.03
758.785	97.51
758.965	96.87
759.144	97.83
759.324	98.49
759.504	100.54
759.683	100.13
759.863	100.41
760.043	100.04
760.222	97.87
760.402	96.37
760.581	96.11
760.761	94.57
760.94	94.55
761.12	98.62
761.299	96.59
761.479	96.44
761.658	96.53
761.838	95.53
762.017	95.55
762.197	97.64
762.376	98.57
762.555	100.65
762.735	100.67
762.914	99.93
763.093	101.15
763.273	99.75
763.452	99.02
763.631	100.59
763.81	99.94
763.99	99.15
764.169	99.07
764.348	97.73
764.527	96.47
764.706	96.81
764.885	96.43
765.064	96.35
765.243	96.77
765.423	96.3
765.602	95.09
765.781	95.93
765.96	93.99
766.139	94.43
766.318	96.08
766.497	96.73
766.676	95.84
766.854	100.3
767.033	99.23
767.212	98.68
767.391	96.3
767.57	97.06
767.749	95.63
767.928	96.35
768.106	94.24
768.285	95.68
768.464	93.65
768.643	92.81
768.821	90.88
769	93.13
769.179	92.37
769.357	92.21
769.536	93.19
769.715	94.15
769.893	92.63
770.072	91.89
770.25	90.94
770.429	91.11
770.607	91.33
770.786	92.35
770.964	94.11
771.143	96.93
771.321	96.02
771.5	96.7
771.678	96.49
771.857	96.98
772.035	97.64
772.213	97.27
772.392	97.18
772.57	98.16
772.748	96.96
772.927	95.71
773.105	96.36
773.283	96.32
773.461	96.26
773.64	96.22
773.818	96.35
773.996	96.27
774.174	94.85
774.352	93.58
774.531	94.46
774.709	93.81
774.887	93.74
775.065	94.42
775.243	94.55
775.421	91.98
775.599	91.44
775.777	90.42
775.955	90.03
776.133	89.05
776.311	91.4
776.489	93.67
776.667	94.44
776.844	97.59
777.022	97.89
777.2	96.23
777.378	93.04
777.556	92.69
777.734	91.15
777.911	92.99
778.089	93.48
778.267	93.7
778.445	90.94
778.622	90.3
778.8	88.64
778.978	91.08
779.155	91.18
779.333	93.95
779.511	92.27
779.688	92.93
779.866	90.1
780.043	89.66
780.221	87.32
780.398	87.95
780.576	86.03
780.753	85.74
780.931	87.05
781.108	89.43
781.286	91.3
781.463	92.36
781.64	92.08
781.818	93.28
781.995	91.5
782.172	90.76
782.35	90.86
782.527	94.31
782.704	92.39
782.882	95.3
783.059	93.85
783.236	91.03
783.413	87.71
783.59	89.44
783.768	85.41
783.945	84.31
784.122	86.94
784.299	85.98
784.476	84.6
784.653	87.21
784.83	87.32
785.007	86.44
785.184	87.2
785.361	87.89
785.538	88.3
785.715	91.06
785.892	93.38
786.069	92.42
786.246	94.18
786.423	96.33
786.6	96.07
786.776	94.75
786.953	95.06
787.13	96.38
787.307	94.12
787.484	93.91
787.66	93.21
787.837	98.92
788.014	98.68
788.191	100.9
788.367	102.16
788.544	100.76
788.721	96.09
788.897	90.69
789.074	84.92
789.25	84.05
789.427	86.84
789.603	84.7
789.78	86.15
789.956	97.14
790.133	94.59
790.309	94
790.486	95.45
790.662	95.43
790.839	80.24
791.015	80.92
791.192	80.44
791.368	83.13
791.544	82.5
791.721	89.71
791.897	89.96
792.073	93.14
792.249	91.75
792.426	96.17
792.602	98.58
792.778	99.78
792.954	94.83
793.13	93.44
793.307	92.82
793.483	90.54
793.659	85.81
793.835	84.23
794.011	87.99
794.187	83.74
794.363	79.39
794.539	86.2
794.715	86.13
794.891	79.85
795.067	79.68
795.243	84.66
795.419	84.08
795.595	84.45
795.771	87.48
795.947	89.45
796.122	85.6
796.298	82.61
796.474	81.94
796.65	81.08
796.826	81.34
797.001	79.92
797.177	84.02
797.353	82.43
797.529	81.81
797.704	82.63
797.88	87.33
798.056	87.71
798.231	89.2
798.407	91.79
798.582	90.89
798.758	88.83
798.934	84.96
799.109	86.53
799.285	87.43
799.46	84.28
799.636	84.65
799.811	83.63
799.986	81.65
800.162	86.94
800.337	94.6
800.513	93.47
800.688	92.69
800.863	100.17
801.039	97.42
801.214	92.79
801.389	92.85
801.565	92.57
801.74	89.32
801.915	84.13
802.09	82.66
802.265	82.05
802.441	83.15
802.616	77.63
802.791	75.57
802.966	78.88
803.141	80.68
803.316	83.15
803.491	86.64
803.666	92.63
803.841	88.5
804.016	93.98
804.191	90.53
804.366	96.64
804.541	94.63
804.716	106.71
804.891	91.69
805.066	92.52
805.241	82.34
805.416	80.93
805.591	70.47
805.765	75.83
805.94	76.8
806.115	80.09
806.29	82.57
806.464	82.46
806.639	79.88
806.814	77.57
806.989	74.21
807.163	71.68
807.338	76.93
807.512	77.71
807.687	83.36
807.862	88.48
808.036	93.2
808.211	82.26
808.385	79.52
808.56	72.08
808.734	64.47
808.909	68.22
809.083	76.01
809.258	77.26
809.432	81.72
809.606	84.86
809.781	76.12
809.955	73.24
810.13	77.15
810.304	68.82
810.478	64.2
810.652	74.01
810.827	64.02
811.001	65.81
811.175	77.4
811.349	85.71
811.524	67.96
811.698	80.25
811.872	82.32
812.046	77.56
812.22	83.79
812.394	90.99
812.568	91.76
812.742	90.39
812.916	98.62
813.09	102.58
813.264	114.77
813.438	110.41
813.612	105.84
813.786	94.77
813.96	86.18
814.134	87.59
814.308	88.08
814.482	86.08
814.656	92.9
814.83	88.06
815.003	80.52
815.177	75.43
815.351	79.48
815.525	78.74
815.698	90.32
815.872	82.64
816.046	91.83
816.219	92.93
816.393	106.56
816.567	106.95
816.74	115.77
816.914	100.76
817.088	97.1
817.261	78.99
817.435	70.66
817.608	66.86
817.782	67.78
817.955	76.5
818.129	79.64
818.302	81.2
818.475	83.03
818.649	96.21
818.822	84.3
818.996	93.3
819.169	91.52
819.342	85.63
819.516	78.08
819.689	84.98
819.862	91.4
820.035	94.62
820.209	100.21
820.382	93.97
820.555	80.66
820.728	82.98
820.901	81.2
821.075	77.33
821.248	79.41
821.421	81.54
821.594	77.46
821.767	83.65
821.94	78.14
822.113	83.13
822.286	78.07
822.459	67.47
822.632	71.14
822.805	84.07
822.978	95.78
823.151	106.01
823.324	116.11
823.496	106.08
823.669	97.28
823.842	87.89
824.015	95.74
824.188	76.95
824.361	71.5
824.533	68.76
824.706	62.25
824.879	51.23
825.051	67.12
825.224	76.52
825.397	72.13
825.569	76.24
825.742	68.84
825.915	61.86
826.087	55.06
826.26	60.97
826.432	57.68
826.605	74.65
826.777	65.57
826.95	77.16
827.122	80.29
827.295	95.68
827.467	87.35
827.64	95.97
827.812	88.86
827.984	105.19
828.157	77.26
828.329	78.98
828.501	81.76
828.674	83.68
828.846	79.96
829.018	99.82
829.19	116.3
829.363	119.32
829.535	118.97
829.707	112.72
829.879	94.87
830.051	67.68
830.223	62.69
830.395	56.67
830.568	52.54
830.74	75.37
830.912	98.02
831.084	129.36
831.256	109.46
831.428	102.4
831.6	84.53
831.772	59.74
831.943	15.37
832.115	43.73
832.287	48.1
832.459	41.88
832.631	49.25
832.803	71.47
832.975	69.14
833.146	78.78
833.318	86.56
833.49	96.16
833.662	92.11
833.833	89.41
834.005	72.98
834.177	82.73
834.348	69.58
834.52	60.66
834.692	74.62
834.863	73.23
835.035	52.76
835.206	29.07
835.378	37.26
835.549	35.47
835.721	40.81
835.892	45.3
836.064	52.08
836.235	47
836.407	54.27
836.578	62.04
836.749	76.72
836.921	68.35
837.092	73.49
837.264	47
837.435	43.7
837.606	19.29
837.777	28.61
837.949	44.81
838.12	48.91
838.291	41
838.462	50.16
838.633	66.22
838.805	62.46
838.976	89.01
839.147	106.51
839.318	106.37
839.489	117.28
839.66	111.7
839.831	100.16
840.002	89.18
840.173	85.33
840.344	50.9
840.515	48.16
840.686	46.22
840.857	34.13
841.028	40.07
841.199	67.64
841.369	72.74
841.54	87.11
841.711	94.03
841.882	110.56
842.053	89.63
842.223	79.15
842.394	55.15
842.565	47.83
842.736	46.99
842.906	41.77
843.077	42.46
843.248	73.26
843.418	92.22
843.589	89.83
843.759	76.63
843.93	88.98
844.101	70.47
844.271	81.74
844.442	76.33
844.612	63.2
844.783	59.11
844.953	58.4
845.123	53.97
845.294	53.51
845.464	53.81
845.635	45.47
845.805	69.66
845.975	62.9
846.146	47.95
846.316	52.76
846.486	62.77
846.656	61.19
846.827	81.95
846.997	62.43
847.167	76.02
847.337	40.57
847.507	49.19
847.677	36.81
847.848	73.77
848.018	61.67
848.188	74.05
848.358	55.01
848.528	33.07
848.698	34.51
848.868	18.76
849.038	24.95
849.208	47.16
849.378	76.58
849.548	65.4
849.718	103.04
849.887	99.06
850.057	99.72
850.227	126.08
850.397	105.48
850.567	103.17
850.737	75.54
850.906	50.91
851.076	47.93
851.246	54.79
851.415	48.33
851.585	46.99
851.755	57.1
851.924	73.06
852.094	63.37
852.264	71.35
852.433	63.22
852.603	61.02
852.772	56.82
852.942	61.69
853.111	45.4
853.281	70.52
853.45	58.23
853.62	47.69
853.789	18.09
853.959	17.7
854.128	11.16
854.297	28.23
854.467	29.6
854.636	61.29
854.805	83.95
854.975	88.58
855.144	89.18
855.313	55.76
855.482	75.08
855.652	46.13
855.821	58.52
855.99	60.19
856.159	98.52
856.328	82.97
856.497	120.47
856.667	104.56
856.836	178.81
857.005	155.17
857.174	128.37
857.343	117.75
857.512	130.04
857.681	53.37
857.85	85.76
858.019	89
858.188	86.74
858.356	99.66
858.525	94.11
858.694	42.9
858.863	6.51
859.032	-2.35
859.201	-23.71
859.369	-6.94
859.538	-8.55
859.707	21.6
859.876	38.52
860.044	63.89
860.213	42.29
860.382	49.91
860.55	39.85
860.719	30.15
860.888	19.51
861.056	46.91
861.225	31.39
861.393	38.92
861.562	26.97
861.73	17.29
861.899	7.86
862.067	27.98
862.236	50.04
862.404	18.96
862.572	42.68
862.741	78.62
862.909	52.71
863.078	32.31
863.246	59.21
863.414	55.69
863.582	44.92
863.751	73.51
863.919	67.33
864.087	95.88
864.255	78.46
864.424	82.49
864.592	41.97
864.76	48.92
864.928	48.1
865.096	44.05
865.264	44.2
865.432	61.33
865.6	57.67
865.768	46.05
865.936	46.11
866.104	59.35
866.272	94.13
866.44	110.54
866.608	131.72
866.776	107.69
866.944	169.35
867.112	69.55
867.28	-9.32
867.448	100.85
867.615	211.16
867.783	99.8
867.951	63.25
868.119	68.96
868.286	50.96
868.454	62.74
868.622	37.87
868.789	75.13
868.957	78.16
869.125	47.15
869.292	3.58
869.46	20.46
869.627	21.56
869.795	13.38
869.963	22.17
870.13	20.22
870.298	49.79
870.465	42.39
870.632	66.47
870.8	61.33
870.967	80.91
871.135	40.89
871.302	115.47
871.469	-83.19
871.637	70.21
871.804	114.93
871.971	68.53
872.139	51.75
872.306	52.81
872.473	44.01
872.64	2.77
872.807	14.06
872.975	-0.84
873.142	67.48
873.309	739.13
873.476	712.23
873.643	237.95
873.81	120.43
873.977	99.09
874.144	117.52
874.311	97.01
874.478	66.22
874.645	74.06
874.812	60.6
874.979	47.83
875.146	45.71
875.313	55.16
875.48	-176.47
875.647	553.98
875.813	-856
875.98	2866.67
876.147	-546.85
876.314	-16.42
876.481	-76.21
876.647	23.46
876.814	39.89
876.981	45.86
877.147	23.51
877.314	43.03
877.481	57.34
877.647	90.87
877.814	80.28
877.98	82.88
878.147	83.26
878.314	23.09
878.48	44.72
878.647	112.74
878.813	255.81
878.979	225.53
879.146	139.62
879.312	94.22
879.479	54.41
879.645	78.74
879.811	33.68
879.978	47.18
880.144	52.89
880.31	43.72
880.477	27.72
880.643	47.65
880.809	80.48
880.975	-854.55
881.142	207.08
881.308	-680
881.474	61.73
881.64	41.69
881.806	63.27
881.972	122.48
882.138	101.02
882.304	158.41
882.47	128.73
882.636	117.11
882.802	112.2
882.968	301.96
883.134	104.02
883.3	74.98
883.466	104.21
883.632	81.18
883.798	31.22
883.964	19.27
884.129	89.24
884.295	60.03
884.461	36.19
884.627	51.71
884.793	34.69
884.958	41.68
885.124	43.29
885.29	89.11
885.455	229.24
885.621	209.59
885.787	84.4
885.952	27.95
886.118	62.2
886.283	-768.42
886.449	56.6
886.614	109.49
886.78	133.13
886.945	133.03
887.111	66.37
887.276	60.91
887.442	103.1
887.607	-21.28
887.773	21.98
887.938	6.3
888.103	0.84
888.269	-73.05
888.434	-22.97
888.599	-33.66
888.764	12.27
888.93	-7.38
889.095	56.03
889.26	149.24
889.425	433.92
889.59	-1150.72
889.756	923.66
889.921	337.74
890.086	231.81
890.251	210.93
890.416	91.01
890.581	45.16
890.746	75.86
890.911	94.08
891.076	69.22
891.241	115.72
891.406	133.77
891.571	121.52
891.736	76.32
891.901	111.57
892.065	26.82
892.23	-27.54
892.395	44.97
892.56	14.75
892.725	44.11
892.889	81.85
893.054	57.07
893.219	4.93
893.384	26.22
893.548	-93.54
893.713	411.11
893.878	114.79
