Data from Ofav_PS_Phys_313_Reflection_1.txt Node
Date: Thu Jul 29 18:24:22 EDT 2021
User: USUARIO
Spectrometer: FLMT01687
Trigger mode: 0
Integration Time (sec): 9.010000E-1
Scans to average: 2
Electric dark correction enabled: true
Nonlinearity correction enabled: false
Boxcar width: 2
XAxis mode: Wavelengths
Number of Pixels in Spectrum: 3648
>>>>>Begin Spectral Data<<<<<
179.494	236.19
179.716	217.57
179.937	146.88
180.158	-379.66
180.38	76.32
180.601	-135.43
180.823	9.91
181.044	49.33
181.265	45.66
181.486	-196.61
181.708	85.49
181.929	71.97
182.15	1771.43
182.372	4.71
182.593	49.65
182.814	1.79
183.035	-527.84
183.257	51.89
183.478	47.23
183.699	59.12
183.92	38.47
184.141	31.97
184.363	55.34
184.584	53.95
184.805	51.54
185.026	94.58
185.247	95.73
185.468	94.76
185.689	80.66
185.91	110.29
186.132	74.96
186.353	67.44
186.574	94.78
186.795	123
187.016	109.07
187.237	94.87
187.458	92.41
187.679	90.63
187.9	70.33
188.121	92.97
188.342	65.38
188.563	67.66
188.784	35.03
189.005	19.27
189.226	22.53
189.447	32.34
189.667	7.58
189.888	13.65
190.109	25.18
190.33	-7.05
190.551	-2.56
190.772	33.12
190.993	31.98
191.214	31.87
191.434	40.74
191.655	35.62
191.876	29.76
192.097	5.16
192.318	38.99
192.538	21.18
192.759	21.74
192.98	29.33
193.201	41.46
193.421	25.78
193.642	29.8
193.863	23.81
194.083	-20.09
194.304	-10.48
194.525	7.8
194.745	20.46
194.966	11.56
195.187	37.35
195.407	30.05
195.628	-19.37
195.848	-16.92
196.069	43.19
196.29	48.22
196.51	32.17
196.731	62.25
196.951	60.35
197.172	43.16
197.392	29.59
197.613	40.09
197.833	0.59
198.054	-5.47
198.274	-27.83
198.495	-11.32
198.715	-25.33
198.936	-32.99
199.156	-29.9
199.377	9.79
199.597	-0.77
199.817	-8.6
200.038	25.57
200.258	48.01
200.479	24.61
200.699	6.7
200.919	46.37
201.14	33.96
201.36	19.21
201.58	23.57
201.801	36.01
202.021	47.73
202.241	49.92
202.461	61.69
202.682	57.25
202.902	60.73
203.122	42.73
203.342	70.26
203.563	68.61
203.783	57.96
204.003	34.65
204.223	53.2
204.443	48.13
204.663	59.08
204.884	76.52
205.104	73.37
205.324	42.14
205.544	42.34
205.764	19.97
205.984	19.29
206.204	51.43
206.424	63.59
206.644	60.91
206.864	56.88
207.084	39.2
207.304	47.75
207.525	52.09
207.745	57.3
207.964	65.64
208.184	83.24
208.404	55.32
208.624	60.89
208.844	60.1
209.064	71.24
209.284	88.47
209.504	88.94
209.724	103.25
209.944	92.16
210.164	87.94
210.384	66.81
210.604	53.09
210.823	30.4
211.043	29.93
211.263	53.46
211.483	54.06
211.703	59.54
211.922	62.25
212.142	69.78
212.362	58.87
212.582	58.37
212.801	58.29
213.021	39.52
213.241	29.3
213.461	20.01
213.68	7.04
213.9	22.67
214.12	42.71
214.339	44.22
214.559	48.97
214.779	83.82
214.998	67.83
215.218	53.13
215.438	34.61
215.657	35.41
215.877	21.89
216.096	18.34
216.316	24.29
216.535	27.14
216.755	13.15
216.974	-1.2
217.194	37.11
217.413	53.74
217.633	74.8
217.852	62.8
218.072	53.97
218.291	44.97
218.511	60.24
218.73	35.96
218.95	48.98
219.169	54.16
219.389	35.24
219.608	-0.51
219.827	-9.91
220.047	-3.57
220.266	-16.36
220.485	10.84
220.705	20.88
220.924	20.64
221.143	13.73
221.363	20.55
221.582	-3.46
221.801	-46.27
222.021	-9.6
222.24	-12.78
222.459	-8.32
222.678	10.97
222.897	19.79
223.117	25.69
223.336	50.36
223.555	67.12
223.774	104.17
223.993	104.29
224.213	110.27
224.432	85.55
224.651	72.09
224.87	47.56
225.089	40.28
225.308	34.95
225.527	44.42
225.746	38.26
225.965	57.18
226.184	39.97
226.404	-3.07
226.623	22.13
226.842	41.24
227.061	27.41
227.28	54.88
227.499	101.67
227.718	107.64
227.936	54.4
228.155	48.01
228.374	36.31
228.593	26
228.812	21.05
229.031	26.62
229.25	36.25
229.469	29.55
229.688	26.33
229.907	50.87
230.125	45.35
230.344	63.02
230.563	67.45
230.782	85.92
231.001	33.18
231.22	44.51
231.438	38.77
231.657	44.48
231.876	31.47
232.095	38.64
232.313	38.45
232.532	25.83
232.751	23.19
232.969	31.08
233.188	44.6
233.407	20.19
233.625	19.44
233.844	21.55
234.063	10.62
234.281	-17.95
234.5	-10.88
234.719	4.51
234.937	-5.62
235.156	-10.33
235.374	25.25
235.593	32.46
235.811	41.35
236.03	39.11
236.249	42.52
236.467	32.48
236.686	31.54
236.904	26.01
237.123	27.99
237.341	23.62
237.559	23.17
237.778	37.76
237.996	39.26
238.215	51.72
238.433	53.88
238.652	61.01
238.87	52.12
239.088	53.87
239.307	30.85
239.525	30.21
239.743	29.87
239.962	24.88
240.18	33.69
240.398	44.33
240.617	25.89
240.835	10.6
241.053	18.38
241.271	-11.27
241.49	-21.57
241.708	11.93
241.926	5.84
242.144	-2.94
242.363	6.96
242.581	3.01
242.799	-13.27
243.017	2.53
243.235	8.51
243.453	8.47
243.672	6.29
243.89	4.14
244.108	9.11
244.326	32.87
244.544	24.48
244.762	28.59
244.98	44.03
245.198	50.03
245.416	17.93
245.634	41.72
245.852	56.92
246.07	40.69
246.288	37.84
246.506	46.16
246.724	40.88
246.942	34.78
247.16	42.57
247.378	30.2
247.596	38.16
247.814	30.58
248.032	29.48
248.25	27.49
248.468	36.62
248.685	30.33
248.903	27.81
249.121	20.13
249.339	9.48
249.557	16.04
249.775	15.22
249.992	13.08
250.21	15.65
250.428	46.45
250.646	56.6
250.863	62.48
251.081	61.56
251.299	71.83
251.517	56.74
251.734	47.48
251.952	19.92
252.17	15.39
252.387	7.8
252.605	2.57
252.823	10.53
253.04	27.95
253.258	36.43
253.475	42.85
253.693	51.19
253.911	48.51
254.128	72.05
254.346	66.33
254.563	71.87
254.781	54.1
254.998	45.54
255.216	8.52
255.433	27.2
255.651	21.57
255.868	13.77
256.086	19.29
256.303	31.24
256.521	27.27
256.738	22.04
256.956	32.42
257.173	44.35
257.39	43.93
257.608	36.02
257.825	49.69
258.043	38.61
258.26	27.81
258.477	16.6
258.695	17.69
258.912	0.57
259.129	15.74
259.346	-2.01
259.564	8.97
259.781	-8.24
259.998	0.53
260.216	25.2
260.433	39.09
260.65	34.37
260.867	42.81
261.084	46.35
261.302	21.79
261.519	5.75
261.736	12.98
261.953	20.06
262.17	21.8
262.387	20.25
262.604	11.45
262.822	19.04
263.039	15.11
263.256	14.15
263.473	37.54
263.69	52.18
263.907	68.65
264.124	50.38
264.341	50.43
264.558	32.84
264.775	22.86
264.992	8.93
265.209	17.53
265.426	12.1
265.643	23.1
265.86	35.03
266.077	47.88
266.294	54.89
266.51	53.19
266.727	57.53
266.944	63.4
267.161	43.01
267.378	29.54
267.595	35.8
267.812	21.26
268.028	-0.65
268.245	12
268.462	8.51
268.679	2.35
268.896	2.92
269.112	22.93
269.329	25.18
269.546	29.78
269.763	33.95
269.979	37.8
270.196	42.74
270.413	38.05
270.629	35.51
270.846	30.04
271.063	38.92
271.279	28.13
271.496	20.16
271.712	26.41
271.929	25.31
272.146	35.82
272.362	24.49
272.579	46.64
272.795	49.92
273.012	59.36
273.228	32.76
273.445	51.64
273.661	38.27
273.878	16.68
274.094	19.83
274.311	37.15
274.527	25.38
274.744	30.04
274.96	48.05
275.177	50.92
275.393	38.73
275.609	29.67
275.826	39.77
276.042	23.28
276.259	2.51
276.475	16.57
276.691	39.1
276.908	33.6
277.124	44.78
277.34	51.35
277.557	39.62
277.773	28.47
277.989	9.99
278.205	5.76
278.422	7.33
278.638	10.57
278.854	15.87
279.07	54.09
279.286	44.42
279.503	43.87
279.719	54.14
279.935	51.25
280.151	20.52
280.367	27.75
280.583	41.01
280.799	24.2
281.016	36.16
281.232	48.47
281.448	59.23
281.664	53.94
281.88	48.8
282.096	48.66
282.312	36.23
282.528	20.45
282.744	19.61
282.96	26.54
283.176	-7.06
283.392	27.63
283.608	36.14
283.824	22.73
284.04	17.54
284.256	33.92
284.471	-12.89
284.687	-16.4
284.903	-11
285.119	34.14
285.335	37.28
285.551	63.87
285.767	69.9
285.982	59.56
286.198	50.27
286.414	49.95
286.63	52.4
286.846	46.98
287.061	54.74
287.277	50.43
287.493	33.6
287.709	-2.84
287.924	12.63
288.14	11.25
288.356	18.27
288.571	28.85
288.787	33.58
289.003	40.84
289.218	44.15
289.434	32.41
289.65	49.09
289.865	48.56
290.081	17.9
290.296	24.58
290.512	32.73
290.727	16.61
290.943	26.79
291.159	35.58
291.374	39.62
291.59	30.86
291.805	24.87
292.021	32.7
292.236	42.98
292.451	27.01
292.667	29.52
292.882	35.09
293.098	18.79
293.313	3.16
293.529	24.78
293.744	8.1
293.959	1.42
294.175	24.51
294.39	25.61
294.605	30.07
294.821	44.97
295.036	45.66
295.251	29.12
295.467	26.03
295.682	16.15
295.897	2.49
296.112	7.65
296.328	10.16
296.543	9.57
296.758	9.41
296.973	21.98
297.188	30.61
297.404	17.19
297.619	14.64
297.834	-5.76
298.049	-1.21
298.264	-1.56
298.479	22.37
298.694	23.52
298.909	34.04
299.125	30.08
299.34	21.22
299.555	4.86
299.77	20.01
299.985	-18.95
300.2	-16.99
300.415	9.04
300.63	30.81
300.845	23.78
301.06	31.41
301.275	33.95
301.49	14.51
301.704	-40.1
301.919	-18.54
302.134	-5.19
302.349	-2.67
302.564	-3.14
302.779	11.58
302.994	18.93
303.209	27.72
303.423	31.15
303.638	18.33
303.853	7.77
304.068	3.68
304.283	10.18
304.497	15.37
304.712	5.77
304.927	10.61
305.142	9.29
305.356	1.82
305.571	19.52
305.786	30.32
306	18.12
306.215	23.34
306.43	29.51
306.644	19.75
306.859	60.49
307.074	53.37
307.288	45.57
307.503	31.11
307.717	23.1
307.932	1.52
308.147	1.67
308.361	-6.84
308.576	5.29
308.79	0.47
309.005	12.27
309.219	16.09
309.434	36.35
309.648	39.95
309.863	44.86
310.077	54.43
310.292	48.98
310.506	38.62
310.72	31.77
310.935	24.22
311.149	29.52
311.364	34
311.578	42.41
311.792	17.39
312.007	32.03
312.221	15.76
312.435	7.06
312.649	-6.25
312.864	-20.16
313.078	-30.74
313.292	-33.84
313.507	15.45
313.721	26.08
313.935	24.5
314.149	33.61
314.363	37.48
314.578	26.85
314.792	27.25
315.006	36.29
315.22	27.89
315.434	16.65
315.648	13.11
315.862	18.76
316.077	13.52
316.291	17.1
316.505	37.75
316.719	49.78
316.933	42.57
317.147	56.82
317.361	48.72
317.575	58.38
317.789	36.66
318.003	33.35
318.217	23.61
318.431	17.11
318.645	11.3
318.859	23.99
319.073	17.31
319.287	7.79
319.5	19.74
319.714	36.15
319.928	43.89
320.142	51.94
320.356	55.87
320.57	51.59
320.784	39.21
320.997	18.63
321.211	16.76
321.425	14.91
321.639	9.45
321.853	3.6
322.066	8.67
322.28	4.36
322.494	12.89
322.707	34.49
322.921	34.97
323.135	37.33
323.349	58.87
323.562	46.45
323.776	29.21
323.989	19.29
324.203	23.49
324.417	-6.48
324.63	-6.34
324.844	-9.5
325.057	-1.72
325.271	-5.2
325.485	1.6
325.698	15.8
325.912	17.6
326.125	21.35
326.339	23.11
326.552	26.39
326.766	24.24
326.979	36.36
327.193	47.82
327.406	46.21
327.619	43.45
327.833	41.19
328.046	43.36
328.26	45.96
328.473	36.32
328.686	30.38
328.9	34.28
329.113	9.93
329.326	2.48
329.54	0.27
329.753	2.79
329.966	15.52
330.179	38.4
330.393	32.31
330.606	40.32
330.819	55.92
331.032	44.37
331.246	28.94
331.459	19.89
331.672	9.45
331.885	1.27
332.098	-0.97
332.311	26.68
332.525	28.22
332.738	24.11
332.951	22.76
333.164	20.1
333.377	18.49
333.59	35.32
333.803	50.57
334.016	39.56
334.229	41.3
334.442	37.32
334.655	31.26
334.868	27.88
335.081	46.21
335.294	57.34
335.507	50.77
335.72	57.72
335.933	50.53
336.146	34.84
336.359	34.1
336.572	18.67
336.785	13.7
336.997	13.86
337.21	14.52
337.423	23.95
337.636	29.92
337.849	20.7
338.062	6.15
338.274	-0.59
338.487	-15.22
338.7	-8.87
338.913	-4.32
339.125	22.2
339.338	27.09
339.551	24.72
339.763	21.35
339.976	7.49
340.189	14
340.402	22.46
340.614	15.19
340.827	33.27
341.039	45.13
341.252	32.51
341.465	28.66
341.677	33.62
341.89	12.49
342.102	24.29
342.315	12.69
342.527	6.39
342.74	-7.37
342.952	10.55
343.165	8.87
343.377	13.78
343.59	13.24
343.802	29.38
344.015	39.47
344.227	32.82
344.44	36.79
344.652	51.95
344.864	42.99
345.077	31.27
345.289	41.55
345.502	38.61
345.714	29.4
345.926	37.83
346.139	11.29
346.351	8.94
346.563	9.59
346.775	2.51
346.988	-9.8
347.2	0.92
347.412	-8.99
347.624	9.57
347.837	-8.52
348.049	-13.32
348.261	-1.01
348.473	15.76
348.685	5.83
348.897	31.85
349.11	41.38
349.322	38.26
349.534	37.45
349.746	50.09
349.958	39.82
350.17	28.92
350.382	30.45
350.594	30.59
350.806	28.06
351.018	22.78
351.23	21.56
351.442	14.54
351.654	10.96
351.866	-0.17
352.078	17.77
352.29	19.82
352.502	24.77
352.714	28.67
352.926	19.47
353.138	10.89
353.35	-1.48
353.561	-19.44
353.773	-0.91
353.985	4.44
354.197	8.57
354.409	10.04
354.621	8.8
354.832	6.76
355.044	11.74
355.256	20.81
355.468	37.77
355.679	54.9
355.891	42.51
356.103	39.68
356.314	34.97
356.526	30.53
356.738	27.76
356.949	30.51
357.161	40.6
357.373	37.83
357.584	36.81
357.796	41.8
358.008	37.67
358.219	26.25
358.431	24.2
358.642	12.92
358.854	-5.34
359.065	-5.29
359.277	-11.38
359.488	7.14
359.7	16.36
359.911	31.12
360.123	35.28
360.334	41.61
360.546	24.24
360.757	26.55
360.969	19.33
361.18	31.05
361.391	13.73
361.603	1.16
361.814	29.18
362.025	21.22
362.237	12.8
362.448	16.88
362.659	16.07
362.871	-10.44
363.082	-1.94
363.293	0.62
363.504	12.2
363.716	27.55
363.927	20.1
364.138	-3.79
364.349	-7.84
364.56	-11.77
364.772	-16.7
364.983	1.55
365.194	18.63
365.405	34.87
365.616	36.17
365.827	25.01
366.038	12.65
366.25	-0.29
366.461	-6.23
366.672	-7.59
366.883	19.97
367.094	20.87
367.305	40.65
367.516	27.98
367.727	24.6
367.938	19.76
368.149	17.83
368.36	4.69
368.571	11.64
368.781	-5.03
368.992	-18.73
369.203	-2.53
369.414	2.3
369.625	9.91
369.836	24.42
370.047	23.19
370.258	23.31
370.468	14.61
370.679	4.23
370.89	-22.28
371.101	-1.28
371.312	-6.38
371.522	-1.36
371.733	-0.62
371.944	10.89
372.155	2.17
372.365	-2.58
372.576	6.11
372.787	11.06
372.997	11.82
373.208	18.06
373.419	27.63
373.629	36.96
373.84	43.66
374.05	41.98
374.261	43.42
374.472	34.93
374.682	18.69
374.893	16.63
375.103	27.36
375.314	19.04
375.524	23.34
375.735	28.33
375.945	29.96
376.156	26.53
376.366	31.79
376.577	32.37
376.787	33.63
376.997	30.9
377.208	16.23
377.418	4.69
377.629	-3.58
377.839	-0.74
378.049	-3.69
378.26	14.58
378.47	25.04
378.68	29.08
378.89	34.16
379.101	46.09
379.311	32.25
379.521	20.16
379.732	24.03
379.942	14.65
380.152	1.43
380.362	3.14
380.572	10.27
380.783	-1.38
380.993	11.18
381.203	12.95
381.413	20.82
381.623	27.46
381.833	44.19
382.043	36.41
382.253	26.32
382.463	18.19
382.674	15.17
382.884	3.35
383.094	-14.47
383.304	-10.75
383.514	-4.99
383.724	4.4
383.934	3.5
384.144	15.8
384.353	24.2
384.563	26.16
384.773	20.04
384.983	24.78
385.193	25.97
385.403	14.86
385.613	15.69
385.823	14.42
386.033	8.72
386.242	9.35
386.452	11.58
386.662	8.7
386.872	9.18
387.082	9.14
387.291	2.24
387.501	4.38
387.711	3.88
387.921	-0.13
388.13	1.29
388.34	5.69
388.55	5.06
388.759	3.09
388.969	4.4
389.179	2.25
389.388	2.27
389.598	4.56
389.807	4.83
390.017	5.43
390.227	11.49
390.436	11.1
390.646	7.96
390.855	9.03
391.065	9.07
391.274	4.36
391.484	2.35
391.693	-0.62
391.903	-1.1
392.112	-0.84
392.322	-0.64
392.531	-0.25
392.74	2.03
392.95	4.55
393.159	4.76
393.369	5.92
393.578	6.13
393.787	6.53
393.997	4.41
394.206	4.5
394.415	4.5
394.625	4.88
394.834	3.86
395.043	3.51
395.252	4.17
395.462	3.78
395.671	4.41
395.88	6.21
396.089	6.78
396.298	6.08
396.508	5.4
396.717	4.41
396.926	3.33
397.135	2.76
397.344	2.57
397.553	3.3
397.762	3.53
397.971	4.02
398.181	5.04
398.39	4.64
398.599	4.27
398.808	4.32
399.017	4.36
399.226	3.95
399.435	4.42
399.644	4.79
399.853	4.7
400.062	4.84
400.27	4.9
400.479	4.83
400.688	4.47
400.897	4.54
401.106	4.29
401.315	4.19
401.524	4.29
401.733	4.08
401.941	4.34
402.15	4.46
402.359	4.3
402.568	4.44
402.777	4.63
402.985	4.39
403.194	4.09
403.403	4.23
403.612	4.03
403.82	4.24
404.029	4.13
404.238	4.09
404.446	4.02
404.655	3.94
404.864	3.82
405.072	3.75
405.281	3.82
405.489	3.65
405.698	3.65
405.906	3.57
406.115	3.63
406.324	3.64
406.532	3.9
406.741	3.89
406.949	3.92
407.158	3.94
407.366	3.88
407.574	3.55
407.783	3.61
407.991	3.47
408.2	3.4
408.408	3.38
408.617	3.55
408.825	3.42
409.033	3.56
409.242	3.7
409.45	3.68
409.658	3.74
409.867	3.82
410.075	3.77
410.283	3.69
410.491	3.5
410.7	3.41
410.908	3.39
411.116	3.45
411.324	3.36
411.533	3.44
411.741	3.47
411.949	3.49
412.157	3.28
412.365	3.19
412.573	3.32
412.781	3.27
412.99	3.28
413.198	3.34
413.406	3.48
413.614	3.45
413.822	3.47
414.03	3.36
414.238	3.44
414.446	3.55
414.654	3.47
414.862	3.42
415.07	3.28
415.278	3.29
415.486	3.01
415.694	3.18
415.902	3.17
416.109	3.38
416.317	3.37
416.525	3.43
416.733	3.37
416.941	3.44
417.149	3.38
417.357	3.26
417.564	3.33
417.772	3.23
417.98	3.25
418.188	3.25
418.395	3.29
418.603	3.14
418.811	3.18
419.019	3.06
419.226	3.26
419.434	3.23
419.642	3.23
419.849	3.25
420.057	3.15
420.265	2.95
420.472	2.86
420.68	3
420.887	3.05
421.095	3.15
421.302	3.22
421.51	3.38
421.717	3.35
421.925	3.27
422.132	3.34
422.34	3.03
422.547	2.99
422.755	2.96
422.962	3.05
423.17	2.91
423.377	3.13
423.585	3.08
423.792	3
423.999	2.88
424.207	2.88
424.414	2.84
424.621	3.02
424.829	3.25
425.036	3.16
425.243	3.17
425.451	3.06
425.658	2.87
425.865	2.81
426.072	2.88
426.28	3.04
426.487	3.14
426.694	3.14
426.901	2.96
427.108	2.95
427.315	3.05
427.523	2.99
427.73	2.88
427.937	2.86
428.144	2.86
428.351	2.64
428.558	2.79
428.765	2.96
428.972	3.18
429.179	3.05
429.386	3.08
429.593	2.87
429.8	2.86
430.007	2.72
430.214	2.98
430.421	3.06
430.628	3.1
430.835	3.2
431.042	3.24
431.249	3.29
431.456	3.2
431.662	3.36
431.869	3.29
432.076	3.24
432.283	3.18
432.49	3.17
432.697	3.15
432.903	3.03
433.11	3.16
433.317	3.11
433.524	3.28
433.73	3.2
433.937	3.34
434.144	3.14
434.35	3.2
434.557	3.06
434.764	3.06
434.97	2.92
435.177	3.2
435.384	3.05
435.59	3.08
435.797	3.16
436.003	3.25
436.21	3.07
436.416	3.11
436.623	3.13
436.829	3.15
437.036	3.14
437.242	3.23
437.449	3.19
437.655	3.35
437.862	3.41
438.068	3.25
438.275	3.22
438.481	3.32
438.687	3.14
438.894	3
439.1	3.16
439.307	3.17
439.513	3.17
439.719	3.13
439.926	3.08
440.132	3.07
440.338	3.16
440.544	3.17
440.751	3.2
440.957	3.36
441.163	3.43
441.369	3.43
441.575	3.34
441.782	3.3
441.988	3.33
442.194	3.23
442.4	3.12
442.606	3.3
442.812	3.43
443.018	3.39
443.224	3.5
443.431	3.54
443.637	3.53
443.843	3.52
444.049	3.58
444.255	3.52
444.461	3.5
444.667	3.4
444.873	3.26
445.079	3.18
445.284	3.17
445.49	3.15
445.696	3.22
445.902	3.28
446.108	3.26
446.314	3.32
446.52	3.44
446.726	3.45
446.931	3.4
447.137	3.43
447.343	3.31
447.549	3.16
447.755	3.09
447.96	3.2
448.166	3.15
448.372	3.3
448.578	3.39
448.783	3.48
448.989	3.58
449.195	3.55
449.4	3.5
449.606	3.44
449.812	3.41
450.017	3.3
450.223	3.39
450.428	3.4
450.634	3.48
450.84	3.56
451.045	3.6
451.251	3.62
451.456	3.66
451.662	3.62
451.867	3.54
452.073	3.52
452.278	3.46
452.483	3.51
452.689	3.52
452.894	3.57
453.1	3.53
453.305	3.62
453.51	3.5
453.716	3.53
453.921	3.53
454.127	3.67
454.332	3.55
454.537	3.57
454.742	3.59
454.948	3.47
455.153	3.42
455.358	3.53
455.563	3.56
455.769	3.41
455.974	3.52
456.179	3.45
456.384	3.31
456.589	3.32
456.795	3.37
457	3.45
457.205	3.59
457.41	3.74
457.615	3.67
457.82	3.74
458.025	3.58
458.23	3.48
458.435	3.38
458.64	3.39
458.845	3.4
459.05	3.47
459.255	3.48
459.46	3.57
459.665	3.67
459.87	3.61
460.075	3.63
460.28	3.61
460.485	3.54
460.69	3.48
460.895	3.55
461.099	3.5
461.304	3.51
461.509	3.59
461.714	3.61
461.919	3.6
462.123	3.58
462.328	3.54
462.533	3.5
462.738	3.51
462.942	3.42
463.147	3.61
463.352	3.65
463.556	3.67
463.761	3.68
463.966	3.74
464.17	3.76
464.375	3.77
464.58	3.75
464.784	3.8
464.989	3.79
465.193	3.66
465.398	3.76
465.602	3.81
465.807	3.83
466.011	3.84
466.216	3.82
466.42	3.82
466.625	3.83
466.829	3.85
467.034	3.98
467.238	3.97
467.443	3.86
467.647	3.78
467.851	3.74
468.056	3.62
468.26	3.74
468.464	3.81
468.669	3.93
468.873	4.01
469.077	4.09
469.282	4.03
469.486	4
469.69	3.95
469.894	3.89
470.099	3.91
470.303	4.02
470.507	4.03
470.711	3.99
470.915	4.02
471.119	4.02
471.324	3.97
471.528	3.99
471.732	4.1
471.936	4.11
472.14	4.12
472.344	4.18
472.548	4.25
472.752	4.29
472.956	4.26
473.16	4.25
473.364	4.2
473.568	4.22
473.772	4.19
473.976	4.2
474.18	4.29
474.384	4.26
474.588	4.18
474.792	4.18
474.995	4.2
475.199	4.17
475.403	4.26
475.607	4.28
475.811	4.27
476.015	4.29
476.218	4.16
476.422	4.11
476.626	4.03
476.83	4.04
477.033	4.08
477.237	4.19
477.441	4.2
477.644	4.34
477.848	4.34
478.052	4.3
478.255	4.19
478.459	4.17
478.663	4.12
478.866	4.1
479.07	4.06
479.273	4.13
479.477	4.09
479.681	4.14
479.884	4.1
480.088	4.12
480.291	4.22
480.495	4.28
480.698	4.23
480.901	4.26
481.105	4.27
481.308	4.15
481.512	4.15
481.715	4.14
481.919	4.24
482.122	4.33
482.325	4.41
482.529	4.45
482.732	4.56
482.935	4.44
483.138	4.3
483.342	4.26
483.545	4.32
483.748	4.32
483.952	4.4
484.155	4.53
484.358	4.56
484.561	4.56
484.764	4.5
484.967	4.51
485.171	4.45
485.374	4.44
485.577	4.39
485.78	4.44
485.983	4.43
486.186	4.38
486.389	4.43
486.592	4.49
486.795	4.51
486.998	4.51
487.201	4.66
487.404	4.7
487.607	4.77
487.81	4.71
488.013	4.8
488.216	4.78
488.419	4.83
488.622	4.82
488.825	4.93
489.028	4.94
489.231	5.01
489.433	4.93
489.636	4.95
489.839	4.93
490.042	4.94
490.245	4.87
490.447	5.01
490.65	5.05
490.853	5.16
491.056	5.27
491.258	5.33
491.461	5.33
491.664	5.37
491.866	5.31
492.069	5.31
492.272	5.37
492.474	5.42
492.677	5.41
492.879	5.44
493.082	5.61
493.285	5.71
493.487	5.72
493.69	5.78
493.892	5.89
494.095	5.83
494.297	5.87
494.5	6.04
494.702	6.19
494.905	6.37
495.107	6.39
495.309	6.49
495.512	6.52
495.714	6.67
495.917	6.66
496.119	6.78
496.321	6.81
496.524	6.91
496.726	6.82
496.928	6.89
497.13	6.92
497.333	7.02
497.535	7.03
497.737	7.18
497.939	7.24
498.142	7.37
498.344	7.45
498.546	7.41
498.748	7.51
498.95	7.57
499.152	7.58
499.355	7.67
499.557	7.82
499.759	7.77
499.961	7.82
500.163	7.83
500.365	7.85
500.567	7.88
500.769	7.91
500.971	7.99
501.173	8.08
501.375	8.14
501.577	8.14
501.779	8.27
501.981	8.25
502.183	8.28
502.385	8.21
502.587	8.2
502.788	8.19
502.99	8.21
503.192	8.25
503.394	8.24
503.596	8.35
503.798	8.3
503.999	8.32
504.201	8.3
504.403	8.33
504.605	8.29
504.806	8.35
505.008	8.34
505.21	8.38
505.411	8.36
505.613	8.33
505.815	8.3
506.016	8.31
506.218	8.23
506.42	8.25
506.621	8.24
506.823	8.18
507.024	8.07
507.226	8.1
507.427	8.04
507.629	8.02
507.83	7.97
508.032	7.95
508.233	7.9
508.435	7.89
508.636	7.95
508.838	7.96
509.039	7.92
509.24	7.86
509.442	7.83
509.643	7.73
509.845	7.7
510.046	7.76
510.247	7.79
510.448	7.83
510.65	7.79
510.851	7.7
511.052	7.65
511.254	7.54
511.455	7.49
511.656	7.41
511.857	7.48
512.058	7.43
512.26	7.43
512.461	7.31
512.662	7.36
512.863	7.26
513.064	7.27
513.265	7.25
513.466	7.28
513.667	7.22
513.868	7.17
514.069	7.17
514.27	7.17
514.471	7.17
514.672	7.12
514.873	7.11
515.074	7.16
515.275	7.1
515.476	7.09
515.677	7.18
515.878	7.31
516.079	7.18
516.28	7.2
516.481	7.2
516.682	7.15
516.882	7.05
517.083	7.13
517.284	7.04
517.485	6.99
517.686	6.91
517.886	6.9
518.087	6.85
518.288	6.92
518.488	6.88
518.689	6.95
518.89	6.95
519.091	6.94
519.291	6.89
519.492	6.95
519.692	6.92
519.893	6.95
520.094	6.95
520.294	7.01
520.495	6.99
520.695	6.98
520.896	6.93
521.096	6.97
521.297	6.96
521.497	6.97
521.698	6.94
521.898	6.93
522.099	6.84
522.299	6.78
522.499	6.81
522.7	6.84
522.9	6.85
523.101	6.88
523.301	6.9
523.501	6.87
523.702	6.84
523.902	6.85
524.102	6.88
524.302	6.92
524.503	6.98
524.703	6.98
524.903	6.94
525.103	6.89
525.304	6.89
525.504	6.83
525.704	6.86
525.904	6.91
526.104	6.95
526.304	6.99
526.504	7.01
526.705	6.97
526.905	6.93
527.105	6.91
527.305	6.88
527.505	6.83
527.705	6.91
527.905	6.95
528.105	6.95
528.305	6.88
528.505	6.89
528.705	6.86
528.905	6.85
529.105	6.85
529.304	6.89
529.504	6.96
529.704	6.96
529.904	6.93
530.104	6.97
530.304	6.96
530.503	6.9
530.703	6.93
530.903	6.98
531.103	6.98
531.303	7.03
531.502	7.11
531.702	7.08
531.902	7.03
532.101	7.04
532.301	7.03
532.501	7.02
532.7	7.06
532.9	7.1
533.1	7.13
533.299	7.09
533.499	7.08
533.698	7.05
533.898	7.07
534.097	7.01
534.297	7.14
534.496	7.08
534.696	7.14
534.895	7.18
535.095	7.24
535.294	7.21
535.494	7.25
535.693	7.24
535.892	7.26
536.092	7.2
536.291	7.18
536.491	7.16
536.69	7.15
536.889	7.06
537.088	7.09
537.288	7.14
537.487	7.19
537.686	7.21
537.886	7.32
538.085	7.35
538.284	7.36
538.483	7.41
538.682	7.43
538.882	7.39
539.081	7.43
539.28	7.39
539.479	7.33
539.678	7.31
539.877	7.37
540.076	7.38
540.275	7.44
540.474	7.5
540.673	7.54
540.872	7.51
541.071	7.52
541.27	7.49
541.469	7.55
541.668	7.58
541.867	7.64
542.066	7.71
542.265	7.78
542.464	7.77
542.663	7.87
542.862	7.96
543.06	7.96
543.259	8.06
543.458	8.07
543.657	8.05
543.856	8.02
544.054	8.04
544.253	8
544.452	8.05
544.651	8.11
544.849	8.07
545.048	8.07
545.247	8.05
545.445	8.04
545.644	7.96
545.843	8
546.041	8.05
546.24	8.1
546.438	8.15
546.637	8.26
546.836	8.3
547.034	8.27
547.233	8.35
547.431	8.37
547.63	8.34
547.828	8.39
548.027	8.42
548.225	8.37
548.423	8.4
548.622	8.42
548.82	8.42
549.019	8.46
549.217	8.49
549.415	8.53
549.614	8.68
549.812	8.71
550.01	8.8
550.209	8.9
550.407	8.98
550.605	8.96
550.803	9.03
551.002	9.1
551.2	9.11
551.398	9.11
551.596	9.11
551.794	9.24
551.993	9.24
552.191	9.29
552.389	9.31
552.587	9.37
552.785	9.35
552.983	9.48
553.181	9.61
553.379	9.77
553.577	9.81
553.775	9.84
553.973	9.81
554.171	9.79
554.369	9.83
554.567	9.88
554.765	9.94
554.963	9.99
555.161	9.98
555.359	10.06
555.557	10.14
555.755	10.22
555.952	10.3
556.15	10.47
556.348	10.47
556.546	10.59
556.744	10.67
556.941	10.69
557.139	10.74
557.337	10.84
557.535	10.82
557.732	10.85
557.93	10.97
558.128	10.94
558.325	11.02
558.523	11.1
558.721	11.2
558.918	11.22
559.116	11.36
559.313	11.4
559.511	11.55
559.708	11.58
559.906	11.73
560.104	11.85
560.301	11.97
560.498	12.03
560.696	12.1
560.893	12.13
561.091	12.18
561.288	12.21
561.486	12.27
561.683	12.37
561.88	12.54
562.078	12.66
562.275	12.71
562.473	12.81
562.67	12.93
562.867	12.97
563.064	13.05
563.262	13.13
563.459	13.24
563.656	13.35
563.853	13.39
564.051	13.34
564.248	13.45
564.445	13.49
564.642	13.5
564.839	13.67
565.036	13.78
565.234	13.83
565.431	13.88
565.628	13.94
565.825	13.93
566.022	14.06
566.219	14.08
566.416	14.14
566.613	14.27
566.81	14.4
567.007	14.48
567.204	14.64
567.401	14.79
567.598	14.9
567.795	14.88
567.991	14.91
568.188	15.01
568.385	15.03
568.582	15.07
568.779	15.17
568.976	15.28
569.172	15.34
569.369	15.39
569.566	15.42
569.763	15.43
569.96	15.52
570.156	15.52
570.353	15.55
570.55	15.61
570.746	15.68
570.943	15.61
571.14	15.66
571.336	15.64
571.533	15.63
571.729	15.77
571.926	15.9
572.123	15.89
572.319	15.94
572.516	16.06
572.712	16.01
572.909	16.04
573.105	16.08
573.302	16.14
573.498	16.12
573.695	16.18
573.891	16.26
574.087	16.32
574.284	16.38
574.48	16.42
574.677	16.39
574.873	16.32
575.069	16.44
575.266	16.37
575.462	16.35
575.658	16.41
575.854	16.49
576.051	16.43
576.247	16.55
576.443	16.62
576.639	16.7
576.835	16.65
577.032	16.62
577.228	16.69
577.424	16.8
577.62	16.73
577.816	16.73
578.012	16.77
578.208	16.62
578.404	16.49
578.6	16.53
578.796	16.57
578.993	16.56
579.189	16.61
579.384	16.58
579.58	16.51
579.776	16.4
579.972	16.4
580.168	16.37
580.364	16.26
580.56	16.29
580.756	16.31
580.952	16.22
581.148	16.26
581.343	16.37
581.539	16.33
581.735	16.34
581.931	16.43
582.127	16.34
582.322	16.29
582.518	16.31
582.714	16.24
582.909	16.14
583.105	16.2
583.301	16.15
583.496	16.11
583.692	16.15
583.888	16.16
584.083	16.2
584.279	16.33
584.474	16.3
584.67	16.28
584.866	16.24
585.061	16.2
585.257	16.21
585.452	16.2
585.648	16.12
585.843	16.14
586.039	16.09
586.234	16
586.429	15.97
586.625	16.08
586.82	16.09
587.015	16.09
587.211	16.06
587.406	16.03
587.601	16
587.797	15.9
587.992	15.95
588.187	15.96
588.383	16
588.578	16.05
588.773	16.11
588.968	16.09
589.163	16.14
589.359	16.18
589.554	16.15
589.749	16.18
589.944	16.18
590.139	16.16
590.334	16.19
590.529	16.2
590.724	16.2
590.919	16.16
591.114	16.27
591.309	16.26
591.504	16.3
591.699	16.34
591.894	16.43
592.089	16.4
592.284	16.44
592.479	16.44
592.674	16.46
592.869	16.44
593.064	16.5
593.259	16.51
593.454	16.5
593.648	16.55
593.843	16.67
594.038	16.64
594.233	16.71
594.428	16.76
594.622	16.78
594.817	16.78
595.012	16.76
595.206	16.76
595.401	16.84
595.596	16.86
595.79	16.87
595.985	16.95
596.18	17.08
596.374	17.09
596.569	17.24
596.763	17.29
596.958	17.43
597.153	17.41
597.347	17.58
597.542	17.53
597.736	17.56
597.931	17.51
598.125	17.63
598.319	17.65
598.514	17.73
598.708	17.84
598.903	17.97
599.097	17.97
599.291	17.99
599.486	18.02
599.68	18.01
599.874	18.01
600.069	18.11
600.263	18.08
600.457	18.12
600.651	18.17
600.846	18.13
601.04	18.04
601.234	18.05
601.428	18.09
601.622	18.12
601.817	18.19
602.011	18.22
602.205	18.28
602.399	18.25
602.593	18.24
602.787	18.22
602.981	18.23
603.175	18.28
603.369	18.28
603.563	18.33
603.757	18.44
603.951	18.5
604.145	18.44
604.339	18.49
604.533	18.47
604.727	18.37
604.921	18.31
605.115	18.37
605.309	18.25
605.502	18.09
605.696	18.01
605.89	17.98
606.084	17.9
606.278	17.96
606.471	18.05
606.665	17.98
606.859	17.93
607.053	17.94
607.246	17.9
607.44	17.74
607.634	17.9
607.827	17.74
608.021	17.57
608.214	17.48
608.408	17.55
608.602	17.42
608.795	17.49
608.989	17.46
609.182	17.38
609.376	17.33
609.569	17.23
609.763	17.2
609.956	17.11
610.15	17
610.343	16.93
610.537	16.91
610.73	16.75
610.923	16.78
611.117	16.86
611.31	16.78
611.504	16.78
611.697	16.78
611.89	16.71
612.083	16.52
612.277	16.47
612.47	16.38
612.663	16.38
612.856	16.35
613.05	16.41
613.243	16.3
613.436	16.22
613.629	16.1
613.822	16.03
614.015	15.94
614.209	15.93
614.402	15.82
614.595	15.8
614.788	15.74
614.981	15.61
615.174	15.57
615.367	15.46
615.56	15.31
615.753	15.32
615.946	15.31
616.139	15.22
616.332	15.33
616.525	15.26
616.718	15.14
616.911	15.07
617.103	15.11
617.296	15.04
617.489	15.02
617.682	14.95
617.875	14.93
618.067	14.75
618.26	14.71
618.453	14.72
618.646	14.65
618.838	14.64
619.031	14.61
619.224	14.48
619.417	14.46
619.609	14.42
619.802	14.38
619.994	14.39
620.187	14.39
620.38	14.36
620.572	14.35
620.765	14.36
620.957	14.32
621.15	14.29
621.342	14.22
621.535	14.25
621.727	14.22
621.92	14.09
622.112	14.05
622.305	14.08
622.497	14
622.69	13.91
622.882	14.03
623.074	14.09
623.267	14.01
623.459	14.03
623.651	14.1
623.844	14.1
624.036	14
624.228	14.03
624.42	14.04
624.613	14.01
624.805	13.98
624.997	13.98
625.189	13.98
625.381	13.96
625.574	13.84
625.766	13.88
625.958	13.86
626.15	13.83
626.342	13.73
626.534	13.75
626.726	13.62
626.918	13.53
627.11	13.5
627.302	13.47
627.494	13.41
627.686	13.45
627.878	13.5
628.07	13.44
628.262	13.48
628.454	13.4
628.646	13.33
628.838	13.4
629.029	13.27
629.221	13.18
629.413	13.24
629.605	13.14
629.797	12.97
629.989	13.07
630.18	13.04
630.372	12.98
630.564	13.04
630.755	13.05
630.947	13.03
631.139	12.94
631.33	12.91
631.522	12.91
631.714	12.82
631.905	12.77
632.097	12.79
632.289	12.79
632.48	12.65
632.672	12.65
632.863	12.58
633.055	12.58
633.246	12.5
633.438	12.51
633.629	12.44
633.821	12.43
634.012	12.36
634.203	12.36
634.395	12.42
634.586	12.55
634.777	12.5
634.969	12.45
635.16	12.53
635.351	12.43
635.543	12.38
635.734	12.42
635.925	12.5
636.117	12.51
636.308	12.56
636.499	12.48
636.69	12.38
636.881	12.3
637.073	12.23
637.264	12.15
637.455	12.14
637.646	12.17
637.837	12.15
638.028	12.12
638.219	12.08
638.41	12.1
638.601	12.08
638.792	12.04
638.983	11.96
639.174	11.9
639.365	11.79
639.556	11.71
639.747	11.7
639.938	11.75
640.129	11.8
640.32	11.76
640.511	11.77
640.701	11.81
640.892	11.77
641.083	11.68
641.274	11.68
641.465	11.69
641.655	11.63
641.846	11.62
642.037	11.59
642.228	11.55
642.418	11.48
642.609	11.4
642.8	11.35
642.99	11.31
643.181	11.31
643.372	11.26
643.562	11.2
643.753	11.17
643.943	11.17
644.134	11.15
644.324	11.25
644.515	11.27
644.705	11.22
644.896	11.26
645.086	11.19
645.277	11.07
645.467	11.19
645.658	11.16
645.848	11.11
646.038	11.16
646.229	11.14
646.419	10.99
646.61	11.03
646.8	11.01
646.99	10.88
647.18	10.89
647.371	10.91
647.561	10.87
647.751	10.78
647.941	10.81
648.132	10.83
648.322	10.81
648.512	10.74
648.702	10.78
648.892	10.8
649.082	10.74
649.272	10.6
649.462	10.61
649.653	10.6
649.843	10.56
650.033	10.69
650.223	10.81
650.413	10.76
650.603	10.79
650.793	10.75
650.983	10.59
651.172	10.6
651.362	10.54
651.552	10.42
651.742	10.36
651.932	10.28
652.122	10.27
652.312	10.28
652.502	10.23
652.691	10.3
652.881	10.31
653.071	10.21
653.261	10.14
653.45	10.12
653.64	10.01
653.83	9.89
654.019	9.73
654.209	9.73
654.399	9.68
654.588	9.59
654.778	9.61
654.968	9.61
655.157	9.5
655.347	9.41
655.536	9.34
655.726	9.2
655.915	9.08
656.105	9.04
656.294	9
656.484	8.99
656.673	8.91
656.863	8.96
657.052	8.82
657.241	8.63
657.431	8.46
657.62	8.38
657.809	8.19
657.999	8.17
658.188	8.13
658.377	8.1
658.567	8.03
658.756	7.91
658.945	7.76
659.134	7.65
659.324	7.65
659.513	7.58
659.702	7.43
659.891	7.45
660.08	7.4
660.269	7.15
660.458	7.03
660.648	7.01
660.837	6.82
661.026	6.7
661.215	6.7
661.404	6.59
661.593	6.46
661.782	6.38
661.971	6.36
662.16	6.26
662.349	6.14
662.538	6.12
662.726	6.06
662.915	6.02
663.104	5.92
663.293	5.91
663.482	5.96
663.671	5.89
663.86	5.7
664.048	5.67
664.237	5.7
664.426	5.65
664.615	5.66
664.803	5.78
664.992	5.74
665.181	5.66
665.369	5.52
665.558	5.49
665.747	5.43
665.935	5.49
666.124	5.43
666.312	5.45
666.501	5.51
666.69	5.35
666.878	5.17
667.067	5.14
667.255	5.11
667.444	5.11
667.632	5.15
667.82	5.29
668.009	5.31
668.197	5.27
668.386	5.03
668.574	5.06
668.762	5
668.951	5.07
669.139	5.06
669.327	5.23
669.516	5.25
669.704	5.31
669.892	5.34
670.08	5.38
670.269	5.33
670.457	5.35
670.645	5.35
670.833	5.34
671.021	5.35
671.21	5.29
671.398	5.37
671.586	5.26
671.774	5.26
671.962	5.32
672.15	5.55
672.338	5.56
672.526	5.7
672.714	5.64
672.902	5.54
673.09	5.55
673.278	5.56
673.466	5.75
673.654	5.9
673.842	6.01
674.03	6.06
674.218	6.17
674.405	6.11
674.593	6.24
674.781	6.3
674.969	6.28
675.157	6.29
675.344	6.36
675.532	6.32
675.72	6.41
675.908	6.5
676.095	6.51
676.283	6.55
676.471	6.61
676.658	6.69
676.846	6.69
677.033	6.75
677.221	6.81
677.409	6.92
677.596	6.99
677.784	7.08
677.971	7.26
678.159	7.29
678.346	7.3
678.534	7.42
678.721	7.35
678.909	7.33
679.096	7.48
679.283	7.52
679.471	7.54
679.658	7.91
679.846	7.89
680.033	8.09
680.22	8.15
680.408	8.25
680.595	8.11
680.782	8.3
680.969	8.07
681.157	8.16
681.344	8.15
681.531	8.33
681.718	8.43
681.905	8.59
682.093	8.65
682.28	8.73
682.467	8.85
682.654	9.02
682.841	9.22
683.028	9.33
683.215	9.63
683.402	9.65
683.589	9.83
683.776	9.8
683.963	9.94
684.15	9.95
684.337	10.13
684.524	10.13
684.711	10.42
684.898	10.6
685.085	10.75
685.271	10.88
685.458	11.05
685.645	11.23
685.832	11.52
686.019	11.79
686.205	12.05
686.392	12.33
686.579	12.56
686.766	12.63
686.952	12.71
687.139	13.1
687.326	13.41
687.512	13.53
687.699	13.98
687.886	14.49
688.072	14.61
688.259	14.93
688.445	15.4
688.632	15.65
688.818	16.13
689.005	16.58
689.191	16.88
689.378	17.36
689.564	17.72
689.751	17.94
689.937	18.46
690.124	18.83
690.31	19.05
690.496	19.69
690.683	20.13
690.869	20.5
691.055	21.02
691.242	21.73
691.428	22.08
691.614	22.74
691.8	23.39
691.987	23.86
692.173	24.43
692.359	25.06
692.545	25.56
692.731	26.09
692.918	26.74
693.104	27.12
693.29	27.84
693.476	28.51
693.662	29.22
693.848	29.84
694.034	30.56
694.22	31.11
694.406	31.66
694.592	32.07
694.778	32.66
694.964	33.3
695.15	33.8
695.336	34.38
695.522	35.08
695.708	35.86
695.894	36.32
696.08	37.01
696.265	37.6
696.451	38.19
696.637	38.65
696.823	39.34
697.009	39.93
697.194	40.42
697.38	41
697.566	41.53
697.751	42.13
697.937	43.11
698.123	43.65
698.308	44.28
698.494	45.1
698.68	45.92
698.865	46.17
699.051	46.93
699.236	47.61
699.422	48.16
699.607	48.68
699.793	49.3
699.978	49.64
700.164	50.04
700.349	50.9
700.535	51.21
700.72	51.71
700.906	52.74
701.091	53.25
701.276	53.52
701.462	54.51
701.647	54.82
701.832	55.23
702.018	55.81
702.203	56.13
702.388	56.32
702.573	56.53
702.759	56.78
702.944	57.07
703.129	57.43
703.314	57.84
703.499	58.98
703.684	59.47
703.87	59.87
704.055	60.15
704.24	60.48
704.425	60.37
704.61	60.33
704.795	60.39
704.98	61.06
705.165	61.32
705.35	61.76
705.535	62.47
705.72	63.3
705.905	63.63
706.09	64.21
706.275	64.87
706.459	65.14
706.644	65.15
706.829	65.46
707.014	65.83
707.199	65.84
707.384	66.1
707.568	66.35
707.753	66.73
707.938	67.1
708.123	67.67
708.307	68.22
708.492	68.67
708.677	68.59
708.861	68.53
709.046	68.32
709.231	68.3
709.415	68.78
709.6	69.16
709.784	69.34
709.969	69.52
710.153	69.84
710.338	69.8
710.522	69.95
710.707	70.7
710.891	71.23
711.076	71.47
711.26	71.43
711.445	71.75
711.629	71.53
711.813	71.38
711.998	71.57
712.182	72.01
712.366	72.43
712.551	72.61
712.735	73.27
712.919	73.23
713.103	73.69
713.288	73.55
713.472	73.97
713.656	73.81
713.84	74.41
714.024	74.48
714.208	74.67
714.393	74.4
714.577	74.77
714.761	74.58
714.945	74.71
715.129	74.59
715.313	75.3
715.497	75.55
715.681	76.16
715.865	76.09
716.049	76.48
716.233	76.57
716.417	76.86
716.601	76.28
716.785	76.56
716.968	76.93
717.152	77.16
717.336	77.18
717.52	77.47
717.704	77.33
717.888	77.03
718.071	76.57
718.255	76.64
718.439	76.52
718.622	76.71
718.806	76.96
718.99	77.23
719.174	76.98
719.357	77.28
719.541	77.67
719.724	77.91
719.908	78.12
720.092	78.55
720.275	79.25
720.459	79.24
720.642	79.7
720.826	79.71
721.009	79.59
721.193	79.41
721.376	79.74
721.559	80.12
721.743	80.48
721.926	80.66
722.11	80.7
722.293	80.83
722.476	80.44
722.66	80.48
722.843	80.44
723.026	80.48
723.21	80.65
723.393	80.24
723.576	80.12
723.759	80.71
723.942	80.71
724.126	80.58
724.309	81.04
724.492	81.02
724.675	81.19
724.858	81.88
725.041	81.96
725.224	81.99
725.407	82.04
725.59	81.85
725.774	81.43
725.957	81.13
726.14	81.34
726.322	81.08
726.505	81.53
726.688	81.54
726.871	82.35
727.054	82.55
727.237	83.17
727.42	83.46
727.603	83.87
727.786	83.66
727.968	83.38
728.151	83.83
728.334	83.55
728.517	84.3
728.699	84.52
728.882	85.08
729.065	84.83
729.248	84.74
729.43	84.13
729.613	83.93
729.796	83.9
729.978	84.52
730.161	84.4
730.343	84.73
730.526	85.52
730.708	85.53
730.891	84.9
731.073	85.01
731.256	84.59
731.438	83.63
731.621	84.43
731.803	84.8
731.986	85.66
732.168	86.15
732.35	86.84
732.533	86.76
732.715	86.85
732.898	85.86
733.08	85.5
733.262	86.18
733.444	85.48
733.627	85.51
733.809	85.56
733.991	86.43
734.173	86.33
734.355	86.11
734.538	86.32
734.72	86.95
734.902	87.04
735.084	86.25
735.266	86.8
735.448	86.81
735.63	86.92
735.812	87.2
735.994	88.06
736.176	88.53
736.358	87.52
736.54	87.27
736.722	86.54
736.904	86.57
737.086	86.32
737.268	87.75
737.45	88.36
737.632	88.87
737.814	89.21
737.995	90.15
738.177	89.8
738.359	89.07
738.541	88.9
738.723	89.22
738.904	88.18
739.086	88.35
739.268	89.04
739.449	88.49
739.631	87.87
739.813	88.1
739.994	89.49
740.176	88.57
740.358	89.78
740.539	90.44
740.721	90.31
740.902	88.62
741.084	90.1
741.265	89.01
741.447	88.44
741.628	89.72
741.81	89.12
741.991	88.58
742.172	90.36
742.354	90.76
742.535	89.34
742.717	89.6
742.898	89.72
743.079	88.32
743.261	89.06
743.442	89.95
743.623	91.18
743.804	91.63
743.986	91.69
744.167	89.45
744.348	88.34
744.529	88.19
744.71	88.98
744.891	88.57
745.073	89.93
745.254	90.48
745.435	89.59
745.616	89.03
745.797	89.64
745.978	90.12
746.159	90.41
746.34	90.76
746.521	91.1
746.702	90.78
746.883	87.98
747.064	87.11
747.245	87.4
747.426	88.45
747.606	88.68
747.787	91.32
747.968	91.8
748.149	91.31
748.33	88.41
748.51	89.18
748.691	88.74
748.872	88.93
749.053	88.48
749.233	89.34
749.414	88.62
749.595	89.29
749.775	89.1
749.956	90.14
750.137	90.04
750.317	89.59
750.498	88.36
750.678	87.66
750.859	87.07
751.04	87.2
751.22	87.54
751.4	88.58
751.581	89.52
751.761	90.14
751.942	90.86
752.122	90.72
752.303	88.73
752.483	89.19
752.663	88.87
752.844	88.44
753.024	89.17
753.204	90.1
753.385	88.41
753.565	89.18
753.745	89.71
753.925	89.15
754.106	89.71
754.286	91.91
754.466	92.09
754.646	90.48
754.826	90.1
755.006	90.49
755.187	88.52
755.367	87.58
755.547	87.76
755.727	89.23
755.907	88.28
756.087	89.66
756.267	89.13
756.447	89.63
756.627	87.24
756.807	86.33
756.987	87.39
757.167	88.95
757.346	88.8
757.526	90.49
757.706	93.27
757.886	90.86
758.066	91.48
758.246	90.78
758.425	89.1
758.605	87.15
758.785	88.07
758.965	86.79
759.144	87.53
759.324	88.07
759.504	89.22
759.683	90.35
759.863	91.53
760.043	90.23
760.222	89.13
760.402	87.92
760.581	86.58
760.761	83.75
760.94	84.91
761.12	88.2
761.299	87.06
761.479	87.8
761.658	88.17
761.838	87.27
762.017	86.21
762.197	87.66
762.376	87.72
762.555	88.51
762.735	89.52
762.914	90.67
763.093	90.76
763.273	89.4
763.452	88.68
763.631	88.88
763.81	88.33
763.99	87.57
764.169	87.54
764.348	88.32
764.527	87.23
764.706	85.26
764.885	86.18
765.064	87.29
765.243	86.36
765.423	87.9
765.602	89.35
765.781	89.94
765.96	87.76
766.139	87.62
766.318	86.72
766.497	86.61
766.676	86.64
766.854	89.88
767.033	90
767.212	88.31
767.391	85.85
767.57	85.09
767.749	84.33
767.928	85.67
768.106	86.26
768.285	87.04
768.464	84.98
768.643	83.27
768.821	81.86
769	82.04
769.179	82.24
769.357	83.26
769.536	84.14
769.715	83.43
769.893	83.55
770.072	82.72
770.25	82.39
770.429	83.01
770.607	83.43
770.786	82.81
770.964	82.94
771.143	84.1
771.321	81.77
771.5	83.43
771.678	84.11
771.857	86.6
772.035	86.98
772.213	89.26
772.392	86.96
772.57	86.26
772.748	84.98
772.927	84.27
773.105	81.77
773.283	82.87
773.461	84.13
773.64	82.43
773.818	81.76
773.996	82.82
774.174	82
774.352	80.46
774.531	81.07
774.709	82.23
774.887	83.91
775.065	83.94
775.243	85.87
775.421	87.39
775.599	87
775.777	84.7
775.955	85.41
776.133	83.85
776.311	83.46
776.489	83.67
776.667	85.37
776.844	86.65
777.022	86.93
777.2	85.31
777.378	83.52
777.556	82.79
777.734	80.61
777.911	81.52
778.089	81.57
778.267	81.64
778.445	78.36
778.622	78.78
778.8	79.46
778.978	83.83
779.155	82.21
779.333	82.51
779.511	82.75
779.688	82.15
779.866	78.85
780.043	80.21
780.221	81.43
780.398	81.43
780.576	81.96
780.753	80.54
780.931	81.07
781.108	82.16
781.286	83.92
781.463	83.06
781.64	84.74
781.818	86.46
781.995	86.54
782.172	83.15
782.35	81.87
782.527	82.35
782.704	82.11
782.882	83.34
783.059	83.27
783.236	81.37
783.413	80.53
783.59	81.48
783.768	77.79
783.945	77.76
784.122	81.04
784.299	78.07
784.476	77.79
784.653	79.18
784.83	80.91
785.007	78.88
785.184	80.57
785.361	80.02
785.538	82.65
785.715	84.92
785.892	87.4
786.069	88.6
786.246	90.15
786.423	89.36
786.6	87.79
786.776	88.17
786.953	85.68
787.13	84.77
787.307	83.22
787.484	85.48
787.66	84.7
787.837	90.32
788.014	90.95
788.191	91.37
788.367	92.47
788.544	92.44
788.721	89.06
788.897	85.13
789.074	82.44
789.25	78.9
789.427	76.97
789.603	74.36
789.78	76.21
789.956	82.27
790.133	79.1
790.309	78.51
790.486	79.87
790.662	80.36
790.839	73.69
791.015	78.07
791.192	81.58
791.368	83.42
791.544	82.73
791.721	88.69
791.897	89.42
792.073	88.16
792.249	85.78
792.426	84.9
792.602	84.26
792.778	80.44
792.954	77
793.13	79.07
793.307	81.05
793.483	76.39
793.659	74.4
793.835	75.5
794.011	72.47
794.187	66.05
794.363	64.79
794.539	66.99
794.715	66.21
794.891	68.65
795.067	72.96
795.243	75.6
795.419	78.71
795.595	79.83
795.771	76.9
795.947	76.26
796.122	75.73
796.298	77.92
796.474	78.15
796.65	75.12
796.826	77.42
797.001	77.89
797.177	73.84
797.353	69.09
797.529	75.64
797.704	72.9
797.88	71.75
798.056	70.62
798.231	72.93
798.407	76.63
798.582	79.87
798.758	84.53
798.934	86.51
799.109	89.31
799.285	86.2
799.46	81.34
799.636	81.24
799.811	78.97
799.986	79.72
800.162	82.68
800.337	89.57
800.513	85.41
800.688	81.29
800.863	79.83
801.039	81.33
801.214	76.67
801.389	80.02
801.565	81.92
801.74	83.84
801.915	73.95
802.09	81.23
802.265	81.41
802.441	84.89
802.616	77.96
802.791	84.6
802.966	86.78
803.141	86.07
803.316	83.43
803.491	86.41
803.666	84.65
803.841	74.72
804.016	75.73
804.191	79.54
804.366	90.03
804.541	88.77
804.716	86.85
804.891	76.47
805.066	74.94
805.241	66.01
805.416	71.85
805.591	75.48
805.765	76.76
805.94	76.83
806.115	74.8
806.29	69.44
806.464	70.63
806.639	77.93
806.814	77.9
806.989	74.05
807.163	73.43
807.338	71.69
807.512	59.97
807.687	58.39
807.862	61.99
808.036	65.81
808.211	63.19
808.385	68.37
808.56	72.04
808.734	60.96
808.909	64.55
809.083	64.44
809.258	64.93
809.432	57.86
809.606	63.54
809.781	55.44
809.955	58.39
810.13	66.22
810.304	65.03
810.478	67.33
810.652	77.39
810.827	78
811.001	74.28
811.175	89.71
811.349	93.73
811.524	78.71
811.698	62.74
811.872	67.58
812.046	62.05
812.22	68.82
812.394	72.36
812.568	90.56
812.742	84.37
812.916	85.2
813.09	82.9
813.264	88.54
813.438	89.22
813.612	88.48
813.786	80.64
813.96	73.87
814.134	81.83
814.308	81.44
814.482	79.96
814.656	90.52
814.83	92.01
815.003	80.96
815.177	82.62
815.351	97.36
815.525	86.88
815.698	82.4
815.872	66.68
816.046	69.9
816.219	54.65
816.393	61.63
816.567	85.33
816.74	105.96
816.914	84.74
817.088	102.13
817.261	96.4
817.435	87.38
817.608	83.32
817.782	89.82
817.955	79.92
818.129	74.02
818.302	62.8
818.475	62.09
818.649	71.43
818.822	70.36
818.996	76.63
819.169	79.16
819.342	74.45
819.516	59.85
819.689	55.62
819.862	61.3
820.035	52.05
820.209	56.89
820.382	62.47
820.555	63.43
820.728	58.77
820.901	80.48
821.075	76.56
821.248	78.27
821.421	74.44
821.594	81.73
821.767	87.71
821.94	82.34
822.113	91.4
822.286	101.13
822.459	97.32
822.632	81.7
822.805	103.23
822.978	86.79
823.151	76.01
823.324	71.88
823.496	67.11
823.669	59.97
823.842	63.54
824.015	78.77
824.188	83.1
824.361	88.06
824.533	93.49
824.706	106.32
824.879	92.22
825.051	92.32
825.224	85.59
825.397	68.07
825.569	59.03
825.742	66.39
825.915	60.05
826.087	74.04
826.26	79.55
826.432	71.28
826.605	69.92
826.777	73.78
826.95	69.61
827.122	77.34
827.295	95.35
827.467	108.3
827.64	93.39
827.812	90.79
827.984	100.21
828.157	82.69
828.329	76.9
828.501	76.59
828.674	98.26
828.846	81.33
829.018	79.28
829.19	62.58
829.363	67.09
829.535	44.67
829.707	59.67
829.879	56.04
830.051	56.99
830.223	56.12
830.395	52.86
830.568	54.91
830.74	75.3
830.912	85.8
831.084	105.23
831.256	109.58
831.428	90.23
831.6	81.42
831.772	46.12
831.943	18.23
832.115	16.78
832.287	42.83
832.459	47.38
832.631	61.5
832.803	79.17
832.975	79.44
833.146	69.88
833.318	46.27
833.49	59.27
833.662	57.77
833.833	44.36
834.005	47.25
834.177	64.79
834.348	59.57
834.52	51.55
834.692	79.85
834.863	81.86
835.035	73.29
835.206	56.83
835.378	66.26
835.549	64.65
835.721	51.1
835.892	49.95
836.064	75.58
836.235	76
836.407	58.84
836.578	86.96
836.749	90.68
836.921	62.55
837.092	50.82
837.264	36.3
837.435	22.55
837.606	25.82
837.777	45.91
837.949	56.4
838.12	57.27
838.291	54.08
838.462	66.83
838.633	64.96
838.805	67.96
838.976	92.17
839.147	89.8
839.318	77.77
839.489	87.64
839.66	74.28
839.831	69.6
840.002	72.84
840.173	77.84
840.344	46.24
840.515	53.86
840.686	47.22
840.857	28.8
841.028	26.89
841.199	51.74
841.369	41.11
841.54	50.69
841.711	75.69
841.882	60.67
842.053	52.49
842.223	50.49
842.394	44.2
842.565	26.39
842.736	59.72
842.906	73.97
843.077	80.51
843.248	92.88
843.418	103.29
843.589	79.6
843.759	90.17
843.93	97.96
844.101	104.24
844.271	117.62
844.442	113.52
844.612	86.96
844.783	78.81
844.953	65.67
845.123	41.75
845.294	38.49
845.464	40.81
845.635	41.25
845.805	65.52
845.975	70.03
846.146	45.34
846.316	47.06
846.486	57.07
846.656	50.2
846.827	74.18
846.997	77.97
847.167	107.14
847.337	88.4
847.507	88.73
847.677	67.96
847.848	86.58
848.018	74.7
848.188	86.72
848.358	81.99
848.528	69.53
848.698	62.26
848.868	70.32
849.038	85.28
849.208	92.49
849.378	95.17
849.548	114.21
849.718	92.72
849.887	86.8
850.057	75.9
850.227	103.86
850.397	63.32
850.567	56.86
850.737	44.56
850.906	18.6
851.076	16.01
851.246	16.16
851.415	29.96
851.585	23.04
851.755	38.35
851.924	69.94
852.094	73.38
852.264	66.28
852.433	68.06
852.603	71.48
852.772	48.97
852.942	57.27
853.111	66.22
853.281	76.51
853.45	66.55
853.62	63.34
853.789	39.87
853.959	33
854.128	-5.25
854.297	22.67
854.467	16.59
854.636	28.63
854.805	50.41
854.975	103.21
855.144	102.37
855.313	66.22
855.482	78.29
855.652	65.51
855.821	75.05
855.99	77.21
856.159	131.71
856.328	118.63
856.497	99.31
856.667	64.56
856.836	79.47
857.005	-18.91
857.174	-173
857.343	-120.56
857.512	-78.92
857.681	23.26
857.85	49.87
858.019	65.44
858.188	76.66
858.356	78.92
858.525	40.65
858.694	50.69
858.863	26.03
859.032	-2.02
859.201	12.64
859.369	42.29
859.538	25.89
859.707	48.77
859.876	52.8
860.044	72.09
860.213	74.98
860.382	85.3
860.55	114.55
860.719	135.57
860.888	93.64
861.056	101.07
861.225	77.04
861.393	64.39
861.562	51.6
861.73	63.25
861.899	59.64
862.067	74.02
862.236	99.77
862.404	85.74
862.572	101.45
862.741	77.68
862.909	32.73
863.078	15.63
863.246	41.73
863.414	29.58
863.582	42.21
863.751	64.4
863.919	47.88
864.087	84.82
864.255	72.86
864.424	68.66
864.592	66.92
864.76	87.89
864.928	73.61
865.096	85.85
865.264	73.06
865.432	50.96
865.6	42.03
865.768	20.01
865.936	13.17
866.104	31.13
866.272	65.02
866.44	72.59
866.608	94.58
866.776	89.83
866.944	155.51
867.112	89.31
867.28	136.2
867.448	124.22
867.615	236.28
867.783	80.63
867.951	14.63
868.119	60.37
868.286	86.58
868.454	89.24
868.622	78.85
868.789	86.77
868.957	63.75
869.125	-27.97
869.292	-38.62
869.46	-56.8
869.627	3
869.795	-27.49
869.963	-13.62
870.13	-10.74
870.298	22.32
870.465	-3.66
870.632	31.72
870.8	57.76
870.967	70.03
871.135	37.27
871.302	115.03
871.469	-283.19
871.637	90.86
871.804	97.74
871.971	59.01
872.139	68.03
872.306	82.42
872.473	71.74
872.64	45.7
872.807	64.22
872.975	56.26
873.142	93.25
873.309	2017.39
873.476	866.19
873.643	282.35
873.81	131.77
873.977	94.85
874.144	87.67
874.311	42.73
874.478	13.14
874.645	13.08
874.812	1.72
874.979	-7.72
875.146	13.06
875.313	26.03
875.48	42.78
875.647	-120.35
875.813	245.33
875.98	860.61
876.147	-274.13
876.314	-0.84
876.481	-90.03
876.647	-47.71
876.814	-1.13
876.981	57.8
877.147	71.37
877.314	71.28
877.481	85.91
877.647	71.44
877.814	41.78
877.98	-11.75
878.147	-41.48
878.314	-135.95
878.48	-84.44
878.647	-68.25
878.813	9.3
878.979	140.9
879.146	138.59
879.312	173.03
879.479	140.28
879.645	107.58
879.811	77.15
879.978	72.07
880.144	75.25
880.31	45.57
880.477	10.57
880.643	26.13
880.809	42.14
880.975	145.45
881.142	-3.54
881.308	-304
881.474	128.4
881.64	44.71
881.806	7.42
881.972	31.01
882.138	99.35
882.304	67.31
882.47	59.71
882.636	-16.39
882.802	22.76
882.968	-69.02
883.134	36.28
883.3	45.67
883.466	76.3
883.632	120.57
883.798	67.14
883.964	49.61
884.129	21.16
884.295	48.02
884.461	-12.57
884.627	22.01
884.793	2.41
884.958	78.23
885.124	62.1
885.29	81.71
885.455	149.35
885.621	139.43
885.787	53.2
885.952	55.89
886.118	44.02
886.283	-1136.84
886.449	-40.97
886.614	-8.89
886.78	21.62
886.945	-1.23
887.111	-13.67
887.276	54.93
887.442	43.61
887.607	12.44
887.773	22.52
887.938	33.17
888.103	6.15
888.269	-27.43
888.434	20.65
888.599	5.01
888.764	40.9
888.93	46.6
889.095	144.71
889.26	241.69
889.425	542.69
889.59	-1217.39
889.756	858.02
889.921	152.07
890.086	193.24
890.251	233.26
890.416	131.67
890.581	97.03
890.746	178.87
890.911	120.67
891.076	97.3
891.241	102.67
891.406	105.74
891.571	66.18
891.736	67.73
891.901	70.47
892.065	107.27
892.23	139.05
892.395	113.64
892.56	207.67
892.725	186.72
892.889	134.67
893.054	34.01
893.219	-85.77
893.384	-90.13
893.548	-444.11
893.713	1422.22
893.878	227.22
