Data from Ofav_PS_Phys_9JQ42_Reflection_3.txt Node
Date: Thu Jul 29 18:22:59 EDT 2021
User: USUARIO
Spectrometer: FLMT01687
Trigger mode: 0
Integration Time (sec): 9.010000E-1
Scans to average: 2
Electric dark correction enabled: true
Nonlinearity correction enabled: false
Boxcar width: 2
XAxis mode: Wavelengths
Number of Pixels in Spectrum: 3648
>>>>>Begin Spectral Data<<<<<
179.494	249.52
179.716	225.68
179.937	163.97
180.158	-477.97
180.38	-22.53
180.601	-612.6
180.823	-280.5
181.044	-179.96
181.265	-162.28
181.486	-796.61
181.708	110.05
181.929	271.97
182.15	13057.14
182.372	-158.59
182.593	-53.28
182.814	-51.12
183.035	-822.68
183.257	143.06
183.478	74.07
183.699	94.45
183.92	65.14
184.141	46
184.363	40.05
184.584	39.1
184.805	20.24
185.026	53.83
185.247	37.49
185.468	11.8
185.689	26.95
185.91	82.08
186.132	45.49
186.353	81.27
186.574	89.81
186.795	76.2
187.016	60.93
187.237	39.87
187.458	26.8
187.679	24.68
187.9	32.75
188.121	2.93
188.342	27.57
188.563	39.81
188.784	35.85
189.005	39.93
189.226	48.8
189.447	47.97
189.667	43.71
189.888	48.56
190.109	46.33
190.33	42.68
190.551	34.29
190.772	44.34
190.993	45
191.214	51.02
191.434	40.83
191.655	45.45
191.876	56.12
192.097	20.85
192.318	9.67
192.538	24.22
192.759	44.6
192.98	33.8
193.201	48.22
193.421	43
193.642	39.23
193.863	4.39
194.083	-10.75
194.304	6.26
194.525	37.04
194.745	30.41
194.966	20.18
195.187	-3.06
195.407	-18.88
195.628	-115.64
195.848	-70.31
196.069	-36.93
196.29	10.16
196.51	11.76
196.731	30.78
196.951	9.16
197.172	-14.71
197.392	-1.24
197.613	-3.6
197.833	14.02
198.054	16.54
198.274	38.64
198.495	29.71
198.715	12.79
198.936	22.31
199.156	60.87
199.377	30.32
199.597	32.27
199.817	63.7
200.038	39.89
200.258	16.05
200.479	11.89
200.699	-19.48
200.919	-0.15
201.14	7.91
201.36	17.31
201.58	35.18
201.801	41.24
202.021	47.42
202.241	42.38
202.461	24.26
202.682	-24.56
202.902	31.5
203.122	25.22
203.342	58.49
203.563	101.33
203.783	99.42
204.003	37.19
204.223	38.45
204.443	52.11
204.663	50.79
204.884	50.97
205.104	70.31
205.324	49.92
205.544	37.1
205.764	26.73
205.984	50.36
206.204	76.61
206.424	83.02
206.644	81.17
206.864	59.83
207.084	42.32
207.304	46.28
207.525	43.35
207.745	34.63
207.964	71.96
208.184	84.7
208.404	61.15
208.624	43.81
208.844	58.54
209.064	64.58
209.284	59.2
209.504	56.38
209.724	80.11
209.944	75.36
210.164	62.63
210.384	59.08
210.604	51.74
210.823	24.47
211.043	15.3
211.263	38.93
211.483	34.26
211.703	34.71
211.922	51.73
212.142	64.1
212.362	49.55
212.582	50.53
212.801	55.82
213.021	43.05
213.241	30.99
213.461	23.03
213.68	-1.69
213.9	19.15
214.12	38.51
214.339	28.65
214.559	40.55
214.779	63.9
214.998	14.48
215.218	-14.05
215.438	29.15
215.657	30.4
215.877	37.35
216.096	43.12
216.316	58.96
216.535	39.38
216.755	-14.92
216.974	-64.47
217.194	-7.55
217.413	-3.38
217.633	39.01
217.852	35.07
218.072	31.59
218.291	27.05
218.511	48.14
218.73	14.14
218.95	28.89
219.169	36.44
219.389	32.79
219.608	17.87
219.827	28.71
220.047	23.59
220.266	9.46
220.485	25.36
220.705	13.68
220.924	-9.05
221.143	-10.94
221.363	-29.37
221.582	-63.21
221.801	-138.51
222.021	-40
222.24	-25.72
222.459	23.7
222.678	22.95
222.897	29.77
223.117	34.1
223.336	32.42
223.555	14.6
223.774	33.87
223.993	52.14
224.213	33.31
224.432	40.12
224.651	58.11
224.87	48.4
225.089	42.76
225.308	62.44
225.527	82.48
225.746	54.08
225.965	41.58
226.184	30.83
226.404	-5.64
226.623	0.12
226.842	-4.57
227.061	0.9
227.28	0.13
227.499	14.5
227.718	-31.73
227.936	22.3
228.155	33.69
228.374	15.79
228.593	-8.01
228.812	0.11
229.031	-18.85
229.25	-34.13
229.469	-15.14
229.688	-8.75
229.907	12.36
230.125	12.41
230.344	34.04
230.563	32.23
230.782	51.58
231.001	31.74
231.22	49.44
231.438	37.33
231.657	38.68
231.876	43.75
232.095	42.3
232.313	21.78
232.532	21.86
232.751	9.25
232.969	8.97
233.188	27.06
233.407	26.1
233.625	17.4
233.844	13.27
234.063	8.03
234.281	-15.91
234.5	-30.69
234.719	-6.52
234.937	12.71
235.156	17.63
235.374	30.32
235.593	56.99
235.811	57.75
236.03	39.63
236.249	35.6
236.467	32.86
236.686	19.63
236.904	30.39
237.123	35.68
237.341	-0.54
237.559	-1.79
237.778	21.81
237.996	14.07
238.215	20.31
238.433	54.51
238.652	66.62
238.87	53.25
239.088	53.95
239.307	50.63
239.525	41.71
239.743	29.25
239.962	29.2
240.18	30.1
240.398	33.03
240.617	14.23
240.835	3.18
241.053	17.23
241.271	15.85
241.49	9.06
241.708	40.32
241.926	59.27
242.144	41.95
242.363	42.33
242.581	34.21
242.799	43.59
243.017	34.78
243.235	43.47
243.453	44.38
243.672	38
243.89	21.37
244.108	33.98
244.326	41.02
244.544	22.95
244.762	38.95
244.98	42.4
245.198	29.9
245.416	10.32
245.634	19.77
245.852	26.38
246.07	37.69
246.288	46.66
246.506	52.47
246.724	46.53
246.942	39.17
247.16	27.94
247.378	-3.68
247.596	-2.99
247.814	4.9
248.032	-3.4
248.25	5.94
248.468	25.14
248.685	17.07
248.903	30.07
249.121	36.97
249.339	13.38
249.557	15.74
249.775	39.71
249.992	6.65
250.21	11.22
250.428	34.11
250.646	21.44
250.863	19.82
251.081	31.03
251.299	36.65
251.517	24.48
251.734	48.84
251.952	33.17
252.17	16.03
252.387	4.1
252.605	17.21
252.823	5.57
253.04	28.47
253.258	50.56
253.475	53.06
253.693	57.95
253.911	61.28
254.128	71.37
254.346	66.79
254.563	73.81
254.781	50.16
254.998	56.6
255.216	5.5
255.433	8.84
255.651	-8.25
255.868	-12.64
256.086	-18.02
256.303	-5.09
256.521	-0.4
256.738	9.33
256.956	22.03
257.173	6.42
257.39	27.08
257.608	17.76
257.825	38.88
258.043	28.57
258.26	23.28
258.477	1.14
258.695	-7.41
258.912	-28.17
259.129	-43.57
259.346	-26.71
259.564	-19.55
259.781	-11.63
259.998	8.92
260.216	28.11
260.433	40.38
260.65	42.84
260.867	52.35
261.084	55.01
261.302	56.59
261.519	43.45
261.736	28.87
261.953	20.17
262.17	33.14
262.387	28.5
262.604	25.98
262.822	34.25
263.039	37.08
263.256	27.99
263.473	26.8
263.69	15.31
263.907	-8.58
264.124	27.74
264.341	12.51
264.558	5.84
264.775	21.75
264.992	27.43
265.209	-17.26
265.426	-7.13
265.643	9.37
265.86	9.92
266.077	23.67
266.294	39.61
266.51	21.37
266.727	42.3
266.944	45.44
267.161	36.72
267.378	26.27
267.595	59.97
267.812	24.64
268.028	-3.98
268.245	15.75
268.462	18.52
268.679	10.5
268.896	31.05
269.112	48.66
269.329	36.28
269.546	42.22
269.763	38.55
269.979	23.47
270.196	35.15
270.413	27.52
270.629	30.31
270.846	21.33
271.063	24.33
271.279	4.26
271.496	5.04
271.712	0.81
271.929	13.74
272.146	31.92
272.362	42.03
272.579	65.54
272.795	87.32
273.012	83.64
273.228	67.02
273.445	64.17
273.661	42.84
273.878	11.08
274.094	22.84
274.311	29.66
274.527	21.4
274.744	33.47
274.96	57.3
275.177	46.4
275.393	36.32
275.609	34.15
275.826	35.44
276.042	23.04
276.259	-0.45
276.475	11.82
276.691	31.95
276.908	23.15
277.124	18.77
277.34	25.42
277.557	1.68
277.773	-13.75
277.989	-14
278.205	-22.34
278.422	-6.8
278.638	10.67
278.854	30.96
279.07	58.71
279.286	48.58
279.503	45.35
279.719	53.2
279.935	53.46
280.151	2.66
280.367	15.49
280.583	13.77
280.799	-23.39
281.016	-42.93
281.232	-0.64
281.448	3.04
281.664	22.87
281.88	36.34
282.096	41.86
282.312	22.62
282.528	29.47
282.744	3.95
282.96	10.43
283.176	3.04
283.392	34.8
283.608	25.35
283.824	33.85
284.04	26.76
284.256	39.16
284.471	35.25
284.687	36.48
284.903	16.9
285.119	39.37
285.335	25.09
285.551	29
285.767	42.24
285.982	38.82
286.198	25.38
286.414	31.39
286.63	27.62
286.846	23.1
287.061	19.71
287.277	34.82
287.493	32.29
287.709	32.2
287.924	36.54
288.14	40.37
288.356	43.17
288.571	41.38
288.787	36.25
289.003	22.11
289.218	11.99
289.434	12.26
289.65	16.5
289.865	26.95
290.081	16.45
290.296	23.08
290.512	14.16
290.727	9.16
290.943	3.57
291.159	15.28
291.374	35.44
291.59	37.16
291.805	31.01
292.021	36.97
292.236	40.03
292.451	9.83
292.667	8.42
292.882	16.34
293.098	22.88
293.313	39.41
293.529	47.84
293.744	48.35
293.959	38.29
294.175	44.04
294.39	25.54
294.605	27.36
294.821	29.96
295.036	38.47
295.251	35.67
295.467	38.06
295.682	34.66
295.897	33.56
296.112	20.71
296.328	9.46
296.543	7.95
296.758	10.11
296.973	4.67
297.188	7.95
297.404	1.63
297.619	3.61
297.834	-17.4
298.049	-7.5
298.264	7.1
298.479	23.43
298.694	28.63
298.909	34.1
299.125	35.07
299.34	52.45
299.555	41.65
299.77	61.26
299.985	44.46
300.2	41.54
300.415	15.97
300.63	19.04
300.845	-5.05
301.06	9.98
301.275	18.51
301.49	17.19
301.704	20.05
301.919	16.2
302.134	12.14
302.349	-11.37
302.564	-1.57
302.779	7.02
302.994	2.62
303.209	17.53
303.423	40.5
303.638	18.65
303.853	40.5
304.068	44.61
304.283	36.71
304.497	37.41
304.712	38.1
304.927	32.85
305.142	41.03
305.356	26.26
305.571	32.19
305.786	41.17
306	15.52
306.215	13.79
306.43	28.1
306.644	19.1
306.859	17.05
307.074	36.24
307.288	41.24
307.503	24.5
307.717	22.37
307.932	11.51
308.147	-12.04
308.361	-28.49
308.576	-18.84
308.79	-24.02
309.005	14.06
309.219	26.96
309.434	36.09
309.648	29.06
309.863	41.03
310.077	26.37
310.292	27.98
310.506	27.31
310.72	33.68
310.935	29.72
311.149	32.06
311.364	42.99
311.578	38.51
311.792	17.84
312.007	16.95
312.221	1.07
312.435	-17.3
312.649	-14.49
312.864	-28.29
313.078	-20.42
313.292	-12.78
313.507	23.65
313.721	40.18
313.935	24.97
314.149	26.4
314.363	33.08
314.578	25.19
314.792	36.79
315.006	58.69
315.22	66.46
315.434	64.17
315.648	64.98
315.862	39.91
316.077	21.6
316.291	8.35
316.505	12.06
316.719	10.96
316.933	25.25
317.147	42.76
317.361	46.2
317.575	38.31
317.789	23.74
318.003	34.39
318.217	29.93
318.431	29.94
318.645	30.83
318.859	31.43
319.073	17.23
319.287	0.45
319.5	-7
319.714	8.66
319.928	7.52
320.142	20.94
320.356	38.68
320.57	49.95
320.784	47.06
320.997	37.83
321.211	23
321.425	19.85
321.639	21.33
321.853	24.33
322.066	25.77
322.28	39.43
322.494	38.59
322.707	33.87
322.921	19.99
323.135	23.96
323.349	15.51
323.562	-3.49
323.776	-5.39
323.989	18.75
324.203	23.72
324.417	23.43
324.63	27.54
324.844	21.98
325.057	3.8
325.271	-9.31
325.485	6.05
325.698	8.31
325.912	19.07
326.125	11.92
326.339	29.05
326.552	20.65
326.766	15.57
326.979	22.49
327.193	30.27
327.406	28.79
327.619	24.41
327.833	32.64
328.046	19.76
328.26	31.97
328.473	16.05
328.686	7
328.9	-8.45
329.113	-11.1
329.326	-41.49
329.54	-30.51
329.753	-22.45
329.966	1.29
330.179	18.41
330.393	28.83
330.606	30.24
330.819	42.73
331.032	39.89
331.246	24.75
331.459	24.09
331.672	24.09
331.885	24.91
332.098	11.17
332.311	21.36
332.525	24.13
332.738	15.57
332.951	-1.27
333.164	5.6
333.377	5.71
333.59	20.06
333.803	41.11
334.016	54.24
334.229	52.85
334.442	45.63
334.655	36.25
334.868	25.83
335.081	27.04
335.294	26.85
335.507	35.05
335.72	38.5
335.933	34.99
336.146	42.2
336.359	56.7
336.572	41.4
336.785	34.7
336.997	41.12
337.21	33.97
337.423	29
337.636	34.25
337.849	33.28
338.062	23.74
338.274	11.87
338.487	2.81
338.7	-11.48
338.913	2.26
339.125	15.82
339.338	23.12
339.551	25.56
339.763	34.94
339.976	17.71
340.189	18.06
340.402	2.96
340.614	-2.05
340.827	9.26
341.039	40.42
341.252	49.11
341.465	49.84
341.677	42.77
341.89	34.09
342.102	31.76
342.315	29.09
342.527	30.07
342.74	34.14
342.952	22.4
343.165	17.55
343.377	6.21
343.59	-6.14
343.802	11.22
344.015	25.8
344.227	16.7
344.44	21.61
344.652	32.37
344.864	20.83
345.077	8.11
345.289	10.44
345.502	-1.48
345.714	-9.37
345.926	-9.77
346.139	-20.92
346.351	-6.34
346.563	5.84
346.775	13.25
346.988	10.06
347.2	13.52
347.412	6.66
347.624	20.57
347.837	3.95
348.049	-1.06
348.261	9.47
348.473	25.12
348.685	18.47
348.897	30.69
349.11	31.96
349.322	32.86
349.534	23.72
349.746	22.29
349.958	23.85
350.17	24.1
350.382	22.8
350.594	15.38
350.806	27.83
351.018	7.18
351.23	24.67
351.442	6.32
351.654	17.46
351.866	-12.69
352.078	20.99
352.29	13.82
352.502	27.25
352.714	35.61
352.926	42.52
353.138	49.35
353.35	32.68
353.561	26.23
353.773	30.04
353.985	42.59
354.197	32.87
354.409	36.54
354.621	36.04
354.832	18.9
355.044	15.63
355.256	12.97
355.468	8.53
355.679	13
355.891	23.27
356.103	22.13
356.314	20.04
356.526	26.14
356.738	20.4
356.949	16.96
357.161	30.58
357.373	36.92
357.584	26.65
357.796	38.69
358.008	35.65
358.219	6.05
358.431	-1.17
358.642	-1.25
358.854	-7.83
359.065	-1.79
359.277	4.14
359.488	3.42
359.7	4.72
359.911	6.86
360.123	0.5
360.334	7.04
360.546	11.57
360.757	10.76
360.969	5.6
361.18	11.47
361.391	19.04
361.603	10.48
361.814	20.21
362.025	17.19
362.237	27.62
362.448	34.07
362.659	42.84
362.871	33.82
363.082	39.23
363.293	28.7
363.504	21.74
363.716	15.16
363.927	19.86
364.138	8.6
364.349	-1.86
364.56	2.68
364.772	1.71
364.983	8.19
365.194	16.44
365.405	37.94
365.616	22.07
365.827	20.15
366.038	16.11
366.25	9.9
366.461	-10.05
366.672	-11.97
366.883	7.22
367.094	22.4
367.305	35.14
367.516	43.37
367.727	40.56
367.938	39.09
368.149	23.56
368.36	12.04
368.571	2.77
368.781	2.03
368.992	-14.7
369.203	-9.42
369.414	-2.87
369.625	5.48
369.836	11.6
370.047	15.38
370.258	22.73
370.468	22.88
370.679	11.3
370.89	0.82
371.101	-5.17
371.312	-13.14
371.522	-12.81
371.733	2.54
371.944	12.48
372.155	40.82
372.365	39.52
372.576	46.04
372.787	40
372.997	28.87
373.208	14.87
373.419	5.03
373.629	5.83
373.84	7.71
374.05	12.78
374.261	12.21
374.472	16.38
374.682	-0.43
374.893	12.65
375.103	15.79
375.314	16.85
375.524	18.06
375.735	30.32
375.945	20.99
376.156	16.41
376.366	8.04
376.577	17.77
376.787	11.92
376.997	13.99
377.208	13.22
377.418	13.07
377.629	3.1
377.839	10.41
378.049	14.02
378.26	16.16
378.47	33.6
378.68	30.43
378.89	30.18
379.101	34.26
379.311	24.72
379.521	16.47
379.732	25.06
379.942	20.83
380.152	5.07
380.362	8.04
380.572	5.54
380.783	-0.17
380.993	0.89
381.203	13.59
381.413	18.44
381.623	21.56
381.833	34.87
382.043	39.83
382.253	26.92
382.463	27.24
382.674	22.91
382.884	13.36
383.094	3.44
383.304	8.82
383.514	2.92
383.724	11.62
383.934	3.33
384.144	9.4
384.353	13.05
384.563	19.82
384.773	17.04
384.983	20.25
385.193	20.43
385.403	15.48
385.613	13.18
385.823	11.49
386.033	9.67
386.242	9.91
386.452	11.61
386.662	14.73
386.872	16.35
387.082	18.26
387.291	9.37
387.501	6.4
387.711	5.87
387.921	1.35
388.13	3.44
388.34	11.36
388.55	11.05
388.759	8.57
388.969	12.4
389.179	10.58
389.388	10.98
389.598	14.28
389.807	12.71
390.017	11.48
390.227	14.54
390.436	13.26
390.646	10.96
390.855	11.88
391.065	10.57
391.274	8.05
391.484	5.28
391.693	5.59
391.903	6
392.112	8.04
392.322	7.68
392.531	8.8
392.74	9.73
392.95	9.44
393.159	8.42
393.369	10.32
393.578	10.31
393.787	11.08
393.997	10.69
394.206	11.24
394.415	10.85
394.625	10.69
394.834	8.37
395.043	8.16
395.252	9.19
395.462	7.89
395.671	8.38
395.88	9.71
396.089	10.29
396.298	9.5
396.508	10.15
396.717	9.76
396.926	9.78
397.135	9.45
397.344	9.47
397.553	9.64
397.762	10.01
397.971	10.12
398.181	10.42
398.39	9.92
398.599	9.62
398.808	9.69
399.017	9.86
399.226	9.88
399.435	10.47
399.644	10.87
399.853	10.7
400.062	10.88
400.27	10.96
400.479	10.68
400.688	10.48
400.897	10.56
401.106	10.34
401.315	10.03
401.524	10.18
401.733	10.06
401.941	10.2
402.15	10.06
402.359	9.84
402.568	9.65
402.777	9.52
402.985	9.24
403.194	9.04
403.403	9.13
403.612	8.89
403.82	8.87
404.029	8.72
404.238	8.7
404.446	8.85
404.655	8.98
404.864	9.2
405.072	9.24
405.281	9.42
405.489	9.26
405.698	9.2
405.906	8.99
406.115	8.96
406.324	8.92
406.532	8.96
406.741	8.96
406.949	9.05
407.158	9.15
407.366	8.93
407.574	8.9
407.783	8.93
407.991	8.67
408.2	8.64
408.408	8.69
408.617	8.75
408.825	8.76
409.033	8.81
409.242	8.69
409.45	8.68
409.658	8.64
409.867	8.58
410.075	8.66
410.283	8.71
410.491	8.67
410.7	8.64
410.908	8.7
411.116	8.7
411.324	8.69
411.533	8.77
411.741	8.75
411.949	8.71
412.157	8.66
412.365	8.52
412.573	8.43
412.781	8.5
412.99	8.38
413.198	8.31
413.406	8.42
413.614	8.46
413.822	8.35
414.03	8.41
414.238	8.49
414.446	8.68
414.654	8.57
414.862	8.54
415.07	8.35
415.278	8.3
415.486	8
415.694	8.2
415.902	8.11
416.109	8.25
416.317	8.2
416.525	8.24
416.733	8.19
416.941	8.39
417.149	8.37
417.357	8.32
417.564	8.33
417.772	8.08
417.98	8.14
418.188	7.91
418.395	7.99
418.603	7.92
418.811	8.1
419.019	8.06
419.226	8.39
419.434	8.26
419.642	8.28
419.849	8.23
420.057	8.09
420.265	7.84
420.472	7.84
420.68	7.91
420.887	7.94
421.095	7.97
421.302	8.12
421.51	8.06
421.717	7.96
421.925	7.98
422.132	7.94
422.34	7.72
422.547	7.8
422.755	7.92
422.962	7.9
423.17	7.73
423.377	7.91
423.585	7.96
423.792	7.85
423.999	7.62
424.207	7.7
424.414	7.64
424.621	7.6
424.829	7.47
425.036	7.5
425.243	7.61
425.451	7.65
425.658	7.7
425.865	7.78
426.072	7.81
426.28	7.8
426.487	7.78
426.694	7.75
426.901	7.71
427.108	7.65
427.315	7.67
427.523	7.55
427.73	7.55
427.937	7.69
428.144	7.76
428.351	7.77
428.558	7.97
428.765	7.88
428.972	7.75
429.179	7.67
429.386	7.52
429.593	7.35
429.8	7.48
430.007	7.56
430.214	7.77
430.421	7.88
430.628	7.92
430.835	7.89
431.042	7.8
431.249	7.82
431.456	7.76
431.662	8.01
431.869	8.2
432.076	8.36
432.283	8.47
432.49	8.55
432.697	8.51
432.903	8.22
433.11	8.09
433.317	7.87
433.524	7.78
433.73	7.59
433.937	7.55
434.144	7.52
434.35	7.52
434.557	7.48
434.764	7.49
434.97	7.57
435.177	7.71
435.384	7.78
435.59	7.86
435.797	7.92
436.003	7.99
436.21	7.91
436.416	7.9
436.623	7.83
436.829	7.75
437.036	7.68
437.242	7.78
437.449	7.74
437.655	7.9
437.862	8.08
438.068	8.14
438.275	8.06
438.481	8.06
438.687	7.94
438.894	7.87
439.1	7.8
439.307	7.82
439.513	7.89
439.719	7.85
439.926	7.74
440.132	7.84
440.338	7.83
440.544	7.76
440.751	7.71
440.957	7.87
441.163	7.86
441.369	7.96
441.575	7.95
441.782	7.95
441.988	7.85
442.194	7.79
442.4	7.72
442.606	7.8
442.812	7.9
443.018	7.91
443.224	7.93
443.431	8
443.637	8.05
443.843	8.06
444.049	8.14
444.255	8.15
444.461	8.18
444.667	8.06
444.873	7.97
445.079	7.85
445.284	7.78
445.49	7.67
445.696	7.64
445.902	7.61
446.108	7.62
446.314	7.71
446.52	7.75
446.726	7.9
446.931	7.98
447.137	8.03
447.343	7.97
447.549	7.86
447.755	7.8
447.96	7.83
448.166	7.85
448.372	7.84
448.578	7.96
448.783	7.97
448.989	8.13
449.195	8.05
449.4	8.05
449.606	8.02
449.812	7.92
450.017	7.76
450.223	7.83
450.428	7.91
450.634	8.01
450.84	8.2
451.045	8.23
451.251	8.27
451.456	8.42
451.662	8.37
451.867	8.28
452.073	8.28
452.278	8.22
452.483	8.14
452.689	8.11
452.894	8.11
453.1	8.12
453.305	8.24
453.51	8.25
453.716	8.29
453.921	8.33
454.127	8.34
454.332	8.28
454.537	8.2
454.742	8.3
454.948	8.22
455.153	8.12
455.358	8.15
455.563	8.24
455.769	8.15
455.974	8.32
456.179	8.38
456.384	8.45
456.589	8.42
456.795	8.49
457	8.47
457.205	8.65
457.41	8.58
457.615	8.64
457.82	8.65
458.025	8.66
458.23	8.55
458.435	8.6
458.64	8.61
458.845	8.55
459.05	8.5
459.255	8.58
459.46	8.62
459.665	8.63
459.87	8.62
460.075	8.63
460.28	8.54
460.485	8.52
460.69	8.5
460.895	8.52
461.099	8.55
461.304	8.48
461.509	8.42
461.714	8.36
461.919	8.32
462.123	8.28
462.328	8.46
462.533	8.52
462.738	8.62
462.942	8.69
463.147	8.82
463.352	8.83
463.556	8.81
463.761	8.74
463.966	8.79
464.17	8.84
464.375	8.71
464.58	8.71
464.784	8.71
464.989	8.61
465.193	8.52
465.398	8.64
465.602	8.85
465.807	8.86
466.011	8.96
466.216	8.94
466.42	8.93
466.625	8.94
466.829	9
467.034	9.03
467.238	9.11
467.443	9.13
467.647	8.92
467.851	8.94
468.056	8.88
468.26	8.83
468.464	8.81
468.669	8.97
468.873	8.99
469.077	9.02
469.282	8.95
469.486	8.89
469.69	8.79
469.894	8.77
470.099	8.74
470.303	8.81
470.507	8.9
470.711	8.92
470.915	9
471.119	8.95
471.324	8.96
471.528	8.91
471.732	8.92
471.936	8.85
472.14	8.98
472.344	9
472.548	9.12
472.752	9.25
472.956	9.17
473.16	9.1
473.364	9.08
473.568	9.02
473.772	8.97
473.976	9.09
474.18	9.16
474.384	9.18
474.588	9.13
474.792	9.05
474.995	9.04
475.199	9.02
475.403	8.99
475.607	9.03
475.811	9.01
476.015	8.97
476.218	8.97
476.422	8.97
476.626	8.94
476.83	8.92
477.033	8.95
477.237	8.87
477.441	8.87
477.644	8.87
477.848	8.93
478.052	8.85
478.255	8.83
478.459	8.83
478.663	8.81
478.866	8.79
479.07	8.8
479.273	8.87
479.477	8.83
479.681	8.94
479.884	8.93
480.088	8.94
480.291	8.95
480.495	9.04
480.698	8.88
480.901	8.83
481.105	8.79
481.308	8.7
481.512	8.63
481.715	8.71
481.919	8.76
482.122	8.81
482.325	8.82
482.529	8.85
482.732	8.87
482.935	8.87
483.138	8.76
483.342	8.81
483.545	8.95
483.748	8.88
483.952	8.89
484.155	9.02
484.358	9.02
484.561	8.87
484.764	8.93
484.967	8.91
485.171	8.87
485.374	8.87
485.577	8.85
485.78	8.74
485.983	8.79
486.186	8.69
486.389	8.69
486.592	8.6
486.795	8.67
486.998	8.54
487.201	8.68
487.404	8.77
487.607	8.92
487.81	8.87
488.013	8.97
488.216	8.97
488.419	8.92
488.622	8.89
488.825	8.94
489.028	8.86
489.231	8.81
489.433	8.77
489.636	8.69
489.839	8.67
490.042	8.64
490.245	8.59
490.447	8.58
490.65	8.64
490.853	8.65
491.056	8.73
491.258	8.66
491.461	8.63
491.664	8.61
491.866	8.59
492.069	8.61
492.272	8.65
492.474	8.7
492.677	8.65
492.879	8.7
493.082	8.69
493.285	8.73
493.487	8.67
493.69	8.73
493.892	8.71
494.095	8.68
494.297	8.62
494.5	8.62
494.702	8.63
494.905	8.62
495.107	8.55
495.309	8.65
495.512	8.7
495.714	8.72
495.917	8.68
496.119	8.66
496.321	8.64
496.524	8.64
496.726	8.52
496.928	8.54
497.13	8.55
497.333	8.48
497.535	8.48
497.737	8.54
497.939	8.59
498.142	8.64
498.344	8.66
498.546	8.57
498.748	8.58
498.95	8.59
499.152	8.56
499.355	8.61
499.557	8.68
499.759	8.68
499.961	8.59
500.163	8.62
500.365	8.62
500.567	8.64
500.769	8.61
500.971	8.66
501.173	8.65
501.375	8.63
501.577	8.61
501.779	8.68
501.981	8.65
502.183	8.58
502.385	8.57
502.587	8.48
502.788	8.4
502.99	8.41
503.192	8.48
503.394	8.46
503.596	8.56
503.798	8.59
503.999	8.61
504.201	8.62
504.403	8.66
504.605	8.67
504.806	8.66
505.008	8.66
505.21	8.67
505.411	8.65
505.613	8.59
505.815	8.67
506.016	8.67
506.218	8.62
506.42	8.57
506.621	8.59
506.823	8.5
507.024	8.48
507.226	8.53
507.427	8.62
507.629	8.62
507.83	8.66
508.032	8.7
508.233	8.68
508.435	8.61
508.636	8.65
508.838	8.62
509.039	8.59
509.24	8.6
509.442	8.57
509.643	8.52
509.845	8.5
510.046	8.52
510.247	8.48
510.448	8.57
510.65	8.55
510.851	8.53
511.052	8.55
511.254	8.49
511.455	8.42
511.656	8.36
511.857	8.4
512.058	8.32
512.26	8.41
512.461	8.34
512.662	8.35
512.863	8.25
513.064	8.23
513.265	8.16
513.466	8.26
513.667	8.32
513.868	8.35
514.069	8.4
514.27	8.41
514.471	8.36
514.672	8.3
514.873	8.26
515.074	8.21
515.275	8.17
515.476	8.17
515.677	8.19
515.878	8.31
516.079	8.33
516.28	8.37
516.481	8.43
516.682	8.47
516.882	8.27
517.083	8.32
517.284	8.23
517.485	8.11
517.686	8
517.886	8.13
518.087	8.05
518.288	8.11
518.488	8.14
518.689	8.22
518.89	8.16
519.091	8.17
519.291	8.15
519.492	8.18
519.692	8.15
519.893	8.19
520.094	8.17
520.294	8.2
520.495	8.16
520.695	8.2
520.896	8.15
521.096	8.23
521.297	8.19
521.497	8.23
521.698	8.14
521.898	8.21
522.099	8.12
522.299	8.1
522.499	8.1
522.7	8.14
522.9	8.06
523.101	8.1
523.301	8.09
523.501	8.1
523.702	8.16
523.902	8.24
524.102	8.29
524.302	8.36
524.503	8.37
524.703	8.34
524.903	8.24
525.103	8.2
525.304	8.18
525.504	8.16
525.704	8.2
525.904	8.23
526.104	8.22
526.304	8.24
526.504	8.26
526.705	8.13
526.905	8.15
527.105	8.16
527.305	8.12
527.505	8.09
527.705	8.17
527.905	8.18
528.105	8.11
528.305	8.13
528.505	8.13
528.705	8.11
528.905	8.1
529.105	8.15
529.304	8.17
529.504	8.17
529.704	8.15
529.904	8.12
530.104	8.07
530.304	8.04
530.503	8.01
530.703	8.03
530.903	8.06
531.103	8.09
531.303	8.15
531.502	8.2
531.702	8.22
531.902	8.19
532.101	8.23
532.301	8.2
532.501	8.19
532.7	8.21
532.9	8.24
533.1	8.26
533.299	8.25
533.499	8.28
533.698	8.31
533.898	8.33
534.097	8.33
534.297	8.37
534.496	8.34
534.696	8.28
534.895	8.28
535.095	8.23
535.294	8.23
535.494	8.23
535.693	8.24
535.892	8.26
536.092	8.3
536.291	8.25
536.491	8.28
536.69	8.28
536.889	8.23
537.088	8.23
537.288	8.31
537.487	8.31
537.686	8.3
537.886	8.36
538.085	8.37
538.284	8.38
538.483	8.39
538.682	8.44
538.882	8.44
539.081	8.49
539.28	8.46
539.479	8.44
539.678	8.41
539.877	8.39
540.076	8.36
540.275	8.37
540.474	8.41
540.673	8.47
540.872	8.46
541.071	8.48
541.27	8.48
541.469	8.55
541.668	8.57
541.867	8.69
542.066	8.74
542.265	8.79
542.464	8.73
542.663	8.79
542.862	8.89
543.06	8.98
543.259	9.03
543.458	9.09
543.657	9.08
543.856	9
544.054	8.93
544.253	8.89
544.452	8.92
544.651	8.93
544.849	8.89
545.048	8.89
545.247	8.88
545.445	8.88
545.644	8.9
545.843	8.89
546.041	8.94
546.24	9.02
546.438	9
546.637	9
546.836	9.06
547.034	9.02
547.233	9.01
547.431	9.09
547.63	9.1
547.828	9.12
548.027	9.19
548.225	9.17
548.423	9.17
548.622	9.22
548.82	9.23
549.019	9.23
549.217	9.29
549.415	9.33
549.614	9.4
549.812	9.4
550.01	9.41
550.209	9.44
550.407	9.45
550.605	9.39
550.803	9.41
551.002	9.44
551.2	9.44
551.398	9.47
551.596	9.53
551.794	9.6
551.993	9.62
552.191	9.68
552.389	9.67
552.587	9.69
552.785	9.8
552.983	9.86
553.181	9.94
553.379	10.08
553.577	10.13
553.775	10.13
553.973	10.16
554.171	10.14
554.369	10.16
554.567	10.15
554.765	10.14
554.963	10.16
555.161	10.15
555.359	10.21
555.557	10.29
555.755	10.38
555.952	10.45
556.15	10.61
556.348	10.67
556.546	10.74
556.744	10.73
556.941	10.82
557.139	10.83
557.337	10.92
557.535	10.91
557.732	10.97
557.93	11.04
558.128	11.05
558.325	11.05
558.523	11.11
558.721	11.19
558.918	11.17
559.116	11.26
559.313	11.23
559.511	11.37
559.708	11.38
559.906	11.48
560.104	11.5
560.301	11.61
560.498	11.63
560.696	11.7
560.893	11.72
561.091	11.86
561.288	11.97
561.486	12.04
561.683	12.14
561.88	12.3
562.078	12.38
562.275	12.4
562.473	12.44
562.67	12.49
562.867	12.44
563.064	12.49
563.262	12.57
563.459	12.6
563.656	12.7
563.853	12.83
564.051	12.81
564.248	12.87
564.445	13.01
564.642	12.99
564.839	13.07
565.036	13.16
565.234	13.2
565.431	13.13
565.628	13.2
565.825	13.22
566.022	13.31
566.219	13.31
566.416	13.46
566.613	13.55
566.81	13.62
567.007	13.62
567.204	13.68
567.401	13.74
567.598	13.86
567.795	13.85
567.991	13.92
568.188	14.02
568.385	13.99
568.582	13.95
568.779	13.99
568.976	14.03
569.172	14.08
569.369	14.17
569.566	14.27
569.763	14.38
569.96	14.46
570.156	14.53
570.353	14.5
570.55	14.4
570.746	14.37
570.943	14.33
571.14	14.32
571.336	14.41
571.533	14.48
571.729	14.54
571.926	14.61
572.123	14.58
572.319	14.63
572.516	14.71
572.712	14.69
572.909	14.65
573.105	14.75
573.302	14.76
573.498	14.73
573.695	14.76
573.891	14.86
574.087	14.88
574.284	14.9
574.48	14.93
574.677	14.93
574.873	14.89
575.069	14.91
575.266	14.89
575.462	14.97
575.658	15.17
575.854	15.22
576.051	15.21
576.247	15.28
576.443	15.28
576.639	15.15
576.835	15.11
577.032	15.13
577.228	15.13
577.424	15.08
577.62	15.04
577.816	15.04
578.012	14.98
578.208	14.94
578.404	14.96
578.6	15
578.796	15.07
578.993	15.1
579.189	15.12
579.384	15.03
579.58	14.99
579.776	14.92
579.972	14.94
580.168	14.87
580.364	14.85
580.56	14.83
580.756	14.8
580.952	14.67
581.148	14.73
581.343	14.78
581.539	14.82
581.735	14.79
581.931	14.94
582.127	14.98
582.322	14.9
582.518	14.87
582.714	14.87
582.909	14.7
583.105	14.57
583.301	14.64
583.496	14.58
583.692	14.54
583.888	14.59
584.083	14.58
584.279	14.58
584.474	14.57
584.67	14.58
584.866	14.51
585.061	14.5
585.257	14.53
585.452	14.54
585.648	14.5
585.843	14.58
586.039	14.59
586.234	14.47
586.429	14.43
586.625	14.46
586.82	14.41
587.015	14.43
587.211	14.42
587.406	14.37
587.601	14.3
587.797	14.3
587.992	14.3
588.187	14.35
588.383	14.36
588.578	14.5
588.773	14.49
588.968	14.49
589.163	14.51
589.359	14.57
589.554	14.55
589.749	14.57
589.944	14.5
590.139	14.41
590.334	14.38
590.529	14.33
590.724	14.37
590.919	14.4
591.114	14.53
591.309	14.47
591.504	14.52
591.699	14.4
591.894	14.39
592.089	14.28
592.284	14.39
592.479	14.33
592.674	14.35
592.869	14.41
593.064	14.53
593.259	14.5
593.454	14.45
593.648	14.52
593.843	14.6
594.038	14.53
594.233	14.57
594.428	14.69
594.622	14.76
594.817	14.72
595.012	14.74
595.206	14.8
595.401	14.87
595.596	14.95
595.79	14.99
595.985	15.06
596.18	15.05
596.374	15.13
596.569	15.1
596.763	15.14
596.958	15.26
597.153	15.32
597.347	15.31
597.542	15.31
597.736	15.35
597.931	15.32
598.125	15.37
598.319	15.47
598.514	15.57
598.708	15.65
598.903	15.78
599.097	15.88
599.291	15.87
599.486	15.93
599.68	15.88
599.874	15.8
600.069	15.91
600.263	15.93
600.457	15.89
600.651	15.98
600.846	16
601.04	15.94
601.234	15.84
601.428	15.88
601.622	15.97
601.817	16.01
602.011	16.01
602.205	16.1
602.399	16.12
602.593	16.09
602.787	16.12
602.981	16.14
603.175	16.18
603.369	16.08
603.563	16.05
603.757	16.09
603.951	16.11
604.145	16.05
604.339	16.23
604.533	16.13
604.727	16.05
604.921	15.93
605.115	15.92
605.309	15.78
605.502	15.85
605.696	15.76
605.89	15.72
606.084	15.62
606.278	15.63
606.471	15.54
606.665	15.55
606.859	15.56
607.053	15.64
607.246	15.56
607.44	15.51
607.634	15.46
607.827	15.4
608.021	15.25
608.214	15.09
608.408	15.03
608.602	15.02
608.795	14.96
608.989	15.01
609.182	15.08
609.376	15.14
609.569	15.05
609.763	15.01
609.956	14.96
610.15	14.88
610.343	14.71
610.537	14.67
610.73	14.6
610.923	14.58
611.117	14.57
611.31	14.57
611.504	14.51
611.697	14.48
611.89	14.36
612.083	14.14
612.277	14.08
612.47	14.04
612.663	13.88
612.856	13.83
613.05	13.9
613.243	13.85
613.436	13.7
613.629	13.7
613.822	13.58
614.015	13.49
614.209	13.42
614.402	13.48
614.595	13.5
614.788	13.49
614.981	13.46
615.174	13.4
615.367	13.32
615.56	13.17
615.753	13.17
615.946	13.08
616.139	13.07
616.332	13.13
616.525	13.15
616.718	13.01
616.911	12.98
617.103	13
617.296	12.86
617.489	12.84
617.682	12.88
617.875	12.92
618.067	12.74
618.26	12.7
618.453	12.62
618.646	12.53
618.838	12.44
619.031	12.45
619.224	12.38
619.417	12.38
619.609	12.32
619.802	12.29
619.994	12.25
620.187	12.2
620.38	12.23
620.572	12.19
620.765	12.2
620.957	12.16
621.15	12.14
621.342	12.06
621.535	12.16
621.727	12.09
621.92	12.04
622.112	12.13
622.305	12.17
622.497	12.08
622.69	12.07
622.882	12.13
623.074	12.13
623.267	12.1
623.459	12.13
623.651	12.07
623.844	12.07
624.036	12.04
624.228	11.99
624.42	11.98
624.613	12.08
624.805	12.07
624.997	11.94
625.189	11.95
625.381	11.99
625.574	11.89
625.766	11.84
625.958	11.89
626.15	11.9
626.342	11.85
626.534	11.85
626.726	11.79
626.918	11.73
627.11	11.64
627.302	11.56
627.494	11.57
627.686	11.59
627.878	11.59
628.07	11.57
628.262	11.57
628.454	11.54
628.646	11.53
628.838	11.59
629.029	11.52
629.221	11.53
629.413	11.51
629.605	11.45
629.797	11.38
629.989	11.37
630.18	11.26
630.372	11.16
630.564	11.15
630.755	11.11
630.947	11.13
631.139	11.11
631.33	11.14
631.522	11.07
631.714	11.05
631.905	10.99
632.097	10.98
632.289	10.99
632.48	11
632.672	10.99
632.863	10.92
633.055	10.96
633.246	10.93
633.438	10.91
633.629	10.85
633.821	10.9
634.012	10.84
634.203	10.85
634.395	10.88
634.586	11.02
634.777	10.98
634.969	11
635.16	11.02
635.351	10.92
635.543	10.87
635.734	10.85
635.925	10.77
636.117	10.76
636.308	10.87
636.499	10.8
636.69	10.75
636.881	10.79
637.073	10.78
637.264	10.74
637.455	10.68
637.646	10.7
637.837	10.7
638.028	10.71
638.219	10.67
638.41	10.72
638.601	10.71
638.792	10.71
638.983	10.61
639.174	10.54
639.365	10.48
639.556	10.41
639.747	10.36
639.938	10.47
640.129	10.48
640.32	10.44
640.511	10.45
640.701	10.49
640.892	10.32
641.083	10.31
641.274	10.3
641.465	10.36
641.655	10.26
641.846	10.26
642.037	10.2
642.228	10.22
642.418	10.11
642.609	10.22
642.8	10.25
642.99	10.22
643.181	10.28
643.372	10.35
643.562	10.31
643.753	10.27
643.943	10.31
644.134	10.18
644.324	10.17
644.515	10.12
644.705	10.14
644.896	10.12
645.086	10.15
645.277	10.16
645.467	10.1
645.658	10
645.848	9.96
646.038	10.03
646.229	10
646.419	10.04
646.61	10.13
646.8	10.15
646.99	10.04
647.18	9.98
647.371	9.91
647.561	9.82
647.751	9.79
647.941	9.81
648.132	9.88
648.322	9.88
648.512	9.87
648.702	9.82
648.892	9.84
649.082	9.84
649.272	9.8
649.462	9.7
649.653	9.73
649.843	9.77
650.033	9.78
650.223	9.83
650.413	9.97
650.603	10
650.793	9.97
650.983	9.88
651.172	9.79
651.362	9.67
651.552	9.52
651.742	9.43
651.932	9.39
652.122	9.54
652.312	9.59
652.502	9.54
652.691	9.58
652.881	9.58
653.071	9.41
653.261	9.31
653.45	9.37
653.64	9.23
653.83	9.14
654.019	9.13
654.209	9.1
654.399	9.04
654.588	9.03
654.778	8.99
654.968	8.92
655.157	8.85
655.347	8.8
655.536	8.64
655.726	8.57
655.915	8.49
656.105	8.41
656.294	8.29
656.484	8.31
656.673	8.27
656.863	8.26
657.052	8.21
657.241	8.23
657.431	8.16
657.62	8.07
657.809	7.97
657.999	8
658.188	7.9
658.377	7.86
658.567	7.84
658.756	7.71
658.945	7.57
659.134	7.46
659.324	7.39
659.513	7.32
659.702	7.24
659.891	7.19
660.08	7.19
660.269	7.06
660.458	6.97
660.648	7.06
660.837	7.05
661.026	6.93
661.215	6.92
661.404	6.85
661.593	6.79
661.782	6.68
661.971	6.67
662.16	6.68
662.349	6.59
662.538	6.5
662.726	6.52
662.915	6.53
663.104	6.55
663.293	6.55
663.482	6.57
663.671	6.59
663.86	6.46
664.048	6.35
664.237	6.33
664.426	6.21
664.615	6.15
664.803	6.23
664.992	6.19
665.181	6.29
665.369	6.32
665.558	6.28
665.747	6.32
665.935	6.42
666.124	6.33
666.312	6.27
666.501	6.32
666.69	6.21
666.878	6.03
667.067	6.06
667.255	6.13
667.444	6.24
667.632	6.31
667.82	6.47
668.009	6.5
668.197	6.45
668.386	6.24
668.574	6.37
668.762	6.27
668.951	6.34
669.139	6.4
669.327	6.51
669.516	6.36
669.704	6.4
669.892	6.39
670.08	6.41
670.269	6.36
670.457	6.41
670.645	6.39
670.833	6.35
671.021	6.34
671.21	6.31
671.398	6.39
671.586	6.4
671.774	6.45
671.962	6.45
672.15	6.61
672.338	6.53
672.526	6.61
672.714	6.53
672.902	6.54
673.09	6.54
673.278	6.57
673.466	6.68
673.654	6.93
673.842	7
674.03	7.03
674.218	7.08
674.405	7.07
674.593	7.1
674.781	7.16
674.969	7.08
675.157	7.14
675.344	7.12
675.532	7.05
675.72	7.1
675.908	7.22
676.095	7.15
676.283	7.31
676.471	7.39
676.658	7.29
676.846	7.27
677.033	7.45
677.221	7.33
677.409	7.2
677.596	7.27
677.784	7.39
677.971	7.41
678.159	7.42
678.346	7.57
678.534	7.67
678.721	7.53
678.909	7.55
679.096	7.74
679.283	7.83
679.471	7.9
679.658	8.15
679.846	8.11
680.033	8.12
680.22	8.08
680.408	8.03
680.595	8.12
680.782	8.17
680.969	8.19
681.157	8.18
681.344	8.22
681.531	8.22
681.718	8.25
681.905	8.29
682.093	8.36
682.28	8.39
682.467	8.45
682.654	8.51
682.841	8.53
683.028	8.64
683.215	8.77
683.402	8.73
683.589	8.79
683.776	8.88
683.963	8.92
684.15	8.95
684.337	9.06
684.524	9.18
684.711	9.36
684.898	9.47
685.085	9.62
685.271	9.72
685.458	9.85
685.645	9.84
685.832	9.9
686.019	10.16
686.205	10.42
686.392	10.54
686.579	10.75
686.766	10.91
686.952	10.86
687.139	10.93
687.326	11.09
687.512	11.13
687.699	11.38
687.886	11.59
688.072	11.79
688.259	11.98
688.445	12.26
688.632	12.34
688.818	12.69
689.005	13.04
689.191	13.47
689.378	13.75
689.564	14.24
689.751	14.52
689.937	14.7
690.124	14.92
690.31	15.37
690.496	15.78
690.683	16.07
690.869	16.37
691.055	16.83
691.242	17.33
691.428	17.39
691.614	17.88
691.8	18.37
691.987	18.75
692.173	19.12
692.359	19.79
692.545	20.28
692.731	20.89
692.918	21.4
693.104	21.92
693.29	22.5
693.476	23.11
693.662	23.73
693.848	24.19
694.034	24.7
694.22	25.37
694.406	25.91
694.592	26.36
694.778	27.03
694.964	27.6
695.15	28.07
695.336	28.7
695.522	29.26
695.708	30.05
695.894	30.82
696.08	31.68
696.265	32.29
696.451	33.08
696.637	33.33
696.823	33.8
697.009	34.24
697.194	34.71
697.38	35.29
697.566	36.08
697.751	36.72
697.937	37.22
698.123	37.91
698.308	38.54
698.494	39.14
698.68	39.88
698.865	40.57
699.051	41.31
699.236	41.92
699.422	42.69
699.607	43.02
699.793	43.69
699.978	44.21
700.164	44.93
700.349	45.6
700.535	46.26
700.72	46.73
700.906	47.52
701.091	47.9
701.276	48.37
701.462	49.3
701.647	50.02
701.832	50.63
702.018	51.49
702.203	51.95
702.388	52.51
702.573	52.78
702.759	53.35
702.944	53.88
703.129	54.76
703.314	55.25
703.499	56.41
703.684	56.69
703.87	57.09
704.055	57.37
704.24	58.05
704.425	58.31
704.61	58.64
704.795	59.08
704.98	59.48
705.165	59.66
705.35	60.13
705.535	60.87
705.72	61.5
705.905	61.98
706.09	62.27
706.275	62.81
706.459	63.27
706.644	63.44
706.829	64.06
707.014	64.93
707.199	65.46
707.384	65.77
707.568	66.38
707.753	66.92
707.938	67.32
708.123	67.69
708.307	68.2
708.492	68.54
708.677	68.45
708.861	68.33
709.046	68.23
709.231	68.64
709.415	68.68
709.6	69.18
709.784	69.8
709.969	70.42
710.153	70.91
710.338	71.84
710.522	72.32
710.707	73.01
710.891	73.34
711.076	73.17
711.26	73.54
711.445	73.6
711.629	73.58
711.813	73.76
711.998	74.11
712.182	74
712.366	74.72
712.551	75.06
712.735	75.54
712.919	75.67
713.103	75.75
713.288	75.59
713.472	75.65
713.656	75.58
713.84	75.93
714.024	76.81
714.208	77.48
714.393	78.03
714.577	78.29
714.761	78.67
714.945	78.51
715.129	78.48
715.313	78.78
715.497	79.28
715.681	79.99
715.865	79.99
716.049	80.42
716.233	80.66
716.417	81.17
716.601	80.64
716.785	81.18
716.968	80.99
717.152	81.22
717.336	80.93
717.52	81.54
717.704	81.33
717.888	81.74
718.071	81.55
718.255	82.11
718.439	82.01
718.622	82.29
718.806	81.94
718.99	82.57
719.174	82.42
719.357	82.66
719.541	83.02
719.724	83.61
719.908	83.58
720.092	83.57
720.275	83.79
720.459	83.91
720.642	84.54
720.826	84.08
721.009	84.9
721.193	84.91
721.376	85.23
721.559	85.18
721.743	85.8
721.926	85.51
722.11	85.74
722.293	85.73
722.476	85.85
722.66	86.08
722.843	86.51
723.026	86.69
723.21	86.96
723.393	86.73
723.576	86.75
723.759	86.72
723.942	86.64
724.126	86.92
724.309	87.32
724.492	86.99
724.675	86.85
724.858	87.64
725.041	87.41
725.224	87.57
725.407	88.02
725.59	88.17
725.774	88.16
725.957	88.34
726.14	88.43
726.322	88.38
726.505	88.61
726.688	88.74
726.871	89.32
727.054	89.38
727.237	89.98
727.42	90.53
727.603	90.82
727.786	89.94
727.968	89.78
728.151	89.61
728.334	89.55
728.517	89.21
728.699	90.58
728.882	90.87
729.065	90.95
729.248	90.62
729.43	90.59
729.613	90.07
729.796	90.14
729.978	90.6
730.161	90.5
730.343	90.18
730.526	89.72
730.708	90.04
730.891	89.34
731.073	89.22
731.256	89.46
731.438	89.76
731.621	90.49
731.803	91.68
731.986	92.29
732.168	92.32
732.35	92.67
732.533	92.19
732.715	91.62
732.898	90.91
733.08	91.27
733.262	91.2
733.444	91.34
733.627	91.48
733.809	92.26
733.991	92.86
734.173	93.19
734.355	92.76
734.538	93.01
734.72	92.61
734.902	92.67
735.084	92.2
735.266	91.89
735.448	92
735.63	92.57
735.812	92.48
735.994	92.57
736.176	92.97
736.358	92.08
736.54	91.52
736.722	91.28
736.904	91.52
737.086	91.44
737.268	92.78
737.45	94.03
737.632	93.55
737.814	93.96
737.995	94.71
738.177	93.63
738.359	92.81
738.541	94.17
738.723	94.96
738.904	94.75
739.086	94.62
739.268	94.64
739.449	93.13
739.631	91.78
739.813	91.78
739.994	92.24
740.176	92.17
740.358	92.89
740.539	94.42
740.721	94.69
740.902	95.23
741.084	95.59
741.265	95.5
741.447	94.6
741.628	95.24
741.81	94.64
741.991	94.42
742.172	95.02
742.354	94.81
742.535	93.71
742.717	93.23
742.898	92.71
743.079	92.76
743.261	92.6
743.442	92.83
743.623	94.6
743.804	95.01
743.986	95
744.167	94.08
744.348	92.8
744.529	92.23
744.71	93.01
744.891	92.58
745.073	93.79
745.254	95.67
745.435	95.09
745.616	94.4
745.797	94.97
745.978	95.69
746.159	95.39
746.34	94.74
746.521	95.72
746.702	95.13
746.883	92.32
747.064	91.51
747.245	92.99
747.426	93.76
747.606	93.21
747.787	95.02
747.968	95.88
748.149	96.02
748.33	94.29
748.51	94.24
748.691	94.15
748.872	93.57
749.053	91.29
749.233	91.45
749.414	91.28
749.595	91.27
749.775	90.41
749.956	92.14
750.137	92.51
750.317	92.75
750.498	93.31
750.678	94.26
750.859	92.27
751.04	91.8
751.22	92.26
751.4	92.7
751.581	92.33
751.761	93.6
751.942	95.11
752.122	95.34
752.303	92.66
752.483	92.99
752.663	93.64
752.844	92.79
753.024	93.32
753.204	94.71
753.385	93.32
753.565	93.23
753.745	92.61
753.925	92.15
754.106	92.66
754.286	95.71
754.466	96.47
754.646	96.45
754.826	95.3
755.006	95.36
755.187	92.14
755.367	91.62
755.547	91.94
755.727	92.84
755.907	91.6
756.087	92.79
756.267	91.19
756.447	91.2
756.627	90.31
756.807	90.38
756.987	90.49
757.167	91.6
757.346	90.71
757.526	90.64
757.706	91.91
757.886	91.02
758.066	92.71
758.246	92.5
758.425	92.24
758.605	91.79
758.785	94.09
758.965	92.04
759.144	92.87
759.324	93.69
759.504	94.08
759.683	93.98
759.863	94.04
760.043	93.43
760.222	92.72
760.402	91.49
760.581	90.96
760.761	90.8
760.94	91.19
761.12	94.59
761.299	95.21
761.479	94.66
761.658	94.13
761.838	92.85
762.017	91.16
762.197	90.67
762.376	91.5
762.555	91.82
762.735	91.82
762.914	91.88
763.093	93.34
763.273	92.15
763.452	92.54
763.631	95.08
763.81	94.28
763.99	92.58
764.169	92.05
764.348	91.92
764.527	89.99
764.706	88.96
764.885	89.74
765.064	90.29
765.243	88.46
765.423	89.09
765.602	88.83
765.781	89.88
765.96	87.29
766.139	89.7
766.318	87.8
766.497	89.54
766.676	86.82
766.854	90.65
767.033	89.15
767.212	91.83
767.391	90.22
767.57	91.3
767.749	90.13
767.928	90.19
768.106	88.61
768.285	87.34
768.464	86.6
768.643	86.26
768.821	85.86
769	86.61
769.179	87.99
769.357	88.45
769.536	88.7
769.715	90.5
769.893	89.18
770.072	88.19
770.25	87.89
770.429	86.89
770.607	86.4
770.786	87.8
770.964	89.83
771.143	89.38
771.321	90.27
771.5	90
771.678	89.92
771.857	89.87
772.035	91.5
772.213	90.61
772.392	88.27
772.57	89.39
772.748	88.11
772.927	87.29
773.105	86.91
773.283	88.85
773.461	87.87
773.64	86.59
773.818	86.43
773.996	86.83
774.174	85.85
774.352	85.73
774.531	86.88
774.709	86.58
774.887	87.98
775.065	88.75
775.243	86.74
775.421	85.71
775.599	86.86
775.777	83.11
775.955	82.31
776.133	83.3
776.311	84.56
776.489	84.5
776.667	87.38
776.844	89.74
777.022	88.81
777.2	88.1
777.378	86.46
777.556	85.6
777.734	84.72
777.911	86
778.089	86.44
778.267	86.1
778.445	82.07
778.622	80.58
778.8	81.58
778.978	83.91
779.155	83.68
779.333	86.99
779.511	84.96
779.688	84.73
779.866	82.24
780.043	82.56
780.221	81.77
780.398	87.24
780.576	86.05
780.753	86.47
780.931	88.58
781.108	91.59
781.286	88.06
781.463	87.49
781.64	86.71
781.818	86.5
781.995	84.02
782.172	85.87
782.35	85.62
782.527	86.22
782.704	84.46
782.882	87.07
783.059	83.79
783.236	83.17
783.413	80.12
783.59	81.88
783.768	79.7
783.945	77.19
784.122	79.23
784.299	79.76
784.476	79.26
784.653	81.45
784.83	84.48
785.007	80.86
785.184	80.4
785.361	81.15
785.538	79.36
785.715	81.52
785.892	85.46
786.069	89.72
786.246	88.34
786.423	89.11
786.6	89.24
786.776	89.5
786.953	88.15
787.13	91
787.307	87.91
787.484	87.55
787.66	85.2
787.837	88.45
788.014	89.92
788.191	93.48
788.367	93.4
788.544	92.99
788.721	90.82
788.897	84.04
789.074	80.36
789.25	78.29
789.427	78.55
789.603	73.48
789.78	76.52
789.956	79.73
790.133	82.37
790.309	78.49
790.486	85.83
790.662	84.74
790.839	78.79
791.015	77.97
791.192	81.23
791.368	74.06
791.544	71.64
791.721	80.78
791.897	81.91
792.073	82.84
792.249	87.07
792.426	93.31
792.602	91.62
792.778	87.7
792.954	85.9
793.13	83.94
793.307	82.78
793.483	80.46
793.659	81.77
793.835	83.58
794.011	85.03
794.187	77.14
794.363	72.48
794.539	69.83
794.715	68.84
794.891	69.33
795.067	71.49
795.243	73.2
795.419	77.24
795.595	78.23
795.771	72.98
795.947	73.8
796.122	78.38
796.298	79.05
796.474	76.11
796.65	77.84
796.826	81.92
797.001	79.1
797.177	80.79
797.353	81.53
797.529	84.65
797.704	81.14
797.88	81.31
798.056	79.21
798.231	81
798.407	78.74
798.582	79.38
798.758	85.77
798.934	85.01
799.109	85.96
799.285	88.08
799.46	86.3
799.636	81.85
799.811	78.59
799.986	77.29
800.162	78.13
800.337	83.12
800.513	81.18
800.688	81.08
800.863	86.94
801.039	89.62
801.214	85.41
801.389	84.24
801.565	81.6
801.74	73.8
801.915	68.82
802.09	70.64
802.265	71.71
802.441	78.29
802.616	77.22
802.791	70.61
802.966	72.62
803.141	77.33
803.316	71.96
803.491	78.46
803.666	88.29
803.841	84.95
804.016	84.17
804.191	84.5
804.366	83.43
804.541	79.16
804.716	82.03
804.891	76.86
805.066	79.4
805.241	76.62
805.416	77.31
805.591	78.76
805.765	74.72
805.94	72.16
806.115	73.37
806.29	73.52
806.464	68.48
806.639	75.54
806.814	72.48
806.989	67.33
807.163	67.71
807.338	70.25
807.512	65.29
807.687	66.88
807.862	70.75
808.036	77.83
808.211	73.47
808.385	71.79
808.56	74.11
808.734	76.68
808.909	67.56
809.083	70.97
809.258	73.06
809.432	72.8
809.606	70.22
809.781	76.69
809.955	75.27
810.13	79.98
810.304	76.96
810.478	71.67
810.652	74.61
810.827	74.33
811.001	76.14
811.175	80.61
811.349	86.5
811.524	74.51
811.698	69.15
811.872	75.29
812.046	81.56
812.22	95
812.394	100.28
812.568	120.16
812.742	97.91
812.916	90.58
813.09	78.78
813.264	77.94
813.438	68.5
813.612	76.7
813.786	78.66
813.96	77.25
814.134	85.69
814.308	94.35
814.482	88.55
814.656	98.12
814.83	102.48
815.003	94.92
815.177	80.81
815.351	93
815.525	85.21
815.698	93.57
815.872	91.97
816.046	102.88
816.219	92.35
816.393	95.95
816.567	93.56
816.74	91.78
816.914	84
817.088	84.26
817.261	81.33
817.435	78.13
817.608	79.64
817.782	71.53
817.955	76.5
818.129	75.63
818.302	65.66
818.475	76.47
818.649	90.4
818.822	91.36
818.996	108.73
819.169	107.3
819.342	91.02
819.516	91.26
819.689	83.54
819.862	74.69
820.035	75.88
820.209	74.61
820.382	66.32
820.555	76.63
820.728	76.72
820.901	74.99
821.075	77.21
821.248	74.35
821.421	63.48
821.594	66.1
821.767	74.7
821.94	69.83
822.113	74.21
822.286	85.32
822.459	70.51
822.632	67.44
822.805	77.12
822.978	75.26
823.151	70.23
823.324	77.67
823.496	72.99
823.669	73.61
823.842	67.25
824.015	64.49
824.188	67.25
824.361	72
824.533	62.35
824.706	78.65
824.879	77.09
825.051	78.44
825.224	69.76
825.397	77.06
825.569	69.64
825.742	53.43
825.915	52.61
826.087	63.73
826.26	55.88
826.432	57.92
826.605	77.96
826.777	65.23
826.95	60.54
827.122	78.41
827.295	77.34
827.467	67.82
827.64	69.67
827.812	70.98
827.984	61.32
828.157	62.18
828.329	72.22
828.501	78.56
828.674	90.62
828.846	85.19
829.018	91.52
829.19	97.5
829.363	95.37
829.535	73.19
829.707	91.18
829.879	74.64
830.051	55.67
830.223	59.5
830.395	59.13
830.568	38.78
830.74	52.62
830.912	53.89
831.084	54.58
831.256	57.69
831.428	86.66
831.6	66.77
831.772	69.72
831.943	56.07
832.115	53.38
832.287	35.22
832.459	39.17
832.631	45.55
832.803	42.48
832.975	49.69
833.146	50.3
833.318	48.6
833.49	73.04
833.662	83.5
833.833	75.48
834.005	72.21
834.177	83.34
834.348	60.25
834.52	57.77
834.692	65.26
834.863	60.6
835.035	46.61
835.206	36.97
835.378	39.14
835.549	44.75
835.721	49.3
835.892	55.13
836.064	52.52
836.235	62.25
836.407	54.43
836.578	72.99
836.749	79.72
836.921	87.01
837.092	70.14
837.264	77.47
837.435	60.42
837.606	49.63
837.777	36.85
837.949	62.24
838.12	62.08
838.291	54.69
838.462	74.63
838.633	81.17
838.805	59.94
838.976	70.96
839.147	81.29
839.318	58.61
839.489	70.42
839.66	79.49
839.831	60.18
840.002	57.42
840.173	49.45
840.344	8.53
840.515	-5.08
840.686	-2.08
840.857	-17.3
841.028	2.01
841.199	45.64
841.369	49.84
841.54	60.76
841.711	55.04
841.882	58.01
842.053	32.69
842.223	43.75
842.394	54.55
842.565	72.02
842.736	83.04
842.906	124.56
843.077	132.12
843.248	144.87
843.418	149.96
843.589	125.31
843.759	112.65
843.93	93.64
844.101	70.74
844.271	88.16
844.442	64.7
844.612	52.98
844.783	52.27
844.953	57.72
845.123	48.2
845.294	76.35
845.464	78.13
845.635	58.46
845.805	41.51
845.975	38.07
846.146	25.28
846.316	21.98
846.486	45.45
846.656	52.79
846.827	70.36
846.997	66.73
847.167	110.68
847.337	64.94
847.507	77.92
847.677	66.39
847.848	99.39
848.018	78.73
848.188	90.06
848.358	83.04
848.528	61.42
848.698	35.31
848.868	30.56
849.038	35.78
849.208	16.33
849.378	62.98
849.548	70.84
849.718	90.04
849.887	89.78
850.057	99.72
850.227	76.96
850.397	56.68
850.567	44.03
850.737	43.43
850.906	30.8
851.076	32.29
851.246	34.08
851.415	40.88
851.585	37.7
851.755	47.67
851.924	65.09
852.094	72.51
852.264	63.55
852.433	49.54
852.603	61.02
852.772	55.49
852.942	59.2
853.111	51.98
853.281	65.25
853.45	51.24
853.62	35.12
853.789	24.16
853.959	19.29
854.128	13.53
854.297	40.22
854.467	50.65
854.636	56.57
854.805	77.06
854.975	75.22
855.144	45.91
855.313	52.33
855.482	60.11
855.652	48.23
855.821	72.9
855.99	83.27
856.159	152.04
856.328	144.36
856.497	156.87
856.667	127.72
856.836	160.79
857.005	22.07
857.174	10.47
857.343	-59.15
857.512	-192.83
857.681	-54.62
857.85	43.68
858.019	47.68
858.188	63.12
858.356	61.97
858.525	82.15
858.694	34.46
858.863	-23.48
859.032	-32.61
859.201	20.54
859.369	12.11
859.538	-3.66
859.707	42.58
859.876	47.56
860.044	39.95
860.213	46.03
860.382	71.12
860.55	41.71
860.719	33.69
860.888	15.1
861.056	10.04
861.225	6.44
861.393	42.06
861.562	55.9
861.73	81.94
861.899	89.46
862.067	82.16
862.236	93.37
862.404	76.69
862.572	94.08
862.741	78.24
862.909	96.51
863.078	31.89
863.246	50.16
863.414	44.89
863.582	80.1
863.751	88.39
863.919	111.89
864.087	113.17
864.255	95.09
864.424	73.61
864.592	25.24
864.76	32.24
864.928	34.47
865.096	18.56
865.264	26.19
865.432	53.32
865.6	54.81
865.768	31.27
865.936	26.49
866.104	19.04
866.272	20.94
866.44	3.12
866.608	38.06
866.776	53.58
866.944	114.02
867.112	79.3
867.28	82.44
867.448	70.09
867.615	220.47
867.783	74.76
867.951	48.63
868.119	58.65
868.286	31.23
868.454	-2.49
868.622	-3.77
868.789	-62.43
868.957	31.4
869.125	-4.88
869.292	-36.95
869.46	-47.86
869.627	7.03
869.795	-18.44
869.963	8.05
870.13	28.44
870.298	49.07
870.465	28.76
870.632	41.67
870.8	47.61
870.967	59.55
871.135	31.99
871.302	75.38
871.469	54.87
871.637	93.81
871.804	60.03
871.971	58.45
872.139	73.2
872.306	85.2
872.473	70.44
872.64	66.67
872.807	94.78
872.975	118.99
873.142	148.96
873.309	3313.04
873.476	723.74
873.643	195.45
873.81	126.91
873.977	77.3
874.144	76.86
874.311	53.22
874.478	27.8
874.645	35.96
874.812	29.87
874.979	-1.52
875.146	-20.07
875.313	10.47
875.48	-95.19
875.647	-1.77
875.813	1021.33
875.98	-1763.64
876.147	370.63
876.314	103.16
876.481	105.88
876.647	-16.3
876.814	11.03
876.981	31.98
877.147	63.35
877.314	54.03
877.481	91.63
877.647	101.47
877.814	89.63
877.98	47.21
878.147	66.07
878.314	37.04
878.48	42.58
878.647	5.62
878.813	376.74
878.979	24.11
879.146	42.2
879.312	3.15
879.479	39.24
879.645	50.57
879.811	52.69
879.978	39.01
880.144	67.94
880.31	64.27
880.477	41.65
880.643	36.98
880.809	45.25
880.975	-3509.09
881.142	766.37
881.308	2552
881.474	5.76
881.64	-64.65
881.806	7.18
881.972	49.39
882.138	51.91
882.304	0.82
882.47	13.16
882.636	-78.55
882.802	56.91
882.968	182.75
883.134	102.18
883.3	94.41
883.466	118.41
883.632	105.55
883.798	54.75
883.964	28.13
884.129	45.5
884.295	38.06
884.461	-10.18
884.627	23.47
884.793	-2.71
884.958	-22.58
885.124	-6.39
885.29	-30.75
885.455	-150.91
885.621	-39.65
885.787	126.34
885.952	-94.79
886.118	-351.2
886.283	6389.47
886.449	214.02
886.614	76.36
886.78	65.07
886.945	93.7
887.111	15.21
887.276	56.92
887.442	37.42
887.607	-71.03
887.773	-24.84
887.938	-62.02
888.103	-55.1
888.269	-67.3
888.434	8
888.599	9.74
888.764	25.12
888.93	12.82
889.095	40.45
889.26	87.61
889.425	118.13
889.59	-542.03
889.756	499.24
889.921	179.06
890.086	168.99
890.251	143.51
890.416	42.88
890.581	27.1
890.746	81.2
890.911	36.87
891.076	40.28
891.241	37.43
891.406	47.6
891.571	-36.6
891.736	6.13
891.901	-43.87
892.065	-10.66
892.23	-33.86
892.395	27.28
892.56	-47.79
892.725	78.37
892.889	56.32
893.054	43.34
893.219	40.61
893.384	42.12
893.548	-12.93
893.713	125.93
893.878	62.72
