Data from Ofav_PS_Phys_356_Reflection_1.txt Node
Date: Thu Jul 29 18:17:54 EDT 2021
User: USUARIO
Spectrometer: FLMT01687
Trigger mode: 0
Integration Time (sec): 9.010000E-1
Scans to average: 2
Electric dark correction enabled: true
Nonlinearity correction enabled: false
Boxcar width: 2
XAxis mode: Wavelengths
Number of Pixels in Spectrum: 3648
>>>>>Begin Spectral Data<<<<<
179.494	121.9
179.716	32.43
179.937	-0.92
180.158	420.34
180.38	97.47
180.601	-226.77
180.823	-168.42
181.044	-109.44
181.265	-127.05
181.486	-589.83
181.708	120.57
181.929	284.52
182.15	10000
182.372	-161.88
182.593	-25.66
182.814	-28.1
183.035	-288.66
183.257	46.13
183.478	29.06
183.699	37.2
183.92	31.14
184.141	48.32
184.363	61.4
184.584	62.98
184.805	54.21
185.026	47.68
185.247	27.88
185.468	3.33
185.689	-27.13
185.91	-15.76
186.132	-17.74
186.353	26.73
186.574	55.78
186.795	58.98
187.016	50.97
187.237	38.9
187.458	37.23
187.679	42.89
187.9	59.7
188.121	41.08
188.342	51.9
188.563	34.7
188.784	24.38
189.005	22.42
189.226	47.1
189.447	46.45
189.667	68.88
189.888	78.13
190.109	95.24
190.33	126.28
190.551	105.22
190.772	87.21
190.993	44.87
191.214	15.07
191.434	6.44
191.655	12.85
191.876	-9.37
192.097	-53.62
192.318	-23.02
192.538	-0.26
192.759	4.48
192.98	25.17
193.201	46.03
193.421	58.58
193.642	35.82
193.863	22.68
194.083	17.62
194.304	12.17
194.525	21.05
194.745	36.44
194.966	16.52
195.187	20.13
195.407	11.03
195.628	-47.23
195.848	-19.74
196.069	28.66
196.29	30.33
196.51	42.89
196.731	49.34
196.951	52.61
197.172	20.07
197.392	14.91
197.613	-11.54
197.833	2.07
198.054	2.73
198.274	0.89
198.495	4.37
198.715	-2.79
198.936	-15.8
199.156	-13.42
199.377	34.26
199.597	71.5
199.817	80.12
200.038	76.44
200.258	70.5
200.479	55.06
200.699	-38.53
200.919	-11.74
201.14	-6.74
201.36	-11.84
201.58	9.36
201.801	35.3
202.021	49.61
202.241	65.22
202.461	74.3
202.682	62.42
202.902	71.56
203.122	62.3
203.342	45.4
203.563	91.25
203.783	68.88
204.003	45.41
204.223	11.61
204.443	37.29
204.663	1.21
204.884	23.01
205.104	25.42
205.324	30.65
205.544	25.4
205.764	27.07
205.984	50.03
206.204	59.21
206.424	79.65
206.644	83.75
206.864	75.21
207.084	45.73
207.304	34.07
207.525	-7.44
207.745	13.42
207.964	25.29
208.184	16.52
208.404	-11.29
208.624	25.94
208.844	27.78
209.064	38.89
209.284	29.4
209.504	31.99
209.724	40.75
209.944	41.48
210.164	38.71
210.384	41.76
210.604	62.12
210.823	52.61
211.043	38.19
211.263	54.32
211.483	59.75
211.703	34.84
211.922	38.94
212.142	33.16
212.362	3.63
212.582	15.18
212.801	21.13
213.021	-5.35
213.241	3.99
213.461	4.38
213.68	-32.83
213.9	-22.41
214.12	-7.68
214.339	-36.65
214.559	-31.52
214.779	-4.78
214.998	-27.5
215.218	-38.11
215.438	-4.36
215.657	8.21
215.877	16.32
216.096	14.71
216.316	9.66
216.535	-12.01
216.755	-26.8
216.974	-60.57
217.194	-38.4
217.413	3.54
217.633	33.44
217.852	4.7
218.072	27.93
218.291	26.68
218.511	29.58
218.73	12.59
218.95	31.69
219.169	23.48
219.389	13.91
219.608	8.55
219.827	23.19
220.047	28.37
220.266	18.41
220.485	38.63
220.705	40.57
220.924	19.14
221.143	8.82
221.363	13.49
221.582	-30.07
221.801	-110.69
222.021	-71.77
222.24	-42.71
222.459	0.28
222.678	33.65
222.897	34.53
223.117	47.04
223.336	56.6
223.555	31.19
223.774	26.21
223.993	35.7
224.213	36.22
224.432	20.62
224.651	35.87
224.87	26.16
225.089	23.81
225.308	23.13
225.527	42.48
225.746	35.56
225.965	59.23
226.184	44.31
226.404	27.33
226.623	14.26
226.842	6.8
227.061	-10.6
227.28	14.04
227.499	25.5
227.718	35.25
227.936	23.21
228.155	26.9
228.374	-6.79
228.593	3.25
228.812	-13.02
229.031	2.46
229.25	17.62
229.469	34.88
229.688	24.25
229.907	41.96
230.125	28.42
230.344	29.26
230.563	33.6
230.782	59.42
231.001	48.33
231.22	51.98
231.438	48.2
231.657	28.91
231.876	21.1
232.095	19.63
232.313	23.69
232.532	18.1
232.751	33.36
232.969	42.45
233.188	39.43
233.407	19.32
233.625	2.88
233.844	18.15
234.063	2.96
234.281	-10.61
234.5	-9.67
234.719	17.78
234.937	-15.25
235.156	-23.51
235.374	21
235.593	30.55
235.811	20.4
236.03	29.54
236.249	28.83
236.467	29.26
236.686	41.89
236.904	39.73
237.123	48.38
237.341	33.49
237.559	12.85
237.778	22.79
237.996	33.17
238.215	30.43
238.433	45.44
238.652	52.86
238.87	23.13
239.088	16.37
239.307	7.84
239.525	12.79
239.743	11.25
239.962	25.14
240.18	22.07
240.398	19.2
240.617	4.02
240.835	-12.72
241.053	0.63
241.271	6.58
241.49	24.33
241.708	48.42
241.926	53.33
242.144	33.41
242.363	40.63
242.581	24.42
242.799	12.66
243.017	19.87
243.235	23.31
243.453	24.7
243.672	36.06
243.89	24.82
244.108	37.64
244.326	50.88
244.544	30.14
244.762	8.34
244.98	13.08
245.198	0.48
245.416	4.79
245.634	-9.27
245.852	17.15
246.07	25.35
246.288	35.07
246.506	32.41
246.724	46.44
246.942	34.62
247.16	41.51
247.378	18.31
247.596	10.93
247.814	7.98
248.032	8.94
248.25	15.78
248.468	34.69
248.685	26.04
248.903	45.69
249.121	51.22
249.339	21.27
249.557	13.23
249.775	11.67
249.992	-11.99
250.21	1.44
250.428	34.54
250.646	41.73
250.863	55.73
251.081	64.58
251.299	65.76
251.517	45.25
251.734	38.38
251.952	36.12
252.17	20.34
252.387	17.41
252.605	30.14
252.823	32.81
253.04	33.39
253.258	44.25
253.475	34.76
253.693	35.63
253.911	28.54
254.128	27.8
254.346	18.63
254.563	23.28
254.781	20.06
254.998	48.17
255.216	32.31
255.433	59.53
255.651	58
255.868	44.97
256.086	37.83
256.303	46.86
256.521	36.79
256.738	27.9
256.956	41
257.173	41.18
257.39	55.23
257.608	38.02
257.825	51.01
258.043	50.28
258.26	38.83
258.477	19.95
258.695	34.3
258.912	33.91
259.129	9.86
259.346	15.3
259.564	55.96
259.781	32.67
259.998	40.72
260.216	63
260.433	71.8
260.65	54.7
260.867	56.61
261.084	41.98
261.302	24.68
261.519	5.98
261.736	13.16
261.953	7.05
262.17	21.26
262.387	20.25
262.604	11.8
262.822	0.93
263.039	18.93
263.256	4.24
263.473	15.48
263.69	30.63
263.907	53.86
264.124	40.39
264.341	62.02
264.558	52.01
264.775	32.68
264.992	17.49
265.209	15.76
265.426	5.24
265.643	10.05
265.86	14.51
266.077	23.61
266.294	23.8
266.51	13.63
266.727	24.33
266.944	15.56
267.161	6.37
267.378	6.04
267.595	28.61
267.812	10.08
268.028	-1.51
268.245	10.28
268.462	6.67
268.679	-13.73
268.896	-7.59
269.112	11.32
269.329	3.64
269.546	12.38
269.763	18.71
269.979	27
270.196	44.62
270.413	46.35
270.629	37.27
270.846	33.72
271.063	29.19
271.279	15.45
271.496	22.06
271.712	8.14
271.929	18.19
272.146	39.02
272.362	21.8
272.579	37.61
272.795	40.9
273.012	26.73
273.228	7.26
273.445	29.31
273.661	13.21
273.878	34.83
274.094	40.56
274.311	38.42
274.527	26.31
274.744	44.83
274.96	41.35
275.177	39.37
275.393	31.43
275.609	33.25
275.826	13.08
276.042	10.33
276.259	7.53
276.475	30.52
276.691	29.73
276.908	27.56
277.124	29.16
277.34	32.96
277.557	30.91
277.773	24.57
277.989	36.42
278.205	32.32
278.422	27.42
278.638	20.56
278.854	28.87
279.07	30.21
279.286	28.59
279.503	28.47
279.719	20.7
279.935	16.7
280.151	-7.89
280.367	-15.39
280.583	1.98
280.799	-1.16
281.016	-0
281.232	21.22
281.448	27.96
281.664	28.66
281.88	28.76
282.096	34.09
282.312	14.24
282.528	12.18
282.744	-8.66
282.96	-0.84
283.176	-17.53
283.392	8.47
283.608	2.51
283.824	-2.72
284.04	-3.94
284.256	13.53
284.471	4.3
284.687	32.56
284.903	50.29
285.119	43.41
285.335	19.59
285.551	18.56
285.767	12.03
285.982	16.03
286.198	14.42
286.414	24.03
286.63	41.97
286.846	42.58
287.061	45.92
287.277	45.79
287.493	45.84
287.709	29.78
287.924	26.82
288.14	17.54
288.356	34.53
288.571	35.42
288.787	36.67
289.003	35.4
289.218	22.98
289.434	12.51
289.65	16.93
289.865	3.1
290.081	-8.01
290.296	22.21
290.512	12.55
290.727	12.65
290.943	28.22
291.159	38.92
291.374	39.75
291.59	34.79
291.805	21.19
292.021	27.55
292.236	40.56
292.451	9.94
292.667	16.64
292.882	30.08
293.098	19.93
293.313	1.81
293.529	23.28
293.744	22.9
293.959	6.75
294.175	21.75
294.39	26.94
294.605	31.98
294.821	33.93
295.036	38.01
295.251	16.18
295.467	7.74
295.682	1.14
295.897	-3.66
296.112	-10.97
296.328	9.69
296.543	9.73
296.758	22.89
296.973	19.68
297.188	37.11
297.404	19.6
297.619	28.72
297.834	4.12
298.049	17.77
298.264	27.47
298.479	40.8
298.694	41.74
298.909	45.39
299.125	49.51
299.34	46.29
299.555	25.99
299.77	26.23
299.985	20.63
300.2	30.25
300.415	19.09
300.63	37.41
300.845	35.89
301.06	32.98
301.275	14.04
301.49	-5.35
301.704	-52.69
301.919	-16.1
302.134	-3.15
302.349	-7.21
302.564	9.27
302.779	19.08
302.994	4.14
303.209	13.77
303.423	25.46
303.638	23.5
303.853	23.07
304.068	23.42
304.283	9.71
304.497	12.27
304.712	-8.73
304.927	-0.95
305.142	0.59
305.356	-7.73
305.571	14.13
305.786	27.55
306	10.56
306.215	18.6
306.43	8.5
306.644	-20.53
306.859	-29.7
307.074	-11.52
307.288	-6.44
307.503	30.1
307.717	31.39
307.932	24.35
308.147	20.51
308.361	15.7
308.576	-3.53
308.79	-15.23
309.005	13.98
309.219	16.59
309.434	25.14
309.648	34.55
309.863	40.8
310.077	36.46
310.292	40.67
310.506	25.17
310.72	38.49
310.935	16.39
311.149	20.83
311.364	16.2
311.578	17.04
311.792	-6.81
312.007	18.3
312.221	1.91
312.435	8.95
312.649	21.89
312.864	-94.31
313.078	-68.5
313.292	-55.09
313.507	-32.18
313.721	-31.24
313.935	29.97
314.149	27.26
314.363	32.29
314.578	28.29
314.792	38.13
315.006	39.82
315.22	45.34
315.434	54.39
315.648	44.14
315.862	31.59
316.077	25.79
316.291	30.27
316.505	36.52
316.719	48.02
316.933	53.6
317.147	60.18
317.361	41.07
317.575	15.19
317.789	-6.41
318.003	-0.8
318.217	15.39
318.431	24.22
318.645	24.91
318.859	44.15
319.073	51.3
319.287	28.64
319.5	24.46
319.714	34.47
319.928	31.64
320.142	38.03
320.356	40.66
320.57	46.45
320.784	48.58
320.997	34.58
321.211	29.77
321.425	37.48
321.639	28.76
321.853	30.3
322.066	16.88
322.28	33.35
322.494	28.13
322.707	36.67
322.921	19.26
323.135	25.56
323.349	1.97
323.562	-5.1
323.776	-32.31
323.989	-13.07
324.203	-1.67
324.417	11.59
324.63	10.11
324.844	20.68
325.057	13.49
325.271	8.95
325.485	8.6
325.698	19.74
325.912	31.02
326.125	29.45
326.339	27.7
326.552	27.28
326.766	23.78
326.979	14.55
327.193	17.95
327.406	33.5
327.619	15.83
327.833	10.67
328.046	19.24
328.26	28.13
328.473	23.17
328.686	20.74
328.9	18.99
329.113	-5.75
329.326	-23.28
329.54	-45.29
329.753	-16.06
329.966	-1.72
330.179	8.06
330.393	17.93
330.606	23.5
330.819	25.07
331.032	22.87
331.246	25.56
331.459	-2.67
331.672	-10.14
331.885	12.72
332.098	20.59
332.311	21.75
332.525	33.89
332.738	28.75
332.951	5.24
333.164	2.61
333.377	-4.17
333.59	9.75
333.803	22.8
334.016	32.05
334.229	26.54
334.442	22.5
334.655	5.81
334.868	-1.48
335.081	10.97
335.294	13.52
335.507	22.18
335.72	44.26
335.933	40.93
336.146	34.84
336.359	47.62
336.572	39.73
336.785	18.75
336.997	27.71
337.21	35.5
337.423	32.84
337.636	28.6
337.849	29.87
338.062	15.83
338.274	4.12
338.487	-16.05
338.7	-21.6
338.913	-11.01
339.125	2.1
339.338	1.64
339.551	14.23
339.763	12.66
339.976	-5.93
340.189	-2.59
340.402	-3.27
340.614	-43.16
340.827	-20.39
341.039	1.54
341.252	6.41
341.465	15.86
341.677	36.33
341.89	25.55
342.102	20.07
342.315	13.07
342.527	13.74
342.74	4.58
342.952	15.48
343.165	22.54
343.377	19.52
343.59	8.62
343.802	13.88
344.015	17.53
344.227	9.03
344.44	23.48
344.652	29.59
344.864	18.64
345.077	22.08
345.289	23.98
345.502	3.88
345.714	-3.75
345.926	16.14
346.139	-22.14
346.351	-10.61
346.563	5.05
346.775	7.53
346.988	-11.17
347.2	2.6
347.412	1.5
347.624	4.65
347.837	5.57
348.049	13.64
348.261	15.42
348.473	12.08
348.685	7.93
348.897	21.5
349.11	23.27
349.322	25.68
349.534	32.98
349.746	29.97
349.958	28.1
350.17	14.55
350.382	18.85
350.594	7.02
350.806	25.62
351.018	8.42
351.23	2.69
351.442	-18.69
351.654	2.66
351.866	-27.04
352.078	3.53
352.29	5.93
352.502	22.77
352.714	14.79
352.926	18.99
353.138	3.4
353.35	1.27
353.561	-5.47
353.773	12.56
353.985	25.95
354.197	33.85
354.409	34.06
354.621	22.58
354.832	3.06
355.044	5.95
355.256	-1.8
355.468	0.73
355.679	18.85
355.891	29.57
356.103	30.01
356.314	31.6
356.526	27.88
356.738	20.35
356.949	15.07
357.161	16.45
357.373	22
357.584	27.8
357.796	31.22
358.008	29.08
358.219	23.35
358.431	-1.26
358.642	1.35
358.854	6.45
359.065	21.15
359.277	17.28
359.488	38.01
359.7	33.72
359.911	34.34
360.123	15.44
360.334	20.55
360.546	9.06
360.757	3.35
360.969	-5.36
361.18	22.05
361.391	8.17
361.603	13.87
361.814	41.36
362.025	40.83
362.237	28.86
362.448	35.39
362.659	30.55
362.871	17.62
363.082	12.21
363.293	8.93
363.504	11.52
363.716	6.77
363.927	-4.31
364.138	-20.36
364.349	-13.9
364.56	-10.2
364.772	-8.62
364.983	-3.09
365.194	15.63
365.405	20.37
365.616	8.1
365.827	17.04
366.038	15.34
366.25	-1.47
366.461	-17.61
366.672	-19.85
366.883	-10.68
367.094	-10.84
367.305	17
367.516	37.73
367.727	42.24
367.938	37.93
368.149	27.55
368.36	28.28
368.571	21.12
368.781	-6.33
368.992	-14.78
369.203	-3.17
369.414	-20.53
369.625	-2.91
369.836	18.39
370.047	15.53
370.258	20.49
370.468	26.38
370.679	6.77
370.89	-7.48
371.101	21.25
371.312	15.44
371.522	25.31
371.733	35.92
371.944	48.76
372.155	43.96
372.365	47.54
372.576	39.65
372.787	31.26
372.997	30.01
373.208	8.05
373.419	-1.13
373.629	8.57
373.84	17.44
374.05	12.37
374.261	24.89
374.472	21.95
374.682	6.69
374.893	4.4
375.103	22.71
375.314	36.91
375.524	41.9
375.735	52.67
375.945	56.29
376.156	44.43
376.366	16.2
376.577	26.27
376.787	21.89
376.997	20.01
377.208	8.95
377.418	21.86
377.629	10.04
377.839	15.89
378.049	20.01
378.26	30.44
378.47	31.67
378.68	36.82
378.89	24.24
379.101	22.09
379.311	17.29
379.521	12.67
379.732	9.42
379.942	9.76
380.152	6.33
380.362	11.73
380.572	12.26
380.783	-0
380.993	0.24
381.203	9.71
381.413	-3.54
381.623	-7.83
381.833	11.96
382.043	21.11
382.253	18.04
382.463	20.44
382.674	19.18
382.884	15.45
383.094	4.69
383.304	4.66
383.514	1.69
383.724	12.69
383.934	5.39
384.144	7.96
384.353	12.61
384.563	19.29
384.773	12.41
384.983	18.67
385.193	23.57
385.403	14.38
385.613	15.35
385.823	19.87
386.033	17.96
386.242	14.24
386.452	15.36
386.662	11.64
386.872	8.46
387.082	3.15
387.291	-0.42
387.501	-0.1
387.711	-1.14
387.921	-0.62
388.13	3.67
388.34	6.39
388.55	7.82
388.759	10.12
388.969	7.17
389.179	4.89
389.388	4.6
389.598	4.24
389.807	2.39
390.017	3.56
390.227	9
390.436	9.6
390.646	7.79
390.855	8.05
391.065	7.79
391.274	6.18
391.484	5.57
391.693	6.2
391.903	6.32
392.112	6.85
392.322	4.6
392.531	3.64
392.74	1.52
392.95	2.45
393.159	2.9
393.369	5.24
393.578	5.73
393.787	7.84
393.997	6.27
394.206	5.81
394.415	6.01
394.625	5.93
394.834	6.05
395.043	5.99
395.252	7.32
395.462	5.89
395.671	5.93
395.88	7.2
396.089	8.13
396.298	7.03
396.508	7.06
396.717	7.25
396.926	6.23
397.135	5.52
397.344	5.72
397.553	6.29
397.762	7.02
397.971	6.99
398.181	7.69
398.39	7.36
398.599	7.42
398.808	7.16
399.017	7.89
399.226	7.68
399.435	7.98
399.644	8.35
399.853	8.06
400.062	7.94
400.27	8.05
400.479	8.14
400.688	7.77
400.897	7.93
401.106	7.6
401.315	7.57
401.524	7.59
401.733	7.56
401.941	7.82
402.15	7.9
402.359	7.75
402.568	7.69
402.777	7.56
402.985	7.22
403.194	7.04
403.403	7.15
403.612	7.15
403.82	7.22
404.029	7.15
404.238	7.06
404.446	6.97
404.655	6.69
404.864	6.59
405.072	6.49
405.281	6.56
405.489	6.51
405.698	6.65
405.906	6.66
406.115	6.79
406.324	6.46
406.532	6.51
406.741	6.59
406.949	6.63
407.158	6.64
407.366	6.88
407.574	6.75
407.783	6.73
407.991	6.57
408.2	6.44
408.408	6.29
408.617	6.27
408.825	6.3
409.033	6.47
409.242	6.6
409.45	6.68
409.658	6.77
409.867	6.64
410.075	6.57
410.283	6.39
410.491	6.3
410.7	6.26
410.908	6.22
411.116	6.21
411.324	6.28
411.533	6.41
411.741	6.5
411.949	6.51
412.157	6.45
412.365	6.31
412.573	6.21
412.781	6.02
412.99	6.02
413.198	5.94
413.406	6.02
413.614	6.1
413.822	6.17
414.03	6.15
414.238	6.22
414.446	6.37
414.654	6.38
414.862	6.4
415.07	6.34
415.278	6.3
415.486	6.13
415.694	6.13
415.902	6.06
416.109	6.06
416.317	6.16
416.525	6.29
416.733	6.26
416.941	6.42
417.149	6.38
417.357	6.24
417.564	6.03
417.772	5.93
417.98	5.73
418.188	5.77
418.395	5.69
418.603	5.76
418.811	5.85
419.019	6.09
419.226	6.2
419.434	6.29
419.642	6.12
419.849	5.89
420.057	5.74
420.265	5.63
420.472	5.62
420.68	5.73
420.887	5.96
421.095	6.06
421.302	6.04
421.51	6.1
421.717	6.1
421.925	6.08
422.132	5.81
422.34	5.63
422.547	5.43
422.755	5.54
422.962	5.47
423.17	5.41
423.377	5.65
423.585	5.88
423.792	5.8
423.999	5.86
424.207	5.95
424.414	5.71
424.621	5.71
424.829	5.88
425.036	5.85
425.243	5.93
425.451	6.09
425.658	5.98
425.865	5.66
426.072	5.51
426.28	5.53
426.487	5.51
426.694	5.42
426.901	5.32
427.108	5.33
427.315	5.29
427.523	5.34
427.73	5.33
427.937	5.44
428.144	5.5
428.351	5.34
428.558	5.32
428.765	5.47
428.972	5.62
429.179	5.49
429.386	5.64
429.593	5.62
429.8	5.63
430.007	5.61
430.214	5.69
430.421	5.8
430.628	5.67
430.835	5.58
431.042	5.59
431.249	5.78
431.456	5.56
431.662	5.82
431.869	6
432.076	5.93
432.283	5.91
432.49	5.98
432.697	5.85
432.903	5.6
433.11	5.54
433.317	5.33
433.524	5.48
433.73	5.47
433.937	5.52
434.144	5.52
434.35	5.65
434.557	5.43
434.764	5.38
434.97	5.42
435.177	5.6
435.384	5.54
435.59	5.56
435.797	5.68
436.003	5.6
436.21	5.39
436.416	5.35
436.623	5.36
436.829	5.32
437.036	5.31
437.242	5.47
437.449	5.46
437.655	5.51
437.862	5.54
438.068	5.61
438.275	5.48
438.481	5.5
438.687	5.49
438.894	5.46
439.1	5.44
439.307	5.48
439.513	5.52
439.719	5.44
439.926	5.47
440.132	5.5
440.338	5.54
440.544	5.5
440.751	5.53
440.957	5.54
441.163	5.68
441.369	5.72
441.575	5.67
441.782	5.69
441.988	5.68
442.194	5.54
442.4	5.45
442.606	5.51
442.812	5.5
443.018	5.49
443.224	5.54
443.431	5.52
443.637	5.59
443.843	5.53
444.049	5.47
444.255	5.38
444.461	5.38
444.667	5.32
444.873	5.35
445.079	5.36
445.284	5.38
445.49	5.43
445.696	5.44
445.902	5.46
446.108	5.39
446.314	5.53
446.52	5.49
446.726	5.5
446.931	5.51
447.137	5.58
447.343	5.48
447.549	5.43
447.755	5.31
447.96	5.41
448.166	5.31
448.372	5.35
448.578	5.49
448.783	5.66
448.989	5.58
449.195	5.59
449.4	5.58
449.606	5.5
449.812	5.43
450.017	5.4
450.223	5.46
450.428	5.43
450.634	5.46
450.84	5.51
451.045	5.51
451.251	5.52
451.456	5.57
451.662	5.51
451.867	5.52
452.073	5.58
452.278	5.51
452.483	5.47
452.689	5.52
452.894	5.42
453.1	5.36
453.305	5.44
453.51	5.41
453.716	5.39
453.921	5.55
454.127	5.64
454.332	5.51
454.537	5.49
454.742	5.47
454.948	5.3
455.153	5.25
455.358	5.37
455.563	5.44
455.769	5.39
455.974	5.48
456.179	5.4
456.384	5.35
456.589	5.34
456.795	5.38
457	5.38
457.205	5.46
457.41	5.52
457.615	5.5
457.82	5.55
458.025	5.58
458.23	5.57
458.435	5.58
458.64	5.59
458.845	5.52
459.05	5.52
459.255	5.53
459.46	5.45
459.665	5.44
459.87	5.38
460.075	5.33
460.28	5.26
460.485	5.25
460.69	5.26
460.895	5.3
461.099	5.28
461.304	5.28
461.509	5.26
461.714	5.26
461.919	5.24
462.123	5.21
462.328	5.3
462.533	5.35
462.738	5.32
462.942	5.31
463.147	5.4
463.352	5.4
463.556	5.42
463.761	5.32
463.966	5.43
464.17	5.41
464.375	5.34
464.58	5.28
464.784	5.44
464.989	5.34
465.193	5.31
465.398	5.44
465.602	5.46
465.807	5.43
466.011	5.6
466.216	5.57
466.42	5.48
466.625	5.64
466.829	5.8
467.034	5.8
467.238	5.8
467.443	5.79
467.647	5.62
467.851	5.45
468.056	5.32
468.26	5.32
468.464	5.35
468.669	5.44
468.873	5.46
469.077	5.49
469.282	5.55
469.486	5.52
469.69	5.52
469.894	5.51
470.099	5.51
470.303	5.55
470.507	5.64
470.711	5.63
470.915	5.62
471.119	5.63
471.324	5.63
471.528	5.53
471.732	5.51
471.936	5.53
472.14	5.6
472.344	5.59
472.548	5.68
472.752	5.74
472.956	5.79
473.16	5.72
473.364	5.76
473.568	5.68
473.772	5.68
473.976	5.65
474.18	5.69
474.384	5.67
474.588	5.72
474.792	5.69
474.995	5.65
475.199	5.57
475.403	5.57
475.607	5.59
475.811	5.56
476.015	5.62
476.218	5.63
476.422	5.64
476.626	5.56
476.83	5.54
477.033	5.58
477.237	5.63
477.441	5.64
477.644	5.69
477.848	5.76
478.052	5.77
478.255	5.78
478.459	5.73
478.663	5.74
478.866	5.77
479.07	5.75
479.273	5.66
479.477	5.65
479.681	5.74
479.884	5.69
480.088	5.62
480.291	5.75
480.495	5.78
480.698	5.69
480.901	5.69
481.105	5.69
481.308	5.61
481.512	5.67
481.715	5.68
481.919	5.77
482.122	5.85
482.325	5.84
482.529	5.83
482.732	5.82
482.935	5.74
483.138	5.67
483.342	5.75
483.545	5.79
483.748	5.85
483.952	5.95
484.155	6.12
484.358	6.07
484.561	6.04
484.764	5.95
484.967	5.91
485.171	5.82
485.374	5.81
485.577	5.8
485.78	5.9
485.983	5.95
486.186	6.01
486.389	6.12
486.592	6.17
486.795	6.2
486.998	6.14
487.201	6.15
487.404	6.23
487.607	6.27
487.81	6.23
488.013	6.31
488.216	6.31
488.419	6.33
488.622	6.4
488.825	6.59
489.028	6.58
489.231	6.69
489.433	6.69
489.636	6.69
489.839	6.66
490.042	6.77
490.245	6.84
490.447	6.9
490.65	7.06
490.853	7.16
491.056	7.2
491.258	7.21
491.461	7.27
491.664	7.24
491.866	7.3
492.069	7.37
492.272	7.46
492.474	7.53
492.677	7.58
492.879	7.68
493.082	7.77
493.285	7.9
493.487	8.08
493.69	8.22
493.892	8.34
494.095	8.53
494.297	8.64
494.5	8.72
494.702	8.84
494.905	8.97
495.107	9.04
495.309	9.25
495.512	9.37
495.714	9.59
495.917	9.66
496.119	9.81
496.321	9.88
496.524	10.09
496.726	10.07
496.928	10.22
497.13	10.38
497.333	10.45
497.535	10.52
497.737	10.71
497.939	10.8
498.142	10.96
498.344	11.13
498.546	11.25
498.748	11.42
498.95	11.56
499.152	11.67
499.355	11.87
499.557	11.99
499.759	12.06
499.961	12.11
500.163	12.18
500.365	12.2
500.567	12.22
500.769	12.31
500.971	12.5
501.173	12.58
501.375	12.73
501.577	12.84
501.779	12.96
501.981	13.01
502.183	13.09
502.385	13.03
502.587	13.05
502.788	13.11
502.99	13.16
503.192	13.2
503.394	13.29
503.596	13.38
503.798	13.38
503.999	13.45
504.201	13.52
504.403	13.46
504.605	13.45
504.806	13.37
505.008	13.4
505.21	13.45
505.411	13.46
505.613	13.36
505.815	13.43
506.016	13.27
506.218	13.09
506.42	13.1
506.621	13.09
506.823	13.03
507.024	12.99
507.226	13.03
507.427	12.95
507.629	12.97
507.83	12.9
508.032	12.95
508.233	12.86
508.435	12.79
508.636	12.74
508.838	12.73
509.039	12.63
509.24	12.57
509.442	12.56
509.643	12.47
509.845	12.44
510.046	12.41
510.247	12.4
510.448	12.33
510.65	12.36
510.851	12.24
511.052	12.15
511.254	12.08
511.455	12.01
511.656	11.94
511.857	11.88
512.058	11.85
512.26	11.77
512.461	11.71
512.662	11.6
512.863	11.59
513.064	11.47
513.265	11.42
513.466	11.39
513.667	11.37
513.868	11.25
514.069	11.21
514.27	11.15
514.471	11.16
514.672	11.12
514.873	11.12
515.074	11.17
515.275	11.11
515.476	10.99
515.677	10.95
515.878	11.02
516.079	10.9
516.28	10.89
516.481	10.97
516.682	11
516.882	10.87
517.083	10.9
517.284	10.85
517.485	10.76
517.686	10.63
517.886	10.64
518.087	10.64
518.288	10.62
518.488	10.61
518.689	10.66
518.89	10.64
519.091	10.63
519.291	10.63
519.492	10.57
519.692	10.56
519.893	10.62
520.094	10.54
520.294	10.57
520.495	10.55
520.695	10.54
520.896	10.46
521.096	10.48
521.297	10.49
521.497	10.51
521.698	10.49
521.898	10.47
522.099	10.4
522.299	10.33
522.499	10.32
522.7	10.31
522.9	10.28
523.101	10.32
523.301	10.38
523.501	10.33
523.702	10.32
523.902	10.33
524.102	10.29
524.302	10.24
524.503	10.29
524.703	10.27
524.903	10.25
525.103	10.26
525.304	10.34
525.504	10.3
525.704	10.32
525.904	10.32
526.104	10.32
526.304	10.26
526.504	10.24
526.705	10.22
526.905	10.19
527.105	10.28
527.305	10.25
527.505	10.24
527.705	10.29
527.905	10.32
528.105	10.24
528.305	10.24
528.505	10.26
528.705	10.22
528.905	10.26
529.105	10.27
529.304	10.25
529.504	10.34
529.704	10.36
529.904	10.32
530.104	10.31
530.304	10.35
530.503	10.34
530.703	10.3
530.903	10.31
531.103	10.37
531.303	10.47
531.502	10.46
531.702	10.55
531.902	10.65
532.101	10.63
532.301	10.6
532.501	10.6
532.7	10.63
532.9	10.64
533.1	10.74
533.299	10.74
533.499	10.78
533.698	10.75
533.898	10.75
534.097	10.69
534.297	10.77
534.496	10.79
534.696	10.8
534.895	10.8
535.095	10.86
535.294	10.86
535.494	10.88
535.693	10.87
535.892	10.99
536.092	10.96
536.291	10.99
536.491	11
536.69	11.1
536.889	11.04
537.088	11.03
537.288	11.06
537.487	11.11
537.686	11.13
537.886	11.23
538.085	11.34
538.284	11.28
538.483	11.24
538.682	11.23
538.882	11.15
539.081	11.14
539.28	11.2
539.479	11.24
539.678	11.27
539.877	11.27
540.076	11.3
540.275	11.3
540.474	11.33
540.673	11.37
540.872	11.44
541.071	11.47
541.27	11.52
541.469	11.53
541.668	11.58
541.867	11.65
542.066	11.72
542.265	11.76
542.464	11.79
542.663	11.86
542.862	11.96
543.06	12
543.259	12.14
543.458	12.19
543.657	12.23
543.856	12.21
544.054	12.2
544.253	12.13
544.452	12.2
544.651	12.21
544.849	12.18
545.048	12.23
545.247	12.29
545.445	12.31
545.644	12.28
545.843	12.38
546.041	12.43
546.24	12.46
546.438	12.49
546.637	12.56
546.836	12.61
547.034	12.64
547.233	12.74
547.431	12.76
547.63	12.83
547.828	12.85
548.027	12.86
548.225	12.85
548.423	12.85
548.622	12.91
548.82	12.92
549.019	12.98
549.217	12.97
549.415	13.09
549.614	13.12
549.812	13.12
550.01	13.21
550.209	13.25
550.407	13.31
550.605	13.32
550.803	13.38
551.002	13.43
551.2	13.56
551.398	13.59
551.596	13.65
551.794	13.81
551.993	13.82
552.191	13.84
552.389	13.93
552.587	13.98
552.785	14.03
552.983	14.15
553.181	14.3
553.379	14.43
553.577	14.53
553.775	14.61
553.973	14.58
554.171	14.58
554.369	14.56
554.567	14.71
554.765	14.68
554.963	14.72
555.161	14.8
555.359	14.9
555.557	14.9
555.755	15.06
555.952	15.2
556.15	15.33
556.348	15.41
556.546	15.45
556.744	15.56
556.941	15.7
557.139	15.76
557.337	15.91
557.535	16.03
557.732	16.09
557.93	16.09
558.128	16.12
558.325	16.12
558.523	16.13
558.721	16.2
558.918	16.32
559.116	16.42
559.313	16.47
559.511	16.6
559.708	16.63
559.906	16.7
560.104	16.81
560.301	16.93
560.498	17.01
560.696	17.13
560.893	17.18
561.091	17.29
561.288	17.34
561.486	17.37
561.683	17.4
561.88	17.53
562.078	17.58
562.275	17.64
562.473	17.72
562.67	17.87
562.867	17.87
563.064	17.89
563.262	18.03
563.459	18.13
563.656	18.1
563.853	18.26
564.051	18.33
564.248	18.34
564.445	18.4
564.642	18.47
564.839	18.52
565.036	18.62
565.234	18.7
565.431	18.74
565.628	18.81
565.825	18.73
566.022	18.76
566.219	18.67
566.416	18.77
566.613	18.84
566.81	19
567.007	19.01
567.204	19.12
567.401	19.13
567.598	19.23
567.795	19.16
567.991	19.26
568.188	19.28
568.385	19.31
568.582	19.28
568.779	19.39
568.976	19.35
569.172	19.5
569.369	19.52
569.566	19.56
569.763	19.58
569.96	19.62
570.156	19.53
570.353	19.53
570.55	19.51
570.746	19.45
570.943	19.45
571.14	19.47
571.336	19.48
571.533	19.49
571.729	19.58
571.926	19.62
572.123	19.68
572.319	19.7
572.516	19.76
572.712	19.75
572.909	19.69
573.105	19.73
573.302	19.8
573.498	19.78
573.695	19.85
573.891	19.88
574.087	19.77
574.284	19.72
574.48	19.71
574.677	19.56
574.873	19.54
575.069	19.61
575.266	19.52
575.462	19.41
575.658	19.49
575.854	19.47
576.051	19.41
576.247	19.48
576.443	19.57
576.639	19.57
576.835	19.52
577.032	19.49
577.228	19.45
577.424	19.47
577.62	19.36
577.816	19.36
578.012	19.4
578.208	19.3
578.404	19.24
578.6	19.24
578.796	19.18
578.993	19.1
579.189	19.14
579.384	19.07
579.58	18.94
579.776	18.9
579.972	18.88
580.168	18.77
580.364	18.7
580.56	18.72
580.756	18.71
580.952	18.56
581.148	18.66
581.343	18.58
581.539	18.61
581.735	18.6
581.931	18.61
582.127	18.47
582.322	18.45
582.518	18.39
582.714	18.32
582.909	18.31
583.105	18.37
583.301	18.41
583.496	18.39
583.692	18.38
583.888	18.42
584.083	18.25
584.279	18.3
584.474	18.23
584.67	18.1
584.866	18.07
585.061	18.11
585.257	17.99
585.452	18.01
585.648	18.09
585.843	18.07
586.039	18.03
586.234	17.94
586.429	17.84
586.625	17.74
586.82	17.69
587.015	17.63
587.211	17.62
587.406	17.51
587.601	17.55
587.797	17.51
587.992	17.42
588.187	17.45
588.383	17.61
588.578	17.65
588.773	17.64
588.968	17.69
589.163	17.67
589.359	17.6
589.554	17.6
589.749	17.6
589.944	17.63
590.139	17.61
590.334	17.61
590.529	17.55
590.724	17.55
590.919	17.48
591.114	17.57
591.309	17.59
591.504	17.69
591.699	17.67
591.894	17.86
592.089	17.79
592.284	17.85
592.479	17.76
592.674	17.78
592.869	17.73
593.064	17.86
593.259	17.83
593.454	17.83
593.648	17.83
593.843	17.85
594.038	17.69
594.233	17.77
594.428	17.84
594.622	17.88
594.817	17.88
595.012	17.98
595.206	18.03
595.401	18.01
595.596	18
595.79	18.05
595.985	18.19
596.18	18.2
596.374	18.36
596.569	18.52
596.763	18.59
596.958	18.58
597.153	18.55
597.347	18.52
597.542	18.56
597.736	18.52
597.931	18.5
598.125	18.58
598.319	18.68
598.514	18.77
598.708	18.88
598.903	19.04
599.097	19.2
599.291	19.28
599.486	19.17
599.68	19.18
599.874	19.07
600.069	19.12
600.263	19.04
600.457	19.2
600.651	19.16
600.846	19.22
601.04	19.15
601.234	19.11
601.428	19.16
601.622	19.23
601.817	19.3
602.011	19.35
602.205	19.42
602.399	19.35
602.593	19.41
602.787	19.34
602.981	19.22
603.175	19.24
603.369	19.25
603.563	19.23
603.757	19.3
603.951	19.34
604.145	19.24
604.339	19.29
604.533	19.2
604.727	19.08
604.921	19.06
605.115	19.07
605.309	18.87
605.502	18.84
605.696	18.82
605.89	18.73
606.084	18.73
606.278	18.72
606.471	18.78
606.665	18.74
606.859	18.75
607.053	18.69
607.246	18.65
607.44	18.57
607.634	18.54
607.827	18.56
608.021	18.4
608.214	18.37
608.408	18.27
608.602	18.23
608.795	18.14
608.989	18.18
609.182	18.08
609.376	18.06
609.569	18.04
609.763	17.92
609.956	17.85
610.15	17.72
610.343	17.6
610.537	17.46
610.73	17.46
610.923	17.43
611.117	17.51
611.31	17.53
611.504	17.53
611.697	17.46
611.89	17.33
612.083	17.24
612.277	17.11
612.47	17.02
612.663	16.92
612.856	16.81
613.05	16.7
613.243	16.67
613.436	16.63
613.629	16.58
613.822	16.58
614.015	16.58
614.209	16.51
614.402	16.37
614.595	16.39
614.788	16.29
614.981	16.17
615.174	16.08
615.367	16.06
615.56	15.88
615.753	15.87
615.946	15.79
616.139	15.71
616.332	15.64
616.525	15.56
616.718	15.43
616.911	15.43
617.103	15.44
617.296	15.32
617.489	15.3
617.682	15.43
617.875	15.36
618.067	15.31
618.26	15.32
618.453	15.27
618.646	15.14
618.838	15.05
619.031	14.92
619.224	14.88
619.417	14.87
619.609	14.75
619.802	14.65
619.994	14.68
620.187	14.61
620.38	14.69
620.572	14.65
620.765	14.78
620.957	14.7
621.15	14.72
621.342	14.51
621.535	14.59
621.727	14.46
621.92	14.47
622.112	14.43
622.305	14.51
622.497	14.39
622.69	14.33
622.882	14.27
623.074	14.38
623.267	14.32
623.459	14.39
623.651	14.48
623.844	14.54
624.036	14.35
624.228	14.31
624.42	14.3
624.613	14.27
624.805	14.21
624.997	14.23
625.189	14.21
625.381	14.22
625.574	14.19
625.766	14.19
625.958	14.18
626.15	14.11
626.342	14.02
626.534	13.98
626.726	13.92
626.918	13.89
627.11	13.87
627.302	13.77
627.494	13.74
627.686	13.69
627.878	13.6
628.07	13.63
628.262	13.63
628.454	13.51
628.646	13.52
628.838	13.56
629.029	13.47
629.221	13.43
629.413	13.42
629.605	13.33
629.797	13.27
629.989	13.3
630.18	13.34
630.372	13.36
630.564	13.37
630.755	13.35
630.947	13.3
631.139	13.16
631.33	13.16
631.522	13.18
631.714	13.1
631.905	13.04
632.097	13.08
632.289	13.05
632.48	13.04
632.672	13.08
632.863	13.04
633.055	13
633.246	12.91
633.438	12.8
633.629	12.72
633.821	12.8
634.012	12.76
634.203	12.71
634.395	12.73
634.586	12.87
634.777	12.76
634.969	12.8
635.16	12.92
635.351	12.92
635.543	12.8
635.734	12.81
635.925	12.75
636.117	12.7
636.308	12.71
636.499	12.69
636.69	12.62
636.881	12.62
637.073	12.6
637.264	12.49
637.455	12.43
637.646	12.53
637.837	12.57
638.028	12.59
638.219	12.59
638.41	12.55
638.601	12.44
638.792	12.38
638.983	12.36
639.174	12.28
639.365	12.3
639.556	12.22
639.747	12.27
639.938	12.21
640.129	12.31
640.32	12.35
640.511	12.42
640.701	12.3
640.892	12.27
641.083	12.23
641.274	12.15
641.465	12.21
641.655	12.22
641.846	12.23
642.037	12.2
642.228	12.24
642.418	12.11
642.609	12.09
642.8	12.05
642.99	11.93
643.181	11.86
643.372	11.91
643.562	11.87
643.753	11.87
643.943	11.94
644.134	11.92
644.324	11.94
644.515	11.92
644.705	11.85
644.896	11.84
645.086	11.77
645.277	11.76
645.467	11.76
645.658	11.79
645.848	11.73
646.038	11.79
646.229	11.74
646.419	11.73
646.61	11.84
646.8	11.92
646.99	11.89
647.18	11.81
647.371	11.73
647.561	11.58
647.751	11.43
647.941	11.33
648.132	11.36
648.322	11.39
648.512	11.35
648.702	11.41
648.892	11.49
649.082	11.54
649.272	11.56
649.462	11.63
649.653	11.64
649.843	11.63
650.033	11.68
650.223	11.7
650.413	11.59
650.603	11.65
650.793	11.57
650.983	11.38
651.172	11.37
651.362	11.29
651.552	11.12
651.742	11.19
651.932	11.21
652.122	11.17
652.312	11.22
652.502	11.12
652.691	10.99
652.881	10.95
653.071	10.88
653.261	10.85
653.45	10.89
653.64	10.75
653.83	10.68
654.019	10.56
654.209	10.48
654.399	10.36
654.588	10.4
654.778	10.36
654.968	10.34
655.157	10.28
655.347	10.28
655.536	10.2
655.726	10.11
655.915	10.03
656.105	9.9
656.294	9.81
656.484	9.79
656.673	9.69
656.863	9.63
657.052	9.48
657.241	9.34
657.431	9.16
657.62	8.99
657.809	8.84
657.999	8.84
658.188	8.71
658.377	8.59
658.567	8.58
658.756	8.44
658.945	8.37
659.134	8.31
659.324	8.29
659.513	8.16
659.702	8.06
659.891	7.9
660.08	7.84
660.269	7.76
660.458	7.66
660.648	7.67
660.837	7.55
661.026	7.44
661.215	7.43
661.404	7.34
661.593	7.23
661.782	7.23
661.971	7.27
662.16	7.15
662.349	7.03
662.538	6.89
662.726	6.84
662.915	6.7
663.104	6.58
663.293	6.57
663.482	6.61
663.671	6.54
663.86	6.49
664.048	6.49
664.237	6.48
664.426	6.46
664.615	6.38
664.803	6.37
664.992	6.25
665.181	6.15
665.369	6.11
665.558	6.05
665.747	6.03
665.935	6.05
666.124	6.16
666.312	6.15
666.501	6.26
666.69	6.18
666.878	6.13
667.067	6.02
667.255	5.99
667.444	5.97
667.632	6.04
667.82	6.09
668.009	6.1
668.197	6.08
668.386	5.91
668.574	5.86
668.762	5.77
668.951	5.89
669.139	5.86
669.327	5.95
669.516	5.99
669.704	6.04
669.892	5.94
670.08	5.99
670.269	5.94
670.457	5.91
670.645	5.97
670.833	5.89
671.021	5.89
671.21	5.89
671.398	5.84
671.586	5.84
671.774	5.94
671.962	5.84
672.15	6.01
672.338	6.11
672.526	6.2
672.714	6.17
672.902	6.26
673.09	6.28
673.278	6.29
673.466	6.39
673.654	6.61
673.842	6.67
674.03	6.69
674.218	6.75
674.405	6.7
674.593	6.62
674.781	6.56
674.969	6.47
675.157	6.62
675.344	6.68
675.532	6.77
675.72	6.91
675.908	7.05
676.095	6.94
676.283	6.93
676.471	6.98
676.658	7.02
676.846	7.1
677.033	7.21
677.221	7.28
677.409	7.18
677.596	7.35
677.784	7.32
677.971	7.28
678.159	7.22
678.346	7.34
678.534	7.4
678.721	7.51
678.909	7.67
679.096	7.83
679.283	7.96
679.471	7.92
679.658	8.15
679.846	8.05
680.033	8.24
680.22	8.33
680.408	8.42
680.595	8.26
680.782	8.45
680.969	8.37
681.157	8.33
681.344	8.24
681.531	8.21
681.718	8.27
681.905	8.14
682.093	8.18
682.28	8.28
682.467	8.38
682.654	8.38
682.841	8.64
683.028	8.7
683.215	8.88
683.402	9.01
683.589	9.25
683.776	9.49
683.963	9.49
684.15	9.46
684.337	9.57
684.524	9.52
684.711	9.45
684.898	9.69
685.085	9.84
685.271	9.91
685.458	10.04
685.645	10.22
685.832	10.28
686.019	10.52
686.205	10.76
686.392	11.04
686.579	11.17
686.766	11.4
686.952	11.49
687.139	11.52
687.326	11.64
687.512	11.8
687.699	11.95
687.886	12.14
688.072	12.39
688.259	12.54
688.445	12.78
688.632	12.99
688.818	13.36
689.005	13.67
689.191	14
689.378	14.29
689.564	14.65
689.751	14.82
689.937	15.24
690.124	15.56
690.31	15.82
690.496	16.15
690.683	16.5
690.869	16.64
691.055	17.07
691.242	17.41
691.428	17.65
691.614	18.11
691.8	18.66
691.987	18.87
692.173	19.28
692.359	19.77
692.545	20.09
692.731	20.53
692.918	21.04
693.104	21.56
693.29	22.07
693.476	22.63
693.662	23.26
693.848	23.81
694.034	24.16
694.22	24.69
694.406	25.25
694.592	25.54
694.778	25.91
694.964	26.47
695.15	27
695.336	27.48
695.522	28.22
695.708	28.92
695.894	29.71
696.08	30.27
696.265	30.73
696.451	31.03
696.637	31.43
696.823	31.85
697.009	32.43
697.194	32.88
697.38	33.56
697.566	34.36
697.751	34.9
697.937	35.39
698.123	35.87
698.308	36.52
698.494	37.01
698.68	37.71
698.865	38.29
699.051	38.94
699.236	39.46
699.422	39.91
699.607	40.31
699.793	40.78
699.978	41.44
700.164	42.16
700.349	42.93
700.535	43.29
700.72	43.87
700.906	44.49
701.091	44.53
701.276	44.78
701.462	45.64
701.647	46.49
701.832	47.1
702.018	48.03
702.203	48.73
702.388	49.23
702.573	49.32
702.759	49.71
702.944	50
703.129	50.33
703.314	50.81
703.499	51.77
703.684	51.96
703.87	52.47
704.055	52.85
704.24	53.27
704.425	53.15
704.61	53.6
704.795	53.77
704.98	54.42
705.165	54.62
705.35	55.26
705.535	56.06
705.72	56.5
705.905	56.99
706.09	57.39
706.275	57.44
706.459	57.46
706.644	57.91
706.829	58.33
707.014	58.9
707.199	59.59
707.384	60.09
707.568	60.29
707.753	60.28
707.938	60.47
708.123	61.07
708.307	61.61
708.492	61.94
708.677	62.07
708.861	62.26
709.046	62.02
709.231	61.97
709.415	62.28
709.6	62.84
709.784	63.18
709.969	63.54
710.153	63.9
710.338	64.43
710.522	64.81
710.707	65.1
710.891	65.52
711.076	65.45
711.26	65.55
711.445	65.44
711.629	65.61
711.813	65.72
711.998	66.14
712.182	66.45
712.366	66.9
712.551	67.68
712.735	68
712.919	68.02
713.103	68.05
713.288	67.8
713.472	67.77
713.656	67.7
713.84	67.98
714.024	68.3
714.208	69.2
714.393	68.98
714.577	69.16
714.761	69.35
714.945	69.32
715.129	69.16
715.313	69.57
715.497	70.06
715.681	70.69
715.865	70.63
716.049	70.82
716.233	70.95
716.417	71.26
716.601	71.05
716.785	71.43
716.968	71.51
717.152	71.95
717.336	71.81
717.52	72.28
717.704	72.57
717.888	72.18
718.071	72.05
718.255	72.13
718.439	71.58
718.622	71.65
718.806	72.43
718.99	72.49
719.174	72.57
719.357	73.07
719.541	73.52
719.724	73.86
719.908	74.1
720.092	74.46
720.275	74.7
720.459	74.48
720.642	74.84
720.826	75.18
721.009	75.64
721.193	75.99
721.376	76.1
721.559	76.04
721.743	76.25
721.926	76.42
722.11	76.17
722.293	76.48
722.476	76.28
722.66	76
722.843	75.7
723.026	76.29
723.21	76.45
723.393	76.63
723.576	76.7
723.759	76.96
723.942	76.64
724.126	76.59
724.309	77.18
724.492	77.22
724.675	77.45
724.858	77.8
725.041	78.01
725.224	78.29
725.407	78.49
725.59	79.01
725.774	79.47
725.957	79.59
726.14	79.46
726.322	79.48
726.505	79.44
726.688	79.4
726.871	80.32
727.054	80.68
727.237	81.13
727.42	80.52
727.603	80.69
727.786	79.94
727.968	79.47
728.151	80.1
728.334	80.85
728.517	81.26
728.699	82.7
728.882	82.67
729.065	82.27
729.248	82.51
729.43	81.83
729.613	81.21
729.796	82.34
729.978	83.55
730.161	83.74
730.343	83.99
730.526	84.05
730.708	83.95
730.891	83.55
731.073	82.99
731.256	83.17
731.438	83.1
731.621	83.63
731.803	83.79
731.986	84.15
732.168	84.64
732.35	85.17
732.533	84.78
732.715	84.11
732.898	83.76
733.08	83.95
733.262	84.23
733.444	83.92
733.627	84.32
733.809	84.68
733.991	85.45
734.173	86.31
734.355	87.05
734.538	87.6
734.72	88.25
734.902	88.03
735.084	86.98
735.266	86.84
735.448	86.39
735.63	86.96
735.812	86.93
735.994	86.85
736.176	86.62
736.358	86.35
736.54	85.98
736.722	86.45
736.904	87.26
737.086	88.07
737.268	89.86
737.45	90.77
737.632	90.05
737.814	90.04
737.995	90.66
738.177	89.68
738.359	89.06
738.541	90.53
738.723	91.06
738.904	89.98
739.086	90.78
739.268	90.97
739.449	89.77
739.631	89.35
739.813	89.73
739.994	89.52
740.176	89.49
740.358	91.41
740.539	91.16
740.721	91.67
740.902	91.75
741.084	92.01
741.265	91.17
741.447	92.15
741.628	93.48
741.81	92.78
741.991	93.26
742.172	93.01
742.354	91.79
742.535	90.16
742.717	90.74
742.898	90.27
743.079	91.03
743.261	92.72
743.442	94.56
743.623	95.41
743.804	95.96
743.986	95.84
744.167	94.19
744.348	92.06
744.529	91.85
744.71	92.1
744.891	91.26
745.073	93.13
745.254	94.54
745.435	93.97
745.616	93.68
745.797	94.62
745.978	94.36
746.159	94.35
746.34	93.68
746.521	94.46
746.702	93.3
746.883	91.98
747.064	90.93
747.245	92.55
747.426	92.47
747.606	92.13
747.787	93.12
747.968	93.91
748.149	93.31
748.33	92.6
748.51	93.36
748.691	93.08
748.872	92.83
749.053	92.3
749.233	92.73
749.414	91.65
749.595	92.06
749.775	93.3
749.956	94.92
750.137	94.99
750.317	97.24
750.498	97.06
750.678	95.68
750.859	93.74
751.04	94.21
751.22	93.68
751.4	95.3
751.581	95.27
751.761	96.91
751.942	97.4
752.122	96.41
752.303	93.63
752.483	94.89
752.663	94.02
752.844	92.93
753.024	94.05
753.204	94.89
753.385	92.86
753.565	94.06
753.745	94.92
753.925	95.5
754.106	96.23
754.286	97.17
754.466	96.79
754.646	96.58
754.826	95.67
755.006	94.91
755.187	94.98
755.367	94.36
755.547	94.42
755.727	94.92
755.907	93.69
756.087	94.03
756.267	92.66
756.447	92.01
756.627	89.95
756.807	89.43
756.987	89.59
757.167	91.28
757.346	91.9
757.526	94.16
757.706	96.01
757.886	95.56
758.066	96.95
758.246	96.84
758.425	95.84
758.605	95.52
758.785	97.05
758.965	96.62
759.144	95.47
759.324	95.43
759.504	96.7
759.683	96.1
759.863	95.93
760.043	96.24
760.222	95.11
760.402	93.55
760.581	94.12
760.761	93.49
760.94	92.88
761.12	97.21
761.299	96.31
761.479	95.69
761.658	95.38
761.838	95.68
762.017	93.46
762.197	95.12
762.376	95.02
762.555	95.03
762.735	95.57
762.914	96.11
763.093	96.98
763.273	95.62
763.452	95.45
763.631	95.66
763.81	95.03
763.99	94.74
764.169	94.68
764.348	95.1
764.527	93.4
764.706	92.41
764.885	91.68
765.064	92.64
765.243	91.6
765.423	92.69
765.602	92.8
765.781	93.55
765.96	91.5
766.139	91.27
766.318	90.74
766.497	91.39
766.676	89.38
766.854	92.31
767.033	93.96
767.212	94.89
767.391	95.34
767.57	96.68
767.749	96.24
767.928	97.07
768.106	95.27
768.285	92.8
768.464	91.42
768.643	89.01
768.821	87.63
769	88.9
769.179	89.9
769.357	90.44
769.536	94.14
769.715	93.59
769.893	94.25
770.072	92.92
770.25	92.25
770.429	90.2
770.607	89.43
770.786	88.12
770.964	88.83
771.143	90.26
771.321	88.49
771.5	89.07
771.678	89.84
771.857	91.31
772.035	90.76
772.213	91.48
772.392	91
772.57	92.78
772.748	91.31
772.927	92.98
773.105	94.37
773.283	94.88
773.461	92.84
773.64	91.9
773.818	89.62
773.996	88.89
774.174	89.24
774.352	90.52
774.531	91.28
774.709	91.45
774.887	90.67
775.065	90.64
775.243	88.48
775.421	89.13
775.599	88.98
775.777	88.93
775.955	87.26
776.133	85.74
776.311	86.12
776.489	87.43
776.667	88.27
776.844	91.04
777.022	94.39
777.2	92.65
777.378	88.86
777.556	88.74
777.734	88.16
777.911	87.79
778.089	87.79
778.267	89.19
778.445	85.3
778.622	84.92
778.8	84.93
778.978	86.29
779.155	84.73
779.333	88.18
779.511	86.5
779.688	86.39
779.866	86.05
780.043	85.79
780.221	82.31
780.398	82.24
780.576	80.17
780.753	80.89
780.931	83.48
781.108	88.04
781.286	91.83
781.463	94.87
781.64	93.93
781.818	98.85
781.995	97.05
782.172	94.34
782.35	90.93
782.527	91.89
782.704	85.8
782.882	85.91
783.059	83.27
783.236	81.03
783.413	79.38
783.59	80.67
783.768	78.66
783.945	78.8
784.122	83.22
784.299	80.08
784.476	80.77
784.653	82.88
784.83	85.34
785.007	82.46
785.184	85.76
785.361	88.42
785.538	88.51
785.715	87.6
785.892	90.83
786.069	89.48
786.246	86.3
786.423	88.67
786.6	88.12
786.776	88.51
786.953	90.81
787.13	92.29
787.307	87.26
787.484	87.87
787.66	87.2
787.837	89.65
788.014	93.12
788.191	94.29
788.367	98.91
788.544	97.49
788.721	95.88
788.897	91.11
789.074	89.92
789.25	83.95
789.427	83.32
789.603	79
789.78	79.86
789.956	89.04
790.133	92.02
790.309	91.35
790.486	92.29
790.662	90.65
790.839	79.82
791.015	76.4
791.192	81.33
791.368	86.38
791.544	86.08
791.721	90.77
791.897	94.16
792.073	92.03
792.249	85.54
792.426	88.46
792.602	91.27
792.778	87.38
792.954	82.12
793.13	83.84
793.307	83.13
793.483	79.31
793.659	82.3
793.835	86.57
794.011	87.07
794.187	82.76
794.363	84.17
794.539	83.5
794.715	81.9
794.891	81.13
795.067	82.91
795.243	83.05
795.419	81.25
795.595	78.52
795.771	80.88
795.947	79.88
796.122	81.02
796.298	82.55
796.474	82.18
796.65	79.9
796.826	81.13
797.001	75.93
797.177	80.25
797.353	80.95
797.529	80.81
797.704	82.45
797.88	88.18
798.056	85.29
798.231	87.35
798.407	88.64
798.582	87.3
798.758	86.96
798.934	82.43
799.109	85.52
799.285	87.61
799.46	86.32
799.636	86.46
799.811	85.5
799.986	78.13
800.162	84.03
800.337	83.86
800.513	79.34
800.688	80.04
800.863	92
801.039	81.91
801.214	84.68
801.389	86.3
801.565	87.14
801.74	78.57
801.915	80.77
802.09	79.27
802.265	76.99
802.441	80.75
802.616	81.48
802.791	79.89
802.966	86.36
803.141	89.29
803.316	87.7
803.491	89.22
803.666	88.46
803.841	73.95
804.016	73.86
804.191	73.7
804.366	78.63
804.541	75.05
804.716	83.81
804.891	70.22
805.066	69.43
805.241	61.65
805.416	62.57
805.591	66.15
805.765	80.36
805.94	73.37
806.115	72.67
806.29	77.26
806.464	73.05
806.639	69
806.814	72.99
806.989	69.9
807.163	66.26
807.338	63.4
807.512	65.59
807.687	64.57
807.862	66.31
808.036	69.44
808.211	66.39
808.385	61.45
808.56	62.33
808.734	62.81
808.909	64.11
809.083	66.88
809.258	65.08
809.432	65.17
809.606	66.23
809.781	62.94
809.955	66.78
810.13	72.5
810.304	74.07
810.478	70.27
810.652	81.02
810.827	82.97
811.001	86.68
811.175	92.14
811.349	93.53
811.524	74.73
811.698	71.11
811.872	73.03
812.046	66.91
812.22	74.97
812.394	75.97
812.568	78.24
812.742	73.14
812.916	83.22
813.09	76.01
813.264	88.23
813.438	86.09
813.612	83.87
813.786	77.26
813.96	79.82
814.134	73.83
814.308	78.47
814.482	76.36
814.656	78.93
814.83	84.99
815.003	84.12
815.177	71.63
815.351	82.36
815.525	78.25
815.698	74.99
815.872	71.07
816.046	83.51
816.219	74.7
816.393	80.97
816.567	81.25
816.74	88.32
816.914	69.67
817.088	82.1
817.261	72.22
817.435	70.23
817.608	70.25
817.782	71.48
817.955	67.94
818.129	67.95
818.302	64.31
818.475	63.95
818.649	65.85
818.822	63.78
818.996	75.71
819.169	69.34
819.342	59.76
819.516	68.88
819.689	60.39
819.862	47.63
820.035	50.33
820.209	65.19
820.382	59.6
820.555	73.48
820.728	96.2
820.901	111.13
821.075	96.12
821.248	88.5
821.421	79.75
821.594	79.12
821.767	80.23
821.94	81.49
822.113	90.41
822.286	88.13
822.459	68.51
822.632	60.73
822.805	69.28
822.978	64.46
823.151	71.74
823.324	90.32
823.496	97.06
823.669	90.76
823.842	80.65
824.015	82.61
824.188	75.43
824.361	70.93
824.533	58.22
824.706	72.29
824.879	66.79
825.051	60.59
825.224	51.67
825.397	59.81
825.569	58.59
825.742	57.8
825.915	60.68
826.087	74.52
826.26	71.21
826.432	63.44
826.605	73.68
826.777	72.87
826.95	70.9
827.122	74.46
827.295	82.09
827.467	73.75
827.64	75.06
827.812	70.75
827.984	92.28
828.157	66.64
828.329	73.88
828.501	75.86
828.674	84.12
828.846	54.14
829.018	68.69
829.19	68.13
829.363	62.17
829.535	53.71
829.707	75.47
829.879	75.34
830.051	55.61
830.223	50.41
830.395	45.75
830.568	48.49
830.74	46.58
830.912	72.26
831.084	111.86
831.256	115.61
831.428	105.96
831.6	102.15
831.772	75.79
831.943	52.57
832.115	71.74
832.287	66.75
832.459	75.92
832.631	84.93
832.803	69.9
832.975	63.45
833.146	65.76
833.318	46.68
833.49	58.43
833.662	73.27
833.833	83.34
834.005	71.54
834.177	92.47
834.348	76.27
834.52	74.99
834.692	63.88
834.863	64.59
835.035	61.15
835.206	47.17
835.378	48.8
835.549	56.31
835.721	63.04
835.892	43.35
836.064	44.94
836.235	53.11
836.407	40.4
836.578	37.6
836.749	65.2
836.921	63.39
837.092	51.7
837.264	62.67
837.435	80.81
837.606	75.58
837.777	89.23
837.949	82.44
838.12	79.76
838.291	66.55
838.462	68.98
838.633	73.4
838.805	87.43
838.976	84.11
839.147	76.06
839.318	78.34
839.489	81.55
839.66	73.33
839.831	77.06
840.002	83.61
840.173	69.67
840.344	49.58
840.515	40.6
840.686	37.27
840.857	40.39
841.028	43.82
841.199	51.74
841.369	52.56
841.54	42.06
841.711	33.1
841.882	21.89
842.053	33.04
842.223	42.49
842.394	55.05
842.565	44.64
842.736	57.92
842.906	39.74
843.077	50.2
843.248	48.24
843.418	68.32
843.589	70.94
843.759	70.39
843.93	67.87
844.101	74.77
844.271	75.63
844.442	72.73
844.612	70.46
844.783	72.69
844.953	66.35
845.123	70.23
845.294	69.52
845.464	66.81
845.635	38.97
845.805	52.51
845.975	50.02
846.146	39.41
846.316	48.98
846.486	65.73
846.656	68.78
846.827	76.65
846.997	74.06
847.167	88.35
847.337	67.4
847.507	67.33
847.677	65.23
847.848	100.88
848.018	110.89
848.188	120.61
848.358	117.86
848.528	77.53
848.698	71.01
848.868	62.54
849.038	64.16
849.208	68.45
849.378	100.05
849.548	99.8
849.718	85.37
849.887	91.66
850.057	86.15
850.227	115.56
850.397	97.3
850.567	79.61
850.737	57.25
850.906	42.74
851.076	31.29
851.246	27.14
851.415	46.72
851.585	43.05
851.755	49.49
851.924	75.17
852.094	68.68
852.264	61.34
852.433	88.74
852.603	73.33
852.772	56.42
852.942	51.61
853.111	42.6
853.281	40.79
853.45	34.48
853.62	15.53
853.789	10.56
853.959	5.32
854.128	-3.41
854.297	17.87
854.467	34.18
854.636	52.81
854.805	81.96
854.975	100.64
855.144	178.36
855.313	89.82
855.482	56.9
855.652	41.77
855.821	67.86
855.99	79.5
856.159	124.76
856.328	147.72
856.497	170.52
856.667	105.33
856.836	117.09
857.005	72.85
857.174	-46.28
857.343	-122.82
857.512	-172.2
857.681	-18.28
857.85	15.21
858.019	44.44
858.188	54.43
858.356	73.76
858.525	84.37
858.694	81.58
858.863	114.29
859.032	143.19
859.201	63.21
859.369	46.17
859.538	6.35
859.707	13.64
859.876	23.63
860.044	27.47
860.213	49.63
860.382	59.25
860.55	100.83
860.719	89.06
860.888	57
861.056	32.59
861.225	18.37
861.393	13.24
861.562	15.9
861.73	45.54
861.899	52.4
862.067	58.62
862.236	79.5
862.404	71.39
862.572	68.38
862.741	82.54
862.909	101.08
863.078	62.51
863.246	58.08
863.414	54.28
863.582	48.28
863.751	47.98
863.919	40.9
864.087	45.43
864.255	27.82
864.424	8.54
864.592	4.78
864.76	13.47
864.928	-1.56
865.096	14.25
865.264	10.34
865.432	1.46
865.6	14.81
865.768	15.01
865.936	11.77
866.104	6.67
866.272	32
866.44	19.43
866.608	15.69
866.776	40.32
866.944	17.2
867.112	21.65
867.28	-71.68
867.448	-28.49
867.615	-35.35
867.783	69.67
867.951	14.63
868.119	35.83
868.286	24.84
868.454	4.98
868.622	16.83
868.789	-16.23
868.957	25.5
869.125	26.67
869.292	8.1
869.46	2.38
869.627	19.6
869.795	3.13
869.963	7.18
870.13	6.4
870.298	-13.68
870.465	-32.92
870.632	16.44
870.8	7.72
870.967	-20.18
871.135	-22.81
871.302	-67.97
871.469	807.08
871.637	-132.15
871.804	16.29
871.971	35.85
872.139	59.3
872.306	63.81
872.473	61.83
872.64	47.92
872.807	66.54
872.975	55.7
873.142	75.09
873.309	17.39
873.476	434.53
873.643	106.26
873.81	55.45
873.977	35.12
874.144	54.51
874.311	29.2
874.478	23.93
874.645	44.07
874.812	44.01
874.979	30.88
875.146	29.02
875.313	-18.1
875.48	-436.36
875.647	753.98
875.813	-1168
875.98	3151.52
876.147	-506.29
876.314	-19.37
876.481	-66.5
876.647	49.3
876.814	20.37
876.981	63.2
877.147	90.18
877.314	84.17
877.481	96.95
877.647	137
877.814	109.74
877.98	81.46
878.147	90.67
878.314	-0.87
878.48	45.8
878.647	22.46
878.813	-0
878.979	111.58
879.146	139.28
879.312	81.26
879.479	62.18
879.645	78.07
879.811	43.89
879.978	42.85
880.144	49.18
880.31	54.98
880.477	27.85
880.643	58.88
880.809	56.65
880.975	-1418.18
881.142	435.4
881.308	816
881.474	-103.7
881.64	-55.59
881.806	17.15
881.972	51.38
882.138	52.09
882.304	59.1
882.47	29.53
882.636	-16.39
882.802	28.62
882.968	189.8
883.134	93.23
883.3	95.55
883.466	126.84
883.632	161.92
883.798	104.78
883.964	103.65
884.129	105.82
884.295	88.38
884.461	35.97
884.627	30.74
884.793	63.95
884.958	108.96
885.124	75.62
885.29	74.52
885.455	49.09
885.621	-31.37
885.787	-105.37
885.952	230.14
886.118	308.13
886.283	-1178.95
886.449	33.42
886.614	29.09
886.78	42.84
886.945	60.22
887.111	13.23
887.276	25.69
887.442	38.76
887.607	43.86
887.773	58.27
887.938	72.97
888.103	90.63
888.269	22.33
888.434	20.65
888.599	-2.23
888.764	22.59
888.93	2.33
889.095	93.51
889.26	103.93
889.425	177.78
889.59	-301.45
889.756	219.85
889.921	24.24
890.086	22.27
890.251	-0
890.416	23.24
890.581	-11.35
890.746	49.39
890.911	51.84
891.076	35.92
891.241	26.52
891.406	51.93
891.571	1.76
891.736	66.75
891.901	76.68
892.065	102.75
892.23	210.38
892.395	137.72
892.56	193.51
892.725	304.07
892.889	185.73
893.054	64.76
893.219	6.83
893.384	-8.84
893.548	-380.23
893.713	1081.48
893.878	194.08
