Data from Ofav_PS_Phys_CX_Reflection_2.txt Node
Date: Thu Jul 29 18:20:54 EDT 2021
User: USUARIO
Spectrometer: FLMT01687
Trigger mode: 0
Integration Time (sec): 9.010000E-1
Scans to average: 2
Electric dark correction enabled: true
Nonlinearity correction enabled: false
Boxcar width: 2
XAxis mode: Wavelengths
Number of Pixels in Spectrum: 3648
>>>>>Begin Spectral Data<<<<<
179.494	248.25
179.716	281.98
179.937	211.39
180.158	-1022.6
180.38	-48.58
180.601	-601.05
180.823	-200.41
181.044	-86.96
181.265	-63.36
181.486	-724.29
181.708	117.49
181.929	263.04
182.15	7838.1
182.372	-87.69
182.593	-34.12
182.814	46.54
183.035	151.89
183.257	31.11
183.478	15.81
183.699	33.79
183.92	48.35
184.141	52.76
184.363	12.17
184.584	8.83
184.805	16.26
185.026	19.57
185.247	0.68
185.468	10.36
185.689	20.96
185.91	13.81
186.132	3.53
186.353	11.24
186.574	44.11
186.795	34.66
187.016	17.86
187.237	1.33
187.458	-9.2
187.679	-31.78
187.9	-11.32
188.121	-36.09
188.342	-12.44
188.563	15.26
188.784	25.13
189.005	14.11
189.226	27.98
189.447	19.15
189.667	17.73
189.888	2.99
190.109	-7.37
190.33	-99.35
190.551	-57.01
190.772	-42.99
190.993	-25.75
191.214	-15.77
191.434	5.72
191.655	14.43
191.876	-1.37
192.097	-42.44
192.318	-5.47
192.538	-11.07
192.759	5.81
192.98	20.63
193.201	20.38
193.421	-13.79
193.642	-29.21
193.863	-47.86
194.083	-94.39
194.304	-59.79
194.525	-25.17
194.745	-21.26
194.966	-27.1
195.187	-40.8
195.407	-77.14
195.628	-159.37
195.848	-115.54
196.069	-85.1
196.29	-39.98
196.51	-13.65
196.731	14.56
196.951	13.97
197.172	-10.4
197.392	0.72
197.613	-2.26
197.833	1.82
198.054	8.25
198.274	16.04
198.495	33.74
198.715	8.91
198.936	1.71
199.156	-11.85
199.377	-8.93
199.597	-59.84
199.817	-23.59
200.038	-17.74
200.258	-34.58
200.479	-100.45
200.699	-110.92
200.919	-34.58
201.14	-44.55
201.36	1.15
201.58	30.44
201.801	35.33
202.021	31.09
202.241	37.21
202.461	16.77
202.682	-27.64
202.902	13.16
203.122	-14.01
203.342	21.93
203.563	28.35
203.783	32.01
204.003	-4.43
204.223	-39.1
204.443	-43.93
204.663	-38.83
204.884	-2.63
205.104	-5.42
205.324	26.4
205.544	20.98
205.764	16.45
205.984	22.92
206.204	32.67
206.424	29.99
206.644	15.82
206.864	12.17
207.084	-25.19
207.304	-0.76
207.525	-44.22
207.745	-12.99
207.964	12.15
208.184	31.15
208.404	-22.89
208.624	5.07
208.844	-10.73
209.064	2.76
209.284	-9.67
209.504	7.53
209.724	31.61
209.944	55.97
210.164	43.51
210.384	44.99
210.604	38.68
210.823	27.64
211.043	4.95
211.263	37.67
211.483	23.04
211.703	23.02
211.922	-0.42
212.142	28.18
212.362	-14.74
212.582	3.74
212.801	6.33
213.021	-2.26
213.241	-34.25
213.461	-49.37
213.68	-84.65
213.9	-94.29
214.12	-75.3
214.339	-109.33
214.559	-90.84
214.779	-62.74
214.998	-62.63
215.218	-58.45
215.438	-0.88
215.657	-15.35
215.877	-9.19
216.096	-15.81
216.316	-42.09
216.535	-79.12
216.755	-83.86
216.974	-81.46
217.194	-78.89
217.413	-39.53
217.633	9.45
217.852	-5.82
218.072	-15.95
218.291	1.77
218.511	35.17
218.73	0.19
218.95	5.79
219.169	16.9
219.389	12.04
219.608	-18.1
219.827	-17.92
220.047	-13.27
220.266	-33.55
220.485	-27.61
220.705	-13.32
220.924	-30.78
221.143	-35.41
221.363	-57.05
221.582	-71.55
221.801	-208.98
222.021	-155.35
222.24	-106.57
222.459	-66.2
222.678	-28.14
222.897	-24.05
223.117	-2.14
223.336	-10.88
223.555	-28.16
223.774	-51.69
223.993	-20.47
224.213	-0.43
224.432	28.01
224.651	47.68
224.87	38.96
225.089	36.87
225.308	32.06
225.527	18.15
225.746	-13.69
225.965	-20.37
226.184	-43.02
226.404	-80.56
226.623	-38.07
226.842	-15.9
227.061	-30.98
227.28	-28.8
227.499	-18.11
227.718	-57.27
227.936	-101.48
228.155	-59.53
228.374	-62.24
228.593	-61.95
228.812	-53.57
229.031	-32
229.25	-8.47
229.469	6.09
229.688	13.52
229.907	26.02
230.125	15.96
230.344	-1.41
230.563	-16.64
230.782	-12.3
231.001	-54.82
231.22	-33.11
231.438	-17.77
231.657	4.88
231.876	1.67
232.095	15.28
232.313	8.78
232.532	0.64
232.751	-19.24
232.969	-13.1
233.188	-26.06
233.407	-40.9
233.625	-16.76
233.844	-21.29
234.063	-22.19
234.281	-51.35
234.5	-70.4
234.719	-52.84
234.937	-59.09
235.156	-97.89
235.374	-19.31
235.593	2.7
235.811	-44.89
236.03	-31.79
236.249	0.17
236.467	-9.93
236.686	-11.96
236.904	-4.76
237.123	-0.14
237.341	-34.96
237.559	-34.93
237.778	-20.58
237.996	-10.73
238.215	-9.1
238.433	10.27
238.652	20.77
238.87	13.09
239.088	20
239.307	10.49
239.525	2.74
239.743	4.05
239.962	0.69
240.18	4.46
240.398	9.37
240.617	-8.5
240.835	-22.33
241.053	-38.82
241.271	-51.4
241.49	-62.61
241.708	-40.91
241.926	-64.01
242.144	-40.54
242.363	-34.13
242.581	-34.6
242.799	-21.61
243.017	-9.74
243.235	-5.59
243.453	0.03
243.672	9.09
243.89	-4.69
244.108	9.15
244.326	-14.57
244.544	-33.86
244.762	-40.46
244.98	-45.09
245.198	-57.14
245.416	-49.78
245.634	-49.85
245.852	-47
246.07	-7.75
246.288	-0.76
246.506	11.9
246.724	3.8
246.942	11.35
247.16	6.77
247.378	-1.67
247.596	-12.76
247.814	2.69
248.032	-0.47
248.25	-5.99
248.468	-1.37
248.685	12.09
248.903	23.33
249.121	27.14
249.339	19.62
249.557	38.73
249.775	44.64
249.992	8.54
250.21	-6.14
250.428	20.62
250.646	-3.78
250.863	-16.07
251.081	-19.71
251.299	0.52
251.517	-17.82
251.734	-3.24
251.952	-17.48
252.17	14.14
252.387	-3.17
252.605	-6.16
252.823	-30.95
253.04	9.73
253.258	-2.99
253.475	-1.81
253.693	3.29
253.911	12.23
254.128	-3.1
254.346	-15.8
254.563	-14.05
254.781	-37.29
254.998	-18.35
255.216	-51.56
255.433	-8.72
255.651	-12.29
255.868	-18.1
256.086	-15.53
256.303	4.18
256.521	-10.46
256.738	-18.78
256.956	-2.74
257.173	-4.47
257.39	2.15
257.608	17.54
257.825	42.78
258.043	50.65
258.26	38.2
258.477	17.08
258.695	0.57
258.912	-21.64
259.129	-46.23
259.346	-35.32
259.564	-60.93
259.781	-44.1
259.998	-18.05
260.216	-1.47
260.433	16.39
260.65	12.45
260.867	9.18
261.084	7.03
261.302	-12.41
261.519	-36.11
261.736	-18.21
261.953	-18.26
262.17	-11.94
262.387	-12.39
262.604	-23.4
262.822	-24.23
263.039	-10.39
263.256	-30.28
263.473	-6.74
263.69	-10.85
263.907	0.57
264.124	-10.41
264.341	22.4
264.558	9.29
264.775	-0.37
264.992	12.24
265.209	6.76
265.426	-6.47
265.643	-2.07
265.86	12.61
266.077	6.96
266.294	13.42
266.51	3.46
266.727	14.51
266.944	13.26
267.161	5.6
267.378	9.93
267.595	24.45
267.812	-8.03
268.028	-33.1
268.245	-33.82
268.462	-60
268.679	-64.9
268.896	-30.92
269.112	-8.27
269.329	-4.42
269.546	1.83
269.763	-0.58
269.979	0.17
270.196	0.5
270.413	-5.38
270.629	-6.05
270.846	4.02
271.063	-7.14
271.279	-16.41
271.496	-27.93
271.712	-28.01
271.929	-15.79
272.146	-3.97
272.362	-0.38
272.579	35.39
272.795	60.58
273.012	42.29
273.228	35.09
273.445	39.91
273.661	21.79
273.878	-6.51
274.094	14.52
274.311	-1.23
274.527	-2.56
274.744	14.82
274.96	33.52
275.177	11.29
275.393	16.32
275.609	3.75
275.826	-12.52
276.042	-21.71
276.259	-25.25
276.475	-25.84
276.691	15.14
276.908	8.7
277.124	-2.23
277.34	1.85
277.557	-11.26
277.773	-45.6
277.989	-31.1
278.205	-6.76
278.422	-9.59
278.638	1.21
278.854	23.4
279.07	26.99
279.286	3.9
279.503	20.41
279.719	17.83
279.935	3.63
280.151	-27
280.367	-21.43
280.583	-23.54
280.799	-26.26
281.016	-5.95
281.232	4.05
281.448	9.41
281.664	20.68
281.88	-1.89
282.096	-0.29
282.312	-5.02
282.528	-10.19
282.744	-16
282.96	6.56
283.176	-17.24
283.392	-5.21
283.608	2.37
283.824	-21.74
284.04	-39.52
284.256	-15.59
284.471	-29.02
284.687	-16.84
284.903	11.31
285.119	48.97
285.335	6.08
285.551	10.8
285.767	7.66
285.982	-0.66
286.198	-13.77
286.414	0.29
286.63	6.97
286.846	3.52
287.061	-3.53
287.277	13.24
287.493	6.84
287.709	-8.34
287.924	1.87
288.14	17.7
288.356	11.73
288.571	18.06
288.787	19.95
289.003	16.33
289.218	-6.59
289.434	-9.68
289.65	-6.07
289.865	-3.42
290.081	-11.56
290.296	-9.27
290.512	-17.1
290.727	-20.54
290.943	-14.56
291.159	-6.82
291.374	9.96
291.59	15.18
291.805	5.11
292.021	-0.62
292.236	2.14
292.451	-24.6
292.667	-35.03
292.882	-31.04
293.098	-20.66
293.313	-35.65
293.529	-8.84
293.744	-10.89
293.959	-9.03
294.175	2.48
294.39	18.16
294.605	18.95
294.821	29.91
295.036	31.43
295.251	12.12
295.467	-18.27
295.682	-19.13
295.897	-29.96
296.112	-37.94
296.328	-22.64
296.543	-20.66
296.758	-26
296.973	-27.69
297.188	-21.35
297.404	-40.88
297.619	-30.72
297.834	-21.38
298.049	-22.39
298.264	-18.55
298.479	6.5
298.694	8.55
298.909	3.15
299.125	-5.55
299.34	-3
299.555	-24
299.77	-32.68
299.985	-58.49
300.2	-25.79
300.415	-32.71
300.63	-15.55
300.845	-26.88
301.06	-23.29
301.275	-35.69
301.49	-28.47
301.704	-76.5
301.919	-30.94
302.134	-9.05
302.349	-15.65
302.564	-7.45
302.779	-2.29
302.994	-4.74
303.209	-22.55
303.423	-3.35
303.638	-21.1
303.853	-17.51
304.068	-2.29
304.283	4.41
304.497	5.01
304.712	-18.05
304.927	-11.85
305.142	-40.9
305.356	-56.13
305.571	-49.32
305.786	-19.67
306	-33.85
306.215	-10.91
306.43	-0.64
306.644	-19.45
306.859	-2.87
307.074	4.9
307.288	-4.66
307.503	-1.39
307.717	-0.46
307.932	-15.18
308.147	-16.92
308.361	-22.71
308.576	-17.15
308.79	-32.3
309.005	8.72
309.219	4.34
309.434	8.35
309.648	8.54
309.863	22.38
310.077	4.1
310.292	-8.29
310.506	-18.34
310.72	-23.03
310.935	-29.78
311.149	-17.19
311.364	-8.69
311.578	-14.11
311.792	-43.54
312.007	-48.02
312.221	-76.38
312.435	-46.11
312.649	-44.15
312.864	-42.17
313.078	-34.61
313.292	-21.18
313.507	-2.52
313.721	15.52
313.935	-3.4
314.149	3.99
314.363	-4.59
314.578	-13.55
314.792	-10.06
315.006	5.97
315.22	-2.47
315.434	12.51
315.648	17.45
315.862	8.95
316.077	3.65
316.291	-6.36
316.505	11.61
316.719	6.59
316.933	2.94
317.147	-12.64
317.361	-10.84
317.575	-27.74
317.789	-43.7
318.003	-14.72
318.217	10.19
318.431	11.47
318.645	-1.75
318.859	8.85
319.073	-20.17
319.287	-47.46
319.5	-42.65
319.714	-22.95
319.928	-33.63
320.142	-0.42
320.356	19.18
320.57	12.17
320.784	4.35
320.997	3.72
321.211	-4.54
321.425	-7.08
321.639	-10.4
321.853	-9.74
322.066	-13.35
322.28	-11.99
322.494	-13.14
322.707	8.1
322.921	2.13
323.135	-1.99
323.349	-15.71
323.562	-38.76
323.776	-41.59
323.989	-30.78
324.203	-21.35
324.417	-22.3
324.63	-12.35
324.844	-15.45
325.057	-6
325.271	-8.49
325.485	-4.93
325.698	0.85
325.912	-8.36
326.125	-17.43
326.339	-27.99
326.552	-22.79
326.766	-9.79
326.979	-4.13
327.193	-0.63
327.406	10.49
327.619	8.39
327.833	-10.65
328.046	-3.23
328.26	-2.3
328.473	-4.2
328.686	-11.43
328.9	-2.28
329.113	-19.81
329.326	-33.89
329.54	-50.67
329.753	-28.35
329.966	-7.22
330.179	-5.98
330.393	3.58
330.606	13.38
330.819	17.22
331.032	2.37
331.246	5.9
331.459	-10.42
331.672	-19.33
331.885	-10.99
332.098	1
332.311	22.42
332.525	22.07
332.738	15.79
332.951	2.27
333.164	-3.66
333.377	-28.97
333.59	-5.89
333.803	11.63
334.016	7.13
334.229	19.41
334.442	30.07
334.655	24.14
334.868	23.64
335.081	39.91
335.294	24.93
335.507	19.62
335.72	25.9
335.933	10.38
336.146	-4.77
336.359	-5.98
336.572	-12.9
336.785	-17.09
336.997	-6.45
337.21	5.51
337.423	8.61
337.636	11.61
337.849	-0.53
338.062	-11.65
338.274	-36.26
338.487	-38.11
338.7	-74.55
338.913	-40.46
339.125	-12.27
339.338	1.78
339.551	-5.54
339.763	9.33
339.976	-12.15
340.189	-15.35
340.402	-25.29
340.614	-20.45
340.827	-25.27
341.039	-8.99
341.252	-21.26
341.465	-20.7
341.677	0.16
341.89	-2.85
342.102	-1.03
342.315	3.04
342.527	13.88
342.74	7.89
342.952	8.38
343.165	6.43
343.377	-5.03
343.59	-22.63
343.802	-5.43
344.015	8.23
344.227	0.02
344.44	9
344.652	20.04
344.864	26.09
345.077	12.54
345.289	8.3
345.502	21.51
345.714	8.72
345.926	-1.23
346.139	-23.87
346.351	-26.8
346.563	-36.57
346.775	-25.22
346.988	-48.1
347.2	-29.6
347.412	-25.73
347.624	-13.1
347.837	-29.09
348.049	-19.79
348.261	-19.75
348.473	-4.84
348.685	-9.4
348.897	1.25
349.11	6.62
349.322	10.57
349.534	13
349.746	13
349.958	4.84
350.17	-1.42
350.382	1.8
350.594	-6.45
350.806	2.01
351.018	10.92
351.23	12.15
351.442	0.41
351.654	24.45
351.866	16.12
352.078	24.6
352.29	20.38
352.502	25.6
352.714	8.11
352.926	8.48
353.138	-8.13
353.35	0.04
353.561	-8.88
353.773	1.39
353.985	6.35
354.197	9.95
354.409	13.88
354.621	4.22
354.832	-13.64
355.044	-18.12
355.256	-17.87
355.468	-25.35
355.679	-7.13
355.891	10.99
356.103	22.85
356.314	22.5
356.526	19.45
356.738	22.37
356.949	18.49
357.161	18.46
357.373	19.36
357.584	15.15
357.796	13.79
358.008	0.38
358.219	-14.97
358.431	-18.39
358.642	-31.58
358.854	-37.74
359.065	-24.41
359.277	-20.21
359.488	-12.5
359.7	13.48
359.911	21.72
360.123	23.83
360.334	16.71
360.546	8.96
360.757	-7.84
360.969	-28.56
361.18	-9.87
361.391	0.03
361.603	-4.26
361.814	20.94
362.025	28.57
362.237	26.4
362.448	21.53
362.659	20.88
362.871	13.85
363.082	9.4
363.293	4.49
363.504	14.12
363.716	7.11
363.927	-2.69
364.138	-18.28
364.349	-15.8
364.56	-21.03
364.772	-17.63
364.983	-19.06
365.194	-9.98
365.405	-12.78
365.616	-22.36
365.827	-17.02
366.038	-20.13
366.25	-40.9
366.461	-48.75
366.672	-44.93
366.883	-31.41
367.094	-26.77
367.305	8.79
367.516	17.87
367.727	14.87
367.938	7.02
368.149	1.29
368.36	-4.18
368.571	-4.99
368.781	-22.22
368.992	-34.8
369.203	-27.36
369.414	-29.87
369.625	-27.99
369.836	-8.97
370.047	-6.75
370.258	2.32
370.468	-6.58
370.679	-26.92
370.89	-53.06
371.101	-42.48
371.312	-61.72
371.522	-41.05
371.733	-19.86
371.944	-15.72
372.155	-6.24
372.365	8.14
372.576	-5.9
372.787	-9.11
372.997	-4.67
373.208	-7.9
373.419	-4.09
373.629	18.64
373.84	32.31
374.05	32.4
374.261	30.24
374.472	13.64
374.682	-18.92
374.893	-24.57
375.103	-17.04
375.314	-15.6
375.524	-14.43
375.735	2.47
375.945	-5.27
376.156	-7.17
376.366	-29.19
376.577	-4.79
376.787	-12.09
376.997	-7.58
377.208	-19.42
377.418	-3.33
377.629	-21.17
377.839	-5.15
378.049	-14.06
378.26	-4.09
378.47	-4.06
378.68	-2.33
378.89	-13.57
379.101	-7.83
379.311	-16.85
379.521	-23.67
379.732	-26.5
379.942	-28.37
380.152	-40.57
380.362	-33
380.572	-29.74
380.783	-24.15
380.993	-26.98
381.203	-4.61
381.413	-6.1
381.623	-1.1
381.833	11.77
382.043	17.75
382.253	3.24
382.463	4.04
382.674	7.64
382.884	-0.6
383.094	-3.38
383.304	1.59
383.514	4.16
383.724	9.85
383.934	3.16
384.144	3.26
384.353	6.82
384.563	9.44
384.773	3.64
384.983	7.18
385.193	8.57
385.403	-0.88
385.613	0.74
385.823	-4.19
386.033	-3.53
386.242	-5.58
386.452	-4.12
386.662	-5.7
386.872	1.27
387.082	-1.57
387.291	-3.7
387.501	1.37
387.711	-0.4
387.921	-4.96
388.13	-4.75
388.34	-2.2
388.55	-4.3
388.759	-4.31
388.969	1.37
389.179	-1.67
389.388	-3.78
389.598	-1.16
389.807	-2.56
390.017	-6.37
390.227	0.79
390.436	2.1
390.646	0.35
390.855	2.97
391.065	2.78
391.274	-0.95
391.484	-0.94
391.693	-2.12
391.903	-2.97
392.112	-1.38
392.322	-1.87
392.531	-2.8
392.74	-2.79
392.95	-2.03
393.159	-1.52
393.369	-0.22
393.578	0.42
393.787	2.13
393.997	1.36
394.206	0.72
394.415	1.73
394.625	2.04
394.834	1
395.043	0.83
395.252	2.48
395.462	2.13
395.671	1.89
395.88	3.74
396.089	4.68
396.298	3.71
396.508	3.14
396.717	2.79
396.926	2.08
397.135	1.61
397.344	1.59
397.553	2.32
397.762	3.04
397.971	3.29
398.181	3.6
398.39	3.42
398.599	2.96
398.808	2.5
399.017	2.82
399.226	2.59
399.435	2.99
399.644	3.65
399.853	4.19
400.062	4.09
400.27	4.43
400.479	4.34
400.688	3.84
400.897	3.57
401.106	3.38
401.315	3.15
401.524	3.43
401.733	3.56
401.941	3.95
402.15	4.21
402.359	4.19
402.568	4.19
402.777	4.27
402.985	4
403.194	3.8
403.403	3.65
403.612	3.33
403.82	3.24
404.029	3.17
404.238	3.07
404.446	3.32
404.655	3.47
404.864	3.44
405.072	3.51
405.281	3.63
405.489	3.38
405.698	3.24
405.906	3.21
406.115	3.14
406.324	3.07
406.532	3.12
406.741	3.24
406.949	3.36
407.158	3.31
407.366	3.17
407.574	3.16
407.783	3.1
407.991	2.91
408.2	2.98
408.408	2.98
408.617	3.15
408.825	3.13
409.033	3.27
409.242	3.32
409.45	3.4
409.658	3.32
409.867	3.29
410.075	3.2
410.283	3.05
410.491	3
410.7	2.97
410.908	3.08
411.116	3.14
411.324	3.13
411.533	3.18
411.741	3.16
411.949	3.13
412.157	3.13
412.365	3.07
412.573	2.94
412.781	2.94
412.99	2.88
413.198	2.86
413.406	2.86
413.614	2.9
413.822	2.92
414.03	2.93
414.238	2.9
414.446	3.11
414.654	3.08
414.862	3.1
415.07	2.88
415.278	3
415.486	2.81
415.694	2.97
415.902	3.07
416.109	3.17
416.317	2.99
416.525	3.11
416.733	3.01
416.941	2.92
417.149	2.9
417.357	2.85
417.564	2.75
417.772	2.67
417.98	2.62
418.188	2.52
418.395	2.48
418.603	2.42
418.811	2.56
419.019	2.54
419.226	2.84
419.434	2.88
419.642	2.92
419.849	2.77
420.057	2.57
420.265	2.32
420.472	2.31
420.68	2.4
420.887	2.43
421.095	2.57
421.302	2.64
421.51	2.56
421.717	2.44
421.925	2.5
422.132	2.55
422.34	2.32
422.547	2.26
422.755	2.45
422.962	2.4
423.17	2.29
423.377	2.51
423.585	2.82
423.792	2.61
423.999	2.62
424.207	2.67
424.414	2.57
424.621	2.51
424.829	2.57
425.036	2.56
425.243	2.6
425.451	2.69
425.658	2.63
425.865	2.54
426.072	2.57
426.28	2.57
426.487	2.54
426.694	2.54
426.901	2.44
427.108	2.32
427.315	2.43
427.523	2.44
427.73	2.38
427.937	2.58
428.144	2.63
428.351	2.51
428.558	2.57
428.765	2.63
428.972	2.69
429.179	2.78
429.386	2.84
429.593	2.8
429.8	2.79
430.007	2.76
430.214	2.91
430.421	3.04
430.628	2.96
430.835	3.08
431.042	3.1
431.249	3.08
431.456	2.86
431.662	3.11
431.869	3.17
432.076	3.21
432.283	3.21
432.49	3.27
432.697	3.16
432.903	2.96
433.11	2.97
433.317	2.86
433.524	2.99
433.73	2.92
433.937	2.96
434.144	2.91
434.35	2.98
434.557	2.96
434.764	2.99
434.97	3.06
435.177	3.31
435.384	3.3
435.59	3.33
435.797	3.42
436.003	3.43
436.21	3.2
436.416	3.17
436.623	3.17
436.829	3.2
437.036	3.28
437.242	3.49
437.449	3.59
437.655	3.67
437.862	3.85
438.068	3.68
438.275	3.71
438.481	3.75
438.687	3.75
438.894	3.73
439.1	3.92
439.307	3.94
439.513	3.96
439.719	3.83
439.926	3.64
440.132	3.66
440.338	3.71
440.544	3.64
440.751	3.78
440.957	3.94
441.163	3.97
441.369	3.88
441.575	3.99
441.782	3.98
441.988	3.98
442.194	3.89
442.4	3.84
442.606	3.97
442.812	4.06
443.018	4.06
443.224	4.21
443.431	4.25
443.637	4.21
443.843	4.23
444.049	4.29
444.255	4.26
444.461	4.35
444.667	4.27
444.873	4.16
445.079	4.11
445.284	4.15
445.49	4.04
445.696	4.08
445.902	4.27
446.108	4.24
446.314	4.23
446.52	4.32
446.726	4.33
446.931	4.21
447.137	4.3
447.343	4.24
447.549	4.32
447.755	4.33
447.96	4.43
448.166	4.4
448.372	4.45
448.578	4.47
448.783	4.6
448.989	4.59
449.195	4.56
449.4	4.64
449.606	4.56
449.812	4.35
450.017	4.31
450.223	4.42
450.428	4.39
450.634	4.46
450.84	4.71
451.045	4.79
451.251	4.83
451.456	4.9
451.662	4.88
451.867	4.72
452.073	4.74
452.278	4.76
452.483	4.66
452.689	4.73
452.894	4.77
453.1	4.76
453.305	4.76
453.51	4.83
453.716	4.79
453.921	4.77
454.127	4.79
454.332	4.71
454.537	4.8
454.742	4.86
454.948	4.8
455.153	4.8
455.358	4.92
455.563	4.86
455.769	4.71
455.974	4.8
456.179	4.74
456.384	4.64
456.589	4.7
456.795	4.81
457	4.92
457.205	5.09
457.41	5.16
457.615	5.13
457.82	5.2
458.025	5.17
458.23	5.11
458.435	5.08
458.64	5.03
458.845	5.05
459.05	5.09
459.255	5.16
459.46	5.32
459.665	5.47
459.87	5.48
460.075	5.47
460.28	5.4
460.485	5.31
460.69	5.21
460.895	5.17
461.099	5.16
461.304	5.16
461.509	5.15
461.714	5.25
461.919	5.24
462.123	5.33
462.328	5.39
462.533	5.52
462.738	5.48
462.942	5.55
463.147	5.52
463.352	5.6
463.556	5.6
463.761	5.51
463.966	5.52
464.17	5.63
464.375	5.58
464.58	5.56
464.784	5.78
464.989	5.72
465.193	5.71
465.398	5.82
465.602	5.92
465.807	5.93
466.011	6.01
466.216	5.93
466.42	5.88
466.625	5.82
466.829	5.85
467.034	5.98
467.238	5.96
467.443	5.93
467.647	5.8
467.851	5.81
468.056	5.73
468.26	5.78
468.464	5.85
468.669	5.99
468.873	5.99
469.077	6.1
469.282	6.13
469.486	6.09
469.69	6.05
469.894	6.08
470.099	5.99
470.303	6.07
470.507	6.15
470.711	6.2
470.915	6.22
471.119	6.34
471.324	6.37
471.528	6.41
471.732	6.54
471.936	6.53
472.14	6.46
472.344	6.45
472.548	6.46
472.752	6.57
472.956	6.51
473.16	6.57
473.364	6.66
473.568	6.63
473.772	6.56
473.976	6.67
474.18	6.76
474.384	6.71
474.588	6.72
474.792	6.7
474.995	6.77
475.199	6.63
475.403	6.58
475.607	6.62
475.811	6.61
476.015	6.58
476.218	6.65
476.422	6.67
476.626	6.69
476.83	6.63
477.033	6.63
477.237	6.58
477.441	6.59
477.644	6.59
477.848	6.61
478.052	6.53
478.255	6.62
478.459	6.64
478.663	6.75
478.866	6.8
479.07	6.86
479.273	6.85
479.477	6.89
479.681	6.86
479.884	6.87
480.088	6.8
480.291	6.78
480.495	6.78
480.698	6.66
480.901	6.66
481.105	6.75
481.308	6.76
481.512	6.75
481.715	6.76
481.919	6.75
482.122	6.77
482.325	6.8
482.529	6.81
482.732	6.96
482.935	7
483.138	6.93
483.342	7
483.545	7.02
483.748	7.06
483.952	7.11
484.155	7.22
484.358	7.12
484.561	7.12
484.764	7.01
484.967	6.98
485.171	6.96
485.374	6.92
485.577	7
485.78	6.98
485.983	7.04
486.186	7.03
486.389	7.08
486.592	6.99
486.795	7.07
486.998	6.95
487.201	6.96
487.404	7.03
487.607	7.06
487.81	6.97
488.013	7
488.216	6.98
488.419	6.99
488.622	6.96
488.825	7.09
489.028	7.13
489.231	7.19
489.433	7.22
489.636	7.17
489.839	7.13
490.042	7.02
490.245	6.97
490.447	6.91
490.65	6.93
490.853	6.93
491.056	7.06
491.258	7.02
491.461	7.02
491.664	7.04
491.866	7
492.069	6.94
492.272	6.98
492.474	6.94
492.677	6.91
492.879	6.83
493.082	6.92
493.285	6.92
493.487	6.89
493.69	6.91
493.892	6.91
494.095	6.82
494.297	6.85
494.5	6.92
494.702	6.94
494.905	6.99
495.107	6.98
495.309	6.97
495.512	6.98
495.714	7.03
495.917	7.08
496.119	7.15
496.321	7.11
496.524	7.07
496.726	7
496.928	6.97
497.13	6.92
497.333	6.9
497.535	6.9
497.737	6.89
497.939	6.83
498.142	6.9
498.344	6.98
498.546	6.99
498.748	7.02
498.95	7.14
499.152	7.08
499.355	7.05
499.557	7.08
499.759	7.07
499.961	6.96
500.163	6.93
500.365	6.98
500.567	6.95
500.769	6.92
500.971	6.95
501.173	6.98
501.375	6.94
501.577	6.9
501.779	6.95
501.981	6.98
502.183	6.95
502.385	6.85
502.587	6.8
502.788	6.76
502.99	6.72
503.192	6.69
503.394	6.76
503.596	6.86
503.798	6.88
503.999	6.88
504.201	6.93
504.403	6.91
504.605	6.85
504.806	6.86
505.008	6.88
505.21	6.93
505.411	6.95
505.613	7.04
505.815	7.02
506.016	7.04
506.218	7.01
506.42	6.99
506.621	6.91
506.823	6.87
507.024	6.84
507.226	6.87
507.427	6.87
507.629	6.93
507.83	6.97
508.032	6.96
508.233	6.95
508.435	6.98
508.636	7.06
508.838	7.03
509.039	7.07
509.24	7.1
509.442	7.11
509.643	7.04
509.845	7.1
510.046	7.14
510.247	7.09
510.448	7.14
510.65	7.18
510.851	7.1
511.052	7.06
511.254	7.09
511.455	7.07
511.656	6.97
511.857	7
512.058	6.95
512.26	6.93
512.461	6.82
512.662	6.84
512.863	6.78
513.064	6.78
513.265	6.73
513.466	6.77
513.667	6.81
513.868	6.82
514.069	6.86
514.27	6.9
514.471	6.92
514.672	6.84
514.873	6.74
515.074	6.74
515.275	6.75
515.476	6.69
515.677	6.74
515.878	6.98
516.079	6.94
516.28	6.92
516.481	6.97
516.682	7.02
516.882	6.88
517.083	6.94
517.284	6.88
517.485	6.85
517.686	6.81
517.886	6.89
518.087	6.81
518.288	6.88
518.488	6.9
518.689	6.9
518.89	6.9
519.091	6.94
519.291	6.91
519.492	6.9
519.692	6.88
519.893	6.86
520.094	6.86
520.294	6.92
520.495	6.91
520.695	6.98
520.896	7
521.096	7
521.297	7.02
521.497	7.05
521.698	6.97
521.898	6.95
522.099	6.93
522.299	6.85
522.499	6.86
522.7	6.89
522.9	6.86
523.101	6.9
523.301	6.92
523.501	6.94
523.702	7
523.902	7.03
524.102	7
524.302	7.08
524.503	7.07
524.703	7.03
524.903	7.02
525.103	7.04
525.304	7.06
525.504	7.06
525.704	7.05
525.904	7.04
526.104	7.03
526.304	7.01
526.504	6.99
526.705	6.97
526.905	6.96
527.105	6.98
527.305	6.96
527.505	6.95
527.705	7
527.905	7.06
528.105	7.01
528.305	6.94
528.505	6.98
528.705	6.95
528.905	6.9
529.105	6.93
529.304	6.97
529.504	7.03
529.704	7.06
529.904	7.06
530.104	7.04
530.304	7.03
530.503	6.94
530.703	6.87
530.903	6.92
531.103	6.92
531.303	7.01
531.502	7.05
531.702	7.05
531.902	7.02
532.101	7.03
532.301	6.94
532.501	6.96
532.7	7
532.9	7.04
533.1	7.07
533.299	7.04
533.499	7.06
533.698	7.06
533.898	7.02
534.097	6.98
534.297	7.05
534.496	6.93
534.696	6.92
534.895	7
535.095	7.01
535.294	7.05
535.494	7.11
535.693	7.12
535.892	7.1
536.092	7.1
536.291	7.07
536.491	7.07
536.69	7.07
536.889	7.07
537.088	7.06
537.288	7.08
537.487	7.11
537.686	7.13
537.886	7.07
538.085	7.09
538.284	7.11
538.483	7.1
538.682	7.1
538.882	7.17
539.081	7.24
539.28	7.19
539.479	7.17
539.678	7.13
539.877	7.1
540.076	6.99
540.275	7.01
540.474	7.06
540.673	7.07
540.872	7.1
541.071	7.14
541.27	7.19
541.469	7.25
541.668	7.33
541.867	7.36
542.066	7.4
542.265	7.43
542.464	7.38
542.663	7.4
542.862	7.49
543.06	7.58
543.259	7.68
543.458	7.7
543.657	7.71
543.856	7.66
544.054	7.57
544.253	7.48
544.452	7.55
544.651	7.54
544.849	7.5
545.048	7.55
545.247	7.55
545.445	7.53
545.644	7.59
545.843	7.63
546.041	7.67
546.24	7.72
546.438	7.7
546.637	7.74
546.836	7.81
547.034	7.79
547.233	7.8
547.431	7.87
547.63	7.82
547.828	7.83
548.027	7.85
548.225	7.89
548.423	7.89
548.622	7.96
548.82	7.95
549.019	8
549.217	8.02
549.415	8.08
549.614	8.12
549.812	8.15
550.01	8.2
550.209	8.24
550.407	8.28
550.605	8.31
550.803	8.35
551.002	8.33
551.2	8.37
551.398	8.42
551.596	8.48
551.794	8.52
551.993	8.6
552.191	8.62
552.389	8.63
552.587	8.65
552.785	8.72
552.983	8.78
553.181	8.86
553.379	8.91
553.577	8.96
553.775	8.95
553.973	9
554.171	9.01
554.369	9.05
554.567	9.05
554.765	9.1
554.963	9.09
555.161	9.1
555.359	9.15
555.557	9.28
555.755	9.37
555.952	9.49
556.15	9.58
556.348	9.57
556.546	9.58
556.744	9.62
556.941	9.62
557.139	9.72
557.337	9.87
557.535	9.85
557.732	9.91
557.93	9.95
558.128	9.95
558.325	9.97
558.523	10.1
558.721	10.15
558.918	10.25
559.116	10.34
559.313	10.35
559.511	10.42
559.708	10.46
559.906	10.52
560.104	10.54
560.301	10.63
560.498	10.67
560.696	10.71
560.893	10.78
561.091	10.94
561.288	10.97
561.486	10.99
561.683	11.05
561.88	11.13
562.078	11.1
562.275	11.29
562.473	11.39
562.67	11.48
562.867	11.58
563.064	11.65
563.262	11.64
563.459	11.75
563.656	11.76
563.853	11.8
564.051	11.81
564.248	11.74
564.445	11.82
564.642	11.9
564.839	11.93
565.036	12.09
565.234	12.3
565.431	12.32
565.628	12.38
565.825	12.4
566.022	12.36
566.219	12.39
566.416	12.49
566.613	12.57
566.81	12.68
567.007	12.8
567.204	12.79
567.401	12.79
567.598	12.83
567.795	12.84
567.991	12.82
568.188	12.96
568.385	12.96
568.582	12.97
568.779	13.04
568.976	13.16
569.172	13.19
569.369	13.23
569.566	13.3
569.763	13.31
569.96	13.31
570.156	13.26
570.353	13.3
570.55	13.31
570.746	13.35
570.943	13.39
571.14	13.43
571.336	13.47
571.533	13.5
571.729	13.54
571.926	13.64
572.123	13.68
572.319	13.64
572.516	13.68
572.712	13.67
572.909	13.62
573.105	13.7
573.302	13.77
573.498	13.75
573.695	13.82
573.891	13.8
574.087	13.75
574.284	13.8
574.48	13.83
574.677	13.77
574.873	13.79
575.069	13.86
575.266	13.81
575.462	13.79
575.658	13.9
575.854	13.97
576.051	13.93
576.247	13.99
576.443	14.01
576.639	14.01
576.835	14.03
577.032	13.99
577.228	13.98
577.424	14.04
577.62	14
577.816	13.98
578.012	14.05
578.208	14.11
578.404	14.1
578.6	14.12
578.796	14.11
578.993	14.05
579.189	13.98
579.384	13.95
579.58	13.86
579.776	13.88
579.972	13.91
580.168	13.86
580.364	13.74
580.56	13.79
580.756	13.73
580.952	13.65
581.148	13.7
581.343	13.79
581.539	13.76
581.735	13.8
581.931	13.85
582.127	13.8
582.322	13.74
582.518	13.7
582.714	13.59
582.909	13.55
583.105	13.59
583.301	13.64
583.496	13.64
583.692	13.67
583.888	13.75
584.083	13.65
584.279	13.66
584.474	13.68
584.67	13.67
584.866	13.63
585.061	13.66
585.257	13.67
585.452	13.65
585.648	13.66
585.843	13.69
586.039	13.7
586.234	13.64
586.429	13.59
586.625	13.53
586.82	13.48
587.015	13.44
587.211	13.44
587.406	13.47
587.601	13.55
587.797	13.53
587.992	13.54
588.187	13.49
588.383	13.46
588.578	13.44
588.773	13.42
588.968	13.45
589.163	13.56
589.359	13.55
589.554	13.62
589.749	13.71
589.944	13.69
590.139	13.64
590.334	13.71
590.529	13.67
590.724	13.58
590.919	13.54
591.114	13.58
591.309	13.51
591.504	13.61
591.699	13.64
591.894	13.7
592.089	13.77
592.284	13.79
592.479	13.76
592.674	13.78
592.869	13.79
593.064	13.81
593.259	13.9
593.454	13.82
593.648	13.8
593.843	13.91
594.038	13.82
594.233	13.84
594.428	13.96
594.622	14.07
594.817	13.99
595.012	14.05
595.206	14.1
595.401	14.13
595.596	14.14
595.79	14.24
595.985	14.27
596.18	14.3
596.374	14.32
596.569	14.33
596.763	14.34
596.958	14.41
597.153	14.47
597.347	14.54
597.542	14.68
597.736	14.82
597.931	14.74
598.125	14.73
598.319	14.79
598.514	14.82
598.708	14.77
598.903	14.94
599.097	14.97
599.291	14.96
599.486	14.92
599.68	14.91
599.874	14.92
600.069	15.06
600.263	15.07
600.457	15.14
600.651	15.24
600.846	15.14
601.04	15.15
601.234	15.16
601.428	15.16
601.622	15.09
601.817	15.22
602.011	15.19
602.205	15.23
602.399	15.2
602.593	15.24
602.787	15.19
602.981	15.22
603.175	15.16
603.369	15.18
603.563	15.25
603.757	15.29
603.951	15.32
604.145	15.36
604.339	15.38
604.533	15.28
604.727	15.3
604.921	15.22
605.115	15.19
605.309	15.17
605.502	15.12
605.696	15.06
605.89	14.97
606.084	14.96
606.278	14.84
606.471	14.91
606.665	14.84
606.859	14.88
607.053	14.85
607.246	14.94
607.44	14.89
607.634	14.98
607.827	15
608.021	14.95
608.214	14.87
608.408	14.82
608.602	14.71
608.795	14.69
608.989	14.65
609.182	14.66
609.376	14.69
609.569	14.64
609.763	14.51
609.956	14.46
610.15	14.37
610.343	14.19
610.537	14.2
610.73	14.13
610.923	14.18
611.117	14.18
611.31	14.28
611.504	14.3
611.697	14.34
611.89	14.26
612.083	14.18
612.277	14.1
612.47	13.97
612.663	13.94
612.856	13.87
613.05	13.84
613.243	13.77
613.436	13.72
613.629	13.55
613.822	13.51
614.015	13.46
614.209	13.35
614.402	13.4
614.595	13.42
614.788	13.35
614.981	13.24
615.174	13.25
615.367	13.08
615.56	13
615.753	12.99
615.946	12.95
616.139	12.93
616.332	12.98
616.525	12.92
616.718	12.88
616.911	12.88
617.103	12.94
617.296	12.79
617.489	12.85
617.682	12.82
617.875	12.82
618.067	12.71
618.26	12.72
618.453	12.64
618.646	12.58
618.838	12.51
619.031	12.41
619.224	12.35
619.417	12.36
619.609	12.37
619.802	12.35
619.994	12.32
620.187	12.29
620.38	12.29
620.572	12.23
620.765	12.2
620.957	12.19
621.15	12.19
621.342	12.06
621.535	12.05
621.727	12.1
621.92	12.1
622.112	12.13
622.305	12.21
622.497	12.2
622.69	12.08
622.882	12.08
623.074	12.06
623.267	12.04
623.459	12.07
623.651	12.1
623.844	12.15
624.036	12.06
624.228	12.1
624.42	12.07
624.613	12.08
624.805	12.02
624.997	11.95
625.189	11.83
625.381	11.87
625.574	11.87
625.766	11.78
625.958	11.94
626.15	11.95
626.342	11.85
626.534	11.78
626.726	11.87
626.918	11.78
627.11	11.75
627.302	11.68
627.494	11.71
627.686	11.65
627.878	11.63
628.07	11.68
628.262	11.68
628.454	11.58
628.646	11.59
628.838	11.6
629.029	11.5
629.221	11.48
629.413	11.57
629.605	11.45
629.797	11.45
629.989	11.4
630.18	11.41
630.372	11.32
630.564	11.44
630.755	11.37
630.947	11.34
631.139	11.3
631.33	11.24
631.522	11.17
631.714	11.12
631.905	11.17
632.097	11.13
632.289	11.13
632.48	11.07
632.672	11.03
632.863	10.96
633.055	10.96
633.246	10.96
633.438	10.95
633.629	10.85
633.821	10.83
634.012	10.83
634.203	10.76
634.395	10.74
634.586	10.88
634.777	10.85
634.969	10.79
635.16	10.83
635.351	10.68
635.543	10.69
635.734	10.71
635.925	10.74
636.117	10.66
636.308	10.73
636.499	10.69
636.69	10.65
636.881	10.61
637.073	10.65
637.264	10.65
637.455	10.46
637.646	10.46
637.837	10.43
638.028	10.42
638.219	10.4
638.41	10.43
638.601	10.36
638.792	10.22
638.983	10.08
639.174	9.98
639.365	9.95
639.556	9.9
639.747	9.96
639.938	10.01
640.129	10.06
640.32	10.01
640.511	9.98
640.701	10
640.892	9.92
641.083	9.84
641.274	9.81
641.465	9.87
641.655	9.82
641.846	9.82
642.037	9.8
642.228	9.83
642.418	9.67
642.609	9.63
642.8	9.57
642.99	9.53
643.181	9.45
643.372	9.52
643.562	9.47
643.753	9.51
643.943	9.53
644.134	9.55
644.324	9.57
644.515	9.53
644.705	9.48
644.896	9.45
645.086	9.39
645.277	9.37
645.467	9.44
645.658	9.43
645.848	9.35
646.038	9.4
646.229	9.33
646.419	9.29
646.61	9.31
646.8	9.34
646.99	9.2
647.18	9.14
647.371	9.17
647.561	9.1
647.751	9.04
647.941	9.1
648.132	9.14
648.322	9.11
648.512	9.13
648.702	9.15
648.892	9.16
649.082	9.2
649.272	9.13
649.462	9.11
649.653	9.12
649.843	9.08
650.033	9.13
650.223	9.16
650.413	9.19
650.603	9.27
650.793	9.29
650.983	9.15
651.172	9.15
651.362	9.03
651.552	8.94
651.742	8.92
651.932	8.89
652.122	8.92
652.312	9.03
652.502	8.88
652.691	8.9
652.881	8.97
653.071	8.86
653.261	8.75
653.45	8.9
653.64	8.77
653.83	8.61
654.019	8.58
654.209	8.58
654.399	8.47
654.588	8.47
654.778	8.42
654.968	8.4
655.157	8.32
655.347	8.31
655.536	8.28
655.726	8.26
655.915	8.22
656.105	8.17
656.294	8.18
656.484	8.17
656.673	8.2
656.863	8.21
657.052	8.14
657.241	8.01
657.431	7.93
657.62	7.85
657.809	7.8
657.999	7.88
658.188	7.83
658.377	7.8
658.567	7.8
658.756	7.68
658.945	7.57
659.134	7.59
659.324	7.58
659.513	7.48
659.702	7.35
659.891	7.26
660.08	7.18
660.269	7.08
660.458	7.02
660.648	7.08
660.837	7.09
661.026	7.02
661.215	7.06
661.404	6.95
661.593	6.89
661.782	6.74
661.971	6.72
662.16	6.59
662.349	6.63
662.538	6.62
662.726	6.62
662.915	6.6
663.104	6.58
663.293	6.49
663.482	6.5
663.671	6.43
663.86	6.39
664.048	6.45
664.237	6.55
664.426	6.47
664.615	6.56
664.803	6.66
664.992	6.59
665.181	6.53
665.369	6.6
665.558	6.6
665.747	6.55
665.935	6.62
666.124	6.61
666.312	6.54
666.501	6.55
666.69	6.52
666.878	6.4
667.067	6.48
667.255	6.5
667.444	6.56
667.632	6.62
667.82	6.72
668.009	6.73
668.197	6.79
668.386	6.74
668.574	6.77
668.762	6.69
668.951	6.75
669.139	6.73
669.327	6.78
669.516	6.64
669.704	6.76
669.892	6.67
670.08	6.7
670.269	6.67
670.457	6.83
670.645	6.85
670.833	6.93
671.021	6.98
671.21	7.03
671.398	7.07
671.586	6.98
671.774	7.04
671.962	7.04
672.15	7.14
672.338	7.24
672.526	7.39
672.714	7.32
672.902	7.33
673.09	7.4
673.278	7.4
673.466	7.44
673.654	7.71
673.842	7.73
674.03	7.72
674.218	7.75
674.405	7.86
674.593	7.82
674.781	7.91
674.969	7.94
675.157	8.07
675.344	8.08
675.532	8.09
675.72	8.18
675.908	8.27
676.095	8.1
676.283	8.17
676.471	8.34
676.658	8.49
676.846	8.57
677.033	8.74
677.221	8.8
677.409	8.68
677.596	8.65
677.784	8.73
677.971	8.75
678.159	8.72
678.346	8.8
678.534	8.92
678.721	8.82
678.909	8.89
679.096	9
679.283	9.15
679.471	9.18
679.658	9.38
679.846	9.39
680.033	9.47
680.22	9.45
680.408	9.38
680.595	9.4
680.782	9.56
680.969	9.48
681.157	9.58
681.344	9.7
681.531	9.62
681.718	9.56
681.905	9.62
682.093	9.61
682.28	9.62
682.467	9.83
682.654	9.95
682.841	10.14
683.028	10.24
683.215	10.33
683.402	10.15
683.589	10.22
683.776	10.24
683.963	10.28
684.15	10.34
684.337	10.56
684.524	10.6
684.711	10.78
684.898	10.85
685.085	10.98
685.271	11.01
685.458	11.07
685.645	11.06
685.832	11.22
686.019	11.25
686.205	11.45
686.392	11.75
686.579	11.86
686.766	11.95
686.952	12.2
687.139	12.31
687.326	12.35
687.512	12.52
687.699	12.73
687.886	12.92
688.072	13.28
688.259	13.63
688.445	13.81
688.632	13.95
688.818	14.34
689.005	14.57
689.191	14.93
689.378	15.31
689.564	15.78
689.751	16.08
689.937	16.39
690.124	16.56
690.31	16.78
690.496	17.13
690.683	17.33
690.869	17.82
691.055	18.25
691.242	18.85
691.428	19.27
691.614	19.75
691.8	20.15
691.987	20.58
692.173	21.1
692.359	21.52
692.545	22.05
692.731	22.35
692.918	22.73
693.104	23.06
693.29	23.7
693.476	24.04
693.662	24.69
693.848	25.31
694.034	25.74
694.22	26.43
694.406	27.3
694.592	27.81
694.778	28.3
694.964	28.87
695.15	29.13
695.336	29.7
695.522	30.27
695.708	31.15
695.894	31.79
696.08	32.51
696.265	32.67
696.451	33.5
696.637	34
696.823	34.73
697.009	35.32
697.194	35.89
697.38	36.28
697.566	36.81
697.751	37.53
697.937	38.21
698.123	39.21
698.308	40.18
698.494	40.83
698.68	41.4
698.865	42.04
699.051	42.5
699.236	43.13
699.422	43.85
699.607	44.39
699.793	45.01
699.978	45.88
700.164	46.44
700.349	47.17
700.535	47.84
700.72	48.43
700.906	49.1
701.091	49.65
701.276	50
701.462	50.84
701.647	51.54
701.832	52.16
702.018	52.82
702.203	53.4
702.388	53.82
702.573	53.98
702.759	54.26
702.944	54.51
703.129	55.43
703.314	56.16
703.499	57.13
703.684	57.94
703.87	58.6
704.055	58.72
704.24	59.1
704.425	59.75
704.61	59.81
704.795	60.22
704.98	60.87
705.165	61.25
705.35	61.65
705.535	62.37
705.72	63.29
705.905	63.84
706.09	64.27
706.275	64.69
706.459	65.16
706.644	65.35
706.829	66.07
707.014	66.8
707.199	67.06
707.384	67.41
707.568	67.71
707.753	68.03
707.938	68.76
708.123	69.69
708.307	70.43
708.492	70.83
708.677	71.19
708.861	71.23
709.046	71.34
709.231	71.7
709.415	72.11
709.6	72.3
709.784	72.68
709.969	73.31
710.153	73.87
710.338	74.22
710.522	74.93
710.707	75.38
710.891	75.65
711.076	75.6
711.26	76.18
711.445	76.08
711.629	76.27
711.813	76.39
711.998	76.77
712.182	76.61
712.366	76.96
712.551	77.11
712.735	77.5
712.919	77.74
713.103	78.42
713.288	78.92
713.472	79.43
713.656	79.66
713.84	80.29
714.024	80.38
714.208	80.98
714.393	80.83
714.577	80.9
714.761	81.21
714.945	81.68
715.129	81.32
715.313	81.94
715.497	82.36
715.681	82.48
715.865	82.83
716.049	83.34
716.233	83.55
716.417	84.01
716.601	83.6
716.785	83.75
716.968	83.72
717.152	84.41
717.336	84.3
717.52	84.98
717.704	84.95
717.888	85.05
718.071	85.08
718.255	85.44
718.439	85.02
718.622	85.32
718.806	85.47
718.99	85.67
719.174	85.82
719.357	86.46
719.541	86.49
719.724	87
719.908	87.2
720.092	87.64
720.275	88.75
720.459	89.01
720.642	89.49
720.826	88.91
721.009	88.88
721.193	88.14
721.376	88.57
721.559	88.55
721.743	89
721.926	89.04
722.11	89.25
722.293	89.4
722.476	89.86
722.66	89.96
722.843	90.28
723.026	90.33
723.21	90.61
723.393	89.85
723.576	90.14
723.759	89.77
723.942	90.14
724.126	90
724.309	90.79
724.492	90.11
724.675	91.04
724.858	91.58
725.041	91.63
725.224	92.22
725.407	93.34
725.59	93.37
725.774	93.07
725.957	93.23
726.14	92.76
726.322	92.56
726.505	92.62
726.688	92.46
726.871	92.95
727.054	93.64
727.237	94.3
727.42	94.28
727.603	94.72
727.786	94.35
727.968	93.85
728.151	93.79
728.334	93.58
728.517	93.94
728.699	94.42
728.882	94.13
729.065	94.2
729.248	94.49
729.43	93.7
729.613	93.5
729.796	93.74
729.978	94.35
730.161	93.87
730.343	94.14
730.526	94.77
730.708	95.42
730.891	95.55
731.073	95.84
731.256	96.37
731.438	95.77
731.621	96
731.803	95.87
731.986	96.45
732.168	96.27
732.35	96.45
732.533	96.45
732.715	95.63
732.898	94.99
733.08	95
733.262	95.88
733.444	95.82
733.627	96.01
733.809	96.12
733.991	96.9
734.173	96.57
734.355	96.62
734.538	96.88
734.72	97.57
734.902	97.55
735.084	96.28
735.266	96.68
735.448	96.68
735.63	96.67
735.812	96.94
735.994	97.53
736.176	97.57
736.358	96.84
736.54	96.9
736.722	96.68
736.904	97.81
737.086	97.28
737.268	99
737.45	99.72
737.632	98.82
737.814	99.24
737.995	99.51
738.177	99.29
738.359	98.4
738.541	99.85
738.723	99.64
738.904	100.23
739.086	99.58
739.268	99.64
739.449	98.5
739.631	98.36
739.813	98.17
739.994	99.58
740.176	100.17
740.358	101.69
740.539	101.58
740.721	100.97
740.902	100.21
741.084	100.66
741.265	100.11
741.447	100.34
741.628	102.46
741.81	101.81
741.991	101.27
742.172	101.62
742.354	100.8
742.535	98.61
742.717	98.41
742.898	98.45
743.079	98.83
743.261	100.35
743.442	100.82
743.623	101.76
743.804	101.39
743.986	101.35
744.167	100.14
744.348	100.23
744.529	101.29
744.71	102.18
744.891	101.49
745.073	102.76
745.254	102.92
745.435	102.09
745.616	101.73
745.797	102.3
745.978	102.9
746.159	103.02
746.34	102.63
746.521	102.67
746.702	101.91
746.883	99.43
747.064	98.06
747.245	99.05
747.426	100.11
747.606	99.72
747.787	101.4
747.968	103.55
748.149	102.94
748.33	101.06
748.51	102.29
748.691	100.89
748.872	99.46
749.053	98.34
749.233	98.64
749.414	96.63
749.595	98.24
749.775	97.88
749.956	98.77
750.137	98.86
750.317	101.22
750.498	100.16
750.678	100.22
750.859	99.05
751.04	99.32
751.22	98.55
751.4	99.27
751.581	99.88
751.761	101.73
751.942	102.51
752.122	101.28
752.303	99.3
752.483	100.39
752.663	99.89
752.844	99.77
753.024	101.69
753.204	102.19
753.385	99.89
753.565	99.44
753.745	98.51
753.925	97.41
754.106	98.06
754.286	99.59
754.466	99.39
754.646	100.97
754.826	101.09
755.006	102.26
755.187	101.56
755.367	102.12
755.547	101.27
755.727	101.27
755.907	98.73
756.087	99.26
756.267	98.62
756.447	98.7
756.627	97.55
756.807	99.54
756.987	100.54
757.167	101.75
757.346	101.73
757.526	102.94
757.706	103.41
757.886	103.18
758.066	103.67
758.246	103.95
758.425	103.23
758.605	100.95
758.785	101.46
758.965	99.45
759.144	99.48
759.324	99.4
759.504	101.46
759.683	100.96
759.863	102.46
760.043	101.99
760.222	101.51
760.402	99.68
760.581	99.35
760.761	97.7
760.94	98.47
761.12	101.31
761.299	101.87
761.479	101.19
761.658	101.58
761.838	99.95
762.017	99.23
762.197	99.47
762.376	99.01
762.555	98.91
762.735	98.2
762.914	97.56
763.093	98.18
763.273	97.15
763.452	98.11
763.631	100.41
763.81	100.95
763.99	100.46
764.169	100.7
764.348	100.47
764.527	97.98
764.706	96.18
764.885	94.54
765.064	95.03
765.243	94.17
765.423	96.4
765.602	96.69
765.781	98.93
765.96	97.81
766.139	97.28
766.318	95.81
766.497	96.19
766.676	95.04
766.854	96.18
767.033	98.02
767.212	96.86
767.391	95.05
767.57	96.68
767.749	98.24
767.928	97.21
768.106	96.07
768.285	97.04
768.464	95.19
768.643	93.58
768.821	91.97
769	94.16
769.179	95.04
769.357	96.05
769.536	96.03
769.715	99.73
769.893	97.27
770.072	94.4
770.25	92.74
770.429	90.96
770.607	87.35
770.786	89.22
770.964	92.04
771.143	94.12
771.321	97.04
771.5	97.17
771.678	97.64
771.857	97.46
772.035	95.43
772.213	93.79
772.392	92.32
772.57	93.68
772.748	93.87
772.927	94.44
773.105	96.5
773.283	98.34
773.461	95.99
773.64	93.06
773.818	93.06
773.996	91.61
774.174	90.8
774.352	91.93
774.531	94.23
774.709	91.72
774.887	93.93
775.065	94.81
775.243	93.06
775.421	92.25
775.599	94.56
775.777	91.77
775.955	91.52
776.133	91.35
776.311	90.89
776.489	91.77
776.667	91.13
776.844	93.33
777.022	94.51
777.2	93.97
777.378	90.55
777.556	91.43
777.734	89.18
777.911	90.07
778.089	90.22
778.267	93.59
778.445	88.84
778.622	88.56
778.8	87.22
778.978	89
779.155	86.83
779.333	91.54
779.511	88.95
779.688	88.14
779.866	87.57
780.043	85.29
780.221	80.6
780.398	83.71
780.576	84.4
780.753	83.85
780.931	85.44
781.108	88.81
781.286	87.35
781.463	87
781.64	84.5
781.818	86.38
781.995	86.26
782.172	85.48
782.35	85.84
782.527	89.84
782.704	91.63
782.882	92.3
783.059	92.79
783.236	89.83
783.413	87.19
783.59	84.65
783.768	81.47
783.945	80.35
784.122	84.75
784.299	82.3
784.476	83.7
784.653	85.94
784.83	86.78
785.007	82.31
785.184	86.5
785.361	84.53
785.538	86.12
785.715	91.24
785.892	97.45
786.069	95.59
786.246	95
786.423	94.3
786.6	87.59
786.776	83.07
786.953	82.69
787.13	83.54
787.307	81.15
787.484	80.65
787.66	81.86
787.837	84.33
788.014	87.14
788.191	89.72
788.367	96.58
788.544	93.78
788.721	95.2
788.897	93.3
789.074	92.46
789.25	87.16
789.427	88.31
789.603	82.22
789.78	81.19
789.956	85.32
790.133	84.69
790.309	82.63
790.486	84.34
790.662	86.78
790.839	82.11
791.015	81.98
791.192	84.54
791.368	88.38
791.544	85.35
791.721	89.44
791.897	89.6
792.073	88
792.249	82.65
792.426	85.32
792.602	82.49
792.778	83.71
792.954	81.96
793.13	85.09
793.307	84.56
793.483	81.2
793.659	81.12
793.835	82.92
794.011	81.19
794.187	74.03
794.363	72.42
794.539	70.96
794.715	70.85
794.891	74.6
795.067	76.72
795.243	80.32
795.419	79.54
795.595	79.79
795.771	73.99
795.947	76.99
796.122	76.15
796.298	74.4
796.474	70.95
796.65	70.06
796.826	67.42
797.001	64.63
797.177	71.27
797.353	71.4
797.529	76.48
797.704	78
797.88	83.7
798.056	79.85
798.231	81.47
798.407	78.83
798.582	77.24
798.758	80.26
798.934	83.42
799.109	84.95
799.285	87.31
799.46	83.6
799.636	78.12
799.811	75.43
799.986	74.98
800.162	76.87
800.337	81.56
800.513	83.54
800.688	81.48
800.863	83.56
801.039	83.39
801.214	85.84
801.389	84.46
801.565	85.19
801.74	84.38
801.915	76.48
802.09	74.25
802.265	72.65
802.441	71.35
802.616	67.36
802.791	70.72
802.966	76.51
803.141	82.48
803.316	85.26
803.491	90.58
803.666	93.33
803.841	89.9
804.016	84.48
804.191	81.72
804.366	84.38
804.541	80.15
804.716	80.49
804.891	76.98
805.066	73.94
805.241	67.52
805.416	66.93
805.591	64.16
805.765	62.93
805.94	63.9
806.115	57.84
806.29	56.91
806.464	57.54
806.639	63.01
806.814	63.47
806.989	63.28
807.163	64.55
807.338	66.22
807.512	59.98
807.687	58.62
807.862	63.76
808.036	66.3
808.211	62.77
808.385	60.8
808.56	65.53
808.734	63.34
808.909	60.78
809.083	58.65
809.258	59.54
809.432	55.32
809.606	53.8
809.781	57.31
809.955	58.12
810.13	66.23
810.304	62.68
810.478	60.44
810.652	64.86
810.827	66.96
811.001	63.19
811.175	76.49
811.349	85.98
811.524	66.52
811.698	66.12
811.872	71.57
812.046	57.37
812.22	64.5
812.394	73.1
812.568	70.85
812.742	63.37
812.916	84.28
813.09	79.06
813.264	86.49
813.438	89.52
813.612	88.21
813.786	69.85
813.96	71.63
814.134	72.99
814.308	69.25
814.482	74.42
814.656	84.52
814.83	80
815.003	72.14
815.177	72.47
815.351	68.45
815.525	66.85
815.698	60.53
815.872	60.89
816.046	58.99
816.219	59.01
816.393	54.48
816.567	64.82
816.74	59.28
816.914	54.51
817.088	61.54
817.261	58.18
817.435	51.85
817.608	54.35
817.782	60.35
817.955	53.3
818.129	57.22
818.302	63.9
818.475	59.27
818.649	63.48
818.822	63.32
818.996	72.2
819.169	58.42
819.342	67.7
819.516	59.76
819.689	63.19
819.862	46.89
820.035	48.96
820.209	42.92
820.382	36.41
820.555	33.55
820.728	47.55
820.901	53.41
821.075	53.95
821.248	57.33
821.421	57.37
821.594	61.94
821.767	67.61
821.94	65.53
822.113	73.88
822.286	63.11
822.459	63.89
822.632	61.07
822.805	57.01
822.978	57.41
823.151	65.54
823.324	63.9
823.496	57.1
823.669	56.9
823.842	54.38
824.015	63.81
824.188	54.17
824.361	52.43
824.533	48.49
824.706	59.33
824.879	45.21
825.051	49.04
825.224	51.03
825.397	53.84
825.569	43.67
825.742	32.93
825.915	28.41
826.087	24.29
826.26	25.6
826.432	26.27
826.605	35.26
826.777	27.85
826.95	27.51
827.122	37.25
827.295	47.03
827.467	58.61
827.64	67.7
827.812	68
827.984	60.42
828.157	39.1
828.329	39.98
828.501	43.27
828.674	60.27
828.846	51.54
829.018	69
829.19	72.94
829.363	67.46
829.535	53.93
829.707	65.76
829.879	55.45
830.051	37
830.223	37.83
830.395	31.56
830.568	21.44
830.74	30.11
830.912	46.97
831.084	69.22
831.256	64.58
831.428	79.7
831.6	70.22
831.772	54.8
831.943	30.14
832.115	36.95
832.287	24.79
832.459	32.42
832.631	31.62
832.803	31.17
832.975	38.1
833.146	46.87
833.318	32.3
833.49	50.06
833.662	49.96
833.833	36.43
834.005	31.4
834.177	41.45
834.348	35.08
834.52	26.17
834.692	41.52
834.863	38.82
835.035	38.58
835.206	8.81
835.378	41.7
835.549	43.12
835.721	51.12
835.892	44.45
836.064	56.6
836.235	49.83
836.407	38.18
836.578	42.69
836.749	45.56
836.921	49.12
837.092	29.32
837.264	22.51
837.435	-5.02
837.606	-18.32
837.777	-14.79
837.949	14.76
838.12	20.3
838.291	33.37
838.462	38.81
838.633	42.79
838.805	30.31
838.976	55.14
839.147	33.25
839.318	37.22
839.489	43.16
839.66	47.97
839.831	21.37
840.002	30.7
840.173	16.55
840.344	-14.74
840.515	-29.38
840.686	-8.47
840.857	-9.69
841.028	-1.72
841.199	20.48
841.369	17.68
841.54	14.65
841.711	6.46
841.882	14.13
842.053	21.13
842.223	28.36
842.394	16.71
842.565	24.45
842.736	34.97
842.906	19.2
843.077	23.41
843.248	41.4
843.418	43.68
843.589	27.45
843.759	29.47
843.93	42.25
844.101	18.39
844.271	31.1
844.442	34.92
844.612	32.48
844.783	29.36
844.953	29.27
845.123	33.32
845.294	21.15
845.464	23.25
845.635	21.46
845.805	43.8
845.975	44.13
846.146	28.28
846.316	29.92
846.486	31.77
846.656	18.97
846.827	16.31
846.997	36.77
847.167	44.7
847.337	17.67
847.507	28.14
847.677	4.65
847.848	9.76
848.018	26.09
848.188	38.2
848.358	35.02
848.528	15.3
848.698	22.91
848.868	19.15
849.038	28.29
849.208	36.36
849.378	70.14
849.548	63.4
849.718	41.32
849.887	43.33
850.057	33.77
850.227	25.81
850.397	27.23
850.567	49.12
850.737	41.11
850.906	17.14
851.076	3.12
851.246	7.7
851.415	15.6
851.585	5.49
851.755	22.32
851.924	29.91
852.094	11.16
852.264	-3.34
852.433	-20.96
852.603	-3.13
852.772	-0.22
852.942	14.3
853.111	13.67
853.281	18.5
853.45	12.58
853.62	-1.68
853.789	-29
853.959	-41.47
854.128	-14.4
854.297	2.22
854.467	-7.14
854.636	24.23
854.805	29.43
854.975	-9.67
855.144	-81.09
855.313	2.73
855.482	-19.61
855.652	-6.26
855.821	6.66
855.99	15.57
856.159	66.09
856.328	86.38
856.497	89.88
856.667	56.58
856.836	32.41
857.005	-86.05
857.174	-246.65
857.343	-243.19
857.512	-430.19
857.681	-62.65
857.85	-27.17
858.019	-8.67
858.188	-0.89
858.356	12.79
858.525	0.06
858.694	-2.86
858.863	-54.79
859.032	-124.26
859.201	-48.41
859.369	-35.14
859.538	-37.53
859.707	5.85
859.876	25.92
860.044	18.19
860.213	6.45
860.382	11.1
860.55	33.43
860.719	46.96
860.888	48.23
861.056	69.19
861.225	58.17
861.393	21.57
861.562	5.26
861.73	-3.33
861.899	-8.44
862.067	-33.41
862.236	-4.31
862.404	-36.15
862.572	-45.96
862.741	-38.78
862.909	-49.02
863.078	-62.02
863.246	-0.71
863.414	2.62
863.582	5.81
863.751	3.12
863.919	-22.55
864.087	-26.87
864.255	-31.7
864.424	-45.72
864.592	-10.41
864.76	-20.8
864.928	-49.79
865.096	-34.8
865.264	-22.96
865.432	-45.44
865.6	11.26
865.768	21.87
865.936	32.84
866.104	45.36
866.272	63.72
866.44	29.03
866.608	23.61
866.776	-1.71
866.944	-74.64
867.112	-69.73
867.28	-151.73
867.448	-118.33
867.615	-31.32
867.783	9.52
867.951	-18.89
868.119	-7.28
868.286	25.27
868.454	11.4
868.622	32.41
868.789	16.34
868.957	20.39
869.125	-75.34
869.292	-103.38
869.46	-119.89
869.627	-49.07
869.795	-74.46
869.963	-56.43
870.13	-41.77
870.298	-27.55
870.465	-78.75
870.632	-10.91
870.8	-36.26
870.967	-51.37
871.135	-81.69
871.302	-65.21
871.469	717.99
871.637	-85.94
871.804	1.91
871.971	-17.86
872.139	23.34
872.306	30.25
872.473	19.15
872.64	5.14
872.807	45.43
872.975	-0.47
873.142	15.79
873.309	37.68
873.476	388.97
873.643	72.23
873.81	60.91
873.977	19.85
874.144	46.77
874.311	18.62
874.478	-19.83
874.645	-7.91
874.812	12.83
874.979	-25.04
875.146	-65.7
875.313	-72.89
875.48	-566.49
875.647	969.32
875.813	-991.11
875.98	2216.16
876.147	-547.79
876.314	-114.39
876.481	-188.06
876.647	-191.52
876.814	-122.11
876.981	-137.83
877.147	-17.06
877.314	14.47
877.481	59.97
877.647	58.55
877.814	52.43
877.98	-3.17
878.147	-66.86
878.314	-127.96
878.48	-117.95
878.647	-107.85
878.813	-1142.64
878.979	22.85
879.146	-40.37
879.312	-13.19
879.479	38.74
879.645	62.55
879.811	40.02
879.978	56.76
880.144	40.73
880.31	31.74
880.477	4.43
880.643	28.03
880.809	-4.72
880.975	-3157.58
881.142	679.06
881.308	2157.33
881.474	-304.25
881.64	-129.1
881.806	-0.39
881.972	9.82
882.138	55.13
882.304	50.98
882.47	18.73
882.636	-67.31
882.802	-30.46
882.968	-186.41
883.134	-6.81
883.3	-9.34
883.466	15.58
883.632	23.58
883.798	8.21
883.964	20.45
884.129	53.03
884.295	37.38
884.461	13.94
884.627	8.79
884.793	-75.31
884.958	-43.23
885.124	-6.15
885.29	-26.86
885.455	-38.47
885.621	-29.48
885.787	-95.99
885.952	259.54
886.118	409.25
886.283	-3891.23
886.449	-78.53
886.614	-8.75
886.78	52.92
886.945	68.31
887.111	-2.13
887.276	-31.82
887.442	-106.51
887.607	-197.6
887.773	-73.58
887.938	-165.73
888.103	-128.02
888.269	-143.43
888.434	-85.08
888.599	-117.85
888.764	-63.42
888.93	-180.06
889.095	-146.07
889.26	-284.99
889.425	-577.39
889.59	1083.09
889.756	-289.57
889.921	-41.69
890.086	59.77
890.251	118.6
890.416	39.93
890.581	8.86
890.746	50.35
890.911	22.87
891.076	2.15
891.241	-17.04
891.406	-3.32
891.571	-111.76
891.736	-73.54
891.901	-111.8
892.065	-59.34
892.23	-45
892.395	46.35
892.56	-42.28
892.725	27.55
892.889	66.17
893.054	28.84
893.219	-58.32
893.384	-34.07
893.548	-255.26
893.713	913.58
893.878	180.28
