Data from Ofav_PS_Phys_0HS3_Reflection_3.txt Node
Date: Thu Jul 29 18:17:34 EDT 2021
User: USUARIO
Spectrometer: FLMT01687
Trigger mode: 0
Integration Time (sec): 9.010000E-1
Scans to average: 2
Electric dark correction enabled: true
Nonlinearity correction enabled: false
Boxcar width: 2
XAxis mode: Wavelengths
Number of Pixels in Spectrum: 3648
>>>>>Begin Spectral Data<<<<<
179.494	9.84
179.716	-42.79
179.937	-49.04
180.158	671.75
180.38	130.65
180.601	-210.76
180.823	-95.25
181.044	-52.34
181.265	-87.26
181.486	-1043.5
181.708	112.33
181.929	296.37
182.15	7147.62
182.372	-102.67
182.593	-39.1
182.814	-0.05
183.035	-227.15
183.257	92.31
183.478	48.87
183.699	50.49
183.92	45.35
184.141	47.61
184.363	39.69
184.584	50.41
184.805	38
185.026	54.93
185.247	44.32
185.468	43.92
185.689	56.49
185.91	113.38
186.132	111.06
186.353	65.29
186.574	77.83
186.795	66.05
187.016	54.55
187.237	31.57
187.458	30.12
187.679	39.94
187.9	45.22
188.121	42.96
188.342	75.38
188.563	72.31
188.784	55.46
189.005	52.45
189.226	70.46
189.447	59.15
189.667	62.58
189.888	63.97
190.109	87.84
190.33	35.33
190.551	39.23
190.772	72.52
190.993	50.83
191.214	34.86
191.434	41.51
191.655	41.05
191.876	12.44
192.097	12.74
192.318	40.85
192.538	38.41
192.759	39.67
192.98	54.1
193.201	52.32
193.421	52.74
193.642	48.42
193.863	57.85
194.083	51.13
194.304	23.36
194.525	17.44
194.745	32.82
194.966	17.01
195.187	8.78
195.407	34.76
195.628	-16.11
195.848	14.83
196.069	54.93
196.29	63.41
196.51	48.57
196.731	73.56
196.951	57.27
197.172	14.04
197.392	16.51
197.613	20.5
197.833	-5.88
198.054	-8.45
198.274	8.31
198.495	19.06
198.715	11.17
198.936	30.79
199.156	44.88
199.377	68.55
199.597	41.38
199.817	44.23
200.038	39.5
200.258	20.24
200.479	-24.57
200.699	-22.16
200.919	37.3
201.14	30.09
201.36	58.09
201.58	70.55
201.801	72.74
202.021	56.92
202.241	66.51
202.461	58.14
202.682	-2.19
202.902	42.5
203.122	27.59
203.342	47.42
203.563	42.47
203.783	71.76
204.003	60.97
204.223	85.65
204.443	34.77
204.663	15.7
204.884	43.1
205.104	51.52
205.324	41.48
205.544	37.9
205.764	48.38
205.984	39.95
206.204	32
206.424	36.48
206.644	42.71
206.864	46.02
207.084	3.59
207.304	30.87
207.525	29.05
207.745	43.91
207.964	36.88
208.184	62.21
208.404	9.06
208.624	32.05
208.844	20.43
209.064	22.86
209.284	43.72
209.504	45.17
209.724	57.83
209.944	76.22
210.164	65.33
210.384	48.7
210.604	49.32
210.823	32.58
211.043	13.64
211.263	47.29
211.483	35.11
211.703	49.68
211.922	39.18
212.142	45.7
212.362	23.52
212.582	37.47
212.801	34.27
213.021	32.67
213.241	29.91
213.461	26.91
213.68	19.04
213.9	14.88
214.12	19.7
214.339	-6.38
214.559	1.25
214.779	8.63
214.998	-3.27
215.218	6.96
215.438	22.47
215.657	34.15
215.877	25.36
216.096	29.22
216.316	2.37
216.535	-0.41
216.755	-79.35
216.974	-83.91
217.194	-47.86
217.413	-10.27
217.633	6.71
217.852	30.25
218.072	10.6
218.291	-1.21
218.511	33.18
218.73	24.86
218.95	28.18
219.169	45.12
219.389	48.06
219.608	26.69
219.827	27.32
220.047	22.55
220.266	16.03
220.485	29.7
220.705	21.02
220.924	7.19
221.143	9.17
221.363	-5.79
221.582	-30.58
221.801	-80.19
222.021	-22.36
222.24	-37.39
222.459	-12.17
222.678	9.34
222.897	13.45
223.117	17.2
223.336	28.32
223.555	25.97
223.774	15.69
223.993	8.46
224.213	20.68
224.432	30.03
224.651	42.04
224.87	32.03
225.089	43.59
225.308	43.53
225.527	38.19
225.746	16.94
225.965	35.62
226.184	-3.07
226.404	-26.62
226.623	0.51
226.842	-6.54
227.061	-30.49
227.28	8.19
227.499	23.29
227.718	-10.77
227.936	23.24
228.155	46.01
228.374	-2.63
228.593	-1.37
228.812	-1.72
229.031	1.5
229.25	-4.03
229.469	15.8
229.688	11.9
229.907	23.04
230.125	7.19
230.344	14.1
230.563	22.17
230.782	2.85
231.001	-8.34
231.22	16.75
231.438	15.48
231.657	6.07
231.876	19.11
232.095	19.03
232.313	-1.81
232.532	5.3
232.751	3.41
232.969	10.89
233.188	26.4
233.407	41.26
233.625	26.41
233.844	29.97
234.063	16.08
234.281	-20.37
234.5	-25.07
234.719	-20.37
234.937	-16.83
235.156	-11.72
235.374	42.73
235.593	48.13
235.811	46.06
236.03	36.63
236.249	33.07
236.467	26.36
236.686	32.54
236.904	37.19
237.123	33.53
237.341	14.19
237.559	7.81
237.778	8.7
237.996	20.1
238.215	32.77
238.433	51.03
238.652	44.27
238.87	31.71
239.088	32.76
239.307	17.79
239.525	20.97
239.743	26.83
239.962	29.41
240.18	21.95
240.398	34.11
240.617	21.4
240.835	19.29
241.053	20.49
241.271	16.46
241.49	7.13
241.708	33.3
241.926	15.39
242.144	-6.04
242.363	6
242.581	-18.22
242.799	-36.12
243.017	-10.26
243.235	-2.2
243.453	-3.69
243.672	6.12
243.89	-6.48
244.108	-2.16
244.326	27.29
244.544	18.38
244.762	29.08
244.98	23.78
245.198	20.98
245.416	12.32
245.634	13.93
245.852	6
246.07	39.6
246.288	39.24
246.506	35.81
246.724	38.38
246.942	44.21
247.16	50.92
247.378	48.15
247.596	41.48
247.814	39.73
248.032	34.96
248.25	15.47
248.468	9.3
248.685	12.88
248.903	11.75
249.121	25.53
249.339	16.03
249.557	16.86
249.775	25.86
249.992	15.5
250.21	9.08
250.428	33.53
250.646	47.28
250.863	50.56
251.081	46.52
251.299	44.95
251.517	48.62
251.734	54.95
251.952	34.17
252.17	34.46
252.387	34.63
252.605	27.6
252.823	3.86
253.04	31.64
253.258	33.6
253.475	27.79
253.693	26.31
253.911	38.7
254.128	48.18
254.346	49.2
254.563	65.56
254.781	61.99
254.998	54.53
255.216	20.21
255.433	34.63
255.651	29.56
255.868	27.9
256.086	31.26
256.303	37.85
256.521	40.19
256.738	18.97
256.956	26.77
257.173	25.69
257.39	40.6
257.608	30.03
257.825	57.3
258.043	47.2
258.26	39.01
258.477	20.26
258.695	0.73
258.912	-7.52
259.129	-1.39
259.346	6.54
259.564	-21.85
259.781	40.05
259.998	41.01
260.216	46.09
260.433	61.83
260.65	69.56
260.867	57.09
261.084	44.44
261.302	50.27
261.519	27.07
261.736	18.26
261.953	8.39
262.17	24.31
262.387	16.86
262.604	-2.1
262.822	4.12
263.039	19.47
263.256	20.03
263.473	18.21
263.69	29.06
263.907	42.79
264.124	37.86
264.341	31.33
264.558	37.26
264.775	37.91
264.992	34.46
265.209	15.95
265.426	12.66
265.643	19.51
265.86	10.41
266.077	11.48
266.294	28.63
266.51	33.36
266.727	38.96
266.944	71.84
267.161	77.59
267.378	64.64
267.595	74.13
267.812	57.55
268.028	13.36
268.245	7.09
268.462	24.63
268.679	14.93
268.896	0.79
269.112	17.06
269.329	21.28
269.546	19.48
269.763	23.55
269.979	40.21
270.196	42.6
270.413	31.31
270.629	45.73
270.846	40.13
271.063	34.67
271.279	48.56
271.496	43.76
271.712	36.02
271.929	38.38
272.146	45.44
272.362	27.42
272.579	55.68
272.795	48.94
273.012	25.37
273.228	16.66
273.445	25.75
273.661	-1.54
273.878	-11.17
274.094	22.08
274.311	25.35
274.527	25.21
274.744	44.69
274.96	48.65
275.177	38.55
275.393	39.92
275.609	36.44
275.826	19.1
276.042	11.27
276.259	-2.14
276.475	-1.8
276.691	14.14
276.908	18.91
277.124	28.37
277.34	37.61
277.557	34.89
277.773	14.84
277.989	20.57
278.205	27.19
278.422	17.6
278.638	21.16
278.854	51.37
279.07	63.52
279.286	44.05
279.503	56.49
279.719	54.3
279.935	36.36
280.151	15.41
280.367	26.55
280.583	21.02
280.799	24.68
281.016	53.04
281.232	53.06
281.448	47.95
281.664	58.94
281.88	45.68
282.096	41.63
282.312	30.48
282.528	31.99
282.744	25.23
282.96	45.73
283.176	23.64
283.392	48.02
283.608	39.83
283.824	47.39
284.04	36.7
284.256	39.08
284.471	21.5
284.687	39.24
284.903	2.12
285.119	14.03
285.335	17.38
285.551	34.54
285.767	42.04
285.982	48.32
286.198	37.74
286.414	30.93
286.63	25.89
286.846	12.56
287.061	0.17
287.277	9.28
287.493	19.53
287.709	17.25
287.924	31.65
288.14	33.22
288.356	45.96
288.571	36.55
288.787	25.88
289.003	7.94
289.218	4.97
289.434	6.76
289.65	26.08
289.865	38.41
290.081	29.16
290.296	39.71
290.512	31.72
290.727	21.72
290.943	13.49
291.159	18.71
291.374	29.03
291.59	36.42
291.805	31.8
292.021	31.27
292.236	36.33
292.451	-1.93
292.667	-4.74
292.882	-2.19
293.098	11.79
293.313	13.12
293.529	32.91
293.744	17.1
293.959	12.28
294.175	28.2
294.39	21.22
294.605	22.89
294.821	20.61
295.036	26.54
295.251	2.12
295.467	11.41
295.682	17.45
295.897	27.36
296.112	22.68
296.328	32.06
296.543	26.41
296.758	11.93
296.973	19.04
297.188	17.63
297.404	-4.28
297.619	1.87
297.834	-2.45
298.049	-2.57
298.264	6.1
298.479	30.96
298.694	22.5
298.909	21.14
299.125	4.91
299.34	15.78
299.555	17.99
299.77	40.86
299.985	25.67
300.2	43.53
300.415	27.34
300.63	28.96
300.845	17.29
301.06	13.93
301.275	0.28
301.49	-9.14
301.704	-33.78
301.919	-5.89
302.134	9.28
302.349	9.26
302.564	6.29
302.779	2.06
302.994	-0.62
303.209	-9.71
303.423	9.98
303.638	22.88
303.853	27.11
304.068	24.59
304.283	33.67
304.497	28.19
304.712	7.03
304.927	12.99
305.142	4.76
305.356	7.3
305.571	16.4
305.786	26.64
306	14.66
306.215	30.04
306.43	22.52
306.644	-10.11
306.859	39.99
307.074	40.06
307.288	27.27
307.503	40.28
307.717	56.95
307.932	36.54
308.147	33.93
308.361	17.53
308.576	18.09
308.79	4.24
309.005	30.35
309.219	40.83
309.434	44.69
309.648	42.58
309.863	34.71
310.077	8.15
310.292	-0.58
310.506	-11.7
310.72	-10.52
310.935	-1.85
311.149	4.11
311.364	12.65
311.578	16.33
311.792	-7.52
312.007	-6.64
312.221	-3.32
312.435	-6.34
312.649	7.73
312.864	-121.57
313.078	-36.85
313.292	-52.18
313.507	-35.05
313.721	-2.4
313.935	31.62
314.149	26.74
314.363	28.12
314.578	32.49
314.792	33.73
315.006	46.1
315.22	26.97
315.434	36.78
315.648	35.74
315.862	23.68
316.077	12.28
316.291	20.78
316.505	23.18
316.719	15.7
316.933	4.85
317.147	11.19
317.361	2.03
317.575	10
317.789	1.34
318.003	20.37
318.217	28.83
318.431	27.78
318.645	18.66
318.859	28.74
319.073	19.57
319.287	10.71
319.5	18.07
319.714	34.48
319.928	26.85
320.142	40.86
320.356	51.05
320.57	39.45
320.784	33.45
320.997	33.82
321.211	28.57
321.425	17.71
321.639	15.16
321.853	-0.12
322.066	-21.12
322.28	-19.51
322.494	-5.39
322.707	13.7
322.921	25.27
323.135	40.7
323.349	34.06
323.562	21.45
323.776	20.46
323.989	23.82
324.203	34.27
324.417	46.03
324.63	46.03
324.844	44.13
325.057	36.9
325.271	23.11
325.485	12.12
325.698	20.91
325.912	25.16
326.125	25.26
326.339	33.1
326.552	35.64
326.766	32.08
326.979	21.39
327.193	15.19
327.406	23.34
327.619	3.15
327.833	8.5
328.046	21.03
328.26	30.02
328.473	7.06
328.686	27.48
328.9	28.04
329.113	-0.76
329.326	-7.16
329.54	-4.59
329.753	11.19
329.966	-3.09
330.179	3.81
330.393	7.57
330.606	18.89
330.819	16.29
331.032	17.79
331.246	19.7
331.459	7.81
331.672	-2.75
331.885	7.86
332.098	22.94
332.311	25.42
332.525	26.47
332.738	25.85
332.951	20.53
333.164	17.2
333.377	7.99
333.59	5.93
333.803	31.1
334.016	24.01
334.229	12.39
334.442	20.32
334.655	29.79
334.868	16.09
335.081	34.86
335.294	43.08
335.507	48.05
335.72	52.68
335.933	33.53
336.146	14.72
336.359	16.23
336.572	-3.5
336.785	-18.55
336.997	-3.4
337.21	13.24
337.423	25.93
337.636	40.79
337.849	40.44
338.062	40.58
338.274	23.75
338.487	1.68
338.7	-28.63
338.913	-20.23
339.125	-15.29
339.338	1.02
339.551	1.56
339.763	3.86
339.976	-10.76
340.189	7.96
340.402	6.55
340.614	-5.53
340.827	11.5
341.039	31.89
341.252	20.85
341.465	33.36
341.677	44.47
341.89	36.9
342.102	35.62
342.315	34.69
342.527	19.78
342.74	4.76
342.952	13.71
343.165	18.49
343.377	24.44
343.59	26.66
343.802	38.06
344.015	31.76
344.227	18.93
344.44	5.69
344.652	6.74
344.864	-22.62
345.077	-5.85
345.289	8.91
345.502	13.73
345.714	6.92
345.926	36.41
346.139	29.02
346.351	13.95
346.563	12.04
346.775	14.13
346.988	-0.16
347.2	-3.04
347.412	0.01
347.624	18.73
347.837	19.68
348.049	25.84
348.261	32.19
348.473	39.5
348.685	23.79
348.897	28.86
349.11	30.47
349.322	39.16
349.534	41.38
349.746	51.75
349.958	59.11
350.17	51.31
350.382	44.15
350.594	32.58
350.806	30.21
351.018	9.42
351.23	7.26
351.442	-7.16
351.654	8.31
351.866	-11.6
352.078	8.89
352.29	5
352.502	23.85
352.714	16.79
352.926	36.39
353.138	45.85
353.35	52.69
353.561	27.76
353.773	34.97
353.985	14.7
354.197	16.11
354.409	11.7
354.621	7.49
354.832	-0.47
355.044	23.19
355.256	15
355.468	22.32
355.679	41.29
355.891	35.93
356.103	34.47
356.314	47.04
356.526	54.3
356.738	40.7
356.949	41.21
357.161	33.05
357.373	22.71
357.584	7.04
357.796	0.18
358.008	1.42
358.219	2.06
358.431	-1.79
358.642	-14.25
358.854	-1.64
359.065	4.58
359.277	-1.96
359.488	-3.34
359.7	10.45
359.911	17.18
360.123	14.32
360.334	27.04
360.546	27.44
360.757	24.37
360.969	16.25
361.18	18.91
361.391	16.36
361.603	4.14
361.814	18.43
362.025	30.91
362.237	38.93
362.448	29.64
362.659	39.2
362.871	37.29
363.082	26.51
363.293	16.17
363.504	24.08
363.716	17.1
363.927	8.15
364.138	-1.41
364.349	7.17
364.56	21.59
364.772	26.15
364.983	30.56
365.194	28.14
365.405	25.74
365.616	8.48
365.827	15.41
366.038	-2.1
366.25	-6.74
366.461	-11.99
366.672	-15.94
366.883	-8.68
367.094	4.52
367.305	24.32
367.516	25.59
367.727	28.32
367.938	22.23
368.149	25.71
368.36	13.1
368.571	13.68
368.781	11.38
368.992	2.97
369.203	-2.04
369.414	8.72
369.625	7.68
369.836	10.94
370.047	12.85
370.258	22.38
370.468	15.33
370.679	9.92
370.89	-3.13
371.101	6.95
371.312	-2.81
371.522	-6.5
371.733	-6.77
371.944	-7.36
372.155	-27.92
372.365	-22.28
372.576	-8.32
372.787	-7.2
372.997	11.68
373.208	5.86
373.419	10.36
373.629	20.77
373.84	32.75
374.05	15.51
374.261	27.22
374.472	26.72
374.682	1.87
374.893	11.53
375.103	24.71
375.314	24.61
375.524	21.57
375.735	44.29
375.945	36.8
376.156	30.4
376.366	17.93
376.577	31.67
376.787	18.72
376.997	19
377.208	16.52
377.418	25.62
377.629	15.01
377.839	24.77
378.049	29.63
378.26	37.74
378.47	38.55
378.68	38.71
378.89	29.52
379.101	35.11
379.311	33.53
379.521	30.3
379.732	26.1
379.942	27.71
380.152	14.57
380.362	-1.08
380.572	4.8
380.783	0.47
380.993	1.68
381.203	4.98
381.413	17.84
381.623	13.31
381.833	21.67
382.043	23.37
382.253	23.2
382.463	22.22
382.674	24.19
382.884	21.4
383.094	16.91
383.304	11.39
383.514	5.7
383.724	16.12
383.934	15.2
384.144	18.69
384.353	30.89
384.563	33.53
384.773	24.1
384.983	23.54
385.193	28.73
385.403	17.3
385.613	21
385.823	18.34
386.033	18.37
386.242	12.01
386.452	14.16
386.662	12.4
386.872	13.08
387.082	13.25
387.291	9.24
387.501	8.96
387.711	7.22
387.921	4.52
388.13	2.63
388.34	4.84
388.55	2.04
388.759	2.03
388.969	4.18
389.179	2.68
389.388	4.06
389.598	7.09
389.807	8.2
390.017	7.64
390.227	12.63
390.436	10.04
390.646	8.08
390.855	7.07
391.065	7.16
391.274	5.19
391.484	5.4
391.693	4.24
391.903	4.47
392.112	3.12
392.322	2.93
392.531	2.84
392.74	2.98
392.95	4.07
393.159	6.77
393.369	7.34
393.578	7.72
393.787	9.35
393.997	7.9
394.206	6.91
394.415	6.9
394.625	7.41
394.834	6.4
395.043	6.1
395.252	7.38
395.462	6.8
395.671	6.2
395.88	7.82
396.089	9.29
396.298	8.49
396.508	8.29
396.717	8.5
396.926	7.5
397.135	6.34
397.344	6.07
397.553	6.88
397.762	7.19
397.971	7.67
398.181	8.76
398.39	8.82
398.599	8.11
398.808	8.17
399.017	8.36
399.226	7.9
399.435	7.76
399.644	8.13
399.853	8.27
400.062	8.57
400.27	8.7
400.479	8.82
400.688	8.86
400.897	8.75
401.106	8.27
401.315	8.05
401.524	8.15
401.733	8.15
401.941	8.42
402.15	8.67
402.359	8.65
402.568	8.63
402.777	8.67
402.985	8.41
403.194	8.09
403.403	7.97
403.612	7.91
403.82	7.67
404.029	7.58
404.238	7.58
404.446	7.75
404.655	7.57
404.864	7.57
405.072	7.43
405.281	7.41
405.489	7.28
405.698	7.31
405.906	7.33
406.115	7.44
406.324	7.43
406.532	7.41
406.741	7.52
406.949	7.52
407.158	7.51
407.366	7.51
407.574	7.46
407.783	7.44
407.991	7.3
408.2	7.11
408.408	7.01
408.617	7.23
408.825	7.06
409.033	7.27
409.242	7.46
409.45	7.45
409.658	7.28
409.867	7.33
410.075	7.26
410.283	7.18
410.491	7.2
410.7	7.21
410.908	7.24
411.116	7.19
411.324	7.2
411.533	7.29
411.741	7.29
411.949	7.25
412.157	7.1
412.365	6.83
412.573	6.76
412.781	6.67
412.99	6.63
413.198	6.71
413.406	6.85
413.614	6.79
413.822	6.82
414.03	6.81
414.238	6.81
414.446	6.96
414.654	6.9
414.862	6.92
415.07	6.78
415.278	6.68
415.486	6.46
415.694	6.59
415.902	6.46
416.109	6.55
416.317	6.63
416.525	6.71
416.733	6.63
416.941	6.72
417.149	6.57
417.357	6.48
417.564	6.55
417.772	6.49
417.98	6.63
418.188	6.85
418.395	6.81
418.603	6.64
418.811	6.7
419.019	6.66
419.226	6.79
419.434	6.77
419.642	6.92
419.849	6.75
420.057	6.66
420.265	6.26
420.472	6.29
420.68	6.14
420.887	6.21
421.095	6.15
421.302	6.26
421.51	6.25
421.717	6.14
421.925	6.22
422.132	6.12
422.34	6.03
422.547	6.06
422.755	6.28
422.962	6.19
423.17	6.3
423.377	6.48
423.585	6.6
423.792	6.62
423.999	6.51
424.207	6.37
424.414	6.21
424.621	5.99
424.829	5.85
425.036	5.96
425.243	6.18
425.451	6.28
425.658	6.4
425.865	6.38
426.072	6.37
426.28	6.27
426.487	6.34
426.694	6.22
426.901	6.18
427.108	6.09
427.315	6.15
427.523	6.02
427.73	6.07
427.937	6.18
428.144	6.15
428.351	6.06
428.558	6.25
428.765	6.51
428.972	6.47
429.179	6.59
429.386	6.74
429.593	6.63
429.8	6.54
430.007	6.64
430.214	6.74
430.421	6.68
430.628	6.61
430.835	6.53
431.042	6.48
431.249	6.67
431.456	6.64
431.662	6.81
431.869	7.02
432.076	7.12
432.283	6.99
432.49	6.97
432.697	6.88
432.903	6.59
433.11	6.55
433.317	6.51
433.524	6.59
433.73	6.64
433.937	6.79
434.144	6.83
434.35	6.79
434.557	6.72
434.764	6.7
434.97	6.74
435.177	6.88
435.384	6.83
435.59	6.86
435.797	6.89
436.003	6.78
436.21	6.63
436.416	6.66
436.623	6.69
436.829	6.76
437.036	6.83
437.242	6.9
437.449	7.03
437.655	7.12
437.862	7.17
438.068	7.19
438.275	7.13
438.481	7.01
438.687	6.92
438.894	6.9
439.1	6.95
439.307	7.04
439.513	7.15
439.719	7.12
439.926	7.06
440.132	7.01
440.338	7.03
440.544	6.96
440.751	7.02
440.957	7.1
441.163	7.19
441.369	7.19
441.575	7.16
441.782	7.13
441.988	7.09
442.194	7
442.4	6.94
442.606	7.12
442.812	7.21
443.018	7.27
443.224	7.45
443.431	7.46
443.637	7.46
443.843	7.45
444.049	7.47
444.255	7.3
444.461	7.34
444.667	7.26
444.873	7.15
445.079	7.09
445.284	7.11
445.49	7.07
445.696	7.07
445.902	7.22
446.108	7.16
446.314	7.24
446.52	7.4
446.726	7.36
446.931	7.4
447.137	7.4
447.343	7.33
447.549	7.18
447.755	7.2
447.96	7.18
448.166	7.24
448.372	7.28
448.578	7.43
448.783	7.53
448.989	7.56
449.195	7.42
449.4	7.46
449.606	7.39
449.812	7.26
450.017	7.14
450.223	7.32
450.428	7.32
450.634	7.39
450.84	7.53
451.045	7.58
451.251	7.6
451.456	7.7
451.662	7.52
451.867	7.42
452.073	7.49
452.278	7.45
452.483	7.39
452.689	7.49
452.894	7.62
453.1	7.57
453.305	7.67
453.51	7.69
453.716	7.67
453.921	7.63
454.127	7.66
454.332	7.47
454.537	7.34
454.742	7.34
454.948	7.2
455.153	7.18
455.358	7.26
455.563	7.39
455.769	7.35
455.974	7.49
456.179	7.46
456.384	7.35
456.589	7.36
456.795	7.4
457	7.37
457.205	7.37
457.41	7.51
457.615	7.44
457.82	7.52
458.025	7.55
458.23	7.63
458.435	7.58
458.64	7.59
458.845	7.58
459.05	7.6
459.255	7.64
459.46	7.73
459.665	7.83
459.87	7.72
460.075	7.62
460.28	7.53
460.485	7.56
460.69	7.53
460.895	7.63
461.099	7.71
461.304	7.66
461.509	7.7
461.714	7.7
461.919	7.68
462.123	7.7
462.328	7.89
462.533	7.8
462.738	7.7
462.942	7.65
463.147	7.71
463.352	7.69
463.556	7.65
463.761	7.75
463.966	7.82
464.17	7.81
464.375	7.75
464.58	7.84
464.784	7.9
464.989	7.92
465.193	7.95
465.398	7.99
465.602	8.06
465.807	8.03
466.011	8.07
466.216	7.96
466.42	7.97
466.625	8.01
466.829	8.04
467.034	8.19
467.238	8.36
467.443	8.28
467.647	8.14
467.851	7.99
468.056	7.73
468.26	7.66
468.464	7.69
468.669	7.71
468.873	7.82
469.077	7.9
469.282	7.91
469.486	7.99
469.69	8.01
469.894	8.02
470.099	8.08
470.303	8.03
470.507	8.03
470.711	8.09
470.915	8.15
471.119	8.07
471.324	8.1
471.528	8.12
471.732	8.14
471.936	8.11
472.14	8.19
472.344	8.26
472.548	8.23
472.752	8.27
472.956	8.21
473.16	8.26
473.364	8.23
473.568	8.23
473.772	8.13
473.976	8.19
474.18	8.17
474.384	8.11
474.588	8.08
474.792	8.15
474.995	8.22
475.199	8.16
475.403	8.22
475.607	8.21
475.811	8.21
476.015	8.11
476.218	8.05
476.422	7.99
476.626	7.92
476.83	7.89
477.033	7.98
477.237	7.98
477.441	8.01
477.644	8.09
477.848	8.11
478.052	8.04
478.255	8.15
478.459	8.13
478.663	8.19
478.866	8.16
479.07	8.2
479.273	8.13
479.477	8.04
479.681	8.04
479.884	7.94
480.088	7.89
480.291	7.9
480.495	8.05
480.698	7.96
480.901	8.06
481.105	8.08
481.308	8.01
481.512	7.92
481.715	7.88
481.919	7.99
482.122	8.02
482.325	8.08
482.529	8.08
482.732	8.16
482.935	8.03
483.138	8.02
483.342	7.97
483.545	8.11
483.748	8.11
483.952	8.12
484.155	8.18
484.358	8.18
484.561	8.11
484.764	8.08
484.967	8.1
485.171	8.04
485.374	8.07
485.577	8.09
485.78	8.12
485.983	8.17
486.186	8.19
486.389	8.21
486.592	8.14
486.795	8.15
486.998	8.13
487.201	8.22
487.404	8.26
487.607	8.28
487.81	8.2
488.013	8.18
488.216	8.1
488.419	8.13
488.622	8.22
488.825	8.37
489.028	8.4
489.231	8.54
489.433	8.54
489.636	8.53
489.839	8.49
490.042	8.47
490.245	8.42
490.447	8.43
490.65	8.49
490.853	8.6
491.056	8.73
491.258	8.77
491.461	8.81
491.664	8.86
491.866	8.91
492.069	9
492.272	9.06
492.474	9.2
492.677	9.22
492.879	9.25
493.082	9.3
493.285	9.38
493.487	9.38
493.69	9.49
493.892	9.57
494.095	9.61
494.297	9.65
494.5	9.76
494.702	9.85
494.905	9.94
495.107	9.95
495.309	10.11
495.512	10.17
495.714	10.28
495.917	10.37
496.119	10.62
496.321	10.67
496.524	10.83
496.726	10.78
496.928	10.87
497.13	10.89
497.333	11
497.535	11
497.737	11.16
497.939	11.2
498.142	11.28
498.344	11.36
498.546	11.44
498.748	11.56
498.95	11.68
499.152	11.75
499.355	11.9
499.557	12.01
499.759	12.05
499.961	12.09
500.163	12.16
500.365	12.17
500.567	12.26
500.769	12.28
500.971	12.37
501.173	12.44
501.375	12.44
501.577	12.49
501.779	12.62
501.981	12.67
502.183	12.68
502.385	12.7
502.587	12.66
502.788	12.63
502.99	12.57
503.192	12.57
503.394	12.6
503.596	12.63
503.798	12.62
503.999	12.69
504.201	12.75
504.403	12.68
504.605	12.62
504.806	12.59
505.008	12.59
505.21	12.51
505.411	12.53
505.613	12.52
505.815	12.61
506.016	12.55
506.218	12.5
506.42	12.53
506.621	12.52
506.823	12.35
507.024	12.29
507.226	12.33
507.427	12.24
507.629	12.21
507.83	12.26
508.032	12.3
508.233	12.27
508.435	12.18
508.636	12.23
508.838	12.1
509.039	12
509.24	11.86
509.442	11.88
509.643	11.77
509.845	11.76
510.046	11.78
510.247	11.77
510.448	11.77
510.65	11.74
510.851	11.69
511.052	11.64
511.254	11.64
511.455	11.6
511.656	11.49
511.857	11.54
512.058	11.48
512.26	11.42
512.461	11.33
512.662	11.39
512.863	11.26
513.064	11.2
513.265	11.11
513.466	11.08
513.667	11.02
513.868	10.99
514.069	10.95
514.27	11.01
514.471	11.03
514.672	10.94
514.873	10.87
515.074	10.87
515.275	10.78
515.476	10.68
515.677	10.72
515.878	10.77
516.079	10.73
516.28	10.74
516.481	10.75
516.682	10.73
516.882	10.67
517.083	10.62
517.284	10.55
517.485	10.48
517.686	10.41
517.886	10.45
518.087	10.41
518.288	10.36
518.488	10.38
518.689	10.36
518.89	10.27
519.091	10.27
519.291	10.3
519.492	10.28
519.692	10.34
519.893	10.44
520.094	10.44
520.294	10.41
520.495	10.37
520.695	10.33
520.896	10.21
521.096	10.19
521.297	10.18
521.497	10.14
521.698	10.07
521.898	10.07
522.099	9.99
522.299	9.97
522.499	10.01
522.7	10.04
522.9	10.04
523.101	10.11
523.301	10.09
523.501	10.04
523.702	10.02
523.902	10
524.102	9.94
524.302	9.93
524.503	9.98
524.703	9.96
524.903	10
525.103	9.98
525.304	10.03
525.504	9.99
525.704	10
525.904	9.96
526.104	9.97
526.304	9.91
526.504	9.85
526.705	9.77
526.905	9.78
527.105	9.8
527.305	9.85
527.505	9.89
527.705	9.98
527.905	9.93
528.105	9.9
528.305	9.82
528.505	9.78
528.705	9.71
528.905	9.72
529.105	9.68
529.304	9.7
529.504	9.74
529.704	9.75
529.904	9.75
530.104	9.76
530.304	9.75
530.503	9.74
530.703	9.72
530.903	9.73
531.103	9.73
531.303	9.78
531.502	9.8
531.702	9.77
531.902	9.75
532.101	9.75
532.301	9.67
532.501	9.64
532.7	9.71
532.9	9.8
533.1	9.83
533.299	9.79
533.499	9.81
533.698	9.84
533.898	9.78
534.097	9.72
534.297	9.77
534.496	9.73
534.696	9.69
534.895	9.7
535.095	9.71
535.294	9.75
535.494	9.78
535.693	9.7
535.892	9.74
536.092	9.76
536.291	9.71
536.491	9.65
536.69	9.71
536.889	9.6
537.088	9.56
537.288	9.57
537.487	9.61
537.686	9.62
537.886	9.72
538.085	9.77
538.284	9.78
538.483	9.82
538.682	9.87
538.882	9.86
539.081	9.9
539.28	9.89
539.479	9.84
539.678	9.77
539.877	9.69
540.076	9.6
540.275	9.6
540.474	9.68
540.673	9.74
540.872	9.84
541.071	9.88
541.27	9.97
541.469	9.94
541.668	9.98
541.867	9.97
542.066	10.03
542.265	9.93
542.464	9.91
542.663	9.9
542.862	10.02
543.06	10.09
543.259	10.29
543.458	10.32
543.657	10.29
543.856	10.23
544.054	10.14
544.253	10.01
544.452	10.03
544.651	10.08
544.849	10.06
545.048	10.08
545.247	10.07
545.445	10.06
545.644	10.02
545.843	9.98
546.041	10.01
546.24	10.08
546.438	10.07
546.637	10.11
546.836	10.19
547.034	10.13
547.233	10.19
547.431	10.25
547.63	10.29
547.828	10.28
548.027	10.32
548.225	10.29
548.423	10.3
548.622	10.26
548.82	10.25
549.019	10.26
549.217	10.17
549.415	10.15
549.614	10.27
549.812	10.24
550.01	10.29
550.209	10.46
550.407	10.51
550.605	10.49
550.803	10.56
551.002	10.58
551.2	10.5
551.398	10.54
551.596	10.56
551.794	10.61
551.993	10.66
552.191	10.7
552.389	10.78
552.587	10.8
552.785	10.8
552.983	10.86
553.181	10.94
553.379	10.95
553.577	10.99
553.775	11.05
553.973	11.06
554.171	11.01
554.369	11.02
554.567	10.99
554.765	11.04
554.963	10.94
555.161	11.03
555.359	11.09
555.557	11.21
555.755	11.21
555.952	11.36
556.15	11.49
556.348	11.51
556.546	11.59
556.744	11.7
556.941	11.76
557.139	11.77
557.337	11.88
557.535	11.88
557.732	11.81
557.93	11.84
558.128	11.82
558.325	11.72
558.523	11.71
558.721	11.76
558.918	11.77
559.116	11.83
559.313	11.92
559.511	12.01
559.708	12.07
559.906	12.09
560.104	12.2
560.301	12.22
560.498	12.17
560.696	12.21
560.893	12.25
561.091	12.25
561.288	12.39
561.486	12.5
561.683	12.61
561.88	12.68
562.078	12.77
562.275	12.78
562.473	12.81
562.67	12.81
562.867	12.81
563.064	12.85
563.262	12.84
563.459	12.89
563.656	12.9
563.853	12.96
564.051	12.93
564.248	12.9
564.445	12.9
564.642	12.98
564.839	13.08
565.036	13.08
565.234	13.2
565.431	13.27
565.628	13.24
565.825	13.16
566.022	13.25
566.219	13.25
566.416	13.24
566.613	13.31
566.81	13.36
567.007	13.35
567.204	13.35
567.401	13.41
567.598	13.47
567.795	13.45
567.991	13.44
568.188	13.5
568.385	13.45
568.582	13.42
568.779	13.48
568.976	13.58
569.172	13.67
569.369	13.72
569.566	13.7
569.763	13.73
569.96	13.77
570.156	13.69
570.353	13.74
570.55	13.81
570.746	13.78
570.943	13.72
571.14	13.74
571.336	13.75
571.533	13.71
571.729	13.74
571.926	13.74
572.123	13.74
572.319	13.76
572.516	13.77
572.712	13.82
572.909	13.78
573.105	13.75
573.302	13.6
573.498	13.59
573.695	13.58
573.891	13.64
574.087	13.67
574.284	13.76
574.48	13.73
574.677	13.68
574.873	13.56
575.069	13.59
575.266	13.51
575.462	13.44
575.658	13.48
575.854	13.61
576.051	13.58
576.247	13.61
576.443	13.71
576.639	13.7
576.835	13.64
577.032	13.57
577.228	13.61
577.424	13.5
577.62	13.42
577.816	13.34
578.012	13.39
578.208	13.33
578.404	13.39
578.6	13.45
578.796	13.5
578.993	13.48
579.189	13.44
579.384	13.39
579.58	13.21
579.776	13.19
579.972	13.18
580.168	13.17
580.364	13.14
580.56	13.22
580.756	13.17
580.952	13.06
581.148	13.11
581.343	13.13
581.539	13.12
581.735	13.11
581.931	13.16
582.127	13.13
582.322	13.11
582.518	13.06
582.714	12.98
582.909	12.88
583.105	12.85
583.301	12.82
583.496	12.75
583.692	12.82
583.888	12.89
584.083	12.83
584.279	12.8
584.474	12.86
584.67	12.8
584.866	12.75
585.061	12.74
585.257	12.79
585.452	12.78
585.648	12.78
585.843	12.9
586.039	12.91
586.234	12.87
586.429	12.82
586.625	12.78
586.82	12.65
587.015	12.64
587.211	12.64
587.406	12.53
587.601	12.59
587.797	12.52
587.992	12.5
588.187	12.47
588.383	12.54
588.578	12.56
588.773	12.55
588.968	12.59
589.163	12.63
589.359	12.64
589.554	12.66
589.749	12.68
589.944	12.68
590.139	12.61
590.334	12.64
590.529	12.51
590.724	12.51
590.919	12.46
591.114	12.57
591.309	12.5
591.504	12.58
591.699	12.6
591.894	12.61
592.089	12.55
592.284	12.58
592.479	12.59
592.674	12.6
592.869	12.65
593.064	12.76
593.259	12.79
593.454	12.65
593.648	12.6
593.843	12.64
594.038	12.52
594.233	12.59
594.428	12.67
594.622	12.69
594.817	12.68
595.012	12.74
595.206	12.75
595.401	12.87
595.596	12.83
595.79	12.87
595.985	12.95
596.18	12.94
596.374	12.91
596.569	13.16
596.763	13.16
596.958	13.12
597.153	13.1
597.347	13.14
597.542	13.14
597.736	13.17
597.931	13.17
598.125	13.22
598.319	13.26
598.514	13.23
598.708	13.24
598.903	13.38
599.097	13.45
599.291	13.46
599.486	13.52
599.68	13.5
599.874	13.4
600.069	13.5
600.263	13.51
600.457	13.48
600.651	13.51
600.846	13.47
601.04	13.38
601.234	13.41
601.428	13.49
601.622	13.53
601.817	13.58
602.011	13.59
602.205	13.52
602.399	13.48
602.593	13.47
602.787	13.58
602.981	13.56
603.175	13.66
603.369	13.61
603.563	13.6
603.757	13.57
603.951	13.64
604.145	13.56
604.339	13.56
604.533	13.49
604.727	13.42
604.921	13.37
605.115	13.36
605.309	13.34
605.502	13.38
605.696	13.37
605.89	13.33
606.084	13.33
606.278	13.29
606.471	13.3
606.665	13.26
606.859	13.25
607.053	13.19
607.246	13.24
607.44	13.15
607.634	13.14
607.827	13.09
608.021	13.02
608.214	12.85
608.408	12.86
608.602	12.85
608.795	12.8
608.989	12.73
609.182	12.74
609.376	12.75
609.569	12.67
609.763	12.64
609.956	12.7
610.15	12.68
610.343	12.58
610.537	12.51
610.73	12.52
610.923	12.51
611.117	12.47
611.31	12.45
611.504	12.47
611.697	12.39
611.89	12.34
612.083	12.3
612.277	12.26
612.47	12.23
612.663	12.22
612.856	12.11
613.05	12.1
613.243	12.02
613.436	11.97
613.629	11.92
613.822	11.93
614.015	11.85
614.209	11.8
614.402	11.74
614.595	11.73
614.788	11.62
614.981	11.57
615.174	11.59
615.367	11.56
615.56	11.45
615.753	11.48
615.946	11.46
616.139	11.48
616.332	11.46
616.525	11.43
616.718	11.32
616.911	11.31
617.103	11.28
617.296	11.16
617.489	11.19
617.682	11.31
617.875	11.29
618.067	11.2
618.26	11.26
618.453	11.29
618.646	11.2
618.838	11.11
619.031	11.08
619.224	11.07
619.417	10.96
619.609	10.91
619.802	10.93
619.994	10.91
620.187	10.85
620.38	10.9
620.572	10.91
620.765	10.95
620.957	10.93
621.15	10.92
621.342	10.86
621.535	10.86
621.727	10.86
621.92	10.84
622.112	10.79
622.305	10.77
622.497	10.72
622.69	10.65
622.882	10.66
623.074	10.7
623.267	10.64
623.459	10.66
623.651	10.64
623.844	10.65
624.036	10.66
624.228	10.75
624.42	10.71
624.613	10.79
624.805	10.79
624.997	10.64
625.189	10.61
625.381	10.7
625.574	10.63
625.766	10.54
625.958	10.65
626.15	10.63
626.342	10.48
626.534	10.45
626.726	10.46
626.918	10.46
627.11	10.4
627.302	10.4
627.494	10.29
627.686	10.31
627.878	10.19
628.07	10.19
628.262	10.22
628.454	10.23
628.646	10.3
628.838	10.41
629.029	10.3
629.221	10.23
629.413	10.23
629.605	10.06
629.797	9.98
629.989	10.05
630.18	10.06
630.372	10.07
630.564	10.16
630.755	10.19
630.947	10.1
631.139	10.1
631.33	10.09
631.522	10.03
631.714	9.96
631.905	10.05
632.097	10.02
632.289	9.93
632.48	9.88
632.672	9.9
632.863	9.88
633.055	9.84
633.246	9.85
633.438	9.84
633.629	9.74
633.821	9.71
634.012	9.68
634.203	9.68
634.395	9.7
634.586	9.81
634.777	9.77
634.969	9.8
635.16	9.83
635.351	9.79
635.543	9.8
635.734	9.85
635.925	9.86
636.117	9.83
636.308	9.88
636.499	9.81
636.69	9.68
636.881	9.64
637.073	9.61
637.264	9.54
637.455	9.53
637.646	9.63
637.837	9.72
638.028	9.76
638.219	9.84
638.41	9.83
638.601	9.75
638.792	9.63
638.983	9.6
639.174	9.52
639.365	9.46
639.556	9.4
639.747	9.44
639.938	9.41
640.129	9.43
640.32	9.45
640.511	9.44
640.701	9.42
640.892	9.39
641.083	9.29
641.274	9.23
641.465	9.34
641.655	9.3
641.846	9.34
642.037	9.35
642.228	9.38
642.418	9.3
642.609	9.33
642.8	9.26
642.99	9.26
643.181	9.24
643.372	9.25
643.562	9.15
643.753	9.2
643.943	9.24
644.134	9.27
644.324	9.29
644.515	9.31
644.705	9.26
644.896	9.25
645.086	9.16
645.277	9.15
645.467	9.23
645.658	9.29
645.848	9.24
646.038	9.3
646.229	9.35
646.419	9.27
646.61	9.29
646.8	9.32
646.99	9.27
647.18	9.16
647.371	9.13
647.561	9.05
647.751	9.01
647.941	8.99
648.132	9.05
648.322	9.11
648.512	9.13
648.702	9.12
648.892	9.08
649.082	9.1
649.272	9.06
649.462	9.06
649.653	9.14
649.843	9.19
650.033	9.23
650.223	9.19
650.413	9.21
650.603	9.21
650.793	9.23
650.983	9.07
651.172	9.07
651.362	9.03
651.552	8.9
651.742	8.8
651.932	8.74
652.122	8.79
652.312	8.74
652.502	8.62
652.691	8.68
652.881	8.74
653.071	8.67
653.261	8.62
653.45	8.75
653.64	8.55
653.83	8.5
654.019	8.45
654.209	8.39
654.399	8.3
654.588	8.4
654.778	8.42
654.968	8.41
655.157	8.31
655.347	8.25
655.536	8.23
655.726	8.11
655.915	8.03
656.105	8.08
656.294	8.1
656.484	8.06
656.673	8.02
656.863	8.04
657.052	7.93
657.241	7.86
657.431	7.82
657.62	7.8
657.809	7.68
657.999	7.76
658.188	7.74
658.377	7.67
658.567	7.66
658.756	7.6
658.945	7.53
659.134	7.48
659.324	7.47
659.513	7.38
659.702	7.36
659.891	7.34
660.08	7.34
660.269	7.25
660.458	7.22
660.648	7.31
660.837	7.22
661.026	7.09
661.215	7.13
661.404	7.12
661.593	6.94
661.782	6.94
661.971	7.01
662.16	7.03
662.349	6.87
662.538	6.9
662.726	6.85
662.915	6.89
663.104	6.78
663.293	6.87
663.482	6.89
663.671	6.92
663.86	6.78
664.048	6.75
664.237	6.79
664.426	6.82
664.615	6.78
664.803	6.83
664.992	6.86
665.181	6.82
665.369	6.75
665.558	6.78
665.747	6.83
665.935	6.83
666.124	6.83
666.312	6.78
666.501	6.78
666.69	6.66
666.878	6.63
667.067	6.62
667.255	6.67
667.444	6.71
667.632	6.78
667.82	6.82
668.009	6.81
668.197	6.82
668.386	6.75
668.574	6.74
668.762	6.68
668.951	6.84
669.139	6.85
669.327	6.83
669.516	6.84
669.704	6.87
669.892	6.8
670.08	6.85
670.269	6.98
670.457	6.92
670.645	6.93
670.833	6.9
671.021	6.89
671.21	6.82
671.398	6.91
671.586	6.94
671.774	6.98
671.962	7.01
672.15	7.07
672.338	7.12
672.526	7.19
672.714	7.12
672.902	7.07
673.09	7.07
673.278	7.13
673.466	7.23
673.654	7.38
673.842	7.37
674.03	7.43
674.218	7.45
674.405	7.42
674.593	7.56
674.781	7.63
674.969	7.55
675.157	7.53
675.344	7.51
675.532	7.4
675.72	7.41
675.908	7.59
676.095	7.61
676.283	7.62
676.471	7.75
676.658	7.84
676.846	7.83
677.033	7.91
677.221	8.04
677.409	7.92
677.596	7.96
677.784	8.05
677.971	8.04
678.159	7.96
678.346	8.02
678.534	8.06
678.721	7.9
678.909	7.91
679.096	8.05
679.283	8.1
679.471	8.15
679.658	8.46
679.846	8.35
680.033	8.39
680.22	8.4
680.408	8.37
680.595	8.24
680.782	8.34
680.969	8.33
681.157	8.33
681.344	8.35
681.531	8.43
681.718	8.51
681.905	8.45
682.093	8.6
682.28	8.57
682.467	8.65
682.654	8.66
682.841	8.72
683.028	8.57
683.215	8.65
683.402	8.48
683.589	8.66
683.776	8.73
683.963	8.78
684.15	8.84
684.337	9.1
684.524	9.02
684.711	9.18
684.898	9.42
685.085	9.48
685.271	9.38
685.458	9.36
685.645	9.22
685.832	9.2
686.019	9.27
686.205	9.39
686.392	9.51
686.579	9.78
686.766	9.86
686.952	9.89
687.139	9.86
687.326	9.92
687.512	9.94
687.699	9.97
687.886	10.08
688.072	10.27
688.259	10.39
688.445	10.52
688.632	10.81
688.818	11.1
689.005	11.21
689.191	11.47
689.378	11.51
689.564	11.62
689.751	11.54
689.937	11.76
690.124	11.91
690.31	11.96
690.496	12.13
690.683	12.43
690.869	12.66
691.055	12.77
691.242	13.21
691.428	13.19
691.614	13.39
691.8	13.51
691.987	13.63
692.173	13.9
692.359	14.41
692.545	14.81
692.731	15.26
692.918	15.63
693.104	15.81
693.29	16
693.476	16.1
693.662	16.33
693.848	16.66
694.034	16.75
694.22	17.2
694.406	17.56
694.592	17.78
694.778	18.18
694.964	18.81
695.15	19.04
695.336	19.38
695.522	19.91
695.708	20.3
695.894	20.6
696.08	21.14
696.265	21.56
696.451	21.98
696.637	22.4
696.823	22.76
697.009	23.07
697.194	23.42
697.38	23.83
697.566	24.11
697.751	24.57
697.937	25.11
698.123	25.57
698.308	25.98
698.494	26.34
698.68	26.8
698.865	27.08
699.051	27.44
699.236	28.04
699.422	28.71
699.607	29.42
699.793	29.77
699.978	30.21
700.164	30.56
700.349	31.15
700.535	31.21
700.72	31.77
700.906	32.4
701.091	32.59
701.276	32.83
701.462	33.55
701.647	33.97
701.832	34.36
702.018	34.87
702.203	35.16
702.388	35.43
702.573	35.72
702.759	35.72
702.944	36
703.129	36.61
703.314	36.93
703.499	37.52
703.684	38.13
703.87	38.61
704.055	38.6
704.24	39.08
704.425	39.36
704.61	39.72
704.795	40.32
704.98	40.99
705.165	41.16
705.35	41.75
705.535	42.5
705.72	42.86
705.905	43.24
706.09	43.87
706.275	43.93
706.459	44.05
706.644	43.99
706.829	44.44
707.014	44.81
707.199	45.07
707.384	45.47
707.568	46.17
707.753	46.35
707.938	46.74
708.123	47.45
708.307	47.71
708.492	47.83
708.677	48.2
708.861	48.11
709.046	47.82
709.231	48.33
709.415	48.36
709.6	48.56
709.784	49.06
709.969	49.61
710.153	49.86
710.338	50.39
710.522	50.74
710.707	50.98
710.891	51.23
711.076	51.08
711.26	51.31
711.445	51.07
711.629	51.14
711.813	51.36
711.998	51.7
712.182	51.85
712.366	52.54
712.551	53.14
712.735	53.38
712.919	53.53
713.103	53.79
713.288	53.85
713.472	53.87
713.656	54.04
713.84	54.62
714.024	54.9
714.208	55.36
714.393	55.46
714.577	55.67
714.761	55.99
714.945	56.04
715.129	55.92
715.313	56.43
715.497	56.95
715.681	57.06
715.865	57.12
716.049	57.33
716.233	57.51
716.417	57.43
716.601	56.94
716.785	57.17
716.968	57.43
717.152	57.33
717.336	57.67
717.52	58.63
717.704	58.67
717.888	59.05
718.071	59.24
718.255	59.44
718.439	58.93
718.622	59.35
718.806	59.26
718.99	59.49
719.174	59.58
719.357	59.89
719.541	60.21
719.724	60.73
719.908	61.09
720.092	60.99
720.275	61.09
720.459	61.31
720.642	61.31
720.826	60.59
721.009	61
721.193	61.72
721.376	61.92
721.559	61.79
721.743	62.57
721.926	63.12
722.11	62.87
722.293	63.03
722.476	63.38
722.66	63.23
722.843	62.55
723.026	62.66
723.21	62.51
723.393	62.42
723.576	63.24
723.759	63.68
723.942	63.59
724.126	64
724.309	64.67
724.492	64.78
724.675	64.89
724.858	65.96
725.041	66.2
725.224	65.95
725.407	65.29
725.59	66.25
725.774	65.82
725.957	65.68
726.14	66.31
726.322	66.13
726.505	66.17
726.688	66.57
726.871	67.17
727.054	67.17
727.237	68.55
727.42	68.38
727.603	68.03
727.786	67.51
727.968	67.11
728.151	66.95
728.334	67.36
728.517	68.2
728.699	69.35
728.882	70.08
729.065	70.48
729.248	70.56
729.43	70.37
729.613	70.23
729.796	70.27
729.978	70.38
730.161	69.93
730.343	69.87
730.526	69.9
730.708	70.61
730.891	70.8
731.073	71.3
731.256	71.85
731.438	72.2
731.621	72.39
731.803	72.54
731.986	73.11
732.168	72.8
732.35	72.81
732.533	72.66
732.715	72.28
732.898	71.93
733.08	73.01
733.262	73.47
733.444	73.71
733.627	74.31
733.809	74.88
733.991	74.99
734.173	75.2
734.355	75.36
734.538	75.45
734.72	75.38
734.902	75.55
735.084	75.41
735.266	75.53
735.448	76.03
735.63	76.9
735.812	77.55
735.994	77.56
736.176	77.83
736.358	76.93
736.54	76.1
736.722	75.52
736.904	76.21
737.086	76.29
737.268	78.05
737.45	79.08
737.632	79.07
737.814	79.03
737.995	79.45
738.177	78.19
738.359	78.16
738.541	79.45
738.723	79.65
738.904	79.17
739.086	79.34
739.268	79.54
739.449	79.5
739.631	80.04
739.813	80.57
739.994	81.87
740.176	81.8
740.358	81.73
740.539	82.1
740.721	81.61
740.902	81.06
741.084	81.56
741.265	80.39
741.447	79.48
741.628	82.32
741.81	83.24
741.991	82.27
742.172	83.71
742.354	83.66
742.535	81.61
742.717	81.01
742.898	81.5
743.079	81.38
743.261	83.04
743.442	83.43
743.623	83.81
743.804	85
743.986	84.92
744.167	83.5
744.348	83.39
744.529	84.2
744.71	84.27
744.891	83.97
745.073	84.75
745.254	85.12
745.435	84.72
745.616	85.31
745.797	85.9
745.978	86.11
746.159	86.58
746.34	86.02
746.521	86.12
746.702	86.25
746.883	84.32
747.064	83.04
747.245	83.45
747.426	83.35
747.606	83.28
747.787	84.93
747.968	87.14
748.149	87.57
748.33	85.63
748.51	85.85
748.691	86.46
748.872	84.5
749.053	84.86
749.233	86.38
749.414	85.66
749.595	85.86
749.775	85.97
749.956	86.6
750.137	86.06
750.317	86.92
750.498	85.56
750.678	86.43
750.859	83.49
751.04	84.32
751.22	83.6
751.4	84.65
751.581	84.91
751.761	86.64
751.942	86.92
752.122	86.31
752.303	85.07
752.483	86.3
752.663	87.2
752.844	86.69
753.024	87.91
753.204	89.25
753.385	86.99
753.565	87.75
753.745	87.68
753.925	88.32
754.106	87.45
754.286	89.28
754.466	88.85
754.646	88.68
754.826	88.73
755.006	89.75
755.187	87.37
755.367	86.42
755.547	87.24
755.727	86.89
755.907	86.62
756.087	87.98
756.267	88.25
756.447	86.42
756.627	86.07
756.807	85.69
756.987	85.12
757.167	84.08
757.346	84.79
757.526	85.28
757.706	85.54
757.886	85.89
758.066	88.26
758.246	89.13
758.425	88.59
758.605	88.09
758.785	90.38
758.965	88.66
759.144	87.98
759.324	87.58
759.504	88.42
759.683	86.55
759.863	86.79
760.043	86.89
760.222	86.32
760.402	85
760.581	84.12
760.761	83.71
760.94	83.62
761.12	87.25
761.299	88.02
761.479	89.18
761.658	89.25
761.838	88.58
762.017	85.78
762.197	86.78
762.376	88.15
762.555	88
762.735	88.68
762.914	90.71
763.093	91.31
763.273	88.94
763.452	89.48
763.631	90.67
763.81	89.19
763.99	87.98
764.169	87
764.348	86.59
764.527	84.64
764.706	85.19
764.885	85.14
765.064	86.86
765.243	86.45
765.423	87.19
765.602	86.76
765.781	89.1
765.96	87.14
766.139	87.27
766.318	86.44
766.497	86.77
766.676	84.08
766.854	87.41
767.033	87.49
767.212	87.29
767.391	86.09
767.57	86.58
767.749	84.12
767.928	84.88
768.106	85.22
768.285	84.57
768.464	83.84
768.643	84.34
768.821	82.66
769	83.33
769.179	84.72
769.357	85.07
769.536	85.81
769.715	86.09
769.893	86.01
770.072	85.14
770.25	85.66
770.429	85.17
770.607	86.03
770.786	86.06
770.964	87.61
771.143	87.33
771.321	87.89
771.5	87.09
771.678	88.05
771.857	86.98
772.035	86.19
772.213	85.98
772.392	85.17
772.57	85.38
772.748	84.21
772.927	84.66
773.105	84.93
773.283	86.62
773.461	86.4
773.64	87.44
773.818	89.45
773.996	89.19
774.174	88.54
774.352	88.1
774.531	87.77
774.709	84.92
774.887	83.74
775.065	83.12
775.243	82.26
775.421	81.64
775.599	81.95
775.777	82.15
775.955	81.7
776.133	81.25
776.311	82.42
776.489	83.8
776.667	82.91
776.844	85.55
777.022	85.07
777.2	83.79
777.378	83.32
777.556	84.75
777.734	84.23
777.911	86.98
778.089	87.7
778.267	88.26
778.445	85.57
778.622	85.83
778.8	86.17
778.978	87.73
779.155	85.76
779.333	87.7
779.511	84.46
779.688	81.29
779.866	79.47
780.043	79.3
780.221	77.28
780.398	80.26
780.576	83.48
780.753	85.55
780.931	86.91
781.108	91.15
781.286	90.43
781.463	89.85
781.64	88.84
781.818	89.71
781.995	88.73
782.172	88.5
782.35	85.95
782.527	85.67
782.704	81.92
782.882	80.44
783.059	80.54
783.236	78.54
783.413	76.36
783.59	79.54
783.768	79.19
783.945	74.25
784.122	76.56
784.299	76.36
784.476	75.24
784.653	76.04
784.83	81.48
785.007	82.06
785.184	83.64
785.361	82.99
785.538	84.11
785.715	82.93
785.892	86.28
786.069	84.77
786.246	86.97
786.423	85.37
786.6	85.51
786.776	79.7
786.953	81.41
787.13	79.7
787.307	78.38
787.484	79.53
787.66	82.41
787.837	84.44
788.014	92.23
788.191	95.56
788.367	101.99
788.544	97.87
788.721	97.32
788.897	91.63
789.074	90.43
789.25	83.36
789.427	85.26
789.603	81.36
789.78	76.62
789.956	82.86
790.133	78.96
790.309	82.29
790.486	84.83
790.662	89.69
790.839	80.18
791.015	81.94
791.192	80.59
791.368	81.3
791.544	77.43
791.721	79.02
791.897	80.25
792.073	80.52
792.249	81.3
792.426	86.2
792.602	88.28
792.778	89.39
792.954	85.51
793.13	84.42
793.307	82.18
793.483	81.12
793.659	78.74
793.835	77.96
794.011	77.42
794.187	75.8
794.363	73.73
794.539	77.11
794.715	80.36
794.891	78.61
795.067	79.84
795.243	79.53
795.419	80.08
795.595	78.03
795.771	78.2
795.947	75.77
796.122	79.37
796.298	80.46
796.474	77.89
796.65	76.37
796.826	79.42
797.001	75.02
797.177	75.72
797.353	78
797.529	83.91
797.704	83.02
797.88	88.41
798.056	88.57
798.231	90.66
798.407	87.2
798.582	83.68
798.758	86.61
798.934	81.56
799.109	80.64
799.285	80.98
799.46	88
799.636	85.01
799.811	85.66
799.986	89.21
800.162	95.49
800.337	94.83
800.513	93.32
800.688	95.41
800.863	95.36
801.039	93.3
801.214	92.13
801.389	90.36
801.565	85.6
801.74	82.97
801.915	77.61
802.09	78.66
802.265	77.61
802.441	80.88
802.616	79.1
802.791	75.85
802.966	77.41
803.141	78.46
803.316	76.59
803.491	75.29
803.666	83.67
803.841	69.69
804.016	77.94
804.191	78.96
804.366	79.93
804.541	70.37
804.716	83.89
804.891	65.65
805.066	66.1
805.241	68.23
805.416	81.7
805.591	78.04
805.765	82.1
805.94	70.54
806.115	69.61
806.29	65.82
806.464	63.32
806.639	74.36
806.814	79.29
806.989	76.84
807.163	72.66
807.338	75.28
807.512	64.22
807.687	63.94
807.862	60.24
808.036	66.37
808.211	64.94
808.385	63.01
808.56	66.18
808.734	63.48
808.909	57.72
809.083	58.72
809.258	59.46
809.432	62.11
809.606	70.97
809.781	70.02
809.955	73.72
810.13	78.43
810.304	76.31
810.478	78.32
810.652	88.6
810.827	86.31
811.001	88.24
811.175	101.49
811.349	99.74
811.524	85.26
811.698	81.48
811.872	88.2
812.046	73.26
812.22	79.68
812.394	80.52
812.568	86.58
812.742	75.31
812.916	88.45
813.09	83.33
813.264	94.03
813.438	91.97
813.612	88.3
813.786	84.41
813.96	84.79
814.134	84.6
814.308	77.63
814.482	87.69
814.656	85.55
814.83	85.25
815.003	76.04
815.177	86.6
815.351	81.97
815.525	82.14
815.698	71.75
815.872	70.86
816.046	70.96
816.219	71.89
816.393	73.25
816.567	94.22
816.74	93.42
816.914	80.44
817.088	88.2
817.261	77.98
817.435	73.68
817.608	70.06
817.782	73.67
817.955	60.12
818.129	62.29
818.302	57.74
818.475	60.46
818.649	72.47
818.822	81.97
818.996	95.21
819.169	93.08
819.342	97.4
819.516	83.45
819.689	81.83
819.862	74.32
820.035	76.8
820.209	72.78
820.382	72.79
820.555	83.15
820.728	89.69
820.901	95.82
821.075	87.36
821.248	77.68
821.421	73.1
821.594	75.2
821.767	80.35
821.94	84.06
822.113	104.57
822.286	83.9
822.459	74.6
822.632	59.67
822.805	51.23
822.978	42.14
823.151	72.47
823.324	76.61
823.496	69.79
823.669	70.6
823.842	69.34
824.015	72.25
824.188	79.35
824.361	75.35
824.533	71.18
824.706	79.55
824.879	60.83
825.051	60.85
825.224	70.1
825.397	69.81
825.569	60.65
825.742	62.41
825.915	52.7
826.087	51.53
826.26	58.22
826.432	71.65
826.605	78.71
826.777	84.08
826.95	86
827.122	96.41
827.295	97.5
827.467	102.6
827.64	91.63
827.812	90.96
827.984	95.84
828.157	70.06
828.329	79.64
828.501	82.87
828.674	80.47
828.846	65.26
829.018	81.3
829.19	71.69
829.363	77.47
829.535	89.54
829.707	93.35
829.879	91.71
830.051	82.25
830.223	81.21
830.395	69.03
830.568	70.99
830.74	69.5
830.912	67.53
831.084	81.22
831.256	82.43
831.428	91.48
831.6	99.21
831.772	94.97
831.943	48.98
832.115	43.86
832.287	56.56
832.459	55.95
832.631	61.67
832.803	72.23
832.975	78.96
833.146	79.45
833.318	78.76
833.49	88.93
833.662	88.2
833.833	95.09
834.005	69.65
834.177	69.93
834.348	60.04
834.52	68.51
834.692	59.31
834.863	62.94
835.035	53.36
835.206	33.15
835.378	21.04
835.549	39.02
835.721	45.21
835.892	51.85
836.064	68.82
836.235	76.59
836.407	74.4
836.578	77.99
836.749	73.83
836.921	64.75
837.092	56.65
837.264	50.37
837.435	59.81
837.606	57.77
837.777	72.06
837.949	83.54
838.12	68.97
838.291	55.18
838.462	65.41
838.633	59.35
838.805	50.13
838.976	55.51
839.147	66.03
839.318	64.95
839.489	78.75
839.66	60.65
839.831	72.1
840.002	65.92
840.173	38.36
840.344	8.63
840.515	-1.43
840.686	-1.43
840.857	-2.42
841.028	16.78
841.199	49.86
841.369	70.78
841.54	90.78
841.711	66.22
841.882	74.46
842.053	35.64
842.223	25.38
842.394	14.48
842.565	21.13
842.736	42.16
842.906	47.13
843.077	42.65
843.248	81.52
843.418	107.48
843.589	86.25
843.759	72.06
843.93	105.68
844.101	76.74
844.271	71.36
844.442	49.67
844.612	57.21
844.783	38.16
844.953	41.57
845.123	56.77
845.294	100.58
845.464	100.37
845.635	69.76
845.805	83.52
845.975	59.67
846.146	26.11
846.316	35.97
846.486	49.23
846.656	46.29
846.827	78.89
846.997	83.26
847.167	94.22
847.337	58.87
847.507	62.31
847.677	51.83
847.848	64.22
848.018	76.56
848.188	118.23
848.358	104.92
848.528	58.65
848.698	56.7
848.868	38.96
849.038	35.4
849.208	59.85
849.378	82.86
849.548	83.5
849.718	102.92
849.887	108.25
850.057	81.39
850.227	112.32
850.397	104.74
850.567	88.41
850.737	56.27
850.906	54.83
851.076	32.03
851.246	32.75
851.415	27.78
851.585	24.68
851.755	38.58
851.924	42.58
852.094	30.9
852.264	49.14
852.433	47.07
852.603	31.26
852.772	56.71
852.942	54.57
853.111	53.09
853.281	52.38
853.45	55.48
853.62	33.79
853.789	26.69
853.959	7.21
854.128	14.2
854.297	17.89
854.467	17.11
854.636	27.26
854.805	33.76
854.975	33.42
855.144	64.47
855.313	39.23
855.482	63.78
855.652	51.72
855.821	54.09
855.99	70.84
856.159	152.59
856.328	135.6
856.497	188.76
856.667	156.01
856.836	219.91
857.005	179.39
857.174	167.58
857.343	-2.16
857.512	50.37
857.681	37.42
857.85	60.86
858.019	63.89
858.188	80.85
858.356	87.07
858.525	85.43
858.694	72.1
858.863	98.49
859.032	176.86
859.201	70.62
859.369	56.85
859.538	47.9
859.707	48.54
859.876	50.15
860.044	72.36
860.213	108.89
860.382	99.85
860.55	126.81
860.719	111.17
860.888	67.2
861.056	32.29
861.225	27.71
861.393	23.13
861.562	15.92
861.73	34.04
861.899	39.45
862.067	51.54
862.236	71.42
862.404	44.78
862.572	64.39
862.741	46.34
862.909	31.33
863.078	49.45
863.246	50.3
863.414	39.64
863.582	57.9
863.751	49.28
863.919	-3.63
864.087	4.05
864.255	-14.49
864.424	-36.52
864.592	-31.04
864.76	-24.03
864.928	-6.2
865.096	59.26
865.264	76.09
865.432	100.85
865.6	102.23
865.768	75.06
865.936	68.14
866.104	66.18
866.272	67.09
866.44	66.76
866.608	95.54
866.776	74.3
866.944	126.42
867.112	83.4
867.28	119.12
867.448	96.96
867.615	271.78
867.783	86.17
867.951	94.39
868.119	90.84
868.286	93.18
868.454	74.33
868.622	62.94
868.789	47.33
868.957	43.49
869.125	-15.56
869.292	-14.74
869.46	-9.9
869.627	13.16
869.795	0.26
869.963	8.44
870.13	14.18
870.298	12.5
870.465	-7.29
870.632	4.64
870.8	21.18
870.967	11.11
871.135	8.39
871.302	77.63
871.469	-219.76
871.637	90.95
871.804	106.23
871.971	74.73
872.139	49.26
872.306	32.89
872.473	29.05
872.64	16.66
872.807	20.91
872.975	-3.89
873.142	35.38
873.309	-520.29
873.476	388.73
873.643	145.79
873.81	87.16
873.977	100.94
874.144	86.83
874.311	52.31
874.478	48.89
874.645	75.93
874.812	58.04
874.979	59.57
875.146	54.7
875.313	35.69
875.48	-179.5
875.647	413.86
875.813	-543.56
875.98	1295.96
876.147	-341.03
876.314	-131.3
876.481	-151.32
876.647	-67.53
876.814	-35.03
876.981	7.77
877.147	84.69
877.314	76.24
877.481	68.21
877.647	113.87
877.814	84.83
877.98	41.37
878.147	-14.17
878.314	-30.43
878.48	-61.48
878.647	12.17
878.813	549.61
878.979	236.49
879.146	185.99
879.312	205.31
879.479	116.05
879.645	95.53
879.811	95.06
879.978	82
880.144	55.98
880.31	56.99
880.477	49.28
880.643	34.25
880.809	47.73
880.975	3348.48
881.142	-42.77
881.308	-737.33
881.474	105.49
881.64	33.94
881.806	14.41
881.972	22.19
882.138	51.01
882.304	39.99
882.47	50.78
882.636	14.54
882.802	114.53
882.968	233.86
883.134	169.5
883.3	119.22
883.466	149.99
883.632	150.63
883.798	81.91
883.964	49.21
884.129	78.37
884.295	70.54
884.461	44.24
884.627	78.12
884.793	71.24
884.958	115.52
885.124	83.68
885.29	109.13
885.455	167.19
885.621	156.06
885.787	79.88
885.952	64.57
886.118	11.32
886.283	401.75
886.449	36.75
886.614	18.65
886.78	50.08
886.945	9.27
887.111	8.86
887.276	1.81
887.442	10.81
887.607	11.84
887.773	36.49
887.938	33.22
888.103	60.47
888.269	37.05
888.434	9.85
888.599	3.94
888.764	22.62
888.93	-24.79
889.095	29
889.26	131.82
889.425	374.46
889.59	-1078.74
889.756	910.18
889.921	332.87
890.086	245
890.251	149.51
890.416	81.37
890.581	37.2
890.746	36.52
890.911	8.98
891.076	47.46
891.241	38.11
891.406	95.99
891.571	179.84
891.736	183.11
891.901	237.02
892.065	227.52
892.23	195.11
892.395	74.16
892.56	122.81
892.725	91.72
892.889	114.18
893.054	71.65
893.219	95.7
893.384	74.86
893.548	115.72
893.713	101.23
893.878	25.05
