Data from Ofav_PS_Phys_313_Reflection_3.txt Node
Date: Thu Jul 29 18:24:40 EDT 2021
User: USUARIO
Spectrometer: FLMT01687
Trigger mode: 0
Integration Time (sec): 9.010000E-1
Scans to average: 2
Electric dark correction enabled: true
Nonlinearity correction enabled: false
Boxcar width: 2
XAxis mode: Wavelengths
Number of Pixels in Spectrum: 3648
>>>>>Begin Spectral Data<<<<<
179.494	341.9
179.716	400
179.937	287.07
180.158	-1720.34
180.38	-127.59
180.601	-900
180.823	-314.24
181.044	-102.31
181.265	-18.61
181.486	-249.15
181.708	144.34
181.929	432.22
182.15	8300
182.372	-127.29
182.593	-24.69
182.814	2.84
183.035	-277.32
183.257	80.9
183.478	10.6
183.699	35.83
183.92	52.72
184.141	59.85
184.363	52.62
184.584	53.06
184.805	39.81
185.026	37.37
185.247	44.79
185.468	37.99
185.689	78.55
185.91	130.75
186.132	144.35
186.353	45.45
186.574	70.26
186.795	63.66
187.016	53.54
187.237	43.71
187.458	68.98
187.679	73.7
187.9	67.01
188.121	62.16
188.342	59.45
188.563	57.49
188.784	57.65
189.005	44.88
189.226	42.79
189.447	60.07
189.667	55.87
189.888	50.9
190.109	61.1
190.33	49.56
190.551	10.33
190.772	11.5
190.993	1.87
191.214	-2.16
191.434	26.2
191.655	42.62
191.876	19.74
192.097	-34.46
192.318	18.5
192.538	38.45
192.759	33.33
192.98	43.94
193.201	65.1
193.421	49.74
193.642	31.51
193.863	15.1
194.083	1.5
194.304	-3.97
194.525	10.98
194.745	5.68
194.966	8.08
195.187	22.83
195.407	14.68
195.628	-26.14
195.848	-3.44
196.069	27.55
196.29	18.27
196.51	21.22
196.731	36.95
196.951	55.25
197.172	1.72
197.392	17.67
197.613	29.49
197.833	2.44
198.054	-27.82
198.274	-8.51
198.495	-12.03
198.715	-41.99
198.936	-17.95
199.156	-10.3
199.377	20.73
199.597	8.21
199.817	40.29
200.038	38.15
200.258	44.03
200.479	5.94
200.699	11.41
200.919	12.99
201.14	1.1
201.36	3.18
201.58	18.22
201.801	33.57
202.021	64.67
202.241	80.14
202.461	90.82
202.682	109.79
202.902	99
203.122	68.99
203.342	66.36
203.563	66.22
203.783	54.39
204.003	23.38
204.223	-0.36
204.443	29.72
204.663	44.08
204.884	48.76
205.104	67.66
205.324	60.9
205.544	58.22
205.764	37.55
205.984	54.57
206.204	48.46
206.424	56.05
206.644	45.21
206.864	59.44
207.084	38.98
207.304	47.55
207.525	27.63
207.745	49.77
207.964	59.78
208.184	71.34
208.404	43.37
208.624	53.01
208.844	48.55
209.064	47.65
209.284	59.68
209.504	67.44
209.724	70.45
209.944	64.62
210.164	64.96
210.384	36.29
210.604	33.27
210.823	19.03
211.043	13.01
211.263	28.23
211.483	22.35
211.703	-2.9
211.922	8.66
212.142	19.71
212.362	-5.75
212.582	25.85
212.801	47.76
213.021	31.55
213.241	15.79
213.461	3.6
213.68	-45.8
213.9	-42.93
214.12	-27.77
214.339	-24.07
214.559	-24.41
214.779	-11.39
214.998	-48.67
215.218	-48.03
215.438	-8.96
215.657	6.22
215.877	18.29
216.096	39.67
216.316	47.77
216.535	27.25
216.755	16.81
216.974	-6.45
217.194	-17.58
217.413	-10.22
217.633	14.18
217.852	-16.95
218.072	3.59
218.291	10.44
218.511	33.39
218.73	8.38
218.95	25.65
219.169	19.98
219.389	4.15
219.608	-11.42
219.827	-11.73
220.047	-3.85
220.266	1.41
220.485	24.54
220.705	24.22
220.924	11.85
221.143	-2.67
221.363	-16.35
221.582	-39.59
221.801	-151.54
222.021	-61.6
222.24	-28.6
222.459	-36.24
222.678	-17.51
222.897	-12.27
223.117	-10.45
223.336	-1.95
223.555	1.81
223.774	-10.47
223.993	4.85
224.213	23.27
224.432	31.9
224.651	47.16
224.87	42.67
225.089	43.77
225.308	27.79
225.527	9.11
225.746	-4.84
225.965	3.28
226.184	-0.23
226.404	-13.24
226.623	10.88
226.842	5.45
227.061	-7.18
227.28	13.08
227.499	65.1
227.718	51.35
227.936	68.99
228.155	60.23
228.374	20.15
228.593	4.7
228.812	18.94
229.031	7.46
229.25	6.94
229.469	20.97
229.688	18.35
229.907	38.61
230.125	40.37
230.344	65.06
230.563	64.53
230.782	75.69
231.001	10.52
231.22	16.21
231.438	-8.32
231.657	4.37
231.876	2.23
232.095	19.69
232.313	16.45
232.532	21.61
232.751	19.87
232.969	15.48
233.188	6.05
233.407	-4.83
233.625	-8.58
233.844	-6.98
234.063	5.74
234.281	10.4
234.5	8.24
234.719	18.55
234.937	9.7
235.156	-36.6
235.374	-9.62
235.593	-6.06
235.811	-26.12
236.03	4.21
236.249	22.61
236.467	23.02
236.686	26.16
236.904	24.13
237.123	27.69
237.341	20.02
237.559	15.85
237.778	26.53
237.996	32.5
238.215	28.32
238.433	32.02
238.652	37.53
238.87	23.92
239.088	19.53
239.307	24.27
239.525	26.44
239.743	26.02
239.962	32.62
240.18	31.9
240.398	27.44
240.617	9.21
240.835	-11.13
241.053	1.31
241.271	24.49
241.49	27.6
241.708	46.51
241.926	55.52
242.144	32.91
242.363	17.04
242.581	4.89
242.799	-0.97
243.017	6.78
243.235	12.8
243.453	4.63
243.672	27.79
243.89	9.5
244.108	5.6
244.326	14.67
244.544	8.77
244.762	-8.76
244.98	-5.4
245.198	-2.56
245.416	-23.5
245.634	-12.75
245.852	17.22
246.07	49.42
246.288	60.08
246.506	67.5
246.724	63.16
246.942	36.1
247.16	31.09
247.378	7.03
247.596	24.19
247.814	18.32
248.032	22.07
248.25	21.84
248.468	33.51
248.685	15.28
248.903	20.09
249.121	15.79
249.339	-2.9
249.557	-3.16
249.775	15.48
249.992	7.68
250.21	10.55
250.428	35.94
250.646	23.68
250.863	20.81
251.081	33.67
251.299	43.5
251.517	30.27
251.734	52.43
251.952	31.58
252.17	32.66
252.387	20.46
252.605	21.43
252.823	-7.04
253.04	22.69
253.258	29.9
253.475	39.77
253.693	35.2
253.911	46.18
254.128	52.33
254.346	17.56
254.563	0.87
254.781	-14.16
254.998	15.38
255.216	-23.72
255.433	-7.56
255.651	0.41
255.868	8.58
256.086	3.93
256.303	16.66
256.521	35.86
256.738	31.48
256.956	34.06
257.173	22.88
257.39	30.22
257.608	9.05
257.825	24.97
258.043	12.57
258.26	20.44
258.477	11.46
258.695	3.62
258.912	-0.33
259.129	17.67
259.346	15.11
259.564	20.18
259.781	20.38
259.998	15.24
260.216	19.79
260.433	17.78
260.65	21.66
260.867	34.94
261.084	30.65
261.302	15.18
261.519	13.23
261.736	15.28
261.953	7.11
262.17	13.62
262.387	13.48
262.604	6.21
262.822	-3.13
263.039	10.29
263.256	-0.15
263.473	2.76
263.69	8.45
263.907	24.62
264.124	28.61
264.341	62.48
264.558	75.21
264.775	70.23
264.992	65.65
265.209	33.51
265.426	-0.32
265.643	8.89
265.86	9.48
266.077	10.3
266.294	25.92
266.51	20.01
266.727	19.85
266.944	31.15
267.161	20.59
267.378	21.19
267.595	47.22
267.812	32.84
268.028	11.03
268.245	31.76
268.462	30.65
268.679	24.57
268.896	25.74
269.112	27.95
269.329	21.17
269.546	18.59
269.763	7.88
269.979	7.99
270.196	20.23
270.413	19.75
270.629	20.65
270.846	36.16
271.063	39.82
271.279	26.8
271.496	13.55
271.712	16.33
271.929	18.44
272.146	42.07
272.362	38.45
272.579	62.29
272.795	62.21
273.012	39.95
273.228	15.8
273.445	29.19
273.661	1.41
273.878	-9.02
274.094	19.89
274.311	23.91
274.527	17.09
274.744	38.62
274.96	42.85
275.177	38.85
275.393	42.16
275.609	58.81
275.826	58.02
276.042	47.67
276.259	31.24
276.475	48.16
276.691	31.42
276.908	21.1
277.124	28.72
277.34	28.7
277.557	3.42
277.773	-12.63
277.989	-18.55
278.205	-16.42
278.422	-26.53
278.638	-25.99
278.854	-20.44
279.07	21.21
279.286	-2.27
279.503	21.04
279.719	40.86
279.935	33.77
280.151	11.69
280.367	31.44
280.583	34.13
280.799	5.41
281.016	3.38
281.232	6.08
281.448	4.04
281.664	-0.49
281.88	-2.92
282.096	8.84
282.312	4.73
282.528	17.02
282.744	34.44
282.96	45.13
283.176	54.84
283.392	67.62
283.608	56.92
283.824	37.33
284.04	43.36
284.256	45.97
284.471	32.41
284.687	26.92
284.903	23.9
285.119	18.2
285.335	13.26
285.551	20.37
285.767	19.99
285.982	23.9
286.198	23.97
286.414	23.39
286.63	25.39
286.846	26.82
287.061	16.12
287.277	19.11
287.493	17.54
287.709	1.55
287.924	2.59
288.14	15.97
288.356	8.74
288.571	11.5
288.787	18.07
289.003	11.2
289.218	4.01
289.434	12.55
289.65	38.13
289.865	41.2
290.081	36.69
290.296	39.27
290.512	47.18
290.727	27.61
290.943	24.93
291.159	34.55
291.374	28.92
291.59	21.29
291.805	17.84
292.021	20.98
292.236	14.42
292.451	-5.56
292.667	1.44
292.882	0.65
293.098	1.76
293.313	12.25
293.529	32.18
293.744	20.83
293.959	22.08
294.175	38.49
294.39	34.44
294.605	31.43
294.821	33.69
295.036	38.96
295.251	19.45
295.467	12.7
295.682	22.76
295.897	22.56
296.112	5.67
296.328	5.2
296.543	1.58
296.758	-16.42
296.973	-5.7
297.188	11.16
297.404	1.07
297.619	4.68
297.834	1.7
298.049	3.15
298.264	-0.59
298.479	27.05
298.694	22.65
298.909	36.03
299.125	31.98
299.34	45.53
299.555	20.46
299.77	18.46
299.985	-4.67
300.2	-12.27
300.415	-13.41
300.63	1.23
300.845	-4.43
301.06	2.97
301.275	15.63
301.49	4.9
301.704	16.32
301.919	31.43
302.134	31.54
302.349	22.78
302.564	28.15
302.779	22.79
302.994	24.85
303.209	34.74
303.423	40.63
303.638	38.65
303.853	27.15
304.068	24.63
304.283	15.85
304.497	14.32
304.712	-7.91
304.927	-3.13
305.142	-20.12
305.356	-32.01
305.571	-29.11
305.786	17.12
306	1.77
306.215	10.16
306.43	25.55
306.644	51.53
306.859	34.56
307.074	48.9
307.288	53.81
307.503	66.75
307.717	39.73
307.932	32
308.147	38.15
308.361	23
308.576	3.58
308.79	7.09
309.005	32.59
309.219	37.04
309.434	41.66
309.648	37.37
309.863	53.65
310.077	34.8
310.292	19.78
310.506	6.37
310.72	-0.14
310.935	-23.61
311.149	-1.76
311.364	9.66
311.578	28.86
311.792	19.95
312.007	22.93
312.221	15.1
312.435	15.13
312.649	14.23
312.864	-104.55
313.078	-53.9
313.292	-52.84
313.507	-20.84
313.721	-45.41
313.935	17
314.149	23.85
314.363	26.85
314.578	20.39
314.792	45.88
315.006	56.88
315.22	45.54
315.434	46.51
315.648	39.72
315.862	24.59
316.077	9.55
316.291	7.5
316.505	19.52
316.719	15.57
316.933	1.4
317.147	14.95
317.361	12.73
317.575	-17.09
317.789	-23.8
318.003	7.41
318.217	15.81
318.431	16.09
318.645	22.35
318.859	30.35
319.073	30.98
319.287	17.44
319.5	5.78
319.714	16.43
319.928	12.14
320.142	15.87
320.356	26.36
320.57	30.48
320.784	24.25
320.997	20.06
321.211	16.39
321.425	8.12
321.639	7.95
321.853	5.94
322.066	3.53
322.28	-1.61
322.494	9.87
322.707	26.03
322.921	24.81
323.135	21.06
323.349	26.83
323.562	9.23
323.776	6.98
323.989	25.09
324.203	47.48
324.417	50.32
324.63	52.7
324.844	41.1
325.057	16.97
325.271	-1.41
325.485	0.91
325.698	-1.93
325.912	5.06
326.125	6.74
326.339	9.06
326.552	10.03
326.766	9.55
326.979	14.43
327.193	29.42
327.406	35.03
327.619	16.61
327.833	11.94
328.046	8.03
328.26	4.68
328.473	1.6
328.686	16.6
328.9	20.44
329.113	8.95
329.326	19.63
329.54	-16.75
329.753	-18.56
329.966	2.8
330.179	8.42
330.393	3.15
330.606	22.25
330.819	40.73
331.032	30.9
331.246	22.37
331.459	7.43
331.672	2.13
331.885	-12.24
332.098	5.68
332.311	29.73
332.525	34.3
332.738	37.79
332.951	21.3
333.164	23.36
333.377	10.56
333.59	20.34
333.803	17.58
334.016	25.11
334.229	11.52
334.442	13.34
334.655	2.42
334.868	4.31
335.081	21.97
335.294	36.09
335.507	49.3
335.72	59.04
335.933	50.94
336.146	36.74
336.359	15.66
336.572	-10.33
336.785	-22.67
336.997	-17.77
337.21	3.11
337.423	9.83
337.636	22.63
337.849	24.9
338.062	20.02
338.274	9.47
338.487	12.14
338.7	-8.13
338.913	-18.23
339.125	-0.71
339.338	1.04
339.551	2.36
339.763	12.44
339.976	15.18
340.189	6.09
340.402	-3.42
340.614	-1.63
340.827	9.9
341.039	14.07
341.252	15.17
341.465	18.07
341.677	24.43
341.89	2.76
342.102	0.04
342.315	10.34
342.527	6.42
342.74	-7.49
342.952	2.09
343.165	6.19
343.377	-11.02
343.59	-5.38
343.802	5.98
344.015	28.59
344.227	32.71
344.44	45.2
344.652	47.12
344.864	41.13
345.077	40.3
345.289	25.06
345.502	17.42
345.714	8.93
345.926	3.63
346.139	-29.39
346.351	-16.59
346.563	-1
346.775	4.27
346.988	-3.22
347.2	9.97
347.412	7.08
347.624	12.88
347.837	11.19
348.049	22.78
348.261	15.12
348.473	13.15
348.685	23.51
348.897	19.77
349.11	24.14
349.322	22.4
349.534	34.5
349.746	15.69
349.958	34.08
350.17	18.42
350.382	37.41
350.594	22.72
350.806	39.08
351.018	19.52
351.23	23.45
351.442	-16.38
351.654	-0.59
351.866	-36.79
352.078	-4.96
352.29	-10.21
352.502	4.85
352.714	10.71
352.926	34.98
353.138	40.44
353.35	33.9
353.561	19.49
353.773	5.03
353.985	-10.54
354.197	-14.86
354.409	-4.93
354.621	-16.9
354.832	-20.39
355.044	-10.33
355.256	-5.65
355.468	-1.71
355.679	29.34
355.891	32.6
356.103	31.12
356.314	35.54
356.526	37.21
356.738	36.01
356.949	33.7
357.161	26.97
357.373	28.34
357.584	27.53
357.796	27.4
358.008	29.3
358.219	22.54
358.431	6.91
358.642	1.01
358.854	0.41
359.065	6.18
359.277	16.89
359.488	16.49
359.7	17.9
359.911	15.41
360.123	4.85
360.334	9
360.546	12.03
360.757	8.93
360.969	6.05
361.18	36.18
361.391	37.64
361.603	20.35
361.814	40.62
362.025	35.03
362.237	13.09
362.448	7.66
362.659	19.16
362.871	12.64
363.082	10.46
363.293	5.12
363.504	11.22
363.716	10.2
363.927	5.78
364.138	-0.91
364.349	4.71
364.56	6.57
364.772	-2.98
364.983	-8.09
365.194	-1.72
365.405	8.39
365.616	4.14
365.827	15.53
366.038	11.98
366.25	-7.15
366.461	-28.63
366.672	-35.57
366.883	-28.03
367.094	-26.14
367.305	4.95
367.516	21.81
367.727	16.04
367.938	15.25
368.149	20.52
368.36	23.37
368.571	19.53
368.781	19.85
368.992	1.52
369.203	-5.18
369.414	-1.44
369.625	7.17
369.836	18.11
370.047	26.8
370.258	44.97
370.468	36.24
370.679	24.31
370.89	11.7
371.101	16.05
371.312	-5.9
371.522	-12.39
371.733	4.51
371.944	2.22
372.155	-20.95
372.365	-13.77
372.576	-15.89
372.787	-22.08
372.997	-15.42
373.208	-1.92
373.419	-2.52
373.629	17.84
373.84	25.91
374.05	33.1
374.261	27.12
374.472	25.01
374.682	11.79
374.893	15.83
375.103	23.18
375.314	27.31
375.524	26.59
375.735	40.22
375.945	36.82
376.156	23.13
376.366	8.01
376.577	8.94
376.787	3.7
376.997	-5.67
377.208	-13.4
377.418	-9.08
377.629	-2.17
377.839	2.99
378.049	11.22
378.26	21.19
378.47	29.14
378.68	24.07
378.89	19.38
379.101	20.21
379.311	15.42
379.521	16.77
379.732	5.98
379.942	0.6
380.152	-0.33
380.362	2.33
380.572	-3.94
380.783	4.52
380.993	-2.94
381.203	-4.71
381.413	-6.5
381.623	-3.08
381.833	9.19
382.043	19.63
382.253	12.35
382.463	10.56
382.674	14.12
382.884	14.1
383.094	-0.38
383.304	-0.53
383.514	-1.6
383.724	7.72
383.934	0.16
384.144	9.75
384.353	15.67
384.563	22.37
384.773	21.33
384.983	15.84
385.193	15.84
385.403	8.39
385.613	5.83
385.823	-2.71
386.033	4.01
386.242	2.78
386.452	6.03
386.662	7.74
386.872	7.71
387.082	5.74
387.291	-1.97
387.501	0.11
387.711	-2.13
387.921	-3.45
388.13	-2.12
388.34	5.23
388.55	4.54
388.759	2.57
388.969	4
389.179	3.11
389.388	1.43
389.598	3.44
389.807	3.65
390.017	3.05
390.227	6.92
390.436	8.26
390.646	5.34
390.855	5.63
391.065	6.14
391.274	3.74
391.484	1.43
391.693	1.59
391.903	1.84
392.112	1.03
392.322	-1.45
392.531	-0.97
392.74	-1.23
392.95	-0.65
393.159	0.39
393.369	3.46
393.578	3.4
393.787	5.43
393.997	4.32
394.206	4.23
394.415	3.77
394.625	4.16
394.834	1.94
395.043	1.96
395.252	3.36
395.462	1.84
395.671	1.95
395.88	3.91
396.089	5.12
396.298	3.99
396.508	4.87
396.717	4.67
396.926	4.41
397.135	3.23
397.344	3.06
397.553	3.2
397.762	3.48
397.971	3.25
398.181	4.01
398.39	3.8
398.599	3.78
398.808	3.77
399.017	4.17
399.226	4.22
399.435	4.32
399.644	4.72
399.853	4.57
400.062	4.73
400.27	4.76
400.479	5.04
400.688	4.58
400.897	4.6
401.106	4.07
401.315	3.68
401.524	3.78
401.733	3.79
401.941	3.96
402.15	4.12
402.359	4.19
402.568	4.16
402.777	4.02
402.985	3.79
403.194	3.63
403.403	3.6
403.612	3.42
403.82	3.41
404.029	3.33
404.238	3.24
404.446	3.26
404.655	3.25
404.864	3.43
405.072	3.51
405.281	3.77
405.489	3.74
405.698	3.77
405.906	3.65
406.115	3.62
406.324	3.49
406.532	3.42
406.741	3.46
406.949	3.44
407.158	3.6
407.366	3.57
407.574	3.49
407.783	3.38
407.991	3.32
408.2	3.2
408.408	3.06
408.617	3.28
408.825	3.35
409.033	3.53
409.242	3.65
409.45	3.81
409.658	3.72
409.867	3.68
410.075	3.66
410.283	3.54
410.491	3.41
410.7	3.36
410.908	3.48
411.116	3.44
411.324	3.45
411.533	3.51
411.741	3.6
411.949	3.42
412.157	3.25
412.365	3.11
412.573	3.1
412.781	3.01
412.99	3.09
413.198	3.19
413.406	3.26
413.614	3.35
413.822	3.47
414.03	3.46
414.238	3.46
414.446	3.5
414.654	3.39
414.862	3.26
415.07	3.02
415.278	3.06
415.486	2.88
415.694	3.05
415.902	3
416.109	3.19
416.317	3.17
416.525	3.26
416.733	3.12
416.941	3.18
417.149	3.11
417.357	2.9
417.564	3
417.772	2.87
417.98	2.99
418.188	2.93
418.395	2.95
418.603	2.88
418.811	3
419.019	2.92
419.226	3.2
419.434	3.22
419.642	3.19
419.849	3.13
420.057	3.06
420.265	2.69
420.472	2.8
420.68	2.94
420.887	3.02
421.095	3.01
421.302	3.3
421.51	3.36
421.717	3.22
421.925	3.22
422.132	3.29
422.34	2.92
422.547	2.74
422.755	2.84
422.962	2.82
423.17	2.71
423.377	3.01
423.585	3.15
423.792	3.18
423.999	3.14
424.207	3.11
424.414	2.94
424.621	2.97
424.829	2.85
425.036	2.85
425.243	2.9
425.451	2.98
425.658	2.85
425.865	2.88
426.072	2.86
426.28	2.91
426.487	2.99
426.694	3.09
426.901	2.82
427.108	2.77
427.315	2.78
427.523	2.71
427.73	2.68
427.937	2.97
428.144	2.98
428.351	2.96
428.558	2.98
428.765	3.01
428.972	2.92
429.179	2.96
429.386	3.03
429.593	3.11
429.8	2.98
430.007	3.09
430.214	3.26
430.421	3.16
430.628	3.07
430.835	3.1
431.042	2.9
431.249	2.85
431.456	2.85
431.662	2.96
431.869	3.1
432.076	3.22
432.283	3.09
432.49	3.11
432.697	3.02
432.903	2.89
433.11	2.81
433.317	2.89
433.524	3.04
433.73	3.06
433.937	3.1
434.144	3.13
434.35	3.18
434.557	3.08
434.764	3.1
434.97	3.02
435.177	3.29
435.384	3.11
435.59	3.13
435.797	3.23
436.003	3.3
436.21	3.07
436.416	3.08
436.623	2.99
436.829	2.97
437.036	2.99
437.242	3.09
437.449	3.25
437.655	3.42
437.862	3.46
438.068	3.41
438.275	3.4
438.481	3.28
438.687	3.13
438.894	3.12
439.1	3.17
439.307	3.24
439.513	3.23
439.719	3.23
439.926	3.08
440.132	3.14
440.338	3.05
440.544	3.09
440.751	3.06
440.957	3.21
441.163	3.15
441.369	3.18
441.575	3.17
441.782	3.25
441.988	3.17
442.194	3.19
442.4	3.22
442.606	3.3
442.812	3.36
443.018	3.39
443.224	3.47
443.431	3.4
443.637	3.38
443.843	3.4
444.049	3.46
444.255	3.35
444.461	3.44
444.667	3.32
444.873	3.17
445.079	3.02
445.284	3.05
445.49	3.01
445.696	3.08
445.902	3.15
446.108	3.2
446.314	3.26
446.52	3.31
446.726	3.39
446.931	3.45
447.137	3.53
447.343	3.48
447.549	3.44
447.755	3.36
447.96	3.47
448.166	3.54
448.372	3.55
448.578	3.64
448.783	3.75
448.989	3.76
449.195	3.62
449.4	3.64
449.606	3.54
449.812	3.46
450.017	3.35
450.223	3.4
450.428	3.35
450.634	3.36
450.84	3.5
451.045	3.47
451.251	3.48
451.456	3.66
451.662	3.72
451.867	3.58
452.073	3.64
452.278	3.62
452.483	3.59
452.689	3.59
452.894	3.68
453.1	3.68
453.305	3.72
453.51	3.63
453.716	3.57
453.921	3.6
454.127	3.7
454.332	3.57
454.537	3.6
454.742	3.63
454.948	3.55
455.153	3.5
455.358	3.65
455.563	3.68
455.769	3.61
455.974	3.67
456.179	3.53
456.384	3.47
456.589	3.49
456.795	3.59
457	3.52
457.205	3.62
457.41	3.62
457.615	3.56
457.82	3.59
458.025	3.54
458.23	3.55
458.435	3.58
458.64	3.57
458.845	3.61
459.05	3.69
459.255	3.73
459.46	3.85
459.665	3.92
459.87	3.84
460.075	3.84
460.28	3.7
460.485	3.64
460.69	3.58
460.895	3.54
461.099	3.6
461.304	3.67
461.509	3.64
461.714	3.7
461.919	3.73
462.123	3.71
462.328	3.78
462.533	3.84
462.738	3.83
462.942	3.84
463.147	3.83
463.352	3.8
463.556	3.82
463.761	3.71
463.966	3.73
464.17	3.79
464.375	3.77
464.58	3.66
464.784	3.81
464.989	3.73
465.193	3.75
465.398	3.9
465.602	4.09
465.807	4.14
466.011	4.33
466.216	4.21
466.42	4.13
466.625	4.11
466.829	4.09
467.034	4.11
467.238	4.25
467.443	4.18
467.647	4.01
467.851	4
468.056	3.96
468.26	3.92
468.464	3.96
468.669	4.14
468.873	4.16
469.077	4.13
469.282	4.11
469.486	4.11
469.69	4
469.894	4.01
470.099	4.09
470.303	4.16
470.507	4.18
470.711	4.17
470.915	4.21
471.119	4.16
471.324	4.21
471.528	4.22
471.732	4.35
471.936	4.27
472.14	4.27
472.344	4.25
472.548	4.31
472.752	4.3
472.956	4.42
473.16	4.4
473.364	4.37
473.568	4.35
473.772	4.25
473.976	4.18
474.18	4.32
474.384	4.28
474.588	4.27
474.792	4.32
474.995	4.32
475.199	4.2
475.403	4.17
475.607	4.22
475.811	4.21
476.015	4.3
476.218	4.3
476.422	4.33
476.626	4.27
476.83	4.27
477.033	4.23
477.237	4.29
477.441	4.31
477.644	4.42
477.848	4.44
478.052	4.38
478.255	4.34
478.459	4.32
478.663	4.34
478.866	4.37
479.07	4.45
479.273	4.47
479.477	4.45
479.681	4.47
479.884	4.4
480.088	4.38
480.291	4.45
480.495	4.5
480.698	4.47
480.901	4.47
481.105	4.49
481.308	4.39
481.512	4.43
481.715	4.44
481.919	4.52
482.122	4.54
482.325	4.63
482.529	4.57
482.732	4.56
482.935	4.47
483.138	4.44
483.342	4.4
483.545	4.48
483.748	4.51
483.952	4.57
484.155	4.68
484.358	4.61
484.561	4.53
484.764	4.49
484.967	4.56
485.171	4.46
485.374	4.53
485.577	4.58
485.78	4.56
485.983	4.51
486.186	4.46
486.389	4.42
486.592	4.45
486.795	4.41
486.998	4.42
487.201	4.57
487.404	4.69
487.607	4.65
487.81	4.65
488.013	4.61
488.216	4.51
488.419	4.49
488.622	4.48
488.825	4.56
489.028	4.58
489.231	4.64
489.433	4.57
489.636	4.54
489.839	4.54
490.042	4.5
490.245	4.45
490.447	4.48
490.65	4.52
490.853	4.5
491.056	4.59
491.258	4.55
491.461	4.6
491.664	4.6
491.866	4.59
492.069	4.57
492.272	4.59
492.474	4.51
492.677	4.48
492.879	4.46
493.082	4.42
493.285	4.43
493.487	4.47
493.69	4.51
493.892	4.51
494.095	4.49
494.297	4.5
494.5	4.47
494.702	4.48
494.905	4.59
495.107	4.57
495.309	4.58
495.512	4.52
495.714	4.62
495.917	4.54
496.119	4.59
496.321	4.61
496.524	4.77
496.726	4.66
496.928	4.7
497.13	4.74
497.333	4.75
497.535	4.71
497.737	4.68
497.939	4.71
498.142	4.7
498.344	4.71
498.546	4.64
498.748	4.75
498.95	4.75
499.152	4.72
499.355	4.75
499.557	4.79
499.759	4.73
499.961	4.72
500.163	4.76
500.365	4.79
500.567	4.83
500.769	4.89
500.971	4.91
501.173	4.9
501.375	4.86
501.577	4.85
501.779	4.87
501.981	4.88
502.183	4.88
502.385	4.87
502.587	4.83
502.788	4.82
502.99	4.8
503.192	4.85
503.394	4.84
503.596	4.91
503.798	4.93
503.999	4.95
504.201	4.93
504.403	4.92
504.605	4.91
504.806	4.87
505.008	4.93
505.21	4.92
505.411	4.96
505.613	4.94
505.815	4.99
506.016	4.93
506.218	4.93
506.42	4.96
506.621	5.01
506.823	5.02
507.024	5.04
507.226	5.1
507.427	5.07
507.629	5.06
507.83	5.07
508.032	5.13
508.233	5.13
508.435	5.12
508.636	5.2
508.838	5.16
509.039	5.06
509.24	5.03
509.442	5.1
509.643	5.04
509.845	5.1
510.046	5.24
510.247	5.25
510.448	5.3
510.65	5.29
510.851	5.25
511.052	5.22
511.254	5.23
511.455	5.23
511.656	5.24
511.857	5.24
512.058	5.23
512.26	5.24
512.461	5.11
512.662	5.16
512.863	5.17
513.064	5.12
513.265	5.15
513.466	5.23
513.667	5.21
513.868	5.24
514.069	5.31
514.27	5.29
514.471	5.28
514.672	5.22
514.873	5.15
515.074	5.15
515.275	5.19
515.476	5.2
515.677	5.28
515.878	5.4
516.079	5.37
516.28	5.44
516.481	5.48
516.682	5.55
516.882	5.47
517.083	5.49
517.284	5.38
517.485	5.32
517.686	5.27
517.886	5.35
518.087	5.33
518.288	5.36
518.488	5.34
518.689	5.38
518.89	5.36
519.091	5.42
519.291	5.44
519.492	5.54
519.692	5.53
519.893	5.59
520.094	5.63
520.294	5.65
520.495	5.62
520.695	5.66
520.896	5.64
521.096	5.61
521.297	5.6
521.497	5.62
521.698	5.58
521.898	5.56
522.099	5.56
522.299	5.53
522.499	5.53
522.7	5.59
522.9	5.64
523.101	5.7
523.301	5.75
523.501	5.77
523.702	5.76
523.902	5.76
524.102	5.76
524.302	5.78
524.503	5.85
524.703	5.84
524.903	5.83
525.103	5.86
525.304	5.89
525.504	5.9
525.704	5.92
525.904	5.97
526.104	5.96
526.304	5.98
526.504	5.93
526.705	5.89
526.905	5.9
527.105	5.92
527.305	5.94
527.505	5.92
527.705	6.01
527.905	5.96
528.105	5.94
528.305	5.92
528.505	5.91
528.705	5.93
528.905	5.98
529.105	5.96
529.304	5.96
529.504	6
529.704	5.97
529.904	5.93
530.104	5.97
530.304	6
530.503	5.98
530.703	5.98
530.903	6.03
531.103	6.03
531.303	6.07
531.502	6.13
531.702	6.17
531.902	6.1
532.101	6.11
532.301	6.09
532.501	6.11
532.7	6.13
532.9	6.17
533.1	6.23
533.299	6.14
533.499	6.12
533.698	6.11
533.898	6.18
534.097	6.18
534.297	6.29
534.496	6.25
534.696	6.27
534.895	6.29
535.095	6.28
535.294	6.26
535.494	6.32
535.693	6.31
535.892	6.33
536.092	6.29
536.291	6.32
536.491	6.33
536.69	6.36
536.889	6.3
537.088	6.32
537.288	6.42
537.487	6.43
537.686	6.45
537.886	6.5
538.085	6.56
538.284	6.53
538.483	6.57
538.682	6.61
538.882	6.65
539.081	6.76
539.28	6.7
539.479	6.72
539.678	6.68
539.877	6.7
540.076	6.65
540.275	6.74
540.474	6.76
540.673	6.81
540.872	6.82
541.071	6.82
541.27	6.81
541.469	6.82
541.668	6.86
541.867	6.94
542.066	7.02
542.265	7.08
542.464	7.16
542.663	7.2
542.862	7.34
543.06	7.42
543.259	7.47
543.458	7.47
543.657	7.54
543.856	7.45
544.054	7.41
544.253	7.38
544.452	7.43
544.651	7.43
544.849	7.43
545.048	7.45
545.247	7.49
545.445	7.49
545.644	7.5
545.843	7.53
546.041	7.59
546.24	7.67
546.438	7.71
546.637	7.73
546.836	7.81
547.034	7.87
547.233	7.92
547.431	8
547.63	8.04
547.828	8.05
548.027	7.98
548.225	8.02
548.423	8.01
548.622	8.03
548.82	8.06
549.019	8.22
549.217	8.2
549.415	8.31
549.614	8.46
549.812	8.5
550.01	8.52
550.209	8.59
550.407	8.65
550.605	8.67
550.803	8.72
551.002	8.77
551.2	8.81
551.398	8.83
551.596	8.88
551.794	8.95
551.993	9.02
552.191	9.1
552.389	9.14
552.587	9.16
552.785	9.29
552.983	9.39
553.181	9.52
553.379	9.68
553.577	9.72
553.775	9.77
553.973	9.82
554.171	9.85
554.369	9.9
554.567	9.95
554.765	9.87
554.963	9.91
555.161	9.88
555.359	9.84
555.557	10.01
555.755	10.22
555.952	10.3
556.15	10.48
556.348	10.61
556.546	10.66
556.744	10.73
556.941	10.82
557.139	10.88
557.337	10.98
557.535	11.04
557.732	11.14
557.93	11.25
558.128	11.33
558.325	11.35
558.523	11.4
558.721	11.44
558.918	11.43
559.116	11.42
559.313	11.47
559.511	11.66
559.708	11.73
559.906	11.88
560.104	12
560.301	12.15
560.498	12.17
560.696	12.26
560.893	12.29
561.091	12.43
561.288	12.47
561.486	12.49
561.683	12.55
561.88	12.69
562.078	12.84
562.275	13
562.473	13.18
562.67	13.37
562.867	13.38
563.064	13.41
563.262	13.5
563.459	13.51
563.656	13.45
563.853	13.63
564.051	13.69
564.248	13.75
564.445	13.92
564.642	14.11
564.839	14.23
565.036	14.33
565.234	14.45
565.431	14.42
565.628	14.46
565.825	14.41
566.022	14.46
566.219	14.5
566.416	14.68
566.613	14.79
566.81	14.94
567.007	15.04
567.204	15.12
567.401	15.08
567.598	15.17
567.795	15.22
567.991	15.28
568.188	15.36
568.385	15.39
568.582	15.46
568.779	15.52
568.976	15.62
569.172	15.73
569.369	15.81
569.566	15.78
569.763	15.75
569.96	15.76
570.156	15.72
570.353	15.85
570.55	15.91
570.746	15.99
570.943	15.98
571.14	16.02
571.336	16.01
571.533	16.05
571.729	16.12
571.926	16.22
572.123	16.26
572.319	16.39
572.516	16.47
572.712	16.47
572.909	16.48
573.105	16.51
573.302	16.48
573.498	16.43
573.695	16.45
573.891	16.5
574.087	16.59
574.284	16.66
574.48	16.71
574.677	16.8
574.873	16.77
575.069	16.79
575.266	16.71
575.462	16.73
575.658	16.76
575.854	16.9
576.051	16.84
576.247	16.92
576.443	16.92
576.639	16.94
576.835	16.87
577.032	16.82
577.228	16.88
577.424	16.96
577.62	16.92
577.816	16.93
578.012	16.97
578.208	16.83
578.404	16.74
578.6	16.71
578.796	16.71
578.993	16.64
579.189	16.68
579.384	16.69
579.58	16.63
579.776	16.55
579.972	16.61
580.168	16.55
580.364	16.45
580.56	16.53
580.756	16.49
580.952	16.37
581.148	16.47
581.343	16.59
581.539	16.53
581.735	16.65
581.931	16.75
582.127	16.69
582.322	16.59
582.518	16.63
582.714	16.51
582.909	16.4
583.105	16.37
583.301	16.36
583.496	16.32
583.692	16.32
583.888	16.39
584.083	16.4
584.279	16.54
584.474	16.53
584.67	16.51
584.866	16.48
585.061	16.37
585.257	16.22
585.452	16.22
585.648	16.19
585.843	16.19
586.039	16.24
586.234	16.2
586.429	16.13
586.625	16.05
586.82	16.02
587.015	15.98
587.211	16.01
587.406	16.02
587.601	16.13
587.797	16.08
587.992	16.11
588.187	16.13
588.383	16.13
588.578	16.15
588.773	16.15
588.968	16.21
589.163	16.31
589.359	16.35
589.554	16.41
589.749	16.44
589.944	16.33
590.139	16.2
590.334	16.15
590.529	16.11
590.724	16.1
590.919	16.17
591.114	16.27
591.309	16.29
591.504	16.36
591.699	16.39
591.894	16.42
592.089	16.36
592.284	16.36
592.479	16.36
592.674	16.42
592.869	16.5
593.064	16.66
593.259	16.75
593.454	16.71
593.648	16.68
593.843	16.66
594.038	16.6
594.233	16.6
594.428	16.6
594.622	16.63
594.817	16.62
595.012	16.64
595.206	16.67
595.401	16.73
595.596	16.79
595.79	16.91
595.985	16.92
596.18	17
596.374	17.07
596.569	17.2
596.763	17.21
596.958	17.33
597.153	17.37
597.347	17.42
597.542	17.48
597.736	17.52
597.931	17.5
598.125	17.63
598.319	17.73
598.514	17.81
598.708	17.9
598.903	17.96
599.097	17.94
599.291	17.98
599.486	18
599.68	17.99
599.874	18.03
600.069	18.11
600.263	18.08
600.457	18.08
600.651	18.03
600.846	18.02
601.04	18
601.234	17.96
601.428	18.04
601.622	18.17
601.817	18.21
602.011	18.26
602.205	18.4
602.399	18.38
602.593	18.41
602.787	18.38
602.981	18.41
603.175	18.38
603.369	18.32
603.563	18.29
603.757	18.39
603.951	18.36
604.145	18.32
604.339	18.45
604.533	18.36
604.727	18.24
604.921	18.24
605.115	18.25
605.309	18.1
605.502	18.17
605.696	18.15
605.89	18.05
606.084	18.02
606.278	17.98
606.471	17.9
606.665	17.81
606.859	17.75
607.053	17.78
607.246	17.82
607.44	17.77
607.634	17.76
607.827	17.78
608.021	17.6
608.214	17.51
608.408	17.46
608.602	17.44
608.795	17.37
608.989	17.26
609.182	17.15
609.376	17.05
609.569	16.94
609.763	16.88
609.956	16.95
610.15	16.88
610.343	16.82
610.537	16.79
610.73	16.74
610.923	16.72
611.117	16.79
611.31	16.81
611.504	16.84
611.697	16.78
611.89	16.61
612.083	16.43
612.277	16.34
612.47	16.19
612.663	16.19
612.856	16.17
613.05	16.2
613.243	16.15
613.436	16.09
613.629	16
613.822	15.95
614.015	15.81
614.209	15.68
614.402	15.65
614.595	15.52
614.788	15.44
614.981	15.34
615.174	15.3
615.367	15.23
615.56	15.18
615.753	15.13
615.946	15.1
616.139	15.09
616.332	15.1
616.525	15.1
616.718	15.03
616.911	15.04
617.103	15.04
617.296	14.95
617.489	14.86
617.682	14.92
617.875	14.88
618.067	14.77
618.26	14.75
618.453	14.7
618.646	14.53
618.838	14.39
619.031	14.39
619.224	14.24
619.417	14.24
619.609	14.22
619.802	14.29
619.994	14.25
620.187	14.22
620.38	14.18
620.572	14.13
620.765	14.1
620.957	14.02
621.15	14.05
621.342	13.99
621.535	14.15
621.727	14.13
621.92	14.09
622.112	14.02
622.305	14
622.497	13.85
622.69	13.7
622.882	13.73
623.074	13.84
623.267	13.89
623.459	13.85
623.651	13.87
623.844	13.9
624.036	13.74
624.228	13.67
624.42	13.72
624.613	13.77
624.805	13.69
624.997	13.73
625.189	13.7
625.381	13.71
625.574	13.59
625.766	13.6
625.958	13.56
626.15	13.52
626.342	13.39
626.534	13.4
626.726	13.36
626.918	13.36
627.11	13.29
627.302	13.22
627.494	13.15
627.686	13.14
627.878	13.14
628.07	13.16
628.262	13.21
628.454	13.2
628.646	13.13
628.838	13.06
629.029	12.97
629.221	12.83
629.413	12.82
629.605	12.73
629.797	12.76
629.989	12.79
630.18	12.92
630.372	12.86
630.564	12.86
630.755	12.85
630.947	12.79
631.139	12.62
631.33	12.65
631.522	12.63
631.714	12.54
631.905	12.57
632.097	12.59
632.289	12.56
632.48	12.45
632.672	12.34
632.863	12.23
633.055	12.28
633.246	12.23
633.438	12.25
633.629	12.25
633.821	12.24
634.012	12.09
634.203	12.05
634.395	12.05
634.586	12.09
634.777	12.05
634.969	12.07
635.16	12.09
635.351	12.04
635.543	11.99
635.734	11.92
635.925	11.86
636.117	11.84
636.308	11.91
636.499	11.9
636.69	11.85
636.881	11.94
637.073	12.01
637.264	11.96
637.455	11.87
637.646	11.89
637.837	11.88
638.028	11.75
638.219	11.67
638.41	11.74
638.601	11.72
638.792	11.64
638.983	11.58
639.174	11.53
639.365	11.41
639.556	11.36
639.747	11.3
639.938	11.32
640.129	11.31
640.32	11.34
640.511	11.28
640.701	11.2
640.892	11.11
641.083	10.99
641.274	10.94
641.465	10.97
641.655	10.9
641.846	10.82
642.037	10.82
642.228	10.75
642.418	10.65
642.609	10.64
642.8	10.66
642.99	10.58
643.181	10.54
643.372	10.62
643.562	10.59
643.753	10.53
643.943	10.6
644.134	10.6
644.324	10.53
644.515	10.57
644.705	10.5
644.896	10.44
645.086	10.37
645.277	10.33
645.467	10.3
645.658	10.33
645.848	10.29
646.038	10.28
646.229	10.29
646.419	10.25
646.61	10.31
646.8	10.39
646.99	10.43
647.18	10.36
647.371	10.3
647.561	10.19
647.751	9.98
647.941	9.88
648.132	9.95
648.322	10
648.512	10.05
648.702	10.12
648.892	10.09
649.082	10.09
649.272	9.94
649.462	9.8
649.653	9.8
649.843	9.88
650.033	9.89
650.223	10
650.413	10.12
650.603	10.13
650.793	10.06
650.983	9.9
651.172	9.89
651.362	9.84
651.552	9.77
651.742	9.75
651.932	9.71
652.122	9.7
652.312	9.67
652.502	9.51
652.691	9.56
652.881	9.55
653.071	9.44
653.261	9.34
653.45	9.38
653.64	9.17
653.83	9.14
654.019	9.1
654.209	9.1
654.399	9.07
654.588	9.1
654.778	9.05
654.968	8.99
655.157	8.92
655.347	8.84
655.536	8.76
655.726	8.67
655.915	8.65
656.105	8.54
656.294	8.53
656.484	8.44
656.673	8.39
656.863	8.32
657.052	8.29
657.241	8.19
657.431	8.07
657.62	7.93
657.809	7.78
657.999	7.72
658.188	7.62
658.377	7.61
658.567	7.62
658.756	7.43
658.945	7.26
659.134	7.18
659.324	7.08
659.513	6.95
659.702	6.94
659.891	6.97
660.08	6.96
660.269	6.79
660.458	6.71
660.648	6.72
660.837	6.59
661.026	6.45
661.215	6.5
661.404	6.37
661.593	6.19
661.782	6.12
661.971	6.08
662.16	5.93
662.349	5.87
662.538	5.9
662.726	5.87
662.915	5.73
663.104	5.67
663.293	5.66
663.482	5.65
663.671	5.57
663.86	5.5
664.048	5.45
664.237	5.48
664.426	5.37
664.615	5.38
664.803	5.46
664.992	5.4
665.181	5.31
665.369	5.3
665.558	5.22
665.747	5.18
665.935	5.26
666.124	5.15
666.312	5.17
666.501	5.23
666.69	5.15
666.878	5.08
667.067	5.18
667.255	5.13
667.444	5.19
667.632	5.29
667.82	5.33
668.009	5.32
668.197	5.33
668.386	5.14
668.574	5.11
668.762	5.05
668.951	5.14
669.139	5.18
669.327	5.29
669.516	5.25
669.704	5.36
669.892	5.31
670.08	5.33
670.269	5.33
670.457	5.41
670.645	5.37
670.833	5.37
671.021	5.33
671.21	5.34
671.398	5.34
671.586	5.3
671.774	5.39
671.962	5.44
672.15	5.54
672.338	5.59
672.526	5.66
672.714	5.63
672.902	5.6
673.09	5.64
673.278	5.7
673.466	5.92
673.654	6.22
673.842	6.33
674.03	6.45
674.218	6.46
674.405	6.4
674.593	6.25
674.781	6.36
674.969	6.3
675.157	6.36
675.344	6.4
675.532	6.46
675.72	6.43
675.908	6.61
676.095	6.59
676.283	6.77
676.471	7.04
676.658	7.13
676.846	7.23
677.033	7.51
677.221	7.48
677.409	7.25
677.596	7.32
677.784	7.14
677.971	7.14
678.159	7.29
678.346	7.47
678.534	7.64
678.721	7.8
678.909	7.83
679.096	7.81
679.283	7.9
679.471	7.86
679.658	8.16
679.846	8.15
680.033	8.35
680.22	8.37
680.408	8.4
680.595	8.29
680.782	8.45
680.969	8.47
681.157	8.51
681.344	8.61
681.531	8.74
681.718	8.89
681.905	8.9
682.093	9.08
682.28	9.19
682.467	9.35
682.654	9.42
682.841	9.54
683.028	9.52
683.215	9.64
683.402	9.66
683.589	9.76
683.776	9.91
683.963	10.01
684.15	10.1
684.337	10.36
684.524	10.37
684.711	10.49
684.898	10.81
685.085	11.05
685.271	10.97
685.458	11.16
685.645	11.34
685.832	11.45
686.019	11.63
686.205	11.96
686.392	12.22
686.579	12.42
686.766	12.6
686.952	12.77
687.139	13.09
687.326	13.26
687.512	13.5
687.699	13.8
687.886	14.18
688.072	14.37
688.259	14.75
688.445	15.13
688.632	15.5
688.818	15.87
689.005	16.3
689.191	16.64
689.378	17.07
689.564	17.38
689.751	17.8
689.937	18.26
690.124	18.85
690.31	19.23
690.496	19.77
690.683	20.18
690.869	20.59
691.055	21.04
691.242	21.57
691.428	22.02
691.614	22.51
691.8	23.01
691.987	23.49
692.173	24.09
692.359	24.77
692.545	25.48
692.731	25.93
692.918	26.6
693.104	27.24
693.29	27.86
693.476	28.55
693.662	29.45
693.848	30.11
694.034	30.52
694.22	30.86
694.406	31.57
694.592	32.07
694.778	32.59
694.964	33.29
695.15	34.17
695.336	34.53
695.522	35.32
695.708	36.19
695.894	36.88
696.08	37.62
696.265	38.3
696.451	38.91
696.637	39.24
696.823	40.09
697.009	40.67
697.194	41.2
697.38	42.05
697.566	42.9
697.751	43.3
697.937	43.91
698.123	44.79
698.308	45.14
698.494	45.54
698.68	46.33
698.865	47.09
699.051	47.63
699.236	48.33
699.422	49.25
699.607	49.82
699.793	50.43
699.978	51.12
700.164	51.86
700.349	52.59
700.535	53.18
700.72	53.39
700.906	53.82
701.091	54.14
701.276	54.57
701.462	55.36
701.647	56.12
701.832	56.98
702.018	57.68
702.203	58.04
702.388	58.26
702.573	58.54
702.759	58.52
702.944	58.79
703.129	59.32
703.314	59.74
703.499	60.67
703.684	61.16
703.87	61.82
704.055	62.14
704.24	62.77
704.425	62.99
704.61	63.5
704.795	63.8
704.98	64.04
705.165	64.27
705.35	64.76
705.535	65.33
705.72	65.85
705.905	66.45
706.09	66.79
706.275	66.88
706.459	67.2
706.644	67.11
706.829	67.76
707.014	68.45
707.199	69.06
707.384	69.18
707.568	69.95
707.753	70.48
707.938	70.64
708.123	71.25
708.307	71.97
708.492	71.66
708.677	71.49
708.861	71.21
709.046	70.88
709.231	71.02
709.415	71.63
709.6	71.96
709.784	72.69
709.969	72.84
710.153	72.94
710.338	73.37
710.522	73.73
710.707	74.1
710.891	74.83
711.076	75.33
711.26	75.77
711.445	75.71
711.629	75.68
711.813	75.43
711.998	75.63
712.182	75.86
712.366	76.34
712.551	76.96
712.735	77.81
712.919	77.89
713.103	77.9
713.288	77.93
713.472	77.94
713.656	77.79
713.84	78.29
714.024	78.6
714.208	79.01
714.393	79.23
714.577	79.46
714.761	79.64
714.945	79.88
715.129	79.8
715.313	80.04
715.497	80.44
715.681	80.52
715.865	80.53
716.049	80.75
716.233	80.82
716.417	81
716.601	81.01
716.785	81.24
716.968	81.15
717.152	81.87
717.336	81.91
717.52	82.03
717.704	81.85
717.888	81.57
718.071	81.11
718.255	81.29
718.439	81.12
718.622	81.07
718.806	81.71
718.99	82.03
719.174	82.17
719.357	82.43
719.541	83.4
719.724	83.61
719.908	83.84
720.092	83.91
720.275	84.21
720.459	83.81
720.642	84.53
720.826	84.04
721.009	84.49
721.193	84.99
721.376	85.07
721.559	84.82
721.743	85.31
721.926	85.21
722.11	85.21
722.293	85.93
722.476	85.96
722.66	86.02
722.843	85.8
723.026	85.59
723.21	85.19
723.393	85.43
723.576	85.8
723.759	86.39
723.942	86.39
724.126	86.71
724.309	87
724.492	86.44
724.675	86.24
724.858	86.51
725.041	86.37
725.224	86.23
725.407	86.29
725.59	86.68
725.774	87.02
725.957	87.27
726.14	87.35
726.322	87.64
726.505	87.9
726.688	87.94
726.871	88.65
727.054	88.46
727.237	88.99
727.42	89.02
727.603	89.09
727.786	88.5
727.968	88.92
728.151	88.96
728.334	88.96
728.517	89.4
728.699	89.77
728.882	89.51
729.065	89.36
729.248	89.49
729.43	89.03
729.613	89.13
729.796	89.63
729.978	90.81
730.161	90.2
730.343	90.54
730.526	90.71
730.708	91.07
730.891	90.9
731.073	91.26
731.256	90.95
731.438	90.88
731.621	91.62
731.803	91.97
731.986	91.88
732.168	91.98
732.35	91.95
732.533	91.32
732.715	90.11
732.898	90.36
733.08	91.08
733.262	91.81
733.444	91.89
733.627	92.55
733.809	92.22
733.991	92.48
734.173	92.25
734.355	92.42
734.538	92.81
734.72	92.96
734.902	92.34
735.084	91.54
735.266	91.78
735.448	90.87
735.63	91.42
735.812	92.87
735.994	93.74
736.176	94.01
736.358	94.44
736.54	93.74
736.722	92.09
736.904	92.17
737.086	91.62
737.268	92.18
737.45	93.18
737.632	93.24
737.814	93.71
737.995	93.95
738.177	94.04
738.359	93.45
738.541	94.67
738.723	94.5
738.904	93.93
739.086	93.17
739.268	94.4
739.449	93.31
739.631	92.43
739.813	93.06
739.994	93.96
740.176	92.93
740.358	94.01
740.539	95.05
740.721	94.44
740.902	94.55
741.084	94.93
741.265	94.49
741.447	95.05
741.628	96.89
741.81	95.58
741.991	95.4
742.172	95.42
742.354	94.16
742.535	92.72
742.717	93.3
742.898	93.4
743.079	93.8
743.261	95
743.442	95.14
743.623	96.52
743.804	96.54
743.986	96.78
744.167	95.45
744.348	95.43
744.529	95.09
744.71	95.85
744.891	94.75
745.073	94.44
745.254	94
745.435	92.79
745.616	92.07
745.797	92.16
745.978	93.75
746.159	93.9
746.34	93.89
746.521	94.79
746.702	95.13
746.883	93.38
747.064	93.12
747.245	94.16
747.426	93.84
747.606	93.83
747.787	94.54
747.968	96.06
748.149	96.24
748.33	95.19
748.51	94.68
748.691	93.92
748.872	93.81
749.053	92.61
749.233	92.64
749.414	92.36
749.595	94.36
749.775	92.8
749.956	92.92
750.137	93.67
750.317	94.41
750.498	92.65
750.678	93.04
750.859	91.71
751.04	91.01
751.22	90.96
751.4	91.84
751.581	90.89
751.761	92.43
751.942	95.1
752.122	94.94
752.303	93.38
752.483	94.29
752.663	94.24
752.844	92.11
753.024	93.52
753.204	94.99
753.385	93.75
753.565	94.59
753.745	94.97
753.925	95.25
754.106	94.81
754.286	96.28
754.466	96.18
754.646	96.83
754.826	93.65
755.006	93.55
755.187	92.24
755.367	91.62
755.547	91.08
755.727	93.53
755.907	92.27
756.087	92.99
756.267	93.07
756.447	92.35
756.627	91.39
756.807	93.43
756.987	94.25
757.167	93.88
757.346	92.91
757.526	92.17
757.706	91.18
757.886	89.96
758.066	91.75
758.246	93.48
758.425	93.39
758.605	92.43
758.785	94.55
758.965	92.53
759.144	91.24
759.324	91.58
759.504	93.97
759.683	94.31
759.863	94.6
760.043	95.71
760.222	94.34
760.402	92.69
760.581	91.8
760.761	92.38
760.94	92.2
761.12	96.19
761.299	95.47
761.479	95.43
761.658	93.6
761.838	91.8
762.017	90.22
762.197	91.73
762.376	91.22
762.555	92.13
762.735	94.24
762.914	95.38
763.093	95.6
763.273	94.84
763.452	95.7
763.631	95.85
763.81	94.19
763.99	93.44
764.169	93.37
764.348	92.5
764.527	90.88
764.706	89.55
764.885	89.49
765.064	90.08
765.243	90.16
765.423	91.58
765.602	93.06
765.781	92.98
765.96	91.86
766.139	91.21
766.318	90.06
766.497	89.09
766.676	89.99
766.854	91.57
767.033	91.98
767.212	92.12
767.391	91.53
767.57	89.97
767.749	90.03
767.928	89.37
768.106	87.67
768.285	86.38
768.464	85.36
768.643	85.19
768.821	84.54
769	86.99
769.179	89.18
769.357	90
769.536	89.69
769.715	91.95
769.893	92.09
770.072	91.82
770.25	91.16
770.429	90.97
770.607	90.65
770.786	88.49
770.964	88.23
771.143	89.54
771.321	90.06
771.5	88.54
771.678	91.54
771.857	91.65
772.035	92.56
772.213	90.83
772.392	90.11
772.57	89.67
772.748	88.1
772.927	88.16
773.105	89.29
773.283	91.44
773.461	90.89
773.64	91.77
773.818	90.34
773.996	89.79
774.174	88
774.352	86.15
774.531	87.9
774.709	86.91
774.887	87
775.065	85.9
775.243	84.54
775.421	83.02
775.599	82.66
775.777	80.78
775.955	81.82
776.133	83.08
776.311	84.68
776.489	85.48
776.667	86.71
776.844	89.6
777.022	90.67
777.2	86.66
777.378	84.63
777.556	83.33
777.734	81.37
777.911	83.32
778.089	84.28
778.267	85
778.445	82.24
778.622	82.86
778.8	80.94
778.978	81.01
779.155	81.66
779.333	83.82
779.511	81.31
779.688	80.92
779.866	80.75
780.043	78.68
780.221	77.66
780.398	79.99
780.576	80.22
780.753	79.88
780.931	82.13
781.108	85
781.286	84.42
781.463	83.81
781.64	85.54
781.818	90.45
781.995	90.95
782.172	91.67
782.35	91.61
782.527	92.04
782.704	88.11
782.882	89.28
783.059	86.88
783.236	82.85
783.413	81.2
783.59	80.91
783.768	75.32
783.945	76.02
784.122	77.04
784.299	76.27
784.476	76.02
784.653	79.89
784.83	79.42
785.007	81.41
785.184	82.54
785.361	85.04
785.538	86.12
785.715	87.04
785.892	86.96
786.069	86.14
786.246	86.04
786.423	83.32
786.6	82.14
786.776	84.04
786.953	85.14
787.13	85.75
787.307	86.66
787.484	86.5
787.66	84.23
787.837	85.71
788.014	84.71
788.191	86.81
788.367	90.55
788.544	90.27
788.721	87.29
788.897	83.52
789.074	79.46
789.25	75.71
789.427	76.49
789.603	74.07
789.78	73.85
789.956	74.46
790.133	75.83
790.309	74.01
790.486	77.61
790.662	79.08
790.839	75.42
791.015	74.22
791.192	76.89
791.368	76.97
791.544	77.35
791.721	82.33
791.897	80.99
792.073	80.23
792.249	78.54
792.426	84.44
792.602	84.27
792.778	85.22
792.954	82.51
793.13	85.47
793.307	81.48
793.483	82.08
793.659	82.78
793.835	81.11
794.011	80.52
794.187	75.12
794.363	72
794.539	72.01
794.715	74.82
794.891	72.12
795.067	74.78
795.243	76.94
795.419	76.28
795.595	79.52
795.771	81.03
795.947	81.52
796.122	84.43
796.298	84.61
796.474	81.93
796.65	79.45
796.826	78.38
797.001	80.14
797.177	79.98
797.353	74.41
797.529	78.55
797.704	82.62
797.88	75.93
798.056	77.8
798.231	81.97
798.407	77.28
798.582	69.76
798.758	70.45
798.934	71.39
799.109	69.42
799.285	70.89
799.46	69.86
799.636	72.96
799.811	67.82
799.986	73.02
800.162	75.53
800.337	87.47
800.513	87.06
800.688	87.53
800.863	91.15
801.039	89.15
801.214	83.81
801.389	79.67
801.565	80.22
801.74	71.85
801.915	73.85
802.09	79.45
802.265	79.19
802.441	80.04
802.616	78.63
802.791	74.59
802.966	68.88
803.141	71.46
803.316	70.44
803.491	75.16
803.666	85.91
803.841	81.58
804.016	81.55
804.191	81.99
804.366	85.67
804.541	77.34
804.716	81.65
804.891	72.62
805.066	76.34
805.241	69.39
805.416	65.2
805.591	70.11
805.765	77.95
805.94	77.26
806.115	81.6
806.29	83.65
806.464	77.61
806.639	76.74
806.814	72.22
806.989	62.54
807.163	63.02
807.338	65.59
807.512	61.16
807.687	60.82
807.862	63.47
808.036	68.28
808.211	61.98
808.385	67.29
808.56	71.05
808.734	73.26
808.909	71.91
809.083	70.57
809.258	64.65
809.432	63.29
809.606	62.93
809.781	62.39
809.955	67.44
810.13	71.13
810.304	69.85
810.478	64.61
810.652	65.61
810.827	65.04
811.001	67.94
811.175	81.66
811.349	94.44
811.524	85.01
811.698	82.95
811.872	88.31
812.046	78.23
812.22	78.61
812.394	82.5
812.568	92.64
812.742	81.41
812.916	82.2
813.09	81.36
813.264	93.54
813.438	82.6
813.612	82.16
813.786	75.65
813.96	70.91
814.134	70.14
814.308	72.55
814.482	78.65
814.656	87.66
814.83	97.43
815.003	90.46
815.177	91.88
815.351	98.73
815.525	89.71
815.698	85.8
815.872	71.54
816.046	80.98
816.219	70.51
816.393	72.98
816.567	82.74
816.74	90.76
816.914	69.13
817.088	78.48
817.261	74.91
817.435	77.63
817.608	80.1
817.782	79
817.955	67.67
818.129	69.64
818.302	56.68
818.475	61.79
818.649	70.78
818.822	71.94
818.996	69.73
819.169	72.72
819.342	61.86
819.516	60.09
819.689	61.75
819.862	62.41
820.035	57.22
820.209	55.73
820.382	55.2
820.555	53.8
820.728	61.1
820.901	61.35
821.075	62.01
821.248	63.7
821.421	66.93
821.594	64.77
821.767	75.2
821.94	78.64
822.113	82.1
822.286	69.96
822.459	73.67
822.632	69.25
822.805	57.02
822.978	68.13
823.151	96.35
823.324	89.07
823.496	86.91
823.669	99.93
823.842	84.08
824.015	80.85
824.188	76.04
824.361	62.52
824.533	52.2
824.706	57.43
824.879	44.51
825.051	52.78
825.224	54.09
825.397	53.05
825.569	46.91
825.742	43.61
825.915	45.98
826.087	57.07
826.26	61.78
826.432	60.86
826.605	73.14
826.777	54.57
826.95	58.17
827.122	61.58
827.295	60.56
827.467	62.07
827.64	84.26
827.812	75.26
827.984	93
828.157	96.19
828.329	92.17
828.501	85.07
828.674	90.46
828.846	69.07
829.018	87.19
829.19	83.28
829.363	81.4
829.535	87.72
829.707	94.18
829.879	67.5
830.051	56.33
830.223	71.14
830.395	56.64
830.568	57.55
830.74	79.15
830.912	83.91
831.084	66.96
831.256	65.76
831.428	78.24
831.6	51.89
831.772	44.03
831.943	41.6
832.115	35.29
832.287	32.83
832.459	42.85
832.631	45.66
832.803	41.78
832.975	50.31
833.146	51.38
833.318	31.91
833.49	45.24
833.662	62.6
833.833	65.69
834.005	52.65
834.177	59.92
834.348	66.98
834.52	62.96
834.692	83.02
834.863	78
835.035	85.46
835.206	52.28
835.378	54.29
835.549	48.64
835.721	59.48
835.892	47.16
836.064	67.81
836.235	56.32
836.407	47.01
836.578	50.22
836.749	48.01
836.921	28.12
837.092	55.45
837.264	47.38
837.435	42.62
837.606	22.42
837.777	46.91
837.949	37.05
838.12	34.67
838.291	33.51
838.462	54.85
838.633	49.17
838.805	52.68
838.976	66.3
839.147	65.25
839.318	50.64
839.489	62.39
839.66	49.69
839.831	67.17
840.002	58.65
840.173	62.32
840.344	36.26
840.515	21.6
840.686	2.04
840.857	15.01
841.028	16.11
841.199	39.58
841.369	34.77
841.54	53.4
841.711	39.32
841.882	51.68
842.053	57.47
842.223	79.55
842.394	66.95
842.565	65.15
842.736	76.45
842.906	79.94
843.077	66.06
843.248	87.57
843.418	88.93
843.589	81.11
843.759	85.29
843.93	115.51
844.101	108.76
844.271	106.75
844.442	83.48
844.612	79.11
844.783	57.09
844.953	57.16
845.123	55.46
845.294	75.54
845.464	52.06
845.635	26.27
845.805	32.94
845.975	56
846.146	27.22
846.316	39.7
846.486	73.47
846.656	79.54
846.827	75.48
846.997	99.71
847.167	125.75
847.337	90.02
847.507	80.81
847.677	75.35
847.848	77.48
848.018	58.85
848.188	63.58
848.358	23.29
848.528	6.36
848.698	0.65
848.868	5.25
849.038	11.68
849.208	53.1
849.378	68.88
849.548	76.21
849.718	50.11
849.887	70.96
850.057	44.27
850.227	32.4
850.397	50.42
850.567	66.04
850.737	35.66
850.906	28.98
851.076	13.14
851.246	19.94
851.415	38.47
851.585	49.97
851.755	55.97
851.924	101.62
852.094	83.82
852.264	59.32
852.433	29.44
852.603	48.78
852.772	17.37
852.942	35.14
853.111	36.82
853.281	44.9
853.45	41.29
853.62	43.93
853.789	28.84
853.959	32.27
854.128	38.15
854.297	49.75
854.467	59.26
854.636	69.28
854.805	57.39
854.975	72.02
855.144	-7.12
855.313	28.26
855.482	63.42
855.652	67.39
855.821	56.15
855.99	94.17
856.159	147.78
856.328	106.87
856.497	96.64
856.667	74.21
856.836	-16.82
857.005	-78.98
857.174	-192.56
857.343	-116.9
857.512	-177.13
857.681	17.96
857.85	22.72
858.019	33.11
858.188	28.55
858.356	35.05
858.525	2.48
858.694	16.96
858.863	25.6
859.032	10.25
859.201	28.53
859.369	81.44
859.538	84.13
859.707	57.93
859.876	69.49
860.044	77.19
860.213	62.78
860.382	71.53
860.55	82.02
860.719	86.8
860.888	47.58
861.056	31.36
861.225	33.79
861.393	43.35
861.562	25.86
861.73	32.68
861.899	43.23
862.067	27.31
862.236	30.01
862.404	6.92
862.572	3.24
862.741	21.38
862.909	7.82
863.078	-8.34
863.246	29.73
863.414	36.85
863.582	41.33
863.751	39.83
863.919	38.32
864.087	79.3
864.255	72.03
864.424	50.64
864.592	60.12
864.76	45.31
864.928	30.48
865.096	-9.65
865.264	29.11
865.432	21.93
865.6	49.49
865.768	15.97
865.936	42.4
866.104	26.2
866.272	60
866.44	48.49
866.608	86.39
866.776	58.09
866.944	92.9
867.112	41.27
867.28	-45.52
867.448	45.87
867.615	255.35
867.783	141.88
867.951	87.93
868.119	100.25
868.286	76.44
868.454	44.51
868.622	26.25
868.789	22.75
868.957	4.37
869.125	-91.54
869.292	-71.39
869.46	-74.58
869.627	-19.31
869.795	-21.16
869.963	-8.11
870.13	-13.65
870.298	-5.7
870.465	-44.14
870.632	-18.67
870.8	-4.5
870.967	10.78
871.135	5.15
871.302	-83.44
871.469	438.05
871.637	-7.96
871.804	49.62
871.971	25.12
872.139	71.28
872.306	37.28
872.473	20.83
872.64	7.15
872.807	31.79
872.975	41.21
873.142	131.66
873.309	2369.57
873.476	659.71
873.643	126.19
873.81	73.9
873.977	39.25
874.144	69.57
874.311	37.23
874.478	38.84
874.645	22.53
874.812	41.61
874.979	5.86
875.146	28.17
875.313	16.55
875.48	-224.06
875.647	147.79
875.813	369.33
875.98	736.36
876.147	-161.54
876.314	96.21
876.481	-85.68
876.647	-17.3
876.814	60.68
876.981	154.34
877.147	105.81
877.314	110.43
877.481	84.43
877.647	59.37
877.814	31.25
877.98	-3.14
878.147	6.67
878.314	20.26
878.48	31.66
878.647	63.28
878.813	969.77
878.979	108.98
879.146	47.51
879.312	86.34
879.479	71.75
879.645	52.38
879.811	32.77
879.978	57.52
880.144	42.45
880.31	48.36
880.477	46.49
880.643	65.96
880.809	47.15
880.975	-245.45
881.142	292.92
881.308	588
881.474	89.3
881.64	78.85
881.806	80.3
881.972	81.62
882.138	86.05
882.304	47.74
882.47	48.96
882.636	-113.49
882.802	13.82
882.968	-2.75
883.134	38.23
883.3	50.93
883.466	95.54
883.632	88.9
883.798	25.18
883.964	6.76
884.129	-55.56
884.295	2.17
884.461	-29.36
884.627	30.01
884.793	9.2
884.958	31.78
885.124	-1.37
885.29	-30.86
885.455	-132.38
885.621	-101.74
885.787	-152.17
885.952	248.49
886.118	162.2
886.283	-1889.47
886.449	-78.44
886.614	-32.93
886.78	21.72
886.945	-42.24
887.111	-47.52
887.276	-14.95
887.442	-28.94
887.607	-54.17
887.773	15.82
887.938	47.26
888.103	19.16
888.269	1.44
888.434	0.13
888.599	-3.76
888.764	25.41
888.93	30.49
889.095	37.29
889.26	104.23
889.425	73.1
889.59	-30.43
889.756	327.48
889.921	147.93
890.086	147.32
890.251	192.48
890.416	127.94
890.581	68.77
890.746	151.39
890.911	158.77
891.076	110.99
891.241	123.32
891.406	131.42
891.571	93.85
891.736	53.13
891.901	42.31
892.065	41.52
892.23	36.34
892.395	44.5
892.56	35.69
892.725	123.55
892.889	79.22
893.054	61.9
893.219	-33.21
893.384	-82.33
893.548	-496.96
893.713	1340.74
893.878	309.47
