Data from Ofav_PS_Phys_2HS2_Reflection_2.txt Node
Date: Thu Jul 29 18:16:37 EDT 2021
User: USUARIO
Spectrometer: FLMT01687
Trigger mode: 0
Integration Time (sec): 9.010000E-1
Scans to average: 2
Electric dark correction enabled: true
Nonlinearity correction enabled: false
Boxcar width: 2
XAxis mode: Wavelengths
Number of Pixels in Spectrum: 3648
>>>>>Begin Spectral Data<<<<<
179.494	4.13
179.716	-31.98
179.937	-14.4
180.158	227.68
180.38	69.5
180.601	-325.72
180.823	-116.92
181.044	-23.44
181.265	11.5
181.486	-131.64
181.708	71.19
181.929	180.06
182.15	5861.9
182.372	-39.14
182.593	21.43
182.814	-55.36
183.035	-336.43
183.257	40.78
183.478	30.51
183.699	22.09
183.92	9.75
184.141	24.3
184.363	26.93
184.584	22.72
184.805	17.76
185.026	28.25
185.247	16.33
185.468	11.17
185.689	23.31
185.91	106.01
186.132	60.42
186.353	47.73
186.574	62.91
186.795	59.7
187.016	36.2
187.237	47.24
187.458	51.38
187.679	34.68
187.9	31.08
188.121	15.32
188.342	17.36
188.563	15.34
188.784	-2.78
189.005	-15.45
189.226	7.95
189.447	-4.36
189.667	-20.52
189.888	-13.76
190.109	31.83
190.33	45.56
190.551	26.23
190.772	48.42
190.993	31.61
191.214	11.51
191.434	21.71
191.655	36.79
191.876	20.52
192.097	6.59
192.318	6.93
192.538	-2.49
192.759	-23.47
192.98	10.31
193.201	29.21
193.421	22.87
193.642	37.07
193.863	31.07
194.083	11.84
194.304	-5.55
194.525	13.15
194.745	-6
194.966	-6.71
195.187	0.17
195.407	-14.45
195.628	-60.71
195.848	-7.55
196.069	16.78
196.29	22.92
196.51	37.4
196.731	40.94
196.951	4.79
197.172	-13.86
197.392	-8.23
197.613	-29.82
197.833	-42.63
198.054	-30.74
198.274	-39.8
198.495	-17.34
198.715	-23.16
198.936	9.59
199.156	9.33
199.377	35.24
199.597	27.67
199.817	43.77
200.038	14.62
200.258	22.13
200.479	-16.44
200.699	-38.29
200.919	-32.11
201.14	-36.66
201.36	-29.57
201.58	-17.17
201.801	-6.81
202.021	22.22
202.241	40.06
202.461	53.9
202.682	57.83
202.902	45.21
203.122	20.28
203.342	30.35
203.563	-4.39
203.783	24.32
204.003	9.14
204.223	-29.22
204.443	-39.02
204.663	-5.85
204.884	18.62
205.104	29.15
205.324	25.37
205.544	46.48
205.764	31.41
205.984	32.44
206.204	46.59
206.424	56.56
206.644	61.89
206.864	75.08
207.084	44.72
207.304	33.69
207.525	21.8
207.745	19.79
207.964	25.71
208.184	43.91
208.404	44.25
208.624	39.33
208.844	34.47
209.064	45.84
209.284	37.38
209.504	32.8
209.724	64.98
209.944	62.99
210.164	63.64
210.384	63.19
210.604	60.96
210.823	42.39
211.043	37.43
211.263	47.37
211.483	33.57
211.703	36.22
211.922	31.82
212.142	35.2
212.362	17.34
212.582	25.4
212.801	26
213.021	20.16
213.241	16.26
213.461	4.92
213.68	-27.99
213.9	-26.17
214.12	-26.25
214.339	-49.58
214.559	-46.95
214.779	-14.79
214.998	-26.18
215.218	-7.09
215.438	29.49
215.657	0.15
215.877	7.79
216.096	-0.77
216.316	-21.19
216.535	-70.49
216.755	-48.76
216.974	-69.82
217.194	-64.9
217.413	-24.27
217.633	-3.82
217.852	-23.89
218.072	-13.67
218.291	-2.08
218.511	18.21
218.73	5.33
218.95	18.82
219.169	19.27
219.389	10.05
219.608	-17.51
219.827	-23.27
220.047	-8.5
220.266	-22.91
220.485	-6.5
220.705	4.97
220.924	1.58
221.143	-18.04
221.363	-22.5
221.582	-34.18
221.801	-53.54
222.021	-29.9
222.24	-31.93
222.459	-0.67
222.678	8.7
222.897	3.28
223.117	14.4
223.336	31.55
223.555	26.85
223.774	48.54
223.993	45.14
224.213	32.4
224.432	40.55
224.651	48.98
224.87	33.95
225.089	31.24
225.308	35.9
225.527	28.59
225.746	-23.16
225.965	-36.88
226.184	-53.11
226.404	-82.81
226.623	-40.42
226.842	-21.19
227.061	-29.84
227.28	-28.19
227.499	-1.41
227.718	-57.07
227.936	-41.86
228.155	4.8
228.374	0.76
228.593	-24.24
228.812	-12.68
229.031	-10.21
229.25	-14.06
229.469	2.31
229.688	13.1
229.907	34.28
230.125	37.83
230.344	52.48
230.563	63.62
230.782	77.32
231.001	63.38
231.22	52.75
231.438	12.73
231.657	1.66
231.876	-4.08
232.095	-18.26
232.313	-3.17
232.532	-0.29
232.751	3.54
232.969	-20.83
233.188	-21.6
233.407	-56.07
233.625	-12.58
233.844	-10.76
234.063	-16.9
234.281	-38.73
234.5	-21.89
234.719	-27.84
234.937	-17.77
235.156	-7.27
235.374	24.44
235.593	25.12
235.811	23.32
236.03	6.57
236.249	20.47
236.467	23.22
236.686	16.36
236.904	-10.12
237.123	-5.95
237.341	-49.04
237.559	-55.27
237.778	-30.04
237.996	-3.48
238.215	8.34
238.433	48.24
238.652	51.11
238.87	35.24
239.088	56.75
239.307	50.82
239.525	27.71
239.743	25.92
239.962	24.82
240.18	12.48
240.398	11.69
240.617	-0.39
240.835	-23.41
241.053	-13.46
241.271	-27.81
241.49	-30.62
241.708	-10.58
241.926	7.51
242.144	-6.5
242.363	12.56
242.581	6.45
242.799	6.04
243.017	-1.42
243.235	6.05
243.453	-9.07
243.672	-18.75
243.89	-27.06
244.108	-20.69
244.326	-12.76
244.544	-21.99
244.762	-8.68
244.98	-14.7
245.198	-9.87
245.416	-30.1
245.634	-22.47
245.852	9.77
246.07	35.71
246.288	24.68
246.506	37.98
246.724	39.01
246.942	27.86
247.16	20.86
247.378	6.15
247.596	-25.25
247.814	-10.54
248.032	-20.94
248.25	-15.36
248.468	-10.59
248.685	7.87
248.903	8.23
249.121	4.3
249.339	-7.04
249.557	4.13
249.775	14.92
249.992	-0.74
250.21	20.71
250.428	39.06
250.646	40.7
250.863	44.93
251.081	51.12
251.299	40.77
251.517	41.29
251.734	40.12
251.952	22.9
252.17	25.94
252.387	18.33
252.605	3.33
252.823	-9.81
253.04	9.8
253.258	8.46
253.475	12.25
253.693	18.45
253.911	42.9
254.128	48.87
254.346	43.52
254.563	36.06
254.781	19.96
254.998	-7.75
255.216	-24.55
255.433	-13.77
255.651	-1.16
255.868	13.35
256.086	19.38
256.303	23.01
256.521	18.97
256.738	7.18
256.956	11.72
257.173	6.27
257.39	14.75
257.608	20.77
257.825	30.64
258.043	18.98
258.26	16.39
258.477	15.62
258.695	10.64
258.912	19.89
259.129	13.99
259.346	12.69
259.564	-6.61
259.781	-14.84
259.998	-31.25
260.216	12.33
260.433	28.51
260.65	19.46
260.867	27.39
261.084	32.81
261.302	-6.32
261.519	-30.74
261.736	-3.28
261.953	-6.48
262.17	4.57
262.387	11.67
262.604	20.53
262.822	5.9
263.039	-1.11
263.256	-19.08
263.473	-3.18
263.69	-32.54
263.907	-37.6
264.124	-19.6
264.341	-11.68
264.558	-6.92
264.775	11.35
264.992	26.71
265.209	7.54
265.426	13.47
265.643	15.24
265.86	8.56
266.077	-0.59
266.294	9.57
266.51	3.91
266.727	6.23
266.944	9.68
267.161	6.78
267.378	-4.94
267.595	17.5
267.812	-2.28
268.028	-15.15
268.245	-1.59
268.462	-5.62
268.679	-10.09
268.896	-4.56
269.112	14.57
269.329	9.64
269.546	27.27
269.763	16.99
269.979	14.19
270.196	10.11
270.413	13.44
270.629	1.29
270.846	5.37
271.063	12.05
271.279	20.52
271.496	11.9
271.712	22.36
271.929	28.79
272.146	42.74
272.362	16.31
272.579	36.78
272.795	22.37
273.012	14.66
273.228	1.17
273.445	31.29
273.661	16.43
273.878	30.73
274.094	55.62
274.311	69.15
274.527	47.91
274.744	63.99
274.96	55.27
275.177	37.23
275.393	27.2
275.609	27.54
275.826	3.81
276.042	7.95
276.259	9.25
276.475	8.4
276.691	16.19
276.908	20.69
277.124	12.5
277.34	8.05
277.557	-1.07
277.773	-16.66
277.989	-28.28
278.205	-29.52
278.422	-20.81
278.638	-14.57
278.854	-8.25
279.07	17.29
279.286	19.23
279.503	19.38
279.719	24.7
279.935	13.36
280.151	-16.66
280.367	-14.87
280.583	0.51
280.799	-8.94
281.016	13.44
281.232	29.37
281.448	22.16
281.664	31.79
281.88	27.29
282.096	24.74
282.312	2.45
282.528	-0.96
282.744	-39.83
282.96	-34
283.176	-56.34
283.392	-15.62
283.608	-7.26
283.824	2.49
284.04	2.25
284.256	27.17
284.471	18.09
284.687	31.04
284.903	9.85
285.119	25.37
285.335	10.13
285.551	12.36
285.767	5.18
285.982	17.57
286.198	12.11
286.414	9.26
286.63	13.72
286.846	10.82
287.061	5.5
287.277	7.3
287.493	-5.02
287.709	-8.77
287.924	6.75
288.14	5.3
288.356	7.22
288.571	24.68
288.787	15.73
289.003	13.6
289.218	8.7
289.434	10.63
289.65	12.79
289.865	31.27
290.081	16.63
290.296	21.99
290.512	24.52
290.727	17.29
290.943	5.48
291.159	29.89
291.374	35.59
291.59	28.1
291.805	14.07
292.021	17.01
292.236	-0.21
292.451	-27.53
292.667	-10.98
292.882	0.52
293.098	-6.91
293.313	4.65
293.529	18.26
293.744	-4.12
293.959	0.28
294.175	20.92
294.39	9.28
294.605	14.9
294.821	23.37
295.036	29.64
295.251	19.08
295.467	17.53
295.682	11.37
295.897	17.05
296.112	17.55
296.328	16.5
296.543	9.82
296.758	15.3
296.973	4.52
297.188	11.56
297.404	7.49
297.619	27.9
297.834	1.97
298.049	11.14
298.264	1.5
298.479	17.11
298.694	19.59
298.909	21.6
299.125	16.83
299.34	25.59
299.555	9.13
299.77	4.76
299.985	-5.41
300.2	-6.15
300.415	-19.77
300.63	-8.53
300.845	-26.57
301.06	-20.96
301.275	-6.74
301.49	-2.4
301.704	-1.13
301.919	13.57
302.134	18.26
302.349	17.18
302.564	11.45
302.779	9.21
302.994	-9.61
303.209	-0.26
303.423	-4.7
303.638	0.13
303.853	-5.87
304.068	21.98
304.283	12.3
304.497	3.58
304.712	-16.43
304.927	-11.62
305.142	-30.73
305.356	-53.76
305.571	-25.44
305.786	-6.84
306	-25.43
306.215	-21.61
306.43	-8.91
306.644	-35.46
306.859	-14.45
307.074	11.4
307.288	11.04
307.503	19.44
307.717	19.29
307.932	-16.25
308.147	-18.72
308.361	-19.01
308.576	-36.9
308.79	-54.23
309.005	-7.06
309.219	-8.86
309.434	0.61
309.648	9.92
309.863	16.97
310.077	13.83
310.292	27.1
310.506	27.48
310.72	33.7
310.935	43.52
311.149	41.26
311.364	33.39
311.578	3.55
311.792	-11.91
312.007	-26.71
312.221	-47.86
312.435	-56.13
312.649	-37.4
312.864	-324.17
313.078	-174.94
313.292	-145.96
313.507	-104.72
313.721	-53.5
313.935	18.14
314.149	17.68
314.363	26.03
314.578	21.74
314.792	13.33
315.006	22.25
315.22	14.58
315.434	15.9
315.648	16.27
315.862	17.26
316.077	13.59
316.291	13.38
316.505	19.43
316.719	16.1
316.933	8.63
317.147	5.7
317.361	-11.36
317.575	-35.47
317.789	-25.05
318.003	-15.3
318.217	-0.32
318.431	4.29
318.645	12.06
318.859	11.02
319.073	5.7
319.287	5.18
319.5	13.09
319.714	30.73
319.928	35.61
320.142	43.59
320.356	48.79
320.57	51.1
320.784	29.78
320.997	23.17
321.211	9.2
321.425	-3.54
321.639	-14.65
321.853	1.1
322.066	-9.79
322.28	6.7
322.494	18.92
322.707	39.08
322.921	35.22
323.135	38.43
323.349	36.71
323.562	20.18
323.776	-5.92
323.989	-5.2
324.203	11.61
324.417	0.27
324.63	1.14
324.844	15.56
325.057	14.87
325.271	-1.94
325.485	5.92
325.698	18.2
325.912	10.56
326.125	-8.01
326.339	-7.03
326.552	-4.98
326.766	-9.58
326.979	-2.29
327.193	6.62
327.406	16.83
327.619	4.12
327.833	13.22
328.046	17.4
328.26	37.05
328.473	35.63
328.686	59.41
328.9	47.85
329.113	12.69
329.326	-2.08
329.54	-25.06
329.753	-44.08
329.966	-13.18
330.179	1.2
330.393	-4.8
330.606	-2.11
330.819	1.65
331.032	1.04
331.246	1.11
331.459	-26.74
331.672	-24.07
331.885	-18.11
332.098	-19.12
332.311	-1.02
332.525	16.96
332.738	16.37
332.951	7.58
333.164	4.85
333.377	-6.96
333.59	7.92
333.803	18.18
334.016	26.49
334.229	14.25
334.442	11.33
334.655	8.42
334.868	-9.09
335.081	-0.57
335.294	-1.18
335.507	7.56
335.72	-2
335.933	-7.09
336.146	-17.41
336.359	-0.21
336.572	-25.91
336.785	-21.17
336.997	6.22
337.21	15.58
337.423	0.99
337.636	14.02
337.849	17.17
338.062	-5.44
338.274	-10.28
338.487	5.54
338.7	-6.69
338.913	-4.6
339.125	13.44
339.338	14.81
339.551	4.35
339.763	1.69
339.976	-12.39
340.189	-17.35
340.402	-30.71
340.614	-3.23
340.827	8.57
341.039	24.31
341.252	43.41
341.465	39.58
341.677	24.75
341.89	23.77
342.102	13.06
342.315	6.99
342.527	6.22
342.74	1.73
342.952	2
343.165	12.27
343.377	11.54
343.59	0.25
343.802	11.35
344.015	10.25
344.227	-12.39
344.44	-16.66
344.652	-9.49
344.864	-45.54
345.077	-30.37
345.289	-14.76
345.502	-20.65
345.714	-22.18
345.926	3.87
346.139	-33.74
346.351	-32.74
346.563	-14.89
346.775	-15.43
346.988	-25.17
347.2	-11.21
347.412	-11.29
347.624	-25.48
347.837	-36.46
348.049	-45.05
348.261	-38.28
348.473	-25.25
348.685	-12.32
348.897	6.88
349.11	21.06
349.322	20.67
349.534	18.06
349.746	18.87
349.958	13.74
350.17	7.56
350.382	3.48
350.594	-5.83
350.806	5.58
351.018	-13.61
351.23	-14.89
351.442	-24.05
351.654	-9.46
351.866	-16.49
352.078	14.55
352.29	1.97
352.502	15.61
352.714	14.73
352.926	9.03
353.138	1.04
353.35	19.37
353.561	12.47
353.773	12.35
353.985	18.37
354.197	22.2
354.409	20.03
354.621	4.67
354.832	4.6
355.044	-5.86
355.256	-0.47
355.468	-4.14
355.679	16.32
355.891	22.71
356.103	33.33
356.314	20.48
356.526	20.45
356.738	18
356.949	6.76
357.161	-4.43
357.373	2.46
357.584	3.75
357.796	10.84
358.008	-6.03
358.219	-3.14
358.431	-8.74
358.642	-16.08
358.854	-43.74
359.065	-13.35
359.277	-3.57
359.488	-4.14
359.7	9.38
359.911	23.8
360.123	32.53
360.334	27.85
360.546	28.23
360.757	19.8
360.969	26.4
361.18	23.63
361.391	20.53
361.603	7.86
361.814	19.91
362.025	6.53
362.237	9.87
362.448	6.32
362.659	11.77
362.871	11.6
363.082	20.18
363.293	0.86
363.504	8.52
363.716	0.55
363.927	-17.78
364.138	-15.53
364.349	-7.63
364.56	-10.25
364.772	-4.03
364.983	7.94
365.194	8.45
365.405	25.15
365.616	20.75
365.827	20.48
366.038	7.1
366.25	2.29
366.461	-21.72
366.672	-32.39
366.883	-42.99
367.094	-24.64
367.305	-5.24
367.516	4.63
367.727	7.38
367.938	9.52
368.149	10.02
368.36	0.32
368.571	-10.34
368.781	-21.99
368.992	-30.95
369.203	-20.33
369.414	-5.98
369.625	3.12
369.836	18.04
370.047	18.57
370.258	14.9
370.468	6.15
370.679	-7.66
370.89	-29.82
371.101	-12.53
371.312	-25
371.522	-35.83
371.733	-29.35
371.944	-32.91
372.155	-48.38
372.365	-39.32
372.576	-27.13
372.787	-18.18
372.997	-6.13
373.208	-8.76
373.419	-4.17
373.629	7.18
373.84	18.74
374.05	19.15
374.261	27.16
374.472	25.91
374.682	12.08
374.893	14.68
375.103	14.02
375.314	11.62
375.524	11.62
375.735	21.44
375.945	10.53
376.156	9.9
376.366	-9.75
376.577	-9.55
376.787	-14.48
376.997	-17.02
377.208	-22.86
377.418	-5.55
377.629	-4.46
377.839	-0.05
378.049	5.34
378.26	7.59
378.47	4.73
378.68	0.19
378.89	-4.46
379.101	3.99
379.311	4.49
379.521	-4.67
379.732	2.77
379.942	2.22
380.152	-11.27
380.362	-14.32
380.572	-7.99
380.783	-13.86
380.993	-14.32
381.203	-11.61
381.413	-24.69
381.623	-13.22
381.833	1.36
382.043	7.66
382.253	8.7
382.463	10.27
382.674	4.15
382.884	4.84
383.094	-7.63
383.304	-7.47
383.514	-1.72
383.724	11.11
383.934	1.51
384.144	9.84
384.353	12.94
384.563	9.21
384.773	6.69
384.983	9.52
385.193	11.41
385.403	5.5
385.613	10.87
385.823	4.69
386.033	4.42
386.242	0.15
386.452	3.42
386.662	2.74
386.872	7.01
387.082	5.13
387.291	2.38
387.501	1.54
387.711	0.21
387.921	-4.54
388.13	-8.82
388.34	-3.23
388.55	-3.98
388.759	-4.52
388.969	-2.23
389.179	3.66
389.388	1.58
389.598	4.48
389.807	4.82
390.017	3.23
390.227	5.16
390.436	5.76
390.646	2.78
390.855	2.67
391.065	3.65
391.274	0.57
391.484	-2.4
391.693	-2.13
391.903	-2.75
392.112	-3.09
392.322	-1.96
392.531	-0.52
392.74	-2.55
392.95	-1.14
393.159	-0.9
393.369	0.28
393.578	0.56
393.787	3.33
393.997	1.86
394.206	2.21
394.415	2.01
394.625	2.67
394.834	1.23
395.043	0.62
395.252	1.62
395.462	1.17
395.671	0.9
395.88	2.61
396.089	3.77
396.298	3.06
396.508	2.48
396.717	2.12
396.926	1.36
397.135	0.58
397.344	0.57
397.553	1.3
397.762	1.58
397.971	1.55
398.181	2.53
398.39	2.21
398.599	2.11
398.808	2.07
399.017	2.72
399.226	2.36
399.435	2.2
399.644	2.64
399.853	2.78
400.062	2.68
400.27	3.06
400.479	3.43
400.688	2.84
400.897	2.78
401.106	2.52
401.315	2.09
401.524	2.3
401.733	2.37
401.941	2.54
402.15	2.41
402.359	2.44
402.568	2.14
402.777	1.97
402.985	1.79
403.194	1.79
403.403	1.94
403.612	1.91
403.82	2.07
404.029	1.96
404.238	1.95
404.446	1.8
404.655	1.71
404.864	1.79
405.072	1.89
405.281	2.01
405.489	1.96
405.698	2.02
405.906	1.9
406.115	1.83
406.324	1.7
406.532	1.76
406.741	1.81
406.949	1.81
407.158	1.94
407.366	1.96
407.574	1.99
407.783	2.01
407.991	1.9
408.2	1.8
408.408	1.71
408.617	1.73
408.825	1.76
409.033	1.88
409.242	1.93
409.45	1.96
409.658	1.88
409.867	1.84
410.075	1.8
410.283	1.71
410.491	1.69
410.7	1.81
410.908	1.92
411.116	1.96
411.324	1.87
411.533	1.92
411.741	1.89
411.949	1.81
412.157	1.71
412.365	1.75
412.573	1.79
412.781	1.74
412.99	1.64
413.198	1.57
413.406	1.68
413.614	1.76
413.822	1.79
414.03	1.81
414.238	1.92
414.446	2.07
414.654	1.88
414.862	1.82
415.07	1.76
415.278	1.74
415.486	1.47
415.694	1.59
415.902	1.54
416.109	1.59
416.317	1.63
416.525	1.71
416.733	1.68
416.941	1.73
417.149	1.7
417.357	1.48
417.564	1.49
417.772	1.44
417.98	1.58
418.188	1.57
418.395	1.68
418.603	1.7
418.811	1.79
419.019	1.72
419.226	1.95
419.434	1.99
419.642	1.97
419.849	1.9
420.057	1.72
420.265	1.46
420.472	1.42
420.68	1.37
420.887	1.36
421.095	1.55
421.302	1.69
421.51	1.77
421.717	1.83
421.925	1.87
422.132	1.8
422.34	1.57
422.547	1.48
422.755	1.52
422.962	1.58
423.17	1.38
423.377	1.56
423.585	1.73
423.792	1.63
423.999	1.55
424.207	1.74
424.414	1.55
424.621	1.48
424.829	1.42
425.036	1.43
425.243	1.44
425.451	1.6
425.658	1.59
425.865	1.64
426.072	1.56
426.28	1.61
426.487	1.65
426.694	1.56
426.901	1.39
427.108	1.41
427.315	1.29
427.523	1.14
427.73	1.13
427.937	1.37
428.144	1.31
428.351	1.29
428.558	1.39
428.765	1.46
428.972	1.47
429.179	1.59
429.386	1.55
429.593	1.57
429.8	1.54
430.007	1.5
430.214	1.59
430.421	1.61
430.628	1.44
430.835	1.44
431.042	1.39
431.249	1.36
431.456	1.39
431.662	1.57
431.869	1.63
432.076	1.64
432.283	1.51
432.49	1.6
432.697	1.66
432.903	1.54
433.11	1.46
433.317	1.51
433.524	1.4
433.73	1.27
433.937	1.37
434.144	1.47
434.35	1.57
434.557	1.68
434.764	1.68
434.97	1.59
435.177	1.66
435.384	1.54
435.59	1.53
435.797	1.62
436.003	1.68
436.21	1.55
436.416	1.56
436.623	1.57
436.829	1.45
437.036	1.43
437.242	1.6
437.449	1.67
437.655	1.7
437.862	1.83
438.068	1.87
438.275	1.8
438.481	1.83
438.687	1.81
438.894	1.85
439.1	1.89
439.307	1.91
439.513	1.77
439.719	1.72
439.926	1.58
440.132	1.65
440.338	1.7
440.544	1.76
440.751	1.75
440.957	1.9
441.163	1.81
441.369	1.75
441.575	1.74
441.782	1.74
441.988	1.66
442.194	1.7
442.4	1.74
442.606	1.91
442.812	1.95
443.018	2.06
443.224	2.05
443.431	1.98
443.637	1.95
443.843	1.93
444.049	1.87
444.255	1.75
444.461	1.78
444.667	1.65
444.873	1.63
445.079	1.55
445.284	1.66
445.49	1.62
445.696	1.7
445.902	1.68
446.108	1.69
446.314	1.76
446.52	1.77
446.726	1.79
446.931	1.81
447.137	1.84
447.343	1.75
447.549	1.79
447.755	1.69
447.96	1.82
448.166	1.82
448.372	1.79
448.578	1.87
448.783	2.04
448.989	1.96
449.195	1.81
449.4	1.93
449.606	1.79
449.812	1.72
450.017	1.76
450.223	2.01
450.428	2
450.634	2.1
450.84	2.16
451.045	2.12
451.251	2.12
451.456	2.17
451.662	2.12
451.867	2.06
452.073	2.11
452.278	1.97
452.483	1.96
452.689	2.03
452.894	1.99
453.1	1.93
453.305	2.1
453.51	2.04
453.716	1.94
453.921	2.04
454.127	2.12
454.332	1.87
454.537	1.86
454.742	1.92
454.948	1.74
455.153	1.67
455.358	1.81
455.563	1.82
455.769	1.72
455.974	1.85
456.179	1.82
456.384	1.71
456.589	1.75
456.795	1.84
457	1.85
457.205	1.97
457.41	2.1
457.615	1.99
457.82	2
458.025	2.01
458.23	1.94
458.435	1.9
458.64	1.94
458.845	1.98
459.05	1.94
459.255	1.9
459.46	1.92
459.665	1.99
459.87	1.88
460.075	1.82
460.28	1.9
460.485	1.91
460.69	1.85
460.895	1.92
461.099	2
461.304	1.97
461.509	1.88
461.714	1.89
461.919	1.84
462.123	1.85
462.328	1.8
462.533	1.9
462.738	1.92
462.942	1.87
463.147	1.94
463.352	2.05
463.556	2.1
463.761	2.04
463.966	2.17
464.17	2.17
464.375	2.14
464.58	2.05
464.784	2.14
464.989	2.04
465.193	2.02
465.398	2.05
465.602	2.13
465.807	2.1
466.011	2.23
466.216	2.17
466.42	2.11
466.625	2.16
466.829	2.22
467.034	2.25
467.238	2.29
467.443	2.28
467.647	2.15
467.851	2.07
468.056	2
468.26	2.01
468.464	2.01
468.669	2.06
468.873	2.09
469.077	2.04
469.282	2.07
469.486	2.14
469.69	2.14
469.894	2.15
470.099	2.18
470.303	2.2
470.507	2.19
470.711	2.12
470.915	2.16
471.119	2.19
471.324	2.2
471.528	2.19
471.732	2.31
471.936	2.25
472.14	2.27
472.344	2.23
472.548	2.27
472.752	2.3
472.956	2.31
473.16	2.29
473.364	2.34
473.568	2.31
473.772	2.25
473.976	2.29
474.18	2.36
474.384	2.34
474.588	2.27
474.792	2.26
474.995	2.31
475.199	2.25
475.403	2.27
475.607	2.34
475.811	2.41
476.015	2.37
476.218	2.4
476.422	2.34
476.626	2.36
476.83	2.29
477.033	2.3
477.237	2.26
477.441	2.26
477.644	2.25
477.848	2.22
478.052	2.21
478.255	2.25
478.459	2.22
478.663	2.27
478.866	2.34
479.07	2.39
479.273	2.34
479.477	2.33
479.681	2.37
479.884	2.39
480.088	2.35
480.291	2.47
480.495	2.55
480.698	2.5
480.901	2.46
481.105	2.48
481.308	2.39
481.512	2.43
481.715	2.42
481.919	2.47
482.122	2.51
482.325	2.6
482.529	2.57
482.732	2.65
482.935	2.66
483.138	2.57
483.342	2.51
483.545	2.62
483.748	2.65
483.952	2.67
484.155	2.78
484.358	2.77
484.561	2.67
484.764	2.61
484.967	2.56
485.171	2.53
485.374	2.58
485.577	2.59
485.78	2.61
485.983	2.67
486.186	2.61
486.389	2.56
486.592	2.51
486.795	2.53
486.998	2.54
487.201	2.56
487.404	2.64
487.607	2.69
487.81	2.59
488.013	2.59
488.216	2.61
488.419	2.57
488.622	2.63
488.825	2.71
489.028	2.69
489.231	2.72
489.433	2.74
489.636	2.7
489.839	2.69
490.042	2.69
490.245	2.65
490.447	2.68
490.65	2.7
490.853	2.69
491.056	2.71
491.258	2.72
491.461	2.72
491.664	2.72
491.866	2.71
492.069	2.76
492.272	2.74
492.474	2.73
492.677	2.75
492.879	2.79
493.082	2.8
493.285	2.88
493.487	2.82
493.69	2.8
493.892	2.8
494.095	2.78
494.297	2.77
494.5	2.83
494.702	2.81
494.905	2.88
495.107	2.84
495.309	2.91
495.512	2.92
495.714	3.07
495.917	3.06
496.119	3.11
496.321	3.03
496.524	3.06
496.726	2.97
496.928	2.99
497.13	2.94
497.333	3.02
497.535	3.06
497.737	3.04
497.939	3.04
498.142	3.1
498.344	3.12
498.546	3.06
498.748	3.19
498.95	3.24
499.152	3.19
499.355	3.17
499.557	3.2
499.759	3.12
499.961	3.04
500.163	3.1
500.365	3.21
500.567	3.23
500.769	3.3
500.971	3.38
501.173	3.4
501.375	3.37
501.577	3.38
501.779	3.46
501.981	3.42
502.183	3.41
502.385	3.38
502.587	3.29
502.788	3.19
502.99	3.25
503.192	3.25
503.394	3.26
503.596	3.38
503.798	3.43
503.999	3.43
504.201	3.49
504.403	3.49
504.605	3.55
504.806	3.59
505.008	3.64
505.21	3.68
505.411	3.72
505.613	3.68
505.815	3.62
506.016	3.61
506.218	3.53
506.42	3.54
506.621	3.59
506.823	3.57
507.024	3.59
507.226	3.63
507.427	3.6
507.629	3.63
507.83	3.65
508.032	3.64
508.233	3.71
508.435	3.77
508.636	3.8
508.838	3.8
509.039	3.79
509.24	3.73
509.442	3.71
509.643	3.62
509.845	3.66
510.046	3.76
510.247	3.83
510.448	3.9
510.65	3.98
510.851	3.95
511.052	3.9
511.254	3.83
511.455	3.78
511.656	3.73
511.857	3.75
512.058	3.66
512.26	3.63
512.461	3.61
512.662	3.59
512.863	3.59
513.064	3.64
513.265	3.66
513.466	3.68
513.667	3.69
513.868	3.67
514.069	3.62
514.27	3.6
514.471	3.59
514.672	3.62
514.873	3.61
515.074	3.72
515.275	3.77
515.476	3.77
515.677	3.76
515.878	3.8
516.079	3.72
516.28	3.69
516.481	3.69
516.682	3.7
516.882	3.68
517.083	3.73
517.284	3.7
517.485	3.64
517.686	3.62
517.886	3.69
518.087	3.62
518.288	3.65
518.488	3.71
518.689	3.73
518.89	3.67
519.091	3.76
519.291	3.76
519.492	3.73
519.692	3.78
519.893	3.83
520.094	3.82
520.294	3.9
520.495	3.96
520.695	4
520.896	4.02
521.096	4
521.297	4
521.497	3.95
521.698	3.89
521.898	3.9
522.099	3.87
522.299	3.88
522.499	3.92
522.7	3.94
522.9	3.91
523.101	4
523.301	4
523.501	3.96
523.702	3.99
523.902	4.02
524.102	4
524.302	4.01
524.503	4.06
524.703	4
524.903	3.99
525.103	3.99
525.304	4.01
525.504	4.02
525.704	4.08
525.904	4.1
526.104	4.07
526.304	4.04
526.504	3.98
526.705	3.94
526.905	3.93
527.105	3.98
527.305	3.98
527.505	4.04
527.705	4.07
527.905	4.06
528.105	4.01
528.305	4
528.505	4.01
528.705	4.04
528.905	4.06
529.105	4.14
529.304	4.19
529.504	4.23
529.704	4.21
529.904	4.22
530.104	4.18
530.304	4.17
530.503	4.13
530.703	4.12
530.903	4.15
531.103	4.17
531.303	4.24
531.502	4.25
531.702	4.29
531.902	4.3
532.101	4.29
532.301	4.29
532.501	4.26
532.7	4.29
532.9	4.32
533.1	4.39
533.299	4.36
533.499	4.43
533.698	4.42
533.898	4.38
534.097	4.35
534.297	4.39
534.496	4.35
534.696	4.37
534.895	4.43
535.095	4.47
535.294	4.45
535.494	4.45
535.693	4.43
535.892	4.46
536.092	4.41
536.291	4.46
536.491	4.48
536.69	4.46
536.889	4.39
537.088	4.4
537.288	4.39
537.487	4.46
537.686	4.53
537.886	4.64
538.085	4.67
538.284	4.63
538.483	4.6
538.682	4.59
538.882	4.59
539.081	4.62
539.28	4.66
539.479	4.65
539.678	4.64
539.877	4.6
540.076	4.58
540.275	4.63
540.474	4.68
540.673	4.69
540.872	4.72
541.071	4.74
541.27	4.76
541.469	4.82
541.668	4.88
541.867	4.92
542.066	4.98
542.265	4.98
542.464	4.92
542.663	4.97
542.862	5.03
543.06	5.1
543.259	5.19
543.458	5.26
543.657	5.28
543.856	5.26
544.054	5.22
544.253	5.15
544.452	5.15
544.651	5.14
544.849	5.11
545.048	5.13
545.247	5.16
545.445	5.17
545.644	5.24
545.843	5.32
546.041	5.4
546.24	5.51
546.438	5.57
546.637	5.56
546.836	5.59
547.034	5.52
547.233	5.55
547.431	5.57
547.63	5.59
547.828	5.59
548.027	5.6
548.225	5.59
548.423	5.61
548.622	5.68
548.82	5.7
549.019	5.82
549.217	5.79
549.415	5.81
549.614	5.85
549.812	5.82
550.01	5.83
550.209	5.88
550.407	5.98
550.605	6.02
550.803	6.1
551.002	6.11
551.2	6.22
551.398	6.24
551.596	6.21
551.794	6.3
551.993	6.38
552.191	6.4
552.389	6.4
552.587	6.47
552.785	6.49
552.983	6.51
553.181	6.6
553.379	6.65
553.577	6.65
553.775	6.74
553.973	6.79
554.171	6.77
554.369	6.87
554.567	6.93
554.765	6.92
554.963	6.93
555.161	6.99
555.359	7.02
555.557	7.09
555.755	7.14
555.952	7.26
556.15	7.28
556.348	7.32
556.546	7.39
556.744	7.4
556.941	7.42
557.139	7.52
557.337	7.58
557.535	7.6
557.732	7.65
557.93	7.74
558.128	7.72
558.325	7.74
558.523	7.8
558.721	7.91
558.918	7.87
559.116	7.97
559.313	8
559.511	8.09
559.708	8.09
559.906	8.21
560.104	8.24
560.301	8.33
560.498	8.37
560.696	8.47
560.893	8.47
561.091	8.58
561.288	8.66
561.486	8.71
561.683	8.8
561.88	8.97
562.078	9.01
562.275	9.05
562.473	9.13
562.67	9.11
562.867	9.06
563.064	9.1
563.262	9.15
563.459	9.18
563.656	9.2
563.853	9.36
564.051	9.37
564.248	9.35
564.445	9.43
564.642	9.48
564.839	9.53
565.036	9.63
565.234	9.76
565.431	9.8
565.628	9.83
565.825	9.82
566.022	9.89
566.219	9.87
566.416	9.88
566.613	9.98
566.81	10.06
567.007	10.04
567.204	10.14
567.401	10.19
567.598	10.26
567.795	10.22
567.991	10.24
568.188	10.27
568.385	10.25
568.582	10.28
568.779	10.34
568.976	10.39
569.172	10.54
569.369	10.65
569.566	10.66
569.763	10.76
569.96	10.78
570.156	10.64
570.353	10.59
570.55	10.55
570.746	10.46
570.943	10.49
571.14	10.57
571.336	10.61
571.533	10.66
571.729	10.77
571.926	10.8
572.123	10.79
572.319	10.89
572.516	10.95
572.712	10.89
572.909	10.9
573.105	10.91
573.302	10.85
573.498	10.87
573.695	10.9
573.891	10.87
574.087	10.93
574.284	10.97
574.48	10.9
574.677	10.93
574.873	10.94
575.069	10.92
575.266	10.88
575.462	10.87
575.658	10.87
575.854	10.98
576.051	11.05
576.247	11.11
576.443	11.18
576.639	11.21
576.835	11.07
577.032	10.97
577.228	10.94
577.424	10.98
577.62	10.95
577.816	10.97
578.012	10.94
578.208	10.96
578.404	10.93
578.6	10.92
578.796	10.91
578.993	10.9
579.189	10.81
579.384	10.76
579.58	10.72
579.776	10.72
579.972	10.75
580.168	10.77
580.364	10.74
580.56	10.75
580.756	10.72
580.952	10.71
581.148	10.77
581.343	10.77
581.539	10.71
581.735	10.75
581.931	10.8
582.127	10.71
582.322	10.72
582.518	10.77
582.714	10.76
582.909	10.64
583.105	10.68
583.301	10.65
583.496	10.6
583.692	10.6
583.888	10.66
584.083	10.63
584.279	10.64
584.474	10.61
584.67	10.53
584.866	10.48
585.061	10.51
585.257	10.49
585.452	10.51
585.648	10.48
585.843	10.49
586.039	10.41
586.234	10.37
586.429	10.39
586.625	10.41
586.82	10.43
587.015	10.45
587.211	10.4
587.406	10.38
587.601	10.39
587.797	10.33
587.992	10.26
588.187	10.31
588.383	10.28
588.578	10.3
588.773	10.35
588.968	10.45
589.163	10.55
589.359	10.56
589.554	10.59
589.749	10.59
589.944	10.48
590.139	10.44
590.334	10.36
590.529	10.34
590.724	10.36
590.919	10.39
591.114	10.35
591.309	10.41
591.504	10.44
591.699	10.35
591.894	10.4
592.089	10.41
592.284	10.45
592.479	10.48
592.674	10.53
592.869	10.51
593.064	10.56
593.259	10.61
593.454	10.57
593.648	10.55
593.843	10.61
594.038	10.57
594.233	10.6
594.428	10.65
594.622	10.81
594.817	10.9
595.012	10.85
595.206	10.86
595.401	10.9
595.596	10.8
595.79	10.76
595.985	10.93
596.18	10.96
596.374	10.95
596.569	11.07
596.763	11.18
596.958	11.23
597.153	11.23
597.347	11.3
597.542	11.31
597.736	11.2
597.931	11.13
598.125	11.14
598.319	11.2
598.514	11.23
598.708	11.34
598.903	11.39
599.097	11.48
599.291	11.51
599.486	11.52
599.68	11.59
599.874	11.63
600.069	11.7
600.263	11.63
600.457	11.64
600.651	11.61
600.846	11.58
601.04	11.49
601.234	11.54
601.428	11.54
601.622	11.61
601.817	11.67
602.011	11.67
602.205	11.68
602.399	11.7
602.593	11.65
602.787	11.63
602.981	11.72
603.175	11.78
603.369	11.69
603.563	11.68
603.757	11.69
603.951	11.69
604.145	11.59
604.339	11.71
604.533	11.65
604.727	11.63
604.921	11.65
605.115	11.68
605.309	11.61
605.502	11.7
605.696	11.62
605.89	11.54
606.084	11.52
606.278	11.48
606.471	11.41
606.665	11.42
606.859	11.33
607.053	11.34
607.246	11.3
607.44	11.29
607.634	11.35
607.827	11.37
608.021	11.27
608.214	11.25
608.408	11.22
608.602	11.09
608.795	11.1
608.989	11.14
609.182	11.1
609.376	11.09
609.569	11.08
609.763	10.97
609.956	10.83
610.15	10.72
610.343	10.6
610.537	10.53
610.73	10.46
610.923	10.52
611.117	10.63
611.31	10.58
611.504	10.64
611.697	10.61
611.89	10.52
612.083	10.42
612.277	10.34
612.47	10.23
612.663	10.3
612.856	10.27
613.05	10.3
613.243	10.33
613.436	10.3
613.629	10.25
613.822	10.24
614.015	10.18
614.209	10.08
614.402	10.11
614.595	9.99
614.788	9.9
614.981	9.79
615.174	9.83
615.367	9.75
615.56	9.68
615.753	9.68
615.946	9.66
616.139	9.56
616.332	9.5
616.525	9.5
616.718	9.41
616.911	9.41
617.103	9.42
617.296	9.35
617.489	9.32
617.682	9.39
617.875	9.35
618.067	9.27
618.26	9.27
618.453	9.3
618.646	9.22
618.838	9.2
619.031	9.23
619.224	9.24
619.417	9.18
619.609	9.05
619.802	9.07
619.994	9.04
620.187	8.98
620.38	8.95
620.572	8.99
620.765	8.93
620.957	8.88
621.15	8.85
621.342	8.83
621.535	8.79
621.727	8.74
621.92	8.77
622.112	8.79
622.305	8.81
622.497	8.83
622.69	8.74
622.882	8.66
623.074	8.61
623.267	8.53
623.459	8.51
623.651	8.58
623.844	8.62
624.036	8.63
624.228	8.62
624.42	8.65
624.613	8.7
624.805	8.69
624.997	8.65
625.189	8.69
625.381	8.63
625.574	8.56
625.766	8.56
625.958	8.66
626.15	8.59
626.342	8.57
626.534	8.54
626.726	8.51
626.918	8.4
627.11	8.36
627.302	8.33
627.494	8.33
627.686	8.31
627.878	8.31
628.07	8.31
628.262	8.25
628.454	8.18
628.646	8.19
628.838	8.22
629.029	8.15
629.221	8.17
629.413	8.2
629.605	8.12
629.797	8.06
629.989	8.11
630.18	8.16
630.372	8.1
630.564	8.06
630.755	8.03
630.947	7.98
631.139	7.91
631.33	7.97
631.522	7.95
631.714	7.92
631.905	7.91
632.097	7.86
632.289	7.75
632.48	7.72
632.672	7.67
632.863	7.64
633.055	7.66
633.246	7.61
633.438	7.67
633.629	7.66
633.821	7.63
634.012	7.6
634.203	7.64
634.395	7.59
634.586	7.63
634.777	7.61
634.969	7.6
635.16	7.66
635.351	7.57
635.543	7.62
635.734	7.61
635.925	7.59
636.117	7.53
636.308	7.54
636.499	7.5
636.69	7.43
636.881	7.33
637.073	7.4
637.264	7.36
637.455	7.24
637.646	7.33
637.837	7.4
638.028	7.32
638.219	7.33
638.41	7.36
638.601	7.32
638.792	7.27
638.983	7.25
639.174	7.2
639.365	7.14
639.556	7.12
639.747	7.11
639.938	7.12
640.129	7.19
640.32	7.22
640.511	7.15
640.701	7.13
640.892	7.05
641.083	6.93
641.274	6.81
641.465	6.85
641.655	6.84
641.846	6.84
642.037	6.84
642.228	6.93
642.418	6.83
642.609	6.72
642.8	6.64
642.99	6.57
643.181	6.44
643.372	6.47
643.562	6.4
643.753	6.37
643.943	6.38
644.134	6.44
644.324	6.44
644.515	6.45
644.705	6.51
644.896	6.56
645.086	6.48
645.277	6.46
645.467	6.54
645.658	6.55
645.848	6.52
646.038	6.58
646.229	6.56
646.419	6.54
646.61	6.54
646.8	6.51
646.99	6.49
647.18	6.45
647.371	6.38
647.561	6.33
647.751	6.21
647.941	6.13
648.132	6.18
648.322	6.2
648.512	6.14
648.702	6.24
648.892	6.31
649.082	6.32
649.272	6.25
649.462	6.28
649.653	6.32
649.843	6.23
650.033	6.27
650.223	6.37
650.413	6.37
650.603	6.36
650.793	6.4
650.983	6.27
651.172	6.17
651.362	6.16
651.552	6.08
651.742	6.04
651.932	5.98
652.122	6.1
652.312	6.12
652.502	6.02
652.691	6.04
652.881	6.06
653.071	6.02
653.261	5.91
653.45	6.02
653.64	5.87
653.83	5.84
654.019	5.66
654.209	5.71
654.399	5.65
654.588	5.76
654.778	5.76
654.968	5.79
655.157	5.66
655.347	5.62
655.536	5.52
655.726	5.38
655.915	5.36
656.105	5.28
656.294	5.23
656.484	5.15
656.673	5.17
656.863	5.21
657.052	5.19
657.241	5.06
657.431	5.02
657.62	4.95
657.809	4.81
657.999	4.83
658.188	4.87
658.377	4.8
658.567	4.76
658.756	4.64
658.945	4.59
659.134	4.51
659.324	4.48
659.513	4.47
659.702	4.43
659.891	4.33
660.08	4.28
660.269	4.25
660.458	4.14
660.648	4.13
660.837	4.09
661.026	4.03
661.215	4.01
661.404	4
661.593	3.93
661.782	3.89
661.971	3.92
662.16	3.82
662.349	3.72
662.538	3.71
662.726	3.68
662.915	3.61
663.104	3.55
663.293	3.58
663.482	3.52
663.671	3.45
663.86	3.37
664.048	3.37
664.237	3.46
664.426	3.51
664.615	3.49
664.803	3.59
664.992	3.54
665.181	3.38
665.369	3.32
665.558	3.33
665.747	3.24
665.935	3.24
666.124	3.28
666.312	3.2
666.501	3.18
666.69	3.16
666.878	3.11
667.067	3.1
667.255	3.19
667.444	3.27
667.632	3.39
667.82	3.49
668.009	3.51
668.197	3.43
668.386	3.31
668.574	3.27
668.762	3.2
668.951	3.22
669.139	3.29
669.327	3.32
669.516	3.27
669.704	3.29
669.892	3.23
670.08	3.23
670.269	3.15
670.457	3.2
670.645	3.23
670.833	3.25
671.021	3.22
671.21	3.35
671.398	3.39
671.586	3.31
671.774	3.39
671.962	3.42
672.15	3.46
672.338	3.53
672.526	3.66
672.714	3.6
672.902	3.59
673.09	3.76
673.278	3.65
673.466	3.81
673.654	4.07
673.842	4.15
674.03	4.1
674.218	4.26
674.405	4.16
674.593	4.12
674.781	4.14
674.969	4.15
675.157	4.17
675.344	4.24
675.532	4.18
675.72	4.16
675.908	4.19
676.095	4.23
676.283	4.28
676.471	4.39
676.658	4.54
676.846	4.59
677.033	4.64
677.221	4.69
677.409	4.67
677.596	4.65
677.784	4.76
677.971	4.78
678.159	4.78
678.346	4.9
678.534	5.01
678.721	4.94
678.909	4.99
679.096	5.08
679.283	5.03
679.471	5
679.658	5.16
679.846	5.17
680.033	5.26
680.22	5.38
680.408	5.41
680.595	5.34
680.782	5.4
680.969	5.37
681.157	5.31
681.344	5.32
681.531	5.38
681.718	5.35
681.905	5.29
682.093	5.35
682.28	5.53
682.467	5.66
682.654	5.89
682.841	6.05
683.028	6.18
683.215	6.26
683.402	6.14
683.589	6.18
683.776	6.33
683.963	6.23
684.15	6.23
684.337	6.49
684.524	6.58
684.711	6.58
684.898	6.81
685.085	6.95
685.271	6.98
685.458	6.96
685.645	7.07
685.832	7.24
686.019	7.41
686.205	7.64
686.392	7.84
686.579	8.14
686.766	8.19
686.952	8.29
687.139	8.48
687.326	8.6
687.512	8.56
687.699	8.76
687.886	8.87
688.072	8.99
688.259	9.28
688.445	9.52
688.632	9.87
688.818	10.33
689.005	10.6
689.191	10.82
689.378	10.98
689.564	11.02
689.751	11.22
689.937	11.52
690.124	11.89
690.31	12.22
690.496	12.8
690.683	13.05
690.869	13.18
691.055	13.38
691.242	13.91
691.428	13.97
691.614	14.33
691.8	14.81
691.987	15.06
692.173	15.2
692.359	15.77
692.545	16.14
692.731	16.5
692.918	17.06
693.104	17.56
693.29	18.04
693.476	18.53
693.662	19.15
693.848	19.67
694.034	20.03
694.22	20.4
694.406	20.85
694.592	21.28
694.778	21.52
694.964	22.03
695.15	22.4
695.336	22.7
695.522	22.89
695.708	23.63
695.894	23.99
696.08	24.69
696.265	25.29
696.451	25.94
696.637	26.28
696.823	26.95
697.009	27.34
697.194	27.64
697.38	28.06
697.566	28.66
697.751	29.31
697.937	29.74
698.123	30.38
698.308	31.05
698.494	31.42
698.68	31.82
698.865	32.46
699.051	32.99
699.236	33.62
699.422	34.21
699.607	34.67
699.793	35.16
699.978	35.59
700.164	36.11
700.349	36.84
700.535	37.45
700.72	37.66
700.906	38.33
701.091	38.29
701.276	38.67
701.462	39.28
701.647	40.05
701.832	40.76
702.018	41.61
702.203	42.06
702.388	42.26
702.573	42.62
702.759	42.64
702.944	42.97
703.129	43.24
703.314	43.79
703.499	44.63
703.684	45
703.87	45.56
704.055	46
704.24	46.8
704.425	47.15
704.61	47.86
704.795	48.14
704.98	48.69
705.165	48.7
705.35	49.31
705.535	49.9
705.72	50.55
705.905	51.08
706.09	51.72
706.275	51.98
706.459	52.14
706.644	52.6
706.829	53.26
707.014	54.01
707.199	54.37
707.384	54.72
707.568	54.99
707.753	55.48
707.938	55.96
708.123	56.47
708.307	57.2
708.492	57.75
708.677	57.76
708.861	57.71
709.046	57.92
709.231	58.24
709.415	58.53
709.6	59.17
709.784	59.52
709.969	59.7
710.153	60.14
710.338	60.62
710.522	61.18
710.707	62.11
710.891	62.96
711.076	63.24
711.26	63.3
711.445	63.15
711.629	63.08
711.813	62.98
711.998	63.5
712.182	64.24
712.366	64.4
712.551	64.87
712.735	65.47
712.919	65.35
713.103	65.45
713.288	66.14
713.472	66.19
713.656	66.07
713.84	66.7
714.024	67.02
714.208	67.28
714.393	67.57
714.577	68.14
714.761	68.89
714.945	69.1
715.129	69.51
715.313	70.18
715.497	70.54
715.681	70.72
715.865	70.95
716.049	71.29
716.233	71.51
716.417	71.7
716.601	71.19
716.785	71.96
716.968	72.04
717.152	72.23
717.336	72.58
717.52	73.29
717.704	72.72
717.888	72.48
718.071	72.9
718.255	73.11
718.439	72.98
718.622	73.36
718.806	73.98
718.99	73.76
719.174	73.95
719.357	74.3
719.541	74.83
719.724	75.42
719.908	75.77
720.092	76.17
720.275	76.42
720.459	76.98
720.642	77.6
720.826	77.66
721.009	77.85
721.193	78.25
721.376	78.29
721.559	77.69
721.743	77.77
721.926	77.8
722.11	77.98
722.293	78.05
722.476	78.38
722.66	78.6
722.843	78.8
723.026	78.9
723.21	79.31
723.393	78.9
723.576	79.29
723.759	79.58
723.942	79.55
724.126	79.34
724.309	79.88
724.492	79.11
724.675	79.33
724.858	79.84
725.041	80
725.224	80.56
725.407	81.49
725.59	81.31
725.774	81.36
725.957	81.67
726.14	82.29
726.322	81.84
726.505	82.54
726.688	82.86
726.871	83.05
727.054	82.37
727.237	83.5
727.42	83.18
727.603	83.15
727.786	82.62
727.968	82.15
728.151	82.3
728.334	83.19
728.517	83.58
728.699	84.67
728.882	85.84
729.065	85.1
729.248	84.66
729.43	83.36
729.613	83.57
729.796	83.44
729.978	84.6
730.161	84.23
730.343	85.28
730.526	84.6
730.708	85.17
730.891	84.57
731.073	84.95
731.256	84.79
731.438	84.93
731.621	84.65
731.803	85.1
731.986	84.9
732.168	84.92
732.35	85.54
732.533	85.76
732.715	85.19
732.898	85.52
733.08	85.78
733.262	86.09
733.444	86.02
733.627	86.35
733.809	86.52
733.991	87.56
734.173	86.78
734.355	86.63
734.538	87.07
734.72	86.86
734.902	86.4
735.084	86.87
735.266	87.75
735.448	87.56
735.63	88.29
735.812	89.06
735.994	89.29
736.176	89.13
736.358	89.28
736.54	88.46
736.722	87.6
736.904	87.52
737.086	87.23
737.268	87.96
737.45	88.76
737.632	88.77
737.814	88.99
737.995	88.94
738.177	88.48
738.359	88.51
738.541	89.63
738.723	90.4
738.904	90.69
739.086	90.72
739.268	90.76
739.449	90.1
739.631	89.17
739.813	88.91
739.994	88.71
740.176	87.59
740.358	87.87
740.539	88.36
740.721	88.76
740.902	89.8
741.084	91.01
741.265	90.68
741.447	91.14
741.628	92.2
741.81	90.13
741.991	90.43
742.172	91.11
742.354	90.24
742.535	88.33
742.717	89.39
742.898	89.16
743.079	88.52
743.261	89.96
743.442	91.15
743.623	92.53
743.804	92.48
743.986	92.94
744.167	91.35
744.348	91.51
744.529	91.23
744.71	92.53
744.891	92.64
745.073	94.3
745.254	94.35
745.435	93.96
745.616	92.63
745.797	91.86
745.978	90.37
746.159	90.49
746.34	89.48
746.521	89.58
746.702	90.04
746.883	89.56
747.064	88.86
747.245	89.8
747.426	90.66
747.606	90.46
747.787	92.4
747.968	93.52
748.149	94.27
748.33	92.03
748.51	92.66
748.691	90.2
748.872	89.22
749.053	88.83
749.233	89.65
749.414	88.36
749.595	90.37
749.775	89.9
749.956	89.05
750.137	90.39
750.317	92.3
750.498	90.69
750.678	91.2
750.859	90.39
751.04	89.06
751.22	87.62
751.4	88.2
751.581	88.34
751.761	90.02
751.942	91.57
752.122	90.6
752.303	90.53
752.483	91.11
752.663	91.15
752.844	90
753.024	91.33
753.204	91.8
753.385	90.23
753.565	89.99
753.745	91.15
753.925	92.44
754.106	93.45
754.286	95.36
754.466	95.61
754.646	95.31
754.826	93.24
755.006	92.52
755.187	91.24
755.367	89.76
755.547	90.38
755.727	91.08
755.907	89.93
756.087	88.88
756.267	88.23
756.447	86.24
756.627	85.02
756.807	85.03
756.987	86.13
757.167	87.47
757.346	87.71
757.526	87.8
757.706	88.29
757.886	88.18
758.066	88.94
758.246	90.83
758.425	92.25
758.605	91.83
758.785	92.87
758.965	92.43
759.144	90.45
759.324	88.4
759.504	89.22
759.683	88.72
759.863	88.62
760.043	89.83
760.222	91.1
760.402	89.79
760.581	89.81
760.761	88.81
760.94	88.18
761.12	90.66
761.299	90.87
761.479	90.74
761.658	89.49
761.838	89.48
762.017	88.06
762.197	88.65
762.376	88.62
762.555	91.5
762.735	89.97
762.914	91.25
763.093	91.91
763.273	89.87
763.452	89.34
763.631	92.15
763.81	91.88
763.99	92.24
764.169	92.51
764.348	91.63
764.527	88.84
764.706	86.14
764.885	85.96
765.064	88.42
765.243	88.05
765.423	89.3
765.602	91.34
765.781	90.84
765.96	88.28
766.139	89.39
766.318	89.47
766.497	88.98
766.676	89.12
766.854	92.7
767.033	91.65
767.212	90.12
767.391	87.41
767.57	87.87
767.749	85.87
767.928	87.18
768.106	87.21
768.285	88.7
768.464	86.62
768.643	87.15
768.821	84.87
769	87.45
769.179	87.81
769.357	88.8
769.536	87.26
769.715	88.89
769.893	87.78
770.072	88.23
770.25	87.79
770.429	89.17
770.607	88.89
770.786	88.18
770.964	87.6
771.143	88.44
771.321	88.05
771.5	87.48
771.678	89.76
771.857	91.91
772.035	91.02
772.213	90.9
772.392	88.46
772.57	87.92
772.748	86.17
772.927	85.55
773.105	85.79
773.283	88.01
773.461	86.8
773.64	86.06
773.818	86.53
773.996	84.52
774.174	82.15
774.352	82.35
774.531	82.71
774.709	81.42
774.887	81.86
775.065	84.89
775.243	82.16
775.421	82.49
775.599	83.56
775.777	84.9
775.955	84.16
776.133	84.89
776.311	86.45
776.489	88.98
776.667	88.15
776.844	91.4
777.022	92.97
777.2	91.89
777.378	88.44
777.556	89.06
777.734	84.98
777.911	85.17
778.089	83.54
778.267	83.85
778.445	80.99
778.622	81.8
778.8	82.02
778.978	81.91
779.155	81.91
779.333	85.18
779.511	85.19
779.688	84.32
779.866	84.77
780.043	85.59
780.221	82.04
780.398	82.35
780.576	84.53
780.753	81.8
780.931	80.38
781.108	83.02
781.286	83.93
781.463	82.49
781.64	84.87
781.818	88.14
781.995	88.83
782.172	89.03
782.35	88.03
782.527	89.37
782.704	85.7
782.882	84.45
783.059	82.72
783.236	79.89
783.413	75.78
783.59	78.57
783.768	75.18
783.945	72.14
784.122	76.25
784.299	77.15
784.476	74.08
784.653	77.02
784.83	82.77
785.007	80.27
785.184	82.01
785.361	86.23
785.538	86.13
785.715	82.95
785.892	86.78
786.069	87.12
786.246	86.52
786.423	87.78
786.6	87.87
786.776	85.47
786.953	82.47
787.13	84.02
787.307	80.83
787.484	80.32
787.66	79.14
787.837	86.2
788.014	86.11
788.191	91.59
788.367	97.07
788.544	94.49
788.721	90.52
788.897	87.22
789.074	83.09
789.25	79.03
789.427	83.72
789.603	79.84
789.78	78.15
789.956	86.06
790.133	85.95
790.309	79.83
790.486	84.74
790.662	88.66
790.839	77.15
791.015	76.23
791.192	81.65
791.368	81.85
791.544	76.37
791.721	82.38
791.897	83.63
792.073	84.15
792.249	81.76
792.426	87.65
792.602	82.42
792.778	82.98
792.954	80
793.13	81.96
793.307	80.03
793.483	81.3
793.659	80.33
793.835	81.04
794.011	79.37
794.187	74.32
794.363	73.05
794.539	73.13
794.715	72.37
794.891	70.69
795.067	75.43
795.243	78.01
795.419	78.24
795.595	78.55
795.771	77.15
795.947	78.46
796.122	79.81
796.298	82.84
796.474	81.3
796.65	81.46
796.826	81.11
797.001	80.93
797.177	80.37
797.353	79.98
797.529	82.69
797.704	84.9
797.88	86.46
798.056	84.32
798.231	91.29
798.407	87.69
798.582	85.32
798.758	86.3
798.934	85.67
799.109	81.18
799.285	86.83
799.46	86.01
799.636	77.46
799.811	76.69
799.986	79.26
800.162	80.3
800.337	76.46
800.513	83.82
800.688	82.58
800.863	83.78
801.039	83.48
801.214	90.06
801.389	89.9
801.565	90.26
801.74	89.21
801.915	80.11
802.09	74.89
802.265	73.79
802.441	71.67
802.616	68.4
802.791	68.02
802.966	73.05
803.141	72.21
803.316	70.21
803.491	67.81
803.666	72.54
803.841	64.82
804.016	65.36
804.191	64.48
804.366	65.66
804.541	64.31
804.716	64.89
804.891	62.67
805.066	65.63
805.241	63.27
805.416	60.81
805.591	70.2
805.765	71.68
805.94	68.98
806.115	73.37
806.29	75.93
806.464	67.89
806.639	66.23
806.814	70.93
806.989	62.75
807.163	65.41
807.338	70.26
807.512	71.05
807.687	73.99
807.862	82.99
808.036	86.9
808.211	77.4
808.385	75.48
808.56	72.66
808.734	70.77
808.909	65.39
809.083	66.39
809.258	69.02
809.432	73.39
809.606	75.81
809.781	71.98
809.955	73.68
810.13	70.67
810.304	64.45
810.478	59.18
810.652	66.82
810.827	64.55
811.001	67.45
811.175	72.25
811.349	74.31
811.524	61.34
811.698	68.16
811.872	78.35
812.046	74.78
812.22	79.73
812.394	92.14
812.568	95.3
812.742	79.79
812.916	73.04
813.09	71.9
813.264	76.71
813.438	72.39
813.612	68.25
813.786	72.11
813.96	66.07
814.134	68.36
814.308	70.99
814.482	74.56
814.656	83.06
814.83	91.08
815.003	81.41
815.177	78.48
815.351	87.39
815.525	79.72
815.698	81.35
815.872	79.8
816.046	87.3
816.219	78.52
816.393	78.48
816.567	84.4
816.74	92.22
816.914	75.63
817.088	88.7
817.261	96.15
817.435	82.93
817.608	78.66
817.782	73.1
817.955	69.78
818.129	59.02
818.302	60.92
818.475	59.64
818.649	75.94
818.822	68.27
818.996	78.66
819.169	82.33
819.342	76.58
819.516	69.69
819.689	71.01
819.862	57.02
820.035	54.15
820.209	61.7
820.382	55.77
820.555	53.72
820.728	73.41
820.901	87.03
821.075	75.57
821.248	79.92
821.421	91.87
821.594	94.25
821.767	82.93
821.94	84.32
822.113	87.38
822.286	66.72
822.459	68.12
822.632	71
822.805	70.39
822.978	68.38
823.151	73.98
823.324	62.68
823.496	65.79
823.669	63
823.842	68.27
824.015	72.44
824.188	76.23
824.361	66.72
824.533	65.69
824.706	61.17
824.879	57.06
825.051	51.33
825.224	49.23
825.397	49.1
825.569	44.46
825.742	33.58
825.915	37.41
826.087	59.01
826.26	59.99
826.432	58.64
826.605	69.53
826.777	60.15
826.95	52.36
827.122	62.5
827.295	70.11
827.467	66.03
827.64	58.31
827.812	44.79
827.984	47.34
828.157	45.01
828.329	65.48
828.501	77.7
828.674	98.34
828.846	88.73
829.018	100.26
829.19	93.04
829.363	89.27
829.535	80.4
829.707	85.61
829.879	76.2
830.051	61.07
830.223	65.22
830.395	53.45
830.568	41.24
830.74	43.77
830.912	34.04
831.084	55.22
831.256	52.14
831.428	72.42
831.6	61.46
831.772	82.42
831.943	44.85
832.115	56.97
832.287	48.11
832.459	49.89
832.631	48.95
832.803	43
832.975	42.78
833.146	47.51
833.318	39.29
833.49	45.31
833.662	46.02
833.833	50.04
834.005	35.5
834.177	55.89
834.348	60.11
834.52	71.67
834.692	76.11
834.863	85.31
835.035	70.56
835.206	47.3
835.378	50.23
835.549	45.55
835.721	42.83
835.892	36.43
836.064	55.19
836.235	58.81
836.407	61.66
836.578	58.29
836.749	69.43
836.921	38.77
837.092	25.16
837.264	7.04
837.435	22.69
837.606	14.53
837.777	33.57
837.949	52.91
838.12	49.81
838.291	43.73
838.462	47.88
838.633	60.76
838.805	48.96
838.976	68.67
839.147	57.12
839.318	54.66
839.489	50.75
839.66	52.22
839.831	62.89
840.002	77.33
840.173	84.78
840.344	61.64
840.515	59.36
840.686	29.05
840.857	28.16
841.028	16.51
841.199	38.78
841.369	44.41
841.54	67.87
841.711	36.84
841.882	44.59
842.053	34.35
842.223	38.51
842.394	27.84
842.565	35.09
842.736	36.41
842.906	31.13
843.077	36.81
843.248	58.6
843.418	73
843.589	82.65
843.759	69.12
843.93	72.67
844.101	80.5
844.271	80.9
844.442	50.68
844.612	58.2
844.783	56.97
844.953	50.21
845.123	38.21
845.294	59.24
845.464	38.74
845.635	23.84
845.805	-3.17
845.975	30.31
846.146	6.58
846.316	20.66
846.486	27.19
846.656	42.27
846.827	32.92
846.997	52.48
847.167	52.13
847.337	40.07
847.507	34.94
847.677	33.26
847.848	48.44
848.018	66.07
848.188	83.14
848.358	80.06
848.528	59.5
848.698	40.89
848.868	28.93
849.038	3.32
849.208	18.7
849.378	29.86
849.548	36.05
849.718	26.45
849.887	53.14
850.057	35.46
850.227	47.06
850.397	73.08
850.567	76.23
850.737	61.13
850.906	55.21
851.076	23.57
851.246	18.35
851.415	36.83
851.585	16.49
851.755	32.26
851.924	50.18
852.094	28.31
852.264	16.53
852.433	22.21
852.603	42.25
852.772	41.94
852.942	64.42
853.111	43.96
853.281	48.82
853.45	17.98
853.62	14.44
853.789	15.73
853.959	40.87
854.128	39.02
854.297	64.43
854.467	63.3
854.636	62.71
854.805	46.27
854.975	37.78
855.144	-41.6
855.313	29.15
855.482	-7.45
855.652	14
855.821	48.77
855.99	62.5
856.159	77.7
856.328	102.18
856.497	125.26
856.667	68.75
856.836	57
857.005	5.31
857.174	-124.98
857.343	-118.78
857.512	-115.55
857.681	20.6
857.85	48.31
858.019	64.45
858.188	66.38
858.356	86.67
858.525	78.76
858.694	63.52
858.863	47.29
859.032	52.16
859.201	44.81
859.369	42.8
859.538	85.75
859.707	72.16
859.876	62.37
860.044	58.62
860.213	71.4
860.382	75.52
860.55	118.84
860.719	126.73
860.888	106.73
861.056	90.07
861.225	67.06
861.393	39.84
861.562	31.94
861.73	30.8
861.899	26.85
862.067	-3.68
862.236	18.26
862.404	6.35
862.572	13.67
862.741	21.51
862.909	39.27
863.078	20.1
863.246	23.28
863.414	25.36
863.582	56.78
863.751	47.62
863.919	44.08
864.087	103.95
864.255	55.81
864.424	25.48
864.592	40.5
864.76	11.41
864.928	-13.4
865.096	-8.4
865.264	3.86
865.432	-35.09
865.6	4.44
865.768	-10.56
865.936	-5.72
866.104	-7.9
866.272	32.54
866.44	46.04
866.608	35.79
866.776	43
866.944	47.54
867.112	17.1
867.28	-4.9
867.448	154.51
867.615	146.2
867.783	65.43
867.951	2.62
868.119	3.23
868.286	-22.8
868.454	-34.62
868.622	-32.08
868.789	-99.76
868.957	-49.78
869.125	-146.61
869.292	-81.25
869.46	-91.92
869.627	-28.45
869.795	-43.98
869.963	-14.22
870.13	-28.65
870.298	-9.94
870.465	-11.78
870.632	29.01
870.8	-19.85
870.967	-34.19
871.135	-75.34
871.302	-115.4
871.469	900.59
871.637	-27.63
871.804	34.14
871.971	53.25
872.139	35.1
872.306	34.22
872.473	21.14
872.64	18.99
872.807	4.53
872.975	3.14
873.142	26.79
873.309	-824.64
873.476	59.23
873.643	82.42
873.81	32.61
873.977	61.18
874.144	84.38
874.311	49.52
874.478	11.65
874.645	44.23
874.812	16.86
874.979	-11.14
875.146	-21
875.313	3.72
875.48	-142.07
875.647	341.3
875.813	-114.22
875.98	126.26
876.147	-124.24
876.314	4.7
876.481	-60.78
876.647	-15.44
876.814	-4.76
876.981	39.76
877.147	38.5
877.314	76.81
877.481	76.68
877.647	80.7
877.814	61.29
877.98	28.61
878.147	-27.51
878.314	-64.85
878.48	-96.9
878.647	-26.28
878.813	-487.6
878.979	74.31
879.146	37.45
879.312	110.39
879.479	59.37
879.645	59.18
879.811	53.83
879.978	47.45
880.144	29.59
880.31	10.79
880.477	-2.43
880.643	-27.38
880.809	-98.39
880.975	-6124.24
881.142	759
881.308	2582.67
881.474	-255.83
881.64	-91.14
881.806	-16.42
881.972	36.14
882.138	62.73
882.304	95.53
882.47	88.98
882.636	75.74
882.802	64.77
882.968	-17.91
883.134	14.96
883.3	10.55
883.466	45.44
883.632	32.03
883.798	48.81
883.964	72.46
884.129	43.45
884.295	10.52
884.461	8.92
884.627	-18.45
884.793	-138.41
884.958	-13.23
885.124	2.77
885.29	2.51
885.455	-34.9
885.621	58.9
885.787	47.66
885.952	36.62
886.118	23.76
886.283	1864.91
886.449	111.68
886.614	71.58
886.78	65.1
886.945	56.27
887.111	-1.95
887.276	22.85
887.442	-17.45
887.607	-104.36
887.773	-32.68
887.938	-17.52
888.103	-32.68
888.269	-57.04
888.434	-24.47
888.599	-13.58
888.764	8.02
888.93	-32.94
889.095	57.58
889.26	162.64
889.425	485.58
889.59	-675.85
889.756	417.05
889.921	73.37
890.086	76.01
890.251	-7.67
890.416	-9.64
890.581	42.62
890.746	68.34
890.911	58.81
891.076	38.56
891.241	68.27
891.406	53.28
891.571	-2
891.736	0.78
891.901	14.22
892.065	-27.41
892.23	-57.26
892.395	23.55
892.56	-28.81
892.725	-2.93
892.889	62.37
893.054	17.2
893.219	-13.98
893.384	0.93
893.548	-105.58
893.713	601.23
893.878	85.4
