Data from Ofav_PS_Phys_9JQ431_Reflection_3.txt Node
Date: Thu Jul 29 18:20:22 EDT 2021
User: USUARIO
Spectrometer: FLMT01687
Trigger mode: 0
Integration Time (sec): 9.010000E-1
Scans to average: 2
Electric dark correction enabled: true
Nonlinearity correction enabled: false
Boxcar width: 2
XAxis mode: Wavelengths
Number of Pixels in Spectrum: 3648
>>>>>Begin Spectral Data<<<<<
179.494	-67.94
179.716	-62.61
179.937	-65.74
180.158	685.88
180.38	76.48
180.601	-251.44
180.823	-23.32
181.044	-84.65
181.265	-137.8
181.486	-900.56
181.708	40.94
181.929	-48.26
182.15	6866.67
182.372	-124.39
182.593	-47.51
182.814	-55.71
183.035	-718.21
183.257	102.46
183.478	65.86
183.699	80.51
183.92	67.35
184.141	77.65
184.363	67.26
184.584	64.92
184.805	31.06
185.026	36.77
185.247	36.34
185.468	41.29
185.689	14.73
185.91	59.55
186.132	60.18
186.353	42.94
186.574	55.03
186.795	58.82
187.016	49.33
187.237	25.1
187.458	24.86
187.679	35.38
187.9	37.74
188.121	33.72
188.342	56.44
188.563	51.89
188.784	36.87
189.005	38.38
189.226	49.56
189.447	64.17
189.667	53.96
189.888	65.86
190.109	81.73
190.33	48.09
190.551	10.29
190.772	28.4
190.993	26.61
191.214	26.23
191.434	46.08
191.655	41.37
191.876	38.7
192.097	13.57
192.318	28.91
192.538	15.4
192.759	21.8
192.98	46.84
193.201	54.62
193.421	38.23
193.642	35.32
193.863	28.11
194.083	-7.69
194.304	-33.42
194.525	-4.89
194.745	-3.04
194.966	-4.21
195.187	3.55
195.407	18.24
195.628	1.68
195.848	20.85
196.069	33.97
196.29	16.43
196.51	16.73
196.731	31.62
196.951	26.09
197.172	32.76
197.392	38.21
197.613	42.15
197.833	20.42
198.054	17.27
198.274	24.03
198.495	36.06
198.715	33.48
198.936	46.89
199.156	44.6
199.377	34.85
199.597	40.64
199.817	50.09
200.038	54.81
200.258	62.46
200.479	57.63
200.699	3
200.919	14.72
201.14	3.15
201.36	18.13
201.58	36.56
201.801	51.65
202.021	61.53
202.241	66.74
202.461	73.25
202.682	53.99
202.902	77.03
203.122	65.38
203.342	81.25
203.563	66.2
203.783	70.74
204.003	46.05
204.223	63.93
204.443	66.35
204.663	75.11
204.884	78.44
205.104	110.75
205.324	75.53
205.544	65.55
205.764	54.39
205.984	60.16
206.204	44.12
206.424	38.02
206.644	25.33
206.864	11.24
207.084	-8.56
207.304	4.87
207.525	-1.8
207.745	7.31
207.964	23.72
208.184	15.92
208.404	2.7
208.624	33.66
208.844	28.68
209.064	46
209.284	42.66
209.504	52.45
209.724	43.34
209.944	48.46
210.164	50.06
210.384	57.43
210.604	41.75
210.823	38.63
211.043	32.64
211.263	30.97
211.483	13.08
211.703	4.49
211.922	17.69
212.142	29.91
212.362	41.47
212.582	40.69
212.801	41.61
213.021	21.03
213.241	20.96
213.461	-5.59
213.68	-26.54
213.9	3.69
214.12	27.63
214.339	-4.02
214.559	19.64
214.779	49.77
214.998	26.09
215.218	-22.26
215.438	23.43
215.657	15.18
215.877	19.81
216.096	29.24
216.316	62.67
216.535	65.04
216.755	38.52
216.974	6.1
217.194	-15.03
217.413	-17.65
217.633	-0.21
217.852	-11.4
218.072	-4.84
218.291	3.25
218.511	23.7
218.73	16.86
218.95	25.96
219.169	25.19
219.389	11.09
219.608	-1.17
219.827	-17.36
220.047	-16.19
220.266	-12.41
220.485	0.03
220.705	-0.64
220.924	-5.06
221.143	1.22
221.363	-7.23
221.582	-13
221.801	-17.47
222.021	20.65
222.24	-7.74
222.459	-1.89
222.678	5.15
222.897	-1.65
223.117	0.39
223.336	-6.43
223.555	-14.18
223.774	-6.41
223.993	29.28
224.213	26.27
224.432	36.17
224.651	33.26
224.87	22.19
225.089	16.2
225.308	22.13
225.527	28.28
225.746	22.85
225.965	42.35
226.184	18.02
226.404	-18.73
226.623	9.63
226.842	23.47
227.061	3.15
227.28	38.08
227.499	93.44
227.718	97.85
227.936	64.97
228.155	72.64
228.374	31.34
228.593	3.99
228.812	-10.6
229.031	-0.94
229.25	-3.61
229.469	23.34
229.688	18.49
229.907	43.68
230.125	36.77
230.344	45
230.563	19.71
230.782	35.54
231.001	5.53
231.22	10.8
231.438	12.62
231.657	25.3
231.876	20.22
232.095	18.42
232.313	7.14
232.532	-8.51
232.751	-36.44
232.969	-27.25
233.188	-14.09
233.407	-1.11
233.625	12.52
233.844	43.15
234.063	29.44
234.281	12.55
234.5	-0.86
234.719	34.89
234.937	13.15
235.156	16.44
235.374	29.3
235.593	28.67
235.811	-1.61
236.03	-8.91
236.249	4.39
236.467	2.02
236.686	3.48
236.904	-0.29
237.123	21.97
237.341	13.13
237.559	11.41
237.778	20.65
237.996	25.85
238.215	15.78
238.433	29.49
238.652	39.98
238.87	40.13
239.088	55.04
239.307	51.45
239.525	39.76
239.743	27.12
239.962	29.15
240.18	13.21
240.398	27.68
240.617	17.4
240.835	24.13
241.053	19.67
241.271	13.9
241.49	5.55
241.708	31
241.926	8.21
242.144	9.94
242.363	28.52
242.581	31.14
242.799	38.22
243.017	49.54
243.235	45.8
243.453	40.96
243.672	30.91
243.89	2.79
244.108	14.89
244.326	20.73
244.544	16.75
244.762	16.24
244.98	29.9
245.198	21.96
245.416	10.67
245.634	12.04
245.852	10.7
246.07	20.27
246.288	16.87
246.506	10.21
246.724	7.74
246.942	4.17
247.16	-2.81
247.378	-18.85
247.596	-11.31
247.814	-2.63
248.032	-3.78
248.25	10.6
248.468	25.08
248.685	21.78
248.903	42.83
249.121	51.05
249.339	27.21
249.557	23.09
249.775	21.71
249.992	-0.62
250.21	19.59
250.428	46.14
250.646	54.34
250.863	54.03
251.081	59.08
251.299	52.67
251.517	38.92
251.734	50.05
251.952	42.95
252.17	24.4
252.387	24.65
252.605	27.4
252.823	3.48
253.04	19.44
253.258	24.02
253.475	18.05
253.693	29.28
253.911	36.02
254.128	46.24
254.346	29.09
254.563	29.03
254.781	4.61
254.998	18.87
255.216	-19.03
255.433	5.74
255.651	-9.94
255.868	-6.94
256.086	-3.26
256.303	28.69
256.521	31.01
256.738	43.96
256.956	48.73
257.173	51.38
257.39	38.14
257.608	28.04
257.825	39.15
258.043	17.7
258.26	8.75
258.477	8.86
258.695	6.1
258.912	-2.61
259.129	6.62
259.346	-6.73
259.564	-31.51
259.781	-44.1
259.998	-28.43
260.216	7.55
260.433	35.67
260.65	31.81
260.867	58.03
261.084	44.28
261.302	18.71
261.519	3.15
261.736	27.3
261.953	19.87
262.17	45.23
262.387	45.8
262.604	15
262.822	0.59
263.039	5.41
263.256	-33.72
263.473	-12.93
263.69	7.98
263.907	26.97
264.124	15.13
264.341	29.72
264.558	-3.05
264.775	-1.17
264.992	-2.52
265.209	-2.27
265.426	-9
265.643	23.72
265.86	31.5
266.077	28.97
266.294	35.01
266.51	23.84
266.727	21.89
266.944	27.07
267.161	20.74
267.378	13.29
267.595	45.53
267.812	30.45
268.028	3.91
268.245	9.46
268.462	5.1
268.679	-2.91
268.896	2.37
269.112	10.13
269.329	19.68
269.546	29.03
269.763	31.71
269.979	42.77
270.196	62.96
270.413	71.11
270.629	66.14
270.846	59
271.063	52.78
271.279	49.17
271.496	30.65
271.712	25.9
271.929	39.97
272.146	42.25
272.362	25.36
272.579	52.31
272.795	61.59
273.012	40.92
273.228	37.92
273.445	57.46
273.661	40.83
273.878	29.38
274.094	63.99
274.311	64.84
274.527	46.9
274.744	55.38
274.96	61.04
275.177	33.69
275.393	27.15
275.609	31.62
275.826	9.75
276.042	4.8
276.259	-6.42
276.475	13.78
276.691	32.55
276.908	40.91
277.124	49.81
277.34	67.27
277.557	56.3
277.773	26.95
277.989	25.49
278.205	36.27
278.422	16.36
278.638	10.8
278.854	19.87
279.07	38.2
279.286	20.89
279.503	28.96
279.719	32.74
279.935	27.37
280.151	-14.37
280.367	-7.26
280.583	12.51
280.799	-4.38
281.016	10.46
281.232	43.74
281.448	45.01
281.664	50.23
281.88	56.33
282.096	42.28
282.312	19.14
282.528	5.91
282.744	2.08
282.96	0.04
283.176	-13.59
283.392	7.5
283.608	18.1
283.824	0.19
284.04	13.09
284.256	39.67
284.471	46.79
284.687	29.75
284.903	39.6
285.119	43.05
285.335	16.59
285.551	29.23
285.767	41.76
285.982	43.67
286.198	35.87
286.414	40.39
286.63	40.19
286.846	35.35
287.061	32.19
287.277	36.27
287.493	26.04
287.709	3.37
287.924	10.67
288.14	11.94
288.356	26.85
288.571	36.89
288.787	40.36
289.003	40.27
289.218	25.49
289.434	13.19
289.65	28.64
289.865	29.13
290.081	24.06
290.296	37.68
290.512	24.28
290.727	17.4
290.943	17.47
291.159	20.09
291.374	22.02
291.59	19.11
291.805	12.32
292.021	17.75
292.236	23.79
292.451	11.27
292.667	-3.33
292.882	-9.39
293.098	-32.24
293.313	-50.1
293.529	-14.54
293.744	-10.19
293.959	-9.03
294.175	28.83
294.39	26.03
294.605	34.49
294.821	45.39
295.036	50.17
295.251	43.08
295.467	44.34
295.682	47.61
295.897	38.78
296.112	28.03
296.328	22.38
296.543	18.4
296.758	13.51
296.973	10.85
297.188	30.64
297.404	9.48
297.619	15.96
297.834	-12.73
298.049	-2.21
298.264	-6.22
298.479	16.06
298.694	5.32
298.909	15.54
299.125	4.25
299.34	8.52
299.555	-0.2
299.77	5.72
299.985	-15.28
300.2	-2.75
300.415	-0.97
300.63	10.69
300.845	16.41
301.06	7.22
301.275	23.02
301.49	14.3
301.704	5.03
301.919	-4.45
302.134	3.18
302.349	2.53
302.564	15.13
302.779	24.55
302.994	31.2
303.209	54
303.423	35.63
303.638	21.38
303.853	14.84
304.068	36.22
304.283	31.65
304.497	41.82
304.712	24.49
304.927	28.36
305.142	-0.76
305.356	-35.89
305.571	-29.8
305.786	-5.67
306	-42.04
306.215	-25.59
306.43	-12.14
306.644	-33.74
306.859	-28.17
307.074	27.04
307.288	24.56
307.503	26.27
307.717	24.75
307.932	4.79
308.147	-7.08
308.361	2.25
308.576	17.45
308.79	18.55
309.005	33.94
309.219	46.65
309.434	44.53
309.648	43.42
309.863	50.36
310.077	48.35
310.292	37.13
310.506	30.26
310.72	27.45
310.935	5.62
311.149	1.01
311.364	6.26
311.578	2.21
311.792	-10.01
312.007	2.32
312.221	1.95
312.435	0.75
312.649	3.37
312.864	-82.49
313.078	-47.79
313.292	-33.78
313.507	-22.79
313.721	-4.2
313.935	29.03
314.149	25.82
314.363	40.1
314.578	27.6
314.792	21.61
315.006	11.11
315.22	13.58
315.434	16.12
315.648	23.27
315.862	14.64
316.077	13.54
316.291	13.6
316.505	16.1
316.719	14.75
316.933	37.19
317.147	49.77
317.361	55.39
317.575	35.41
317.789	35.38
318.003	27.92
318.217	23.76
318.431	16.74
318.645	18.53
318.859	24.27
319.073	13.17
319.287	0.21
319.5	-1.32
319.714	8.45
319.928	12.74
320.142	25.03
320.356	32.64
320.57	17.46
320.784	6.37
320.997	-4.06
321.211	-8.69
321.425	-13.07
321.639	-8.59
321.853	8.88
322.066	7.17
322.28	7.69
322.494	13.74
322.707	24.52
322.921	4.07
323.135	4.9
323.349	-9.66
323.562	-27.53
323.776	-29
323.989	-11.64
324.203	2.75
324.417	4.97
324.63	11.04
324.844	7.84
325.057	8.35
325.271	-6.9
325.485	7.75
325.698	18.29
325.912	28.94
326.125	25.58
326.339	36.43
326.552	34.02
326.766	40.69
326.979	26.59
327.193	30.71
327.406	36.81
327.619	32.28
327.833	13.43
328.046	20
328.26	34.67
328.473	21.94
328.686	24.22
328.9	22.74
329.113	11.02
329.326	-12.84
329.54	-18.12
329.753	-2.06
329.966	28.14
330.179	19.94
330.393	21.51
330.606	27.37
330.819	17.74
331.032	6.22
331.246	26.91
331.459	-2.22
331.672	-10.34
331.885	8.51
332.098	20.43
332.311	13.52
332.525	27.99
332.738	27.18
332.951	7.96
333.164	2.48
333.377	-3.59
333.59	4.02
333.803	13.84
334.016	20.54
334.229	5.24
334.442	13.33
334.655	22.5
334.868	26.76
335.081	38.74
335.294	40.83
335.507	51.88
335.72	47.13
335.933	33.02
336.146	17.06
336.359	29.17
336.572	-7.79
336.785	-7.18
336.997	0.75
337.21	30.36
337.423	23.23
337.636	36.99
337.849	27.53
338.062	18.93
338.274	-7.81
338.487	-8.3
338.7	-17.93
338.913	-4.68
339.125	10.67
339.338	19.93
339.551	25.64
339.763	30.68
339.976	25.78
340.189	28.02
340.402	13.51
340.614	10.17
340.827	19.96
341.039	43.82
341.252	44.23
341.465	36.08
341.677	26.32
341.89	10.79
342.102	-4.5
342.315	1.28
342.527	13.52
342.74	22.79
342.952	26.06
343.165	34.51
343.377	24.59
343.59	26.51
343.802	22.21
344.015	25.4
344.227	14.07
344.44	15.28
344.652	3.56
344.864	3.84
345.077	1.01
345.289	-3.89
345.502	-14.35
345.714	-12.99
345.926	-18.8
346.139	-48
346.351	-43.65
346.563	-25.07
346.775	-15.97
346.988	-9.6
347.2	2.01
347.412	-4.32
347.624	19.43
347.837	4.98
348.049	-4.03
348.261	8.74
348.473	19.62
348.685	7.35
348.897	24.25
349.11	29.41
349.322	27.98
349.534	34.9
349.746	36.55
349.958	48.2
350.17	41.69
350.382	44.01
350.594	23.42
350.806	25.95
351.018	5.64
351.23	9.96
351.442	-5.07
351.654	13.49
351.866	-6.11
352.078	21.07
352.29	16.2
352.502	18.9
352.714	26.25
352.926	41.83
353.138	31.12
353.35	30.92
353.561	30.82
353.773	35.74
353.985	31.27
354.197	18.68
354.409	23.92
354.621	13.67
354.832	-14.29
355.044	-3.63
355.256	14.73
355.468	12.71
355.679	34.29
355.891	40.1
356.103	38.18
356.314	39.99
356.526	37.83
356.738	32.49
356.949	35.75
357.161	31.86
357.373	25.38
357.584	29.04
357.796	27.22
358.008	16.85
358.219	22.87
358.431	8.52
358.642	4.08
358.854	14.77
359.065	16.89
359.277	11.12
359.488	19.97
359.7	22.92
359.911	17.9
360.123	12.49
360.334	24.81
360.546	18.02
360.757	14.2
360.969	16.75
361.18	28.97
361.391	13.59
361.603	9.93
361.814	18.13
362.025	15.04
362.237	15.17
362.448	10.77
362.659	13.44
362.871	13.85
363.082	13.87
363.293	-3.82
363.504	12.06
363.716	11.88
363.927	7.69
364.138	7.44
364.349	23.97
364.56	33.63
364.772	37.66
364.983	35.47
365.194	31.16
365.405	36.06
365.616	10.66
365.827	17.27
366.038	15.13
366.25	8.97
366.461	-4.8
366.672	5.87
366.883	-13.02
367.094	-17.56
367.305	3.48
367.516	12.68
367.727	13.83
367.938	18.92
368.149	22.48
368.36	23.24
368.571	23.71
368.781	13.51
368.992	-0.47
369.203	1.45
369.414	-1.62
369.625	4.38
369.836	15.55
370.047	14.05
370.258	16.01
370.468	16.76
370.679	-1.31
370.89	-18.37
371.101	7.82
371.312	7.3
371.522	7.76
371.733	25.15
371.944	28.18
372.155	30.79
372.365	24.54
372.576	41.9
372.787	31.77
372.997	38.37
373.208	24.32
373.419	16.6
373.629	7.39
373.84	15.1
374.05	3.6
374.261	5.34
374.472	8.13
374.682	-4.31
374.893	9.29
375.103	23.17
375.314	27.62
375.524	35.14
375.735	46.65
375.945	39.02
376.156	33.4
376.366	16.22
376.577	13.51
376.787	3.08
376.997	-2.26
377.208	-11.73
377.418	1.36
377.629	-2.45
377.839	9.51
378.049	13.05
378.26	14.36
378.47	28.78
378.68	26.05
378.89	26.1
379.101	26.37
379.311	23
379.521	10.15
379.732	14.74
379.942	8.76
380.152	3.36
380.362	10.06
380.572	11.22
380.783	-2.74
380.993	-14.73
381.203	-11.43
381.413	-21.07
381.623	-20.36
381.833	7.89
382.043	22.25
382.253	13.82
382.463	21.5
382.674	25.67
382.884	17.52
383.094	4.86
383.304	7.68
383.514	5.43
383.724	13.22
383.934	8.14
384.144	18.81
384.353	24.69
384.563	26.79
384.773	22.05
384.983	21.41
385.193	24.57
385.403	18.08
385.613	22.3
385.823	15.28
386.033	17.63
386.242	13.07
386.452	16.97
386.662	12.69
386.872	20.45
387.082	21.03
387.291	14.94
387.501	15.29
387.711	13.57
387.921	7.1
388.13	4.3
388.34	6.28
388.55	4.73
388.759	3.44
388.969	6.92
389.179	8.03
389.388	7.76
389.598	7.45
389.807	6.49
390.017	3.51
390.227	6.78
390.436	10.3
390.646	10.56
390.855	12.43
391.065	13.03
391.274	10.61
391.484	7.56
391.693	5.36
391.903	5.36
392.112	6.28
392.322	7.93
392.531	6.68
392.74	6.58
392.95	6.77
393.159	6.95
393.369	7.32
393.578	9.03
393.787	11.26
393.997	9.49
394.206	9.24
394.415	8.97
394.625	9.38
394.834	8.2
395.043	9.29
395.252	10.11
395.462	10.08
395.671	9.69
395.88	10.81
396.089	11.51
396.298	10.79
396.508	10.16
396.717	9.75
396.926	9.31
397.135	8.43
397.344	8.39
397.553	8.85
397.762	9.06
397.971	8.98
398.181	9.13
398.39	9.36
398.599	9.15
398.808	9.44
399.017	9.81
399.226	9.91
399.435	10.05
399.644	10.24
399.853	10.31
400.062	10.38
400.27	10.46
400.479	10.12
400.688	10.06
400.897	9.95
401.106	9.78
401.315	9.68
401.524	10.02
401.733	9.97
401.941	10.19
402.15	10.05
402.359	10
402.568	9.9
402.777	9.88
402.985	9.55
403.194	9.35
403.403	9.45
403.612	9.36
403.82	9.46
404.029	9.46
404.238	9.53
404.446	9.45
404.655	9.31
404.864	9.31
405.072	9.27
405.281	9.42
405.489	9.36
405.698	9.53
405.906	9.44
406.115	9.57
406.324	9.46
406.532	9.33
406.741	9.26
406.949	9.18
407.158	9.11
407.366	9.07
407.574	9.11
407.783	9.13
407.991	9.03
408.2	8.87
408.408	8.75
408.617	8.8
408.825	8.66
409.033	8.82
409.242	8.94
409.45	8.96
409.658	8.92
409.867	8.9
410.075	8.81
410.283	8.71
410.491	8.59
410.7	8.6
410.908	8.77
411.116	8.77
411.324	8.82
411.533	8.98
411.741	8.99
411.949	8.9
412.157	8.7
412.365	8.6
412.573	8.61
412.781	8.51
412.99	8.49
413.198	8.56
413.406	8.56
413.614	8.6
413.822	8.64
414.03	8.63
414.238	8.63
414.446	8.67
414.654	8.66
414.862	8.59
415.07	8.46
415.278	8.57
415.486	8.43
415.694	8.34
415.902	8.24
416.109	8.34
416.317	8.32
416.525	8.37
416.733	8.4
416.941	8.44
417.149	8.41
417.357	8.15
417.564	8.12
417.772	8.03
417.98	8.29
418.188	8.2
418.395	8.22
418.603	8.26
418.811	8.22
419.019	8.06
419.226	8.32
419.434	8.38
419.642	8.51
419.849	8.5
420.057	8.38
420.265	8.13
420.472	8.06
420.68	7.86
420.887	7.92
421.095	8.05
421.302	8.06
421.51	8.27
421.717	8.26
421.925	8.18
422.132	8.11
422.34	7.93
422.547	7.68
422.755	7.64
422.962	7.7
423.17	7.57
423.377	7.79
423.585	7.96
423.792	8.02
423.999	8
424.207	8.09
424.414	8.05
424.621	8.01
424.829	8.06
425.036	8.04
425.243	8.11
425.451	8
425.658	7.99
425.865	7.85
426.072	7.75
426.28	7.66
426.487	7.71
426.694	7.54
426.901	7.51
427.108	7.45
427.315	7.39
427.523	7.42
427.73	7.39
427.937	7.51
428.144	7.57
428.351	7.61
428.558	7.66
428.765	7.91
428.972	7.9
429.179	7.9
429.386	7.9
429.593	7.84
429.8	7.68
430.007	7.68
430.214	7.75
430.421	7.77
430.628	7.57
430.835	7.59
431.042	7.59
431.249	7.64
431.456	7.49
431.662	7.79
431.869	7.86
432.076	7.84
432.283	7.9
432.49	7.95
432.697	7.86
432.903	7.63
433.11	7.61
433.317	7.47
433.524	7.54
433.73	7.45
433.937	7.71
434.144	7.7
434.35	7.78
434.557	7.71
434.764	7.71
434.97	7.58
435.177	7.65
435.384	7.58
435.59	7.73
435.797	7.85
436.003	7.83
436.21	7.79
436.416	7.85
436.623	7.76
436.829	7.68
437.036	7.71
437.242	7.89
437.449	7.95
437.655	8.09
437.862	8.01
438.068	7.98
438.275	7.91
438.481	7.76
438.687	7.64
438.894	7.75
439.1	7.94
439.307	7.89
439.513	7.95
439.719	8.01
439.926	7.97
440.132	7.85
440.338	7.89
440.544	7.84
440.751	7.7
440.957	7.78
441.163	7.79
441.369	7.8
441.575	7.85
441.782	7.76
441.988	7.74
442.194	7.74
442.4	7.6
442.606	7.58
442.812	7.82
443.018	7.84
443.224	7.85
443.431	7.87
443.637	7.91
443.843	7.8
444.049	7.8
444.255	7.83
444.461	7.97
444.667	7.99
444.873	7.98
445.079	7.89
445.284	7.86
445.49	7.75
445.696	7.74
445.902	7.78
446.108	7.7
446.314	7.84
446.52	7.88
446.726	7.95
446.931	7.98
447.137	8.21
447.343	8.01
447.549	7.97
447.755	7.81
447.96	7.85
448.166	7.82
448.372	7.88
448.578	7.97
448.783	8.17
448.989	8.17
449.195	8.04
449.4	8.05
449.606	8.05
449.812	7.93
450.017	7.87
450.223	7.91
450.428	7.89
450.634	7.85
450.84	7.99
451.045	7.98
451.251	8.03
451.456	8.2
451.662	8.25
451.867	8.13
452.073	8.15
452.278	8.16
452.483	8.14
452.689	8.06
452.894	8.09
453.1	8.12
453.305	8.11
453.51	8.03
453.716	8.04
453.921	8.08
454.127	8.12
454.332	8.06
454.537	8.04
454.742	8.15
454.948	7.99
455.153	8.03
455.358	7.99
455.563	8.01
455.769	7.9
455.974	8.1
456.179	8.01
456.384	8.05
456.589	8.12
456.795	8.18
457	8.16
457.205	8.35
457.41	8.37
457.615	8.31
457.82	8.34
458.025	8.36
458.23	8.24
458.435	8.19
458.64	8.22
458.845	8.21
459.05	8.08
459.255	8.1
459.46	8.27
459.665	8.33
459.87	8.31
460.075	8.41
460.28	8.41
460.485	8.33
460.69	8.3
460.895	8.25
461.099	8.27
461.304	8.26
461.509	8.26
461.714	8.17
461.919	8.2
462.123	8.23
462.328	8.3
462.533	8.35
462.738	8.47
462.942	8.58
463.147	8.57
463.352	8.61
463.556	8.6
463.761	8.5
463.966	8.46
464.17	8.54
464.375	8.45
464.58	8.4
464.784	8.55
464.989	8.5
465.193	8.41
465.398	8.48
465.602	8.66
465.807	8.59
466.011	8.75
466.216	8.75
466.42	8.73
466.625	8.74
466.829	8.81
467.034	8.76
467.238	8.84
467.443	8.82
467.647	8.7
467.851	8.7
468.056	8.68
468.26	8.57
468.464	8.66
468.669	8.69
468.873	8.69
469.077	8.73
469.282	8.83
469.486	8.65
469.69	8.64
469.894	8.59
470.099	8.52
470.303	8.56
470.507	8.72
470.711	8.76
470.915	8.75
471.119	8.75
471.324	8.77
471.528	8.76
471.732	8.78
471.936	8.85
472.14	8.89
472.344	8.93
472.548	8.83
472.752	8.87
472.956	8.85
473.16	8.87
473.364	8.84
473.568	8.89
473.772	8.82
473.976	8.87
474.18	8.85
474.384	8.75
474.588	8.71
474.792	8.77
474.995	8.77
475.199	8.82
475.403	8.77
475.607	8.74
475.811	8.67
476.015	8.64
476.218	8.54
476.422	8.61
476.626	8.62
476.83	8.57
477.033	8.55
477.237	8.59
477.441	8.55
477.644	8.69
477.848	8.79
478.052	8.78
478.255	8.82
478.459	8.86
478.663	8.81
478.866	8.8
479.07	8.78
479.273	8.79
479.477	8.77
479.681	8.7
479.884	8.68
480.088	8.65
480.291	8.65
480.495	8.68
480.698	8.68
480.901	8.62
481.105	8.69
481.308	8.62
481.512	8.66
481.715	8.7
481.919	8.77
482.122	8.82
482.325	8.9
482.529	8.91
482.732	8.94
482.935	8.89
483.138	8.82
483.342	8.81
483.545	8.78
483.748	8.78
483.952	8.82
484.155	8.89
484.358	8.78
484.561	8.77
484.764	8.76
484.967	8.8
485.171	8.77
485.374	8.85
485.577	8.85
485.78	8.88
485.983	8.88
486.186	8.87
486.389	8.92
486.592	8.93
486.795	8.95
486.998	8.96
487.201	9.06
487.404	9.02
487.607	9.15
487.81	9.09
488.013	9.05
488.216	9.08
488.419	9.24
488.622	9.22
488.825	9.38
489.028	9.41
489.231	9.43
489.433	9.41
489.636	9.42
489.839	9.39
490.042	9.41
490.245	9.45
490.447	9.48
490.65	9.56
490.853	9.64
491.056	9.82
491.258	9.88
491.461	9.97
491.664	10.01
491.866	10.1
492.069	10.18
492.272	10.26
492.474	10.32
492.677	10.42
492.879	10.53
493.082	10.62
493.285	10.76
493.487	10.83
493.69	10.96
493.892	11.02
494.095	11.17
494.297	11.32
494.5	11.46
494.702	11.61
494.905	11.8
495.107	11.83
495.309	11.92
495.512	12.03
495.714	12.18
495.917	12.25
496.119	12.46
496.321	12.59
496.524	12.71
496.726	12.77
496.928	12.93
497.13	12.97
497.333	13.11
497.535	13.25
497.737	13.41
497.939	13.58
498.142	13.86
498.344	14.05
498.546	14.25
498.748	14.44
498.95	14.59
499.152	14.67
499.355	14.86
499.557	14.98
499.759	15
499.961	15.04
500.163	15.12
500.365	15.11
500.567	15.23
500.769	15.37
500.971	15.47
501.173	15.6
501.375	15.68
501.577	15.67
501.779	15.8
501.981	15.88
502.183	15.89
502.385	15.91
502.587	15.95
502.788	15.91
502.99	15.96
503.192	16.03
503.394	16.09
503.596	16.12
503.798	16.16
503.999	16.23
504.201	16.23
504.403	16.23
504.605	16.29
504.806	16.31
505.008	16.27
505.21	16.26
505.411	16.18
505.613	16.08
505.815	16.09
506.016	16.04
506.218	16.02
506.42	16.01
506.621	16
506.823	15.83
507.024	15.76
507.226	15.73
507.427	15.72
507.629	15.68
507.83	15.7
508.032	15.71
508.233	15.63
508.435	15.55
508.636	15.58
508.838	15.45
509.039	15.29
509.24	15.23
509.442	15.15
509.643	14.94
509.845	14.95
510.046	15.03
510.247	15.01
510.448	15.04
510.65	15.14
510.851	15.02
511.052	14.93
511.254	14.78
511.455	14.63
511.656	14.48
511.857	14.48
512.058	14.31
512.26	14.25
512.461	14.16
512.662	14.11
512.863	14.05
513.064	14.03
513.265	13.96
513.466	13.93
513.667	13.81
513.868	13.69
514.069	13.58
514.27	13.55
514.471	13.53
514.672	13.44
514.873	13.32
515.074	13.34
515.275	13.25
515.476	13.19
515.677	13.18
515.878	13.31
516.079	13.25
516.28	13.31
516.481	13.27
516.682	13.32
516.882	13.2
517.083	13.23
517.284	13.08
517.485	13.01
517.686	12.94
517.886	13.02
518.087	12.91
518.288	12.91
518.488	12.87
518.689	12.83
518.89	12.71
519.091	12.79
519.291	12.77
519.492	12.81
519.692	12.8
519.893	12.8
520.094	12.59
520.294	12.57
520.495	12.51
520.695	12.46
520.896	12.41
521.096	12.53
521.297	12.55
521.497	12.58
521.698	12.51
521.898	12.53
522.099	12.34
522.299	12.19
522.499	12.17
522.7	12.15
522.9	12.12
523.101	12.26
523.301	12.33
523.501	12.3
523.702	12.32
523.902	12.33
524.102	12.28
524.302	12.27
524.503	12.23
524.703	12.27
524.903	12.2
525.103	12.2
525.304	12.18
525.504	12.19
525.704	12.16
525.904	12.2
526.104	12.2
526.304	12.22
526.504	12.17
526.705	12.11
526.905	12.08
527.105	12.1
527.305	12.03
527.505	12.05
527.705	12.11
527.905	12.16
528.105	12.08
528.305	12.06
528.505	12.04
528.705	11.98
528.905	11.85
529.105	11.88
529.304	11.93
529.504	11.98
529.704	11.96
529.904	11.99
530.104	11.99
530.304	12.03
530.503	11.96
530.703	11.99
530.903	11.99
531.103	11.93
531.303	11.93
531.502	11.96
531.702	12.04
531.902	12.06
532.101	12.11
532.301	12.09
532.501	12.08
532.7	12.06
532.9	12.06
533.1	12.12
533.299	12.14
533.499	12.17
533.698	12.11
533.898	12.15
534.097	12.07
534.297	12.08
534.496	12.01
534.696	12.03
534.895	12.05
535.095	12.07
535.294	12.06
535.494	12.1
535.693	12.09
535.892	12.09
536.092	12.08
536.291	12.05
536.491	12.05
536.69	12.13
536.889	12.08
537.088	12.12
537.288	12.09
537.487	12.11
537.686	12.05
537.886	12.06
538.085	12.1
538.284	12.24
538.483	12.28
538.682	12.35
538.882	12.44
539.081	12.45
539.28	12.34
539.479	12.35
539.678	12.3
539.877	12.17
540.076	12.21
540.275	12.26
540.474	12.23
540.673	12.26
540.872	12.39
541.071	12.27
541.27	12.31
541.469	12.35
541.668	12.42
541.867	12.44
542.066	12.54
542.265	12.53
542.464	12.52
542.663	12.51
542.862	12.59
543.06	12.71
543.259	12.81
543.458	12.83
543.657	12.87
543.856	12.81
544.054	12.75
544.253	12.64
544.452	12.62
544.651	12.6
544.849	12.54
545.048	12.43
545.247	12.48
545.445	12.5
545.644	12.58
545.843	12.6
546.041	12.71
546.24	12.72
546.438	12.72
546.637	12.68
546.836	12.74
547.034	12.74
547.233	12.81
547.431	12.87
547.63	12.87
547.828	12.9
548.027	12.87
548.225	12.87
548.423	12.87
548.622	12.93
548.82	12.95
549.019	12.99
549.217	12.95
549.415	12.94
549.614	12.94
549.812	12.89
550.01	13
550.209	13.15
550.407	13.27
550.605	13.28
550.803	13.32
551.002	13.32
551.2	13.27
551.398	13.3
551.596	13.4
551.794	13.54
551.993	13.58
552.191	13.61
552.389	13.67
552.587	13.64
552.785	13.63
552.983	13.69
553.181	13.83
553.379	13.91
553.577	14.02
553.775	14.11
553.973	14.18
554.171	14.18
554.369	14.16
554.567	14.17
554.765	14.17
554.963	14.15
555.161	14.14
555.359	14.22
555.557	14.28
555.755	14.32
555.952	14.42
556.15	14.51
556.348	14.58
556.546	14.66
556.744	14.74
556.941	14.82
557.139	14.97
557.337	15
557.535	15.05
557.732	15.13
557.93	15.12
558.128	15.13
558.325	15.19
558.523	15.23
558.721	15.36
558.918	15.46
559.116	15.55
559.313	15.57
559.511	15.66
559.708	15.64
559.906	15.73
560.104	15.7
560.301	15.8
560.498	15.86
560.696	15.96
560.893	16.09
561.091	16.28
561.288	16.34
561.486	16.46
561.683	16.53
561.88	16.59
562.078	16.68
562.275	16.78
562.473	16.9
562.67	16.98
562.867	17.03
563.064	17.06
563.262	17.09
563.459	17.15
563.656	17.3
563.853	17.4
564.051	17.46
564.248	17.61
564.445	17.69
564.642	17.66
564.839	17.73
565.036	17.89
565.234	17.96
565.431	17.94
565.628	18.06
565.825	18.14
566.022	18.23
566.219	18.25
566.416	18.42
566.613	18.49
566.81	18.61
567.007	18.58
567.204	18.69
567.401	18.7
567.598	18.83
567.795	18.77
567.991	18.83
568.188	18.91
568.385	18.97
568.582	19
568.779	19.07
568.976	19.17
569.172	19.23
569.369	19.28
569.566	19.32
569.763	19.41
569.96	19.48
570.156	19.48
570.353	19.54
570.55	19.54
570.746	19.62
570.943	19.55
571.14	19.56
571.336	19.62
571.533	19.59
571.729	19.62
571.926	19.75
572.123	19.8
572.319	19.9
572.516	20.08
572.712	20.13
572.909	20.06
573.105	20.16
573.302	20.13
573.498	20.04
573.695	20.04
573.891	20.11
574.087	20.08
574.284	20.1
574.48	20.14
574.677	20.17
574.873	20.2
575.069	20.26
575.266	20.3
575.462	20.27
575.658	20.29
575.854	20.41
576.051	20.41
576.247	20.5
576.443	20.59
576.639	20.65
576.835	20.57
577.032	20.59
577.228	20.55
577.424	20.6
577.62	20.54
577.816	20.56
578.012	20.57
578.208	20.52
578.404	20.41
578.6	20.39
578.796	20.41
578.993	20.33
579.189	20.33
579.384	20.32
579.58	20.29
579.776	20.23
579.972	20.22
580.168	20.11
580.364	20.01
580.56	19.98
580.756	19.93
580.952	19.9
581.148	19.9
581.343	19.95
581.539	19.91
581.735	19.91
581.931	19.88
582.127	19.9
582.322	19.87
582.518	19.91
582.714	19.83
582.909	19.83
583.105	19.8
583.301	19.87
583.496	19.85
583.692	19.83
583.888	19.89
584.083	19.87
584.279	19.83
584.474	19.71
584.67	19.71
584.866	19.61
585.061	19.6
585.257	19.54
585.452	19.67
585.648	19.61
585.843	19.62
586.039	19.58
586.234	19.59
586.429	19.44
586.625	19.49
586.82	19.54
587.015	19.62
587.211	19.52
587.406	19.58
587.601	19.61
587.797	19.56
587.992	19.43
588.187	19.5
588.383	19.45
588.578	19.5
588.773	19.46
588.968	19.51
589.163	19.62
589.359	19.67
589.554	19.69
589.749	19.68
589.944	19.68
590.139	19.62
590.334	19.62
590.529	19.51
590.724	19.62
590.919	19.56
591.114	19.6
591.309	19.58
591.504	19.69
591.699	19.58
591.894	19.69
592.089	19.64
592.284	19.68
592.479	19.67
592.674	19.76
592.869	19.83
593.064	19.95
593.259	20.02
593.454	20
593.648	19.97
593.843	19.99
594.038	20
594.233	20.06
594.428	20.1
594.622	20.11
594.817	20.09
595.012	20.08
595.206	20.14
595.401	20.25
595.596	20.33
595.79	20.41
595.985	20.44
596.18	20.51
596.374	20.63
596.569	20.79
596.763	20.86
596.958	21.04
597.153	21.05
597.347	21.01
597.542	21.09
597.736	21.12
597.931	21.03
598.125	21.06
598.319	21.25
598.514	21.27
598.708	21.34
598.903	21.52
599.097	21.58
599.291	21.57
599.486	21.58
599.68	21.64
599.874	21.66
600.069	21.78
600.263	21.72
600.457	21.77
600.651	21.77
600.846	21.73
601.04	21.79
601.234	21.83
601.428	21.85
601.622	21.97
601.817	22
602.011	22
602.205	22.05
602.399	22.14
602.593	22.12
602.787	22.08
602.981	22.03
603.175	22.12
603.369	22.05
603.563	21.96
603.757	21.97
603.951	22
604.145	21.84
604.339	21.93
604.533	22.07
604.727	22.08
604.921	22.05
605.115	22.08
605.309	21.93
605.502	21.81
605.696	21.8
605.89	21.7
606.084	21.68
606.278	21.56
606.471	21.47
606.665	21.38
606.859	21.4
607.053	21.31
607.246	21.39
607.44	21.29
607.634	21.3
607.827	21.15
608.021	21.05
608.214	20.99
608.408	21.06
608.602	20.98
608.795	21.04
608.989	21.06
609.182	21.02
609.376	20.92
609.569	20.77
609.763	20.64
609.956	20.56
610.15	20.33
610.343	20.22
610.537	20.16
610.73	20.1
610.923	20.09
611.117	20.12
611.31	20.11
611.504	20.2
611.697	20.08
611.89	19.98
612.083	19.93
612.277	19.88
612.47	19.71
612.663	19.69
612.856	19.63
613.05	19.59
613.243	19.4
613.436	19.31
613.629	19.28
613.822	19.13
614.015	19.05
614.209	19.02
614.402	18.99
614.595	18.94
614.788	18.92
614.981	18.79
615.174	18.73
615.367	18.6
615.56	18.45
615.753	18.46
615.946	18.39
616.139	18.34
616.332	18.39
616.525	18.35
616.718	18.13
616.911	18.09
617.103	18.11
617.296	17.95
617.489	17.88
617.682	17.99
617.875	18.02
618.067	17.86
618.26	17.88
618.453	17.88
618.646	17.77
618.838	17.65
619.031	17.66
619.224	17.68
619.417	17.61
619.609	17.54
619.802	17.59
619.994	17.45
620.187	17.35
620.38	17.32
620.572	17.29
620.765	17.2
620.957	17.25
621.15	17.19
621.342	17.12
621.535	17.16
621.727	17.13
621.92	17.06
622.112	17.04
622.305	17.18
622.497	17.09
622.69	17
622.882	16.97
623.074	17.06
623.267	16.94
623.459	17.03
623.651	17.07
623.844	17.14
624.036	17.04
624.228	17.07
624.42	16.9
624.613	16.91
624.805	16.84
624.997	16.75
625.189	16.67
625.381	16.63
625.574	16.58
625.766	16.53
625.958	16.56
626.15	16.56
626.342	16.53
626.534	16.41
626.726	16.36
626.918	16.34
627.11	16.28
627.302	16.23
627.494	16.28
627.686	16.28
627.878	16.24
628.07	16.21
628.262	16.24
628.454	16.2
628.646	16.11
628.838	16.08
629.029	15.94
629.221	15.87
629.413	15.83
629.605	15.84
629.797	15.82
629.989	15.89
630.18	15.88
630.372	15.81
630.564	15.8
630.755	15.72
630.947	15.63
631.139	15.58
631.33	15.52
631.522	15.49
631.714	15.52
631.905	15.54
632.097	15.48
632.289	15.55
632.48	15.52
632.672	15.46
632.863	15.42
633.055	15.44
633.246	15.31
633.438	15.34
633.629	15.29
633.821	15.23
634.012	15.23
634.203	15.26
634.395	15.21
634.586	15.33
634.777	15.34
634.969	15.34
635.16	15.43
635.351	15.36
635.543	15.36
635.734	15.3
635.925	15.3
636.117	15.27
636.308	15.39
636.499	15.3
636.69	15.37
636.881	15.34
637.073	15.37
637.264	15.29
637.455	15.26
637.646	15.31
637.837	15.41
638.028	15.34
638.219	15.33
638.41	15.32
638.601	15.22
638.792	14.96
638.983	14.98
639.174	14.88
639.365	14.87
639.556	14.88
639.747	15.05
639.938	15.02
640.129	15.12
640.32	15.06
640.511	15
640.701	14.92
640.892	14.93
641.083	14.85
641.274	14.82
641.465	14.83
641.655	14.78
641.846	14.69
642.037	14.63
642.228	14.72
642.418	14.63
642.609	14.58
642.8	14.59
642.99	14.57
643.181	14.44
643.372	14.55
643.562	14.59
643.753	14.58
643.943	14.65
644.134	14.66
644.324	14.67
644.515	14.69
644.705	14.71
644.896	14.71
645.086	14.63
645.277	14.58
645.467	14.56
645.658	14.51
645.848	14.31
646.038	14.41
646.229	14.3
646.419	14.23
646.61	14.35
646.8	14.4
646.99	14.32
647.18	14.37
647.371	14.35
647.561	14.16
647.751	14.1
647.941	14.07
648.132	14.1
648.322	14.19
648.512	14.28
648.702	14.33
648.892	14.4
649.082	14.35
649.272	14.15
649.462	14.07
649.653	14.15
649.843	14.11
650.033	14.19
650.223	14.27
650.413	14.3
650.603	14.22
650.793	14.25
650.983	14.05
651.172	14.04
651.362	13.98
651.552	13.93
651.742	13.76
651.932	13.72
652.122	13.77
652.312	13.72
652.502	13.61
652.691	13.69
652.881	13.67
653.071	13.51
653.261	13.41
653.45	13.43
653.64	13.25
653.83	13.13
654.019	13.06
654.209	12.97
654.399	12.86
654.588	12.93
654.778	12.92
654.968	12.81
655.157	12.79
655.347	12.7
655.536	12.44
655.726	12.33
655.915	12.28
656.105	12.05
656.294	12
656.484	11.98
656.673	11.88
656.863	11.79
657.052	11.84
657.241	11.75
657.431	11.61
657.62	11.46
657.809	11.3
657.999	11.22
658.188	11.15
658.377	11.04
658.567	10.99
658.756	10.84
658.945	10.69
659.134	10.46
659.324	10.41
659.513	10.25
659.702	10.16
659.891	10.01
660.08	9.96
660.269	9.91
660.458	9.85
660.648	9.88
660.837	9.8
661.026	9.59
661.215	9.4
661.404	9.24
661.593	9
661.782	8.94
661.971	8.85
662.16	8.78
662.349	8.66
662.538	8.62
662.726	8.49
662.915	8.52
663.104	8.43
663.293	8.44
663.482	8.39
663.671	8.3
663.86	8.17
664.048	8.09
664.237	8.1
664.426	8.09
664.615	8.11
664.803	8.17
664.992	8.09
665.181	7.97
665.369	7.8
665.558	7.72
665.747	7.65
665.935	7.65
666.124	7.69
666.312	7.66
666.501	7.69
666.69	7.62
666.878	7.65
667.067	7.54
667.255	7.7
667.444	7.72
667.632	7.84
667.82	7.86
668.009	7.87
668.197	7.78
668.386	7.73
668.574	7.68
668.762	7.59
668.951	7.74
669.139	7.67
669.327	7.62
669.516	7.53
669.704	7.55
669.892	7.5
670.08	7.59
670.269	7.47
670.457	7.47
670.645	7.43
670.833	7.31
671.021	7.27
671.21	7.34
671.398	7.37
671.586	7.31
671.774	7.25
671.962	7.27
672.15	7.25
672.338	7.33
672.526	7.47
672.714	7.53
672.902	7.53
673.09	7.62
673.278	7.71
673.466	7.76
673.654	7.96
673.842	8
674.03	8.18
674.218	8.11
674.405	8.22
674.593	8.18
674.781	8.24
674.969	8.07
675.157	8.16
675.344	8.09
675.532	8.09
675.72	8.05
675.908	8.27
676.095	8.18
676.283	8.33
676.471	8.49
676.658	8.58
676.846	8.65
677.033	8.76
677.221	8.71
677.409	8.6
677.596	8.65
677.784	8.49
677.971	8.48
678.159	8.49
678.346	8.61
678.534	8.71
678.721	8.71
678.909	8.8
679.096	9
679.283	9.1
679.471	9.07
679.658	9.4
679.846	9.41
680.033	9.39
680.22	9.43
680.408	9.51
680.595	9.49
680.782	9.56
680.969	9.61
681.157	9.64
681.344	9.65
681.531	9.73
681.718	9.88
681.905	9.83
682.093	9.91
682.28	10.12
682.467	10.2
682.654	10.35
682.841	10.5
683.028	10.53
683.215	10.72
683.402	10.77
683.589	10.83
683.776	11.13
683.963	11.36
684.15	11.39
684.337	11.53
684.524	11.68
684.711	11.94
684.898	12.16
685.085	12.28
685.271	12.46
685.458	12.67
685.645	12.62
685.832	12.89
686.019	13.17
686.205	13.41
686.392	13.73
686.579	14
686.766	14.13
686.952	14.36
687.139	14.75
687.326	14.9
687.512	15.15
687.699	15.32
687.886	15.65
688.072	15.84
688.259	16.27
688.445	16.68
688.632	17.04
688.818	17.51
689.005	17.91
689.191	18.29
689.378	18.73
689.564	19.3
689.751	19.77
689.937	20.29
690.124	20.69
690.31	21.1
690.496	21.55
690.683	21.99
690.869	22.27
691.055	22.83
691.242	23.48
691.428	24.06
691.614	24.84
691.8	25.88
691.987	26.37
692.173	26.92
692.359	27.66
692.545	28.01
692.731	28.57
692.918	29.37
693.104	30.16
693.29	30.87
693.476	31.65
693.662	32.35
693.848	33
694.034	33.4
694.22	34.29
694.406	34.84
694.592	35.41
694.778	35.93
694.964	36.84
695.15	37.14
695.336	37.83
695.522	38.51
695.708	39.52
695.894	40.19
696.08	40.97
696.265	41.79
696.451	42.53
696.637	42.94
696.823	43.64
697.009	44.66
697.194	45.41
697.38	46.26
697.566	47.11
697.751	47.97
697.937	48.51
698.123	49.12
698.308	49.71
698.494	50.32
698.68	50.83
698.865	51.34
699.051	51.88
699.236	52.6
699.422	53.66
699.607	54.22
699.793	55.07
699.978	55.76
700.164	56.32
700.349	57.08
700.535	58.02
700.72	58.38
700.906	59.35
701.091	59.73
701.276	59.85
701.462	60.22
701.647	60.8
701.832	61.32
702.018	62.18
702.203	62.68
702.388	63.42
702.573	63.57
702.759	63.94
702.944	64.02
703.129	64.55
703.314	64.97
703.499	65.94
703.684	66.36
703.87	67.07
704.055	67.46
704.24	67.67
704.425	68.01
704.61	68.37
704.795	68.62
704.98	68.93
705.165	69.4
705.35	69.75
705.535	70.25
705.72	70.82
705.905	71.37
706.09	71.65
706.275	71.92
706.459	72.09
706.644	72.11
706.829	72.69
707.014	73.41
707.199	73.87
707.384	74.15
707.568	75.1
707.753	75.54
707.938	75.82
708.123	76.53
708.307	77.28
708.492	76.84
708.677	76.77
708.861	76.59
709.046	76.24
709.231	76.45
709.415	76.99
709.6	77.23
709.784	77.93
709.969	78.3
710.153	78.4
710.338	78.82
710.522	79.2
710.707	79.39
710.891	79.89
711.076	79.95
711.26	79.79
711.445	79.79
711.629	80.12
711.813	80.09
711.998	80.01
712.182	80.34
712.366	80.68
712.551	80.92
712.735	81.34
712.919	81.71
713.103	82.26
713.288	82.18
713.472	82.22
713.656	81.84
713.84	82.43
714.024	82.48
714.208	83.12
714.393	83.07
714.577	83.68
714.761	83.69
714.945	83.96
715.129	83.88
715.313	84.23
715.497	84.72
715.681	85.08
715.865	84.97
716.049	85.13
716.233	85.27
716.417	85.14
716.601	85.15
716.785	85.51
716.968	85.53
717.152	85.76
717.336	85.7
717.52	85.44
717.704	85.03
717.888	84.82
718.071	84.64
718.255	84.95
718.439	85.15
718.622	85.55
718.806	86.22
718.99	86.73
719.174	86.64
719.357	86.71
719.541	87.24
719.724	87.24
719.908	86.96
720.092	87.13
720.275	87.75
720.459	87.14
720.642	87.7
720.826	87.28
721.009	87.66
721.193	87.6
721.376	88.2
721.559	87.91
721.743	88.55
721.926	88.67
722.11	88.41
722.293	88.24
722.476	88
722.66	88.17
722.843	88.36
723.026	88.63
723.21	89.29
723.393	89.15
723.576	89.29
723.759	89.32
723.942	89.28
724.126	89.1
724.309	89.73
724.492	88.77
724.675	88.96
724.858	89.8
725.041	89.7
725.224	89.91
725.407	90.78
725.59	91.18
725.774	90.67
725.957	90.62
726.14	90.89
726.322	90.57
726.505	90.18
726.688	90.34
726.871	90.94
727.054	90.85
727.237	91.93
727.42	91.65
727.603	91.22
727.786	90.25
727.968	89.71
728.151	89.26
728.334	89.69
728.517	90.01
728.699	91.03
728.882	91.29
729.065	91.4
729.248	91.34
729.43	90.98
729.613	91.56
729.796	91.28
729.978	91.62
730.161	91.57
730.343	92.02
730.526	91.54
730.708	92.71
730.891	92.43
731.073	92.16
731.256	92.35
731.438	92.41
731.621	92.25
731.803	92.7
731.986	93.32
732.168	93.31
732.35	92.7
732.533	92.46
732.715	91.88
732.898	91.11
733.08	91.23
733.262	92.03
733.444	92.02
733.627	92.32
733.809	92.03
733.991	92.69
734.173	92.6
734.355	92.78
734.538	93.11
734.72	94.32
734.902	94.35
735.084	94.22
735.266	94.18
735.448	94.23
735.63	94.07
735.812	93.63
735.994	93.34
736.176	93.54
736.358	93.36
736.54	92.87
736.722	93.19
736.904	94.62
737.086	95.47
737.268	96.55
737.45	97.72
737.632	97.09
737.814	96.54
737.995	96.17
738.177	95.55
738.359	95.09
738.541	96.62
738.723	96.12
738.904	95.72
739.086	95.32
739.268	95.26
739.449	94.55
739.631	94.77
739.813	94.44
739.994	94.94
740.176	95.17
740.358	95.74
740.539	96.4
740.721	96.3
740.902	95.38
741.084	95.47
741.265	94.53
741.447	93.82
741.628	95.67
741.81	95.93
741.991	95.38
742.172	96.12
742.354	96.35
742.535	94.89
742.717	94.71
742.898	94.95
743.079	95.36
743.261	96.5
743.442	97.1
743.623	98.63
743.804	99.3
743.986	98.31
744.167	96.33
744.348	95.57
744.529	94.76
744.71	94.12
744.891	93.71
745.073	95.22
745.254	95.95
745.435	95.12
745.616	94.66
745.797	95.37
745.978	93.83
746.159	94.05
746.34	93.76
746.521	95.36
746.702	94.96
746.883	94.57
747.064	93.91
747.245	95.07
747.426	94.34
747.606	94.18
747.787	95.2
747.968	96.15
748.149	96.12
748.33	95.91
748.51	96.25
748.691	95.62
748.872	94.14
749.053	93.77
749.233	93.34
749.414	94.24
749.595	95.33
749.775	95.23
749.956	96.04
750.137	97.06
750.317	96.73
750.498	94.84
750.678	95.2
750.859	93.56
751.04	93.43
751.22	91.82
751.4	93.5
751.581	93.19
751.761	93.61
751.942	94.37
752.122	94.81
752.303	94.27
752.483	95.76
752.663	96.53
752.844	95.08
753.024	95.52
753.204	95.86
753.385	93.47
753.565	94.27
753.745	94.75
753.925	95.12
754.106	94.7
754.286	97.34
754.466	96.71
754.646	98.96
754.826	98.19
755.006	97.46
755.187	95.48
755.367	95.29
755.547	93.16
755.727	93.73
755.907	93.49
756.087	92.86
756.267	91.76
756.447	91.69
756.627	89.54
756.807	89.37
756.987	91.92
757.167	92.56
757.346	90.93
757.526	93.35
757.706	95.18
757.886	94.14
758.066	97.31
758.246	98.74
758.425	98.01
758.605	95.44
758.785	95.31
758.965	92.87
759.144	92.25
759.324	92.22
759.504	95.13
759.683	96.25
759.863	95.87
760.043	96.27
760.222	95.76
760.402	94.98
760.581	95.28
760.761	94.98
760.94	93.75
761.12	95.89
761.299	94.4
761.479	91.4
761.658	90.61
761.838	91.7
762.017	90.51
762.197	92.47
762.376	93.57
762.555	93.92
762.735	94.24
762.914	95.1
763.093	95.73
763.273	94.82
763.452	95.07
763.631	94.88
763.81	94.11
763.99	92.77
764.169	92.46
764.348	90.78
764.527	90.4
764.706	88.94
764.885	88.48
765.064	89.82
765.243	91.3
765.423	90.65
765.602	91.05
765.781	91.45
765.96	90.22
766.139	90.85
766.318	92.19
766.497	93.46
766.676	92.57
766.854	94.18
767.033	93.16
767.212	90.95
767.391	90.14
767.57	90.8
767.749	91.26
767.928	92.77
768.106	93.11
768.285	92.48
768.464	90.54
768.643	89.77
768.821	87.4
769	88.91
769.179	89.42
769.357	89.63
769.536	89.85
769.715	92.73
769.893	91.47
770.072	90.54
770.25	89.85
770.429	88.52
770.607	86.78
770.786	88.2
770.964	87.6
771.143	90.1
771.321	90.23
771.5	89.87
771.678	90.01
771.857	92.22
772.035	90.76
772.213	91.63
772.392	91.1
772.57	89.39
772.748	86.04
772.927	88.35
773.105	87.04
773.283	86.14
773.461	88.49
773.64	90.76
773.818	89.62
773.996	89.85
774.174	90.2
774.352	88.32
774.531	87.27
774.709	84.98
774.887	85.08
775.065	86.94
775.243	85.51
775.421	86.5
775.599	86.96
775.777	86.81
775.955	84.73
776.133	84.82
776.311	84.25
776.489	87.88
776.667	87.35
776.844	90.11
777.022	92.6
777.2	91.71
777.378	88.59
777.556	89.44
777.734	88.86
777.911	88.55
778.089	89.35
778.267	89.57
778.445	86.22
778.622	86.15
778.8	85.9
778.978	86.05
779.155	83.99
779.333	84.9
779.511	82.16
779.688	80.77
779.866	80.44
780.043	81.12
780.221	82.14
780.398	84.13
780.576	83.46
780.753	81.74
780.931	81.88
781.108	81.12
781.286	83.2
781.463	83.86
781.64	84.21
781.818	86.38
781.995	90.24
782.172	88.13
782.35	89.52
782.527	92.84
782.704	91.22
782.882	88.01
783.059	88.93
783.236	85.23
783.413	83.41
783.59	84.59
783.768	83.63
783.945	80.67
784.122	83.91
784.299	82.18
784.476	81.26
784.653	83.44
784.83	85.53
785.007	82.37
785.184	84.09
785.361	83.73
785.538	83.53
785.715	84.26
785.892	87.22
786.069	87.21
786.246	88.13
786.423	88.48
786.6	85.55
786.776	84.75
786.953	84.65
787.13	86.31
787.307	84.53
787.484	86.83
787.66	83.88
787.837	87.63
788.014	89.05
788.191	88.97
788.367	91.02
788.544	94.24
788.721	91.38
788.897	86.87
789.074	88.56
789.25	83.22
789.427	83.78
789.603	79.98
789.78	79.46
789.956	83.01
790.133	84.73
790.309	83.37
790.486	84.04
790.662	86.46
790.839	78.14
791.015	75.17
791.192	73.56
791.368	76.7
791.544	74.11
791.721	81.24
791.897	83.87
792.073	84.43
792.249	80.63
792.426	82.22
792.602	81.86
792.778	82.46
792.954	81.43
793.13	85.26
793.307	84.72
793.483	80.32
793.659	82.9
793.835	82.27
794.011	81.55
794.187	79.58
794.363	75.8
794.539	74.3
794.715	76.74
794.891	77.21
795.067	78.67
795.243	81.73
795.419	81.67
795.595	81.5
795.771	81.03
795.947	80.93
796.122	83.01
796.298	81.8
796.474	84.71
796.65	80.95
796.826	82.81
797.001	80.14
797.177	84.33
797.353	81.56
797.529	85.62
797.704	84.88
797.88	85.89
798.056	83.47
798.231	84.01
798.407	82.12
798.582	80.75
798.758	86.91
798.934	81.57
799.109	81.06
799.285	84.1
799.46	82.35
799.636	82.8
799.811	83.92
799.986	86
800.162	85.98
800.337	92.53
800.513	84.42
800.688	83.69
800.863	84.68
801.039	88.76
801.214	87.37
801.389	90.25
801.565	89.35
801.74	90.71
801.915	79.87
802.09	82.8
802.265	79.57
802.441	79.79
802.616	71.3
802.791	65.88
802.966	66.59
803.141	68.96
803.316	66.6
803.491	64.5
803.666	77.96
803.841	73.96
804.016	73.47
804.191	78.9
804.366	86.24
804.541	79.68
804.716	81.94
804.891	76.2
805.066	74.37
805.241	77.74
805.416	77.58
805.591	71.14
805.765	71.23
805.94	74.56
806.115	68.82
806.29	70.28
806.464	69.46
806.639	74.18
806.814	67.85
806.989	63.96
807.163	68.23
807.338	72.34
807.512	65.93
807.687	71.76
807.862	70.57
808.036	69.77
808.211	66.04
808.385	67.65
808.56	68.87
808.734	64.74
808.909	59.33
809.083	61.55
809.258	60.82
809.432	57.22
809.606	63.56
809.781	64.59
809.955	63.25
810.13	70.78
810.304	67.2
810.478	63.96
810.652	78.14
810.827	83.72
811.001	87.12
811.175	105.39
811.349	110.47
811.524	94.29
811.698	86.94
811.872	90.98
812.046	86.31
812.22	93.53
812.394	99.22
812.568	112.02
812.742	98.6
812.916	91.69
813.09	85.84
813.264	88.66
813.438	82.59
813.612	83.98
813.786	85.48
813.96	85.25
814.134	79.27
814.308	77.64
814.482	87.59
814.656	97.96
814.83	105.32
815.003	106.37
815.177	100.28
815.351	90.28
815.525	72.99
815.698	72.88
815.872	69.66
816.046	79.81
816.219	75.19
816.393	68.1
816.567	60.75
816.74	67.61
816.914	58.25
817.088	64.2
817.261	69.79
817.435	66.41
817.608	62.41
817.782	66.08
817.955	57.36
818.129	59.37
818.302	70.16
818.475	72.06
818.649	81.48
818.822	89.16
818.996	87.5
819.169	85.51
819.342	86.63
819.516	79.21
819.689	80.73
819.862	77.59
820.035	60.63
820.209	59.99
820.382	58.58
820.555	64.66
820.728	80.89
820.901	96.62
821.075	92.46
821.248	87.33
821.421	89.71
821.594	93.81
821.767	98.15
821.94	88.01
822.113	93.13
822.286	72.82
822.459	63.09
822.632	66.46
822.805	69.91
822.978	63.76
823.151	80.14
823.324	85.48
823.496	63.84
823.669	66.44
823.842	67.59
824.015	63.93
824.188	52.72
824.361	59.49
824.533	59.84
824.706	67.26
824.879	66.81
825.051	58.25
825.224	55.93
825.397	47.31
825.569	42.65
825.742	29.22
825.915	44.09
826.087	58.63
826.26	68.13
826.432	66.43
826.605	81.23
826.777	73.91
826.95	73.84
827.122	76.49
827.295	73.14
827.467	71.52
827.64	74.35
827.812	56.13
827.984	67.17
828.157	68.29
828.329	78.21
828.501	72.25
828.674	88.94
828.846	80.7
829.018	80.17
829.19	72.01
829.363	88.18
829.535	82.54
829.707	84.59
829.879	89.1
830.051	79.08
830.223	68.21
830.395	59.73
830.568	57.08
830.74	52.56
830.912	47.15
831.084	61.56
831.256	57.84
831.428	56.34
831.6	65.19
831.772	50.21
831.943	31.41
832.115	45.76
832.287	59.25
832.459	61.24
832.631	81.88
832.803	93.44
832.975	84.91
833.146	83.59
833.318	81.01
833.49	65.41
833.662	52.45
833.833	58.51
834.005	53.98
834.177	67.08
834.348	67.42
834.52	72.86
834.692	67.58
834.863	67.59
835.035	59.02
835.206	56.87
835.378	58.03
835.549	61.84
835.721	51.12
835.892	34.22
836.064	40.39
836.235	40.76
836.407	38.66
836.578	57.89
836.749	86.96
836.921	78.21
837.092	75.02
837.264	67.46
837.435	69.96
837.606	35.97
837.777	20.52
837.949	40.44
838.12	44.42
838.291	36.89
838.462	52.83
838.633	73.42
838.805	79.16
838.976	88.94
839.147	72.41
839.318	56.66
839.489	69.4
839.66	54.79
839.831	73.57
840.002	92.41
840.173	103.88
840.344	56.29
840.515	49.54
840.686	26.08
840.857	30.51
841.028	27.27
841.199	46.61
841.369	55.22
841.54	78.18
841.711	22.36
841.882	23.51
842.053	19.49
842.223	20.14
842.394	18.11
842.565	39.84
842.736	41.05
842.906	28.4
843.077	62.25
843.248	63.87
843.418	69.34
843.589	67.82
843.759	76.79
843.93	68.14
844.101	50.91
844.271	76.52
844.442	61.87
844.612	48.62
844.783	43.03
844.953	46.03
845.123	33.7
845.294	47.96
845.464	88.94
845.635	79.13
845.805	91.82
845.975	81.36
846.146	59.95
846.316	51.52
846.486	58.7
846.656	71.31
846.827	91.23
846.997	98.71
847.167	106.2
847.337	69.52
847.507	55.2
847.677	64.64
847.848	76.65
848.018	69.43
848.188	96.91
848.358	88.67
848.528	34.44
848.698	22.71
848.868	21.28
849.038	11.66
849.208	33.22
849.378	78.21
849.548	101.47
849.718	100.97
849.887	106.06
850.057	102.6
850.227	131.54
850.397	108.78
850.567	124.18
850.737	88.4
850.906	68.93
851.076	49.51
851.246	13.29
851.415	29.99
851.585	23.08
851.755	37.74
851.924	48.08
852.094	75.15
852.264	61.12
852.433	88.46
852.603	49.81
852.772	47.95
852.942	47.8
853.111	48.25
853.281	50.16
853.45	49.23
853.62	41.45
853.789	29.88
853.959	15.48
854.128	-14.14
854.297	9.19
854.467	-2.44
854.636	15.61
854.805	14.57
854.975	38.6
855.144	45.56
855.313	79.23
855.482	79.64
855.652	44.53
855.821	32.25
855.99	36.36
856.159	38.98
856.328	21.8
856.497	53.48
856.667	71.71
856.836	102.87
857.005	77.88
857.174	122.5
857.343	162.44
857.512	104.33
857.681	35.79
857.85	38.26
858.019	35.1
858.188	20.42
858.356	44.52
858.525	48.56
858.694	33.58
858.863	15.37
859.032	27
859.201	-1
859.369	-17.06
859.538	-27.27
859.707	27.58
859.876	39.07
860.044	56.5
860.213	55.01
860.382	63.21
860.55	56.41
860.719	4.01
860.888	-23.35
861.056	1.37
861.225	18.41
861.393	25.39
861.562	49.03
861.73	71.73
861.899	85.38
862.067	62.23
862.236	67.08
862.404	42.76
862.572	33.59
862.741	9.03
862.909	-5.7
863.078	-5
863.246	36.25
863.414	50.98
863.582	52.17
863.751	49.31
863.919	46.27
864.087	48.31
864.255	19.4
864.424	1.42
864.592	24.25
864.76	-3.8
864.928	-33.82
865.096	-9.68
865.264	21.41
865.432	11.71
865.6	44.22
865.768	28.24
865.936	37.05
866.104	23.67
866.272	41.93
866.44	9.96
866.608	69.74
866.776	40.73
866.944	58.44
867.112	29.32
867.28	41.82
867.448	20.7
867.615	132.4
867.783	99.54
867.951	79.1
868.119	95.79
868.286	47.91
868.454	31.79
868.622	4.06
868.789	-78.19
868.957	-20.7
869.125	-30.46
869.292	-26.14
869.46	-16.62
869.627	27.24
869.795	3.42
869.963	13.17
870.13	13.97
870.298	38.43
870.465	20.67
870.632	68.4
870.8	66.09
870.967	53.08
871.135	1.21
871.302	58.53
871.469	310.91
871.637	-47
871.804	58.02
871.971	51.6
872.139	64.11
872.306	64.33
872.473	70.36
872.64	45.74
872.807	57.81
872.975	22.6
873.142	60.94
873.309	-571.01
873.476	492.57
873.643	176.98
873.81	110.59
873.977	113.89
874.144	104.73
874.311	64.81
874.478	48.92
874.645	49.51
874.812	19.95
874.979	8.32
875.146	2.02
875.313	21.59
875.48	11.05
875.647	13.57
875.813	384.89
875.98	70.71
876.147	-139.39
876.314	1.82
876.481	-87.81
876.647	-18.95
876.814	46.49
876.981	37.89
877.147	-0.46
877.314	53.52
877.481	42.63
877.647	35.79
877.814	63.65
877.98	53.16
878.147	103.8
878.314	117.79
878.48	108.17
878.647	135.78
878.813	1378.29
878.979	192.12
879.146	131.16
879.312	56.16
879.479	52.39
879.645	63.63
879.811	15.14
879.978	42.15
880.144	68.72
880.31	59.98
880.477	42.85
880.643	63.72
880.809	50.55
880.975	-539.39
881.142	271.98
881.308	-258.67
881.474	136.9
881.64	83.59
881.806	73.31
881.972	57.22
882.138	65.55
882.304	99.68
882.47	103.48
882.636	56.06
882.802	156.21
882.968	323.4
883.134	112.59
883.3	77.79
883.466	103.11
883.632	105.4
883.798	54.95
883.964	55
884.129	83.36
884.295	68.03
884.461	34.31
884.627	51.16
884.793	3.72
884.958	30.35
885.124	20.52
885.29	1.87
885.455	-43.69
885.621	19.32
885.787	-37.68
885.952	162.01
886.118	191.07
886.283	-3070.18
886.449	-109.79
886.614	-36.23
886.78	30.1
886.945	19.76
887.111	38
887.276	40.38
887.442	16.78
887.607	-52.26
887.773	-13.52
887.938	-33.06
888.103	-27.32
888.269	-37.53
888.434	9.89
888.599	45.71
888.764	72.12
888.93	76.25
889.095	103.28
889.26	150.05
889.425	115.01
889.59	161.35
889.756	165.39
889.921	107.07
890.086	28.76
890.251	90.36
890.416	47.12
890.581	38.28
890.746	60.14
890.911	77.84
891.076	37.37
891.241	7.77
891.406	40.33
891.571	-21.57
891.736	22.17
891.901	21.53
892.065	-22.51
892.23	-103.69
892.395	-8.97
892.56	-154.38
892.725	-43.54
892.889	103.71
893.054	61.87
893.219	70.71
893.384	49.58
893.548	27.63
893.713	387.65
893.878	73.77
