Data from Ofav_PS_Phys_9AZ9_Reflection_2.txt Node
Date: Thu Jul 29 18:23:33 EDT 2021
User: USUARIO
Spectrometer: FLMT01687
Trigger mode: 0
Integration Time (sec): 9.010000E-1
Scans to average: 2
Electric dark correction enabled: true
Nonlinearity correction enabled: false
Boxcar width: 2
XAxis mode: Wavelengths
Number of Pixels in Spectrum: 3648
>>>>>Begin Spectral Data<<<<<
179.494	262.22
179.716	189.64
179.937	133.18
180.158	-265.54
180.38	11.8
180.601	-224.15
180.823	-135.19
181.044	-61.79
181.265	-64.68
181.486	-184.18
181.708	116.64
181.929	247.42
182.15	8904.76
182.372	-102.43
182.593	-4.37
182.814	37.77
183.035	50.17
183.257	8.53
183.478	21.33
183.699	41.48
183.92	52.62
184.141	77.81
184.363	69.45
184.584	90.51
184.805	90.74
185.026	113.69
185.247	108.88
185.468	159.55
185.689	139.63
185.91	158.49
186.132	166.43
186.353	92.88
186.574	89.29
186.795	99.82
187.016	95.19
187.237	74.95
187.458	72.04
187.679	68.46
187.9	44.91
188.121	54
188.342	55.11
188.563	65.32
188.784	53.97
189.005	54.99
189.226	47.48
189.447	49.99
189.667	46.52
189.888	68.99
190.109	84.53
190.33	84.54
190.551	51.9
190.772	58.45
190.993	23.68
191.214	27.38
191.434	55.11
191.655	47.36
191.876	60.89
192.097	48.39
192.318	60.73
192.538	35.69
192.759	54.3
192.98	43.02
193.201	60.07
193.421	44.01
193.642	24.83
193.863	7.61
194.083	-31.07
194.304	-36.57
194.525	-19.54
194.745	5.28
194.966	11.05
195.187	21.54
195.407	19.53
195.628	-17.83
195.848	7.34
196.069	70.97
196.29	71.22
196.51	74.11
196.731	75.58
196.951	50.51
197.172	14.52
197.392	16.22
197.613	6.58
197.833	1.72
198.054	3.24
198.274	11.5
198.495	23.88
198.715	16.68
198.936	30.17
199.156	56.09
199.377	56.79
199.597	35.49
199.817	62.57
200.038	71.11
200.258	65.91
200.479	39.14
200.699	17.52
200.919	15.8
201.14	-5.75
201.36	12.69
201.58	35.06
201.801	48.93
202.021	55.2
202.241	76.65
202.461	76.72
202.682	87.84
202.902	95.46
203.122	95.61
203.342	103.34
203.563	82.35
203.783	69.35
204.003	68.06
204.223	98.59
204.443	73.25
204.663	94.9
204.884	112.33
205.104	128.67
205.324	82.67
205.544	62.58
205.764	61.64
205.984	50.89
206.204	38.43
206.424	35.56
206.644	70.93
206.864	59.31
207.084	27.57
207.304	59.78
207.525	75.1
207.745	42.37
207.964	48.91
208.184	69.58
208.404	25.9
208.624	28.28
208.844	38.22
209.064	62.5
209.284	78.71
209.504	72.57
209.724	79.54
209.944	76.74
210.164	54.95
210.384	52.57
210.604	59.02
210.823	52.36
211.043	41.06
211.263	58.59
211.483	30.07
211.703	17.25
211.922	17.17
212.142	28.69
212.362	8.68
212.582	33.54
212.801	40.87
213.021	38.15
213.241	30.86
213.461	18.73
213.68	-7.08
213.9	-8.38
214.12	-0.52
214.339	-13.43
214.559	21.98
214.779	43.29
214.998	22.67
215.218	42.28
215.438	58.87
215.657	43.32
215.877	55.08
216.096	72.63
216.316	52.33
216.535	28.85
216.755	8.01
216.974	-6.7
217.194	-12.59
217.413	36.63
217.633	76.24
217.852	63.05
218.072	38.73
218.291	44.18
218.511	46.23
218.73	22.2
218.95	30.23
219.169	41.09
219.389	33
219.608	10.4
219.827	32.69
220.047	29.97
220.266	28.6
220.485	41.12
220.705	43.85
220.924	19.26
221.143	25.91
221.363	19.69
221.582	-3.77
221.801	-13.57
222.021	56.15
222.24	35.8
222.459	46.52
222.678	60.14
222.897	56.71
223.117	44.47
223.336	67.71
223.555	77.31
223.774	94.24
223.993	93.56
224.213	105.36
224.432	86.34
224.651	85.42
224.87	63.23
225.089	65.87
225.308	50.34
225.527	42.66
225.746	11.73
225.965	38.46
226.184	32.79
226.404	21.8
226.623	61.67
226.842	67.68
227.061	55.81
227.28	60.2
227.499	104.81
227.718	114.61
227.936	114.9
228.155	109.28
228.374	83.49
228.593	46.86
228.812	29.91
229.031	19.43
229.25	13.54
229.469	30.44
229.688	28.56
229.907	39.82
230.125	26.24
230.344	22.72
230.563	13.15
230.782	51.66
231.001	19.55
231.22	32.51
231.438	34.01
231.657	33.55
231.876	15.8
232.095	22.52
232.313	51.18
232.532	57.11
232.751	55.72
232.969	58.58
233.188	55.97
233.407	-9.28
233.625	-4.6
233.844	-4.8
234.063	0.45
234.281	-17.72
234.5	17.49
234.719	53.55
234.937	66.31
235.156	75.81
235.374	87.28
235.593	84.17
235.811	61.15
236.03	43.44
236.249	30.85
236.467	39.5
236.686	27.73
236.904	16.41
237.123	29
237.341	25.94
237.559	18.71
237.778	43.81
237.996	52.68
238.215	50.98
238.433	65.71
238.652	60.21
238.87	31.97
239.088	35.5
239.307	30.3
239.525	25.43
239.743	21.1
239.962	38.29
240.18	32.5
240.398	34.84
240.617	28.6
240.835	36.59
241.053	39.23
241.271	58.92
241.49	64.45
241.708	67.62
241.926	60.5
242.144	46.41
242.363	32.83
242.581	22.22
242.799	11.4
243.017	21.36
243.235	28.39
243.453	31.91
243.672	37.14
243.89	22.03
244.108	32.66
244.326	42.08
244.544	42.81
244.762	44.51
244.98	62.96
245.198	48.8
245.416	21.85
245.634	19.04
245.852	26.21
246.07	35.09
246.288	45.14
246.506	49.52
246.724	45.33
246.942	28.53
247.16	35.45
247.378	16.39
247.596	21.83
247.814	30.72
248.032	37.57
248.25	29.58
248.468	42.55
248.685	33.64
248.903	51.44
249.121	51.19
249.339	35.98
249.557	27.84
249.775	45.61
249.992	25.25
250.21	34.76
250.428	55.78
250.646	69.14
250.863	61.59
251.081	62.71
251.299	73.94
251.517	71.38
251.734	80.01
251.952	83.6
252.17	74.18
252.387	61.2
252.605	71.37
252.823	31.76
253.04	41.9
253.258	41.02
253.475	33.07
253.693	32.65
253.911	45.47
254.128	31.29
254.346	15.06
254.563	29.16
254.781	-0.04
254.998	9.82
255.216	17.46
255.433	41.05
255.651	35.13
255.868	33.78
256.086	38.11
256.303	25.92
256.521	27.08
256.738	20.63
256.956	25.28
257.173	14.14
257.39	34.02
257.608	27.48
257.825	47.85
258.043	48.71
258.26	34.86
258.477	23.12
258.695	23.37
258.912	13.35
259.129	11.24
259.346	40.33
259.564	56.98
259.781	41.45
259.998	7.41
260.216	26.48
260.433	27.52
260.65	24.34
260.867	21.38
261.084	42.65
261.302	19.75
261.519	19.59
261.736	20.28
261.953	47.13
262.17	52.14
262.387	54.76
262.604	31.32
262.822	33.57
263.039	33.67
263.256	-6.7
263.473	-0.81
263.69	15.84
263.907	30.85
264.124	15.52
264.341	44.09
264.558	53.3
264.775	44.48
264.992	30.04
265.209	13.78
265.426	14.78
265.643	12.87
265.86	15.17
266.077	22.79
266.294	43.3
266.51	33.98
266.727	42.89
266.944	52.47
267.161	51.11
267.378	43.45
267.595	51.33
267.812	34.6
268.028	15.46
268.245	25.46
268.462	12.15
268.679	20.17
268.896	32.67
269.112	38
269.329	30.41
269.546	44.84
269.763	40.56
269.979	34.32
270.196	43.97
270.413	44.39
270.629	41.16
270.846	49.83
271.063	56.99
271.279	51.28
271.496	37.63
271.712	16.43
271.929	17.96
272.146	17.98
272.362	13.87
272.579	43.41
272.795	70.14
273.012	44.98
273.228	43.35
273.445	58.26
273.661	48.92
273.878	32.89
274.094	53
274.311	57.59
274.527	39.62
274.744	41.15
274.96	49.48
275.177	49.51
275.393	33.11
275.609	32.54
275.826	34.44
276.042	18.16
276.259	1.94
276.475	17.35
276.691	28.39
276.908	22.43
277.124	19.79
277.34	29.62
277.557	10.07
277.773	3.67
277.989	13.09
278.205	37.23
278.422	38.06
278.638	57.92
278.854	72.47
279.07	67.63
279.286	61.58
279.503	58.01
279.719	67.15
279.935	57.44
280.151	39.24
280.367	43.92
280.583	44.35
280.799	23.46
281.016	43.89
281.232	58.86
281.448	55.55
281.664	62.1
281.88	44.94
282.096	30.87
282.312	20.34
282.528	9.32
282.744	-29.32
282.96	3.97
283.176	11.65
283.392	28.21
283.608	38.62
283.824	55.2
284.04	44
284.256	45.89
284.471	32.05
284.687	19.21
284.903	-14.45
285.119	35.49
285.335	26.74
285.551	23.86
285.767	24.31
285.982	28.97
286.198	10.26
286.414	11.32
286.63	9.89
286.846	13.44
287.061	17.14
287.277	29.42
287.493	19.64
287.709	27.91
287.924	28.07
288.14	35.33
288.356	41.79
288.571	42.98
288.787	43.77
289.003	47.72
289.218	30.23
289.434	19.39
289.65	22.15
289.865	18.91
290.081	9.86
290.296	30.38
290.512	37.78
290.727	50.94
290.943	58.63
291.159	63.98
291.374	63.44
291.59	51.82
291.805	28.52
292.021	16.73
292.236	21.77
292.451	8.82
292.667	6.9
292.882	23.22
293.098	39.27
293.313	34.97
293.529	39.33
293.744	36.08
293.959	38.35
294.175	36.74
294.39	37.46
294.605	36.94
294.821	31.89
295.036	34.95
295.251	28.12
295.467	19.25
295.682	15.41
295.897	19.13
296.112	13.26
296.328	25.61
296.543	25.6
296.758	22.87
296.973	27.2
297.188	43.07
297.404	17.85
297.619	20.16
297.834	-5.18
298.049	5.66
298.264	-0.49
298.479	20.66
298.694	13.68
298.909	30.37
299.125	29.88
299.34	55.15
299.555	33.48
299.77	51.61
299.985	13.05
300.2	21.14
300.415	-4.05
300.63	18.59
300.845	10.28
301.06	10.06
301.275	5.57
301.49	-10.99
301.704	-36.84
301.919	-4.72
302.134	22.39
302.349	9.38
302.564	27.79
302.779	27.23
302.994	28.44
303.209	37.23
303.423	54.8
303.638	35.97
303.853	20.77
304.068	28.22
304.283	32.22
304.497	31.93
304.712	35.03
304.927	51.89
305.142	39.12
305.356	22.25
305.571	18.81
305.786	35.06
306	17.78
306.215	32.61
306.43	35.15
306.644	34.78
306.859	60.43
307.074	79.4
307.288	64.85
307.503	62.6
307.717	55.28
307.932	18.99
308.147	12.73
308.361	13.05
308.576	-0.26
308.79	-1.68
309.005	26.56
309.219	20.05
309.434	27.49
309.648	34.85
309.863	38.74
310.077	38.97
310.292	45.24
310.506	31.16
310.72	32.29
310.935	22.14
311.149	23.92
311.364	24.18
311.578	24.98
311.792	5.71
312.007	8.49
312.221	-9.59
312.435	-12.99
312.649	-19
312.864	-186.12
313.078	-115.11
313.292	-130.39
313.507	-85.97
313.721	-63.13
313.935	3.95
314.149	10.56
314.363	29.96
314.578	6.9
314.792	9.58
315.006	14.26
315.22	5.58
315.434	11.49
315.648	29.53
315.862	20.08
316.077	18.63
316.291	21.97
316.505	34.19
316.719	32.95
316.933	57.06
317.147	66.67
317.361	67
317.575	51.84
317.789	37.51
318.003	36.53
318.217	31.8
318.431	35.65
318.645	40.26
318.859	46.63
319.073	32.52
319.287	26.43
319.5	11.78
319.714	24.49
319.928	27.12
320.142	53.99
320.356	67.69
320.57	71.57
320.784	64.41
320.997	48.72
321.211	28.41
321.425	23.38
321.639	12.76
321.853	9.48
322.066	7.27
322.28	14.24
322.494	15.08
322.707	37.2
322.921	43.68
323.135	62.52
323.349	63.69
323.562	51.52
323.776	52
323.989	34.67
324.203	28.93
324.417	23.83
324.63	22.31
324.844	15.91
325.057	27.53
325.271	25.24
325.485	15.29
325.698	32.55
325.912	28.2
326.125	18.98
326.339	20.08
326.552	26.96
326.766	27.13
326.979	50.14
327.193	61.01
327.406	61.73
327.619	58.8
327.833	64.29
328.046	44.96
328.26	35.06
328.473	29.09
328.686	26.35
328.9	-13.7
329.113	-29.31
329.326	-28.28
329.54	-39.1
329.753	-17.03
329.966	17.57
330.179	31.27
330.393	42.81
330.606	41.58
330.819	44.35
331.032	37.46
331.246	27.59
331.459	7.35
331.672	-9.72
331.885	-4.27
332.098	-2.56
332.311	24.27
332.525	35.13
332.738	36.81
332.951	26.78
333.164	22.53
333.377	11.57
333.59	12.12
333.803	22.22
334.016	27.33
334.229	22.93
334.442	21.66
334.655	24.84
334.868	25.06
335.081	31.09
335.294	24.14
335.507	25.7
335.72	37.77
335.933	30.04
336.146	24.6
336.359	53.9
336.572	47.04
336.785	28.81
336.997	39.56
337.21	41.93
337.423	26.19
337.636	24.18
337.849	20.12
338.062	5.97
338.274	-14.16
338.487	-20.25
338.7	-26.64
338.913	-0.62
339.125	20.97
339.338	29.71
339.551	33.62
339.763	31.25
339.976	15.42
340.189	13.97
340.402	-0.85
340.614	-6.07
340.827	18
341.039	29.54
341.252	37.28
341.465	43.23
341.677	40.1
341.89	29.25
342.102	29.7
342.315	31.9
342.527	33.73
342.74	36.32
342.952	26.56
343.165	28.93
343.377	18.67
343.59	10.82
343.802	21.3
344.015	37.25
344.227	30.65
344.44	31.53
344.652	43.35
344.864	32.68
345.077	29.47
345.289	23.32
345.502	25.32
345.714	17.14
345.926	18.8
346.139	7.49
346.351	18.89
346.563	17.4
346.775	19.1
346.988	13.89
347.2	21.81
347.412	26.03
347.624	34.28
347.837	17.01
348.049	22.71
348.261	9.52
348.473	2.63
348.685	1.47
348.897	19.98
349.11	14.85
349.322	24
349.534	24.99
349.746	15.93
349.958	12.18
350.17	15.25
350.382	18.18
350.594	21.02
350.806	32.61
351.018	24.57
351.23	35
351.442	14.88
351.654	23.93
351.866	-7
352.078	9.84
352.29	-5.55
352.502	25.42
352.714	16.6
352.926	35.87
353.138	53.28
353.35	48.83
353.561	15.16
353.773	31.91
353.985	21.48
354.197	12.16
354.409	17.01
354.621	-2.38
354.832	-23.51
355.044	-14.51
355.256	-3.91
355.468	-2.5
355.679	25.71
355.891	37.87
356.103	43.04
356.314	40.06
356.526	41.92
356.738	37.37
356.949	40.7
357.161	48.93
357.373	58.68
357.584	66.11
357.796	83.56
358.008	64.97
358.219	47.86
358.431	44.21
358.642	32.35
358.854	21.16
359.065	25.7
359.277	22.03
359.488	18.32
359.7	24.39
359.911	27.76
360.123	16.98
360.334	20.78
360.546	25.32
360.757	22.41
360.969	18.97
361.18	36.57
361.391	33.32
361.603	23.25
361.814	31.03
362.025	24.43
362.237	19.96
362.448	19.74
362.659	17.12
362.871	14.21
363.082	21.41
363.293	8.9
363.504	14.24
363.716	7.67
363.927	4.12
364.138	-13.91
364.349	6.17
364.56	9.79
364.772	12.7
364.983	14.42
365.194	20.86
365.405	23.09
365.616	10.02
365.827	29.68
366.038	18.84
366.25	17.72
366.461	4.34
366.672	22.16
366.883	-3.79
367.094	10.2
367.305	20.04
367.516	32.27
367.727	34.21
367.938	41.46
368.149	36.45
368.36	34.68
368.571	29.08
368.781	19.46
368.992	1.94
369.203	12.95
369.414	16.4
369.625	19.54
369.836	24.61
370.047	24.77
370.258	20.26
370.468	19.05
370.679	10.25
370.89	-2.87
371.101	12.59
371.312	20.16
371.522	18.32
371.733	22.63
371.944	31.14
372.155	10.58
372.365	-5.93
372.576	-3
372.787	5.26
372.997	8.92
373.208	15.05
373.419	22.93
373.629	33.19
373.84	33.29
374.05	16.29
374.261	29.5
374.472	29.18
374.682	16.32
374.893	20.3
375.103	40.75
375.314	27.05
375.524	27.54
375.735	33.53
375.945	31.71
376.156	21.53
376.366	21.95
376.577	29.65
376.787	24.31
376.997	21.25
377.208	20.54
377.418	17.81
377.629	18.69
377.839	25.23
378.049	23.93
378.26	27.02
378.47	36.66
378.68	29.53
378.89	23.49
379.101	26.11
379.311	14.32
379.521	4.72
379.732	11.78
379.942	14.97
380.152	2.37
380.362	12.2
380.572	11.65
380.783	3.66
380.993	0.69
381.203	16.63
381.413	30.33
381.623	36.76
381.833	43.85
382.043	41.93
382.253	37.62
382.463	25.82
382.674	22.78
382.884	19.4
383.094	8.15
383.304	8.76
383.514	7.8
383.724	20.9
383.934	14.21
384.144	22.65
384.353	26.82
384.563	31.89
384.773	21.42
384.983	21.04
385.193	23.5
385.403	8.01
385.613	9.36
385.823	8.9
386.033	6.38
386.242	0.64
386.452	7.9
386.662	0.97
386.872	5.38
387.082	10.03
387.291	6.26
387.501	5.59
387.711	7.71
387.921	4.16
388.13	5.62
388.34	9.4
388.55	10.76
388.759	8.93
388.969	9.79
389.179	5.31
389.388	2.13
389.598	3.39
389.807	5.96
390.017	5.17
390.227	9.91
390.436	11.92
390.646	9.59
390.855	10.49
391.065	9.29
391.274	6.48
391.484	4.03
391.693	4.94
391.903	3.07
392.112	4.82
392.322	5.42
392.531	6.9
392.74	4.5
392.95	5.36
393.159	5.51
393.369	5.69
393.578	5.76
393.787	7.44
393.997	6.59
394.206	6.42
394.415	6.86
394.625	7.08
394.834	7.54
395.043	7.35
395.252	8
395.462	7.07
395.671	6.57
395.88	6.99
396.089	7.38
396.298	7.52
396.508	7.24
396.717	7.02
396.926	6.55
397.135	6.74
397.344	6.23
397.553	7.23
397.762	8.04
397.971	7.93
398.181	8.23
398.39	8
398.599	7.49
398.808	7.26
399.017	7.64
399.226	7.26
399.435	7.32
399.644	7.88
399.853	8.02
400.062	8.11
400.27	8.32
400.479	8.31
400.688	7.82
400.897	7.77
401.106	7.25
401.315	7.05
401.524	7.15
401.733	7.27
401.941	7.4
402.15	7.66
402.359	7.39
402.568	7.11
402.777	6.83
402.985	6.6
403.194	6.33
403.403	6.51
403.612	6.43
403.82	6.62
404.029	6.4
404.238	6.28
404.446	6.44
404.655	6.57
404.864	6.47
405.072	6.57
405.281	6.76
405.489	6.54
405.698	6.48
405.906	6.36
406.115	6.36
406.324	6.26
406.532	6.19
406.741	6.19
406.949	6.35
407.158	6.3
407.366	6.25
407.574	6.21
407.783	6.23
407.991	6.02
408.2	5.97
408.408	5.91
408.617	6.02
408.825	6.06
409.033	6.26
409.242	6.36
409.45	6.48
409.658	6.53
409.867	6.51
410.075	6.41
410.283	6.35
410.491	6.25
410.7	6.17
410.908	6.02
411.116	6.01
411.324	6.05
411.533	6.19
411.741	6.16
411.949	6.31
412.157	6.15
412.365	5.95
412.573	5.85
412.781	5.82
412.99	5.86
413.198	5.82
413.406	5.95
413.614	5.92
413.822	5.97
414.03	5.8
414.238	5.94
414.446	6.09
414.654	6.02
414.862	5.87
415.07	5.71
415.278	5.76
415.486	5.58
415.694	5.67
415.902	5.76
416.109	5.88
416.317	5.88
416.525	5.8
416.733	5.81
416.941	5.83
417.149	5.83
417.357	5.61
417.564	5.56
417.772	5.31
417.98	5.35
418.188	5.3
418.395	5.37
418.603	5.45
418.811	5.64
419.019	5.64
419.226	5.86
419.434	5.92
419.642	5.8
419.849	5.72
420.057	5.59
420.265	5.36
420.472	5.18
420.68	5.23
420.887	5.27
421.095	5.35
421.302	5.41
421.51	5.51
421.717	5.63
421.925	5.74
422.132	5.61
422.34	5.47
422.547	5.39
422.755	5.31
422.962	5.2
423.17	5.21
423.377	5.38
423.585	5.63
423.792	5.63
423.999	5.56
424.207	5.48
424.414	5.29
424.621	5.1
424.829	5.1
425.036	5.17
425.243	5.24
425.451	5.46
425.658	5.42
425.865	5.41
426.072	5.39
426.28	5.45
426.487	5.41
426.694	5.41
426.901	5.22
427.108	5.33
427.315	5.38
427.523	5.44
427.73	5.46
427.937	5.63
428.144	5.49
428.351	5.44
428.558	5.35
428.765	5.47
428.972	5.62
429.179	5.62
429.386	5.63
429.593	5.59
429.8	5.55
430.007	5.4
430.214	5.56
430.421	5.59
430.628	5.6
430.835	5.65
431.042	5.66
431.249	5.69
431.456	5.57
431.662	5.7
431.869	5.78
432.076	5.87
432.283	5.94
432.49	5.95
432.697	5.94
432.903	5.65
433.11	5.45
433.317	5.31
433.524	5.43
433.73	5.38
433.937	5.48
434.144	5.47
434.35	5.38
434.557	5.33
434.764	5.35
434.97	5.38
435.177	5.59
435.384	5.61
435.59	5.6
435.797	5.59
436.003	5.53
436.21	5.46
436.416	5.48
436.623	5.5
436.829	5.47
437.036	5.54
437.242	5.7
437.449	5.7
437.655	5.81
437.862	5.88
438.068	5.85
438.275	5.79
438.481	5.83
438.687	5.77
438.894	5.8
439.1	5.85
439.307	5.85
439.513	5.8
439.719	5.74
439.926	5.6
440.132	5.6
440.338	5.49
440.544	5.43
440.751	5.45
440.957	5.5
441.163	5.51
441.369	5.73
441.575	5.88
441.782	5.89
441.988	6.05
442.194	5.98
442.4	5.81
442.606	5.84
442.812	5.91
443.018	5.84
443.224	6
443.431	5.92
443.637	5.89
443.843	5.89
444.049	5.91
444.255	5.8
444.461	5.95
444.667	5.91
444.873	5.84
445.079	5.72
445.284	5.73
445.49	5.71
445.696	5.7
445.902	5.72
446.108	5.8
446.314	5.78
446.52	5.79
446.726	5.74
446.931	5.81
447.137	5.76
447.343	5.75
447.549	5.75
447.755	5.82
447.96	5.85
448.166	5.84
448.372	5.87
448.578	5.88
448.783	5.96
448.989	5.9
449.195	5.88
449.4	5.94
449.606	5.9
449.812	5.88
450.017	5.91
450.223	6.02
450.428	5.95
450.634	6
450.84	6.09
451.045	6.12
451.251	6.13
451.456	6.24
451.662	6.28
451.867	6.22
452.073	6.19
452.278	6.17
452.483	6.22
452.689	6.26
452.894	6.23
453.1	6.23
453.305	6.23
453.51	6.15
453.716	6.04
453.921	6.06
454.127	6.16
454.332	6.06
454.537	6.02
454.742	6.13
454.948	6.04
455.153	5.97
455.358	6.11
455.563	6.13
455.769	6.01
455.974	6.05
456.179	5.95
456.384	5.86
456.589	5.92
456.795	6.06
457	6.21
457.205	6.36
457.41	6.48
457.615	6.39
457.82	6.36
458.025	6.23
458.23	6.23
458.435	6.16
458.64	6.21
458.845	6.22
459.05	6.27
459.255	6.25
459.46	6.31
459.665	6.33
459.87	6.24
460.075	6.21
460.28	6.11
460.485	6.1
460.69	6.08
460.895	6.14
461.099	6.06
461.304	6.13
461.509	6.24
461.714	6.29
461.919	6.26
462.123	6.35
462.328	6.35
462.533	6.3
462.738	6.21
462.942	6.19
463.147	6.28
463.352	6.41
463.556	6.39
463.761	6.33
463.966	6.42
464.17	6.43
464.375	6.38
464.58	6.27
464.784	6.4
464.989	6.28
465.193	6.25
465.398	6.28
465.602	6.51
465.807	6.56
466.011	6.69
466.216	6.52
466.42	6.47
466.625	6.42
466.829	6.43
467.034	6.43
467.238	6.57
467.443	6.53
467.647	6.32
467.851	6.29
468.056	6.32
468.26	6.33
468.464	6.4
468.669	6.55
468.873	6.55
469.077	6.52
469.282	6.52
469.486	6.47
469.69	6.43
469.894	6.43
470.099	6.36
470.303	6.4
470.507	6.48
470.711	6.49
470.915	6.54
471.119	6.57
471.324	6.58
471.528	6.49
471.732	6.58
471.936	6.56
472.14	6.67
472.344	6.72
472.548	6.82
472.752	6.86
472.956	6.89
473.16	6.75
473.364	6.74
473.568	6.65
473.772	6.66
473.976	6.67
474.18	6.75
474.384	6.7
474.588	6.68
474.792	6.59
474.995	6.63
475.199	6.64
475.403	6.69
475.607	6.84
475.811	6.87
476.015	6.83
476.218	6.78
476.422	6.79
476.626	6.67
476.83	6.65
477.033	6.67
477.237	6.78
477.441	6.71
477.644	6.71
477.848	6.76
478.052	6.71
478.255	6.58
478.459	6.61
478.663	6.64
478.866	6.69
479.07	6.72
479.273	6.74
479.477	6.75
479.681	6.78
479.884	6.72
480.088	6.66
480.291	6.71
480.495	6.73
480.698	6.71
480.901	6.64
481.105	6.67
481.308	6.62
481.512	6.57
481.715	6.64
481.919	6.72
482.122	6.86
482.325	6.91
482.529	6.9
482.732	6.88
482.935	6.89
483.138	6.82
483.342	6.75
483.545	6.86
483.748	6.86
483.952	6.89
484.155	6.93
484.358	6.92
484.561	6.84
484.764	6.82
484.967	6.74
485.171	6.67
485.374	6.7
485.577	6.65
485.78	6.6
485.983	6.67
486.186	6.6
486.389	6.64
486.592	6.65
486.795	6.73
486.998	6.65
487.201	6.75
487.404	6.82
487.607	6.93
487.81	6.87
488.013	6.91
488.216	6.89
488.419	6.88
488.622	6.77
488.825	6.83
489.028	6.78
489.231	6.79
489.433	6.74
489.636	6.74
489.839	6.66
490.042	6.64
490.245	6.56
490.447	6.54
490.65	6.49
490.853	6.5
491.056	6.58
491.258	6.58
491.461	6.58
491.664	6.68
491.866	6.62
492.069	6.66
492.272	6.7
492.474	6.67
492.677	6.56
492.879	6.66
493.082	6.66
493.285	6.73
493.487	6.69
493.69	6.77
493.892	6.65
494.095	6.59
494.297	6.5
494.5	6.58
494.702	6.57
494.905	6.66
495.107	6.58
495.309	6.65
495.512	6.61
495.714	6.67
495.917	6.68
496.119	6.77
496.321	6.73
496.524	6.78
496.726	6.67
496.928	6.58
497.13	6.52
497.333	6.49
497.535	6.47
497.737	6.54
497.939	6.62
498.142	6.71
498.344	6.79
498.546	6.73
498.748	6.8
498.95	6.82
499.152	6.74
499.355	6.82
499.557	6.92
499.759	6.83
499.961	6.82
500.163	6.85
500.365	6.78
500.567	6.72
500.769	6.73
500.971	6.72
501.173	6.71
501.375	6.67
501.577	6.71
501.779	6.7
501.981	6.65
502.183	6.68
502.385	6.63
502.587	6.52
502.788	6.55
502.99	6.62
503.192	6.61
503.394	6.69
503.596	6.78
503.798	6.76
503.999	6.82
504.201	6.88
504.403	6.84
504.605	6.83
504.806	6.88
505.008	6.83
505.21	6.87
505.411	6.89
505.613	6.87
505.815	6.82
506.016	6.82
506.218	6.71
506.42	6.71
506.621	6.76
506.823	6.77
507.024	6.72
507.226	6.74
507.427	6.78
507.629	6.77
507.83	6.75
508.032	6.81
508.233	6.82
508.435	6.77
508.636	6.81
508.838	6.83
509.039	6.83
509.24	6.82
509.442	6.85
509.643	6.81
509.845	6.82
510.046	6.84
510.247	6.87
510.448	6.9
510.65	6.94
510.851	6.97
511.052	6.98
511.254	6.95
511.455	6.94
511.656	6.92
511.857	6.9
512.058	6.86
512.26	6.87
512.461	6.77
512.662	6.79
512.863	6.76
513.064	6.75
513.265	6.7
513.466	6.77
513.667	6.79
513.868	6.8
514.069	6.84
514.27	6.87
514.471	6.87
514.672	6.79
514.873	6.77
515.074	6.82
515.275	6.81
515.476	6.81
515.677	6.88
515.878	6.9
516.079	6.85
516.28	6.94
516.481	7
516.682	7.02
516.882	7.02
517.083	7.03
517.284	6.92
517.485	6.84
517.686	6.79
517.886	6.85
518.087	6.85
518.288	6.91
518.488	6.94
518.689	6.94
518.89	6.93
519.091	6.97
519.291	7
519.492	7
519.692	7.05
519.893	7.1
520.094	7.08
520.294	7.09
520.495	7.08
520.695	7.14
520.896	7.06
521.096	7.08
521.297	7.08
521.497	7.11
521.698	7.07
521.898	7.1
522.099	7.02
522.299	7.05
522.499	7.07
522.7	7.1
522.9	7.12
523.101	7.13
523.301	7.14
523.501	7.15
523.702	7.11
523.902	7.1
524.102	7.21
524.302	7.2
524.503	7.21
524.703	7.27
524.903	7.24
525.103	7.22
525.304	7.22
525.504	7.26
525.704	7.27
525.904	7.34
526.104	7.33
526.304	7.37
526.504	7.31
526.705	7.25
526.905	7.25
527.105	7.31
527.305	7.3
527.505	7.32
527.705	7.38
527.905	7.37
528.105	7.29
528.305	7.23
528.505	7.19
528.705	7.2
528.905	7.18
529.105	7.17
529.304	7.25
529.504	7.34
529.704	7.32
529.904	7.32
530.104	7.33
530.304	7.3
530.503	7.26
530.703	7.23
530.903	7.25
531.103	7.29
531.303	7.33
531.502	7.37
531.702	7.45
531.902	7.42
532.101	7.41
532.301	7.42
532.501	7.43
532.7	7.47
532.9	7.54
533.1	7.6
533.299	7.57
533.499	7.54
533.698	7.53
533.898	7.52
534.097	7.51
534.297	7.57
534.496	7.54
534.696	7.5
534.895	7.56
535.095	7.52
535.294	7.49
535.494	7.52
535.693	7.48
535.892	7.49
536.092	7.53
536.291	7.57
536.491	7.6
536.69	7.66
536.889	7.56
537.088	7.59
537.288	7.61
537.487	7.64
537.686	7.67
537.886	7.76
538.085	7.82
538.284	7.85
538.483	7.87
538.682	7.87
538.882	7.88
539.081	7.95
539.28	7.96
539.479	7.92
539.678	7.98
539.877	7.98
540.076	7.94
540.275	7.98
540.474	8.03
540.673	8.05
540.872	8.06
541.071	8.03
541.27	8.01
541.469	8.04
541.668	8.07
541.867	8.2
542.066	8.25
542.265	8.26
542.464	8.27
542.663	8.32
542.862	8.44
543.06	8.52
543.259	8.63
543.458	8.7
543.657	8.78
543.856	8.66
544.054	8.65
544.253	8.64
544.452	8.68
544.651	8.66
544.849	8.65
545.048	8.64
545.247	8.65
545.445	8.7
545.644	8.74
545.843	8.81
546.041	8.81
546.24	8.87
546.438	8.87
546.637	8.84
546.836	8.96
547.034	9.02
547.233	9.05
547.431	9.1
547.63	9.16
547.828	9.15
548.027	9.19
548.225	9.24
548.423	9.24
548.622	9.3
548.82	9.25
549.019	9.29
549.217	9.3
549.415	9.33
549.614	9.38
549.812	9.47
550.01	9.52
550.209	9.61
550.407	9.66
550.605	9.71
550.803	9.75
551.002	9.81
551.2	9.88
551.398	9.94
551.596	9.95
551.794	10.03
551.993	10.06
552.191	10.08
552.389	10.15
552.587	10.24
552.785	10.32
552.983	10.41
553.181	10.5
553.379	10.6
553.577	10.65
553.775	10.72
553.973	10.79
554.171	10.87
554.369	10.9
554.567	10.99
554.765	10.99
554.963	11.02
555.161	11.04
555.359	11.14
555.557	11.18
555.755	11.35
555.952	11.53
556.15	11.59
556.348	11.61
556.546	11.79
556.744	11.84
556.941	11.82
557.139	11.97
557.337	12.16
557.535	12.13
557.732	12.13
557.93	12.26
558.128	12.26
558.325	12.21
558.523	12.33
558.721	12.46
558.918	12.51
559.116	12.67
559.313	12.79
559.511	12.92
559.708	12.94
559.906	13.1
560.104	13.15
560.301	13.23
560.498	13.32
560.696	13.45
560.893	13.5
561.091	13.55
561.288	13.65
561.486	13.69
561.683	13.8
561.88	13.96
562.078	14.1
562.275	14.18
562.473	14.31
562.67	14.41
562.867	14.34
563.064	14.45
563.262	14.56
563.459	14.6
563.656	14.66
563.853	14.81
564.051	14.87
564.248	14.88
564.445	15.04
564.642	15.08
564.839	15.21
565.036	15.3
565.234	15.52
565.431	15.62
565.628	15.73
565.825	15.76
566.022	15.88
566.219	15.85
566.416	15.94
566.613	16.11
566.81	16.22
567.007	16.25
567.204	16.36
567.401	16.37
567.598	16.39
567.795	16.5
567.991	16.61
568.188	16.78
568.385	16.9
568.582	16.95
568.779	17.03
568.976	17.08
569.172	17.11
569.369	17.15
569.566	17.24
569.763	17.31
569.96	17.32
570.156	17.33
570.353	17.45
570.55	17.54
570.746	17.55
570.943	17.67
571.14	17.72
571.336	17.77
571.533	17.8
571.729	17.9
571.926	17.96
572.123	18.01
572.319	18.06
572.516	18.14
572.712	18.12
572.909	18.11
573.105	18.23
573.302	18.24
573.498	18.18
573.695	18.25
573.891	18.33
574.087	18.33
574.284	18.38
574.48	18.52
574.677	18.52
574.873	18.53
575.069	18.6
575.266	18.57
575.462	18.55
575.658	18.59
575.854	18.69
576.051	18.66
576.247	18.72
576.443	18.76
576.639	18.86
576.835	18.8
577.032	18.79
577.228	18.83
577.424	18.85
577.62	18.77
577.816	18.73
578.012	18.76
578.208	18.69
578.404	18.67
578.6	18.73
578.796	18.8
578.993	18.8
579.189	18.76
579.384	18.73
579.58	18.62
579.776	18.58
579.972	18.6
580.168	18.66
580.364	18.6
580.56	18.65
580.756	18.56
580.952	18.44
581.148	18.42
581.343	18.49
581.539	18.56
581.735	18.59
581.931	18.72
582.127	18.72
582.322	18.65
582.518	18.55
582.714	18.58
582.909	18.49
583.105	18.45
583.301	18.49
583.496	18.42
583.692	18.42
583.888	18.46
584.083	18.49
584.279	18.47
584.474	18.45
584.67	18.35
584.866	18.32
585.061	18.27
585.257	18.34
585.452	18.4
585.648	18.48
585.843	18.5
586.039	18.51
586.234	18.37
586.429	18.3
586.625	18.31
586.82	18.33
587.015	18.29
587.211	18.32
587.406	18.34
587.601	18.35
587.797	18.26
587.992	18.23
588.187	18.2
588.383	18.22
588.578	18.19
588.773	18.16
588.968	18.19
589.163	18.26
589.359	18.26
589.554	18.29
589.749	18.38
589.944	18.46
590.139	18.43
590.334	18.45
590.529	18.42
590.724	18.45
590.919	18.39
591.114	18.47
591.309	18.49
591.504	18.6
591.699	18.58
591.894	18.68
592.089	18.65
592.284	18.74
592.479	18.72
592.674	18.76
592.869	18.77
593.064	18.84
593.259	18.85
593.454	18.81
593.648	18.86
593.843	18.96
594.038	19.01
594.233	19.05
594.428	19.16
594.622	19.21
594.817	19.19
595.012	19.22
595.206	19.23
595.401	19.32
595.596	19.35
595.79	19.42
595.985	19.51
596.18	19.65
596.374	19.79
596.569	19.88
596.763	20
596.958	20.12
597.153	20.02
597.347	20.02
597.542	20.12
597.736	20.08
597.931	20.04
598.125	20.22
598.319	20.32
598.514	20.46
598.708	20.57
598.903	20.77
599.097	20.89
599.291	20.89
599.486	20.89
599.68	20.88
599.874	20.84
600.069	20.86
600.263	20.85
600.457	20.85
600.651	20.94
600.846	20.99
601.04	21
601.234	21.04
601.428	21.19
601.622	21.26
601.817	21.29
602.011	21.32
602.205	21.3
602.399	21.2
602.593	21.19
602.787	21.22
602.981	21.17
603.175	21.28
603.369	21.3
603.563	21.29
603.757	21.25
603.951	21.33
604.145	21.22
604.339	21.22
604.533	21.13
604.727	21.05
604.921	21.07
605.115	21.06
605.309	20.95
605.502	20.99
605.696	21.03
605.89	20.9
606.084	20.85
606.278	20.82
606.471	20.77
606.665	20.64
606.859	20.64
607.053	20.56
607.246	20.57
607.44	20.48
607.634	20.5
607.827	20.44
608.021	20.37
608.214	20.32
608.408	20.23
608.602	20.17
608.795	20.11
608.989	20.09
609.182	19.92
609.376	19.81
609.569	19.69
609.763	19.55
609.956	19.5
610.15	19.42
610.343	19.47
610.537	19.46
610.73	19.45
610.923	19.41
611.117	19.48
611.31	19.39
611.504	19.37
611.697	19.26
611.89	19.22
612.083	19.03
612.277	18.88
612.47	18.76
612.663	18.62
612.856	18.54
613.05	18.56
613.243	18.51
613.436	18.42
613.629	18.4
613.822	18.23
614.015	18.18
614.209	18.11
614.402	18.03
614.595	18.01
614.788	17.98
614.981	17.85
615.174	17.82
615.367	17.69
615.56	17.63
615.753	17.51
615.946	17.41
616.139	17.38
616.332	17.49
616.525	17.4
616.718	17.31
616.911	17.34
617.103	17.3
617.296	17.12
617.489	17.15
617.682	17.26
617.875	17.22
618.067	17.16
618.26	17.11
618.453	16.93
618.646	16.76
618.838	16.65
619.031	16.58
619.224	16.52
619.417	16.61
619.609	16.58
619.802	16.6
619.994	16.56
620.187	16.5
620.38	16.39
620.572	16.38
620.765	16.32
620.957	16.27
621.15	16.24
621.342	16.27
621.535	16.2
621.727	16.2
621.92	16.15
622.112	16.14
622.305	16.07
622.497	16.08
622.69	16.01
622.882	15.96
623.074	16
623.267	15.99
623.459	16.06
623.651	16.03
623.844	16.16
624.036	16.13
624.228	16.13
624.42	16.05
624.613	16.11
624.805	16.05
624.997	15.96
625.189	15.92
625.381	15.92
625.574	15.78
625.766	15.68
625.958	15.66
626.15	15.68
626.342	15.63
626.534	15.64
626.726	15.66
626.918	15.63
627.11	15.55
627.302	15.43
627.494	15.46
627.686	15.43
627.878	15.41
628.07	15.33
628.262	15.34
628.454	15.27
628.646	15.19
628.838	15.21
629.029	15.17
629.221	15.17
629.413	15.08
629.605	15
629.797	14.95
629.989	14.95
630.18	14.92
630.372	14.9
630.564	14.96
630.755	14.93
630.947	14.89
631.139	14.85
631.33	14.82
631.522	14.77
631.714	14.72
631.905	14.79
632.097	14.76
632.289	14.79
632.48	14.72
632.672	14.65
632.863	14.52
633.055	14.54
633.246	14.45
633.438	14.41
633.629	14.39
633.821	14.4
634.012	14.33
634.203	14.38
634.395	14.43
634.586	14.5
634.777	14.44
634.969	14.39
635.16	14.36
635.351	14.29
635.543	14.31
635.734	14.25
635.925	14.23
636.117	14.23
636.308	14.3
636.499	14.21
636.69	14.22
636.881	14.22
637.073	14.29
637.264	14.2
637.455	14.16
637.646	14.24
637.837	14.27
638.028	14.17
638.219	14.13
638.41	14.12
638.601	14.02
638.792	14.01
638.983	14.04
639.174	14.01
639.365	13.96
639.556	13.92
639.747	13.9
639.938	13.86
640.129	13.99
640.32	13.98
640.511	13.97
640.701	13.89
640.892	13.81
641.083	13.58
641.274	13.46
641.465	13.49
641.655	13.56
641.846	13.52
642.037	13.53
642.228	13.68
642.418	13.57
642.609	13.4
642.8	13.38
642.99	13.33
643.181	13.23
643.372	13.28
643.562	13.32
643.753	13.26
643.943	13.3
644.134	13.27
644.324	13.27
644.515	13.28
644.705	13.3
644.896	13.34
645.086	13.28
645.277	13.25
645.467	13.26
645.658	13.27
645.848	13.07
646.038	13.02
646.229	12.96
646.419	12.84
646.61	12.88
646.8	13
646.99	13.06
647.18	13.07
647.371	13.08
647.561	13.02
647.751	12.94
647.941	12.85
648.132	12.76
648.322	12.76
648.512	12.69
648.702	12.75
648.892	12.75
649.082	12.89
649.272	12.85
649.462	12.88
649.653	12.85
649.843	12.81
650.033	12.75
650.223	12.75
650.413	12.71
650.603	12.74
650.793	12.82
650.983	12.75
651.172	12.73
651.362	12.69
651.552	12.51
651.742	12.41
651.932	12.27
652.122	12.26
652.312	12.2
652.502	12.17
652.691	12.16
652.881	12.2
653.071	12.13
653.261	12.05
653.45	12.01
653.64	11.94
653.83	11.81
654.019	11.78
654.209	11.73
654.399	11.71
654.588	11.56
654.778	11.54
654.968	11.43
655.157	11.34
655.347	11.2
655.536	11.14
655.726	10.97
655.915	10.84
656.105	10.74
656.294	10.7
656.484	10.57
656.673	10.51
656.863	10.43
657.052	10.33
657.241	10.1
657.431	9.94
657.62	9.8
657.809	9.63
657.999	9.52
658.188	9.48
658.377	9.41
658.567	9.37
658.756	9.25
658.945	9.13
659.134	8.94
659.324	8.91
659.513	8.68
659.702	8.5
659.891	8.49
660.08	8.5
660.269	8.36
660.458	8.32
660.648	8.34
660.837	8.14
661.026	7.96
661.215	7.9
661.404	7.69
661.593	7.59
661.782	7.46
661.971	7.46
662.16	7.33
662.349	7.38
662.538	7.28
662.726	7.34
662.915	7.24
663.104	7.16
663.293	7.06
663.482	7.17
663.671	7.04
663.86	6.96
664.048	7
664.237	7.08
664.426	6.98
664.615	6.9
664.803	6.97
664.992	6.79
665.181	6.71
665.369	6.55
665.558	6.56
665.747	6.48
665.935	6.55
666.124	6.54
666.312	6.65
666.501	6.63
666.69	6.52
666.878	6.53
667.067	6.51
667.255	6.53
667.444	6.67
667.632	6.78
667.82	6.82
668.009	6.79
668.197	6.75
668.386	6.58
668.574	6.61
668.762	6.54
668.951	6.64
669.139	6.52
669.327	6.56
669.516	6.47
669.704	6.49
669.892	6.41
670.08	6.56
670.269	6.58
670.457	6.74
670.645	6.79
670.833	6.88
671.021	6.95
671.21	7.05
671.398	7.1
671.586	7.1
671.774	7.11
671.962	7.17
672.15	7.29
672.338	7.34
672.526	7.45
672.714	7.35
672.902	7.23
673.09	7.18
673.278	7.16
673.466	7.35
673.654	7.67
673.842	7.8
674.03	7.93
674.218	7.99
674.405	7.97
674.593	7.99
674.781	8.11
674.969	8.04
675.157	8.12
675.344	8.06
675.532	7.99
675.72	8.03
675.908	8.17
676.095	8.15
676.283	8.2
676.471	8.38
676.658	8.48
676.846	8.54
677.033	8.71
677.221	8.83
677.409	8.76
677.596	8.77
677.784	8.76
677.971	8.84
678.159	8.88
678.346	8.96
678.534	9.05
678.721	9.06
678.909	9.14
679.096	9.33
679.283	9.51
679.471	9.55
679.658	9.84
679.846	9.85
680.033	9.91
680.22	9.92
680.408	9.99
680.595	9.91
680.782	10.03
680.969	10.02
681.157	10.04
681.344	10.25
681.531	10.39
681.718	10.28
681.905	10.28
682.093	10.39
682.28	10.34
682.467	10.48
682.654	10.72
682.841	10.94
683.028	11.01
683.215	11.18
683.402	11.26
683.589	11.33
683.776	11.45
683.963	11.59
684.15	11.71
684.337	11.95
684.524	12.16
684.711	12.35
684.898	12.67
685.085	12.81
685.271	12.81
685.458	12.95
685.645	13.06
685.832	13.21
686.019	13.48
686.205	13.79
686.392	14.06
686.579	14.41
686.766	14.62
686.952	14.73
687.139	15.06
687.326	15.29
687.512	15.49
687.699	15.84
687.886	16.19
688.072	16.41
688.259	16.81
688.445	17.26
688.632	17.68
688.818	18.31
689.005	18.81
689.191	19.37
689.378	19.86
689.564	20.26
689.751	20.61
689.937	21.01
690.124	21.3
690.31	21.55
690.496	22.19
690.683	22.75
690.869	23.23
691.055	23.93
691.242	24.72
691.428	25.15
691.614	25.76
691.8	26.36
691.987	26.86
692.173	27.23
692.359	27.76
692.545	28.45
692.731	29.13
692.918	29.61
693.104	30.45
693.29	31.19
693.476	31.75
693.662	32.47
693.848	33.36
694.034	33.97
694.22	34.71
694.406	35.51
694.592	36.29
694.778	36.85
694.964	37.47
695.15	38
695.336	38.35
695.522	38.88
695.708	39.66
695.894	40.45
696.08	41.42
696.265	42.13
696.451	42.78
696.637	43.42
696.823	44.07
697.009	44.53
697.194	45.23
697.38	46.14
697.566	46.75
697.751	47.45
697.937	47.97
698.123	48.54
698.308	49.15
698.494	49.73
698.68	50.35
698.865	51.13
699.051	51.62
699.236	52.15
699.422	52.86
699.607	53.35
699.793	53.95
699.978	54.95
700.164	55.36
700.349	56.16
700.535	56.79
700.72	57.2
700.906	58.03
701.091	58.29
701.276	58.62
701.462	59.21
701.647	59.84
701.832	60.13
702.018	60.88
702.203	61.11
702.388	61.47
702.573	61.87
702.759	61.98
702.944	62.79
703.129	63.5
703.314	64
703.499	64.8
703.684	65.15
703.87	65.37
704.055	65.63
704.24	65.98
704.425	66.04
704.61	66.35
704.795	66.48
704.98	66.94
705.165	67.1
705.35	67.41
705.535	67.92
705.72	68.66
705.905	68.96
706.09	69.03
706.275	69.41
706.459	69.92
706.644	69.9
706.829	70.26
707.014	71.16
707.199	71.38
707.384	71.66
707.568	71.94
707.753	72.53
707.938	72.79
708.123	73.3
708.307	73.66
708.492	74.02
708.677	73.68
708.861	73.89
709.046	73.78
709.231	74.17
709.415	74.16
709.6	74.75
709.784	74.5
709.969	74.75
710.153	74.96
710.338	75.25
710.522	75.74
710.707	76.56
710.891	76.74
711.076	76.48
711.26	76.68
711.445	76.2
711.629	76.48
711.813	76.6
711.998	76.74
712.182	76.78
712.366	77.13
712.551	76.95
712.735	77.44
712.919	77.45
713.103	77.83
713.288	78.22
713.472	78.61
713.656	78.52
713.84	78.73
714.024	79.01
714.208	79.04
714.393	79
714.577	78.83
714.761	79.07
714.945	79.03
715.129	79.2
715.313	79.59
715.497	80.25
715.681	80.95
715.865	81.01
716.049	81.13
716.233	81.16
716.417	81.27
716.601	80.82
716.785	81.45
716.968	81.25
717.152	81.33
717.336	81.28
717.52	81.63
717.704	81.41
717.888	81.9
718.071	81.65
718.255	82.23
718.439	81.64
718.622	81.91
718.806	81.92
718.99	82.64
719.174	82.28
719.357	82.58
719.541	82.58
719.724	82.82
719.908	82.32
720.092	82.48
720.275	82.8
720.459	82.92
720.642	83.1
720.826	83.21
721.009	83.48
721.193	83.61
721.376	83.31
721.559	83.46
721.743	83.68
721.926	83.41
722.11	83.45
722.293	83.9
722.476	83.93
722.66	83.94
722.843	84.23
723.026	84.81
723.21	84.54
723.393	84.27
723.576	84.66
723.759	84.91
723.942	84.36
724.126	84.92
724.309	85.42
724.492	85.1
724.675	84.85
724.858	85.71
725.041	85.64
725.224	85.45
725.407	85.45
725.59	85.92
725.774	85.7
725.957	85.78
726.14	86.27
726.322	86.38
726.505	86.31
726.688	86.4
726.871	86.78
727.054	86.45
727.237	87.06
727.42	87.19
727.603	87.43
727.786	86.71
727.968	86.37
728.151	86.33
728.334	86.62
728.517	87.3
728.699	88.77
728.882	89.46
729.065	89.3
729.248	89.27
729.43	88.27
729.613	88.09
729.796	88.03
729.978	88.8
730.161	88.6
730.343	89.23
730.526	89.21
730.708	89.49
730.891	88.83
731.073	89.18
731.256	88.54
731.438	88.84
731.621	89.55
731.803	90.13
731.986	90.57
732.168	90.57
732.35	90.08
732.533	89.55
732.715	89.16
732.898	88.77
733.08	89.33
733.262	89.96
733.444	89.92
733.627	90.32
733.809	90.25
733.991	90.83
734.173	90.9
734.355	90.88
734.538	90.85
734.72	91.24
734.902	91.58
735.084	90.48
735.266	91.5
735.448	91.9
735.63	91.89
735.812	92.2
735.994	93.25
736.176	93.15
736.358	92.68
736.54	91.79
736.722	91.18
736.904	91.62
737.086	91.1
737.268	91.5
737.45	92.92
737.632	92.43
737.814	92.19
737.995	92.02
738.177	91.87
738.359	91.42
738.541	92.31
738.723	92.55
738.904	92.97
739.086	92.67
739.268	92.83
739.449	91.87
739.631	90.87
739.813	91.04
739.994	92.2
740.176	92.26
740.358	93.2
740.539	94.85
740.721	94.17
740.902	93.76
741.084	93.75
741.265	93.57
741.447	92.83
741.628	94.65
741.81	93.86
741.991	94.36
742.172	95.1
742.354	93.77
742.535	92.21
742.717	92.63
742.898	92.35
743.079	91.71
743.261	93.93
743.442	94.83
743.623	96.55
743.804	96.28
743.986	96.89
744.167	95.29
744.348	94.92
744.529	93.73
744.71	94.44
744.891	94.38
745.073	95.94
745.254	96.55
745.435	96.16
745.616	95.21
745.797	93.93
745.978	94.1
746.159	94.17
746.34	93.9
746.521	94.41
746.702	94.82
746.883	93.09
747.064	91.47
747.245	92.33
747.426	93.5
747.606	93.67
747.787	94.21
747.968	95.08
748.149	95.05
748.33	94.34
748.51	95.6
748.691	95
748.872	94.59
749.053	94.81
749.233	94.79
749.414	93.3
749.595	95.4
749.775	95.27
749.956	94.93
750.137	94.73
750.317	95.9
750.498	94.41
750.678	95.25
750.859	92.98
751.04	93.61
751.22	92.32
751.4	92.71
751.581	91.96
751.761	94.36
751.942	94.71
752.122	95.25
752.303	92.92
752.483	93.82
752.663	93.62
752.844	92.13
753.024	93.62
753.204	95.04
753.385	93.79
753.565	93.25
753.745	95.05
753.925	93.71
754.106	93.78
754.286	95.28
754.466	96.75
754.646	96.82
754.826	95.87
755.006	96.1
755.187	94.93
755.367	93.13
755.547	93.27
755.727	95.38
755.907	94.18
756.087	94.51
756.267	95.09
756.447	93.64
756.627	90.26
756.807	89.73
756.987	90.02
757.167	90.67
757.346	91.36
757.526	93.9
757.706	96.12
757.886	95.05
758.066	96.39
758.246	96.6
758.425	96.21
758.605	95.27
758.785	97.38
758.965	95.36
759.144	94.34
759.324	94.92
759.504	95.31
759.683	94.83
759.863	94.58
760.043	94.54
760.222	92.42
760.402	91.62
760.581	91.02
760.761	91.62
760.94	91.38
761.12	94.99
761.299	94.96
761.479	94.51
761.658	93.68
761.838	93.22
762.017	91.2
762.197	92.3
762.376	93.13
762.555	93.99
762.735	93.6
762.914	94.67
763.093	94.58
763.273	93.67
763.452	92.18
763.631	93.06
763.81	91.96
763.99	92.12
764.169	90.71
764.348	90.8
764.527	89.66
764.706	89.18
764.885	87.45
765.064	89.7
765.243	89.91
765.423	90.69
765.602	92.36
765.781	94.59
765.96	91.21
766.139	91.38
766.318	91.24
766.497	91.13
766.676	90.36
766.854	93.64
767.033	94.94
767.212	95.06
767.391	92.73
767.57	93.41
767.749	93.02
767.928	91.95
768.106	90.82
768.285	89.71
768.464	87.49
768.643	87.36
768.821	85.33
769	87.6
769.179	89.53
769.357	91.03
769.536	90.35
769.715	92.62
769.893	91.06
770.072	89.44
770.25	88.11
770.429	88.54
770.607	89.19
770.786	89.2
770.964	89.55
771.143	91.77
771.321	92.83
771.5	92.83
771.678	94.65
771.857	96.45
772.035	95.33
772.213	93.36
772.392	90.02
772.57	90.05
772.748	89.08
772.927	87.68
773.105	88.18
773.283	89.16
773.461	88.14
773.64	86.92
773.818	87.5
773.996	88.39
774.174	89.22
774.352	89.8
774.531	91.11
774.709	89.7
774.887	89.84
775.065	90.55
775.243	88.75
775.421	88.04
775.599	88.76
775.777	87.68
775.955	86.13
776.133	85.63
776.311	86.73
776.489	88.41
776.667	88.34
776.844	91.1
777.022	91.25
777.2	89.8
777.378	88.58
777.556	86.4
777.734	84.66
777.911	85.87
778.089	84.6
778.267	84.65
778.445	82.99
778.622	83.09
778.8	83.56
778.978	85.26
779.155	84.29
779.333	87.17
779.511	84.19
779.688	83.78
779.866	83.66
780.043	83.37
780.221	80.48
780.398	81.6
780.576	80.87
780.753	81.35
780.931	81.94
781.108	85.65
781.286	89.21
781.463	88.35
781.64	85.88
781.818	91.03
781.995	91.85
782.172	89.04
782.35	90.95
782.527	94.72
782.704	89.49
782.882	86.88
783.059	86.5
783.236	80.69
783.413	78.93
783.59	77.51
783.768	77.29
783.945	78.71
784.122	84.35
784.299	83.34
784.476	82.46
784.653	84.43
784.83	85.31
785.007	81.02
785.184	81.23
785.361	88.54
785.538	90.16
785.715	91.07
785.892	98.72
786.069	99.19
786.246	97.18
786.423	96.64
786.6	92.2
786.776	86.85
786.953	85.61
787.13	86.34
787.307	80.17
787.484	79.99
787.66	81.47
787.837	85.25
788.014	84.84
788.191	92.23
788.367	97.24
788.544	96.91
788.721	97.62
788.897	90.4
789.074	88.95
789.25	84.88
789.427	83.35
789.603	77.23
789.78	83.62
789.956	83.26
790.133	83.84
790.309	85.35
790.486	86.49
790.662	87.38
790.839	81.37
791.015	80.22
791.192	78.62
791.368	84.78
791.544	80.65
791.721	87.95
791.897	90.62
792.073	90.97
792.249	82.17
792.426	83.42
792.602	84.46
792.778	82.32
792.954	82.16
793.13	87.44
793.307	86.04
793.483	83.03
793.659	87.69
793.835	85.75
794.011	86.21
794.187	85.76
794.363	81.48
794.539	80.11
794.715	82.72
794.891	80.7
795.067	80.92
795.243	88.02
795.419	89.72
795.595	88.34
795.771	87.27
795.947	85.85
796.122	78.62
796.298	81.92
796.474	81.01
796.65	79.06
796.826	81.35
797.001	83.81
797.177	75.61
797.353	71.14
797.529	75.94
797.704	76.75
797.88	79.85
798.056	82.22
798.231	89.99
798.407	88.74
798.582	88.61
798.758	91.57
798.934	92.6
799.109	90.5
799.285	94.63
799.46	87.94
799.636	85.24
799.811	86.17
799.986	82.71
800.162	87.08
800.337	97.38
800.513	93.86
800.688	90.49
800.863	99.69
801.039	97.19
801.214	100.39
801.389	105.05
801.565	96.74
801.74	94.97
801.915	85.23
802.09	81.56
802.265	80.56
802.441	88.64
802.616	81.71
802.791	83.33
802.966	84.49
803.141	86.97
803.316	82.6
803.491	85.93
803.666	88.25
803.841	86.2
804.016	85.79
804.191	92.2
804.366	95.63
804.541	93.85
804.716	93.71
804.891	83.35
805.066	84.21
805.241	75.43
805.416	77.41
805.591	75.05
805.765	78.13
805.94	74.26
806.115	83.04
806.29	81.7
806.464	79.71
806.639	80.16
806.814	77.47
806.989	70.14
807.163	69.57
807.338	72.24
807.512	68.39
807.687	69.18
807.862	71.58
808.036	75.97
808.211	68.26
808.385	66.45
808.56	64.27
808.734	63.76
808.909	64.17
809.083	68.4
809.258	72.11
809.432	74.87
809.606	70.95
809.781	68.64
809.955	67.41
810.13	69.24
810.304	63.63
810.478	61.42
810.652	69.59
810.827	72.35
811.001	76.25
811.175	87.94
811.349	98.53
811.524	84.35
811.698	87.46
811.872	88.36
812.046	83.67
812.22	84.54
812.394	82.77
812.568	91.11
812.742	85.79
812.916	88.11
813.09	91.13
813.264	102.9
813.438	99.06
813.612	98.85
813.786	95.57
813.96	93.87
814.134	94.01
814.308	84.19
814.482	81.79
814.656	89.23
814.83	88.73
815.003	75.13
815.177	81.2
815.351	93.85
815.525	86.32
815.698	90.13
815.872	94.31
816.046	100.47
816.219	91.57
816.393	96.14
816.567	100.59
816.74	103.68
816.914	85.96
817.088	90.6
817.261	84.78
817.435	76.82
817.608	74.76
817.782	79.69
817.955	79.81
818.129	87.3
818.302	90.3
818.475	89.84
818.649	98.87
818.822	90.08
818.996	98.31
819.169	88.7
819.342	88.42
819.516	81.94
819.689	91.68
819.862	83.3
820.035	81.7
820.209	77.97
820.382	72.75
820.555	73.33
820.728	68.33
820.901	69.62
821.075	79.86
821.248	77.66
821.421	76.93
821.594	86.84
821.767	100.32
821.94	91.91
822.113	109.35
822.286	91.25
822.459	95.05
822.632	73.81
822.805	85.53
822.978	72.42
823.151	105.18
823.324	94.3
823.496	97.35
823.669	88.99
823.842	80.13
824.015	78.75
824.188	70.19
824.361	75.95
824.533	65.84
824.706	94
824.879	81.54
825.051	87.32
825.224	80.67
825.397	71.24
825.569	55.34
825.742	55.85
825.915	48.9
826.087	58.74
826.26	65.82
826.432	61.88
826.605	74.69
826.777	69.46
826.95	72.87
827.122	87.73
827.295	104.83
827.467	101.81
827.64	91.59
827.812	83.67
827.984	101.53
828.157	75.04
828.329	73.28
828.501	80.94
828.674	88.14
828.846	69.94
829.018	80.69
829.19	70.88
829.363	83.71
829.535	77.68
829.707	81.98
829.879	74.69
830.051	69.52
830.223	67.64
830.395	62.4
830.568	55.81
830.74	55.11
830.912	63.97
831.084	75.37
831.256	57.54
831.428	72.98
831.6	61.83
831.772	43.38
831.943	21.59
832.115	17.58
832.287	22.22
832.459	38.22
832.631	50.22
832.803	64.4
832.975	82.54
833.146	91.21
833.318	86.42
833.49	98.13
833.662	79.16
833.833	80.72
834.005	75.91
834.177	63.52
834.348	55.03
834.52	66.67
834.692	76.33
834.863	56.77
835.035	62.79
835.206	34.63
835.378	38.64
835.549	33.01
835.721	58.41
835.892	58.14
836.064	79.68
836.235	69.21
836.407	79.33
836.578	71.73
836.749	79.78
836.921	58.15
837.092	68.08
837.264	47.72
837.435	53.66
837.606	37.48
837.777	61.88
837.949	64.81
838.12	65.53
838.291	58.26
838.462	79.12
838.633	72.04
838.805	67.93
838.976	65.83
839.147	52.66
839.318	48.1
839.489	64.87
839.66	67.24
839.831	71.22
840.002	82.49
840.173	70.21
840.344	28.63
840.515	20.27
840.686	25.66
840.857	24.65
841.028	13.24
841.199	46.21
841.369	46.52
841.54	64.82
841.711	61.02
841.882	78.45
842.053	72.6
842.223	73.75
842.394	69.68
842.565	58.9
842.736	90.33
842.906	94.51
843.077	93.71
843.248	101.52
843.418	128.58
843.589	65.71
843.759	81.42
843.93	85.79
844.101	68.89
844.271	80.74
844.442	97.62
844.612	82.09
844.783	74.64
844.953	67.69
845.123	59.03
845.294	74.45
845.464	84.37
845.635	66.51
845.805	77.07
845.975	71.11
846.146	44.41
846.316	45.41
846.486	57.53
846.656	58.03
846.827	73.4
846.997	63.48
847.167	75.86
847.337	49.73
847.507	62.89
847.677	58.7
847.848	111.35
848.018	103.71
848.188	144.05
848.358	120.22
848.528	67.07
848.698	56.46
848.868	45.27
849.038	32.17
849.208	39.41
849.378	82.81
849.548	50.26
849.718	64.12
849.887	79.92
850.057	82.01
850.227	88.81
850.397	110.22
850.567	120.82
850.737	98.28
850.906	61.55
851.076	49.99
851.246	56.31
851.415	42.29
851.585	11.29
851.755	41.31
851.924	38.54
852.094	26.39
852.264	16.07
852.433	44.31
852.603	52.37
852.772	64.89
852.942	45.69
853.111	54.74
853.281	39.34
853.45	33.47
853.62	18.94
853.789	17.91
853.959	13.26
854.128	7.31
854.297	14.13
854.467	12.34
854.636	53.05
854.805	63.04
854.975	102.61
855.144	162.36
855.313	92.8
855.482	81.21
855.652	81.69
855.821	85.07
855.99	96.36
856.159	174.75
856.328	154.7
856.497	154.63
856.667	121.03
856.836	114.35
857.005	76.24
857.174	94.58
857.343	127.14
857.512	216.74
857.681	105.43
857.85	106.04
858.019	79.47
858.188	87.28
858.356	86.73
858.525	79.87
858.694	68.87
858.863	93.82
859.032	77.2
859.201	76.85
859.369	108.1
859.538	93.2
859.707	67.42
859.876	80.09
860.044	74.82
860.213	54.39
860.382	74.66
860.55	110.04
860.719	105.16
860.888	83.74
861.056	103.98
861.225	85.77
861.393	83.64
861.562	88.56
861.73	103.96
861.899	77.31
862.067	83.15
862.236	105.64
862.404	87.73
862.572	119.26
862.741	98.54
862.909	82.23
863.078	28.65
863.246	46.47
863.414	63.49
863.582	74.77
863.751	74.62
863.919	79.75
864.087	76.72
864.255	1.46
864.424	9.51
864.592	18.47
864.76	14.06
864.928	26.03
865.096	57.29
865.264	53.66
865.432	72.73
865.6	58.71
865.768	37.71
865.936	39.2
866.104	34.42
866.272	22.75
866.44	29.27
866.608	47.44
866.776	61.48
866.944	103.05
867.112	100.05
867.28	75.75
867.448	64.77
867.615	275.04
867.783	125.11
867.951	31.32
868.119	83.84
868.286	97.84
868.454	41.6
868.622	27.39
868.789	22.46
868.957	26.37
869.125	-30.03
869.292	-7.71
869.46	14.23
869.627	41.23
869.795	42.64
869.963	45.04
870.13	41.77
870.298	45.07
870.465	30.53
870.632	23.31
870.8	29.4
870.967	21.3
871.135	19.94
871.302	26
871.469	43.07
871.637	41.1
871.804	87.98
871.971	35.42
872.139	44.43
872.306	34.28
872.473	24.74
872.64	7.28
872.807	31.16
872.975	54.48
873.142	97.59
873.309	3023.19
873.476	977.94
873.643	276.91
873.81	131.35
873.977	115.37
874.144	106.37
874.311	78.79
874.478	85.54
874.645	84.96
874.812	84.04
874.979	51.23
875.146	54.57
875.313	37.25
875.48	-237.79
875.647	50.15
875.813	233.78
875.98	-397.98
876.147	-98.37
876.314	129.54
876.481	12.11
876.647	59.51
876.814	89.86
876.981	215.67
877.147	155.92
877.314	119.37
877.481	117.37
877.647	94.54
877.814	57.63
877.98	23.84
878.147	24.2
878.314	44.3
878.48	70.01
878.647	138.95
878.813	1496.12
878.979	290.15
879.146	196.11
879.312	197.43
879.479	98.89
879.645	112.36
879.811	63.69
879.978	71.54
880.144	58.05
880.31	79.46
880.477	35.03
880.643	76.11
880.809	100.75
880.975	5121.21
881.142	131.56
881.308	-925.33
881.474	175.86
881.64	81.97
881.806	65.28
881.972	96.94
882.138	102.64
882.304	119.74
882.47	137.93
882.636	59.6
882.802	159.89
882.968	357.39
883.134	137.24
883.3	89.99
883.466	117.86
883.632	103.08
883.798	62.07
883.964	48.65
884.129	87.36
884.295	91.87
884.461	84.87
884.627	94.63
884.793	92.21
884.958	106.56
885.124	76.29
885.29	59.18
885.455	120.97
885.621	98.33
885.787	86.79
885.952	29.77
886.118	13.72
886.283	-235.09
886.449	53.73
886.614	16.03
886.78	59.99
886.945	102.51
887.111	7.86
887.276	69.47
887.442	91.97
887.607	53.57
887.773	23.53
887.938	90.77
888.103	8.3
888.269	-5.85
888.434	-11.44
888.599	4.36
888.764	49.01
888.93	69.77
889.095	103.77
889.26	228.2
889.425	490.84
889.59	-636.71
889.756	662.09
889.921	181.63
890.086	225.71
890.251	185.73
890.416	134.9
890.581	110.37
890.746	140.97
890.911	105.4
891.076	94.45
891.241	59.39
891.406	63.15
891.571	55.54
891.736	34.27
891.901	21.99
892.065	96.82
892.23	131.68
892.395	74.44
892.56	43.46
892.725	112.06
892.889	78.01
893.054	22.51
893.219	-5.44
893.384	61.17
893.548	63.62
893.713	41.98
893.878	4.34
