Data from Ofav_PS_Phys_352_Reflection_3.txt Node
Date: Thu Jul 29 18:19:04 EDT 2021
User: USUARIO
Spectrometer: FLMT01687
Trigger mode: 0
Integration Time (sec): 9.010000E-1
Scans to average: 2
Electric dark correction enabled: true
Nonlinearity correction enabled: false
Boxcar width: 2
XAxis mode: Wavelengths
Number of Pixels in Spectrum: 3648
>>>>>Begin Spectral Data<<<<<
179.494	18.41
179.716	-18.47
179.937	-82.99
180.158	534.46
180.38	104.67
180.601	-186.35
180.823	-64.6
181.044	-71.8
181.265	-10.09
181.486	-374.01
181.708	74.53
181.929	145.33
182.15	5247.62
182.372	-60.08
182.593	-22.78
182.814	-71.05
183.035	-667.35
183.257	175.02
183.478	117.79
183.699	108.96
183.92	91.78
184.141	104.17
184.363	113.41
184.584	100.02
184.805	78.44
185.026	88.29
185.247	99.37
185.468	86.73
185.689	104.06
185.91	180.86
186.132	196.76
186.353	98.78
186.574	96.9
186.795	82.5
187.016	54.92
187.237	31.95
187.458	51.44
187.679	44.19
187.9	57.24
188.121	49.68
188.342	77.81
188.563	69.94
188.784	83.58
189.005	78.89
189.226	83.04
189.447	91.98
189.667	88.01
189.888	81.83
190.109	125.21
190.33	183.3
190.551	90.66
190.772	66.54
190.993	38.64
191.214	9.59
191.434	13.99
191.655	23.36
191.876	19.88
192.097	19.79
192.318	55.82
192.538	73.28
192.759	97.79
192.98	80.46
193.201	73.96
193.421	54.09
193.642	44.52
193.863	3.64
194.083	-12.04
194.304	5.69
194.525	11.13
194.745	10.32
194.966	19.78
195.187	20.67
195.407	4.92
195.628	-1.68
195.848	34.13
196.069	97.21
196.29	77.58
196.51	74.41
196.731	73.05
196.951	50.25
197.172	17
197.392	26.84
197.613	36
197.833	22.98
198.054	29.21
198.274	54.43
198.495	75.33
198.715	68.1
198.936	91.43
199.156	101.55
199.377	104.1
199.597	107.38
199.817	99.41
200.038	83.07
200.258	71.72
200.479	64.58
200.699	17.94
200.919	9.93
201.14	12.14
201.36	35.25
201.58	40.46
201.801	58.51
202.021	96.47
202.241	89.4
202.461	87.96
202.682	67.53
202.902	75.5
203.122	42.41
203.342	64.9
203.563	81.64
203.783	98.46
204.003	83.89
204.223	132.93
204.443	112.46
204.663	114.49
204.884	107.25
205.104	104.53
205.324	63.06
205.544	42.53
205.764	22.81
205.984	25.31
206.204	39.73
206.424	47.28
206.644	58.15
206.864	60.24
207.084	56.67
207.304	55.76
207.525	57.61
207.745	46
207.964	56.44
208.184	36.87
208.404	46.97
208.624	55.02
208.844	43.61
209.064	43.73
209.284	54.17
209.504	63.04
209.724	72.28
209.944	86.88
210.164	93.07
210.384	77.98
210.604	58.3
210.823	52.58
211.043	55.35
211.263	56.7
211.483	61.13
211.703	60
211.922	71.04
212.142	61.08
212.362	54.23
212.582	53.11
212.801	63.2
213.021	36.63
213.241	36.04
213.461	33.94
213.68	24.19
213.9	24.71
214.12	46.99
214.339	44.46
214.559	38.82
214.779	46.16
214.998	20.47
215.218	7.25
215.438	12.73
215.657	17.92
215.877	29.92
216.096	40.71
216.316	44.72
216.535	33.74
216.755	24.69
216.974	-3.7
217.194	-0.07
217.413	5.1
217.633	31.91
217.852	19.03
218.072	8.9
218.291	25.9
218.511	55.55
218.73	59.96
218.95	58.24
219.169	66.72
219.389	44.07
219.608	23.91
219.827	5.58
220.047	17
220.266	6.62
220.485	30.91
220.705	29.84
220.924	17.02
221.143	7.09
221.363	13.87
221.582	-20.8
221.801	-96.14
222.021	-63.62
222.24	-47.44
222.459	-11.13
222.678	21.55
222.897	26.47
223.117	42.48
223.336	77.07
223.555	44.62
223.774	73.48
223.993	57.86
224.213	68.91
224.432	49.58
224.651	53.07
224.87	27.52
225.089	42.51
225.308	37.66
225.527	62.93
225.746	60.29
225.965	83.39
226.184	67.49
226.404	55.62
226.623	37.08
226.842	77.06
227.061	87.61
227.28	85.98
227.499	111.5
227.718	132.94
227.936	55.79
228.155	50.57
228.374	28.29
228.593	27.82
228.812	14.51
229.031	23.37
229.25	33.59
229.469	59.26
229.688	36.75
229.907	63.56
230.125	58.1
230.344	59.56
230.563	54.97
230.782	75.33
231.001	45.16
231.22	56.71
231.438	46.06
231.657	40.13
231.876	44.17
232.095	24.82
232.313	15.64
232.532	18.88
232.751	3.6
232.969	8.55
233.188	54.88
233.407	52.73
233.625	40.99
233.844	44.43
234.063	59.01
234.281	27.96
234.5	41.37
234.719	49.99
234.937	77.81
235.156	80.44
235.374	74.53
235.593	77.68
235.811	84.86
236.03	60.29
236.249	52.11
236.467	56.04
236.686	58.45
236.904	57.41
237.123	59.93
237.341	43.12
237.559	44.62
237.778	59.22
237.996	50.17
238.215	45.79
238.433	71.1
238.652	72.35
238.87	59.31
239.088	66.28
239.307	58.88
239.525	47.48
239.743	39.57
239.962	39.88
240.18	36.8
240.398	41.53
240.617	29.08
240.835	18.67
241.053	7.48
241.271	19.46
241.49	42.42
241.708	48.92
241.926	64.98
242.144	56.14
242.363	43.84
242.581	24.23
242.799	31
243.017	28.44
243.235	45.91
243.453	53.26
243.672	49.53
243.89	48.02
244.108	39.19
244.326	31.37
244.544	8.2
244.762	21.64
244.98	20.02
245.198	30.22
245.416	14.97
245.634	34.86
245.852	50.38
246.07	58.88
246.288	53.26
246.506	59.88
246.724	53.4
246.942	37.95
247.16	37.75
247.378	29.04
247.596	26.99
247.814	32.71
248.032	30.78
248.25	18.03
248.468	23.8
248.685	32.21
248.903	25.07
249.121	23.48
249.339	14.71
249.557	26.03
249.775	37.9
249.992	26.34
250.21	49.79
250.428	72.62
250.646	63.24
250.863	49.13
251.081	68.9
251.299	67.38
251.517	53.7
251.734	69.09
251.952	63.02
252.17	44.13
252.387	28.78
252.605	46.78
252.823	37.43
253.04	46.9
253.258	59.32
253.475	62.5
253.693	53.34
253.911	67.67
254.128	89.25
254.346	64.43
254.563	70.82
254.781	43.64
254.998	20.32
255.216	-12.6
255.433	20.89
255.651	13.2
255.868	25.07
256.086	27.49
256.303	43.97
256.521	43.38
256.738	40.05
256.956	44.47
257.173	38.49
257.39	22.56
257.608	23.82
257.825	29.69
258.043	18.16
258.26	16.43
258.477	15.66
258.695	-11.82
258.912	-14.54
259.129	-8.49
259.346	-4.31
259.564	6.04
259.781	25.85
259.998	18.59
260.216	21.22
260.433	48.36
260.65	37.57
260.867	40.77
261.084	47.72
261.302	49.77
261.519	11.21
261.736	34.2
261.953	41.18
262.17	36.59
262.387	40.47
262.604	45.06
262.822	33.38
263.039	38.53
263.256	38.37
263.473	38.86
263.69	36.72
263.907	37.98
264.124	27.36
264.341	31.08
264.558	24.43
264.775	6.38
264.992	19.47
265.209	32.91
265.426	28.86
265.643	41.52
265.86	56.22
266.077	50.93
266.294	38.35
266.51	27.76
266.727	26.22
266.944	29.2
267.161	16.38
267.378	15.75
267.595	37.61
267.812	34.97
268.028	28.58
268.245	49.46
268.462	51.26
268.679	52.35
268.896	47.85
269.112	39.51
269.329	42.25
269.546	51.15
269.763	53.54
269.979	54.27
270.196	63.69
270.413	61.97
270.629	63.92
270.846	60.86
271.063	60.92
271.279	81.2
271.496	71.68
271.712	51.17
271.929	32.79
272.146	25.38
272.362	-10.62
272.579	17.83
272.795	35.66
273.012	51.66
273.228	48.31
273.445	55.7
273.661	32.99
273.878	15.58
274.094	35.62
274.311	39.65
274.527	45.18
274.744	58.99
274.96	52.83
275.177	35.18
275.393	29.32
275.609	29.92
275.826	6.86
276.042	26.02
276.259	4.81
276.475	21.59
276.691	30.69
276.908	23.36
277.124	6.26
277.34	22.5
277.557	8.68
277.773	-6.86
277.989	20.13
278.205	42.79
278.422	28.43
278.638	16.81
278.854	19.8
279.07	21.14
279.286	-14.13
279.503	6.82
279.719	30.38
279.935	33.05
280.151	15.16
280.367	45.13
280.583	63.56
280.799	46.73
281.016	48.11
281.232	60.14
281.448	46.69
281.664	43.94
281.88	46.86
282.096	52.79
282.312	50.08
282.528	48.03
282.744	46.3
282.96	46.52
283.176	37.45
283.392	41.12
283.608	52
283.824	42.23
284.04	42.21
284.256	62.66
284.471	69.7
284.687	71.74
284.903	76.45
285.119	70.22
285.335	45.53
285.551	39.96
285.767	39.45
285.982	39.42
286.198	31.94
286.414	32.24
286.63	36.41
286.846	29.48
287.061	21
287.277	33.64
287.493	18.09
287.709	13.69
287.924	25.52
288.14	33.86
288.356	28.66
288.571	37.07
288.787	28.1
289.003	25.39
289.218	21.96
289.434	22.84
289.65	29.76
289.865	36.65
290.081	23.32
290.296	25.5
290.512	18.62
290.727	26.02
290.943	18.84
291.159	29.93
291.374	40.92
291.59	45.46
291.805	31.91
292.021	45.24
292.236	42.65
292.451	17.47
292.667	25.72
292.882	30.24
293.098	32.24
293.313	25.71
293.529	40.38
293.744	13.18
293.959	5.83
294.175	23.41
294.39	31.19
294.605	26.52
294.821	38.08
295.036	52.63
295.251	34.03
295.467	21.08
295.682	23.98
295.897	23.08
296.112	0.84
296.328	4.35
296.543	3.68
296.758	-6.14
296.973	-10.03
297.188	19.12
297.404	11.66
297.619	39.25
297.834	28.38
298.049	40.85
298.264	29.47
298.479	54.29
298.694	39.78
298.909	39.5
299.125	34.11
299.34	40.19
299.555	14.29
299.77	37.28
299.985	42.88
300.2	60
300.415	49.79
300.63	53.63
300.845	58.52
301.06	66.59
301.275	59.43
301.49	47.32
301.704	39.05
301.919	27.47
302.134	24.05
302.349	24.43
302.564	37.81
302.779	32.96
302.994	34.65
303.209	42.01
303.423	43.05
303.638	25.19
303.853	35.32
304.068	37.9
304.283	38.33
304.497	40.56
304.712	26.15
304.927	34.8
305.142	29.43
305.356	8.6
305.571	13.42
305.786	35.37
306	6.43
306.215	18.58
306.43	25.65
306.644	-1.34
306.859	4.71
307.074	29.97
307.288	21.01
307.503	53.45
307.717	58.05
307.932	41.62
308.147	57.11
308.361	42.64
308.576	27.51
308.79	10.51
309.005	48.2
309.219	32.99
309.434	49.74
309.648	44.18
309.863	63.28
310.077	35.75
310.292	48.81
310.506	25.62
310.72	46.09
310.935	12.08
311.149	13.58
311.364	17.59
311.578	30.06
311.792	-4.33
312.007	30.13
312.221	34.11
312.435	13.85
312.649	8.93
312.864	90.3
313.078	13.98
313.292	-0.42
313.507	42.1
313.721	50.29
313.935	19.82
314.149	36.89
314.363	50.71
314.578	33.32
314.792	44.24
315.006	58.42
315.22	42.98
315.434	43.54
315.648	48.33
315.862	40.84
316.077	21.51
316.291	35.81
316.505	40.86
316.719	40.15
316.933	32.87
317.147	53.63
317.361	44.46
317.575	38.81
317.789	32.65
318.003	41.5
318.217	42.36
318.431	37.23
318.645	28.15
318.859	30.95
319.073	19.05
319.287	4.5
319.5	4.19
319.714	28.93
319.928	35.65
320.142	60.35
320.356	71.05
320.57	69.86
320.784	62.39
320.997	45.66
321.211	26.13
321.425	26.45
321.639	19.57
321.853	22.19
322.066	19.89
322.28	20.1
322.494	22.01
322.707	32.96
322.921	26.04
323.135	35.95
323.349	38.87
323.562	16.48
323.776	-3.13
323.989	-8.27
324.203	2.25
324.417	0.14
324.63	7.52
324.844	27.24
325.057	29.83
325.271	13.83
325.485	20.68
325.698	25.81
325.912	16.6
326.125	28.02
326.339	41.76
326.552	43.66
326.766	55.82
326.979	67.06
327.193	74.55
327.406	71.9
327.619	62.39
327.833	53.07
328.046	50.14
328.26	43.61
328.473	23.46
328.686	15.8
328.9	9.46
329.113	-17.03
329.326	-23.82
329.54	-3.3
329.753	-12.6
329.966	-8.14
330.179	9.61
330.393	16.28
330.606	16.67
330.819	37.65
331.032	42.97
331.246	35.67
331.459	19.85
331.672	13.56
331.885	11.62
332.098	13.95
332.311	21.09
332.525	37.02
332.738	41.45
332.951	24.83
333.164	28.97
333.377	35.31
333.59	25.7
333.803	41.43
334.016	49.06
334.229	35.76
334.442	33.73
334.655	33.02
334.868	19.65
335.081	26.18
335.294	29.27
335.507	37.13
335.72	42.81
335.933	21.98
336.146	20.26
336.359	33.62
336.572	14.49
336.785	6.46
336.997	30.02
337.21	27.4
337.423	24.98
337.636	34.01
337.849	38.88
338.062	43.46
338.274	53.33
338.487	49.57
338.7	28.16
338.913	34.17
339.125	31.92
339.338	27.82
339.551	30.39
339.763	41.68
339.976	32.9
340.189	29
340.402	22.22
340.614	31.06
340.827	41.91
341.039	44.52
341.252	66.82
341.465	65.95
341.677	50.4
341.89	39.3
342.102	39.36
342.315	22.85
342.527	16.97
342.74	16.67
342.952	24.23
343.165	41.99
343.377	47.2
343.59	65.23
343.802	64.44
344.015	60.78
344.227	41.25
344.44	40.35
344.652	45.2
344.864	40.29
345.077	41.39
345.289	45.24
345.502	32.4
345.714	11.02
345.926	11.8
346.139	-11.55
346.351	2.25
346.563	19.32
346.775	8.44
346.988	-14.64
347.2	-5.83
347.412	-6.31
347.624	6.26
347.837	0.13
348.049	11.5
348.261	27.62
348.473	18.83
348.685	16.27
348.897	38.9
349.11	42.56
349.322	43.19
349.534	50.13
349.746	40.97
349.958	39.96
350.17	33.99
350.382	31.06
350.594	30.92
350.806	43.13
351.018	24.74
351.23	22.2
351.442	9.97
351.654	19.23
351.866	-4.67
352.078	28.09
352.29	28.56
352.502	33.46
352.714	41.76
352.926	53.9
353.138	54.87
353.35	45.87
353.561	50.6
353.773	43.56
353.985	53.58
354.197	46.91
354.409	57.81
354.621	48.03
354.832	32.94
355.044	31.24
355.256	38.27
355.468	40.37
355.679	50.89
355.891	57.39
356.103	44.67
356.314	38.21
356.526	30.09
356.738	31.75
356.949	26.48
357.161	49.73
357.373	38.09
357.584	35.87
357.796	24.98
358.008	16.79
358.219	2.53
358.431	10.26
358.642	4.21
358.854	10.47
359.065	14.27
359.277	17.54
359.488	16.87
359.7	26.53
359.911	28.71
360.123	33.56
360.334	30.13
360.546	27.16
360.757	22.02
360.969	18.32
361.18	18.72
361.391	2.75
361.603	1.46
361.814	18.23
362.025	16.36
362.237	23.48
362.448	35.62
362.659	33.06
362.871	24.51
363.082	40.02
363.293	26.6
363.504	25.24
363.716	39.99
363.927	36.03
364.138	16.7
364.349	20.62
364.56	29.14
364.772	21.33
364.983	29.11
365.194	32.49
365.405	34.58
365.616	26.83
365.827	27.06
366.038	20.95
366.25	31.51
366.461	33.48
366.672	36.56
366.883	41.88
367.094	39.05
367.305	30.53
367.516	24.8
367.727	24
367.938	22.69
368.149	24.64
368.36	25.17
368.571	30.84
368.781	19.14
368.992	10.32
369.203	16.44
369.414	18.21
369.625	37.64
369.836	43.92
370.047	41.59
370.258	38.55
370.468	33.56
370.679	7.59
370.89	-11.39
371.101	3.94
371.312	9.77
371.522	15.13
371.733	24.79
371.944	31.31
372.155	35.26
372.365	23.74
372.576	27.39
372.787	18.57
372.997	20.59
373.208	22.58
373.419	13.86
373.629	18.19
373.84	25.3
374.05	21.49
374.261	19.08
374.472	16.96
374.682	-2
374.893	3.43
375.103	8.62
375.314	18.81
375.524	22.88
375.735	41.3
375.945	38.54
376.156	43.86
376.366	19.86
376.577	33.52
376.787	23.21
376.997	29.74
377.208	16.21
377.418	29.21
377.629	25.85
377.839	23.76
378.049	21.17
378.26	28.78
378.47	34.45
378.68	24.96
378.89	20.55
379.101	16.47
379.311	14.63
379.521	1.19
379.732	2.15
379.942	8.72
380.152	9.29
380.362	12.44
380.572	17.37
380.783	16.56
380.993	7
381.203	15.59
381.413	10.05
381.623	12.41
381.833	32.86
382.043	40.24
382.253	35.87
382.463	36.36
382.674	34.26
382.884	28.15
383.094	16.48
383.304	13.03
383.514	7.58
383.724	17.08
383.934	6.78
384.144	10.89
384.353	17.44
384.563	20.4
384.773	17.67
384.983	19.08
385.193	20.8
385.403	9.91
385.613	14.04
385.823	10.38
386.033	10.2
386.242	9.52
386.452	14.38
386.662	8.98
386.872	10.49
387.082	7.24
387.291	2.91
387.501	5.1
387.711	5.61
387.921	3.27
388.13	8.96
388.34	10.48
388.55	9.4
388.759	8.81
388.969	9.87
389.179	6.31
389.388	7.27
389.598	10.7
389.807	12.44
390.017	11.83
390.227	14.9
390.436	15.49
390.646	13
390.855	11.98
391.065	10.18
391.274	9.07
391.484	5.71
391.693	2.8
391.903	2.62
392.112	3.9
392.322	3.35
392.531	4.81
392.74	4.27
392.95	3.5
393.159	3.7
393.369	3.34
393.578	3.03
393.787	3.86
393.997	3.35
394.206	3.19
394.415	3.7
394.625	4.08
394.834	4.22
395.043	4.72
395.252	5.76
395.462	4.93
395.671	4.4
395.88	5.26
396.089	5.57
396.298	4.61
396.508	4.51
396.717	4.92
396.926	4.6
397.135	3.54
397.344	3.6
397.553	4.19
397.762	4.18
397.971	3.76
398.181	4.67
398.39	4.01
398.599	3.79
398.808	3.69
399.017	4.05
399.226	3.73
399.435	4.21
399.644	4.66
399.853	4.63
400.062	4.83
400.27	4.86
400.479	4.66
400.688	4.2
400.897	4.48
401.106	4.24
401.315	4.01
401.524	4.02
401.733	3.8
401.941	3.79
402.15	3.67
402.359	3.69
402.568	3.71
402.777	3.63
402.985	3.25
403.194	3.02
403.403	3.14
403.612	2.99
403.82	3.23
404.029	3.19
404.238	3.26
404.446	3.48
404.655	3.43
404.864	3.37
405.072	3.31
405.281	3.41
405.489	3.15
405.698	3.32
405.906	3.2
406.115	3.21
406.324	3.07
406.532	3.04
406.741	2.86
406.949	2.84
407.158	3
407.366	3.01
407.574	2.92
407.783	3.09
407.991	3.01
408.2	2.91
408.408	2.84
408.617	2.98
408.825	2.94
409.033	3.1
409.242	3.24
409.45	3.31
409.658	3.27
409.867	3.14
410.075	3.2
410.283	3.07
410.491	2.96
410.7	2.96
410.908	3.07
411.116	3.04
411.324	2.97
411.533	3.11
411.741	3.08
411.949	3.08
412.157	2.91
412.365	2.78
412.573	2.72
412.781	2.68
412.99	2.67
413.198	2.74
413.406	2.94
413.614	2.95
413.822	3.04
414.03	3.05
414.238	3
414.446	3.04
414.654	2.97
414.862	2.89
415.07	2.69
415.278	2.72
415.486	2.55
415.694	2.7
415.902	2.66
416.109	2.79
416.317	2.83
416.525	2.88
416.733	2.79
416.941	2.88
417.149	2.8
417.357	2.65
417.564	2.74
417.772	2.68
417.98	2.65
418.188	2.74
418.395	2.73
418.603	2.56
418.811	2.67
419.019	2.7
419.226	2.83
419.434	2.96
419.642	3
419.849	2.88
420.057	2.73
420.265	2.46
420.472	2.48
420.68	2.56
420.887	2.72
421.095	2.76
421.302	2.87
421.51	2.83
421.717	2.81
421.925	2.74
422.132	2.76
422.34	2.75
422.547	2.61
422.755	2.54
422.962	2.55
423.17	2.47
423.377	2.57
423.585	2.72
423.792	2.72
423.999	2.66
424.207	2.65
424.414	2.45
424.621	2.36
424.829	2.42
425.036	2.51
425.243	2.66
425.451	2.7
425.658	2.73
425.865	2.62
426.072	2.49
426.28	2.53
426.487	2.71
426.694	2.6
426.901	2.51
427.108	2.53
427.315	2.46
427.523	2.32
427.73	2.5
427.937	2.7
428.144	2.65
428.351	2.58
428.558	2.79
428.765	2.82
428.972	2.87
429.179	2.83
429.386	2.87
429.593	2.67
429.8	2.59
430.007	2.55
430.214	2.74
430.421	2.83
430.628	2.77
430.835	2.79
431.042	2.73
431.249	2.68
431.456	2.58
431.662	2.78
431.869	2.85
432.076	2.85
432.283	2.86
432.49	2.89
432.697	2.86
432.903	2.65
433.11	2.63
433.317	2.51
433.524	2.62
433.73	2.55
433.937	2.61
434.144	2.67
434.35	2.84
434.557	2.76
434.764	2.81
434.97	2.84
435.177	3.02
435.384	2.88
435.59	2.86
435.797	2.87
436.003	2.9
436.21	2.79
436.416	2.85
436.623	2.84
436.829	2.76
437.036	2.81
437.242	2.83
437.449	2.89
437.655	2.97
437.862	3.07
438.068	3
438.275	2.95
438.481	2.95
438.687	2.99
438.894	2.96
439.1	2.97
439.307	3.05
439.513	2.95
439.719	2.84
439.926	2.78
440.132	2.78
440.338	2.81
440.544	2.76
440.751	2.82
440.957	2.96
441.163	3.04
441.369	3.01
441.575	3.13
441.782	3.19
441.988	3.11
442.194	3.08
442.4	3.06
442.606	3.15
442.812	3.08
443.018	3.09
443.224	3.15
443.431	3.13
443.637	3.06
443.843	3.06
444.049	3.13
444.255	3.05
444.461	3.14
444.667	3.11
444.873	3.09
445.079	3.1
445.284	3.11
445.49	3.06
445.696	3.1
445.902	3.14
446.108	3.06
446.314	3.08
446.52	3.12
446.726	3.13
446.931	3.09
447.137	3.14
447.343	3.12
447.549	3.04
447.755	3.03
447.96	3.17
448.166	3.19
448.372	3.26
448.578	3.4
448.783	3.45
448.989	3.39
449.195	3.3
449.4	3.3
449.606	3.25
449.812	3.23
450.017	3.2
450.223	3.22
450.428	3.21
450.634	3.21
450.84	3.14
451.045	3.16
451.251	3.2
451.456	3.25
451.662	3.27
451.867	3.35
452.073	3.41
452.278	3.43
452.483	3.44
452.689	3.46
452.894	3.39
453.1	3.38
453.305	3.45
453.51	3.42
453.716	3.32
453.921	3.42
454.127	3.43
454.332	3.3
454.537	3.27
454.742	3.35
454.948	3.25
455.153	3.16
455.358	3.27
455.563	3.33
455.769	3.24
455.974	3.34
456.179	3.32
456.384	3.21
456.589	3.23
456.795	3.23
457	3.23
457.205	3.36
457.41	3.52
457.615	3.36
457.82	3.4
458.025	3.33
458.23	3.26
458.435	3.07
458.64	3.23
458.845	3.32
459.05	3.3
459.255	3.36
459.46	3.45
459.665	3.46
459.87	3.39
460.075	3.52
460.28	3.39
460.485	3.46
460.69	3.44
460.895	3.47
461.099	3.44
461.304	3.4
461.509	3.35
461.714	3.3
461.919	3.2
462.123	3.17
462.328	3.33
462.533	3.28
462.738	3.3
462.942	3.4
463.147	3.49
463.352	3.51
463.556	3.66
463.761	3.67
463.966	3.7
464.17	3.64
464.375	3.62
464.58	3.53
464.784	3.57
464.989	3.58
465.193	3.56
465.398	3.54
465.602	3.61
465.807	3.6
466.011	3.62
466.216	3.64
466.42	3.62
466.625	3.72
466.829	3.82
467.034	3.85
467.238	3.93
467.443	3.97
467.647	3.73
467.851	3.64
468.056	3.6
468.26	3.52
468.464	3.52
468.669	3.77
468.873	3.77
469.077	3.71
469.282	3.74
469.486	3.71
469.69	3.58
469.894	3.58
470.099	3.64
470.303	3.7
470.507	3.78
470.711	3.83
470.915	3.92
471.119	3.97
471.324	3.92
471.528	3.86
471.732	3.81
471.936	3.72
472.14	3.67
472.344	3.76
472.548	3.85
472.752	3.93
472.956	4
473.16	4.1
473.364	4.1
473.568	4.05
473.772	3.98
473.976	3.98
474.18	3.92
474.384	3.83
474.588	3.79
474.792	3.87
474.995	3.94
475.199	3.93
475.403	3.99
475.607	4.08
475.811	3.94
476.015	3.89
476.218	3.91
476.422	3.86
476.626	3.83
476.83	3.87
477.033	3.87
477.237	3.9
477.441	3.91
477.644	3.92
477.848	3.99
478.052	3.95
478.255	3.93
478.459	3.89
478.663	3.92
478.866	3.92
479.07	3.96
479.273	3.93
479.477	3.96
479.681	4.02
479.884	4.01
480.088	3.98
480.291	4.04
480.495	4.07
480.698	3.93
480.901	3.97
481.105	3.96
481.308	4.01
481.512	4.09
481.715	4.1
481.919	4.04
482.122	4.12
482.325	4.08
482.529	4.02
482.732	4.17
482.935	4.13
483.138	4.06
483.342	4.05
483.545	4.08
483.748	4.02
483.952	4.17
484.155	4.3
484.358	4.29
484.561	4.34
484.764	4.28
484.967	4.26
485.171	4.16
485.374	4.11
485.577	4.1
485.78	4.11
485.983	4.12
486.186	4.11
486.389	4.17
486.592	4.09
486.795	4.13
486.998	4.08
487.201	4.16
487.404	4.18
487.607	4.26
487.81	4.23
488.013	4.22
488.216	4.14
488.419	4.2
488.622	4.23
488.825	4.32
489.028	4.26
489.231	4.34
489.433	4.28
489.636	4.15
489.839	4.1
490.042	4.14
490.245	4.05
490.447	4.02
490.65	4.1
490.853	4.08
491.056	4.15
491.258	4.14
491.461	4.14
491.664	4.09
491.866	4.05
492.069	4.02
492.272	4.08
492.474	4.13
492.677	4.11
492.879	4.13
493.082	4.16
493.285	4.2
493.487	4.1
493.69	4.18
493.892	4.18
494.095	4.12
494.297	4.06
494.5	4.17
494.702	4.16
494.905	4.27
495.107	4.26
495.309	4.29
495.512	4.25
495.714	4.3
495.917	4.22
496.119	4.25
496.321	4.22
496.524	4.22
496.726	4.1
496.928	4.08
497.13	4.11
497.333	4.14
497.535	4.14
497.737	4.19
497.939	4.21
498.142	4.27
498.344	4.24
498.546	4.18
498.748	4.26
498.95	4.32
499.152	4.32
499.355	4.39
499.557	4.44
499.759	4.37
499.961	4.29
500.163	4.27
500.365	4.29
500.567	4.35
500.769	4.39
500.971	4.45
501.173	4.45
501.375	4.45
501.577	4.44
501.779	4.47
501.981	4.48
502.183	4.48
502.385	4.41
502.587	4.32
502.788	4.32
502.99	4.32
503.192	4.4
503.394	4.42
503.596	4.53
503.798	4.53
503.999	4.54
504.201	4.55
504.403	4.59
504.605	4.63
504.806	4.73
505.008	4.76
505.21	4.78
505.411	4.82
505.613	4.76
505.815	4.78
506.016	4.73
506.218	4.69
506.42	4.69
506.621	4.71
506.823	4.63
507.024	4.65
507.226	4.67
507.427	4.67
507.629	4.66
507.83	4.7
508.032	4.78
508.233	4.85
508.435	4.86
508.636	4.96
508.838	4.93
509.039	4.91
509.24	4.83
509.442	4.81
509.643	4.78
509.845	4.82
510.046	4.85
510.247	4.92
510.448	5.06
510.65	5.16
510.851	5.1
511.052	5.13
511.254	5.14
511.455	5.1
511.656	5.04
511.857	5.13
512.058	5.07
512.26	5.02
512.461	4.96
512.662	4.95
512.863	4.97
513.064	5.02
513.265	5.06
513.466	5.09
513.667	5.1
513.868	5.09
514.069	5.13
514.27	5.15
514.471	5.19
514.672	5.21
514.873	5.18
515.074	5.21
515.275	5.23
515.476	5.2
515.677	5.18
515.878	5.3
516.079	5.23
516.28	5.25
516.481	5.32
516.682	5.39
516.882	5.34
517.083	5.4
517.284	5.35
517.485	5.29
517.686	5.25
517.886	5.34
518.087	5.32
518.288	5.35
518.488	5.4
518.689	5.45
518.89	5.46
519.091	5.55
519.291	5.52
519.492	5.55
519.692	5.55
519.893	5.54
520.094	5.5
520.294	5.62
520.495	5.62
520.695	5.65
520.896	5.66
521.096	5.7
521.297	5.74
521.497	5.81
521.698	5.83
521.898	5.83
522.099	5.78
522.299	5.71
522.499	5.7
522.7	5.71
522.9	5.72
523.101	5.78
523.301	5.87
523.501	5.86
523.702	5.93
523.902	5.96
524.102	6
524.302	5.99
524.503	6.08
524.703	6
524.903	6
525.103	6.02
525.304	6.09
525.504	6.07
525.704	6.15
525.904	6.18
526.104	6.18
526.304	6.16
526.504	6.14
526.705	6.11
526.905	6.12
527.105	6.17
527.305	6.11
527.505	6.16
527.705	6.21
527.905	6.21
528.105	6.18
528.305	6.22
528.505	6.2
528.705	6.24
528.905	6.24
529.105	6.27
529.304	6.29
529.504	6.38
529.704	6.41
529.904	6.47
530.104	6.55
530.304	6.62
530.503	6.56
530.703	6.53
530.903	6.55
531.103	6.48
531.303	6.48
531.502	6.57
531.702	6.61
531.902	6.6
532.101	6.66
532.301	6.68
532.501	6.63
532.7	6.68
532.9	6.72
533.1	6.76
533.299	6.75
533.499	6.8
533.698	6.77
533.898	6.81
534.097	6.78
534.297	6.8
534.496	6.76
534.696	6.79
534.895	6.86
535.095	6.94
535.294	6.99
535.494	7.06
535.693	7.08
535.892	7.06
536.092	7.03
536.291	7.1
536.491	7.12
536.69	7.17
536.889	7.11
537.088	7.11
537.288	7.15
537.487	7.21
537.686	7.22
537.886	7.35
538.085	7.42
538.284	7.39
538.483	7.37
538.682	7.43
538.882	7.43
539.081	7.52
539.28	7.56
539.479	7.61
539.678	7.57
539.877	7.58
540.076	7.59
540.275	7.64
540.474	7.71
540.673	7.82
540.872	7.88
541.071	7.88
541.27	7.88
541.469	7.93
541.668	7.94
541.867	8.01
542.066	8.1
542.265	8.17
542.464	8.14
542.663	8.25
542.862	8.3
543.06	8.43
543.259	8.55
543.458	8.63
543.657	8.62
543.856	8.66
544.054	8.65
544.253	8.65
544.452	8.72
544.651	8.78
544.849	8.78
545.048	8.81
545.247	8.81
545.445	8.83
545.644	8.87
545.843	8.93
546.041	8.94
546.24	9.06
546.438	9.14
546.637	9.19
546.836	9.28
547.034	9.32
547.233	9.38
547.431	9.42
547.63	9.48
547.828	9.48
548.027	9.49
548.225	9.51
548.423	9.56
548.622	9.6
548.82	9.66
549.019	9.84
549.217	9.85
549.415	9.91
549.614	10.05
549.812	10.08
550.01	10.1
550.209	10.2
550.407	10.34
550.605	10.32
550.803	10.4
551.002	10.43
551.2	10.45
551.398	10.47
551.596	10.51
551.794	10.6
551.993	10.68
552.191	10.81
552.389	10.84
552.587	10.93
552.785	11.02
552.983	11.08
553.181	11.15
553.379	11.28
553.577	11.36
553.775	11.48
553.973	11.6
554.171	11.71
554.369	11.82
554.567	11.93
554.765	11.96
554.963	11.99
555.161	12
555.359	12.03
555.557	12.11
555.755	12.21
555.952	12.35
556.15	12.44
556.348	12.53
556.546	12.66
556.744	12.68
556.941	12.65
557.139	12.8
557.337	12.96
557.535	13.03
557.732	13.06
557.93	13.22
558.128	13.15
558.325	13.12
558.523	13.07
558.721	13.2
558.918	13.24
559.116	13.46
559.313	13.5
559.511	13.66
559.708	13.76
559.906	13.89
560.104	13.95
560.301	14.07
560.498	14.12
560.696	14.17
560.893	14.24
561.091	14.36
561.288	14.44
561.486	14.54
561.683	14.63
561.88	14.74
562.078	14.72
562.275	14.81
562.473	14.84
562.67	14.79
562.867	14.77
563.064	14.87
563.262	14.9
563.459	14.96
563.656	15.12
563.853	15.23
564.051	15.18
564.248	15.19
564.445	15.34
564.642	15.37
564.839	15.45
565.036	15.55
565.234	15.66
565.431	15.6
565.628	15.71
565.825	15.71
566.022	15.8
566.219	15.8
566.416	15.92
566.613	16.02
566.81	16.06
567.007	16.06
567.204	16.14
567.401	16.09
567.598	16.11
567.795	16.15
567.991	16.1
568.188	16.14
568.385	16.25
568.582	16.27
568.779	16.3
568.976	16.41
569.172	16.51
569.369	16.47
569.566	16.48
569.763	16.51
569.96	16.49
570.156	16.48
570.353	16.54
570.55	16.51
570.746	16.55
570.943	16.56
571.14	16.52
571.336	16.57
571.533	16.58
571.729	16.58
571.926	16.63
572.123	16.59
572.319	16.54
572.516	16.6
572.712	16.62
572.909	16.64
573.105	16.68
573.302	16.71
573.498	16.66
573.695	16.56
573.891	16.6
574.087	16.6
574.284	16.62
574.48	16.68
574.677	16.7
574.873	16.61
575.069	16.65
575.266	16.61
575.462	16.52
575.658	16.54
575.854	16.59
576.051	16.46
576.247	16.51
576.443	16.56
576.639	16.54
576.835	16.47
577.032	16.48
577.228	16.51
577.424	16.46
577.62	16.39
577.816	16.39
578.012	16.38
578.208	16.3
578.404	16.35
578.6	16.37
578.796	16.4
578.993	16.4
579.189	16.3
579.384	16.22
579.58	16.26
579.776	16.16
579.972	16.11
580.168	16.04
580.364	15.96
580.56	15.82
580.756	15.77
580.952	15.64
581.148	15.68
581.343	15.64
581.539	15.62
581.735	15.65
581.931	15.76
582.127	15.7
582.322	15.73
582.518	15.77
582.714	15.71
582.909	15.64
583.105	15.66
583.301	15.62
583.496	15.58
583.692	15.57
583.888	15.59
584.083	15.62
584.279	15.63
584.474	15.64
584.67	15.56
584.866	15.55
585.061	15.49
585.257	15.45
585.452	15.42
585.648	15.39
585.843	15.33
586.039	15.3
586.234	15.31
586.429	15.19
586.625	15.26
586.82	15.27
587.015	15.32
587.211	15.24
587.406	15.25
587.601	15.2
587.797	15.18
587.992	14.99
588.187	15.04
588.383	15.07
588.578	15.14
588.773	15.09
588.968	15.17
589.163	15.24
589.359	15.23
589.554	15.23
589.749	15.25
589.944	15.23
590.139	15.13
590.334	15.16
590.529	15.08
590.724	15.1
590.919	15.07
591.114	15.19
591.309	15.19
591.504	15.36
591.699	15.32
591.894	15.4
592.089	15.32
592.284	15.29
592.479	15.17
592.674	15.22
592.869	15.24
593.064	15.28
593.259	15.34
593.454	15.35
593.648	15.32
593.843	15.36
594.038	15.35
594.233	15.45
594.428	15.5
594.622	15.57
594.817	15.53
595.012	15.53
595.206	15.52
595.401	15.59
595.596	15.68
595.79	15.77
595.985	15.83
596.18	15.83
596.374	15.84
596.569	15.85
596.763	15.84
596.958	15.99
597.153	15.93
597.347	15.98
597.542	16.06
597.736	16.07
597.931	15.95
598.125	16.05
598.319	16.18
598.514	16.19
598.708	16.31
598.903	16.4
599.097	16.44
599.291	16.4
599.486	16.35
599.68	16.27
599.874	16.29
600.069	16.41
600.263	16.37
600.457	16.5
600.651	16.63
600.846	16.63
601.04	16.61
601.234	16.61
601.428	16.57
601.622	16.61
601.817	16.7
602.011	16.71
602.205	16.75
602.399	16.73
602.593	16.67
602.787	16.65
602.981	16.7
603.175	16.75
603.369	16.75
603.563	16.75
603.757	16.71
603.951	16.61
604.145	16.6
604.339	16.63
604.533	16.58
604.727	16.59
604.921	16.66
605.115	16.52
605.309	16.44
605.502	16.47
605.696	16.44
605.89	16.31
606.084	16.37
606.278	16.39
606.471	16.35
606.665	16.26
606.859	16.31
607.053	16.26
607.246	16.22
607.44	16.14
607.634	16.19
607.827	16.1
608.021	16.04
608.214	15.97
608.408	16.03
608.602	15.98
608.795	15.91
608.989	15.86
609.182	15.85
609.376	15.79
609.569	15.77
609.763	15.74
609.956	15.78
610.15	15.65
610.343	15.5
610.537	15.38
610.73	15.31
610.923	15.27
611.117	15.24
611.31	15.17
611.504	15.1
611.697	15.06
611.89	14.93
612.083	14.81
612.277	14.75
612.47	14.71
612.663	14.64
612.856	14.57
613.05	14.53
613.243	14.54
613.436	14.53
613.629	14.5
613.822	14.48
614.015	14.53
614.209	14.48
614.402	14.4
614.595	14.37
614.788	14.29
614.981	14.16
615.174	14.15
615.367	14.06
615.56	13.93
615.753	13.93
615.946	13.86
616.139	13.8
616.332	13.79
616.525	13.71
616.718	13.54
616.911	13.57
617.103	13.5
617.296	13.37
617.489	13.4
617.682	13.5
617.875	13.44
618.067	13.33
618.26	13.34
618.453	13.27
618.646	13.13
618.838	13.02
619.031	12.97
619.224	12.95
619.417	12.96
619.609	12.98
619.802	13.01
619.994	13.04
620.187	12.98
620.38	12.94
620.572	12.88
620.765	12.85
620.957	12.85
621.15	12.87
621.342	12.8
621.535	12.82
621.727	12.77
621.92	12.75
622.112	12.72
622.305	12.75
622.497	12.67
622.69	12.66
622.882	12.61
623.074	12.61
623.267	12.57
623.459	12.61
623.651	12.6
623.844	12.61
624.036	12.59
624.228	12.58
624.42	12.51
624.613	12.53
624.805	12.49
624.997	12.51
625.189	12.53
625.381	12.54
625.574	12.51
625.766	12.45
625.958	12.41
626.15	12.33
626.342	12.34
626.534	12.31
626.726	12.35
626.918	12.28
627.11	12.21
627.302	12.12
627.494	12.1
627.686	12.02
627.878	12.05
628.07	12.06
628.262	12.03
628.454	11.94
628.646	11.94
628.838	11.97
629.029	11.86
629.221	11.88
629.413	11.9
629.605	11.85
629.797	11.75
629.989	11.87
630.18	11.84
630.372	11.83
630.564	11.85
630.755	11.83
630.947	11.72
631.139	11.61
631.33	11.57
631.522	11.53
631.714	11.46
631.905	11.48
632.097	11.44
632.289	11.42
632.48	11.32
632.672	11.3
632.863	11.23
633.055	11.28
633.246	11.21
633.438	11.16
633.629	11.1
633.821	11.07
634.012	10.93
634.203	10.95
634.395	11
634.586	11.07
634.777	11.04
634.969	11.09
635.16	11.02
635.351	10.9
635.543	10.8
635.734	10.76
635.925	10.71
636.117	10.77
636.308	10.87
636.499	10.86
636.69	10.87
636.881	10.86
637.073	10.78
637.264	10.63
637.455	10.58
637.646	10.53
637.837	10.55
638.028	10.54
638.219	10.6
638.41	10.58
638.601	10.58
638.792	10.51
638.983	10.46
639.174	10.37
639.365	10.3
639.556	10.27
639.747	10.19
639.938	10.18
640.129	10.14
640.32	10.11
640.511	10.05
640.701	10.08
640.892	10.01
641.083	10.05
641.274	10
641.465	10.04
641.655	9.96
641.846	9.94
642.037	9.78
642.228	9.76
642.418	9.67
642.609	9.66
642.8	9.63
642.99	9.58
643.181	9.56
643.372	9.61
643.562	9.53
643.753	9.54
643.943	9.6
644.134	9.61
644.324	9.54
644.515	9.52
644.705	9.46
644.896	9.39
645.086	9.38
645.277	9.34
645.467	9.37
645.658	9.32
645.848	9.25
646.038	9.26
646.229	9.22
646.419	9.15
646.61	9.26
646.8	9.3
646.99	9.3
647.18	9.27
647.371	9.27
647.561	9.14
647.751	9.04
647.941	8.96
648.132	9.02
648.322	9.04
648.512	9.04
648.702	9.14
648.892	9.14
649.082	9.08
649.272	8.97
649.462	8.94
649.653	8.98
649.843	9
650.033	9.04
650.223	9.1
650.413	9.13
650.603	9.13
650.793	9.1
650.983	8.97
651.172	8.98
651.362	8.86
651.552	8.74
651.742	8.62
651.932	8.65
652.122	8.6
652.312	8.7
652.502	8.68
652.691	8.78
652.881	8.78
653.071	8.73
653.261	8.62
653.45	8.61
653.64	8.49
653.83	8.32
654.019	8.25
654.209	8.21
654.399	8.23
654.588	8.19
654.778	8.23
654.968	8.19
655.157	8.14
655.347	7.98
655.536	7.95
655.726	7.92
655.915	7.86
656.105	7.72
656.294	7.69
656.484	7.63
656.673	7.54
656.863	7.46
657.052	7.43
657.241	7.33
657.431	7.19
657.62	7.06
657.809	7.01
657.999	7.02
658.188	6.96
658.377	6.99
658.567	6.92
658.756	6.75
658.945	6.65
659.134	6.54
659.324	6.41
659.513	6.39
659.702	6.36
659.891	6.34
660.08	6.25
660.269	6.2
660.458	6.1
660.648	6.16
660.837	6.06
661.026	6.07
661.215	6.03
661.404	5.98
661.593	5.77
661.782	5.63
661.971	5.53
662.16	5.44
662.349	5.19
662.538	5.2
662.726	5.19
662.915	5.08
663.104	4.98
663.293	5.02
663.482	5
663.671	4.93
663.86	4.86
664.048	4.82
664.237	4.89
664.426	4.85
664.615	4.81
664.803	4.92
664.992	4.87
665.181	4.74
665.369	4.74
665.558	4.72
665.747	4.65
665.935	4.65
666.124	4.72
666.312	4.61
666.501	4.59
666.69	4.5
666.878	4.37
667.067	4.33
667.255	4.3
667.444	4.38
667.632	4.46
667.82	4.63
668.009	4.59
668.197	4.63
668.386	4.49
668.574	4.37
668.762	4.24
668.951	4.32
669.139	4.26
669.327	4.36
669.516	4.39
669.704	4.44
669.892	4.4
670.08	4.47
670.269	4.34
670.457	4.45
670.645	4.41
670.833	4.49
671.021	4.44
671.21	4.51
671.398	4.45
671.586	4.51
671.774	4.43
671.962	4.48
672.15	4.46
672.338	4.54
672.526	4.58
672.714	4.48
672.902	4.41
673.09	4.51
673.278	4.49
673.466	4.69
673.654	4.97
673.842	5.03
674.03	5.08
674.218	5.11
674.405	4.97
674.593	4.94
674.781	4.96
674.969	4.89
675.157	4.95
675.344	4.85
675.532	4.81
675.72	4.87
675.908	5.02
676.095	4.9
676.283	4.99
676.471	5.14
676.658	5.19
676.846	5.3
677.033	5.56
677.221	5.66
677.409	5.58
677.596	5.69
677.784	5.67
677.971	5.6
678.159	5.57
678.346	5.59
678.534	5.6
678.721	5.53
678.909	5.48
679.096	5.62
679.283	5.72
679.471	5.7
679.658	5.98
679.846	6.16
680.033	6.3
680.22	6.41
680.408	6.47
680.595	6.38
680.782	6.31
680.969	6.24
681.157	6.19
681.344	6.25
681.531	6.27
681.718	6.33
681.905	6.29
682.093	6.38
682.28	6.33
682.467	6.4
682.654	6.52
682.841	6.71
683.028	6.78
683.215	7.01
683.402	7.01
683.589	7.14
683.776	7.29
683.963	7.25
684.15	7.34
684.337	7.65
684.524	7.68
684.711	7.62
684.898	7.92
685.085	8.02
685.271	8
685.458	8.14
685.645	8.32
685.832	8.4
686.019	8.42
686.205	8.61
686.392	8.78
686.579	9.02
686.766	9.06
686.952	9.35
687.139	9.55
687.326	9.64
687.512	9.73
687.699	10.02
687.886	10.15
688.072	10.41
688.259	10.67
688.445	10.96
688.632	11.16
688.818	11.7
689.005	11.98
689.191	12.42
689.378	12.7
689.564	13.12
689.751	13.15
689.937	13.49
690.124	13.78
690.31	13.96
690.496	14.24
690.683	14.69
690.869	14.9
691.055	15.35
691.242	15.92
691.428	16.32
691.614	16.65
691.8	17.04
691.987	17.28
692.173	17.82
692.359	18.27
692.545	18.79
692.731	19.26
692.918	19.75
693.104	19.98
693.29	20.59
693.476	21.05
693.662	21.76
693.848	22.4
694.034	23.08
694.22	23.44
694.406	24.12
694.592	24.67
694.778	25.17
694.964	25.68
695.15	26.09
695.336	26.51
695.522	26.92
695.708	27.51
695.894	27.97
696.08	28.88
696.265	29.36
696.451	29.94
696.637	30.41
696.823	30.93
697.009	31.46
697.194	31.98
697.38	32.57
697.566	33.12
697.751	33.81
697.937	34.15
698.123	34.56
698.308	35.16
698.494	35.62
698.68	36.11
698.865	36.7
699.051	37.55
699.236	38.15
699.422	38.82
699.607	39.59
699.793	40.07
699.978	40.64
700.164	41.23
700.349	41.82
700.535	42.02
700.72	42.38
700.906	42.89
701.091	43
701.276	43.34
701.462	44.07
701.647	44.74
701.832	45.3
702.018	46.11
702.203	46.37
702.388	46.56
702.573	46.9
702.759	47.05
702.944	47.19
703.129	47.91
703.314	48.31
703.499	48.89
703.684	49.22
703.87	49.69
704.055	50.1
704.24	50.65
704.425	50.77
704.61	50.96
704.795	51.26
704.98	51.74
705.165	51.87
705.35	52.65
705.535	53.24
705.72	53.66
705.905	54.09
706.09	54.79
706.275	55.09
706.459	55.5
706.644	55.93
706.829	56.06
707.014	56.5
707.199	56.59
707.384	57.06
707.568	57.28
707.753	57.73
707.938	58.04
708.123	58.9
708.307	58.98
708.492	59.2
708.677	59.62
708.861	59.63
709.046	59.27
709.231	60.13
709.415	60.43
709.6	60.33
709.784	60.79
709.969	61.27
710.153	61.32
710.338	61.84
710.522	62.24
710.707	62.7
710.891	62.9
711.076	62.98
711.26	63.43
711.445	63.49
711.629	63.53
711.813	63.76
711.998	64.06
712.182	64.17
712.366	64.77
712.551	65.41
712.735	65.79
712.919	65.82
713.103	65.8
713.288	65.68
713.472	65.33
713.656	65.41
713.84	65.92
714.024	66.14
714.208	66.61
714.393	66.99
714.577	66.99
714.761	67.03
714.945	67.29
715.129	67.24
715.313	67.29
715.497	67.95
715.681	68.43
715.865	68.25
716.049	68.42
716.233	68.62
716.417	68.78
716.601	68.78
716.785	69.22
716.968	69.27
717.152	69.77
717.336	69.56
717.52	69.55
717.704	69.63
717.888	69.69
718.071	69.35
718.255	69.64
718.439	69.51
718.622	69.58
718.806	70.34
718.99	70.82
719.174	71.34
719.357	72
719.541	72.32
719.724	71.97
719.908	71.73
720.092	71.2
720.275	71.82
720.459	72.24
720.642	72.91
720.826	73.18
721.009	73.55
721.193	73.37
721.376	73.04
721.559	72.83
721.743	72.98
721.926	73.35
722.11	73.02
722.293	73.17
722.476	73.72
722.66	73.27
722.843	73.1
723.026	73.59
723.21	73.96
723.393	73.71
723.576	74.61
723.759	75.07
723.942	74.51
724.126	74.74
724.309	74.96
724.492	74.84
724.675	75.15
724.858	75.75
725.041	75.95
725.224	76.17
725.407	76.48
725.59	76.61
725.774	76.9
725.957	76.76
726.14	76.97
726.322	76.87
726.505	76.78
726.688	76.7
726.871	77.16
727.054	76.83
727.237	77.18
727.42	77.92
727.603	78.48
727.786	78.21
727.968	78.15
728.151	78.47
728.334	78.57
728.517	78.41
728.699	79.31
728.882	79.8
729.065	79.68
729.248	79.74
729.43	79.47
729.613	79.35
729.796	79.68
729.978	80.08
730.161	79.43
730.343	79.9
730.526	79.88
730.708	80.23
730.891	80.47
731.073	80.29
731.256	80.15
731.438	80.18
731.621	80.51
731.803	80.44
731.986	81.32
732.168	81.15
732.35	81.26
732.533	80.76
732.715	80.63
732.898	80.25
733.08	81.27
733.262	82.04
733.444	82.07
733.627	82.21
733.809	82.63
733.991	83.02
734.173	83.16
734.355	83.44
734.538	83.81
734.72	84.25
734.902	84.12
735.084	82.92
735.266	82.87
735.448	83.26
735.63	82.69
735.812	83.72
735.994	84.77
736.176	85.28
736.358	84.24
736.54	83.86
736.722	82.85
736.904	82.98
737.086	82.7
737.268	84.25
737.45	86.25
737.632	85.46
737.814	85.92
737.995	86.65
738.177	85.7
738.359	84.31
738.541	85.39
738.723	85.53
738.904	85.46
739.086	85.69
739.268	86.23
739.449	86.15
739.631	85.86
739.813	85.75
739.994	86.57
740.176	85.99
740.358	86.45
740.539	86.69
740.721	86.49
740.902	85.78
741.084	87.28
741.265	85.89
741.447	85.34
741.628	87.23
741.81	87.35
741.991	86.25
742.172	88.13
742.354	87.5
742.535	85.75
742.717	85.76
742.898	86.91
743.079	86.06
743.261	87.42
743.442	87.77
743.623	89.02
743.804	88.25
743.986	89.32
744.167	88.64
744.348	89.3
744.529	89.02
744.71	89.95
744.891	89.92
745.073	91.08
745.254	91.82
745.435	91.88
745.616	91.9
745.797	91.74
745.978	91.13
746.159	89.54
746.34	89.33
746.521	89.43
746.702	88.81
746.883	88.31
747.064	88.37
747.245	88.66
747.426	89.92
747.606	89.9
747.787	90.25
747.968	91.65
748.149	91.79
748.33	89.02
748.51	88.9
748.691	88.6
748.872	87.49
749.053	86.3
749.233	87.28
749.414	87.19
749.595	88.75
749.775	88.54
749.956	89.97
750.137	90.15
750.317	91.18
750.498	90.72
750.678	91.9
750.859	89.25
751.04	89.51
751.22	89.8
751.4	89.7
751.581	89.64
751.761	91.31
751.942	92.61
752.122	90.99
752.303	90.74
752.483	91.39
752.663	91.6
752.844	90.12
753.024	91.84
753.204	91.41
753.385	89.03
753.565	89.18
753.745	89.74
753.925	90
754.106	90.14
754.286	91.88
754.466	91.11
754.646	90.99
754.826	89.59
755.006	90.11
755.187	89.54
755.367	89.6
755.547	89.71
755.727	92.12
755.907	90.79
756.087	91.82
756.267	92.01
756.447	92.43
756.627	90.61
756.807	91.45
756.987	89.59
757.167	90.43
757.346	89.47
757.526	89.75
757.706	90.63
757.886	92.64
758.066	93.46
758.246	94.54
758.425	94.48
758.605	94.08
758.785	94.27
758.965	94.65
759.144	94.01
759.324	92.94
759.504	93.31
759.683	93
759.863	91.54
760.043	90.76
760.222	89.27
760.402	89.14
760.581	89.45
760.761	88.94
760.94	89.6
761.12	94.58
761.299	93.35
761.479	91.6
761.658	92.13
761.838	91.14
762.017	89.52
762.197	89.79
762.376	90.41
762.555	90.35
762.735	90.33
762.914	91.06
763.093	92.22
763.273	91.68
763.452	92.54
763.631	94.18
763.81	93.83
763.99	92.27
764.169	91.65
764.348	90.79
764.527	89.04
764.706	87.77
764.885	88.34
765.064	89.94
765.243	90.01
765.423	90.57
765.602	90.98
765.781	92.37
765.96	90.76
766.139	91.69
766.318	92.89
766.497	92.94
766.676	91.91
766.854	94.16
767.033	92.55
767.212	91.86
767.391	91.38
767.57	92.85
767.749	93.7
767.928	94.89
768.106	92.44
768.285	90.67
768.464	87.73
768.643	86.62
768.821	86.02
769	88.87
769.179	90.69
769.357	90.41
769.536	88.81
769.715	89.67
769.893	89.05
770.072	88.13
770.25	90
770.429	89.99
770.607	89.6
770.786	88.28
770.964	88.74
771.143	88.38
771.321	89.81
771.5	90.21
771.678	92
771.857	92.27
772.035	91.66
772.213	90.41
772.392	86.92
772.57	86.55
772.748	85.48
772.927	86.07
773.105	87.87
773.283	89.14
773.461	88.37
773.64	88.06
773.818	87.77
773.996	86.06
774.174	87.48
774.352	88.62
774.531	90.5
774.709	89.83
774.887	90.48
775.065	89.81
775.243	87.74
775.421	86.1
775.599	86.89
775.777	84.06
775.955	85.07
776.133	84.52
776.311	85.97
776.489	87.25
776.667	89.11
776.844	90.5
777.022	91.06
777.2	90.32
777.378	88.12
777.556	90.04
777.734	89.24
777.911	90.76
778.089	90.09
778.267	89.39
778.445	85.13
778.622	84.75
778.8	84.19
778.978	86.99
779.155	88.93
779.333	90.23
779.511	88.21
779.688	88.2
779.866	86.99
780.043	87.17
780.221	87.07
780.398	88.33
780.576	90.26
780.753	87.6
780.931	86.06
781.108	87.28
781.286	89.52
781.463	88.78
781.64	91.11
781.818	94.19
781.995	94.32
782.172	92.81
782.35	91.03
782.527	90.89
782.704	88.74
782.882	87.63
783.059	85.42
783.236	83.64
783.413	81.03
783.59	80.93
783.768	80
783.945	76.13
784.122	78.17
784.299	79.26
784.476	79.82
784.653	81.14
784.83	86.59
785.007	84.05
785.184	84.33
785.361	83.11
785.538	84.81
785.715	84.82
785.892	89.51
786.069	89.44
786.246	91.51
786.423	90.53
786.6	89.69
786.776	85.54
786.953	86.27
787.13	86.67
787.307	82.61
787.484	82.97
787.66	80.69
787.837	83.69
788.014	85.78
788.191	91.25
788.367	94.44
788.544	101.15
788.721	98.79
788.897	92.88
789.074	87.63
789.25	83.06
789.427	77.35
789.603	75.44
789.78	79.08
789.956	87.53
790.133	88.47
790.309	89.79
790.486	88.57
790.662	87.86
790.839	78.37
791.015	80.1
791.192	80.7
791.368	83.19
791.544	79.94
791.721	84.69
791.897	82.74
792.073	84.25
792.249	81.02
792.426	85.94
792.602	85.7
792.778	86.75
792.954	83.93
793.13	87.69
793.307	83.34
793.483	82.94
793.659	83.36
793.835	84.67
794.011	82.84
794.187	83.43
794.363	81.85
794.539	81.2
794.715	82.76
794.891	82.2
795.067	85.26
795.243	86.3
795.419	83.37
795.595	83.7
795.771	85.74
795.947	83.63
796.122	85.15
796.298	89
796.474	86.24
796.65	85.59
796.826	88.01
797.001	84.27
797.177	86.05
797.353	82.99
797.529	79.04
797.704	77.05
797.88	78.59
798.056	76.72
798.231	83.99
798.407	91.29
798.582	89.53
798.758	97
798.934	93.74
799.109	93.61
799.285	93.73
799.46	93.16
799.636	87.36
799.811	87.55
799.986	88.66
800.162	89.55
800.337	87.57
800.513	86.91
800.688	86.9
800.863	83.54
801.039	81.32
801.214	86.9
801.389	87.83
801.565	83.75
801.74	84.42
801.915	78.72
802.09	75.46
802.265	76.26
802.441	79.71
802.616	76.76
802.791	80.85
802.966	87.62
803.141	84.53
803.316	83.99
803.491	80.57
803.666	75.71
803.841	65.68
804.016	68.85
804.191	65.55
804.366	72.83
804.541	74.83
804.716	79.31
804.891	71.89
805.066	72.75
805.241	67
805.416	69.66
805.591	72.15
805.765	74.74
805.94	79.52
806.115	85.37
806.29	87.19
806.464	78.17
806.639	81.69
806.814	78.61
806.989	72.55
807.163	68.44
807.338	71.54
807.512	68.19
807.687	67.61
807.862	68.94
808.036	72.58
808.211	70.3
808.385	67.48
808.56	68.26
808.734	69.16
808.909	69.99
809.083	68.02
809.258	72.86
809.432	74
809.606	72.3
809.781	63
809.955	67.92
810.13	72.35
810.304	73.65
810.478	72.7
810.652	89.4
810.827	92.59
811.001	93.72
811.175	103.41
811.349	100.89
811.524	78.25
811.698	82.37
811.872	89.84
812.046	83.84
812.22	98.65
812.394	110.85
812.568	118.6
812.742	109.28
812.916	108.57
813.09	105.44
813.264	112.84
813.438	98.87
813.612	98.18
813.786	89.88
813.96	90.99
814.134	91.82
814.308	83.55
814.482	77.27
814.656	89.81
814.83	86.22
815.003	70.58
815.177	77.57
815.351	98.4
815.525	91.6
815.698	95.74
815.872	104.07
816.046	116.06
816.219	102.59
816.393	106.89
816.567	111.08
816.74	108.76
816.914	90.49
817.088	97.69
817.261	97.35
817.435	92.73
817.608	97.85
817.782	103.03
817.955	93.27
818.129	95.22
818.302	79.29
818.475	77.38
818.649	78.36
818.822	69.74
818.996	73.2
819.169	81.5
819.342	75.46
819.516	81.19
819.689	94.68
819.862	78.64
820.035	73.98
820.209	73.22
820.382	69.88
820.555	63.4
820.728	81.23
820.901	91.82
821.075	91.48
821.248	82.63
821.421	83.4
821.594	78.39
821.767	87.06
821.94	85.1
822.113	96.62
822.286	90.43
822.459	98.73
822.632	91.07
822.805	93.86
822.978	89.85
823.151	95.39
823.324	89.01
823.496	77.12
823.669	84.15
823.842	77.99
824.015	94.76
824.188	87.71
824.361	86.28
824.533	83.24
824.706	102.47
824.879	84.38
825.051	90.18
825.224	99.61
825.397	90.95
825.569	86.1
825.742	67.85
825.915	66.46
826.087	73.86
826.26	75
826.432	68.05
826.605	87.01
826.777	84.28
826.95	88.66
827.122	98.38
827.295	92.65
827.467	83.04
827.64	79.18
827.812	59.63
827.984	73.02
828.157	66.13
828.329	85.93
828.501	90.69
828.674	95.21
828.846	80.14
829.018	105.16
829.19	90.3
829.363	100.52
829.535	91.34
829.707	94.75
829.879	84.88
830.051	89.11
830.223	70.82
830.395	79.2
830.568	79.06
830.74	76.95
830.912	71.88
831.084	115.55
831.256	107.22
831.428	114.03
831.6	101.8
831.772	112.43
831.943	59.11
832.115	77.15
832.287	73.75
832.459	77.75
832.631	84.75
832.803	94.88
832.975	77.6
833.146	68.91
833.318	58.62
833.49	38.01
833.662	43.01
833.833	51.28
834.005	47.22
834.177	58.6
834.348	69.78
834.52	70.45
834.692	89.74
834.863	101.31
835.035	96.19
835.206	77.64
835.378	74.86
835.549	59.43
835.721	62.73
835.892	64.2
836.064	87.93
836.235	85.91
836.407	84.14
836.578	93.31
836.749	106.2
836.921	80.51
837.092	89.08
837.264	86.19
837.435	89.13
837.606	53.71
837.777	67.06
837.949	65.71
838.12	61.98
838.291	38.88
838.462	54.07
838.633	61.09
838.805	47.74
838.976	77.55
839.147	88.95
839.318	76.23
839.489	93.93
839.66	107.78
839.831	95.25
840.002	94.17
840.173	100.78
840.344	56.41
840.515	22.54
840.686	29.46
840.857	30.45
841.028	33.67
841.199	72.17
841.369	76.55
841.54	93.6
841.711	79.24
841.882	80.64
842.053	46.59
842.223	56.39
842.394	48.38
842.565	67.03
842.736	84.47
842.906	114.01
843.077	124.34
843.248	131.19
843.418	119.91
843.589	128.29
843.759	113.91
843.93	128.01
844.101	101.14
844.271	117.8
844.442	95.77
844.612	94.46
844.783	81.84
844.953	80.01
845.123	65.38
845.294	65.76
845.464	59.77
845.635	38.48
845.805	45.14
845.975	47.58
846.146	37.76
846.316	44.81
846.486	58.49
846.656	65.36
846.827	76.36
846.997	72.27
847.167	58.29
847.337	42.47
847.507	52.61
847.677	64.99
847.848	109.46
848.018	130.68
848.188	140.58
848.358	153.68
848.528	106.08
848.698	74.76
848.868	66.51
849.038	86.82
849.208	75.99
849.378	83.66
849.548	105.19
849.718	109.07
849.887	97.15
850.057	102.75
850.227	156.65
850.397	92.3
850.567	85.08
850.737	88.07
850.906	66.33
851.076	44.54
851.246	58.8
851.415	59.22
851.585	40.59
851.755	48.6
851.924	68.16
852.094	56.54
852.264	49.86
852.433	66.67
852.603	73.81
852.772	84.59
852.942	59.72
853.111	65.94
853.281	72.82
853.45	76.63
853.62	74.14
853.789	92.1
853.959	85.65
854.128	49.86
854.297	57.95
854.467	55.44
854.636	47.76
854.805	43.46
854.975	81.56
855.144	34.65
855.313	65.78
855.482	94.9
855.652	68.77
855.821	76.73
855.99	79.46
856.159	111.5
856.328	100.67
856.497	151.47
856.667	120.1
856.836	208.12
857.005	182.02
857.174	232.32
857.343	212.77
857.512	292.08
857.681	67.64
857.85	67.85
858.019	65.62
858.188	70.14
858.356	76.7
858.525	67.92
858.694	42.2
858.863	56.48
859.032	55.01
859.201	43.49
859.369	71.94
859.538	140.09
859.707	83.09
859.876	95.09
860.044	128.75
860.213	98.15
860.382	97.02
860.55	148.59
860.719	125.25
860.888	75.6
861.056	79.95
861.225	66.85
861.393	47.3
861.562	46.86
861.73	56.17
861.899	80.06
862.067	79.3
862.236	90.36
862.404	69.63
862.572	89.31
862.741	68.66
862.909	42.76
863.078	64.98
863.246	56.78
863.414	63.75
863.582	78.92
863.751	100.28
863.919	94.38
864.087	129.78
864.255	86.12
864.424	65.87
864.592	60.59
864.76	75.33
864.928	106.26
865.096	115.78
865.264	134.72
865.432	114.59
865.6	93.81
865.768	66.14
865.936	88.25
866.104	57.77
866.272	66.33
866.44	50.17
866.608	94.96
866.776	48.39
866.944	130.72
867.112	161.21
867.28	332.38
867.448	209.5
867.615	325.27
867.783	154.08
867.951	66.42
868.119	78.45
868.286	77.02
868.454	119.06
868.622	108.45
868.789	164.26
868.957	88.71
869.125	55.18
869.292	37.58
869.46	54.75
869.627	55.98
869.795	84.83
869.963	93.33
870.13	79.69
870.298	75.06
870.465	64.12
870.632	52.15
870.8	71.15
870.967	54.53
871.135	71.12
871.302	107.92
871.469	35.99
871.637	54.08
871.804	101.26
871.971	54.09
872.139	68.52
872.306	87.45
872.473	89.87
872.64	61.19
872.807	88.93
872.975	106.24
873.142	101.51
873.309	-437.68
873.476	321.82
873.643	66.67
873.81	42.06
873.977	24.15
874.144	60.23
874.311	74.01
874.478	76.44
874.645	96.04
874.812	71.26
874.979	64.46
875.146	35.23
875.313	71.76
875.48	-6.77
875.647	-240.12
875.813	521.78
875.98	-1173.74
876.147	192.54
876.314	119.44
876.481	87.81
876.647	126.31
876.814	131.16
876.981	180.99
877.147	136.01
877.314	122.78
877.481	107.52
877.647	89.83
877.814	61.05
877.98	38.43
878.147	20.05
878.314	-73.35
878.48	-10.14
878.647	48.24
878.813	798.45
878.979	183.29
879.146	218.07
879.312	158.2
879.479	101.55
879.645	116.66
879.811	82.69
879.978	87.39
880.144	102.56
880.31	109.68
880.477	80.16
880.643	155.23
880.809	189.18
880.975	7666.67
881.142	-625.96
881.308	-3293.33
881.474	235.12
881.64	278.95
881.806	117.65
881.972	109.34
882.138	86.26
882.304	141.63
882.47	148.21
882.636	143.45
882.802	213.88
882.968	562.88
883.134	178.57
883.3	102.94
883.466	152.88
883.632	134.86
883.798	100.34
883.964	87.63
884.129	202.35
884.295	112.81
884.461	87.47
884.627	84.25
884.793	107.29
884.958	75.82
885.124	54.37
885.29	50.65
885.455	36.38
885.621	-1.02
885.787	-39.05
885.952	105.39
886.118	109.41
886.283	-298.25
886.449	136.75
886.614	170.37
886.78	125.26
886.945	181.77
887.111	148.55
887.276	136.36
887.442	119.96
887.607	77.14
887.773	30.68
887.938	14.48
888.103	38.51
888.269	64.33
888.434	87.66
888.599	140.1
888.764	93.8
888.93	122.59
889.095	135.68
889.26	191.94
889.425	378.56
889.59	-1262.8
889.756	888.04
889.921	305.05
890.086	263.88
890.251	221.26
890.416	96.17
890.581	69.08
890.746	117.83
890.911	75.01
891.076	66.2
891.241	81.21
891.406	105.68
891.571	53.78
891.736	102.99
891.901	160.16
892.065	169.84
892.23	259.89
892.395	147.82
892.56	345.53
892.725	275.66
892.889	182.64
893.054	78.77
893.219	150.16
893.384	135.4
893.548	334.35
893.713	-543.21
893.878	-106.9
