Data from Ofav_PS_Phys_9AZ9_Reflection_1.txt Node
Date: Thu Jul 29 18:23:22 EDT 2021
User: USUARIO
Spectrometer: FLMT01687
Trigger mode: 0
Integration Time (sec): 9.010000E-1
Scans to average: 2
Electric dark correction enabled: true
Nonlinearity correction enabled: false
Boxcar width: 2
XAxis mode: Wavelengths
Number of Pixels in Spectrum: 3648
>>>>>Begin Spectral Data<<<<<
179.494	24.44
179.716	-9.91
179.937	-43.34
180.158	453.67
180.38	85.44
180.601	-145.14
180.823	-54.59
181.044	-100.26
181.265	-110.26
181.486	-1003.95
181.708	17.17
181.929	117.02
182.15	9652.38
182.372	-148.63
182.593	-64.11
182.814	-66.92
183.035	-531.62
183.257	108.05
183.478	68.99
183.699	64.86
183.92	51.04
184.141	48.3
184.363	44.2
184.584	23.51
184.805	22.28
185.026	37.5
185.247	26.56
185.468	-1.03
185.689	25.27
185.91	71.62
186.132	92.08
186.353	64
186.574	77.41
186.795	88.36
187.016	74.45
187.237	54.22
187.458	41.43
187.679	48.8
187.9	30.19
188.121	49.09
188.342	52.63
188.563	76.71
188.784	75.65
189.005	67.61
189.226	57.27
189.447	49.65
189.667	36
189.888	17.37
190.109	28.38
190.33	-5.7
190.551	30.21
190.772	36.03
190.993	26.28
191.214	27.4
191.434	30.3
191.655	41.8
191.876	37.24
192.097	-0.03
192.318	34.36
192.538	37.57
192.759	24.91
192.98	42.42
193.201	69.6
193.421	44.74
193.642	25.13
193.863	22.66
194.083	14.77
194.304	8.42
194.525	36.37
194.745	38.94
194.966	8.48
195.187	4.94
195.407	12.11
195.628	-42.82
195.848	6.31
196.069	79.08
196.29	47.89
196.51	35.12
196.731	46.09
196.951	25.77
197.172	-6.62
197.392	5.63
197.613	8.05
197.833	9.42
198.054	2.71
198.274	18.04
198.495	15.93
198.715	-3.57
198.936	12.45
199.156	47.27
199.377	55.99
199.597	100.06
199.817	88.69
200.038	68.64
200.258	48.24
200.479	37.5
200.699	-5.48
200.919	46.34
201.14	29.01
201.36	41.97
201.58	42.45
201.801	38.65
202.021	39.59
202.241	61.37
202.461	61.94
202.682	60.54
202.902	82.94
203.122	65.31
203.342	76.86
203.563	84.85
203.783	98.74
204.003	99.45
204.223	123.78
204.443	83.48
204.663	42.78
204.884	18.44
205.104	32.15
205.324	35.81
205.544	39.65
205.764	62.77
205.984	96.9
206.204	94.42
206.424	76.38
206.644	61.98
206.864	55.3
207.084	15.12
207.304	25.2
207.525	28.99
207.745	31.88
207.964	27.68
208.184	29.12
208.404	3.36
208.624	29.36
208.844	48.45
209.064	60.89
209.284	62.55
209.504	56.02
209.724	65.9
209.944	64.93
210.164	54.57
210.384	59.51
210.604	67.34
210.823	46.34
211.043	30.58
211.263	43.13
211.483	14.68
211.703	-10.64
211.922	13.79
212.142	43.16
212.362	53.28
212.582	63.25
212.801	74.12
213.021	59.17
213.241	38.85
213.461	24.16
213.68	1.28
213.9	-3.41
214.12	12.22
214.339	-10.5
214.559	-2.78
214.779	21.01
214.998	4.37
215.218	-5.42
215.438	23.98
215.657	22.56
215.877	26.1
216.096	37.11
216.316	39.48
216.535	53.36
216.755	13.11
216.974	2.35
217.194	3.85
217.413	41.16
217.633	51.25
217.852	52.21
218.072	54.76
218.291	52.6
218.511	42.84
218.73	25.81
218.95	35.04
219.169	36.66
219.389	40.45
219.608	28.2
219.827	32.52
220.047	44.9
220.266	28.79
220.485	34.22
220.705	31.7
220.924	21.67
221.143	9.99
221.363	7.87
221.582	-23.97
221.801	-25.23
222.021	35.16
222.24	27.41
222.459	55.69
222.678	59.79
222.897	51.13
223.117	31.83
223.336	29.17
223.555	12.95
223.774	15.63
223.993	23.03
224.213	45.48
224.432	64.51
224.651	64.16
224.87	44.47
225.089	39.22
225.308	36.65
225.527	21.33
225.746	20.58
225.965	28.86
226.184	24.14
226.404	18.08
226.623	32.92
226.842	34.9
227.061	39.28
227.28	62.26
227.499	96.23
227.718	91.15
227.936	40.22
228.155	28.32
228.374	-21.28
228.593	-22.31
228.812	-3.71
229.031	-1.99
229.25	23.07
229.469	39.09
229.688	24.88
229.907	26.83
230.125	30.56
230.344	26.35
230.563	46.77
230.782	66.6
231.001	43.09
231.22	42.69
231.438	33.77
231.657	10.54
231.876	11.44
232.095	23.79
232.313	34.43
232.532	22.76
232.751	29.42
232.969	49
233.188	81.55
233.407	49.29
233.625	53.97
233.844	51.26
234.063	29.63
234.281	-20.69
234.5	6.32
234.719	25.59
234.937	18.17
235.156	7.45
235.374	44.82
235.593	35.12
235.811	22.31
236.03	19.74
236.249	30.57
236.467	27.26
236.686	42.37
236.904	23.44
237.123	37.65
237.341	34.12
237.559	16.62
237.778	14.52
237.996	37.99
238.215	33.27
238.433	39.68
238.652	56.84
238.87	47
239.088	51.23
239.307	45.13
239.525	34.01
239.743	18.61
239.962	17.55
240.18	21.14
240.398	34.85
240.617	26.04
240.835	41.04
241.053	55.96
241.271	39.21
241.49	33.26
241.708	40.75
241.926	12.44
242.144	-15.99
242.363	8.08
242.581	0.49
242.799	-1.85
243.017	30.13
243.235	41.16
243.453	36.33
243.672	21.99
243.89	27.56
244.108	33.07
244.326	63.04
244.544	46.83
244.762	63.11
244.98	50.99
245.198	38.57
245.416	14.16
245.634	24.79
245.852	37.41
246.07	39.34
246.288	39.21
246.506	48.41
246.724	44.63
246.942	44.34
247.16	50.54
247.378	51.14
247.596	44.95
247.814	29.07
248.032	24.33
248.25	22.27
248.468	16.81
248.685	29.2
248.903	43.15
249.121	29.48
249.339	9.04
249.557	17.63
249.775	1.86
249.992	-0.67
250.21	10.89
250.428	49.84
250.646	43.05
250.863	53.82
251.081	33.61
251.299	48.04
251.517	29.33
251.734	44.73
251.952	22.31
252.17	43.96
252.387	28
252.605	26.06
252.823	8.89
253.04	33.38
253.258	42.46
253.475	49.82
253.693	56
253.911	67.84
254.128	77.71
254.346	45.63
254.563	41.02
254.781	15.72
254.998	2.39
255.216	-45.78
255.433	-5.53
255.651	-6.54
255.868	1.73
256.086	13.3
256.303	28.51
256.521	30.81
256.738	28.81
256.956	33.43
257.173	26.33
257.39	40.21
257.608	34
257.825	60.57
258.043	52.32
258.26	48.2
258.477	39.12
258.695	24.1
258.912	-1.9
259.129	-4.01
259.346	3.74
259.564	-10.43
259.781	-5.91
259.998	20.47
260.216	25.75
260.433	39.42
260.65	40.33
260.867	57.37
261.084	61.38
261.302	66.91
261.519	50.25
261.736	44.93
261.953	50.01
262.17	33.04
262.387	31.29
262.604	31.51
262.822	25.93
263.039	14.75
263.256	15.75
263.473	19.72
263.69	3.38
263.907	28.49
264.124	27.37
264.341	32.32
264.558	28.85
264.775	33.27
264.992	22.58
265.209	39.47
265.426	35.92
265.643	44.53
265.86	38.03
266.077	34.27
266.294	28.35
266.51	16.4
266.727	18.03
266.944	36.19
267.161	32.64
267.378	38.26
267.595	46.49
267.812	29.12
268.028	-17.02
268.245	19.48
268.462	0.9
268.679	16.46
268.896	19.06
269.112	44.05
269.329	18.43
269.546	23.45
269.763	26.09
269.979	40.48
270.196	49.3
270.413	65.07
270.629	66.88
270.846	53.04
271.063	38.74
271.279	45.95
271.496	29.47
271.712	38.52
271.929	55.54
272.146	72.02
272.362	56.24
272.579	75.96
272.795	55.92
273.012	28.88
273.228	16.45
273.445	12.77
273.661	-0.21
273.878	6.31
274.094	27.39
274.311	27.42
274.527	32.41
274.744	30.33
274.96	41.49
275.177	30.88
275.393	30.64
275.609	38.21
275.826	29.68
276.042	20.49
276.259	8.41
276.475	24.64
276.691	16.58
276.908	26.16
277.124	28.98
277.34	46.86
277.557	37.82
277.773	33.53
277.989	38.16
278.205	54.33
278.422	37.24
278.638	38.55
278.854	55.52
279.07	55.16
279.286	28.38
279.503	34.21
279.719	40.09
279.935	23.07
280.151	8.27
280.367	30.77
280.583	52.68
280.799	28.37
281.016	34.15
281.232	53.76
281.448	36.81
281.664	39.15
281.88	41.82
282.096	51.53
282.312	34.6
282.528	30
282.744	23.91
282.96	30.1
283.176	20.92
283.392	39.12
283.608	40.47
283.824	22.24
284.04	13.59
284.256	29.71
284.471	-1.03
284.687	6.63
284.903	12.55
285.119	27.41
285.335	6.2
285.551	23.73
285.767	27.72
285.982	31.36
286.198	32.83
286.414	35.36
286.63	38.87
286.846	28.2
287.061	26.27
287.277	33.79
287.493	33.75
287.709	21.9
287.924	39.43
288.14	46.59
288.356	49.79
288.571	53.57
288.787	50.3
289.003	51.11
289.218	23.63
289.434	15.78
289.65	19.62
289.865	35.63
290.081	26.74
290.296	53.55
290.512	50.69
290.727	41.32
290.943	34.55
291.159	27.35
291.374	34.17
291.59	28.14
291.805	24.01
292.021	20.93
292.236	39.94
292.451	17.49
292.667	27.32
292.882	32.87
293.098	35.67
293.313	28.67
293.529	26.42
293.744	30.81
293.959	30.19
294.175	42.58
294.39	34.93
294.605	45.17
294.821	38.9
295.036	29.02
295.251	23.34
295.467	20.81
295.682	19.71
295.897	12.42
296.112	19.76
296.328	22.81
296.543	19.75
296.758	12.84
296.973	16.06
297.188	22.39
297.404	-0.36
297.619	32.22
297.834	21.19
298.049	35
298.264	37.44
298.479	47.12
298.694	27
298.909	34.94
299.125	25.84
299.34	28.68
299.555	22.08
299.77	23.78
299.985	1.65
300.2	14.17
300.415	8.02
300.63	15.73
300.845	5.14
301.06	-4.51
301.275	6.36
301.49	-5.37
301.704	-7.32
301.919	15.27
302.134	30.74
302.349	18.49
302.564	27.8
302.779	23.84
302.994	28.3
303.209	30.46
303.423	21.35
303.638	-2.17
303.853	-1.02
304.068	12.56
304.283	10.48
304.497	29.78
304.712	27.72
304.927	37.98
305.142	3.94
305.356	2.03
305.571	-9.44
305.786	9.84
306	-20.18
306.215	4.56
306.43	9.32
306.644	-10.42
306.859	-23.13
307.074	26.06
307.288	29.95
307.503	38.82
307.717	44.88
307.932	46.39
308.147	38.71
308.361	25.75
308.576	22.46
308.79	12.87
309.005	30.49
309.219	40.3
309.434	48.39
309.648	40.1
309.863	42.97
310.077	33.73
310.292	13.05
310.506	1.89
310.72	18.69
310.935	21.97
311.149	22.29
311.364	36.3
311.578	43.66
311.792	21.5
312.007	25.98
312.221	20.04
312.435	18.34
312.649	20.62
312.864	-105.42
313.078	-67.65
313.292	-35.31
313.507	-12.26
313.721	-32.47
313.935	20.38
314.149	16.66
314.363	11.52
314.578	2.88
314.792	11.01
315.006	27.45
315.22	35.67
315.434	38
315.648	41.04
315.862	36.61
316.077	23.9
316.291	29.44
316.505	35.7
316.719	41.76
316.933	41.98
317.147	58.48
317.361	26.96
317.575	15.17
317.789	11.47
318.003	31.89
318.217	25.55
318.431	33.03
318.645	34.42
318.859	29.25
319.073	4.32
319.287	3.07
319.5	5.38
319.714	18.22
319.928	23.1
320.142	45.27
320.356	63.02
320.57	59.01
320.784	41.36
320.997	30.99
321.211	26.27
321.425	8.63
321.639	3.6
321.853	20.02
322.066	18.99
322.28	11.85
322.494	17.72
322.707	35.16
322.921	35.28
323.135	36.14
323.349	35.1
323.562	11.56
323.776	-1.11
323.989	-4.37
324.203	18.18
324.417	11.23
324.63	24.13
324.844	30.32
325.057	14.63
325.271	-7.52
325.485	-4.53
325.698	6.24
325.912	8.51
326.125	16.04
326.339	13.76
326.552	25.93
326.766	35.43
326.979	41.4
327.193	35.89
327.406	38.87
327.619	21.64
327.833	9.98
328.046	-2.23
328.26	6.08
328.473	12.98
328.686	18.17
328.9	3.69
329.113	-7.86
329.326	-7.95
329.54	-33.11
329.753	-25.62
329.966	10.68
330.179	15.32
330.393	25.77
330.606	30.94
330.819	42.26
331.032	25.2
331.246	20.7
331.459	1.62
331.672	10.12
331.885	10.16
332.098	19.6
332.311	38.73
332.525	53.78
332.738	45.7
332.951	27.69
333.164	36.2
333.377	24.45
333.59	20.12
333.803	32.18
334.016	41.02
334.229	28.02
334.442	40.06
334.655	36.91
334.868	31.64
335.081	36.9
335.294	43.18
335.507	39.59
335.72	46.96
335.933	50.64
336.146	47.06
336.359	46.4
336.572	36.84
336.785	33.69
336.997	26.26
337.21	35.65
337.423	27.41
337.636	32.11
337.849	31.25
338.062	26.42
338.274	21.37
338.487	33.12
338.7	24.31
338.913	5.09
339.125	18.14
339.338	10.82
339.551	1.93
339.763	5.2
339.976	2.02
340.189	-3.47
340.402	-2.26
340.614	-8.94
340.827	0.21
341.039	9.59
341.252	8.45
341.465	9.18
341.677	31.03
341.89	20.94
342.102	19.45
342.315	25.75
342.527	22.65
342.74	0.64
342.952	-0.83
343.165	9.6
343.377	0.67
343.59	8.44
343.802	31.97
344.015	50.86
344.227	39.97
344.44	44.1
344.652	47.57
344.864	28.32
345.077	16.98
345.289	31.4
345.502	-0.25
345.714	-13.24
345.926	-5.75
346.139	-26.58
346.351	-34.75
346.563	-6.11
346.775	8.14
346.988	4.45
347.2	7.62
347.412	8.22
347.624	17.07
347.837	6.49
348.049	12.49
348.261	14.57
348.473	22.09
348.685	22.72
348.897	33.47
349.11	32.25
349.322	35.58
349.534	51.9
349.746	46.8
349.958	45.43
350.17	32
350.382	36.72
350.594	9.34
350.806	21.18
351.018	10.88
351.23	21.04
351.442	-2.28
351.654	7.35
351.866	-12.12
352.078	7.66
352.29	2.55
352.502	13.65
352.714	16.15
352.926	26.15
353.138	48.08
353.35	35.31
353.561	45.96
353.773	49.78
353.985	56.32
354.197	43.01
354.409	40.28
354.621	21.91
354.832	11.89
355.044	12.49
355.256	9.01
355.468	20.26
355.679	41.27
355.891	41.46
356.103	36.63
356.314	40.5
356.526	37.17
356.738	28.96
356.949	31.59
357.161	31.96
357.373	30.95
357.584	34.96
357.796	55.04
358.008	46.42
358.219	39.7
358.431	18.95
358.642	21.38
358.854	-3.52
359.065	1.42
359.277	2.66
359.488	13.97
359.7	11.94
359.911	22.17
360.123	27.62
360.334	24.41
360.546	23.99
360.757	15.46
360.969	18.66
361.18	15.74
361.391	23.85
361.603	12.7
361.814	40.41
362.025	33.75
362.237	25.72
362.448	21.37
362.659	32.4
362.871	15.98
363.082	24.85
363.293	27.38
363.504	36.08
363.716	22.92
363.927	31.26
364.138	8.67
364.349	11.96
364.56	21.3
364.772	29.14
364.983	20.49
365.194	28
365.405	31.72
365.616	15.84
365.827	14.08
366.038	11
366.25	1.45
366.461	-1.26
366.672	8.94
366.883	16.2
367.094	1.62
367.305	19.65
367.516	23.41
367.727	24.82
367.938	28.96
368.149	32.64
368.36	26.91
368.571	12.17
368.781	-7.65
368.992	-28.27
369.203	-7.45
369.414	-10.86
369.625	5.27
369.836	11.33
370.047	20.89
370.258	17.55
370.468	17.34
370.679	11.23
370.89	13.6
371.101	9.2
371.312	15.13
371.522	33.64
371.733	38.83
371.944	51.26
372.155	59.54
372.365	29.1
372.576	2.21
372.787	14.58
372.997	10.6
373.208	14.54
373.419	21.38
373.629	34.81
373.84	27.11
374.05	12.6
374.261	19.44
374.472	17.73
374.682	0.24
374.893	9.49
375.103	38.54
375.314	31.12
375.524	30.78
375.735	39.67
375.945	38.66
376.156	23.75
376.366	21.22
376.577	28.84
376.787	24.08
376.997	32.15
377.208	29.93
377.418	35.12
377.629	34.11
377.839	35.47
378.049	25.26
378.26	30.08
378.47	34.81
378.68	44.79
378.89	48.23
379.101	55.05
379.311	38.25
379.521	27.31
379.732	24.67
379.942	19.18
380.152	10.61
380.362	29.26
380.572	30.1
380.783	20.48
380.993	30.32
381.203	37.8
381.413	40
381.623	43.36
381.833	54.53
382.043	47.75
382.253	37.17
382.463	34.43
382.674	31.8
382.884	19.78
383.094	4.76
383.304	6.79
383.514	6.32
383.724	12.42
383.934	8.75
384.144	20.82
384.353	23.12
384.563	21.72
384.773	21.61
384.983	21.58
385.193	22.21
385.403	17.17
385.613	18.34
385.823	9.59
386.033	13
386.242	7.05
386.452	10.03
386.662	4.09
386.872	6.86
387.082	5.04
387.291	4.64
387.501	5.45
387.711	7.17
387.921	5.76
388.13	6.84
388.34	11.96
388.55	10.39
388.759	9.16
388.969	11.27
389.179	11.16
389.388	6.33
389.598	7.54
389.807	6.57
390.017	7.29
390.227	10.75
390.436	11.02
390.646	10.4
390.855	10.7
391.065	10.47
391.274	6.28
391.484	4.77
391.693	4.3
391.903	6.1
392.112	6.44
392.322	6.53
392.531	6.37
392.74	5.96
392.95	5.95
393.159	5.53
393.369	7.41
393.578	8.59
393.787	9.4
393.997	7.74
394.206	7.63
394.415	6.43
394.625	6.5
394.834	5.44
395.043	5.57
395.252	6.78
395.462	6.53
395.671	7.47
395.88	8.49
396.089	9.63
396.298	8.47
396.508	8.44
396.717	7.16
396.926	6.54
397.135	6.09
397.344	6.2
397.553	7.01
397.762	7.66
397.971	7.86
398.181	8.27
398.39	8.04
398.599	7.31
398.808	7.31
399.017	7.59
399.226	7.15
399.435	7.17
399.644	7.64
399.853	7.55
400.062	7.44
400.27	8.04
400.479	8.14
400.688	7.91
400.897	7.8
401.106	7.64
401.315	7.36
401.524	7.5
401.733	7.31
401.941	7.6
402.15	7.92
402.359	7.56
402.568	7.53
402.777	7.74
402.985	7.49
403.194	6.87
403.403	7.07
403.612	6.84
403.82	6.86
404.029	6.76
404.238	6.91
404.446	7.01
404.655	7.06
404.864	6.89
405.072	6.94
405.281	7.07
405.489	6.9
405.698	6.94
405.906	6.99
406.115	7
406.324	6.91
406.532	6.79
406.741	6.87
406.949	6.76
407.158	6.8
407.366	6.86
407.574	6.75
407.783	6.57
407.991	6.54
408.2	6.39
408.408	6.19
408.617	6.43
408.825	6.52
409.033	6.57
409.242	6.68
409.45	6.74
409.658	6.59
409.867	6.45
410.075	6.43
410.283	6.36
410.491	6.24
410.7	6.36
410.908	6.48
411.116	6.51
411.324	6.5
411.533	6.64
411.741	6.59
411.949	6.52
412.157	6.43
412.365	6.2
412.573	6.15
412.781	6.13
412.99	6.21
413.198	6.29
413.406	6.5
413.614	6.59
413.822	6.54
414.03	6.47
414.238	6.35
414.446	6.39
414.654	6.24
414.862	6.13
415.07	5.91
415.278	5.96
415.486	5.79
415.694	5.86
415.902	5.93
416.109	6.11
416.317	6.08
416.525	6.12
416.733	6.07
416.941	6.1
417.149	5.95
417.357	5.78
417.564	5.81
417.772	5.79
417.98	5.69
418.188	5.78
418.395	5.85
418.603	5.82
418.811	5.9
419.019	6.1
419.226	6.18
419.434	6.13
419.642	6.08
419.849	5.95
420.057	5.67
420.265	5.53
420.472	5.63
420.68	5.65
420.887	5.68
421.095	5.81
421.302	5.79
421.51	5.73
421.717	5.61
421.925	5.55
422.132	5.47
422.34	5.48
422.547	5.39
422.755	5.53
422.962	5.52
423.17	5.38
423.377	5.38
423.585	5.53
423.792	5.42
423.999	5.56
424.207	5.62
424.414	5.46
424.621	5.46
424.829	5.58
425.036	5.56
425.243	5.69
425.451	5.93
425.658	5.83
425.865	5.68
426.072	5.6
426.28	5.59
426.487	5.68
426.694	5.67
426.901	5.75
427.108	5.7
427.315	5.72
427.523	5.46
427.73	5.59
427.937	5.6
428.144	5.66
428.351	5.66
428.558	5.89
428.765	6.04
428.972	6.04
429.179	5.93
429.386	5.88
429.593	5.83
429.8	5.73
430.007	5.73
430.214	5.98
430.421	6.1
430.628	5.86
430.835	5.84
431.042	5.89
431.249	5.99
431.456	6.04
431.662	6.39
431.869	6.52
432.076	6.52
432.283	6.47
432.49	6.28
432.697	6.2
432.903	5.99
433.11	5.97
433.317	5.78
433.524	6.06
433.73	5.98
433.937	6.08
434.144	6.13
434.35	6.27
434.557	6.06
434.764	6.09
434.97	6.09
435.177	6.2
435.384	6.09
435.59	6.17
435.797	6.15
436.003	6.09
436.21	5.89
436.416	5.98
436.623	6.01
436.829	6.05
437.036	6.1
437.242	6.24
437.449	6.31
437.655	6.29
437.862	6.31
438.068	6.26
438.275	6.29
438.481	6.3
438.687	6.23
438.894	6.2
439.1	6.32
439.307	6.32
439.513	6.2
439.719	6.2
439.926	6.15
440.132	6.13
440.338	6.03
440.544	6.03
440.751	6.08
440.957	6.19
441.163	6.15
441.369	6.42
441.575	6.41
441.782	6.41
441.988	6.44
442.194	6.51
442.4	6.27
442.606	6.58
442.812	6.59
443.018	6.49
443.224	6.56
443.431	6.52
443.637	6.24
443.843	6.3
444.049	6.35
444.255	6.19
444.461	6.26
444.667	6.32
444.873	6.18
445.079	6.24
445.284	6.34
445.49	6.22
445.696	6.17
445.902	6.25
446.108	6.2
446.314	6.26
446.52	6.47
446.726	6.56
446.931	6.58
447.137	6.61
447.343	6.5
447.549	6.35
447.755	6.25
447.96	6.38
448.166	6.31
448.372	6.35
448.578	6.56
448.783	6.64
448.989	6.68
449.195	6.66
449.4	6.71
449.606	6.51
449.812	6.41
450.017	6.3
450.223	6.35
450.428	6.33
450.634	6.43
450.84	6.64
451.045	6.62
451.251	6.69
451.456	6.82
451.662	6.76
451.867	6.66
452.073	6.63
452.278	6.62
452.483	6.6
452.689	6.72
452.894	6.67
453.1	6.76
453.305	6.74
453.51	6.66
453.716	6.6
453.921	6.65
454.127	6.69
454.332	6.62
454.537	6.66
454.742	6.7
454.948	6.61
455.153	6.54
455.358	6.58
455.563	6.65
455.769	6.55
455.974	6.62
456.179	6.49
456.384	6.47
456.589	6.45
456.795	6.54
457	6.56
457.205	6.75
457.41	6.83
457.615	6.79
457.82	6.89
458.025	6.88
458.23	6.88
458.435	6.85
458.64	6.87
458.845	6.93
459.05	6.98
459.255	6.91
459.46	6.96
459.665	6.99
459.87	6.78
460.075	6.75
460.28	6.71
460.485	6.7
460.69	6.65
460.895	6.67
461.099	6.69
461.304	6.79
461.509	6.71
461.714	6.61
461.919	6.61
462.123	6.61
462.328	6.68
462.533	6.8
462.738	6.9
462.942	6.93
463.147	7
463.352	7
463.556	6.99
463.761	6.89
463.966	7
464.17	7.06
464.375	7.03
464.58	6.95
464.784	7.12
464.989	6.99
465.193	6.87
465.398	6.89
465.602	7.05
465.807	6.98
466.011	7.1
466.216	7.11
466.42	7.08
466.625	7.06
466.829	7.14
467.034	7.16
467.238	7.24
467.443	7.2
467.647	7.06
467.851	7.02
468.056	6.95
468.26	6.88
468.464	6.99
468.669	7.17
468.873	7.21
469.077	7.28
469.282	7.32
469.486	7.24
469.69	7.13
469.894	7.05
470.099	7.06
470.303	7.09
470.507	7.08
470.711	7.1
470.915	7.18
471.119	7.17
471.324	7.23
471.528	7.24
471.732	7.3
471.936	7.28
472.14	7.26
472.344	7.3
472.548	7.28
472.752	7.34
472.956	7.38
473.16	7.33
473.364	7.26
473.568	7.36
473.772	7.28
473.976	7.24
474.18	7.4
474.384	7.35
474.588	7.28
474.792	7.29
474.995	7.36
475.199	7.26
475.403	7.31
475.607	7.34
475.811	7.35
476.015	7.33
476.218	7.36
476.422	7.44
476.626	7.41
476.83	7.4
477.033	7.44
477.237	7.46
477.441	7.35
477.644	7.39
477.848	7.38
478.052	7.33
478.255	7.3
478.459	7.24
478.663	7.29
478.866	7.25
479.07	7.23
479.273	7.17
479.477	7.25
479.681	7.27
479.884	7.31
480.088	7.27
480.291	7.39
480.495	7.39
480.698	7.32
480.901	7.33
481.105	7.36
481.308	7.28
481.512	7.29
481.715	7.26
481.919	7.28
482.122	7.34
482.325	7.4
482.529	7.42
482.732	7.46
482.935	7.38
483.138	7.33
483.342	7.23
483.545	7.28
483.748	7.31
483.952	7.39
484.155	7.47
484.358	7.47
484.561	7.41
484.764	7.37
484.967	7.36
485.171	7.26
485.374	7.28
485.577	7.29
485.78	7.24
485.983	7.29
486.186	7.29
486.389	7.35
486.592	7.27
486.795	7.3
486.998	7.24
487.201	7.27
487.404	7.26
487.607	7.35
487.81	7.29
488.013	7.28
488.216	7.29
488.419	7.27
488.622	7.25
488.825	7.28
489.028	7.28
489.231	7.26
489.433	7.24
489.636	7.19
489.839	7.21
490.042	7.17
490.245	7.09
490.447	7.1
490.65	7.21
490.853	7.17
491.056	7.23
491.258	7.26
491.461	7.26
491.664	7.18
491.866	7.21
492.069	7.17
492.272	7.16
492.474	7.1
492.677	7.09
492.879	7.05
493.082	7.15
493.285	7.15
493.487	7.23
493.69	7.24
493.892	7.21
494.095	7.09
494.297	7.1
494.5	7.1
494.702	7.14
494.905	7.23
495.107	7.24
495.309	7.26
495.512	7.16
495.714	7.21
495.917	7.22
496.119	7.25
496.321	7.25
496.524	7.32
496.726	7.22
496.928	7.19
497.13	7.16
497.333	7.24
497.535	7.25
497.737	7.23
497.939	7.27
498.142	7.32
498.344	7.3
498.546	7.19
498.748	7.31
498.95	7.33
499.152	7.32
499.355	7.32
499.557	7.4
499.759	7.32
499.961	7.25
500.163	7.23
500.365	7.22
500.567	7.23
500.769	7.19
500.971	7.2
501.173	7.17
501.375	7.12
501.577	7.11
501.779	7.11
501.981	7.09
502.183	7.08
502.385	7.05
502.587	7
502.788	7.01
502.99	7.01
503.192	7.01
503.394	7.03
503.596	7.09
503.798	7.12
503.999	7.18
504.201	7.21
504.403	7.16
504.605	7.18
504.806	7.2
505.008	7.11
505.21	7.19
505.411	7.23
505.613	7.18
505.815	7.19
506.016	7.28
506.218	7.18
506.42	7.22
506.621	7.21
506.823	7.14
507.024	7.06
507.226	7.11
507.427	7.07
507.629	7.06
507.83	7.12
508.032	7.15
508.233	7.18
508.435	7.17
508.636	7.27
508.838	7.24
509.039	7.31
509.24	7.3
509.442	7.35
509.643	7.25
509.845	7.29
510.046	7.27
510.247	7.29
510.448	7.33
510.65	7.35
510.851	7.27
511.052	7.28
511.254	7.19
511.455	7.17
511.656	7.13
511.857	7.16
512.058	7.12
512.26	7.21
512.461	7.14
512.662	7.17
512.863	7.09
513.064	7.08
513.265	6.98
513.466	7.05
513.667	7.06
513.868	7.12
514.069	7.11
514.27	7.16
514.471	7.11
514.672	7.06
514.873	7.05
515.074	7.08
515.275	7.09
515.476	7.04
515.677	7.14
515.878	7.22
516.079	7.16
516.28	7.16
516.481	7.22
516.682	7.23
516.882	7.12
517.083	7.21
517.284	7.17
517.485	7.08
517.686	7
517.886	7.08
518.087	7.04
518.288	7.03
518.488	7.07
518.689	7.09
518.89	7.06
519.091	7.06
519.291	7.02
519.492	7.06
519.692	7.11
519.893	7.16
520.094	7.18
520.294	7.26
520.495	7.25
520.695	7.23
520.896	7.2
521.096	7.22
521.297	7.23
521.497	7.28
521.698	7.23
521.898	7.22
522.099	7.15
522.299	7.13
522.499	7.13
522.7	7.14
522.9	7.16
523.101	7.19
523.301	7.16
523.501	7.15
523.702	7.2
523.902	7.2
524.102	7.23
524.302	7.3
524.503	7.27
524.703	7.23
524.903	7.25
525.103	7.19
525.304	7.17
525.504	7.19
525.704	7.19
525.904	7.15
526.104	7.19
526.304	7.18
526.504	7.17
526.705	7.15
526.905	7.13
527.105	7.14
527.305	7.18
527.505	7.18
527.705	7.22
527.905	7.25
528.105	7.24
528.305	7.22
528.505	7.25
528.705	7.23
528.905	7.23
529.105	7.24
529.304	7.23
529.504	7.24
529.704	7.24
529.904	7.27
530.104	7.23
530.304	7.24
530.503	7.19
530.703	7.18
530.903	7.16
531.103	7.2
531.303	7.23
531.502	7.31
531.702	7.37
531.902	7.39
532.101	7.37
532.301	7.34
532.501	7.28
532.7	7.28
532.9	7.31
533.1	7.37
533.299	7.39
533.499	7.42
533.698	7.41
533.898	7.37
534.097	7.32
534.297	7.33
534.496	7.34
534.696	7.36
534.895	7.42
535.095	7.45
535.294	7.45
535.494	7.42
535.693	7.4
535.892	7.4
536.092	7.39
536.291	7.34
536.491	7.41
536.69	7.41
536.889	7.33
537.088	7.35
537.288	7.4
537.487	7.37
537.686	7.38
537.886	7.45
538.085	7.49
538.284	7.45
538.483	7.45
538.682	7.51
538.882	7.5
539.081	7.58
539.28	7.62
539.479	7.63
539.678	7.58
539.877	7.58
540.076	7.51
540.275	7.53
540.474	7.53
540.673	7.54
540.872	7.57
541.071	7.51
541.27	7.6
541.469	7.67
541.668	7.75
541.867	7.82
542.066	7.97
542.265	7.93
542.464	7.9
542.663	7.96
542.862	8.02
543.06	8.01
543.259	8.15
543.458	8.19
543.657	8.18
543.856	8.16
544.054	8.18
544.253	8.03
544.452	8.12
544.651	8.13
544.849	8.1
545.048	8.09
545.247	8.18
545.445	8.14
545.644	8.17
545.843	8.18
546.041	8.22
546.24	8.28
546.438	8.28
546.637	8.28
546.836	8.4
547.034	8.4
547.233	8.41
547.431	8.5
547.63	8.57
547.828	8.52
548.027	8.53
548.225	8.49
548.423	8.46
548.622	8.43
548.82	8.46
549.019	8.55
549.217	8.59
549.415	8.65
549.614	8.71
549.812	8.71
550.01	8.73
550.209	8.87
550.407	8.93
550.605	8.94
550.803	8.97
551.002	9.02
551.2	9.01
551.398	9.02
551.596	9.03
551.794	9.1
551.993	9.15
552.191	9.11
552.389	9.16
552.587	9.21
552.785	9.27
552.983	9.28
553.181	9.43
553.379	9.54
553.577	9.56
553.775	9.68
553.973	9.77
554.171	9.75
554.369	9.79
554.567	9.88
554.765	9.83
554.963	9.88
555.161	9.86
555.359	9.85
555.557	9.95
555.755	10.08
555.952	10.1
556.15	10.25
556.348	10.38
556.546	10.43
556.744	10.44
556.941	10.54
557.139	10.66
557.337	10.76
557.535	10.78
557.732	10.8
557.93	10.86
558.128	10.83
558.325	10.8
558.523	10.83
558.721	10.9
558.918	10.91
559.116	11.01
559.313	11.09
559.511	11.23
559.708	11.31
559.906	11.48
560.104	11.51
560.301	11.57
560.498	11.59
560.696	11.69
560.893	11.68
561.091	11.81
561.288	11.87
561.486	12.01
561.683	12.08
561.88	12.18
562.078	12.3
562.275	12.44
562.473	12.49
562.67	12.59
562.867	12.67
563.064	12.71
563.262	12.79
563.459	12.84
563.656	12.95
563.853	13.07
564.051	13.12
564.248	13.25
564.445	13.35
564.642	13.35
564.839	13.44
565.036	13.51
565.234	13.56
565.431	13.62
565.628	13.73
565.825	13.77
566.022	13.91
566.219	13.89
566.416	13.97
566.613	14.11
566.81	14.19
567.007	14.19
567.204	14.3
567.401	14.4
567.598	14.43
567.795	14.53
567.991	14.58
568.188	14.66
568.385	14.7
568.582	14.74
568.779	14.73
568.976	14.79
569.172	14.95
569.369	15.05
569.566	15.09
569.763	15.15
569.96	15.27
570.156	15.17
570.353	15.15
570.55	15.15
570.746	15.22
570.943	15.19
571.14	15.27
571.336	15.33
571.533	15.44
571.729	15.46
571.926	15.61
572.123	15.57
572.319	15.65
572.516	15.76
572.712	15.82
572.909	15.76
573.105	15.87
573.302	15.91
573.498	15.9
573.695	15.95
573.891	16.06
574.087	16.08
574.284	16.15
574.48	16.24
574.677	16.22
574.873	16.22
575.069	16.25
575.266	16.23
575.462	16.11
575.658	16.23
575.854	16.32
576.051	16.34
576.247	16.4
576.443	16.54
576.639	16.5
576.835	16.45
577.032	16.41
577.228	16.4
577.424	16.41
577.62	16.42
577.816	16.41
578.012	16.41
578.208	16.38
578.404	16.38
578.6	16.39
578.796	16.44
578.993	16.53
579.189	16.45
579.384	16.37
579.58	16.27
579.776	16.22
579.972	16.11
580.168	16.12
580.364	16.12
580.56	16.17
580.756	16.15
580.952	16.11
581.148	16.2
581.343	16.27
581.539	16.25
581.735	16.33
581.931	16.38
582.127	16.29
582.322	16.29
582.518	16.34
582.714	16.31
582.909	16.22
583.105	16.29
583.301	16.3
583.496	16.23
583.692	16.11
583.888	16.19
584.083	16.14
584.279	16.1
584.474	16
584.67	15.98
584.866	15.95
585.061	15.91
585.257	15.89
585.452	16.07
585.648	16.19
585.843	16.18
586.039	16.28
586.234	16.21
586.429	16.07
586.625	16
586.82	16.07
587.015	16.04
587.211	16.02
587.406	16.03
587.601	16.05
587.797	16
587.992	15.94
588.187	15.96
588.383	15.92
588.578	15.98
588.773	15.95
588.968	15.97
589.163	16.07
589.359	16.13
589.554	16.13
589.749	16.18
589.944	16.19
590.139	16.13
590.334	16.15
590.529	16.1
590.724	16.12
590.919	16.12
591.114	16.17
591.309	16.17
591.504	16.27
591.699	16.25
591.894	16.28
592.089	16.31
592.284	16.37
592.479	16.42
592.674	16.41
592.869	16.49
593.064	16.61
593.259	16.63
593.454	16.48
593.648	16.59
593.843	16.64
594.038	16.61
594.233	16.65
594.428	16.79
594.622	16.86
594.817	16.92
595.012	16.94
595.206	16.97
595.401	17.06
595.596	17.16
595.79	17.14
595.985	17.25
596.18	17.35
596.374	17.42
596.569	17.44
596.763	17.54
596.958	17.54
597.153	17.59
597.347	17.61
597.542	17.6
597.736	17.63
597.931	17.74
598.125	17.8
598.319	17.94
598.514	17.99
598.708	18.13
598.903	18.2
599.097	18.23
599.291	18.22
599.486	18.35
599.68	18.25
599.874	18.18
600.069	18.27
600.263	18.22
600.457	18.25
600.651	18.4
600.846	18.46
601.04	18.45
601.234	18.48
601.428	18.5
601.622	18.53
601.817	18.61
602.011	18.66
602.205	18.8
602.399	18.81
602.593	18.79
602.787	18.69
602.981	18.67
603.175	18.65
603.369	18.61
603.563	18.59
603.757	18.7
603.951	18.7
604.145	18.66
604.339	18.76
604.533	18.72
604.727	18.67
604.921	18.63
605.115	18.59
605.309	18.41
605.502	18.41
605.696	18.3
605.89	18.33
606.084	18.34
606.278	18.33
606.471	18.24
606.665	18.17
606.859	18.05
607.053	17.94
607.246	17.93
607.44	17.89
607.634	17.94
607.827	17.97
608.021	17.86
608.214	17.76
608.408	17.76
608.602	17.73
608.795	17.56
608.989	17.62
609.182	17.54
609.376	17.45
609.569	17.29
609.763	17.28
609.956	17.24
610.15	17.19
610.343	17.15
610.537	17.11
610.73	17
610.923	16.85
611.117	16.82
611.31	16.73
611.504	16.68
611.697	16.63
611.89	16.62
612.083	16.54
612.277	16.48
612.47	16.45
612.663	16.5
612.856	16.41
613.05	16.38
613.243	16.31
613.436	16.24
613.629	16.15
613.822	16.09
614.015	16.04
614.209	15.9
614.402	15.85
614.595	15.75
614.788	15.63
614.981	15.51
615.174	15.49
615.367	15.44
615.56	15.32
615.753	15.36
615.946	15.28
616.139	15.32
616.332	15.3
616.525	15.3
616.718	15.13
616.911	15.14
617.103	15.08
617.296	14.87
617.489	14.76
617.682	14.84
617.875	14.8
618.067	14.69
618.26	14.75
618.453	14.75
618.646	14.65
618.838	14.61
619.031	14.56
619.224	14.52
619.417	14.51
619.609	14.41
619.802	14.33
619.994	14.3
620.187	14.23
620.38	14.18
620.572	14.19
620.765	14.24
620.957	14.27
621.15	14.27
621.342	14.25
621.535	14.3
621.727	14.24
621.92	14.13
622.112	14.05
622.305	14.09
622.497	13.96
622.69	13.91
622.882	13.97
623.074	13.99
623.267	13.89
623.459	13.92
623.651	13.85
623.844	13.88
624.036	13.83
624.228	13.87
624.42	13.79
624.613	13.85
624.805	13.7
624.997	13.66
625.189	13.66
625.381	13.71
625.574	13.63
625.766	13.62
625.958	13.65
626.15	13.58
626.342	13.43
626.534	13.46
626.726	13.43
626.918	13.36
627.11	13.37
627.302	13.37
627.494	13.28
627.686	13.23
627.878	13.26
628.07	13.23
628.262	13.22
628.454	13.17
628.646	13.21
628.838	13.22
629.029	13.07
629.221	13.09
629.413	13.1
629.605	12.96
629.797	12.86
629.989	12.9
630.18	12.89
630.372	12.87
630.564	12.87
630.755	12.89
630.947	12.86
631.139	12.73
631.33	12.71
631.522	12.74
631.714	12.72
631.905	12.75
632.097	12.77
632.289	12.74
632.48	12.69
632.672	12.59
632.863	12.51
633.055	12.52
633.246	12.44
633.438	12.42
633.629	12.35
633.821	12.37
634.012	12.35
634.203	12.38
634.395	12.4
634.586	12.58
634.777	12.51
634.969	12.46
635.16	12.55
635.351	12.52
635.543	12.52
635.734	12.44
635.925	12.5
636.117	12.55
636.308	12.58
636.499	12.47
636.69	12.6
636.881	12.64
637.073	12.56
637.264	12.58
637.455	12.58
637.646	12.51
637.837	12.51
638.028	12.45
638.219	12.38
638.41	12.3
638.601	12.24
638.792	12.16
638.983	12.14
639.174	12.1
639.365	12.06
639.556	12.06
639.747	11.94
639.938	12.01
640.129	12.07
640.32	12.13
640.511	12.12
640.701	12.17
640.892	12.08
641.083	12.02
641.274	12.03
641.465	12.11
641.655	12
641.846	12.02
642.037	11.91
642.228	11.88
642.418	11.72
642.609	11.86
642.8	11.75
642.99	11.76
643.181	11.71
643.372	11.8
643.562	11.66
643.753	11.7
643.943	11.74
644.134	11.74
644.324	11.75
644.515	11.75
644.705	11.82
644.896	11.82
645.086	11.74
645.277	11.68
645.467	11.73
645.658	11.67
645.848	11.6
646.038	11.61
646.229	11.61
646.419	11.56
646.61	11.46
646.8	11.44
646.99	11.4
647.18	11.3
647.371	11.3
647.561	11.34
647.751	11.32
647.941	11.3
648.132	11.41
648.322	11.37
648.512	11.36
648.702	11.34
648.892	11.4
649.082	11.34
649.272	11.33
649.462	11.3
649.653	11.4
649.843	11.33
650.033	11.43
650.223	11.46
650.413	11.39
650.603	11.38
650.793	11.43
650.983	11.26
651.172	11.19
651.362	11.15
651.552	11.03
651.742	10.98
651.932	10.9
652.122	10.91
652.312	10.99
652.502	10.82
652.691	10.76
652.881	10.77
653.071	10.73
653.261	10.61
653.45	10.63
653.64	10.42
653.83	10.37
654.019	10.22
654.209	10.14
654.399	10.12
654.588	10.21
654.778	10.2
654.968	10.17
655.157	10.11
655.347	10.01
655.536	9.87
655.726	9.74
655.915	9.68
656.105	9.52
656.294	9.53
656.484	9.4
656.673	9.25
656.863	9.08
657.052	9.03
657.241	8.87
657.431	8.84
657.62	8.74
657.809	8.67
657.999	8.69
658.188	8.66
658.377	8.64
658.567	8.53
658.756	8.41
658.945	8.23
659.134	8.09
659.324	7.98
659.513	7.94
659.702	7.9
659.891	7.91
660.08	7.8
660.269	7.72
660.458	7.68
660.648	7.66
660.837	7.48
661.026	7.42
661.215	7.37
661.404	7.18
661.593	7.13
661.782	7.05
661.971	7.05
662.16	6.98
662.349	7
662.538	6.88
662.726	6.92
662.915	6.89
663.104	6.74
663.293	6.67
663.482	6.7
663.671	6.64
663.86	6.57
664.048	6.63
664.237	6.67
664.426	6.65
664.615	6.62
664.803	6.7
664.992	6.61
665.181	6.67
665.369	6.63
665.558	6.62
665.747	6.57
665.935	6.59
666.124	6.59
666.312	6.54
666.501	6.57
666.69	6.49
666.878	6.42
667.067	6.39
667.255	6.44
667.444	6.54
667.632	6.58
667.82	6.7
668.009	6.74
668.197	6.76
668.386	6.52
668.574	6.61
668.762	6.62
668.951	6.67
669.139	6.67
669.327	6.76
669.516	6.76
669.704	6.8
669.892	6.88
670.08	6.96
670.269	7.02
670.457	7.08
670.645	7.07
670.833	6.97
671.021	7
671.21	7.08
671.398	7.06
671.586	7.14
671.774	7.24
671.962	7.22
672.15	7.36
672.338	7.47
672.526	7.46
672.714	7.4
672.902	7.39
673.09	7.36
673.278	7.34
673.466	7.53
673.654	7.78
673.842	7.82
674.03	7.87
674.218	7.99
674.405	7.95
674.593	7.88
674.781	8.03
674.969	8.06
675.157	8.09
675.344	8.16
675.532	8.27
675.72	8.28
675.908	8.39
676.095	8.42
676.283	8.5
676.471	8.51
676.658	8.66
676.846	8.7
677.033	8.84
677.221	8.92
677.409	8.92
677.596	9.01
677.784	9.07
677.971	9.05
678.159	9.03
678.346	9.03
678.534	9.13
678.721	9.14
678.909	9.18
679.096	9.37
679.283	9.65
679.471	9.6
679.658	9.88
679.846	9.99
680.033	10.04
680.22	9.96
680.408	10.02
680.595	9.99
680.782	10.02
680.969	10.04
681.157	10.15
681.344	10.19
681.531	10.15
681.718	10.3
681.905	10.24
682.093	10.24
682.28	10.39
682.467	10.73
682.654	10.75
682.841	11.03
683.028	11.25
683.215	11.28
683.402	11.22
683.589	11.32
683.776	11.38
683.963	11.45
684.15	11.61
684.337	11.77
684.524	11.91
684.711	11.96
684.898	12.08
685.085	12.15
685.271	12.16
685.458	12.29
685.645	12.36
685.832	12.46
686.019	12.73
686.205	13.09
686.392	13.38
686.579	13.7
686.766	13.8
686.952	14.03
687.139	14.09
687.326	14.11
687.512	14.2
687.699	14.62
687.886	14.75
688.072	15.03
688.259	15.45
688.445	15.88
688.632	16.14
688.818	16.62
689.005	17.04
689.191	17.44
689.378	17.82
689.564	18.21
689.751	18.51
689.937	18.9
690.124	19.36
690.31	19.72
690.496	20.32
690.683	20.81
690.869	21.18
691.055	21.74
691.242	22.42
691.428	22.79
691.614	23.59
691.8	24.19
691.987	24.61
692.173	25.07
692.359	25.77
692.545	26.27
692.731	27
692.918	27.56
693.104	28.13
693.29	28.8
693.476	29.23
693.662	29.71
693.848	30.38
694.034	31.03
694.22	31.28
694.406	32.05
694.592	32.76
694.778	33.51
694.964	34.11
695.15	34.95
695.336	35.59
695.522	36.35
695.708	37.18
695.894	37.85
696.08	38.75
696.265	39.33
696.451	39.92
696.637	40.46
696.823	41.36
697.009	42.07
697.194	42.62
697.38	43.47
697.566	44.12
697.751	44.76
697.937	45.41
698.123	46.34
698.308	46.88
698.494	47.28
698.68	47.98
698.865	48.63
699.051	49.11
699.236	49.89
699.422	50.73
699.607	51.37
699.793	51.95
699.978	52.67
700.164	53.02
700.349	53.97
700.535	54.26
700.72	54.83
700.906	55.47
701.091	55.99
701.276	56.04
701.462	57.16
701.647	57.48
701.832	58.13
702.018	59.02
702.203	59.82
702.388	59.93
702.573	60.14
702.759	60.47
702.944	60.39
703.129	60.82
703.314	61.5
703.499	62.64
703.684	62.81
703.87	63.57
704.055	63.93
704.24	64.13
704.425	64.42
704.61	65.06
704.795	65.28
704.98	65.76
705.165	66.16
705.35	66.54
705.535	66.86
705.72	67.41
705.905	67.53
706.09	67.72
706.275	67.98
706.459	68.32
706.644	68.34
706.829	68.93
707.014	69.65
707.199	70.11
707.384	70.42
707.568	70.98
707.753	71.66
707.938	71.8
708.123	72.18
708.307	72.53
708.492	73.04
708.677	72.75
708.861	72.78
709.046	72.78
709.231	73.11
709.415	72.73
709.6	72.68
709.784	73.16
709.969	73.42
710.153	73.78
710.338	74.21
710.522	75.01
710.707	75.49
710.891	75.78
711.076	75.85
711.26	75.93
711.445	75.82
711.629	75.76
711.813	75.86
711.998	75.58
712.182	75.97
712.366	76.3
712.551	76.39
712.735	76.66
712.919	77.25
713.103	77.84
713.288	77.52
713.472	77.75
713.656	77.97
713.84	77.98
714.024	77.98
714.208	78.72
714.393	78.58
714.577	78.64
714.761	78.9
714.945	78.9
715.129	79.17
715.313	79.79
715.497	79.63
715.681	79.55
715.865	79.59
716.049	79.35
716.233	79.22
716.417	79.58
716.601	79.63
716.785	80.04
716.968	79.92
717.152	80.67
717.336	80.61
717.52	81.07
717.704	80.89
717.888	80.94
718.071	80.33
718.255	80.95
718.439	80.76
718.622	80.99
718.806	81.24
718.99	81.86
719.174	82.03
719.357	82.43
719.541	82.62
719.724	82.84
719.908	82.79
720.092	82.89
720.275	83.17
720.459	83.65
720.642	84.37
720.826	84.18
721.009	83.86
721.193	83.82
721.376	83.72
721.559	83.97
721.743	84.41
721.926	84.78
722.11	84.68
722.293	84.47
722.476	83.8
722.66	83.5
722.843	83.58
723.026	83.91
723.21	84.19
723.393	84.41
723.576	84.82
723.759	84.7
723.942	84.91
724.126	84.93
724.309	85.43
724.492	85.09
724.675	85.42
724.858	85.76
725.041	85.85
725.224	85.85
725.407	86.19
725.59	86.56
725.774	86.2
725.957	86.7
726.14	86.73
726.322	86.6
726.505	86.75
726.688	86.84
726.871	86.56
727.054	86.71
727.237	87.57
727.42	87.66
727.603	87.78
727.786	87.97
727.968	87.46
728.151	87.76
728.334	87.81
728.517	88.77
728.699	89.3
728.882	89.67
729.065	89.3
729.248	89.8
729.43	89.05
729.613	88.75
729.796	89.02
729.978	89.17
730.161	88.88
730.343	89.07
730.526	89.28
730.708	89.95
730.891	89.98
731.073	89.87
731.256	89.55
731.438	89.55
731.621	89.23
731.803	89.69
731.986	89.68
732.168	90.44
732.35	90.42
732.533	90.78
732.715	89.77
732.898	89.8
733.08	89.94
733.262	90.71
733.444	90.71
733.627	91.45
733.809	91.04
733.991	91.54
734.173	91.69
734.355	91.3
734.538	92.23
734.72	92.77
734.902	92.58
735.084	91.99
735.266	93.23
735.448	92.84
735.63	93.22
735.812	93.53
735.994	93.75
736.176	92.61
736.358	92.1
736.54	91.67
736.722	90.83
736.904	91.26
737.086	91.76
737.268	93.1
737.45	94.34
737.632	94.46
737.814	94.38
737.995	94.43
738.177	93.65
738.359	92.79
738.541	94.75
738.723	95.42
738.904	95.29
739.086	95.56
739.268	95.69
739.449	93.73
739.631	93.52
739.813	94.24
739.994	93.92
740.176	94.4
740.358	95.48
740.539	95.56
740.721	95.22
740.902	95.27
741.084	95.36
741.265	94.77
741.447	94.75
741.628	96.34
741.81	96.12
741.991	95.25
742.172	96.58
742.354	95.87
742.535	94.33
742.717	94.08
742.898	94.31
743.079	93.49
743.261	94.46
743.442	95.14
743.623	96.89
743.804	97.2
743.986	96.6
744.167	95.64
744.348	94.55
744.529	95.03
744.71	95.61
744.891	96.54
745.073	97.12
745.254	97.57
745.435	96.19
745.616	96.36
745.797	95.78
745.978	95.99
746.159	95.88
746.34	94.77
746.521	94.4
746.702	94.16
746.883	93.27
747.064	91.88
747.245	93.53
747.426	93.9
747.606	94.35
747.787	95.7
747.968	98.04
748.149	97.25
748.33	95.77
748.51	94.95
748.691	94.46
748.872	93.62
749.053	93.11
749.233	93.26
749.414	93.29
749.595	93.29
749.775	93.17
749.956	94.61
750.137	95.42
750.317	96.4
750.498	95.94
750.678	96.79
750.859	94.91
751.04	95
751.22	94.24
751.4	94.11
751.581	93.56
751.761	93.85
751.942	95.13
752.122	95.57
752.303	94.4
752.483	95.45
752.663	96.14
752.844	94.51
753.024	96.05
753.204	98.14
753.385	96.72
753.565	97.24
753.745	97.17
753.925	96.79
754.106	95.09
754.286	95.64
754.466	95.85
754.646	98.35
754.826	97.12
755.006	98.18
755.187	98.46
755.367	97.16
755.547	95.38
755.727	96.41
755.907	95.52
756.087	96.31
756.267	97.17
756.447	97.22
756.627	96.5
756.807	95.53
756.987	94.7
757.167	94.39
757.346	93.61
757.526	93.02
757.706	94.6
757.886	94.13
758.066	97.17
758.246	98.82
758.425	99.47
758.605	96.78
758.785	98.11
758.965	94.35
759.144	92.9
759.324	91.38
759.504	94.65
759.683	93.92
759.863	95.55
760.043	96.13
760.222	95.75
760.402	95.2
760.581	95.22
760.761	93.41
760.94	94.13
761.12	97.94
761.299	96.58
761.479	95.85
761.658	95.09
761.838	93.34
762.017	90.98
762.197	93.46
762.376	93.9
762.555	94.8
762.735	95.09
762.914	94.45
763.093	93.31
763.273	91.97
763.452	92.46
763.631	93.39
763.81	94.85
763.99	94.36
764.169	96.24
764.348	95.4
764.527	94.04
764.706	93.96
764.885	92.84
765.064	91.27
765.243	91.86
765.423	93.11
765.602	93.54
765.781	95.06
765.96	93.14
766.139	93.99
766.318	92
766.497	90.25
766.676	89.3
766.854	92.93
767.033	90.96
767.212	92.41
767.391	90.9
767.57	92.09
767.749	92.14
767.928	93.81
768.106	90.69
768.285	92.08
768.464	89.99
768.643	88.38
768.821	86.8
769	89.89
769.179	88.83
769.357	89.98
769.536	90.32
769.715	91.3
769.893	90.84
770.072	91.03
770.25	90.43
770.429	88.97
770.607	87.77
770.786	87.55
770.964	86.87
771.143	88.32
771.321	90.63
771.5	92.16
771.678	91.38
771.857	92.6
772.035	91.94
772.213	90.48
772.392	88.74
772.57	89.5
772.748	88.81
772.927	88.21
773.105	86.61
773.283	86.73
773.461	85.75
773.64	85.1
773.818	83.83
773.996	85.94
774.174	86.32
774.352	86
774.531	87.16
774.709	87.49
774.887	87.39
775.065	87.28
775.243	86.86
775.421	85.67
775.599	88.02
775.777	86.18
775.955	85.45
776.133	87.21
776.311	87.46
776.489	88.25
776.667	89.33
776.844	92.67
777.022	91.16
777.2	92.01
777.378	87.89
777.556	87.62
777.734	85.7
777.911	88.87
778.089	88.63
778.267	89.81
778.445	86.12
778.622	86.31
778.8	84.41
778.978	85.92
779.155	86.55
779.333	88.47
779.511	86.23
779.688	83.99
779.866	81.4
780.043	80.11
780.221	82.11
780.398	82.55
780.576	83.91
780.753	82.98
780.931	83.8
781.108	82.06
781.286	84.9
781.463	84.33
781.64	87.34
781.818	89.03
781.995	91.59
782.172	90.11
782.35	89.57
782.527	88.75
782.704	86.06
782.882	83.77
783.059	83.04
783.236	82.73
783.413	83.55
783.59	85.95
783.768	84.09
783.945	83.56
784.122	84.98
784.299	81.97
784.476	80.39
784.653	82.32
784.83	82.94
785.007	81.34
785.184	82.78
785.361	84.01
785.538	85.69
785.715	85.64
785.892	89
786.069	86.91
786.246	87.19
786.423	87.46
786.6	88.96
786.776	88.87
786.953	89.92
787.13	87.68
787.307	84.78
787.484	84.59
787.66	83.39
787.837	86.4
788.014	93.94
788.191	95.47
788.367	95.98
788.544	95.99
788.721	95.76
788.897	90.96
789.074	89.84
789.25	85.51
789.427	84.08
789.603	80.15
789.78	76.9
789.956	77.37
790.133	80.05
790.309	78.44
790.486	84.9
790.662	86.73
790.839	82.5
791.015	79.66
791.192	81.33
791.368	77.39
791.544	76.96
791.721	83.35
791.897	87.69
792.073	88.33
792.249	87.08
792.426	90.14
792.602	92.26
792.778	90.1
792.954	88.81
793.13	90.22
793.307	90.59
793.483	84.58
793.659	86.42
793.835	84.07
794.011	80.51
794.187	76.84
794.363	78.57
794.539	73
794.715	73.74
794.891	76.36
795.067	75.94
795.243	77.98
795.419	85.19
795.595	86.72
795.771	85.79
795.947	84.81
796.122	82.07
796.298	78.76
796.474	78.02
796.65	78.94
796.826	83.26
797.001	85.73
797.177	85.54
797.353	87.4
797.529	89.89
797.704	88.92
797.88	87.47
798.056	88.84
798.231	87.02
798.407	82.8
798.582	81.19
798.758	87.18
798.934	81.82
799.109	83.28
799.285	88.1
799.46	82.53
799.636	83.85
799.811	86.48
799.986	83.8
800.162	86.26
800.337	97.25
800.513	89.04
800.688	91.1
800.863	92.18
801.039	91.69
801.214	88.56
801.389	89.74
801.565	88.21
801.74	90.93
801.915	81.47
802.09	81.23
802.265	77.27
802.441	79.23
802.616	77.48
802.791	79.58
802.966	82.39
803.141	84.48
803.316	81.6
803.491	83.05
803.666	87.14
803.841	82.98
804.016	89.8
804.191	88.72
804.366	95.63
804.541	90.44
804.716	97.04
804.891	82.09
805.066	89.07
805.241	79.37
805.416	80.39
805.591	74.64
805.765	81.88
805.94	78.07
806.115	79.25
806.29	79.24
806.464	82.43
806.639	88.97
806.814	83.29
806.989	77.39
807.163	77.69
807.338	74.43
807.512	63.75
807.687	67.26
807.862	66.75
808.036	63.28
808.211	62.39
808.385	64.83
808.56	66.6
808.734	77.6
808.909	81.26
809.083	77.87
809.258	83.52
809.432	79.99
809.606	69.69
809.781	69.72
809.955	75.22
810.13	74.7
810.304	72.54
810.478	67.46
810.652	81.17
810.827	79.77
811.001	80.22
811.175	91.55
811.349	102.97
811.524	77.37
811.698	75.1
811.872	80.88
812.046	74.55
812.22	80.66
812.394	87.11
812.568	102.41
812.742	99.81
812.916	107.85
813.09	99.5
813.264	109.33
813.438	100.3
813.612	92.9
813.786	80.44
813.96	87.39
814.134	86.58
814.308	85.15
814.482	84.89
814.656	105.12
814.83	107.42
815.003	100.65
815.177	94.29
815.351	103.24
815.525	84.82
815.698	72.06
815.872	70.08
816.046	75.59
816.219	61.79
816.393	62.76
816.567	84.3
816.74	81.68
816.914	70.57
817.088	82.54
817.261	78.71
817.435	76.35
817.608	76.73
817.782	84.91
817.955	78.53
818.129	78.41
818.302	73.15
818.475	74.55
818.649	77.12
818.822	83.75
818.996	85.25
819.169	74.55
819.342	81.21
819.516	77.48
819.689	86.14
819.862	88.19
820.035	89.42
820.209	79.28
820.382	73.42
820.555	63.55
820.728	69.62
820.901	83.9
821.075	88.64
821.248	81.64
821.421	74.04
821.594	75.99
821.767	79.8
821.94	73.6
822.113	87.29
822.286	83.6
822.459	69.61
822.632	54.86
822.805	61.92
822.978	68.07
823.151	85.08
823.324	82.16
823.496	84.35
823.669	82.68
823.842	84.54
824.015	81.32
824.188	88.88
824.361	87.3
824.533	83.37
824.706	81.16
824.879	65.92
825.051	65.81
825.224	58.02
825.397	48.74
825.569	37.78
825.742	44.45
825.915	45.3
826.087	69.78
826.26	70.92
826.432	71.86
826.605	82
826.777	71.05
826.95	66.44
827.122	86.11
827.295	84.49
827.467	88.16
827.64	92.34
827.812	82.76
827.984	82.82
828.157	82.19
828.329	77.17
828.501	75.42
828.674	78.68
828.846	64.98
829.018	76.12
829.19	67.5
829.363	79.31
829.535	62.01
829.707	63.01
829.879	69
830.051	65.67
830.223	67.12
830.395	74.95
830.568	77.69
830.74	57.57
830.912	81.92
831.084	71.03
831.256	66.61
831.428	65.38
831.6	71.03
831.772	44.21
831.943	45.77
832.115	48.65
832.287	62.39
832.459	71.91
832.631	74.28
832.803	80.81
832.975	83.55
833.146	62.94
833.318	36.51
833.49	43.07
833.662	40.16
833.833	38.57
834.005	51.06
834.177	65.39
834.348	56.55
834.52	54.24
834.692	53.22
834.863	54
835.035	57.82
835.206	47.38
835.378	67.75
835.549	67.47
835.721	71.96
835.892	72.42
836.064	74.09
836.235	74.55
836.407	79.19
836.578	83.52
836.749	90.1
836.921	95.49
837.092	91.03
837.264	79.07
837.435	82.56
837.606	60.66
837.777	70.61
837.949	66.26
838.12	74.57
838.291	65.59
838.462	75.41
838.633	70.87
838.805	62.18
838.976	54.14
839.147	52.06
839.318	43.97
839.489	28.1
839.66	37.69
839.831	59.23
840.002	59.87
840.173	62.63
840.344	47.46
840.515	51.98
840.686	24.59
840.857	22.24
841.028	30.89
841.199	56.37
841.369	48.41
841.54	85.43
841.711	75.16
841.882	65.02
842.053	60.44
842.223	65.32
842.394	65.28
842.565	76.29
842.736	93.05
842.906	88.65
843.077	95.95
843.248	83.27
843.418	75.35
843.589	58.52
843.759	90.86
843.93	80.45
844.101	67.25
844.271	90.61
844.442	85.63
844.612	65.43
844.783	75.2
844.953	66
845.123	70.98
845.294	75.21
845.464	90.26
845.635	62.43
845.805	84.19
845.975	62.05
846.146	46.95
846.316	43.05
846.486	53.69
846.656	42.86
846.827	37.69
846.997	43.56
847.167	59.04
847.337	32.9
847.507	51.16
847.677	51.16
847.848	67.68
848.018	55.54
848.188	68.56
848.358	40.07
848.528	26.39
848.698	29.02
848.868	11.31
849.038	9.75
849.208	36.82
849.378	72.42
849.548	79.11
849.718	92.7
849.887	90.76
850.057	87.27
850.227	128.15
850.397	103.45
850.567	102.65
850.737	85.11
850.906	68.36
851.076	32.73
851.246	38.72
851.415	38.58
851.585	28.28
851.755	39.19
851.924	43.54
852.094	28.14
852.264	31.17
852.433	2.97
852.603	-2.93
852.772	20.74
852.942	47.75
853.111	26.03
853.281	51.12
853.45	58.09
853.62	44.34
853.789	12.65
853.959	31.38
854.128	46.2
854.297	53.39
854.467	51.99
854.636	64.74
854.805	74.68
854.975	79.55
855.144	86.46
855.313	46.4
855.482	64.99
855.652	44.75
855.821	55.19
855.99	70.57
856.159	150.1
856.328	119.88
856.497	140.82
856.667	83.99
856.836	81.55
857.005	-7.06
857.174	-22.13
857.343	3.29
857.512	46.49
857.681	38.59
857.85	50.9
858.019	35.94
858.188	28.7
858.356	49.06
858.525	6.46
858.694	24.53
858.863	87.65
859.032	91.37
859.201	72.67
859.369	122.98
859.538	146.48
859.707	83.11
859.876	81.96
860.044	67.28
860.213	48.28
860.382	51.62
860.55	44.08
860.719	83.51
860.888	47.47
861.056	57.59
861.225	52.07
861.393	63.02
861.562	44.02
861.73	63.79
861.899	70.6
862.067	71.33
862.236	78.54
862.404	65.9
862.572	97.39
862.741	55.62
862.909	47.13
863.078	-8.48
863.246	44.73
863.414	73.55
863.582	99.73
863.751	113.64
863.919	142.28
864.087	166.8
864.255	55
864.424	45.4
864.592	10.13
864.76	20.5
864.928	-6.26
865.096	31.83
865.264	39.34
865.432	49.11
865.6	53.47
865.768	30.91
865.936	50.15
866.104	58.35
866.272	69.76
866.44	74.4
866.608	94.54
866.776	43.83
866.944	2.18
867.112	41.09
867.28	-63.2
867.448	42.07
867.615	256.59
867.783	166.67
867.951	79.65
868.119	68.18
868.286	48.55
868.454	-0.04
868.622	3.95
868.789	-7.82
868.957	24.52
869.125	-5.91
869.292	-5.28
869.46	5.53
869.627	38.71
869.795	33.74
869.963	42.33
870.13	55.26
870.298	55.89
870.465	7.62
870.632	21.89
870.8	40.86
870.967	49.03
871.135	30
871.302	111.47
871.469	-38.64
871.637	-9.54
871.804	12.62
871.971	8.93
872.139	20.36
872.306	49.77
872.473	46.71
872.64	43.91
872.807	79.93
872.975	155.23
873.142	189.41
873.309	4676.81
873.476	1073.14
873.643	258.76
873.81	134.62
873.977	77.87
874.144	81.88
874.311	50.41
874.478	34.34
874.645	30.4
874.812	28.5
874.979	33.88
875.146	27.53
875.313	54.27
875.48	134.58
875.647	-258.11
875.813	36.89
875.98	-180.81
876.147	-78.55
876.314	58.04
876.481	44.93
876.647	187.61
876.814	148.18
876.981	199.55
877.147	85.71
877.314	103.48
877.481	68.14
877.647	78.48
877.814	87.58
877.98	116.68
878.147	74.02
878.314	91.43
878.48	97.26
878.647	114.83
878.813	241.09
878.979	162.57
879.146	134.42
879.312	134.44
879.479	104.99
879.645	96.56
879.811	70.14
879.978	61.9
880.144	59.97
880.31	42.58
880.477	37.89
880.643	64.37
880.809	47.61
880.975	-2075.76
881.142	432.15
881.308	1265.33
881.474	-65.98
881.64	59.11
881.806	83.85
881.972	103.62
882.138	98.2
882.304	143.32
882.47	121.29
882.636	84.74
882.802	122.87
882.968	288.5
883.134	93.19
883.3	52.44
883.466	74.95
883.632	59.59
883.798	49.86
883.964	59.76
884.129	136.1
884.295	69.43
884.461	68.87
884.627	63.93
884.793	31.93
884.958	48.39
885.124	52.94
885.29	50.69
885.455	70.93
885.621	53.96
885.787	-11.34
885.952	106.39
886.118	208.77
886.283	-1728.07
886.449	-7.64
886.614	94.48
886.78	96.46
886.945	145.57
887.111	80.67
887.276	67.29
887.442	30.64
887.607	-86.47
887.773	-40.78
887.938	-96.24
888.103	-22.42
888.269	-30.04
888.434	54.15
888.599	67.27
888.764	99.29
888.93	90.03
889.095	102.35
889.26	134.04
889.425	336.65
889.59	-98.07
889.756	253.18
889.921	58.31
890.086	87.41
890.251	38.19
890.416	39.23
890.581	31.96
890.746	114.76
890.911	109.46
891.076	78.09
891.241	102.21
891.406	86.52
891.571	38.6
891.736	53.95
891.901	79.39
892.065	82.66
892.23	156.13
892.395	86.52
892.56	48.28
892.725	120.7
892.889	87.07
893.054	37.26
893.219	46.24
893.384	94.21
893.548	170.22
893.713	-208.64
893.878	-43.98
