Data from Ofav_PS_Phys_356_Reflection_2.txt Node
Date: Thu Jul 29 18:18:05 EDT 2021
User: USUARIO
Spectrometer: FLMT01687
Trigger mode: 0
Integration Time (sec): 9.010000E-1
Scans to average: 2
Electric dark correction enabled: true
Nonlinearity correction enabled: false
Boxcar width: 2
XAxis mode: Wavelengths
Number of Pixels in Spectrum: 3648
>>>>>Begin Spectral Data<<<<<
179.494	-57.78
179.716	-103.6
179.937	-26.64
180.158	514.12
180.38	145.13
180.601	-280.84
180.823	-185.96
181.044	-67.95
181.265	-71.63
181.486	-1140.11
181.708	84.74
181.929	223.99
182.15	9076.19
182.372	-89.25
182.593	-4.93
182.814	49.73
183.035	-230.24
183.257	15.02
183.478	-0.07
183.699	46.38
183.92	57.43
184.141	50.23
184.363	52.77
184.584	71.74
184.805	42.24
185.026	58.98
185.247	50.1
185.468	70.44
185.689	67.77
185.91	103.6
186.132	72.58
186.353	68.95
186.574	64.13
186.795	59.96
187.016	60.16
187.237	38.43
187.458	32.96
187.679	35.02
187.9	25.34
188.121	1.18
188.342	20.17
188.563	31
188.784	28.86
189.005	22.57
189.226	32.28
189.447	39.09
189.667	17.03
189.888	24.84
190.109	59.35
190.33	55.61
190.551	21.65
190.772	41.15
190.993	20.85
191.214	-4.24
191.434	26.31
191.655	37.91
191.876	51.75
192.097	39.26
192.318	59.2
192.538	30.93
192.759	36.72
192.98	26.8
193.201	41.24
193.421	48.7
193.642	55.73
193.863	27.45
194.083	5.23
194.304	6.37
194.525	-4.98
194.745	-10.98
194.966	1.14
195.187	5.79
195.407	-14.38
195.628	-29.13
195.848	9.1
196.069	68.55
196.29	67.58
196.51	83.35
196.731	65.44
196.951	47.93
197.172	7.65
197.392	-0.49
197.613	-2.93
197.833	-34.29
198.054	-10.44
198.274	-7.45
198.495	4.84
198.715	-32.47
198.936	18.53
199.156	23.44
199.377	17.36
199.597	8.44
199.817	42.93
200.038	34.14
200.258	20.93
200.479	12.03
200.699	-8.45
200.919	12.28
201.14	-2.89
201.36	2.2
201.58	15.08
201.801	24.98
202.021	39.57
202.241	44.57
202.461	49.85
202.682	38.35
202.902	48.99
203.122	11.26
203.342	10.88
203.563	19.75
203.783	37.38
204.003	15.48
204.223	23.14
204.443	9.83
204.663	3.27
204.884	4.5
205.104	-0.38
205.324	1.54
205.544	28.71
205.764	31.24
205.984	49.77
206.204	73.87
206.424	99.8
206.644	75.01
206.864	74.54
207.084	39.15
207.304	37.78
207.525	5.89
207.745	15.9
207.964	15.83
208.184	21.65
208.404	0.69
208.624	17.16
208.844	48.43
209.064	51.08
209.284	74.67
209.504	66.89
209.724	79.54
209.944	71.67
210.164	79.77
210.384	60.39
210.604	62.09
210.823	55.81
211.043	39.05
211.263	37.27
211.483	18.45
211.703	3.91
211.922	-2.3
212.142	10.96
212.362	10.62
212.582	41.47
212.801	41.22
213.021	36.05
213.241	28.67
213.461	14.56
213.68	-30.27
213.9	6.21
214.12	21.56
214.339	5.77
214.559	-10.15
214.779	12.38
214.998	-37.09
215.218	-45.11
215.438	2.44
215.657	32.03
215.877	45.48
216.096	61.76
216.316	56.43
216.535	83.13
216.755	28.74
216.974	-19.89
217.194	-50.13
217.413	-22.58
217.633	-3.26
217.852	-2.1
218.072	24.9
218.291	26.64
218.511	46.05
218.73	32.34
218.95	39.35
219.169	35.57
219.389	30.16
219.608	15.53
219.827	-4.33
220.047	7.76
220.266	-7.7
220.485	9.71
220.705	1.3
220.924	-7.05
221.143	-8.17
221.363	-14.56
221.582	-45.82
221.801	-61.01
222.021	0.38
222.24	-6.6
222.459	3.28
222.678	23.56
222.897	21.62
223.117	20.77
223.336	14.22
223.555	-8.53
223.774	-10.27
223.993	-16.07
224.213	-14.2
224.432	0.99
224.651	34.96
224.87	24.75
225.089	27.53
225.308	24.13
225.527	21.1
225.746	-16.23
225.965	-5.88
226.184	-25.46
226.404	-33.87
226.623	13.73
226.842	38.16
227.061	19.35
227.28	64.28
227.499	114.69
227.718	89.7
227.936	66.3
228.155	61.56
228.374	20.62
228.593	5.77
228.812	-0.25
229.031	-0.29
229.25	8.27
229.469	23.83
229.688	22.78
229.907	43.35
230.125	27.25
230.344	39.16
230.563	24.85
230.782	36.74
231.001	15.63
231.22	41.47
231.438	29.82
231.657	29.22
231.876	26.53
232.095	18.35
232.313	6.71
232.532	8.1
232.751	2.3
232.969	2.23
233.188	2.4
233.407	13.22
233.625	12.44
233.844	30.14
234.063	21.21
234.281	1.86
234.5	-31.8
234.719	-25.65
234.937	-46.6
235.156	-56.69
235.374	3.5
235.593	32.24
235.811	30.55
236.03	17.65
236.249	20.22
236.467	10.55
236.686	8.68
236.904	18.16
237.123	31.76
237.341	33.03
237.559	35.98
237.778	42.94
237.996	49.28
238.215	62.07
238.433	65.17
238.652	63.59
238.87	51.35
239.088	44.67
239.307	20.89
239.525	20.39
239.743	20.96
239.962	32.97
240.18	29.62
240.398	31.18
240.617	14.13
240.835	-3.5
241.053	-5.88
241.271	-10.84
241.49	12.81
241.708	24.36
241.926	33.64
242.144	17.41
242.363	21.83
242.581	8
242.799	11.2
243.017	18.5
243.235	22.94
243.453	21.32
243.672	18.65
243.89	7.45
244.108	9.08
244.326	21.38
244.544	3.26
244.762	13.78
244.98	29.39
245.198	16.64
245.416	-10.04
245.634	4.59
245.852	18.41
246.07	15.97
246.288	26.51
246.506	36.71
246.724	39.59
246.942	23.43
247.16	29.77
247.378	11.86
247.596	6.57
247.814	-1.19
248.032	-2.84
248.25	-7.84
248.468	-4.76
248.685	-3.36
248.903	2.32
249.121	3.35
249.339	-6.78
249.557	6.78
249.775	15.18
249.992	5.63
250.21	-0.45
250.428	24.13
250.646	10.07
250.863	14.51
251.081	26.57
251.299	43.27
251.517	36.91
251.734	63.09
251.952	63.67
252.17	42.11
252.387	32.98
252.605	39.09
252.823	24.27
253.04	42.64
253.258	50.08
253.475	41.53
253.693	44.31
253.911	42.15
254.128	35.01
254.346	53.07
254.563	70.21
254.781	52.78
254.998	53.38
255.216	41.02
255.433	27.93
255.651	12.66
255.868	14.09
256.086	5.81
256.303	2.99
256.521	-4.87
256.738	-6.04
256.956	-5.4
257.173	3.31
257.39	26.44
257.608	29.32
257.825	51.97
258.043	43.04
258.26	20.38
258.477	-0.48
258.695	-12.18
258.912	-20.57
259.129	-14.6
259.346	7.98
259.564	1.73
259.781	7.31
259.998	3.95
260.216	20.84
260.433	18.22
260.65	19.66
260.867	25.72
261.084	20.43
261.302	8.63
261.519	14.8
261.736	22.54
261.953	10.1
262.17	31.59
262.387	28.39
262.604	28.68
262.822	13.59
263.039	13.52
263.256	2.39
263.473	12.55
263.69	-18.42
263.907	7.61
264.124	12.5
264.341	13.79
264.558	9.44
264.775	22.62
264.992	20.74
265.209	22.81
265.426	26.52
265.643	37.32
265.86	51.57
266.077	56.93
266.294	58.25
266.51	42.98
266.727	37.56
266.944	38.22
267.161	21.16
267.378	15.25
267.595	36.11
267.812	34.97
268.028	1.04
268.245	22.25
268.462	34.23
268.679	29.59
268.896	18.46
269.112	21.85
269.329	21.79
269.546	22.28
269.763	16.27
269.979	21.87
270.196	35.67
270.413	27.97
270.629	32.14
270.846	32.57
271.063	39.75
271.279	45.93
271.496	33.82
271.712	27.65
271.929	23.3
272.146	29.58
272.362	20.52
272.579	48.86
272.795	48.49
273.012	47.93
273.228	33.61
273.445	35.42
273.661	22.7
273.878	10.1
274.094	30.05
274.311	32.05
274.527	20.53
274.744	35.05
274.96	43.81
275.177	31.84
275.393	33.37
275.609	22.33
275.826	-9.57
276.042	-9.58
276.259	-14.37
276.475	-27.93
276.691	12.13
276.908	19.18
277.124	21.24
277.34	16.54
277.557	13.04
277.773	2.5
277.989	-1.6
278.205	-8.27
278.422	-5.27
278.638	-9.82
278.854	-19.21
279.07	13.18
279.286	9.43
279.503	5.73
279.719	22.7
279.935	29.44
280.151	-11.08
280.367	1.38
280.583	29.49
280.799	13.46
281.016	0.41
281.232	20.82
281.448	5.18
281.664	-7.51
281.88	-16.06
282.096	-2.59
282.312	-18.78
282.528	-9.39
282.744	-2.59
282.96	23.98
283.176	-6.86
283.392	24.98
283.608	5.16
283.824	-4.51
284.04	-9.16
284.256	16.74
284.471	-12.68
284.687	-6.93
284.903	-14.97
285.119	7.07
285.335	2.68
285.551	20.45
285.767	37.19
285.982	41.24
286.198	26.3
286.414	22.39
286.63	23.92
286.846	20.94
287.061	9.25
287.277	24.65
287.493	19.8
287.709	-0.03
287.924	2.1
288.14	5.07
288.356	6.97
288.571	19.36
288.787	21.46
289.003	27.15
289.218	20.81
289.434	7.54
289.65	-0.54
289.865	14.44
290.081	1.68
290.296	16.83
290.512	16.76
290.727	37.34
290.943	23.44
291.159	36.61
291.374	38.53
291.59	28.4
291.805	4.78
292.021	7.87
292.236	1.49
292.451	-25.54
292.667	-5.18
292.882	-6.85
293.098	-10.85
293.313	-9.3
293.529	10.64
293.744	4.9
293.959	6.72
294.175	28.32
294.39	25.05
294.605	21.1
294.821	26.64
295.036	35.61
295.251	18.41
295.467	22.77
295.682	13.55
295.897	5.83
296.112	7.05
296.328	21.23
296.543	9.39
296.758	15.03
296.973	21.62
297.188	33.15
297.404	10.8
297.619	21.83
297.834	23.64
298.049	24.29
298.264	26.97
298.479	44.3
298.694	32.93
298.909	34.41
299.125	21.26
299.34	16.54
299.555	-20.2
299.77	-3.29
299.985	-22.07
300.2	-13.07
300.415	-5.86
300.63	14.36
300.845	-6.99
301.06	2.88
301.275	13.49
301.49	-12.01
301.704	-24.58
301.919	11.99
302.134	18.68
302.349	10.32
302.564	23.75
302.779	31.05
302.994	26.53
303.209	36.32
303.423	45.19
303.638	46.76
303.853	27.29
304.068	32.29
304.283	17.35
304.497	18.85
304.712	-8.28
304.927	6.46
305.142	-12.49
305.356	-24.14
305.571	-3.4
305.786	26.75
306	2.81
306.215	21.52
306.43	29.15
306.644	9.31
306.859	13.14
307.074	45.44
307.288	21.75
307.503	44.09
307.717	32.02
307.932	17.28
308.147	7.5
308.361	8.82
308.576	-13.48
308.79	-7.77
309.005	9.86
309.219	-0.86
309.434	10.5
309.648	13.4
309.863	21.39
310.077	16.76
310.292	43.91
310.506	28.62
310.72	26.84
310.935	24.75
311.149	19.49
311.364	12.79
311.578	2.51
311.792	-6.31
312.007	-7.52
312.221	2.11
312.435	-13.46
312.649	-4
312.864	-199.78
313.078	-107.65
313.292	-118.87
313.507	-82.76
313.721	-67.37
313.935	14.76
314.149	-4.12
314.363	7.18
314.578	10.66
314.792	23.13
315.006	22.13
315.22	37.68
315.434	35.36
315.648	29.78
315.862	25.88
316.077	30.53
316.291	24.82
316.505	28.05
316.719	31.03
316.933	33.83
317.147	32.76
317.361	25.13
317.575	11.25
317.789	-6.22
318.003	-3.71
318.217	7.28
318.431	18.27
318.645	21.48
318.859	38.73
319.073	33
319.287	14.11
319.5	3.35
319.714	17.44
319.928	6.8
320.142	25.13
320.356	32.59
320.57	35.99
320.784	21.45
320.997	13.76
321.211	13.66
321.425	18.92
321.639	6.65
321.853	17.44
322.066	12.29
322.28	3.13
322.494	6.35
322.707	22.42
322.921	8.71
323.135	14.6
323.349	10.11
323.562	-17.72
323.776	-25.77
323.989	-12.47
324.203	-0.33
324.417	-7.87
324.63	9.33
324.844	10.39
325.057	12.46
325.271	-7.24
325.485	-6.88
325.698	-0.19
325.912	9.2
326.125	-3.92
326.339	7.89
326.552	13.99
326.766	15.78
326.979	18.82
327.193	32.94
327.406	26.44
327.619	27
327.833	23.38
328.046	22.02
328.26	19.4
328.473	26.9
328.686	32.17
328.9	29.61
329.113	25.3
329.326	27.2
329.54	1.04
329.753	0.66
329.966	20.67
330.179	18.15
330.393	15.39
330.606	20.01
330.819	13.37
331.032	-1.26
331.246	5.26
331.459	-29.97
331.672	-25.63
331.885	-6.39
332.098	1.13
332.311	7.28
332.525	24.04
332.738	20.91
332.951	1.02
333.164	-16.14
333.377	-38.45
333.59	-24.32
333.803	1.77
334.016	8.43
334.229	18.16
334.442	29.62
334.655	36.3
334.868	20.14
335.081	42.44
335.294	39.29
335.507	36.86
335.72	35.05
335.933	29.91
336.146	14.53
336.359	24.91
336.572	3.8
336.785	8.98
336.997	19.22
337.21	20.79
337.423	20.46
337.636	34.45
337.849	24.99
338.062	22.1
338.274	18.6
338.487	11.22
338.7	-5.27
338.913	-0.82
339.125	9.72
339.338	12.45
339.551	15.64
339.763	16.24
339.976	12.15
340.189	16.9
340.402	24.47
340.614	21.18
340.827	36.28
341.039	42.41
341.252	25.15
341.465	14.39
341.677	16.38
341.89	16.19
342.102	4.8
342.315	17.57
342.527	17.7
342.74	14.38
342.952	19.44
343.165	25.85
343.377	25.22
343.59	24.7
343.802	27.37
344.015	23.27
344.227	6.14
344.44	-7.8
344.652	-5.58
344.864	3.2
345.077	10.32
345.289	36.76
345.502	35.83
345.714	23.84
345.926	18.26
346.139	-3.36
346.351	-8.36
346.563	15.13
346.775	23.81
346.988	4.61
347.2	4.56
347.412	9.56
347.624	6.54
347.837	-5.76
348.049	4.68
348.261	19.58
348.473	18.98
348.685	19.56
348.897	22.03
349.11	23.13
349.322	22.22
349.534	29.99
349.746	30.84
349.958	37.07
350.17	38.9
350.382	36.7
350.594	32.36
350.806	39.62
351.018	24.57
351.23	22.04
351.442	18.28
351.654	18.29
351.866	-5.17
352.078	15.8
352.29	10.63
352.502	21.54
352.714	21.48
352.926	30.13
353.138	39.89
353.35	46.08
353.561	24.47
353.773	27.22
353.985	22.17
354.197	24.04
354.409	26.93
354.621	11.27
354.832	-3.24
355.044	9.89
355.256	-4.05
355.468	-8.48
355.679	13.05
355.891	16.04
356.103	13.79
356.314	22.14
356.526	20.47
356.738	15.92
356.949	5.33
357.161	-7.19
357.373	-13.61
357.584	-20.8
357.796	-9.26
358.008	-8.26
358.219	-2.07
358.431	11.53
358.642	1.12
358.854	-5.37
359.065	5.69
359.277	6.44
359.488	6.67
359.7	19.23
359.911	19.89
360.123	22.08
360.334	20.41
360.546	6.84
360.757	-2.73
360.969	-12.21
361.18	4.62
361.391	28.74
361.603	28.04
361.814	52.72
362.025	50.12
362.237	35.24
362.448	18.86
362.659	14.06
362.871	2.69
363.082	0.12
363.293	-5.41
363.504	-3.29
363.716	7.05
363.927	-5.45
364.138	-12.81
364.349	-6.21
364.56	0.11
364.772	-4.13
364.983	9.39
365.194	14.36
365.405	16.82
365.616	3.73
365.827	10.14
366.038	-2.48
366.25	-16.01
366.461	-24.8
366.672	-22.61
366.883	-15.85
367.094	-9.65
367.305	17.78
367.516	35.69
367.727	33.87
367.938	26.61
368.149	30.66
368.36	25.79
368.571	10.67
368.781	-4.25
368.992	-1.18
369.203	-5.25
369.414	-5.45
369.625	3.94
369.836	16.94
370.047	11.63
370.258	18.17
370.468	14.39
370.679	8.44
370.89	3.86
371.101	25.2
371.312	20.9
371.522	33.47
371.733	38.2
371.944	31.14
372.155	26.39
372.365	17.47
372.576	-0.96
372.787	0.13
372.997	8.61
373.208	12.19
373.419	4.37
373.629	13.1
373.84	11.46
374.05	7.03
374.261	-8.93
374.472	-9.86
374.682	-30.97
374.893	-21.4
375.103	-9.32
375.314	3.3
375.524	13.54
375.735	29.44
375.945	29.62
376.156	24.19
376.366	11.27
376.577	12.29
376.787	3.04
376.997	0.11
377.208	-18.63
377.418	-7.4
377.629	-5.8
377.839	14.39
378.049	15.51
378.26	34.19
378.47	28.63
378.68	30
378.89	10.14
379.101	8.62
379.311	-2.86
379.521	-3.21
379.732	-10.3
379.942	-6.72
380.152	-7.42
380.362	-2.2
380.572	-0.02
380.783	5.16
380.993	2.83
381.203	10.85
381.413	12.5
381.623	17
381.833	19.81
382.043	20.25
382.253	17.74
382.463	16.88
382.674	16.14
382.884	15.44
383.094	11.39
383.304	12.8
383.514	10.68
383.724	21.42
383.934	15.05
384.144	20.45
384.353	20.9
384.563	21.59
384.773	14.7
384.983	17.01
385.193	14.24
385.403	3.38
385.613	8.46
385.823	3.17
386.033	1.53
386.242	-1.36
386.452	2.05
386.662	-2.43
386.872	1.97
387.082	1.04
387.291	0.57
387.501	-0.2
387.711	1.96
387.921	-1.2
388.13	-1.8
388.34	5.02
388.55	7.06
388.759	5.72
388.969	6.32
389.179	8.02
389.388	3.95
389.598	5.72
389.807	3.14
390.017	3.73
390.227	8.48
390.436	8.92
390.646	7.24
390.855	11.17
391.065	9.84
391.274	5.46
391.484	4.76
391.693	4.03
391.903	2.97
392.112	4.22
392.322	5.57
392.531	4.75
392.74	4.87
392.95	4.21
393.159	4.19
393.369	4.52
393.578	4.35
393.787	6.03
393.997	5.78
394.206	6.25
394.415	6.21
394.625	6.8
394.834	5.36
395.043	5.01
395.252	5.63
395.462	5.76
395.671	5.38
395.88	6.96
396.089	7.85
396.298	7.42
396.508	6.83
396.717	7.37
396.926	5.91
397.135	5.44
397.344	5.5
397.553	5.8
397.762	6.07
397.971	6.84
398.181	7.16
398.39	6.51
398.599	6.44
398.808	6
399.017	6.07
399.226	6.08
399.435	6.58
399.644	6.87
399.853	6.8
400.062	7.04
400.27	7.22
400.479	7.15
400.688	7.11
400.897	7.37
401.106	6.97
401.315	6.84
401.524	6.83
401.733	6.83
401.941	6.82
402.15	7
402.359	6.81
402.568	6.91
402.777	6.82
402.985	6.73
403.194	6.6
403.403	6.62
403.612	6.34
403.82	6.24
404.029	6.24
404.238	6.03
404.446	6.12
404.655	5.99
404.864	6.02
405.072	5.86
405.281	5.91
405.489	5.72
405.698	5.81
405.906	5.74
406.115	5.87
406.324	5.95
406.532	6.03
406.741	6.2
406.949	6.21
407.158	6.21
407.366	6.14
407.574	6.03
407.783	5.88
407.991	5.85
408.2	5.75
408.408	5.68
408.617	5.74
408.825	5.82
409.033	5.9
409.242	5.99
409.45	6.03
409.658	6.24
409.867	6.09
410.075	5.98
410.283	5.81
410.491	5.86
410.7	5.68
410.908	5.72
411.116	5.85
411.324	5.99
411.533	5.94
411.741	6
411.949	5.92
412.157	5.7
412.365	5.54
412.573	5.49
412.781	5.42
412.99	5.47
413.198	5.39
413.406	5.52
413.614	5.54
413.822	5.42
414.03	5.35
414.238	5.46
414.446	5.65
414.654	5.63
414.862	5.63
415.07	5.53
415.278	5.65
415.486	5.31
415.694	5.4
415.902	5.47
416.109	5.4
416.317	5.38
416.525	5.4
416.733	5.34
416.941	5.37
417.149	5.54
417.357	5.27
417.564	5.44
417.772	5.28
417.98	5.36
418.188	5.38
418.395	5.56
418.603	5.31
418.811	5.47
419.019	5.43
419.226	5.58
419.434	5.53
419.642	5.52
419.849	5.43
420.057	5.32
420.265	5.11
420.472	5.16
420.68	5.28
420.887	5.36
421.095	5.52
421.302	5.55
421.51	5.5
421.717	5.41
421.925	5.38
422.132	5.29
422.34	5.13
422.547	4.93
422.755	5
422.962	5.01
423.17	4.81
423.377	5.02
423.585	5.29
423.792	5.14
423.999	5.14
424.207	5.09
424.414	4.97
424.621	4.92
424.829	5.12
425.036	5.09
425.243	5.22
425.451	5.27
425.658	5.25
425.865	5.07
426.072	4.94
426.28	4.92
426.487	5.15
426.694	5.02
426.901	5.01
427.108	4.99
427.315	5.16
427.523	4.98
427.73	4.94
427.937	4.93
428.144	5.04
428.351	4.93
428.558	4.91
428.765	5.18
428.972	5.4
429.179	5.29
429.386	5.25
429.593	5.23
429.8	5.01
430.007	4.89
430.214	4.93
430.421	4.89
430.628	4.82
430.835	4.89
431.042	4.7
431.249	4.87
431.456	4.76
431.662	4.95
431.869	5.01
432.076	5.26
432.283	5.2
432.49	5.36
432.697	5.23
432.903	5.02
433.11	4.86
433.317	4.74
433.524	4.73
433.73	4.73
433.937	4.79
434.144	4.85
434.35	4.96
434.557	4.87
434.764	4.76
434.97	4.75
435.177	4.8
435.384	4.72
435.59	4.71
435.797	4.82
436.003	4.82
436.21	4.66
436.416	4.66
436.623	4.77
436.829	4.83
437.036	4.9
437.242	5.12
437.449	5.19
437.655	5.24
437.862	5.27
438.068	5.16
438.275	5.06
438.481	5.07
438.687	5
438.894	5.02
439.1	5.14
439.307	5.16
439.513	5.09
439.719	5.04
439.926	4.92
440.132	4.95
440.338	4.96
440.544	4.94
440.751	4.91
440.957	4.95
441.163	4.91
441.369	4.98
441.575	4.93
441.782	4.97
441.988	4.97
442.194	4.88
442.4	4.82
442.606	4.96
442.812	4.95
443.018	4.9
443.224	5.06
443.431	4.97
443.637	5
443.843	5.07
444.049	5.15
444.255	5.07
444.461	5.26
444.667	5.11
444.873	5.02
445.079	5.01
445.284	5.08
445.49	4.9
445.696	4.99
445.902	4.95
446.108	4.85
446.314	4.81
446.52	4.86
446.726	4.89
446.931	4.91
447.137	4.91
447.343	4.95
447.549	4.9
447.755	4.8
447.96	4.96
448.166	4.94
448.372	4.88
448.578	4.98
448.783	5.15
448.989	5.08
449.195	4.96
449.4	4.96
449.606	4.88
449.812	4.83
450.017	4.8
450.223	5.02
450.428	5.07
450.634	5.09
450.84	5.12
451.045	5.07
451.251	5.06
451.456	5.13
451.662	5.06
451.867	5
452.073	5.13
452.278	4.99
452.483	4.99
452.689	5.13
452.894	5.19
453.1	5.19
453.305	5.32
453.51	5.16
453.716	5.12
453.921	5.08
454.127	5.08
454.332	5
454.537	5
454.742	5.05
454.948	5.02
455.153	5.03
455.358	5.13
455.563	5.11
455.769	5.03
455.974	5.05
456.179	4.91
456.384	4.87
456.589	4.97
456.795	4.92
457	4.97
457.205	5.11
457.41	5.14
457.615	5.05
457.82	5.15
458.025	5.07
458.23	5.1
458.435	5.07
458.64	5.12
458.845	5.17
459.05	5.2
459.255	5.14
459.46	5.18
459.665	5.23
459.87	5.05
460.075	5.11
460.28	5.09
460.485	5.1
460.69	5.05
460.895	5.04
461.099	5.06
461.304	5.05
461.509	4.99
461.714	5.01
461.919	5.05
462.123	4.91
462.328	4.94
462.533	4.98
462.738	5.08
462.942	5.1
463.147	5.28
463.352	5.33
463.556	5.38
463.761	5.22
463.966	5.18
464.17	5.09
464.375	5.04
464.58	4.93
464.784	4.99
464.989	5.06
465.193	5.07
465.398	5.12
465.602	5.24
465.807	5.21
466.011	5.29
466.216	5.33
466.42	5.34
466.625	5.37
466.829	5.45
467.034	5.42
467.238	5.35
467.443	5.25
467.647	5.03
467.851	5.07
468.056	5.01
468.26	5.08
468.464	5.12
468.669	5.29
468.873	5.3
469.077	5.33
469.282	5.32
469.486	5.36
469.69	5.32
469.894	5.2
470.099	5.17
470.303	5.2
470.507	5.25
470.711	5.31
470.915	5.43
471.119	5.4
471.324	5.41
471.528	5.41
471.732	5.36
471.936	5.3
472.14	5.34
472.344	5.34
472.548	5.26
472.752	5.31
472.956	5.24
473.16	5.33
473.364	5.33
473.568	5.4
473.772	5.36
473.976	5.48
474.18	5.48
474.384	5.47
474.588	5.41
474.792	5.36
474.995	5.35
475.199	5.26
475.403	5.26
475.607	5.34
475.811	5.37
476.015	5.37
476.218	5.39
476.422	5.38
476.626	5.3
476.83	5.28
477.033	5.26
477.237	5.26
477.441	5.19
477.644	5.24
477.848	5.22
478.052	5.23
478.255	5.21
478.459	5.19
478.663	5.28
478.866	5.34
479.07	5.39
479.273	5.38
479.477	5.41
479.681	5.35
479.884	5.33
480.088	5.28
480.291	5.32
480.495	5.39
480.698	5.41
480.901	5.32
481.105	5.3
481.308	5.24
481.512	5.24
481.715	5.15
481.919	5.19
482.122	5.2
482.325	5.33
482.529	5.32
482.732	5.38
482.935	5.4
483.138	5.34
483.342	5.26
483.545	5.32
483.748	5.35
483.952	5.45
484.155	5.61
484.358	5.59
484.561	5.52
484.764	5.53
484.967	5.44
485.171	5.38
485.374	5.38
485.577	5.39
485.78	5.36
485.983	5.41
486.186	5.39
486.389	5.48
486.592	5.45
486.795	5.49
486.998	5.43
487.201	5.49
487.404	5.5
487.607	5.54
487.81	5.49
488.013	5.46
488.216	5.39
488.419	5.42
488.622	5.43
488.825	5.43
489.028	5.48
489.231	5.51
489.433	5.42
489.636	5.4
489.839	5.43
490.042	5.41
490.245	5.43
490.447	5.45
490.65	5.48
490.853	5.53
491.056	5.61
491.258	5.56
491.461	5.56
491.664	5.58
491.866	5.56
492.069	5.54
492.272	5.59
492.474	5.59
492.677	5.58
492.879	5.6
493.082	5.67
493.285	5.68
493.487	5.69
493.69	5.74
493.892	5.69
494.095	5.66
494.297	5.68
494.5	5.73
494.702	5.72
494.905	5.78
495.107	5.73
495.309	5.77
495.512	5.74
495.714	5.81
495.917	5.84
496.119	5.94
496.321	5.98
496.524	6.06
496.726	6.02
496.928	5.99
497.13	5.96
497.333	5.97
497.535	5.97
497.737	6.03
497.939	6.07
498.142	6.18
498.344	6.16
498.546	6.15
498.748	6.18
498.95	6.21
499.152	6.14
499.355	6.22
499.557	6.33
499.759	6.28
499.961	6.29
500.163	6.31
500.365	6.34
500.567	6.28
500.769	6.38
500.971	6.43
501.173	6.48
501.375	6.48
501.577	6.47
501.779	6.5
501.981	6.5
502.183	6.52
502.385	6.48
502.587	6.46
502.788	6.43
502.99	6.42
503.192	6.41
503.394	6.48
503.596	6.61
503.798	6.69
503.999	6.72
504.201	6.77
504.403	6.75
504.605	6.72
504.806	6.75
505.008	6.77
505.21	6.82
505.411	6.81
505.613	6.86
505.815	6.84
506.016	6.86
506.218	6.82
506.42	6.85
506.621	6.86
506.823	6.85
507.024	6.85
507.226	6.92
507.427	6.95
507.629	6.89
507.83	6.89
508.032	6.97
508.233	6.96
508.435	6.98
508.636	7.09
508.838	7.15
509.039	7.07
509.24	7.04
509.442	7.1
509.643	7.04
509.845	7.02
510.046	7.08
510.247	7.08
510.448	7.05
510.65	7.04
510.851	7.01
511.052	7
511.254	6.98
511.455	6.97
511.656	6.97
511.857	6.95
512.058	6.95
512.26	6.98
512.461	6.9
512.662	6.87
512.863	6.84
513.064	6.83
513.265	6.8
513.466	6.91
513.667	6.99
513.868	7.03
514.069	7.03
514.27	7.06
514.471	6.99
514.672	6.87
514.873	6.91
515.074	6.92
515.275	6.89
515.476	6.86
515.677	6.96
515.878	6.98
516.079	7
516.28	7.08
516.481	7.15
516.682	7.14
516.882	7.11
517.083	7.11
517.284	7.07
517.485	7.06
517.686	7.03
517.886	7.08
518.087	7.1
518.288	7.1
518.488	7.1
518.689	7.18
518.89	7.19
519.091	7.22
519.291	7.21
519.492	7.26
519.692	7.27
519.893	7.34
520.094	7.26
520.294	7.35
520.495	7.36
520.695	7.36
520.896	7.28
521.096	7.3
521.297	7.32
521.497	7.34
521.698	7.31
521.898	7.36
522.099	7.34
522.299	7.33
522.499	7.35
522.7	7.42
522.9	7.41
523.101	7.49
523.301	7.44
523.501	7.4
523.702	7.4
523.902	7.47
524.102	7.45
524.302	7.51
524.503	7.56
524.703	7.53
524.903	7.47
525.103	7.54
525.304	7.57
525.504	7.59
525.704	7.63
525.904	7.67
526.104	7.64
526.304	7.67
526.504	7.66
526.705	7.64
526.905	7.68
527.105	7.75
527.305	7.76
527.505	7.8
527.705	7.85
527.905	7.82
528.105	7.8
528.305	7.79
528.505	7.76
528.705	7.82
528.905	7.83
529.105	7.81
529.304	7.79
529.504	7.86
529.704	7.87
529.904	7.93
530.104	7.95
530.304	8
530.503	7.98
530.703	7.93
530.903	7.93
531.103	7.93
531.303	8
531.502	8.06
531.702	8.11
531.902	8.12
532.101	8.18
532.301	8.16
532.501	8.18
532.7	8.22
532.9	8.28
533.1	8.31
533.299	8.32
533.499	8.32
533.698	8.37
533.898	8.4
534.097	8.38
534.297	8.4
534.496	8.42
534.696	8.39
534.895	8.47
535.095	8.47
535.294	8.5
535.494	8.55
535.693	8.54
535.892	8.55
536.092	8.62
536.291	8.67
536.491	8.67
536.69	8.76
536.889	8.75
537.088	8.73
537.288	8.78
537.487	8.81
537.686	8.77
537.886	8.8
538.085	8.89
538.284	8.87
538.483	8.93
538.682	9.03
538.882	9.09
539.081	9.21
539.28	9.27
539.479	9.29
539.678	9.29
539.877	9.27
540.076	9.19
540.275	9.23
540.474	9.28
540.673	9.37
540.872	9.43
541.071	9.41
541.27	9.4
541.469	9.49
541.668	9.49
541.867	9.6
542.066	9.72
542.265	9.81
542.464	9.83
542.663	9.92
542.862	10.02
543.06	10.14
543.259	10.27
543.458	10.27
543.657	10.29
543.856	10.27
544.054	10.2
544.253	10.22
544.452	10.3
544.651	10.41
544.849	10.43
545.048	10.59
545.247	10.6
545.445	10.61
545.644	10.62
545.843	10.67
546.041	10.67
546.24	10.76
546.438	10.87
546.637	10.93
546.836	11.05
547.034	11.1
547.233	11.18
547.431	11.24
547.63	11.24
547.828	11.25
548.027	11.29
548.225	11.28
548.423	11.31
548.622	11.41
548.82	11.47
549.019	11.53
549.217	11.57
549.415	11.66
549.614	11.79
549.812	11.77
550.01	11.85
550.209	11.99
550.407	12.13
550.605	12.1
550.803	12.21
551.002	12.31
551.2	12.33
551.398	12.33
551.596	12.42
551.794	12.6
551.993	12.66
552.191	12.73
552.389	12.86
552.587	12.97
552.785	13.03
552.983	13.11
553.181	13.28
553.379	13.36
553.577	13.48
553.775	13.55
553.973	13.63
554.171	13.64
554.369	13.64
554.567	13.66
554.765	13.67
554.963	13.77
555.161	13.88
555.359	14.01
555.557	14.09
555.755	14.21
555.952	14.27
556.15	14.34
556.348	14.42
556.546	14.51
556.744	14.68
556.941	14.77
557.139	14.86
557.337	14.98
557.535	15.01
557.732	15.02
557.93	15.13
558.128	15.2
558.325	15.25
558.523	15.38
558.721	15.41
558.918	15.45
559.116	15.53
559.313	15.57
559.511	15.72
559.708	15.85
559.906	15.97
560.104	16.05
560.301	16.18
560.498	16.28
560.696	16.35
560.893	16.43
561.091	16.56
561.288	16.62
561.486	16.64
561.683	16.74
561.88	16.8
562.078	16.92
562.275	17.05
562.473	17.14
562.67	17.19
562.867	17.2
563.064	17.26
563.262	17.29
563.459	17.34
563.656	17.47
563.853	17.54
564.051	17.56
564.248	17.63
564.445	17.74
564.642	17.76
564.839	17.93
565.036	18.01
565.234	18.15
565.431	18.16
565.628	18.21
565.825	18.25
566.022	18.3
566.219	18.25
566.416	18.39
566.613	18.47
566.81	18.52
567.007	18.57
567.204	18.63
567.401	18.62
567.598	18.73
567.795	18.81
567.991	18.8
568.188	18.87
568.385	18.88
568.582	18.76
568.779	18.72
568.976	18.79
569.172	18.85
569.369	18.93
569.566	19
569.763	19.01
569.96	19.05
570.156	19.06
570.353	19.1
570.55	19.11
570.746	19.16
570.943	19.18
571.14	19.16
571.336	19.09
571.533	19.1
571.729	19.16
571.926	19.17
572.123	19.12
572.319	19.23
572.516	19.33
572.712	19.25
572.909	19.28
573.105	19.29
573.302	19.2
573.498	19.04
573.695	19.11
573.891	19.04
574.087	19.11
574.284	19.13
574.48	19.22
574.677	19.15
574.873	19.15
575.069	19.18
575.266	19.13
575.462	19.1
575.658	19.13
575.854	19.22
576.051	19.2
576.247	19.18
576.443	19.17
576.639	19.17
576.835	19.08
577.032	19
577.228	19.08
577.424	19.11
577.62	19
577.816	18.9
578.012	18.91
578.208	18.83
578.404	18.78
578.6	18.79
578.796	18.81
578.993	18.75
579.189	18.68
579.384	18.62
579.58	18.57
579.776	18.53
579.972	18.47
580.168	18.43
580.364	18.37
580.56	18.32
580.756	18.24
580.952	18.17
581.148	18.22
581.343	18.21
581.539	18.22
581.735	18.33
581.931	18.3
582.127	18.3
582.322	18.19
582.518	18.25
582.714	18.17
582.909	18.14
583.105	18.07
583.301	18.14
583.496	18.02
583.692	17.96
583.888	18.05
584.083	17.98
584.279	17.92
584.474	17.92
584.67	17.87
584.866	17.68
585.061	17.67
585.257	17.68
585.452	17.57
585.648	17.58
585.843	17.65
586.039	17.65
586.234	17.61
586.429	17.63
586.625	17.6
586.82	17.64
587.015	17.66
587.211	17.6
587.406	17.52
587.601	17.53
587.797	17.41
587.992	17.3
588.187	17.3
588.383	17.38
588.578	17.33
588.773	17.32
588.968	17.32
589.163	17.39
589.359	17.38
589.554	17.38
589.749	17.36
589.944	17.34
590.139	17.22
590.334	17.26
590.529	17.21
590.724	17.19
590.919	17.22
591.114	17.25
591.309	17.19
591.504	17.3
591.699	17.3
591.894	17.32
592.089	17.34
592.284	17.4
592.479	17.3
592.674	17.36
592.869	17.38
593.064	17.44
593.259	17.34
593.454	17.37
593.648	17.43
593.843	17.48
594.038	17.48
594.233	17.55
594.428	17.61
594.622	17.64
594.817	17.65
595.012	17.7
595.206	17.76
595.401	17.81
595.596	17.85
595.79	17.88
595.985	17.92
596.18	18.04
596.374	18.07
596.569	18.13
596.763	18.21
596.958	18.25
597.153	18.26
597.347	18.38
597.542	18.38
597.736	18.36
597.931	18.44
598.125	18.42
598.319	18.45
598.514	18.6
598.708	18.64
598.903	18.73
599.097	18.8
599.291	18.81
599.486	18.78
599.68	18.84
599.874	18.74
600.069	18.78
600.263	18.8
600.457	18.81
600.651	18.77
600.846	18.83
601.04	18.93
601.234	18.97
601.428	18.99
601.622	19.11
601.817	19.23
602.011	19.21
602.205	19.18
602.399	19.21
602.593	19.12
602.787	19.04
602.981	19
603.175	19.07
603.369	18.94
603.563	19.01
603.757	19.04
603.951	19.07
604.145	18.98
604.339	19.1
604.533	19.07
604.727	19.04
604.921	18.96
605.115	18.88
605.309	18.78
605.502	18.82
605.696	18.74
605.89	18.72
606.084	18.8
606.278	18.78
606.471	18.64
606.665	18.57
606.859	18.5
607.053	18.35
607.246	18.34
607.44	18.31
607.634	18.31
607.827	18.3
608.021	18.31
608.214	18.26
608.408	18.15
608.602	18.15
608.795	18.08
608.989	17.96
609.182	17.92
609.376	17.97
609.569	17.85
609.763	17.78
609.956	17.74
610.15	17.51
610.343	17.36
610.537	17.26
610.73	17.2
610.923	17.19
611.117	17.3
611.31	17.23
611.504	17.24
611.697	17.18
611.89	17.12
612.083	16.97
612.277	16.86
612.47	16.65
612.663	16.64
612.856	16.53
613.05	16.47
613.243	16.49
613.436	16.46
613.629	16.37
613.822	16.32
614.015	16.34
614.209	16.21
614.402	16.14
614.595	16.02
614.788	15.87
614.981	15.7
615.174	15.66
615.367	15.56
615.56	15.57
615.753	15.57
615.946	15.52
616.139	15.51
616.332	15.58
616.525	15.47
616.718	15.43
616.911	15.35
617.103	15.38
617.296	15.28
617.489	15.24
617.682	15.22
617.875	15.24
618.067	15.04
618.26	14.99
618.453	14.96
618.646	14.87
618.838	14.79
619.031	14.77
619.224	14.75
619.417	14.66
619.609	14.56
619.802	14.52
619.994	14.46
620.187	14.37
620.38	14.37
620.572	14.36
620.765	14.35
620.957	14.32
621.15	14.33
621.342	14.29
621.535	14.31
621.727	14.26
621.92	14.33
622.112	14.35
622.305	14.33
622.497	14.32
622.69	14.26
622.882	14.22
623.074	14.17
623.267	14.12
623.459	14.05
623.651	14.13
623.844	14.1
624.036	14.01
624.228	14.02
624.42	13.98
624.613	13.91
624.805	13.9
624.997	13.88
625.189	13.83
625.381	13.85
625.574	13.83
625.766	13.85
625.958	13.88
626.15	13.94
626.342	13.84
626.534	13.86
626.726	13.77
626.918	13.72
627.11	13.59
627.302	13.58
627.494	13.5
627.686	13.46
627.878	13.45
628.07	13.44
628.262	13.43
628.454	13.36
628.646	13.37
628.838	13.37
629.029	13.33
629.221	13.32
629.413	13.29
629.605	13.22
629.797	13.18
629.989	13.2
630.18	13.22
630.372	13.21
630.564	13.21
630.755	13.12
630.947	12.98
631.139	12.84
631.33	12.79
631.522	12.75
631.714	12.76
631.905	12.84
632.097	12.84
632.289	12.85
632.48	12.76
632.672	12.72
632.863	12.66
633.055	12.66
633.246	12.65
633.438	12.73
633.629	12.68
633.821	12.62
634.012	12.59
634.203	12.57
634.395	12.45
634.586	12.51
634.777	12.5
634.969	12.47
635.16	12.43
635.351	12.43
635.543	12.42
635.734	12.44
635.925	12.41
636.117	12.3
636.308	12.4
636.499	12.33
636.69	12.3
636.881	12.33
637.073	12.38
637.264	12.34
637.455	12.26
637.646	12.21
637.837	12.24
638.028	12.23
638.219	12.22
638.41	12.22
638.601	12.21
638.792	12.02
638.983	12
639.174	11.84
639.365	11.79
639.556	11.71
639.747	11.81
639.938	11.78
640.129	11.9
640.32	11.94
640.511	11.91
640.701	11.85
640.892	11.76
641.083	11.63
641.274	11.61
641.465	11.69
641.655	11.66
641.846	11.74
642.037	11.73
642.228	11.7
642.418	11.57
642.609	11.58
642.8	11.47
642.99	11.41
643.181	11.33
643.372	11.41
643.562	11.29
643.753	11.32
643.943	11.36
644.134	11.33
644.324	11.32
644.515	11.33
644.705	11.24
644.896	11.2
645.086	11.22
645.277	11.2
645.467	11.2
645.658	11.21
645.848	11.1
646.038	11.08
646.229	10.99
646.419	10.96
646.61	11.02
646.8	11.11
646.99	11.08
647.18	11.04
647.371	11
647.561	10.87
647.751	10.83
647.941	10.77
648.132	10.85
648.322	10.87
648.512	10.85
648.702	10.85
648.892	10.82
649.082	10.8
649.272	10.74
649.462	10.73
649.653	10.68
649.843	10.72
650.033	10.7
650.223	10.78
650.413	10.78
650.603	10.85
650.793	10.84
650.983	10.79
651.172	10.69
651.362	10.64
651.552	10.58
651.742	10.5
651.932	10.44
652.122	10.6
652.312	10.63
652.502	10.41
652.691	10.5
652.881	10.47
653.071	10.31
653.261	10.22
653.45	10.3
653.64	10.09
653.83	9.97
654.019	9.92
654.209	9.9
654.399	9.88
654.588	9.86
654.778	9.86
654.968	9.79
655.157	9.69
655.347	9.62
655.536	9.52
655.726	9.42
655.915	9.31
656.105	9.2
656.294	9.15
656.484	9.07
656.673	9
656.863	9.02
657.052	8.92
657.241	8.73
657.431	8.63
657.62	8.61
657.809	8.42
657.999	8.44
658.188	8.37
658.377	8.32
658.567	8.16
658.756	8.02
658.945	7.85
659.134	7.65
659.324	7.56
659.513	7.47
659.702	7.36
659.891	7.29
660.08	7.27
660.269	7.21
660.458	7.15
660.648	7.15
660.837	7.02
661.026	6.89
661.215	6.81
661.404	6.76
661.593	6.59
661.782	6.55
661.971	6.56
662.16	6.47
662.349	6.23
662.538	6.23
662.726	6.16
662.915	6.06
663.104	5.98
663.293	5.95
663.482	5.95
663.671	5.96
663.86	5.94
664.048	5.98
664.237	6
664.426	5.93
664.615	5.8
664.803	5.82
664.992	5.62
665.181	5.59
665.369	5.53
665.558	5.45
665.747	5.42
665.935	5.5
666.124	5.4
666.312	5.35
666.501	5.43
666.69	5.29
666.878	5.16
667.067	5.15
667.255	5.1
667.444	5.1
667.632	5.16
667.82	5.32
668.009	5.41
668.197	5.45
668.386	5.26
668.574	5.23
668.762	5.12
668.951	5.15
669.139	5.18
669.327	5.19
669.516	5.15
669.704	5.09
669.892	5.05
670.08	5.01
670.269	5.03
670.457	5.04
670.645	5.05
670.833	5.01
671.021	5
671.21	4.99
671.398	5.08
671.586	5.07
671.774	5.12
671.962	5.12
672.15	5.16
672.338	5.25
672.526	5.25
672.714	5.1
672.902	5.04
673.09	5.1
673.278	5.03
673.466	5.21
673.654	5.48
673.842	5.51
674.03	5.59
674.218	5.61
674.405	5.59
674.593	5.59
674.781	5.69
674.969	5.58
675.157	5.61
675.344	5.6
675.532	5.61
675.72	5.65
675.908	5.84
676.095	5.81
676.283	5.9
676.471	5.92
676.658	5.99
676.846	6.05
677.033	6.24
677.221	6.18
677.409	6.14
677.596	6.16
677.784	6.17
677.971	6.18
678.159	6.34
678.346	6.43
678.534	6.52
678.721	6.47
678.909	6.5
679.096	6.59
679.283	6.66
679.471	6.77
679.658	7.04
679.846	7.09
680.033	7.24
680.22	7.12
680.408	7.03
680.595	6.99
680.782	6.91
680.969	6.88
681.157	7.18
681.344	7.24
681.531	7.22
681.718	7.34
681.905	7.2
682.093	7.19
682.28	7.28
682.467	7.37
682.654	7.5
682.841	7.62
683.028	7.64
683.215	7.87
683.402	7.89
683.589	7.96
683.776	8.03
683.963	8.09
684.15	8
684.337	8.25
684.524	8.39
684.711	8.63
684.898	8.88
685.085	8.98
685.271	9.05
685.458	9.09
685.645	9.16
685.832	9.27
686.019	9.56
686.205	9.7
686.392	10.06
686.579	10.15
686.766	10.29
686.952	10.45
687.139	10.63
687.326	10.65
687.512	10.86
687.699	10.91
687.886	11.07
688.072	11.14
688.259	11.42
688.445	11.76
688.632	12.16
688.818	12.57
689.005	12.93
689.191	13.29
689.378	13.48
689.564	13.69
689.751	13.85
689.937	14.25
690.124	14.53
690.31	14.77
690.496	15.22
690.683	15.62
690.869	15.84
691.055	16.12
691.242	16.75
691.428	17.11
691.614	17.52
691.8	18.16
691.987	18.5
692.173	18.79
692.359	19.2
692.545	19.67
692.731	20.06
692.918	20.78
693.104	21.29
693.29	21.92
693.476	22.29
693.662	22.94
693.848	23.48
694.034	23.92
694.22	24.46
694.406	25.13
694.592	25.4
694.778	25.78
694.964	26.25
695.15	26.54
695.336	27
695.522	27.56
695.708	28.26
695.894	28.95
696.08	29.81
696.265	30.38
696.451	30.96
696.637	31.46
696.823	32.02
697.009	32.39
697.194	32.86
697.38	33.35
697.566	33.81
697.751	34.46
697.937	35.22
698.123	35.81
698.308	36.45
698.494	37.02
698.68	37.57
698.865	37.87
699.051	38.55
699.236	39.3
699.422	39.9
699.607	40.54
699.793	41.31
699.978	41.93
700.164	42.4
700.349	43.16
700.535	43.45
700.72	43.86
700.906	44.45
701.091	44.93
701.276	45.19
701.462	45.92
701.647	46.57
701.832	46.83
702.018	47.48
702.203	47.94
702.388	48.35
702.573	48.49
702.759	48.81
702.944	49.01
703.129	49.59
703.314	50.08
703.499	51.12
703.684	51.64
703.87	52.35
704.055	52.87
704.24	53.46
704.425	53.64
704.61	53.93
704.795	53.87
704.98	54.23
705.165	54.21
705.35	54.42
705.535	55.16
705.72	56.12
705.905	56.65
706.09	56.95
706.275	57.33
706.459	57.66
706.644	57.69
706.829	57.9
707.014	58.89
707.199	59.36
707.384	59.61
707.568	59.91
707.753	60.42
707.938	60.25
708.123	60.45
708.307	60.97
708.492	61.22
708.677	61.32
708.861	61.7
709.046	61.78
709.231	61.9
709.415	62.02
709.6	61.96
709.784	62.07
709.969	62.58
710.153	62.81
710.338	63.17
710.522	63.9
710.707	64.31
710.891	64.52
711.076	64.77
711.26	64.73
711.445	64.39
711.629	64.62
711.813	64.72
711.998	64.73
712.182	65.26
712.366	65.86
712.551	66.36
712.735	66.83
712.919	67.03
713.103	67.23
713.288	67.32
713.472	67.42
713.656	67.34
713.84	67.75
714.024	67.87
714.208	68.35
714.393	68.57
714.577	68.33
714.761	68.51
714.945	68.85
715.129	68.53
715.313	68.42
715.497	69.31
715.681	69.89
715.865	69.66
716.049	70.32
716.233	70.82
716.417	70.73
716.601	70.29
716.785	70.79
716.968	70.42
717.152	70.33
717.336	70.42
717.52	70.54
717.704	70.58
717.888	70.49
718.071	70.54
718.255	70.62
718.439	70.28
718.622	69.97
718.806	70.32
718.99	70.33
719.174	70.55
719.357	71.02
719.541	71.79
719.724	72.34
719.908	72.75
720.092	72.76
720.275	73.48
720.459	73.4
720.642	73.73
720.826	73.58
721.009	74.08
721.193	73.42
721.376	73.83
721.559	73.71
721.743	73.81
721.926	74.17
722.11	74.67
722.293	74.55
722.476	74.31
722.66	74.79
722.843	74.47
723.026	74.62
723.21	74.74
723.393	74.71
723.576	74.43
723.759	74.67
723.942	74.76
724.126	75.21
724.309	75.71
724.492	75.67
724.675	75.93
724.858	76.24
725.041	76.36
725.224	76.44
725.407	76.76
725.59	77.11
725.774	77.19
725.957	77
726.14	77.55
726.322	77.68
726.505	77.54
726.688	77.64
726.871	78.27
727.054	77.78
727.237	77.79
727.42	77.92
727.603	77.71
727.786	76.96
727.968	77.17
728.151	77.85
728.334	78.14
728.517	78.96
728.699	80.57
728.882	80.79
729.065	81.09
729.248	81.11
729.43	80.73
729.613	80.51
729.796	81.19
729.978	81.61
730.161	81.35
730.343	81.59
730.526	81.73
730.708	81.57
730.891	81.38
731.073	81.9
731.256	82.04
731.438	81.65
731.621	81.87
731.803	81.71
731.986	82.23
732.168	82.23
732.35	82.31
732.533	82.8
732.715	83.02
732.898	81.99
733.08	82.51
733.262	82.82
733.444	82.53
733.627	82.5
733.809	83.4
733.991	83.47
734.173	83.92
734.355	83.92
734.538	84.39
734.72	84.08
734.902	84.35
735.084	84.08
735.266	84.37
735.448	84.55
735.63	84.84
735.812	85.32
735.994	85.1
736.176	85
736.358	84.62
736.54	84.6
736.722	83.68
736.904	83.95
737.086	84.21
737.268	85.16
737.45	85.83
737.632	85.76
737.814	86.03
737.995	86.65
738.177	86.32
738.359	86.4
738.541	88.05
738.723	88.32
738.904	87.68
739.086	87.27
739.268	86.84
739.449	85.73
739.631	85.2
739.813	85.58
739.994	86.04
740.176	86.84
740.358	88.03
740.539	88.35
740.721	87.91
740.902	88.03
741.084	88.01
741.265	87.17
741.447	87.23
741.628	89.07
741.81	89.31
741.991	88.94
742.172	89.89
742.354	90.19
742.535	89.07
742.717	88.49
742.898	88.52
743.079	88.3
743.261	89.29
743.442	89.94
743.623	91.15
743.804	91.48
743.986	92.24
744.167	91.42
744.348	90.77
744.529	90.95
744.71	91.81
744.891	90.73
745.073	91.83
745.254	92.39
745.435	91.59
745.616	91.13
745.797	92.03
745.978	91.98
746.159	92.23
746.34	91.99
746.521	92.51
746.702	90.93
746.883	88.9
747.064	88.09
747.245	89.25
747.426	89.44
747.606	90.2
747.787	92.34
747.968	93.38
748.149	92.57
748.33	91.55
748.51	92.45
748.691	91.18
748.872	90.18
749.053	89.59
749.233	90.63
749.414	90.2
749.595	90.88
749.775	91.3
749.956	92.41
750.137	91.55
750.317	91.62
750.498	91.84
750.678	92.66
750.859	90.89
751.04	91.37
751.22	91.03
751.4	91.04
751.581	90.89
751.761	91.99
751.942	93.22
752.122	92.43
752.303	91.34
752.483	91.46
752.663	90.95
752.844	89.53
753.024	91.25
753.204	92.64
753.385	90.15
753.565	91.85
753.745	91.79
753.925	91.38
754.106	91.63
754.286	93.94
754.466	93.92
754.646	94.27
754.826	92.23
755.006	91.44
755.187	90.88
755.367	90.48
755.547	89.96
755.727	92.21
755.907	91.39
756.087	90.2
756.267	88.63
756.447	89.53
756.627	89.11
756.807	90.18
756.987	91.67
757.167	93.05
757.346	92.45
757.526	92.44
757.706	93.01
757.886	93.28
758.066	94.21
758.246	94.05
758.425	92.98
758.605	92.22
758.785	92.43
758.965	91.58
759.144	92.07
759.324	90.98
759.504	91.07
759.683	91.13
759.863	91.24
760.043	91.83
760.222	92.35
760.402	91.13
760.581	91.21
760.761	91.84
760.94	89.86
761.12	93.79
761.299	93.13
761.479	93.01
761.658	91.24
761.838	92.56
762.017	90.76
762.197	92.41
762.376	92.27
762.555	92.88
762.735	93.25
762.914	94.18
763.093	95.19
763.273	92.82
763.452	91.99
763.631	91.68
763.81	92.11
763.99	90.38
764.169	91.35
764.348	92.11
764.527	90.54
764.706	88.77
764.885	88.78
765.064	89.01
765.243	88.63
765.423	88.6
765.602	89.63
765.781	92.13
765.96	90.43
766.139	91.71
766.318	91.14
766.497	90.58
766.676	87.9
766.854	91.51
767.033	90.05
767.212	91.06
767.391	90.36
767.57	91.71
767.749	91.09
767.928	88.45
768.106	85.76
768.285	85.44
768.464	83.26
768.643	83.64
768.821	86.69
769	89.58
769.179	89.8
769.357	90.66
769.536	90.4
769.715	88.84
769.893	88.57
770.072	86.17
770.25	86.11
770.429	83.24
770.607	84.68
770.786	83.86
770.964	86.08
771.143	87.04
771.321	89.7
771.5	89.68
771.678	91.29
771.857	91.13
772.035	91.92
772.213	91.61
772.392	90.33
772.57	91.61
772.748	90.77
772.927	89.46
773.105	88.06
773.283	90.4
773.461	89.6
773.64	90.47
773.818	90.96
773.996	91.37
774.174	88.9
774.352	89.03
774.531	89.25
774.709	87.51
774.887	86.95
775.065	88.15
775.243	86.9
775.421	85.8
775.599	86.44
775.777	85.62
775.955	86.34
776.133	84.98
776.311	84.76
776.489	87.56
776.667	89.49
776.844	90.03
777.022	91.76
777.2	92.48
777.378	88.19
777.556	88.31
777.734	86.36
777.911	86.88
778.089	85.61
778.267	86.2
778.445	80.78
778.622	81.93
778.8	81.59
778.978	84.16
779.155	85.07
779.333	90.1
779.511	88.14
779.688	88.99
779.866	87.51
780.043	84.4
780.221	81.92
780.398	81.08
780.576	78.32
780.753	77.28
780.931	80.19
781.108	80.5
781.286	83.34
781.463	84.73
781.64	84.44
781.818	86.85
781.995	88.75
782.172	87.49
782.35	86
782.527	89.66
782.704	86.4
782.882	87.8
783.059	85.68
783.236	86.05
783.413	81.25
783.59	84.84
783.768	79.36
783.945	79.96
784.122	80.71
784.299	81.99
784.476	78.53
784.653	82.79
784.83	85.74
785.007	81.4
785.184	79.55
785.361	78.23
785.538	79.41
785.715	79.55
785.892	88.58
786.069	91.91
786.246	94.53
786.423	95.1
786.6	92.67
786.776	87.86
786.953	85.38
787.13	87.51
787.307	83.31
787.484	83.27
787.66	80.41
787.837	84.62
788.014	86.42
788.191	88.96
788.367	92.07
788.544	95.34
788.721	93.07
788.897	89.15
789.074	85.64
789.25	82.05
789.427	80.88
789.603	76.67
789.78	76.16
789.956	83.44
790.133	83.11
790.309	85.72
790.486	89.71
790.662	90.32
790.839	79.41
791.015	80.38
791.192	77.41
791.368	80.49
791.544	78.29
791.721	86.13
791.897	86.31
792.073	85.88
792.249	83.16
792.426	85.01
792.602	83.3
792.778	82.32
792.954	80.01
793.13	81.51
793.307	81.96
793.483	79.18
793.659	79.32
793.835	80.28
794.011	73.72
794.187	69.41
794.363	68.36
794.539	66.94
794.715	68.52
794.891	71.36
795.067	71.91
795.243	74.76
795.419	76.94
795.595	72.3
795.771	71.79
795.947	71.24
796.122	70.35
796.298	73.32
796.474	78.61
796.65	78.9
796.826	81.85
797.001	79.34
797.177	78.37
797.353	71.69
797.529	74.45
797.704	75.1
797.88	78.04
798.056	78.72
798.231	85.2
798.407	83.95
798.582	78.37
798.758	83.36
798.934	82.91
799.109	81.14
799.285	83.83
799.46	84.59
799.636	81.09
799.811	82.56
799.986	84.95
800.162	90.13
800.337	98.79
800.513	93.55
800.688	88.16
800.863	85.72
801.039	77.48
801.214	77.8
801.389	81.55
801.565	85.83
801.74	83.89
801.915	85.71
802.09	78.65
802.265	81.18
802.441	81.23
802.616	82.9
802.791	79.58
802.966	85.51
803.141	83.19
803.316	76.01
803.491	79.16
803.666	84.44
803.841	80.13
804.016	82.52
804.191	83.47
804.366	85.64
804.541	76.17
804.716	84.59
804.891	73.93
805.066	76.16
805.241	68.14
805.416	73.86
805.591	69.45
805.765	81.32
805.94	79.86
806.115	81.91
806.29	75.67
806.464	73.75
806.639	73.01
806.814	68.96
806.989	66.6
807.163	71.11
807.338	71.75
807.512	61.79
807.687	61.93
807.862	54.21
808.036	52.16
808.211	54.75
808.385	54.96
808.56	57.61
808.734	63.02
808.909	64.03
809.083	65.11
809.258	70.32
809.432	68.52
809.606	67.07
809.781	63.86
809.955	60.84
810.13	63.93
810.304	69.68
810.478	69.76
810.652	80.34
810.827	81.03
811.001	86.15
811.175	86.19
811.349	89.58
811.524	69.59
811.698	62.82
811.872	63.77
812.046	68.11
812.22	74.59
812.394	76.47
812.568	88.03
812.742	77.04
812.916	74.32
813.09	70.98
813.264	79.94
813.438	73.37
813.612	70.58
813.786	62.1
813.96	61.13
814.134	64.19
814.308	65.5
814.482	72.43
814.656	89.35
814.83	87.73
815.003	78.67
815.177	78.04
815.351	74.7
815.525	65.84
815.698	64.98
815.872	62.17
816.046	66.05
816.219	63.19
816.393	56.44
816.567	65.65
816.74	81.39
816.914	72.03
817.088	80.2
817.261	81.37
817.435	75.67
817.608	65.72
817.782	65.62
817.955	67.13
818.129	67.94
818.302	69.26
818.475	68.96
818.649	78.71
818.822	74.28
818.996	75.95
819.169	72.3
819.342	85.56
819.516	68.54
819.689	70.26
819.862	67.57
820.035	65.1
820.209	58.88
820.382	63.23
820.555	52.81
820.728	56.19
820.901	62.88
821.075	58.88
821.248	65.94
821.421	71.24
821.594	75.58
821.767	81.48
821.94	83.07
822.113	91.1
822.286	79.21
822.459	68.48
822.632	55.31
822.805	51.98
822.978	58.25
823.151	92.72
823.324	83.15
823.496	83.55
823.669	77.56
823.842	60.75
824.015	45.83
824.188	52.67
824.361	51.88
824.533	46.48
824.706	60.24
824.879	62.64
825.051	64.18
825.224	64.9
825.397	59.78
825.569	62.66
825.742	58.66
825.915	59.24
826.087	74.49
826.26	77.97
826.432	69.24
826.605	71.04
826.777	67.31
826.95	70.88
827.122	79.45
827.295	74.7
827.467	75.08
827.64	69.28
827.812	53.46
827.984	51.76
828.157	55.59
828.329	70.83
828.501	80.5
828.674	93.32
828.846	103.67
829.018	116.33
829.19	108.49
829.363	111.73
829.535	95.22
829.707	87.25
829.879	83.8
830.051	77.8
830.223	79.45
830.395	75.71
830.568	73.86
830.74	70.08
830.912	66.61
831.084	73.5
831.256	80.29
831.428	70.03
831.6	89.07
831.772	91.93
831.943	69.92
832.115	62.05
832.287	63.21
832.459	46.78
832.631	51.77
832.803	40.39
832.975	34.75
833.146	34.25
833.318	29.8
833.49	31.7
833.662	56.4
833.833	66
834.005	51.24
834.177	53.07
834.348	44.95
834.52	39.27
834.692	53.76
834.863	56.02
835.035	44.68
835.206	19.71
835.378	32.63
835.549	34.11
835.721	45.03
835.892	49.39
836.064	60.23
836.235	54.38
836.407	44.86
836.578	50.97
836.749	58.99
836.921	61.01
837.092	47.43
837.264	33.68
837.435	25.8
837.606	27.9
837.777	46.34
837.949	70.74
838.12	74.12
838.291	70.46
838.462	76.11
838.633	70.56
838.805	56.03
838.976	72.36
839.147	67.62
839.318	63.77
839.489	71.43
839.66	70.65
839.831	62.52
840.002	66.97
840.173	55.59
840.344	19.49
840.515	12.19
840.686	9.2
840.857	15.12
841.028	25.64
841.199	56.87
841.369	65.29
841.54	92.27
841.711	67.18
841.882	75.01
842.053	66.28
842.223	52.05
842.394	34.92
842.565	30.97
842.736	40.75
842.906	21.65
843.077	48.88
843.248	52.68
843.418	70.84
843.589	61.67
843.759	72.47
843.93	69.47
844.101	77.51
844.271	71.95
844.442	63.47
844.612	65.23
844.783	59.35
844.953	41.7
845.123	37.49
845.294	41.67
845.464	27.07
845.635	24.12
845.805	34.97
845.975	40.73
846.146	14.72
846.316	27.2
846.486	40.86
846.656	42.31
846.827	67.98
846.997	75.98
847.167	79.03
847.337	46.88
847.507	59.54
847.677	29.12
847.848	38.53
848.018	43.77
848.188	59.2
848.358	63.55
848.528	62.47
848.698	55.66
848.868	46.45
849.038	46.95
849.208	48.29
849.378	77.5
849.548	88.06
849.718	94.65
849.887	88.31
850.057	76.09
850.227	57.47
850.397	57.71
850.567	34.39
850.737	38.79
850.906	20.83
851.076	17.25
851.246	13.02
851.415	27.56
851.585	20.18
851.755	37.24
851.924	44.51
852.094	29.11
852.264	30.63
852.433	11.29
852.603	16.37
852.772	22.31
852.942	35.05
853.111	28.69
853.281	32.84
853.45	28.89
853.62	21.4
853.789	37.45
853.959	45.2
854.128	46.97
854.297	43.56
854.467	58.16
854.636	55.55
854.805	76.46
854.975	80.53
855.144	145.47
855.313	71.11
855.482	67.09
855.652	34.81
855.821	58.61
855.99	62.1
856.159	110.8
856.328	111.86
856.497	144.74
856.667	98.48
856.836	162.03
857.005	113.37
857.174	130.95
857.343	115.87
857.512	243.65
857.681	38.14
857.85	71.38
858.019	54.9
858.188	56.24
858.356	60.97
858.525	70.65
858.694	62.27
858.863	72.32
859.032	122.24
859.201	54.02
859.369	50.31
859.538	37.53
859.707	37.61
859.876	47.83
860.044	78.09
860.213	86.95
860.382	90.8
860.55	123.02
860.719	103.97
860.888	52.87
861.056	49.66
861.225	46.56
861.393	46.4
861.562	17.42
861.73	44.93
861.899	55.11
862.067	31.63
862.236	47.65
862.404	56.99
862.572	61.15
862.741	38.41
862.909	45.17
863.078	26.12
863.246	53.51
863.414	48.57
863.582	71.25
863.751	52.04
863.919	57.47
864.087	48.58
864.255	26.56
864.424	1.31
864.592	16.68
864.76	1.55
864.928	-7.85
865.096	5.56
865.264	33.97
865.432	29.78
865.6	40.08
865.768	31.8
865.936	34.43
866.104	24.42
866.272	49.65
866.44	45.4
866.608	101.88
866.776	111.35
866.944	188.29
867.112	132.52
867.28	391.16
867.448	195.82
867.615	196.9
867.783	59.36
867.951	18.16
868.119	-13.33
868.286	-11.39
868.454	-5.96
868.622	4.36
868.789	-29.04
868.957	-1.5
869.125	-17.02
869.292	-39.65
869.46	-33.43
869.627	12.64
869.795	0.92
869.963	0.95
870.13	1.56
870.298	17.96
870.465	-26.32
870.632	16.68
870.8	19.39
870.967	9.43
871.135	-35.7
871.302	-32.39
871.469	620.06
871.637	-62.73
871.804	69.28
871.971	69.78
872.139	64.55
872.306	69.33
872.473	60.85
872.64	45.66
872.807	45.35
872.975	67.42
873.142	91.7
873.309	1927.54
873.476	595.2
873.643	165.34
873.81	100.75
873.977	60.88
874.144	74.07
874.311	45.87
874.478	42.74
874.645	35.49
874.812	38.8
874.979	-0.32
875.146	0.4
875.313	1.6
875.48	-145.81
875.647	120.94
875.813	196.44
875.98	583.84
876.147	-98.37
876.314	21.75
876.481	-40.07
876.647	39.63
876.814	21.97
876.981	-8.61
877.147	7.1
877.314	51.12
877.481	47.62
877.647	67.45
877.814	76.96
877.98	67.61
878.147	46.12
878.314	22.51
878.48	-25.16
878.647	-34.7
878.813	-652.71
878.979	27.27
879.146	34.88
879.312	114.07
879.479	90.93
879.645	91.71
879.811	71.23
879.978	51.23
880.144	25.19
880.31	16.55
880.477	-7.52
880.643	4.35
880.809	-10.48
880.975	-2915.15
881.142	474.93
881.308	626.67
881.474	-131.96
881.64	-63.04
881.806	13.83
881.972	62.38
882.138	82.54
882.304	91.84
882.47	143.71
882.636	196.47
882.802	144.93
882.968	274.25
883.134	128.97
883.3	85.13
883.466	108.29
883.632	102.21
883.798	81.2
883.964	101.81
884.129	112.76
884.295	82.16
884.461	56.27
884.627	21.11
884.793	-30.27
884.958	26
885.124	28.43
885.29	31.35
885.455	119.93
885.621	143.65
885.787	89.86
885.952	30.87
886.118	-36.04
886.283	-382.46
886.449	9.52
886.614	8.75
886.78	48.38
886.945	88.38
887.111	40.94
887.276	40.68
887.442	47.29
887.607	77.14
887.773	48.91
887.938	115.31
888.103	105.08
888.269	93.67
888.434	6.62
888.599	-5.66
888.764	5.78
888.93	-14.11
889.095	54.05
889.26	131.52
889.425	373.88
889.59	-700.48
889.756	268.19
889.921	79.16
890.086	61.1
890.251	-38.42
890.416	-36.05
890.581	-19.18
890.746	43.53
890.911	47.75
891.076	49.46
891.241	24.31
891.406	60.52
891.571	-50.46
891.736	-15.79
891.901	-34.66
892.065	53.53
892.23	26.94
892.395	66.92
892.56	88.3
892.725	129.19
892.889	80.02
893.054	35.92
893.219	-6.2
893.384	-14.83
893.548	-213.18
893.713	671.6
893.878	122.68
