Data from Ofav_PS_Phys_362_Reflection_3.txt Node
Date: Thu Jul 29 18:21:56 EDT 2021
User: USUARIO
Spectrometer: FLMT01687
Trigger mode: 0
Integration Time (sec): 9.010000E-1
Scans to average: 2
Electric dark correction enabled: true
Nonlinearity correction enabled: false
Boxcar width: 2
XAxis mode: Wavelengths
Number of Pixels in Spectrum: 3648
>>>>>Begin Spectral Data<<<<<
179.494	320.32
179.716	408.56
179.937	300.62
180.158	-1480.79
180.38	-118.08
180.601	-848.56
180.823	-229.62
181.044	-98.97
181.265	-127.46
181.486	-992.66
181.708	114.57
181.929	283.82
182.15	11290.48
182.372	-167.14
182.593	-65.6
182.814	27.15
183.035	-295.19
183.257	74.65
183.478	31.72
183.699	52.37
183.92	65.85
184.141	34.55
184.363	0.4
184.584	40.78
184.805	18.47
185.026	29.82
185.247	42.27
185.468	61.71
185.689	25.88
185.91	92.29
186.132	106.77
186.353	76.64
186.574	100.16
186.795	96.95
187.016	78.36
187.237	42.7
187.458	24.71
187.679	0.16
187.9	19.23
188.121	7.9
188.342	22.35
188.563	38.86
188.784	24.85
189.005	7.15
189.226	20.57
189.447	14.93
189.667	5.81
189.888	0.16
190.109	5.68
190.33	-34.16
190.551	10.05
190.772	25.61
190.993	31.61
191.214	32.02
191.434	42.37
191.655	46.86
191.876	32.47
192.097	3.01
192.318	15.84
192.538	13.92
192.759	11.38
192.98	30.7
193.201	39.67
193.421	28.96
193.642	11.37
193.863	-13.44
194.083	-33.98
194.304	-28.54
194.525	-0.89
194.745	12.5
194.966	14.06
195.187	20.88
195.407	14.5
195.628	-26
195.848	-22.35
196.069	13.56
196.29	26.56
196.51	20.13
196.731	31.49
196.951	30.32
197.172	18.3
197.392	-3.71
197.613	-4.16
197.833	-14.29
198.054	-0.66
198.274	-21.44
198.495	17.9
198.715	11.04
198.936	32.04
199.156	29.16
199.377	33.06
199.597	22.64
199.817	28.73
200.038	6.28
200.258	-5.16
200.479	-26.87
200.699	-81.01
200.919	-18.61
201.14	-22.92
201.36	5.49
201.58	20.26
201.801	31.5
202.021	26.8
202.241	24.34
202.461	13.59
202.682	-0.52
202.902	35.23
203.122	14.77
203.342	34.99
203.563	29.56
203.783	39.92
204.003	21.98
204.223	30.75
204.443	35.88
204.663	59.56
204.884	65.44
205.104	56.18
205.324	40.47
205.544	54.28
205.764	16.99
205.984	32.21
206.204	44.43
206.424	52
206.644	35.24
206.864	50.22
207.084	9.38
207.304	33.69
207.525	12.5
207.745	29.22
207.964	53.15
208.184	55.25
208.404	23.93
208.624	43.83
208.844	44.67
209.064	30.89
209.284	34.14
209.504	16.7
209.724	21.88
209.944	13.44
210.164	14.21
210.384	19.65
210.604	34.96
210.823	35.71
211.043	44.13
211.263	61.64
211.483	59.18
211.703	44.37
211.922	32.96
212.142	50.81
212.362	14.92
212.582	35.53
212.801	49.01
213.021	40.97
213.241	21.64
213.461	34.93
213.68	1.19
213.9	8.23
214.12	0.14
214.339	-12.92
214.559	-27.98
214.779	6.56
214.998	-12.62
215.218	-15.56
215.438	-6.37
215.657	4.51
215.877	1.65
216.096	-12.54
216.316	-12.41
216.535	-2.86
216.755	-39.15
216.974	-35.03
217.194	-62.32
217.413	-2.39
217.633	10.3
217.852	17.19
218.072	-11.5
218.291	17.69
218.511	30.76
218.73	1.73
218.95	2.97
219.169	27.71
219.389	16.21
219.608	-1.1
219.827	17.87
220.047	16.63
220.266	-0.92
220.485	21.61
220.705	9.06
220.924	-10.08
221.143	-12.62
221.363	-16.49
221.582	-47.48
221.801	-100.98
222.021	2.55
222.24	29.18
222.459	37.03
222.678	27.54
222.897	35.2
223.117	20.91
223.336	-1.21
223.555	-10.83
223.774	11.77
223.993	-1.52
224.213	4.55
224.432	16.45
224.651	31.75
224.87	17.17
225.089	20.75
225.308	9.52
225.527	8.1
225.746	-9.91
225.965	-4.21
226.184	4.83
226.404	39.82
226.623	44.15
226.842	37.63
227.061	53.16
227.28	53.5
227.499	58.19
227.718	36.94
227.936	29.59
228.155	-0.7
228.374	-20.79
228.593	-17.04
228.812	-27.44
229.031	-16.62
229.25	0.73
229.469	18.65
229.688	8.6
229.907	24.81
230.125	25.06
230.344	30.62
230.563	28.52
230.782	44.65
231.001	26.02
231.22	-15.36
231.438	-22.11
231.657	-19.63
231.876	-17.36
232.095	-15.54
232.313	-0.44
232.532	17.2
232.751	27.51
232.969	26.93
233.188	31.7
233.407	28.43
233.625	9.98
233.844	17.38
234.063	12.5
234.281	-14.25
234.5	-2.24
234.719	5.59
234.937	12.46
235.156	-10.83
235.374	35.54
235.593	43.26
235.811	45.65
236.03	24.46
236.249	38.09
236.467	34.71
236.686	18
236.904	14.93
237.123	21.53
237.341	6.35
237.559	0.33
237.778	23.57
237.996	17.5
238.215	7.98
238.433	31
238.652	34.97
238.87	25.17
239.088	26.46
239.307	26.07
239.525	15.32
239.743	17.59
239.962	17.9
240.18	23.58
240.398	29.75
240.617	3.79
240.835	-4.51
241.053	-20.35
241.271	-25.23
241.49	-7.44
241.708	26.98
241.926	28.73
242.144	23.79
242.363	27.45
242.581	7.63
242.799	-2.94
243.017	-8.66
243.235	-0.07
243.453	-0.43
243.672	10.09
243.89	8.39
244.108	34.79
244.326	55.65
244.544	27.92
244.762	15.39
244.98	25.2
245.198	4.43
245.416	-13.64
245.634	-17.56
245.852	-0.37
246.07	9.47
246.288	19.93
246.506	34.78
246.724	49.59
246.942	38.86
247.16	30.79
247.378	10.87
247.596	-6.27
247.814	-5.55
248.032	-11
248.25	-13.41
248.468	-17.24
248.685	-6.26
248.903	-11.27
249.121	-18.02
249.339	-21.15
249.557	-15.92
249.775	-21.56
249.992	-42.38
250.21	-32.61
250.428	-13.34
250.646	-7.32
250.863	11.35
251.081	20.84
251.299	34.37
251.517	35.98
251.734	46.67
251.952	34.72
252.17	37.85
252.387	28.33
252.605	41.6
252.823	31.11
253.04	32.01
253.258	37.07
253.475	35.05
253.693	26.07
253.911	31.33
254.128	40.84
254.346	34.39
254.563	38.91
254.781	13.61
254.998	13.26
255.216	-20.51
255.433	7.53
255.651	13.7
255.868	18.93
256.086	22.07
256.303	40.07
256.521	32.53
256.738	19.51
256.956	23.64
257.173	20.77
257.39	28.16
257.608	30.78
257.825	33.61
258.043	20.18
258.26	26.75
258.477	17.6
258.695	-2.4
258.912	-5.73
259.129	-2.68
259.346	-3.36
259.564	5.23
259.781	11.65
259.998	-1.71
260.216	8.95
260.433	13.88
260.65	1.22
260.867	3.97
261.084	11.82
261.302	4.13
261.519	-1.3
261.736	13.27
261.953	10.27
262.17	12.61
262.387	14.9
262.604	-19.98
262.822	-34.42
263.039	-8.76
263.256	-4.53
263.473	4.37
263.69	18.74
263.907	30.78
264.124	28.69
264.341	21.67
264.558	34.51
264.775	34.6
264.992	19.06
265.209	4
265.426	-1.52
265.643	-2.46
265.86	-7.31
266.077	16.08
266.294	20.63
266.51	13.31
266.727	21.54
266.944	32.22
267.161	7.1
267.378	-2.76
267.595	23.18
267.812	14.95
268.028	1.42
268.245	10.84
268.462	30.5
268.679	26.01
268.896	3.23
269.112	18.65
269.329	15.56
269.546	17.86
269.763	9.29
269.979	21.83
270.196	21.07
270.413	34.88
270.629	32.48
270.846	34.93
271.063	46.54
271.279	56.18
271.496	40.43
271.712	29.05
271.929	43.42
272.146	47.14
272.362	17.56
272.579	38.1
272.795	41.42
273.012	3.06
273.228	-9.46
273.445	12.88
273.661	-6.3
273.878	-19.3
274.094	17.96
274.311	16.8
274.527	13.63
274.744	29.22
274.96	30.23
275.177	24.29
275.393	26.81
275.609	31.95
275.826	16.54
276.042	25.22
276.259	10.32
276.475	10.43
276.691	16.03
276.908	25.18
277.124	30.22
277.34	30.9
277.557	12.8
277.773	-4.57
277.989	-16.14
278.205	-26.23
278.422	-24.37
278.638	-7.13
278.854	16
279.07	28.15
279.286	14.41
279.503	25.29
279.719	29.76
279.935	16.14
280.151	4.65
280.367	15.31
280.583	28.64
280.799	35.27
281.016	16.32
281.232	33.94
281.448	23.55
281.664	25.38
281.88	8.64
282.096	34.67
282.312	17.95
282.528	35.8
282.744	34.78
282.96	43.3
283.176	35.69
283.392	45.1
283.608	30.04
283.824	18.18
284.04	10.48
284.256	8.69
284.471	-15.77
284.687	-5.8
284.903	-8.23
285.119	-1.66
285.335	-0.07
285.551	15.5
285.767	17.77
285.982	25.3
286.198	26.77
286.414	18.98
286.63	17.46
286.846	15.09
287.061	-0.84
287.277	16.43
287.493	9.85
287.709	2.61
287.924	20.37
288.14	31.15
288.356	31.34
288.571	43.06
288.787	46.11
289.003	34.02
289.218	21.1
289.434	14.9
289.65	22.78
289.865	35.4
290.081	21.4
290.296	36.33
290.512	38.25
290.727	23.14
290.943	5.64
291.159	17.72
291.374	23.4
291.59	18.49
291.805	11.24
292.021	21.04
292.236	30.05
292.451	-0.74
292.667	2.1
292.882	-6.7
293.098	-12.99
293.313	-32.84
293.529	-2.47
293.744	-19.45
293.959	-10.91
294.175	5.45
294.39	9.15
294.605	16.07
294.821	26.2
295.036	37.69
295.251	30.05
295.467	22.31
295.682	14.09
295.897	10.32
296.112	3.69
296.328	3.53
296.543	6.27
296.758	-1.01
296.973	2.56
297.188	1.13
297.404	-22.76
297.619	-11.19
297.834	-6.88
298.049	-3.52
298.264	3.52
298.479	31.46
298.694	32.26
298.909	33.59
299.125	32.54
299.34	52.67
299.555	48.23
299.77	36.4
299.985	-4.58
300.2	-2.89
300.415	-20.78
300.63	0.44
300.845	-21.41
301.06	-4.58
301.275	-13.89
301.49	-10.29
301.704	-64.1
301.919	-13.94
302.134	-3.04
302.349	-4.77
302.564	-8.44
302.779	-0.33
302.994	-18.04
303.209	-25.96
303.423	-6.48
303.638	-22.73
303.853	-42.99
304.068	3.6
304.283	6.98
304.497	1.02
304.712	-13.31
304.927	-1.17
305.142	-35.28
305.356	-43.98
305.571	-27.69
305.786	2.55
306	-7.47
306.215	5.32
306.43	13.44
306.644	10.81
306.859	37.98
307.074	50.52
307.288	43.49
307.503	45.06
307.717	40.11
307.932	22.17
308.147	5.77
308.361	5.15
308.576	2.55
308.79	-14.39
309.005	22.08
309.219	27.97
309.434	38.66
309.648	33.99
309.863	32.76
310.077	7.73
310.292	7.06
310.506	-5.29
310.72	-1.53
310.935	-3.06
311.149	24.2
311.364	33.93
311.578	37.44
311.792	9.97
312.007	20.3
312.221	-12.04
312.435	-19.4
312.649	-17.8
312.864	-57.51
313.078	-44.53
313.292	-44.43
313.507	-26.2
313.721	-26.81
313.935	-2.11
314.149	9.07
314.363	10.89
314.578	21.74
314.792	39
315.006	45.22
315.22	26.89
315.434	29.91
315.648	22.21
315.862	8.55
316.077	7.08
316.291	10.12
316.505	19.84
316.719	23.46
316.933	30.3
317.147	31.59
317.361	29.51
317.575	5.12
317.789	-2.52
318.003	1.54
318.217	12.6
318.431	19.03
318.645	26.62
318.859	33.68
319.073	18.21
319.287	-1.89
319.5	-0.58
319.714	7.29
319.928	11.41
320.142	34.57
320.356	48.49
320.57	37.38
320.784	29.78
320.997	20.74
321.211	18.85
321.425	9.14
321.639	4.39
321.853	16.38
322.066	9.06
322.28	6.7
322.494	16.98
322.707	37.3
322.921	34.09
323.135	37.59
323.349	31.72
323.562	16.43
323.776	5.95
323.989	2.11
324.203	-2.03
324.417	-0.41
324.63	4.46
324.844	1.31
325.057	6.83
325.271	3.69
325.485	9.42
325.698	22.14
325.912	23.55
326.125	21.59
326.339	32.38
326.552	25.43
326.766	19.58
326.979	30.66
327.193	26.53
327.406	16.24
327.619	16.06
327.833	14.04
328.046	11.33
328.26	24.3
328.473	21.7
328.686	16.3
328.9	10.56
329.113	-14.48
329.326	-44.69
329.54	-50.55
329.753	-41.05
329.966	-27.67
330.179	-19.03
330.393	-9.4
330.606	5.47
330.819	26.99
331.032	32.46
331.246	27.56
331.459	18.98
331.672	22.04
331.885	-8.99
332.098	-19.31
332.311	-5.94
332.525	9.77
332.738	-4.82
332.951	-22.23
333.164	-18.17
333.377	-16.57
333.59	-4.86
333.803	15.42
334.016	23.01
334.229	15.74
334.442	11.33
334.655	0.24
334.868	-21.39
335.081	-2.25
335.294	11.09
335.507	12.74
335.72	22.59
335.933	25.91
336.146	25.8
336.359	15.56
336.572	8.23
336.785	7.5
336.997	-4.93
337.21	-3.29
337.423	9.73
337.636	15.05
337.849	8
338.062	13.61
338.274	6.2
338.487	-6.76
338.7	-24.43
338.913	-15.41
339.125	-0.81
339.338	6.25
339.551	13.4
339.763	20.55
339.976	1.96
340.189	-0.07
340.402	-0.09
340.614	-11.19
340.827	-2.21
341.039	36.98
341.252	38.14
341.465	23.54
341.677	27.19
341.89	12
342.102	6.12
342.315	9
342.527	15.38
342.74	5.17
342.952	7.48
343.165	8.08
343.377	6.77
343.59	-1.02
343.802	11.48
344.015	26.31
344.227	13.13
344.44	9.06
344.652	-2.59
344.864	-8.45
345.077	-17.67
345.289	-3.6
345.502	3.79
345.714	10.38
345.926	16.24
346.139	-8.06
346.351	-12.57
346.563	0.1
346.775	4.64
346.988	-23.62
347.2	-7.7
347.412	-10.4
347.624	-7.57
347.837	-17.41
348.049	-15.33
348.261	-10.29
348.473	-1.68
348.685	-3.8
348.897	11.92
349.11	13.86
349.322	22.57
349.534	33.47
349.746	29.01
349.958	25.63
350.17	31.39
350.382	20.39
350.594	8.2
350.806	14.73
351.018	-2.21
351.23	9.36
351.442	-9.52
351.654	1.97
351.866	-18.15
352.078	12.73
352.29	-6.8
352.502	10.93
352.714	-6.93
352.926	-3.58
353.138	-17.56
353.35	-9.61
353.561	-26.62
353.773	5.84
353.985	9.32
354.197	5.65
354.409	7.45
354.621	-4.52
354.832	-24.35
355.044	-17.75
355.256	-14.76
355.468	-1.81
355.679	17
355.891	24.67
356.103	30.72
356.314	34.27
356.526	34.71
356.738	38.75
356.949	34.35
357.161	26.88
357.373	17.88
357.584	9.71
357.796	-1.58
358.008	-10.59
358.219	-21.03
358.431	-15.24
358.642	-3.16
358.854	1.95
359.065	20.23
359.277	19.47
359.488	23.09
359.7	17.69
359.911	28.56
360.123	13.69
360.334	33.08
360.546	25.17
360.757	29.72
360.969	28.19
361.18	42.38
361.391	37.53
361.603	33.11
361.814	34.27
362.025	20.43
362.237	10.52
362.448	9.45
362.659	1.27
362.871	-14.56
363.082	-13.31
363.293	-3.76
363.504	-16.23
363.716	-8.07
363.927	-13.31
364.138	-25.63
364.349	-17.26
364.56	-3.32
364.772	2.13
364.983	17.35
365.194	29.46
365.405	25.8
365.616	13.01
365.827	15.35
366.038	5.92
366.25	-17.81
366.461	-17.67
366.672	-21.69
366.883	-18.27
367.094	-11.54
367.305	8.85
367.516	19.95
367.727	16.08
367.938	24.01
368.149	16.51
368.36	11.93
368.571	-5.88
368.781	-13.71
368.992	-39
369.203	-15.9
369.414	-2.04
369.625	16.86
369.836	24.38
370.047	26.43
370.258	28.28
370.468	24.41
370.679	5.87
370.89	-6.49
371.101	-1.19
371.312	-12.23
371.522	-11.13
371.733	-7.62
371.944	-13.48
372.155	-17.85
372.365	-20.53
372.576	-23.24
372.787	-6
372.997	13.58
373.208	12.55
373.419	2.92
373.629	8.78
373.84	15.14
374.05	0.88
374.261	4.93
374.472	7.85
374.682	-4.01
374.893	-0.64
375.103	11.92
375.314	4.56
375.524	16.62
375.735	25.83
375.945	23.64
376.156	24.93
376.366	24.37
376.577	21.76
376.787	8.39
376.997	-3.85
377.208	-16.15
377.418	-15.21
377.629	-14.51
377.839	1.18
378.049	7.05
378.26	7.94
378.47	23.94
378.68	22.82
378.89	19.91
379.101	13.41
379.311	11.34
379.521	-1.37
379.732	-0.59
379.942	-4.48
380.152	5.56
380.362	10.96
380.572	15.12
380.783	14.23
380.993	19.22
381.203	16.03
381.413	12.87
381.623	4.55
381.833	14.29
382.043	11.78
382.253	12.38
382.463	9.06
382.674	5.29
382.884	3.09
383.094	-2.3
383.304	-9.76
383.514	-5.02
383.724	8
383.934	-4.86
384.144	2.12
384.353	13.66
384.563	13.15
384.773	12.51
384.983	21.32
385.193	22.19
385.403	10.97
385.613	14.93
385.823	11.39
386.033	10.53
386.242	7.45
386.452	10.18
386.662	3.26
386.872	7.34
387.082	2.29
387.291	-1.64
387.501	-1.67
387.711	1.49
387.921	-5.25
388.13	-1.44
388.34	3.31
388.55	2.48
388.759	2.12
388.969	4.24
389.179	4.69
389.388	3.3
389.598	4.81
389.807	4.27
390.017	3.55
390.227	4.3
390.436	6.15
390.646	4.59
390.855	5.03
391.065	6.02
391.274	3.97
391.484	0.39
391.693	-0.17
391.903	1.41
392.112	0.93
392.322	1.85
392.531	1.29
392.74	2.64
392.95	3.08
393.159	3.81
393.369	3.6
393.578	5.71
393.787	6
393.997	3.27
394.206	2.12
394.415	2.87
394.625	2.15
394.834	1.12
395.043	2.12
395.252	3.18
395.462	2.78
395.671	3.43
395.88	4.67
396.089	5.11
396.298	5.06
396.508	4.62
396.717	4.05
396.926	3.5
397.135	3.25
397.344	3.16
397.553	3.68
397.762	4.17
397.971	4.42
398.181	4.76
398.39	4.35
398.599	4.21
398.808	4.21
399.017	4.71
399.226	4.62
399.435	4.83
399.644	5
399.853	5.3
400.062	5.35
400.27	5.74
400.479	5.88
400.688	5.47
400.897	5.34
401.106	5.03
401.315	4.57
401.524	4.81
401.733	4.87
401.941	5.01
402.15	4.89
402.359	4.94
402.568	4.86
402.777	4.84
402.985	4.77
403.194	4.63
403.403	4.58
403.612	4.42
403.82	4.53
404.029	4.24
404.238	4.31
404.446	4.5
404.655	4.38
404.864	4.34
405.072	4.26
405.281	4.33
405.489	4.2
405.698	4.31
405.906	4.21
406.115	4.27
406.324	4.05
406.532	3.94
406.741	3.83
406.949	3.9
407.158	3.94
407.366	3.96
407.574	3.98
407.783	4.24
407.991	4
408.2	4.04
408.408	4.04
408.617	4.11
408.825	3.91
409.033	4.21
409.242	4.15
409.45	4.25
409.658	4.28
409.867	4.31
410.075	4.2
410.283	4.22
410.491	4.17
410.7	4.11
410.908	4.16
411.116	4.22
411.324	4.17
411.533	4.19
411.741	4.21
411.949	4.2
412.157	4.14
412.365	4.07
412.573	4.02
412.781	3.96
412.99	3.9
413.198	3.89
413.406	3.98
413.614	4.1
413.822	4.15
414.03	4.17
414.238	4.13
414.446	4.2
414.654	4.05
414.862	3.97
415.07	3.77
415.278	3.81
415.486	3.71
415.694	3.81
415.902	3.82
416.109	3.93
416.317	3.94
416.525	3.85
416.733	3.78
416.941	3.68
417.149	3.67
417.357	3.55
417.564	3.58
417.772	3.42
417.98	3.57
418.188	3.59
418.395	3.6
418.603	3.67
418.811	3.91
419.019	3.92
419.226	4.02
419.434	4.03
419.642	4
419.849	3.92
420.057	3.82
420.265	3.64
420.472	3.66
420.68	3.7
420.887	3.66
421.095	3.64
421.302	3.71
421.51	3.72
421.717	3.61
421.925	3.66
422.132	3.69
422.34	3.48
422.547	3.3
422.755	3.48
422.962	3.43
423.17	3.32
423.377	3.43
423.585	3.79
423.792	3.65
423.999	3.6
424.207	3.72
424.414	3.63
424.621	3.51
424.829	3.51
425.036	3.51
425.243	3.61
425.451	3.66
425.658	3.61
425.865	3.52
426.072	3.58
426.28	3.53
426.487	3.61
426.694	3.49
426.901	3.32
427.108	3.16
427.315	3.11
427.523	3.05
427.73	3.16
427.937	3.36
428.144	3.46
428.351	3.44
428.558	3.55
428.765	3.45
428.972	3.44
429.179	3.45
429.386	3.51
429.593	3.48
429.8	3.55
430.007	3.62
430.214	3.75
430.421	3.81
430.628	3.65
430.835	3.66
431.042	3.61
431.249	3.63
431.456	3.44
431.662	3.6
431.869	3.6
432.076	3.58
432.283	3.57
432.49	3.64
432.697	3.72
432.903	3.53
433.11	3.44
433.317	3.35
433.524	3.45
433.73	3.33
433.937	3.53
434.144	3.67
434.35	3.69
434.557	3.54
434.764	3.53
434.97	3.45
435.177	3.57
435.384	3.44
435.59	3.5
435.797	3.61
436.003	3.61
436.21	3.53
436.416	3.58
436.623	3.53
436.829	3.52
437.036	3.56
437.242	3.65
437.449	3.71
437.655	3.83
437.862	3.84
438.068	3.8
438.275	3.71
438.481	3.69
438.687	3.6
438.894	3.59
439.1	3.68
439.307	3.72
439.513	3.78
439.719	3.7
439.926	3.66
440.132	3.66
440.338	3.58
440.544	3.55
440.751	3.62
440.957	3.65
441.163	3.64
441.369	3.73
441.575	3.72
441.782	3.72
441.988	3.69
442.194	3.56
442.4	3.54
442.606	3.65
442.812	3.64
443.018	3.62
443.224	3.77
443.431	3.71
443.637	3.64
443.843	3.57
444.049	3.65
444.255	3.52
444.461	3.55
444.667	3.44
444.873	3.52
445.079	3.41
445.284	3.51
445.49	3.39
445.696	3.45
445.902	3.48
446.108	3.33
446.314	3.29
446.52	3.42
446.726	3.43
446.931	3.4
447.137	3.57
447.343	3.64
447.549	3.57
447.755	3.51
447.96	3.54
448.166	3.48
448.372	3.41
448.578	3.59
448.783	3.66
448.989	3.66
449.195	3.65
449.4	3.67
449.606	3.53
449.812	3.45
450.017	3.49
450.223	3.54
450.428	3.46
450.634	3.49
450.84	3.61
451.045	3.62
451.251	3.66
451.456	3.79
451.662	3.79
451.867	3.67
452.073	3.63
452.278	3.59
452.483	3.57
452.689	3.57
452.894	3.61
453.1	3.63
453.305	3.69
453.51	3.65
453.716	3.57
453.921	3.55
454.127	3.63
454.332	3.45
454.537	3.44
454.742	3.51
454.948	3.41
455.153	3.34
455.358	3.5
455.563	3.53
455.769	3.45
455.974	3.63
456.179	3.48
456.384	3.45
456.589	3.48
456.795	3.52
457	3.54
457.205	3.75
457.41	3.74
457.615	3.66
457.82	3.67
458.025	3.59
458.23	3.42
458.435	3.43
458.64	3.51
458.845	3.5
459.05	3.44
459.255	3.52
459.46	3.55
459.665	3.54
459.87	3.47
460.075	3.53
460.28	3.45
460.485	3.51
460.69	3.5
460.895	3.5
461.099	3.52
461.304	3.61
461.509	3.51
461.714	3.42
461.919	3.47
462.123	3.41
462.328	3.44
462.533	3.46
462.738	3.46
462.942	3.46
463.147	3.58
463.352	3.51
463.556	3.57
463.761	3.57
463.966	3.58
464.17	3.53
464.375	3.49
464.58	3.46
464.784	3.48
464.989	3.46
465.193	3.35
465.398	3.44
465.602	3.55
465.807	3.53
466.011	3.63
466.216	3.68
466.42	3.64
466.625	3.59
466.829	3.74
467.034	3.8
467.238	3.84
467.443	3.86
467.647	3.73
467.851	3.6
468.056	3.5
468.26	3.48
468.464	3.45
468.669	3.51
468.873	3.51
469.077	3.53
469.282	3.47
469.486	3.49
469.69	3.52
469.894	3.51
470.099	3.46
470.303	3.52
470.507	3.49
470.711	3.53
470.915	3.62
471.119	3.61
471.324	3.58
471.528	3.6
471.732	3.55
471.936	3.54
472.14	3.63
472.344	3.73
472.548	3.79
472.752	3.87
472.956	3.83
473.16	3.77
473.364	3.75
473.568	3.75
473.772	3.68
473.976	3.72
474.18	3.81
474.384	3.72
474.588	3.63
474.792	3.63
474.995	3.65
475.199	3.6
475.403	3.65
475.607	3.76
475.811	3.71
476.015	3.7
476.218	3.66
476.422	3.66
476.626	3.57
476.83	3.56
477.033	3.6
477.237	3.62
477.441	3.6
477.644	3.61
477.848	3.64
478.052	3.55
478.255	3.56
478.459	3.51
478.663	3.62
478.866	3.66
479.07	3.7
479.273	3.7
479.477	3.78
479.681	3.75
479.884	3.74
480.088	3.68
480.291	3.72
480.495	3.71
480.698	3.64
480.901	3.57
481.105	3.59
481.308	3.58
481.512	3.57
481.715	3.58
481.919	3.71
482.122	3.74
482.325	3.72
482.529	3.69
482.732	3.71
482.935	3.6
483.138	3.54
483.342	3.52
483.545	3.63
483.748	3.67
483.952	3.83
484.155	3.98
484.358	3.97
484.561	3.89
484.764	3.84
484.967	3.76
485.171	3.67
485.374	3.66
485.577	3.75
485.78	3.71
485.983	3.73
486.186	3.64
486.389	3.66
486.592	3.53
486.795	3.61
486.998	3.51
487.201	3.66
487.404	3.7
487.607	3.84
487.81	3.75
488.013	3.86
488.216	3.84
488.419	3.85
488.622	3.71
488.825	3.8
489.028	3.71
489.231	3.71
489.433	3.66
489.636	3.64
489.839	3.62
490.042	3.69
490.245	3.66
490.447	3.72
490.65	3.84
490.853	3.85
491.056	3.85
491.258	3.84
491.461	3.8
491.664	3.73
491.866	3.69
492.069	3.71
492.272	3.66
492.474	3.72
492.677	3.75
492.879	3.8
493.082	3.8
493.285	3.91
493.487	3.85
493.69	3.84
493.892	3.84
494.095	3.88
494.297	3.86
494.5	3.96
494.702	3.99
494.905	4.05
495.107	3.95
495.309	4.02
495.512	3.97
495.714	4
495.917	3.95
496.119	3.99
496.321	3.86
496.524	3.89
496.726	3.84
496.928	3.87
497.13	3.9
497.333	4
497.535	4.06
497.737	4.11
497.939	4.1
498.142	4.15
498.344	4.16
498.546	4.09
498.748	4.09
498.95	4.16
499.152	4.12
499.355	4.13
499.557	4.18
499.759	4.16
499.961	4.1
500.163	4.11
500.365	4.14
500.567	4.12
500.769	4.17
500.971	4.23
501.173	4.25
501.375	4.23
501.577	4.27
501.779	4.29
501.981	4.28
502.183	4.31
502.385	4.29
502.587	4.25
502.788	4.22
502.99	4.19
503.192	4.23
503.394	4.27
503.596	4.33
503.798	4.35
503.999	4.41
504.201	4.37
504.403	4.31
504.605	4.35
504.806	4.38
505.008	4.42
505.21	4.46
505.411	4.45
505.613	4.36
505.815	4.34
506.016	4.28
506.218	4.19
506.42	4.22
506.621	4.27
506.823	4.29
507.024	4.28
507.226	4.4
507.427	4.39
507.629	4.44
507.83	4.43
508.032	4.4
508.233	4.36
508.435	4.34
508.636	4.34
508.838	4.3
509.039	4.34
509.24	4.31
509.442	4.32
509.643	4.26
509.845	4.3
510.046	4.31
510.247	4.36
510.448	4.43
510.65	4.41
510.851	4.36
511.052	4.37
511.254	4.31
511.455	4.27
511.656	4.28
511.857	4.29
512.058	4.25
512.26	4.3
512.461	4.24
512.662	4.24
512.863	4.21
513.064	4.2
513.265	4.13
513.466	4.16
513.667	4.13
513.868	4.14
514.069	4.11
514.27	4.16
514.471	4.13
514.672	4.11
514.873	4.08
515.074	4.13
515.275	4.08
515.476	4.03
515.677	4.04
515.878	4.14
516.079	4.09
516.28	4.14
516.481	4.26
516.682	4.32
516.882	4.26
517.083	4.29
517.284	4.24
517.485	4.17
517.686	4.11
517.886	4.15
518.087	4.18
518.288	4.12
518.488	4.14
518.689	4.18
518.89	4.14
519.091	4.14
519.291	4.15
519.492	4.19
519.692	4.21
519.893	4.31
520.094	4.25
520.294	4.39
520.495	4.3
520.695	4.28
520.896	4.21
521.096	4.24
521.297	4.17
521.497	4.25
521.698	4.2
521.898	4.19
522.099	4.17
522.299	4.14
522.499	4.1
522.7	4.14
522.9	4.13
523.101	4.16
523.301	4.17
523.501	4.2
523.702	4.19
523.902	4.19
524.102	4.22
524.302	4.26
524.503	4.27
524.703	4.26
524.903	4.24
525.103	4.24
525.304	4.24
525.504	4.22
525.704	4.26
525.904	4.29
526.104	4.27
526.304	4.27
526.504	4.26
526.705	4.21
526.905	4.2
527.105	4.23
527.305	4.22
527.505	4.17
527.705	4.2
527.905	4.25
528.105	4.19
528.305	4.12
528.505	4.18
528.705	4.16
528.905	4.13
529.105	4.15
529.304	4.23
529.504	4.27
529.704	4.27
529.904	4.27
530.104	4.24
530.304	4.22
530.503	4.16
530.703	4.13
530.903	4.13
531.103	4.16
531.303	4.19
531.502	4.27
531.702	4.34
531.902	4.32
532.101	4.34
532.301	4.29
532.501	4.28
532.7	4.31
532.9	4.33
533.1	4.34
533.299	4.31
533.499	4.28
533.698	4.25
533.898	4.27
534.097	4.24
534.297	4.29
534.496	4.28
534.696	4.35
534.895	4.44
535.095	4.44
535.294	4.42
535.494	4.41
535.693	4.34
535.892	4.29
536.092	4.29
536.291	4.35
536.491	4.41
536.69	4.48
536.889	4.46
537.088	4.49
537.288	4.47
537.487	4.47
537.686	4.44
537.886	4.47
538.085	4.47
538.284	4.52
538.483	4.49
538.682	4.51
538.882	4.5
539.081	4.61
539.28	4.61
539.479	4.6
539.678	4.59
539.877	4.56
540.076	4.53
540.275	4.51
540.474	4.57
540.673	4.58
540.872	4.6
541.071	4.54
541.27	4.56
541.469	4.59
541.668	4.62
541.867	4.68
542.066	4.76
542.265	4.81
542.464	4.82
542.663	4.87
542.862	4.93
543.06	5
543.259	5.04
543.458	5.03
543.657	5.05
543.856	4.98
544.054	4.87
544.253	4.78
544.452	4.8
544.651	4.77
544.849	4.79
545.048	4.87
545.247	4.94
545.445	4.93
545.644	4.94
545.843	5.01
546.041	5
546.24	5.04
546.438	5.05
546.637	5.06
546.836	5.05
547.034	5.09
547.233	5.06
547.431	5.11
547.63	5.1
547.828	5.09
548.027	5.08
548.225	5.1
548.423	5.09
548.622	5.13
548.82	5.15
549.019	5.2
549.217	5.19
549.415	5.2
549.614	5.29
549.812	5.31
550.01	5.29
550.209	5.39
550.407	5.48
550.605	5.42
550.803	5.45
551.002	5.54
551.2	5.54
551.398	5.51
551.596	5.53
551.794	5.56
551.993	5.56
552.191	5.55
552.389	5.53
552.587	5.61
552.785	5.66
552.983	5.71
553.181	5.82
553.379	5.93
553.577	5.9
553.775	5.98
553.973	6
554.171	5.97
554.369	6.05
554.567	6.08
554.765	6.03
554.963	6
555.161	6.03
555.359	6
555.557	6.11
555.755	6.21
555.952	6.3
556.15	6.37
556.348	6.4
556.546	6.47
556.744	6.48
556.941	6.49
557.139	6.54
557.337	6.63
557.535	6.54
557.732	6.56
557.93	6.65
558.128	6.63
558.325	6.65
558.523	6.74
558.721	6.83
558.918	6.8
559.116	6.88
559.313	6.85
559.511	6.95
559.708	6.93
559.906	7.06
560.104	7.12
560.301	7.25
560.498	7.27
560.696	7.35
560.893	7.37
561.091	7.41
561.288	7.45
561.486	7.45
561.683	7.48
561.88	7.5
562.078	7.55
562.275	7.59
562.473	7.6
562.67	7.63
562.867	7.64
563.064	7.68
563.262	7.67
563.459	7.75
563.656	7.81
563.853	7.85
564.051	7.82
564.248	7.89
564.445	8.02
564.642	8.07
564.839	8.26
565.036	8.37
565.234	8.4
565.431	8.34
565.628	8.37
565.825	8.31
566.022	8.36
566.219	8.37
566.416	8.46
566.613	8.53
566.81	8.6
567.007	8.63
567.204	8.69
567.401	8.69
567.598	8.71
567.795	8.68
567.991	8.69
568.188	8.75
568.385	8.77
568.582	8.77
568.779	8.83
568.976	8.82
569.172	8.93
569.369	8.97
569.566	8.97
569.763	8.97
569.96	9.06
570.156	8.97
570.353	9.01
570.55	9.06
570.746	9.09
570.943	9.12
571.14	9.18
571.336	9.19
571.533	9.22
571.729	9.27
571.926	9.31
572.123	9.28
572.319	9.36
572.516	9.42
572.712	9.45
572.909	9.39
573.105	9.4
573.302	9.37
573.498	9.29
573.695	9.32
573.891	9.4
574.087	9.5
574.284	9.49
574.48	9.57
574.677	9.51
574.873	9.47
575.069	9.44
575.266	9.43
575.462	9.37
575.658	9.47
575.854	9.57
576.051	9.61
576.247	9.69
576.443	9.74
576.639	9.75
576.835	9.66
577.032	9.61
577.228	9.58
577.424	9.6
577.62	9.57
577.816	9.55
578.012	9.56
578.208	9.52
578.404	9.53
578.6	9.48
578.796	9.54
578.993	9.51
579.189	9.49
579.384	9.4
579.58	9.25
579.776	9.23
579.972	9.22
580.168	9.18
580.364	9.16
580.56	9.27
580.756	9.19
580.952	9.09
581.148	9.14
581.343	9.18
581.539	9.18
581.735	9.21
581.931	9.32
582.127	9.31
582.322	9.29
582.518	9.31
582.714	9.27
582.909	9.15
583.105	9.18
583.301	9.2
583.496	9.14
583.692	9.11
583.888	9.19
584.083	9.11
584.279	9.13
584.474	9.09
584.67	9.06
584.866	9.1
585.061	9.07
585.257	9.12
585.452	9.15
585.648	9.14
585.843	9.12
586.039	9.13
586.234	9.08
586.429	9
586.625	8.99
586.82	8.98
587.015	9.06
587.211	8.95
587.406	8.94
587.601	9.03
587.797	8.96
587.992	8.86
588.187	8.86
588.383	8.91
588.578	8.88
588.773	8.87
588.968	8.89
589.163	8.94
589.359	8.98
589.554	8.99
589.749	9.04
589.944	9.06
590.139	9.01
590.334	8.95
590.529	8.92
590.724	8.9
590.919	8.87
591.114	8.96
591.309	8.9
591.504	8.95
591.699	8.91
591.894	8.92
592.089	8.87
592.284	8.96
592.479	9.03
592.674	9.05
592.869	9.15
593.064	9.16
593.259	9.12
593.454	8.96
593.648	8.98
593.843	8.96
594.038	8.97
594.233	9
594.428	9.12
594.622	9.18
594.817	9.18
595.012	9.16
595.206	9.22
595.401	9.31
595.596	9.32
595.79	9.34
595.985	9.42
596.18	9.47
596.374	9.45
596.569	9.48
596.763	9.53
596.958	9.58
597.153	9.59
597.347	9.59
597.542	9.63
597.736	9.57
597.931	9.54
598.125	9.56
598.319	9.66
598.514	9.71
598.708	9.83
598.903	9.9
599.097	9.9
599.291	9.87
599.486	9.89
599.68	9.91
599.874	9.87
600.069	9.97
600.263	9.95
600.457	9.9
600.651	9.87
600.846	9.87
601.04	9.83
601.234	9.8
601.428	9.88
601.622	9.93
601.817	10
602.011	10.06
602.205	10.07
602.399	10.02
602.593	10.06
602.787	10.02
602.981	9.95
603.175	9.98
603.369	9.97
603.563	9.92
603.757	9.95
603.951	9.95
604.145	9.95
604.339	9.93
604.533	9.87
604.727	9.86
604.921	9.81
605.115	9.82
605.309	9.88
605.502	9.9
605.696	9.84
605.89	9.86
606.084	9.81
606.278	9.66
606.471	9.65
606.665	9.59
606.859	9.54
607.053	9.48
607.246	9.6
607.44	9.5
607.634	9.54
607.827	9.53
608.021	9.53
608.214	9.41
608.408	9.38
608.602	9.41
608.795	9.43
608.989	9.36
609.182	9.33
609.376	9.41
609.569	9.34
609.763	9.25
609.956	9.2
610.15	9.17
610.343	9.02
610.537	8.97
610.73	8.96
610.923	8.94
611.117	8.94
611.31	8.96
611.504	8.89
611.697	8.82
611.89	8.76
612.083	8.64
612.277	8.61
612.47	8.54
612.663	8.57
612.856	8.56
613.05	8.6
613.243	8.46
613.436	8.43
613.629	8.41
613.822	8.4
614.015	8.31
614.209	8.33
614.402	8.33
614.595	8.29
614.788	8.15
614.981	8.05
615.174	8.07
615.367	8.02
615.56	7.93
615.753	8.01
615.946	8.08
616.139	7.99
616.332	7.94
616.525	7.9
616.718	7.8
616.911	7.69
617.103	7.71
617.296	7.71
617.489	7.74
617.682	7.77
617.875	7.84
618.067	7.78
618.26	7.72
618.453	7.66
618.646	7.64
618.838	7.55
619.031	7.52
619.224	7.47
619.417	7.45
619.609	7.33
619.802	7.32
619.994	7.34
620.187	7.37
620.38	7.32
620.572	7.33
620.765	7.39
620.957	7.37
621.15	7.34
621.342	7.35
621.535	7.41
621.727	7.4
621.92	7.34
622.112	7.33
622.305	7.29
622.497	7.23
622.69	7.12
622.882	7.1
623.074	7.17
623.267	7.16
623.459	7.19
623.651	7.13
623.844	7.17
624.036	7.08
624.228	7.18
624.42	7.15
624.613	7.23
624.805	7.18
624.997	7.17
625.189	7.06
625.381	7.06
625.574	7.09
625.766	7.16
625.958	7.12
626.15	7.13
626.342	7.13
626.534	6.98
626.726	6.96
626.918	6.97
627.11	6.92
627.302	6.8
627.494	6.88
627.686	6.85
627.878	6.82
628.07	6.82
628.262	6.85
628.454	6.8
628.646	6.76
628.838	6.76
629.029	6.72
629.221	6.79
629.413	6.75
629.605	6.7
629.797	6.73
629.989	6.73
630.18	6.76
630.372	6.81
630.564	6.83
630.755	6.78
630.947	6.78
631.139	6.65
631.33	6.53
631.522	6.51
631.714	6.52
631.905	6.49
632.097	6.42
632.289	6.47
632.48	6.45
632.672	6.41
632.863	6.34
633.055	6.35
633.246	6.33
633.438	6.32
633.629	6.23
633.821	6.26
634.012	6.32
634.203	6.34
634.395	6.4
634.586	6.52
634.777	6.48
634.969	6.42
635.16	6.43
635.351	6.32
635.543	6.24
635.734	6.27
635.925	6.2
636.117	6.16
636.308	6.21
636.499	6.25
636.69	6.19
636.881	6.35
637.073	6.38
637.264	6.37
637.455	6.33
637.646	6.4
637.837	6.34
638.028	6.34
638.219	6.23
638.41	6.11
638.601	6.05
638.792	5.99
638.983	5.95
639.174	5.94
639.365	5.96
639.556	5.91
639.747	5.97
639.938	5.96
640.129	6.02
640.32	6.12
640.511	6.09
640.701	6.07
640.892	5.97
641.083	5.91
641.274	5.82
641.465	5.9
641.655	5.86
641.846	5.9
642.037	5.89
642.228	5.91
642.418	5.82
642.609	5.83
642.8	5.86
642.99	5.8
643.181	5.77
643.372	5.81
643.562	5.79
643.753	5.79
643.943	5.89
644.134	5.87
644.324	5.87
644.515	5.81
644.705	5.84
644.896	5.85
645.086	5.81
645.277	5.8
645.467	5.81
645.658	5.77
645.848	5.69
646.038	5.69
646.229	5.68
646.419	5.66
646.61	5.67
646.8	5.72
646.99	5.74
647.18	5.63
647.371	5.6
647.561	5.5
647.751	5.41
647.941	5.41
648.132	5.56
648.322	5.7
648.512	5.75
648.702	5.77
648.892	5.77
649.082	5.72
649.272	5.55
649.462	5.46
649.653	5.53
649.843	5.51
650.033	5.56
650.223	5.62
650.413	5.69
650.603	5.68
650.793	5.75
650.983	5.68
651.172	5.68
651.362	5.6
651.552	5.48
651.742	5.4
651.932	5.3
652.122	5.3
652.312	5.4
652.502	5.34
652.691	5.39
652.881	5.46
653.071	5.4
653.261	5.24
653.45	5.29
653.64	5.1
653.83	5.03
654.019	5
654.209	5.03
654.399	4.97
654.588	5.02
654.778	4.98
654.968	4.99
655.157	4.97
655.347	4.96
655.536	4.86
655.726	4.88
655.915	4.81
656.105	4.77
656.294	4.76
656.484	4.73
656.673	4.65
656.863	4.66
657.052	4.6
657.241	4.46
657.431	4.46
657.62	4.42
657.809	4.35
657.999	4.39
658.188	4.4
658.377	4.34
658.567	4.3
658.756	4.13
658.945	4.07
659.134	3.93
659.324	3.88
659.513	3.92
659.702	3.92
659.891	3.86
660.08	3.98
660.269	3.94
660.458	3.84
660.648	3.85
660.837	3.85
661.026	3.71
661.215	3.79
661.404	3.69
661.593	3.69
661.782	3.61
661.971	3.64
662.16	3.56
662.349	3.59
662.538	3.56
662.726	3.64
662.915	3.67
663.104	3.65
663.293	3.61
663.482	3.66
663.671	3.63
663.86	3.57
664.048	3.66
664.237	3.72
664.426	3.71
664.615	3.76
664.803	3.8
664.992	3.73
665.181	3.72
665.369	3.71
665.558	3.64
665.747	3.68
665.935	3.71
666.124	3.78
666.312	3.79
666.501	3.86
666.69	3.76
666.878	3.64
667.067	3.57
667.255	3.6
667.444	3.62
667.632	3.69
667.82	3.87
668.009	3.94
668.197	3.98
668.386	3.93
668.574	3.99
668.762	3.87
668.951	3.92
669.139	3.9
669.327	3.84
669.516	3.81
669.704	3.92
669.892	3.88
670.08	3.95
670.269	4.07
670.457	4.15
670.645	4.14
670.833	4.19
671.021	4.11
671.21	4.08
671.398	4.13
671.586	4.23
671.774	4.24
671.962	4.39
672.15	4.6
672.338	4.65
672.526	4.64
672.714	4.62
672.902	4.6
673.09	4.63
673.278	4.62
673.466	4.81
673.654	5.17
673.842	5.23
674.03	5.23
674.218	5.25
674.405	5.33
674.593	5.2
674.781	5.33
674.969	5.3
675.157	5.41
675.344	5.4
675.532	5.41
675.72	5.36
675.908	5.55
676.095	5.57
676.283	5.64
676.471	5.74
676.658	5.86
676.846	5.84
677.033	6.03
677.221	6.05
677.409	6.06
677.596	6.05
677.784	6.16
677.971	6.1
678.159	6.1
678.346	6.08
678.534	6.16
678.721	5.99
678.909	5.99
679.096	6.12
679.283	6.21
679.471	6.35
679.658	6.59
679.846	6.74
680.033	6.85
680.22	6.99
680.408	6.89
680.595	6.96
680.782	6.96
680.969	6.87
681.157	6.82
681.344	6.75
681.531	6.67
681.718	6.72
681.905	6.66
682.093	6.69
682.28	7
682.467	7.23
682.654	7.28
682.841	7.47
683.028	7.6
683.215	7.65
683.402	7.46
683.589	7.54
683.776	7.6
683.963	7.61
684.15	7.52
684.337	7.83
684.524	7.83
684.711	7.93
684.898	7.97
685.085	8.07
685.271	7.97
685.458	8.01
685.645	8.08
685.832	8.24
686.019	8.31
686.205	8.44
686.392	8.67
686.579	8.71
686.766	8.74
686.952	8.92
687.139	9.09
687.326	9.12
687.512	9.17
687.699	9.32
687.886	9.33
688.072	9.41
688.259	9.57
688.445	9.85
688.632	9.89
688.818	10.27
689.005	10.4
689.191	10.56
689.378	10.67
689.564	11
689.751	11.1
689.937	11.5
690.124	11.74
690.31	11.87
690.496	12.3
690.683	12.6
690.869	12.71
691.055	12.99
691.242	13.52
691.428	13.7
691.614	13.97
691.8	14.36
691.987	14.62
692.173	14.79
692.359	14.98
692.545	15.35
692.731	15.59
692.918	15.9
693.104	16.45
693.29	16.86
693.476	17.23
693.662	17.68
693.848	18.14
694.034	18.35
694.22	18.87
694.406	19.18
694.592	19.7
694.778	20.12
694.964	20.37
695.15	20.68
695.336	21.04
695.522	21.35
695.708	21.74
695.894	22.37
696.08	22.83
696.265	23.31
696.451	23.75
696.637	24.23
696.823	24.72
697.009	25.24
697.194	25.66
697.38	26.24
697.566	26.64
697.751	26.99
697.937	27.51
698.123	27.85
698.308	28.3
698.494	28.85
698.68	29.57
698.865	30.03
699.051	30.85
699.236	31.22
699.422	31.71
699.607	32.11
699.793	32.48
699.978	32.75
700.164	33.32
700.349	33.99
700.535	34.36
700.72	34.61
700.906	35.23
701.091	35.58
701.276	35.97
701.462	36.71
701.647	37.36
701.832	37.9
702.018	38.54
702.203	39.05
702.388	39.35
702.573	39.72
702.759	40.1
702.944	40.51
703.129	40.97
703.314	41.42
703.499	42.33
703.684	42.58
703.87	43.03
704.055	43.38
704.24	43.96
704.425	44.08
704.61	44.39
704.795	44.58
704.98	45.02
705.165	45.25
705.35	45.91
705.535	46.69
705.72	47.34
705.905	47.81
706.09	48.22
706.275	48.47
706.459	48.67
706.644	49.18
706.829	49.82
707.014	50.69
707.199	51.17
707.384	52.03
707.568	52.47
707.753	52.96
707.938	53.14
708.123	53.67
708.307	54.3
708.492	54.55
708.677	54.68
708.861	55.01
709.046	55.43
709.231	55.76
709.415	56.19
709.6	56.32
709.784	56.62
709.969	56.9
710.153	56.83
710.338	57.21
710.522	58.2
710.707	58.88
710.891	59.07
711.076	59.48
711.26	59.83
711.445	59.45
711.629	59.67
711.813	60.14
711.998	60.77
712.182	61.11
712.366	61.99
712.551	62.38
712.735	62.74
712.919	62.64
713.103	63.02
713.288	63.03
713.472	63.43
713.656	63.48
713.84	63.98
714.024	64.23
714.208	64.83
714.393	64.5
714.577	64.98
714.761	65.17
714.945	65.68
715.129	65.77
715.313	66.85
715.497	67.59
715.681	68.4
715.865	68.63
716.049	69.3
716.233	69.35
716.417	69.47
716.601	69.42
716.785	69.69
716.968	69.52
717.152	69.88
717.336	69.78
717.52	69.82
717.704	69.77
717.888	70
718.071	69.93
718.255	70.58
718.439	70.91
718.622	71.38
718.806	71.71
718.99	72.77
719.174	72.74
719.357	73.1
719.541	73.23
719.724	74.02
719.908	73.97
720.092	74.17
720.275	74.7
720.459	75.1
720.642	75.36
720.826	74.92
721.009	75.23
721.193	75.2
721.376	75.5
721.559	75.5
721.743	76.22
721.926	76.46
722.11	76.57
722.293	76.58
722.476	76.34
722.66	76.18
722.843	76.31
723.026	76.5
723.21	76.89
723.393	77.32
723.576	78.05
723.759	78.28
723.942	78.52
724.126	78.36
724.309	78.65
724.492	78.57
724.675	78.76
724.858	79.5
725.041	80.14
725.224	80.37
725.407	80.49
725.59	81.19
725.774	80.66
725.957	80.81
726.14	81.15
726.322	80.91
726.505	81.21
726.688	82.09
726.871	82.34
727.054	82.43
727.237	83.48
727.42	83.46
727.603	82.83
727.786	82.75
727.968	82.47
728.151	82.29
728.334	82.4
728.517	83.36
728.699	83.83
728.882	84.17
729.065	83.56
729.248	83.32
729.43	82.46
729.613	82.95
729.796	83.43
729.978	84.94
730.161	85.01
730.343	85.34
730.526	85.14
730.708	85.06
730.891	84.38
731.073	84.79
731.256	85.03
731.438	85.33
731.621	86.27
731.803	87.47
731.986	87.48
732.168	87.48
732.35	87.27
732.533	86.9
732.715	85.54
732.898	84.79
733.08	85.81
733.262	86.28
733.444	86.44
733.627	87.33
733.809	88.6
733.991	88.98
734.173	88.92
734.355	87.82
734.538	88.18
734.72	88.21
734.902	88.01
735.084	87.79
735.266	89.6
735.448	89.23
735.63	89.24
735.812	89.31
735.994	89.32
736.176	88.21
736.358	87.38
736.54	87.44
736.722	86.79
736.904	87.06
737.086	87.47
737.268	89.31
737.45	90.21
737.632	90.64
737.814	90.79
737.995	91.08
738.177	90.08
738.359	89.31
738.541	90.38
738.723	91.26
738.904	91.79
739.086	91.55
739.268	91.61
739.449	90.55
739.631	89.53
739.813	88.97
739.994	90.32
740.176	90.64
740.358	91.57
740.539	93.02
740.721	93.05
740.902	93.12
741.084	94.15
741.265	93.39
741.447	92.96
741.628	95.02
741.81	94.23
741.991	93.07
742.172	93.24
742.354	92.75
742.535	90.43
742.717	90.15
742.898	89.68
743.079	90.51
743.261	91.56
743.442	92.21
743.623	94
743.804	95.34
743.986	95.13
744.167	94
744.348	93.22
744.529	92.03
744.71	92.18
744.891	92.36
745.073	93.09
745.254	94.24
745.435	94.6
745.616	94.34
745.797	94.53
745.978	94.12
746.159	93.96
746.34	93.05
746.521	93.43
746.702	92.6
746.883	91.36
747.064	90.37
747.245	91.92
747.426	91.87
747.606	91.86
747.787	93.17
747.968	94.95
748.149	94.44
748.33	92.65
748.51	92.31
748.691	91.83
748.872	90.68
749.053	89.72
749.233	90.65
749.414	90.52
749.595	92.1
749.775	91.9
749.956	92.15
750.137	91.68
750.317	93.32
750.498	92.55
750.678	93.52
750.859	92.73
751.04	93.89
751.22	93.39
751.4	93.53
751.581	92.62
751.761	93.14
751.942	93.46
752.122	92.47
752.303	90.34
752.483	90.66
752.663	90.82
752.844	89.13
753.024	90.24
753.204	91.25
753.385	90.88
753.565	91.5
753.745	93.34
753.925	93.39
754.106	94.26
754.286	94.73
754.466	94.79
754.646	94.14
754.826	92.84
755.006	93.67
755.187	93.16
755.367	92.67
755.547	92.98
755.727	94.13
755.907	91.79
756.087	91.13
756.267	91.43
756.447	92.33
756.627	90.67
756.807	90.43
756.987	93.06
757.167	92.66
757.346	90.53
757.526	91.1
757.706	93.39
757.886	92.01
758.066	93.47
758.246	94.48
758.425	93.68
758.605	91.88
758.785	93.39
758.965	93.07
759.144	92.62
759.324	92.68
759.504	94
759.683	93.16
759.863	91.88
760.043	91.91
760.222	91.49
760.402	91.99
760.581	91.08
760.761	91.37
760.94	90.71
761.12	93.4
761.299	90.8
761.479	91.29
761.658	89.68
761.838	91.27
762.017	90.11
762.197	92.01
762.376	91.56
762.555	93.6
762.735	91.61
762.914	92.52
763.093	91.97
763.273	92.08
763.452	90.82
763.631	92.8
763.81	92.73
763.99	93.32
764.169	93.35
764.348	94.44
764.527	93
764.706	91.14
764.885	90.93
765.064	91.84
765.243	91.25
765.423	92.55
765.602	94.81
765.781	94.7
765.96	91.82
766.139	92.16
766.318	91.2
766.497	89.54
766.676	89.36
766.854	92.18
767.033	91.89
767.212	90.88
767.391	89.93
767.57	90.34
767.749	88.91
767.928	88.93
768.106	88.32
768.285	87.45
768.464	85.51
768.643	87.07
768.821	87.95
769	89.04
769.179	90.14
769.357	89.99
769.536	88.8
769.715	86.41
769.893	85.93
770.072	86.7
770.25	87.03
770.429	87.5
770.607	87.66
770.786	87.47
770.964	87.86
771.143	88.86
771.321	88.05
771.5	89.06
771.678	90.17
771.857	91.3
772.035	92.32
772.213	91.7
772.392	89.03
772.57	90.05
772.748	88.71
772.927	87.52
773.105	86.82
773.283	90.64
773.461	89.61
773.64	88.13
773.818	88.7
773.996	90.07
774.174	88.55
774.352	88.43
774.531	89.7
774.709	88.63
774.887	87.2
775.065	86.41
775.243	84.87
775.421	84.29
775.599	86.03
775.777	85.42
775.955	85.51
776.133	85.76
776.311	86.28
776.489	84.33
776.667	87.04
776.844	90.35
777.022	90.22
777.2	89.46
777.378	89.06
777.556	88.8
777.734	85.04
777.911	88.86
778.089	88.57
778.267	90.66
778.445	84.89
778.622	86.02
778.8	85.94
778.978	87.32
779.155	85.96
779.333	91.3
779.511	89.09
779.688	84.27
779.866	82.12
780.043	79.62
780.221	77.34
780.398	78.46
780.576	81.22
780.753	80.17
780.931	82.11
781.108	84.62
781.286	85.83
781.463	84.7
781.64	84.52
781.818	88.59
781.995	88.71
782.172	88.69
782.35	89.53
782.527	92.85
782.704	88.18
782.882	85.92
783.059	84.11
783.236	80.91
783.413	79.48
783.59	79.96
783.768	76.32
783.945	75.57
784.122	75.98
784.299	74.45
784.476	73.96
784.653	79.11
784.83	80.68
785.007	78.87
785.184	81.63
785.361	85.43
785.538	86.36
785.715	85.66
785.892	92.49
786.069	90.44
786.246	88.58
786.423	88.53
786.6	87.57
786.776	84.96
786.953	82.34
787.13	81.12
787.307	78.3
787.484	77.55
787.66	76.19
787.837	82.46
788.014	88.43
788.191	93.09
788.367	100.9
788.544	99.57
788.721	96.66
788.897	91.28
789.074	88.17
789.25	79.89
789.427	81.1
789.603	77.19
789.78	77.63
789.956	87.89
790.133	89.63
790.309	88.86
790.486	95.41
790.662	95.68
790.839	78.44
791.015	77.14
791.192	76.57
791.368	71.89
791.544	70.57
791.721	73.88
791.897	77.3
792.073	79.32
792.249	80.21
792.426	82.61
792.602	86.94
792.778	85.4
792.954	82.06
793.13	82.79
793.307	80.87
793.483	77.12
793.659	77.78
793.835	78.11
794.011	77.17
794.187	74.64
794.363	71.03
794.539	70.55
794.715	68.26
794.891	67.23
795.067	71.22
795.243	76.16
795.419	76.7
795.595	80.67
795.771	79.33
795.947	77.65
796.122	76.86
796.298	78.12
796.474	76.03
796.65	73.9
796.826	76.81
797.001	71.9
797.177	70.68
797.353	70.72
797.529	79.23
797.704	77.76
797.88	85.37
798.056	84.99
798.231	89.09
798.407	84.34
798.582	84.22
798.758	88.38
798.934	94.17
799.109	87.73
799.285	92.91
799.46	84.91
799.636	79.1
799.811	70.56
799.986	72.6
800.162	73.37
800.337	82.36
800.513	84.76
800.688	86.17
800.863	88.62
801.039	83.86
801.214	81.86
801.389	79.57
801.565	79.64
801.74	78.31
801.915	74.19
802.09	74.22
802.265	76.97
802.441	75.44
802.616	69.41
802.791	73.16
802.966	79.18
803.141	77.33
803.316	76.37
803.491	80.21
803.666	84.69
803.841	79.41
804.016	77.7
804.191	78.66
804.366	84.08
804.541	75.62
804.716	73.36
804.891	69.98
805.066	75.93
805.241	69.2
805.416	72.1
805.591	74.76
805.765	77.29
805.94	71.19
806.115	73.37
806.29	71.61
806.464	70.25
806.639	72.54
806.814	71.83
806.989	64.73
807.163	66.71
807.338	69.41
807.512	65.17
807.687	65.68
807.862	73.39
808.036	80.91
808.211	74.13
808.385	75.11
808.56	78.32
808.734	70.84
808.909	66.41
809.083	66.77
809.258	65.8
809.432	62.36
809.606	65.42
809.781	62.34
809.955	65.37
810.13	73.78
810.304	69.66
810.478	69.38
810.652	75.8
810.827	75.89
811.001	71.24
811.175	86.07
811.349	81.89
811.524	65.76
811.698	64.89
811.872	69.57
812.046	56.62
812.22	72.4
812.394	78.62
812.568	84.24
812.742	78.56
812.916	88.71
813.09	79.52
813.264	82.92
813.438	72.11
813.612	67.76
813.786	55.61
813.96	62.56
814.134	62.93
814.308	62.07
814.482	64.38
814.656	81.55
814.83	82.18
815.003	75.6
815.177	79.53
815.351	89.13
815.525	82.63
815.698	81.91
815.872	84.63
816.046	83.35
816.219	73.71
816.393	73.46
816.567	80.03
816.74	85.16
816.914	77.55
817.088	88.14
817.261	82.51
817.435	71.34
817.608	69.82
817.782	70.5
817.955	63.93
818.129	68.99
818.302	65.13
818.475	60.19
818.649	70.47
818.822	62.53
818.996	68.86
819.169	68.29
819.342	74.51
819.516	69.16
819.689	81.22
819.862	70.26
820.035	75.03
820.209	74.26
820.382	74.94
820.555	63.91
820.728	75.07
820.901	74.34
821.075	75.21
821.248	75.25
821.421	79.32
821.594	78.97
821.767	91.45
821.94	81.66
822.113	75.64
822.286	67.41
822.459	57.4
822.632	33.08
822.805	31.28
822.978	49.49
823.151	53.51
823.324	73.68
823.496	83.04
823.669	84.38
823.842	81.99
824.015	96.14
824.188	88.97
824.361	70.25
824.533	67.42
824.706	64.45
824.879	43.99
825.051	40.51
825.224	59.43
825.397	54.42
825.569	51.93
825.742	57.89
825.915	61.24
826.087	51.61
826.26	53.35
826.432	62.91
826.605	71.69
826.777	69.43
826.95	77.63
827.122	85.69
827.295	75.87
827.467	68.28
827.64	67.32
827.812	58.66
827.984	75
828.157	68.03
828.329	70.08
828.501	70.56
828.674	79.01
828.846	61.8
829.018	81.37
829.19	87.64
829.363	88.42
829.535	77.08
829.707	77.16
829.879	61.84
830.051	50.03
830.223	44.65
830.395	46.86
830.568	44.3
830.74	51.86
830.912	59.53
831.084	86.29
831.256	77.67
831.428	77.09
831.6	63.24
831.772	50.06
831.943	32.13
832.115	50.04
832.287	53.46
832.459	56.74
832.631	70.07
832.803	66.85
832.975	54.15
833.146	48.26
833.318	50.04
833.49	55.61
833.662	64.58
833.833	64.96
834.005	55.59
834.177	58.96
834.348	51.54
834.52	27.5
834.692	45.82
834.863	46.88
835.035	49.62
835.206	21.19
835.378	45.16
835.549	33.75
835.721	43.41
835.892	34.01
836.064	48.56
836.235	42.55
836.407	40.33
836.578	43.09
836.749	46.2
836.921	39.44
837.092	46.33
837.264	40.54
837.435	51.57
837.606	29.7
837.777	43.69
837.949	49.86
838.12	51.44
838.291	41.96
838.462	68.92
838.633	68.01
838.805	76.72
838.976	92.67
839.147	89.71
839.318	66.37
839.489	72.78
839.66	65.86
839.831	48.59
840.002	53.96
840.173	53.65
840.344	27.71
840.515	11.72
840.686	22.9
840.857	21.8
841.028	29.43
841.199	67.14
841.369	69.56
841.54	83.14
841.711	65.58
841.882	64.92
842.053	21.46
842.223	25.03
842.394	22.82
842.565	20.58
842.736	24.92
842.906	28.55
843.077	49.75
843.248	66.39
843.418	96.74
843.589	67.08
843.759	68.88
843.93	61.24
844.101	38.52
844.271	52.83
844.442	65.64
844.612	72.54
844.783	63.98
844.953	59.78
845.123	39.94
845.294	49.8
845.464	25.88
845.635	25.2
845.805	53.36
845.975	62.91
846.146	28.71
846.316	31.01
846.486	29.59
846.656	9.22
846.827	9.76
846.997	43.49
847.167	63.84
847.337	60.29
847.507	52.56
847.677	44.17
847.848	45.2
848.018	47.4
848.188	88.75
848.358	77.64
848.528	50.05
848.698	52.43
848.868	36.01
849.038	3.85
849.208	23.67
849.378	58.75
849.548	56.72
849.718	61.22
849.887	61.53
850.057	51.87
850.227	5.89
850.397	12.23
850.567	6.36
850.737	30.76
850.906	40.62
851.076	35.76
851.246	44.66
851.415	45.13
851.585	16.69
851.755	7.84
851.924	28.77
852.094	25.1
852.264	32.38
852.433	58.91
852.603	80.63
852.772	57.91
852.942	52.2
853.111	42.26
853.281	36.45
853.45	18.71
853.62	23.56
853.789	17.58
853.959	13.2
854.128	23.79
854.297	42.63
854.467	39.28
854.636	34.91
854.805	50.26
854.975	39.84
855.144	-45.82
855.313	15.83
855.482	27.63
855.652	27.82
855.821	33.53
855.99	40.11
856.159	48.16
856.328	69.89
856.497	55.62
856.667	62.88
856.836	108.39
857.005	92.18
857.174	-10.38
857.343	-23
857.512	-214.2
857.681	-51.68
857.85	-24.55
858.019	7.72
858.188	5.23
858.356	32.7
858.525	9.08
858.694	19.69
858.863	-13.25
859.032	-10.36
859.201	-25.08
859.369	21.82
859.538	1.26
859.707	10.76
859.876	29.5
860.044	32.66
860.213	16.7
860.382	4.75
860.55	3.55
860.719	-2.13
860.888	0.2
861.056	-11.66
861.225	28.12
861.393	34.68
861.562	21.52
861.73	12.81
861.899	35.58
862.067	33.63
862.236	34.79
862.404	13.52
862.572	39.14
862.741	-0.9
862.909	-40.63
863.078	-33.54
863.246	23.53
863.414	22.02
863.582	51.03
863.751	51.98
863.919	28.46
864.087	11.49
864.255	-0.13
864.424	-23.37
864.592	-34.18
864.76	-24.19
864.928	-47.68
865.096	-20.4
865.264	-9.48
865.432	18.41
865.6	8.98
865.768	25.15
865.936	25.67
866.104	29.07
866.272	43.43
866.44	63.64
866.608	41.33
866.776	53.96
866.944	81.93
867.112	59.31
867.28	38.11
867.448	94.11
867.615	-30.54
867.783	48.99
867.951	17.98
868.119	65.56
868.286	55.01
868.454	62.78
868.622	60.06
868.789	10.99
868.957	-6.34
869.125	-68.56
869.292	-50.74
869.46	-76.83
869.627	-12.78
869.795	-24.45
869.963	-8.28
870.13	3.1
870.298	1.58
870.465	-29.73
870.632	15.45
870.8	1.6
870.967	-33.4
871.135	-27.49
871.302	-36.96
871.469	440.41
871.637	-38.25
871.804	89.04
871.971	44.66
872.139	53.89
872.306	45.82
872.473	41.2
872.64	11.89
872.807	49.15
872.975	71.78
873.142	167.65
873.309	5036.23
873.476	1112.47
873.643	260.78
873.81	139.18
873.977	76.52
874.144	65.63
874.311	40.77
874.478	4.24
874.645	13.24
874.812	12.93
874.979	2.64
875.146	11.41
875.313	8.25
875.48	-223.35
875.647	8.55
875.813	115.11
875.98	1023.23
876.147	-54.31
876.314	45.12
876.481	-140.58
876.647	-75.88
876.814	40.5
876.981	72.9
877.147	79.99
877.314	86.29
877.481	76.68
877.647	41.05
877.814	42.27
877.98	0.24
878.147	-10.32
878.314	-84.89
878.48	-65.41
878.647	-78.98
878.813	-980.62
878.979	-21.2
879.146	25.79
879.312	54.35
879.479	67.71
879.645	91.64
879.811	70.6
879.978	89.06
880.144	64.56
880.31	51.41
880.477	28.26
880.643	26.34
880.809	-50.03
880.975	-1906.06
881.142	242.18
881.308	230.67
881.474	137.59
881.64	178.35
881.806	74.89
881.972	45.44
882.138	29.61
882.304	39.17
882.47	21.56
882.636	-99.68
882.802	14.69
882.968	38.56
883.134	50.78
883.3	36.14
883.466	83.43
883.632	90.79
883.798	72.34
883.964	63.16
884.129	92.83
884.295	63.64
884.461	49.22
884.627	28.9
884.793	-14.73
884.958	10.05
885.124	48.8
885.29	37.52
885.455	133.25
885.621	124.26
885.787	120.29
885.952	44.29
886.118	79.27
886.283	-619.3
886.449	7.1
886.614	37.64
886.78	55.89
886.945	103.58
887.111	54.5
887.276	68.03
887.442	87.53
887.607	37.7
887.773	38.1
887.938	22.28
888.103	-22.05
888.269	-78.1
888.434	-74.02
888.599	-124.85
888.764	-26.65
888.93	-23.62
889.095	24.92
889.26	126.38
889.425	401.36
889.59	-577.29
889.756	297.96
889.921	18.27
890.086	33.86
890.251	-24.07
890.416	-22.91
890.581	-37.38
890.746	57.21
890.911	41.82
891.076	59.14
891.241	72.55
891.406	85.26
891.571	55.39
891.736	69
891.901	28.04
892.065	18.47
892.23	42.06
892.395	52.52
892.56	5.41
892.725	33.9
892.889	66.37
893.054	23.41
893.219	-112.65
893.384	-102.75
893.548	-385.42
893.713	1230.86
893.878	251.08
