Data from Ofav_PS_Phys_362_Reflection_2.txt Node
Date: Thu Jul 29 18:21:45 EDT 2021
User: USUARIO
Spectrometer: FLMT01687
Trigger mode: 0
Integration Time (sec): 9.010000E-1
Scans to average: 2
Electric dark correction enabled: true
Nonlinearity correction enabled: false
Boxcar width: 2
XAxis mode: Wavelengths
Number of Pixels in Spectrum: 3648
>>>>>Begin Spectral Data<<<<<
179.494	94.29
179.716	33.78
179.937	-23.33
180.158	177.97
180.38	115.17
180.601	-166.14
180.823	-35.6
181.044	-89.21
181.265	-53.35
181.486	-825.42
181.708	95.85
181.929	194.56
182.15	11157.14
182.372	-96.24
182.593	-39.75
182.814	-19.88
183.035	-231.96
183.257	116.22
183.478	120.38
183.699	124.95
183.92	92.56
184.141	104.76
184.363	73.34
184.584	64.23
184.805	32.5
185.026	58.87
185.247	43.49
185.468	45.97
185.689	30.52
185.91	76.37
186.132	74.54
186.353	47.94
186.574	69.67
186.795	71.92
187.016	56.27
187.237	38.3
187.458	49.17
187.679	35.94
187.9	41.39
188.121	30.66
188.342	50.97
188.563	62.51
188.784	48.08
189.005	30.8
189.226	47.81
189.447	40.96
189.667	31.23
189.888	43.95
190.109	72.4
190.33	41.8
190.551	11.61
190.772	13.34
190.993	17.34
191.214	27.73
191.434	31.5
191.655	56.41
191.876	59.34
192.097	54.52
192.318	52.88
192.538	48.25
192.759	31.1
192.98	26.68
193.201	37.71
193.421	16.46
193.642	-0.48
193.863	-11.55
194.083	-36.21
194.304	-18.17
194.525	2.92
194.745	22.21
194.966	18.94
195.187	32.75
195.407	18.81
195.628	-9.99
195.848	15.24
196.069	34.81
196.29	59.82
196.51	41.77
196.731	49.39
196.951	39.78
197.172	11.89
197.392	0.06
197.613	-1.37
197.833	-4.94
198.054	11.28
198.274	27.91
198.495	47.14
198.715	37.05
198.936	53.29
199.156	62.62
199.377	73.22
199.597	60
199.817	83.27
200.038	73.45
200.258	57.17
200.479	50.99
200.699	62.09
200.919	56.13
201.14	37.14
201.36	50.98
201.58	57.44
201.801	64.97
202.021	68.42
202.241	67.82
202.461	51.61
202.682	26.32
202.902	37.13
203.122	27.08
203.342	57.42
203.563	68.7
203.783	60.1
204.003	26.06
204.223	41.72
204.443	54.9
204.663	80.56
204.884	96.92
205.104	131.38
205.324	75.77
205.544	55.1
205.764	38.21
205.984	33.71
206.204	32.69
206.424	58.44
206.644	59.35
206.864	68.76
207.084	67.48
207.304	65.26
207.525	60.37
207.745	90.75
207.964	81.04
208.184	97.57
208.404	108.09
208.624	95.37
208.844	70.09
209.064	66.15
209.284	103.64
209.504	101.47
209.724	92
209.944	94.09
210.164	94.14
210.384	50.87
210.604	42.12
210.823	27.44
211.043	7.87
211.263	10.36
211.483	6.94
211.703	-16
211.922	26.54
212.142	52.1
212.362	57.72
212.582	54.03
212.801	66.68
213.021	35.56
213.241	19.58
213.461	7.14
213.68	-35.11
213.9	-41.89
214.12	-27.05
214.339	-13.02
214.559	-16.14
214.779	1.99
214.998	8.16
215.218	6.26
215.438	-10.83
215.657	12.89
215.877	32.69
216.096	12.73
216.316	-13.09
216.535	-16.35
216.755	-31.23
216.974	-71.81
217.194	-18.88
217.413	25.82
217.633	37.71
217.852	18.56
218.072	26.92
218.291	42.06
218.511	51.32
218.73	29.46
218.95	35.25
219.169	39.47
219.389	16.32
219.608	-2.69
219.827	-8.18
220.047	-6.45
220.266	-20.07
220.485	14.64
220.705	24.74
220.924	21.87
221.143	21.07
221.363	8.35
221.582	-28.41
221.801	-116.98
222.021	-43.77
222.24	-10.83
222.459	14.76
222.678	31.87
222.897	26.18
223.117	28.81
223.336	18.33
223.555	24.52
223.774	47.4
223.993	72.03
224.213	76.2
224.432	86.01
224.651	79.16
224.87	60.68
225.089	58.89
225.308	46.64
225.527	52.24
225.746	44.94
225.965	48.5
226.184	14.95
226.404	-4.01
226.623	3.26
226.842	9.67
227.061	-1.75
227.28	27.12
227.499	62.87
227.718	77.2
227.936	41.07
228.155	40.27
228.374	13.95
228.593	1.22
228.812	-17.09
229.031	-12.51
229.25	-6.23
229.469	10.88
229.688	16.9
229.907	52.17
230.125	42.95
230.344	53.32
230.563	74.98
230.782	64.63
231.001	19.14
231.22	43.09
231.438	49.31
231.657	29.12
231.876	45.52
232.095	42.66
232.313	32.3
232.532	22.01
232.751	15.7
232.969	5.37
233.188	7.68
233.407	21.12
233.625	24.3
233.844	43.85
234.063	51.2
234.281	62.34
234.5	69.31
234.719	70.48
234.937	51.71
235.156	39.63
235.374	61.65
235.593	52.17
235.811	58.79
236.03	62.87
236.249	61.19
236.467	58.56
236.686	66.24
236.904	55.72
237.123	54.3
237.341	42.78
237.559	30.6
237.778	24.15
237.996	35.01
238.215	38.34
238.433	55.19
238.652	55.36
238.87	54.56
239.088	52.6
239.307	49.37
239.525	39.64
239.743	44.08
239.962	49.65
240.18	56.06
240.398	54.22
240.617	47.81
240.835	40.92
241.053	53.11
241.271	47.97
241.49	53.76
241.708	60.93
241.926	49.68
242.144	27.77
242.363	28.37
242.581	14.76
242.799	9.65
243.017	32.72
243.235	33.9
243.453	31.45
243.672	29.26
243.89	30.18
244.108	11.54
244.326	27.08
244.544	18.19
244.762	13.64
244.98	7.25
245.198	9.83
245.416	10.27
245.634	12.07
245.852	33.85
246.07	46.3
246.288	47.8
246.506	30.76
246.724	24.07
246.942	25.57
247.16	32.33
247.378	22.7
247.596	17.59
247.814	17.99
248.032	9.32
248.25	1.67
248.468	6.53
248.685	12.58
248.903	14.31
249.121	26.36
249.339	11.22
249.557	26.52
249.775	38.2
249.992	38.2
250.21	35.25
250.428	57.21
250.646	53.79
250.863	52.32
251.081	49.9
251.299	51.21
251.517	37.69
251.734	41.88
251.952	33.33
252.17	37.24
252.387	30.07
252.605	39.6
252.823	20.1
253.04	36.82
253.258	28.83
253.475	39.03
253.693	38
253.911	49.82
254.128	37.05
254.346	29.86
254.563	21.69
254.781	16.57
254.998	12.75
255.216	-19.69
255.433	10.7
255.651	25.78
255.868	15.56
256.086	26.5
256.303	46.76
256.521	49.25
256.738	26.71
256.956	37.11
257.173	19.55
257.39	30.75
257.608	28.89
257.825	48.08
258.043	41.57
258.26	48.75
258.477	40.69
258.695	36.31
258.912	32.08
259.129	38.34
259.346	34.42
259.564	19.82
259.781	18.62
259.998	17.9
260.216	47.81
260.433	68.75
260.65	68.46
260.867	70.45
261.084	78.92
261.302	61.2
261.519	42.91
261.736	43.3
261.953	39.5
262.17	42.92
262.387	38.32
262.604	41.44
262.822	32.71
263.039	39.64
263.256	27.34
263.473	22.5
263.69	-10.61
263.907	3.5
264.124	11.43
264.341	13.47
264.558	10.85
264.775	41.55
264.992	41.23
265.209	29.97
265.426	35.8
265.643	34.98
265.86	33.29
266.077	18.44
266.294	24.23
266.51	15.12
266.727	23.68
266.944	19.23
267.161	25.21
267.378	25.39
267.595	44.54
267.812	42.56
268.028	20.93
268.245	21.48
268.462	6.96
268.679	11.23
268.896	-4.23
269.112	8.19
269.329	12.02
269.546	29.55
269.763	-0.41
269.979	2.89
270.196	19.14
270.413	15.11
270.629	1.81
270.846	31.84
271.063	37.26
271.279	31.75
271.496	29.34
271.712	33.88
271.929	13.3
272.146	35.07
272.362	26.83
272.579	45.37
272.795	47.17
273.012	71.01
273.228	45.2
273.445	49.98
273.661	32.88
273.878	24.33
274.094	18.11
274.311	40.58
274.527	39.32
274.744	53.56
274.96	55.37
275.177	45.67
275.393	31.72
275.609	28.18
275.826	16.84
276.042	22.85
276.259	12.6
276.475	28.35
276.691	41.11
276.908	42.78
277.124	38.86
277.34	37.64
277.557	29.57
277.773	16.24
277.989	15.52
278.205	27.43
278.422	46.31
278.638	57.42
278.854	59.34
279.07	45.27
279.286	20.14
279.503	33.8
279.719	33.19
279.935	43.1
280.151	46.03
280.367	61.82
280.583	58.69
280.799	60.09
281.016	50.42
281.232	61.87
281.448	52.67
281.664	51.85
281.88	24.44
282.096	18.61
282.312	0.05
282.528	0.27
282.744	-19.03
282.96	-2.26
283.176	6.15
283.392	24.05
283.608	16.94
283.824	22.77
284.04	29.4
284.256	38.73
284.471	22.8
284.687	19.55
284.903	13.43
285.119	25.51
285.335	4.18
285.551	20.23
285.767	31.31
285.982	28.79
286.198	21.84
286.414	20.15
286.63	19.73
286.846	7.8
287.061	6.84
287.277	12.03
287.493	17.38
287.709	9.08
287.924	31.11
288.14	29.09
288.356	38.71
288.571	31.89
288.787	25.9
289.003	10.76
289.218	-5.75
289.434	0.21
289.65	21.2
289.865	28.63
290.081	33.96
290.296	51.08
290.512	44.3
290.727	34.4
290.943	43
291.159	38.2
291.374	48.13
291.59	37.8
291.805	35.64
292.021	20.66
292.236	28.94
292.451	5.89
292.667	30.56
292.882	14.49
293.098	17.13
293.313	-2.65
293.529	8.75
293.744	-7.53
293.959	3.95
294.175	25.47
294.39	27.64
294.605	43.45
294.821	39.75
295.036	47.01
295.251	35.21
295.467	34.93
295.682	22.9
295.897	20.95
296.112	16.78
296.328	19.58
296.543	18.26
296.758	9.13
296.973	15.29
297.188	22.27
297.404	10.53
297.619	25.61
297.834	30.11
298.049	18.5
298.264	26.73
298.479	46.47
298.694	36.61
298.909	41.12
299.125	36.04
299.34	13.19
299.555	-5.77
299.77	13.59
299.985	-18.61
300.2	16.81
300.415	38.82
300.63	50.83
300.845	26.3
301.06	30.57
301.275	36.82
301.49	-2.74
301.704	-40.02
301.919	3.52
302.134	17.46
302.349	1.92
302.564	21.72
302.779	21.98
302.994	11.17
303.209	11.61
303.423	29.42
303.638	35.63
303.853	37.18
304.068	53.27
304.283	50.76
304.497	39.94
304.712	20.76
304.927	23.62
305.142	4.4
305.356	-18.14
305.571	2.75
305.786	20.66
306	-13.67
306.215	-0.12
306.43	11.71
306.644	-33.2
306.859	-41.7
307.074	28.58
307.288	28.54
307.503	40.32
307.717	54.53
307.932	41.7
308.147	41.29
308.361	16.16
308.576	-5.67
308.79	-26.89
309.005	14.02
309.219	11.82
309.434	37.92
309.648	45.23
309.863	54.28
310.077	39.72
310.292	37.74
310.506	32.49
310.72	45.07
310.935	42.15
311.149	51.05
311.364	59.5
311.578	50.43
311.792	33.21
312.007	58.71
312.221	28.96
312.435	27.84
312.649	39.86
312.864	46.99
313.078	13.28
313.292	28.89
313.507	33.87
313.721	27.07
313.935	23.02
314.149	29.28
314.363	34.77
314.578	35.98
314.792	40.37
315.006	66.04
315.22	52.24
315.434	52.34
315.648	47.64
315.862	45.91
316.077	27.45
316.291	31.39
316.505	27.97
316.719	29.33
316.933	17.46
317.147	30.23
317.361	3.67
317.575	-3.42
317.789	-4.58
318.003	11.26
318.217	26.64
318.431	34.25
318.645	35.01
318.859	35.75
319.073	26.49
319.287	4.03
319.5	8.48
319.714	24.7
319.928	31.52
320.142	40.58
320.356	56.64
320.57	52.77
320.784	50.05
320.997	30.02
321.211	19.21
321.425	14.66
321.639	11.15
321.853	14.16
322.066	15.24
322.28	30.53
322.494	23.87
322.707	32.47
322.921	13.48
323.135	23.58
323.349	12.45
323.562	-2.68
323.776	-2.88
323.989	19.02
324.203	17.92
324.417	15.21
324.63	22.97
324.844	21.33
325.057	-2.98
325.271	-17.14
325.485	-12.21
325.698	-7.03
325.912	1.29
326.125	12.66
326.339	19.03
326.552	28.36
326.766	27.96
326.979	27.35
327.193	29.91
327.406	40.11
327.619	26.47
327.833	19.88
328.046	21.35
328.26	33.38
328.473	24.93
328.686	24.97
328.9	38.27
329.113	16.26
329.326	-8.61
329.54	12.54
329.753	8.2
329.966	-2.72
330.179	4.15
330.393	10.26
330.606	1.44
330.819	14.21
331.032	30.07
331.246	38.23
331.459	30.8
331.672	23.8
331.885	18.28
332.098	9.57
332.311	37.2
332.525	43.75
332.738	44.42
332.951	24.3
333.164	12.47
333.377	-14.82
333.59	-2.52
333.803	15.23
334.016	33.42
334.229	37.91
334.442	40.1
334.655	47.67
334.868	49.73
335.081	54.63
335.294	58.37
335.507	57.06
335.72	47.65
335.933	30.22
336.146	33.33
336.359	26.77
336.572	14.24
336.785	10.5
336.997	30.27
337.21	16.5
337.423	31.22
337.636	40.37
337.849	37.96
338.062	31.08
338.274	29.67
338.487	10.06
338.7	1.88
338.913	5.36
339.125	12.19
339.338	18.43
339.551	23.84
339.763	22.12
339.976	10.5
340.189	20.26
340.402	16.79
340.614	8.5
340.827	16.23
341.039	17.52
341.252	13.34
341.465	22.04
341.677	29.72
341.89	25.01
342.102	31.12
342.315	26.42
342.527	27.27
342.74	21.98
342.952	33.33
343.165	36.25
343.377	33.74
343.59	16.47
343.802	35.73
344.015	37.66
344.227	32.43
344.44	31.44
344.652	41.07
344.864	33.14
345.077	27.99
345.289	44.5
345.502	51.46
345.714	50.17
345.926	44.87
346.139	19.09
346.351	4.84
346.563	18
346.775	11.8
346.988	0.39
347.2	9.05
347.412	8.57
347.624	5.77
347.837	2.98
348.049	7.84
348.261	16.63
348.473	27.88
348.685	39.07
348.897	47.94
349.11	38.53
349.322	41.98
349.534	40.99
349.746	14.05
349.958	14.49
350.17	13.87
350.382	24.85
350.594	20.56
350.806	53.72
351.018	43.29
351.23	46.86
351.442	24.96
351.654	36.99
351.866	13.48
352.078	25.71
352.29	21.74
352.502	33.91
352.714	20.47
352.926	25.25
353.138	32.05
353.35	22.47
353.561	7.34
353.773	20.47
353.985	6.87
354.197	9.36
354.409	18.59
354.621	23.27
354.832	19.66
355.044	31
355.256	24.31
355.468	20.6
355.679	17.78
355.891	17.01
356.103	18.4
356.314	17.3
356.526	14.39
356.738	23.08
356.949	28.71
357.161	33.86
357.373	26.09
357.584	27.84
357.796	16.66
358.008	5.48
358.219	-12.74
358.431	-7.36
358.642	-7.08
358.854	-8.61
359.065	0.32
359.277	4.53
359.488	10.37
359.7	16.14
359.911	25.19
360.123	23.56
360.334	32.54
360.546	30.76
360.757	33.42
360.969	33.33
361.18	37.83
361.391	35.35
361.603	16.22
361.814	20.64
362.025	20.76
362.237	12.96
362.448	9.66
362.659	19.69
362.871	8.98
363.082	2.57
363.293	1.12
363.504	5.03
363.716	-1.81
363.927	4.51
364.138	-2.96
364.349	1.82
364.56	7.09
364.772	7.7
364.983	13.95
365.194	16.41
365.405	12.57
365.616	3.54
365.827	9.64
366.038	4.25
366.25	1.8
366.461	3.93
366.672	3.55
366.883	5.19
367.094	-0.36
367.305	14.38
367.516	33.21
367.727	40.76
367.938	45.2
368.149	45.64
368.36	44.74
368.571	26.02
368.781	8
368.992	-10.8
369.203	-6.45
369.414	-6.86
369.625	6.38
369.836	12.08
370.047	17.44
370.258	16.12
370.468	15.04
370.679	5.47
370.89	-1.76
371.101	2.87
371.312	-6.64
371.522	-9.51
371.733	-2.12
371.944	-4.82
372.155	-0.6
372.365	6.31
372.576	-2.36
372.787	-1.4
372.997	6.71
373.208	15.75
373.419	20.72
373.629	34.45
373.84	38.28
374.05	35.88
374.261	30.25
374.472	22.52
374.682	12.66
374.893	20.11
375.103	31.82
375.314	32.01
375.524	35.26
375.735	41.86
375.945	34.07
376.156	36.94
376.366	25.68
376.577	40.96
376.787	40.02
376.997	35.87
377.208	20.88
377.418	24.57
377.629	7.6
377.839	9.52
378.049	19.78
378.26	20.25
378.47	26.35
378.68	41.66
378.89	39.82
379.101	29.74
379.311	25.43
379.521	17.76
379.732	8.69
379.942	3.66
380.152	6.83
380.362	4.75
380.572	2.25
380.783	-1.58
380.993	1.1
381.203	11.94
381.413	13.64
381.623	19.04
381.833	30.75
382.043	32.4
382.253	12.63
382.463	18.93
382.674	15.76
382.884	7.33
383.094	2.28
383.304	6.19
383.514	5.5
383.724	12.96
383.934	10.31
384.144	13.67
384.353	17.7
384.563	16
384.773	15.21
384.983	13.53
385.193	17.25
385.403	10.12
385.613	11.58
385.823	9.38
386.033	16.49
386.242	8.9
386.452	12.68
386.662	8.43
386.872	8.64
387.082	3.22
387.291	0.01
387.501	3.03
387.711	5.03
387.921	3.95
388.13	5.47
388.34	8.8
388.55	7.34
388.759	6.81
388.969	5.74
389.179	4.22
389.388	4.04
389.598	2.82
389.807	1.26
390.017	1.1
390.227	4.02
390.436	2.54
390.646	1.18
390.855	2.64
391.065	3.23
391.274	-0.21
391.484	-0.77
391.693	0.03
391.903	2.86
392.112	4
392.322	5.12
392.531	4.98
392.74	5.03
392.95	1.89
393.159	1.64
393.369	3.84
393.578	4.86
393.787	4.5
393.997	3.66
394.206	3.01
394.415	2.52
394.625	2.37
394.834	2.31
395.043	2.5
395.252	3.96
395.462	3.19
395.671	3.5
395.88	5.03
396.089	6.75
396.298	6.68
396.508	6.59
396.717	6.42
396.926	5.4
397.135	3.88
397.344	3.29
397.553	3.89
397.762	4.25
397.971	4.56
398.181	5.57
398.39	5.32
398.599	5.12
398.808	4.77
399.017	5.15
399.226	4.92
399.435	5.17
399.644	5.37
399.853	5.39
400.062	5.34
400.27	5.71
400.479	5.48
400.688	5.23
400.897	5.24
401.106	4.82
401.315	4.36
401.524	4.35
401.733	4.23
401.941	4.38
402.15	4.57
402.359	4.36
402.568	4.48
402.777	4.34
402.985	4.2
403.194	4.11
403.403	4.32
403.612	4.18
403.82	4.3
404.029	4.25
404.238	4.04
404.446	4.21
404.655	4.15
404.864	4.13
405.072	4.05
405.281	4.26
405.489	3.87
405.698	4.03
405.906	3.99
406.115	4.1
406.324	3.98
406.532	4.07
406.741	4.09
406.949	4.19
407.158	4.08
407.366	4.03
407.574	3.94
407.783	3.87
407.991	3.6
408.2	3.69
408.408	3.71
408.617	3.81
408.825	3.83
409.033	4.11
409.242	4.14
409.45	4.16
409.658	4.27
409.867	4.24
410.075	4.08
410.283	3.96
410.491	3.93
410.7	3.91
410.908	3.95
411.116	4.02
411.324	4.03
411.533	4.05
411.741	4
411.949	3.99
412.157	3.83
412.365	3.74
412.573	3.71
412.781	3.65
412.99	3.53
413.198	3.52
413.406	3.61
413.614	3.71
413.822	3.73
414.03	3.81
414.238	3.88
414.446	4.03
414.654	3.88
414.862	3.85
415.07	3.68
415.278	3.79
415.486	3.48
415.694	3.67
415.902	3.67
416.109	3.73
416.317	3.66
416.525	3.82
416.733	3.67
416.941	3.75
417.149	3.87
417.357	3.79
417.564	3.66
417.772	3.61
417.98	3.53
418.188	3.38
418.395	3.33
418.603	3.44
418.811	3.42
419.019	3.39
419.226	3.56
419.434	3.64
419.642	3.54
419.849	3.54
420.057	3.43
420.265	3.27
420.472	3.3
420.68	3.42
420.887	3.55
421.095	3.65
421.302	3.69
421.51	3.59
421.717	3.51
421.925	3.49
422.132	3.41
422.34	3.21
422.547	3.03
422.755	3.15
422.962	3.11
423.17	3.04
423.377	3.19
423.585	3.5
423.792	3.37
423.999	3.11
424.207	3.12
424.414	3.16
424.621	3.08
424.829	3.09
425.036	3.36
425.243	3.49
425.451	3.37
425.658	3.33
425.865	3.32
426.072	3.3
426.28	3.43
426.487	3.5
426.694	3.43
426.901	3.31
427.108	3.16
427.315	3.17
427.523	3.13
427.73	3.26
427.937	3.34
428.144	3.48
428.351	3.37
428.558	3.31
428.765	3.19
428.972	3.23
429.179	2.97
429.386	2.9
429.593	2.94
429.8	3.08
430.007	3.08
430.214	3.46
430.421	3.5
430.628	3.47
430.835	3.45
431.042	3.41
431.249	3.27
431.456	3.25
431.662	3.48
431.869	3.49
432.076	3.53
432.283	3.59
432.49	3.53
432.697	3.37
432.903	3.13
433.11	3.12
433.317	2.92
433.524	3.05
433.73	3.04
433.937	3.17
434.144	3.13
434.35	3.26
434.557	3.19
434.764	3.08
434.97	3.07
435.177	3.24
435.384	3.05
435.59	3.08
435.797	3.26
436.003	3.2
436.21	3.01
436.416	3.13
436.623	3.11
436.829	3.08
437.036	3.22
437.242	3.34
437.449	3.4
437.655	3.5
437.862	3.57
438.068	3.43
438.275	3.4
438.481	3.4
438.687	3.2
438.894	3.22
439.1	3.29
439.307	3.24
439.513	3.16
439.719	3.2
439.926	3.02
440.132	3.07
440.338	3.21
440.544	3.18
440.751	3.2
440.957	3.41
441.163	3.34
441.369	3.25
441.575	3.32
441.782	3.36
441.988	3.28
442.194	3.32
442.4	3.31
442.606	3.39
442.812	3.37
443.018	3.4
443.224	3.5
443.431	3.47
443.637	3.32
443.843	3.29
444.049	3.25
444.255	3.16
444.461	3.22
444.667	3.32
444.873	3.3
445.079	3.26
445.284	3.25
445.49	3.22
445.696	3.22
445.902	3.17
446.108	3.16
446.314	3.14
446.52	3.22
446.726	3.16
446.931	3.24
447.137	3.25
447.343	3.3
447.549	3.1
447.755	3.09
447.96	3.1
448.166	3.07
448.372	3.05
448.578	3.22
448.783	3.33
448.989	3.39
449.195	3.38
449.4	3.46
449.606	3.4
449.812	3.38
450.017	3.31
450.223	3.32
450.428	3.21
450.634	3.26
450.84	3.3
451.045	3.3
451.251	3.38
451.456	3.51
451.662	3.45
451.867	3.33
452.073	3.32
452.278	3.25
452.483	3.25
452.689	3.27
452.894	3.32
453.1	3.37
453.305	3.36
453.51	3.32
453.716	3.29
453.921	3.28
454.127	3.35
454.332	3.3
454.537	3.24
454.742	3.25
454.948	3.18
455.153	3.13
455.358	3.31
455.563	3.41
455.769	3.3
455.974	3.44
456.179	3.35
456.384	3.17
456.589	3.1
456.795	3.16
457	3.14
457.205	3.25
457.41	3.33
457.615	3.31
457.82	3.32
458.025	3.29
458.23	3.18
458.435	3.08
458.64	3.13
458.845	3.2
459.05	3.24
459.255	3.29
459.46	3.39
459.665	3.35
459.87	3.3
460.075	3.17
460.28	3.08
460.485	3.05
460.69	2.98
460.895	2.91
461.099	3.06
461.304	3.08
461.509	3.06
461.714	3.11
461.919	3.15
462.123	3
462.328	3.11
462.533	3.12
462.738	3.21
462.942	3.17
463.147	3.3
463.352	3.28
463.556	3.33
463.761	3.18
463.966	3.24
464.17	3.25
464.375	3.15
464.58	3.12
464.784	3.28
464.989	3.24
465.193	3.22
465.398	3.41
465.602	3.48
465.807	3.39
466.011	3.54
466.216	3.43
466.42	3.37
466.625	3.37
466.829	3.44
467.034	3.37
467.238	3.53
467.443	3.4
467.647	3.28
467.851	3.22
468.056	3.14
468.26	3.13
468.464	3.15
468.669	3.28
468.873	3.26
469.077	3.27
469.282	3.24
469.486	3.28
469.69	3.19
469.894	3.2
470.099	3.26
470.303	3.27
470.507	3.28
470.711	3.32
470.915	3.34
471.119	3.36
471.324	3.36
471.528	3.35
471.732	3.35
471.936	3.35
472.14	3.29
472.344	3.36
472.548	3.36
472.752	3.42
472.956	3.51
473.16	3.6
473.364	3.55
473.568	3.54
473.772	3.57
473.976	3.49
474.18	3.46
474.384	3.45
474.588	3.38
474.792	3.26
474.995	3.26
475.199	3.22
475.403	3.23
475.607	3.33
475.811	3.38
476.015	3.36
476.218	3.32
476.422	3.3
476.626	3.27
476.83	3.19
477.033	3.19
477.237	3.16
477.441	3.17
477.644	3.16
477.848	3.22
478.052	3.21
478.255	3.28
478.459	3.19
478.663	3.3
478.866	3.29
479.07	3.3
479.273	3.3
479.477	3.35
479.681	3.33
479.884	3.3
480.088	3.28
480.291	3.31
480.495	3.39
480.698	3.35
480.901	3.34
481.105	3.39
481.308	3.36
481.512	3.31
481.715	3.29
481.919	3.37
482.122	3.34
482.325	3.32
482.529	3.36
482.732	3.46
482.935	3.45
483.138	3.47
483.342	3.54
483.545	3.59
483.748	3.6
483.952	3.59
484.155	3.63
484.358	3.52
484.561	3.44
484.764	3.34
484.967	3.35
485.171	3.39
485.374	3.42
485.577	3.48
485.78	3.48
485.983	3.47
486.186	3.37
486.389	3.39
486.592	3.35
486.795	3.43
486.998	3.39
487.201	3.49
487.404	3.57
487.607	3.68
487.81	3.6
488.013	3.64
488.216	3.5
488.419	3.51
488.622	3.43
488.825	3.46
489.028	3.46
489.231	3.6
489.433	3.54
489.636	3.52
489.839	3.51
490.042	3.46
490.245	3.43
490.447	3.47
490.65	3.54
490.853	3.55
491.056	3.65
491.258	3.59
491.461	3.54
491.664	3.53
491.866	3.57
492.069	3.54
492.272	3.54
492.474	3.6
492.677	3.59
492.879	3.56
493.082	3.6
493.285	3.7
493.487	3.66
493.69	3.71
493.892	3.71
494.095	3.7
494.297	3.7
494.5	3.7
494.702	3.72
494.905	3.77
495.107	3.77
495.309	3.78
495.512	3.89
495.714	3.9
495.917	3.92
496.119	3.91
496.321	3.96
496.524	3.99
496.726	3.95
496.928	3.96
497.13	4.03
497.333	4.02
497.535	3.98
497.737	4.03
497.939	4.09
498.142	4.18
498.344	4.2
498.546	4.23
498.748	4.31
498.95	4.32
499.152	4.3
499.355	4.37
499.557	4.38
499.759	4.36
499.961	4.36
500.163	4.3
500.365	4.28
500.567	4.31
500.769	4.34
500.971	4.38
501.173	4.45
501.375	4.48
501.577	4.53
501.779	4.58
501.981	4.58
502.183	4.6
502.385	4.64
502.587	4.52
502.788	4.49
502.99	4.55
503.192	4.56
503.394	4.5
503.596	4.6
503.798	4.61
503.999	4.6
504.201	4.71
504.403	4.77
504.605	4.8
504.806	4.78
505.008	4.82
505.21	4.76
505.411	4.75
505.613	4.71
505.815	4.75
506.016	4.7
506.218	4.7
506.42	4.72
506.621	4.77
506.823	4.81
507.024	4.79
507.226	4.79
507.427	4.78
507.629	4.77
507.83	4.7
508.032	4.73
508.233	4.74
508.435	4.68
508.636	4.72
508.838	4.72
509.039	4.65
509.24	4.62
509.442	4.7
509.643	4.65
509.845	4.68
510.046	4.78
510.247	4.77
510.448	4.8
510.65	4.8
510.851	4.73
511.052	4.69
511.254	4.71
511.455	4.67
511.656	4.57
511.857	4.64
512.058	4.6
512.26	4.52
512.461	4.45
512.662	4.5
512.863	4.41
513.064	4.38
513.265	4.4
513.466	4.42
513.667	4.44
513.868	4.44
514.069	4.5
514.27	4.49
514.471	4.44
514.672	4.34
514.873	4.3
515.074	4.27
515.275	4.29
515.476	4.33
515.677	4.38
515.878	4.5
516.079	4.46
516.28	4.44
516.481	4.43
516.682	4.41
516.882	4.34
517.083	4.34
517.284	4.26
517.485	4.21
517.686	4.16
517.886	4.2
518.087	4.17
518.288	4.22
518.488	4.23
518.689	4.31
518.89	4.3
519.091	4.34
519.291	4.32
519.492	4.32
519.692	4.31
519.893	4.34
520.094	4.32
520.294	4.38
520.495	4.39
520.695	4.36
520.896	4.32
521.096	4.29
521.297	4.31
521.497	4.34
521.698	4.33
521.898	4.36
522.099	4.36
522.299	4.34
522.499	4.34
522.7	4.31
522.9	4.3
523.101	4.32
523.301	4.26
523.501	4.25
523.702	4.27
523.902	4.3
524.102	4.39
524.302	4.44
524.503	4.45
524.703	4.43
524.903	4.38
525.103	4.31
525.304	4.3
525.504	4.28
525.704	4.34
525.904	4.33
526.104	4.35
526.304	4.39
526.504	4.4
526.705	4.41
526.905	4.41
527.105	4.42
527.305	4.38
527.505	4.36
527.705	4.32
527.905	4.34
528.105	4.29
528.305	4.25
528.505	4.25
528.705	4.26
528.905	4.25
529.105	4.26
529.304	4.31
529.504	4.35
529.704	4.33
529.904	4.33
530.104	4.31
530.304	4.33
530.503	4.3
530.703	4.29
530.903	4.35
531.103	4.4
531.303	4.43
531.502	4.45
531.702	4.47
531.902	4.44
532.101	4.44
532.301	4.42
532.501	4.37
532.7	4.37
532.9	4.39
533.1	4.41
533.299	4.36
533.499	4.41
533.698	4.44
533.898	4.44
534.097	4.43
534.297	4.49
534.496	4.46
534.696	4.44
534.895	4.51
535.095	4.53
535.294	4.52
535.494	4.54
535.693	4.55
535.892	4.53
536.092	4.5
536.291	4.5
536.491	4.48
536.69	4.52
536.889	4.45
537.088	4.41
537.288	4.47
537.487	4.52
537.686	4.5
537.886	4.55
538.085	4.63
538.284	4.59
538.483	4.6
538.682	4.63
538.882	4.62
539.081	4.63
539.28	4.65
539.479	4.64
539.678	4.64
539.877	4.64
540.076	4.63
540.275	4.63
540.474	4.65
540.673	4.61
540.872	4.63
541.071	4.58
541.27	4.61
541.469	4.65
541.668	4.71
541.867	4.76
542.066	4.83
542.265	4.82
542.464	4.79
542.663	4.83
542.862	4.91
543.06	4.97
543.259	5.05
543.458	5.1
543.657	5.11
543.856	5.1
544.054	5.04
544.253	4.95
544.452	4.93
544.651	4.91
544.849	4.86
545.048	4.9
545.247	4.98
545.445	5.04
545.644	5.09
545.843	5.11
546.041	5.08
546.24	5.1
546.438	5.12
546.637	5.1
546.836	5.14
547.034	5.24
547.233	5.27
547.431	5.33
547.63	5.37
547.828	5.38
548.027	5.33
548.225	5.31
548.423	5.25
548.622	5.27
548.82	5.27
549.019	5.37
549.217	5.41
549.415	5.43
549.614	5.45
549.812	5.46
550.01	5.41
550.209	5.46
550.407	5.55
550.605	5.59
550.803	5.66
551.002	5.73
551.2	5.69
551.398	5.68
551.596	5.74
551.794	5.77
551.993	5.83
552.191	5.88
552.389	5.87
552.587	5.77
552.785	5.82
552.983	5.8
553.181	5.89
553.379	5.98
553.577	6.11
553.775	6.11
553.973	6.13
554.171	6.13
554.369	6.2
554.567	6.19
554.765	6.22
554.963	6.22
555.161	6.24
555.359	6.24
555.557	6.34
555.755	6.38
555.952	6.5
556.15	6.53
556.348	6.57
556.546	6.57
556.744	6.6
556.941	6.66
557.139	6.74
557.337	6.8
557.535	6.82
557.732	6.87
557.93	6.9
558.128	6.9
558.325	6.89
558.523	6.95
558.721	6.99
558.918	6.98
559.116	7.02
559.313	7.05
559.511	7.11
559.708	7.16
559.906	7.29
560.104	7.35
560.301	7.47
560.498	7.52
560.696	7.57
560.893	7.57
561.091	7.65
561.288	7.65
561.486	7.68
561.683	7.72
561.88	7.82
562.078	7.91
562.275	7.95
562.473	8.02
562.67	8.12
562.867	8.15
563.064	8.13
563.262	8.19
563.459	8.22
563.656	8.21
563.853	8.21
564.051	8.19
564.248	8.17
564.445	8.23
564.642	8.3
564.839	8.45
565.036	8.55
565.234	8.6
565.431	8.58
565.628	8.6
565.825	8.56
566.022	8.6
566.219	8.66
566.416	8.75
566.613	8.83
566.81	8.88
567.007	8.91
567.204	8.93
567.401	8.94
567.598	9.02
567.795	9
567.991	9.05
568.188	9.15
568.385	9.18
568.582	9.16
568.779	9.23
568.976	9.24
569.172	9.41
569.369	9.44
569.566	9.5
569.763	9.47
569.96	9.48
570.156	9.4
570.353	9.49
570.55	9.44
570.746	9.54
570.943	9.6
571.14	9.61
571.336	9.58
571.533	9.64
571.729	9.7
571.926	9.71
572.123	9.7
572.319	9.81
572.516	9.83
572.712	9.78
572.909	9.81
573.105	9.82
573.302	9.69
573.498	9.69
573.695	9.74
573.891	9.73
574.087	9.76
574.284	9.9
574.48	9.88
574.677	9.79
574.873	9.78
575.069	9.86
575.266	9.74
575.462	9.81
575.658	9.91
575.854	9.98
576.051	9.93
576.247	9.99
576.443	9.99
576.639	10.09
576.835	10.03
577.032	9.98
577.228	10.04
577.424	10.04
577.62	9.92
577.816	9.94
578.012	9.99
578.208	9.94
578.404	9.93
578.6	9.97
578.796	9.91
578.993	9.91
579.189	9.89
579.384	9.84
579.58	9.73
579.776	9.72
579.972	9.7
580.168	9.7
580.364	9.66
580.56	9.66
580.756	9.65
580.952	9.57
581.148	9.56
581.343	9.59
581.539	9.6
581.735	9.69
581.931	9.71
582.127	9.68
582.322	9.63
582.518	9.63
582.714	9.59
582.909	9.58
583.105	9.58
583.301	9.62
583.496	9.55
583.692	9.53
583.888	9.5
584.083	9.49
584.279	9.5
584.474	9.56
584.67	9.49
584.866	9.54
585.061	9.5
585.257	9.47
585.452	9.46
585.648	9.46
585.843	9.4
586.039	9.44
586.234	9.39
586.429	9.3
586.625	9.33
586.82	9.27
587.015	9.19
587.211	9.15
587.406	9.21
587.601	9.22
587.797	9.22
587.992	9.26
588.187	9.24
588.383	9.27
588.578	9.35
588.773	9.36
588.968	9.36
589.163	9.46
589.359	9.38
589.554	9.27
589.749	9.27
589.944	9.28
590.139	9.18
590.334	9.24
590.529	9.22
590.724	9.26
590.919	9.23
591.114	9.28
591.309	9.29
591.504	9.35
591.699	9.32
591.894	9.35
592.089	9.39
592.284	9.41
592.479	9.36
592.674	9.38
592.869	9.42
593.064	9.44
593.259	9.52
593.454	9.52
593.648	9.49
593.843	9.49
594.038	9.44
594.233	9.39
594.428	9.51
594.622	9.56
594.817	9.56
595.012	9.59
595.206	9.59
595.401	9.61
595.596	9.61
595.79	9.65
595.985	9.72
596.18	9.8
596.374	9.8
596.569	9.94
596.763	10.02
596.958	10.07
597.153	10.03
597.347	10.07
597.542	10.04
597.736	10.02
597.931	10.01
598.125	10.04
598.319	10.16
598.514	10.22
598.708	10.21
598.903	10.28
599.097	10.29
599.291	10.28
599.486	10.27
599.68	10.31
599.874	10.28
600.069	10.43
600.263	10.36
600.457	10.4
600.651	10.46
600.846	10.43
601.04	10.41
601.234	10.43
601.428	10.5
601.622	10.48
601.817	10.5
602.011	10.47
602.205	10.42
602.399	10.36
602.593	10.42
602.787	10.48
602.981	10.47
603.175	10.6
603.369	10.57
603.563	10.52
603.757	10.51
603.951	10.54
604.145	10.43
604.339	10.48
604.533	10.45
604.727	10.38
604.921	10.35
605.115	10.45
605.309	10.3
605.502	10.26
605.696	10.23
605.89	10.2
606.084	10.13
606.278	10.15
606.471	10.11
606.665	10.07
606.859	10.01
607.053	9.94
607.246	9.94
607.44	9.93
607.634	9.98
607.827	9.94
608.021	9.92
608.214	9.86
608.408	9.91
608.602	9.87
608.795	9.87
608.989	9.79
609.182	9.8
609.376	9.72
609.569	9.68
609.763	9.7
609.956	9.73
610.15	9.67
610.343	9.53
610.537	9.47
610.73	9.33
610.923	9.33
611.117	9.26
611.31	9.33
611.504	9.33
611.697	9.31
611.89	9.25
612.083	9.24
612.277	9.13
612.47	9.03
612.663	8.99
612.856	8.94
613.05	8.91
613.243	8.87
613.436	8.8
613.629	8.79
613.822	8.78
614.015	8.72
614.209	8.68
614.402	8.63
614.595	8.6
614.788	8.45
614.981	8.38
615.174	8.34
615.367	8.33
615.56	8.23
615.753	8.31
615.946	8.28
616.139	8.27
616.332	8.36
616.525	8.3
616.718	8.13
616.911	8.15
617.103	8.11
617.296	7.96
617.489	7.97
617.682	8.05
617.875	8.05
618.067	7.99
618.26	7.98
618.453	7.91
618.646	7.85
618.838	7.75
619.031	7.72
619.224	7.7
619.417	7.78
619.609	7.74
619.802	7.72
619.994	7.73
620.187	7.7
620.38	7.65
620.572	7.62
620.765	7.69
620.957	7.67
621.15	7.64
621.342	7.57
621.535	7.61
621.727	7.55
621.92	7.56
622.112	7.56
622.305	7.53
622.497	7.48
622.69	7.39
622.882	7.38
623.074	7.42
623.267	7.45
623.459	7.44
623.651	7.43
623.844	7.48
624.036	7.4
624.228	7.35
624.42	7.3
624.613	7.36
624.805	7.31
624.997	7.34
625.189	7.43
625.381	7.49
625.574	7.39
625.766	7.4
625.958	7.37
626.15	7.31
626.342	7.29
626.534	7.33
626.726	7.29
626.918	7.31
627.11	7.25
627.302	7.13
627.494	7.13
627.686	7.1
627.878	7.05
628.07	7
628.262	7.06
628.454	7.02
628.646	6.95
628.838	6.98
629.029	6.93
629.221	6.89
629.413	6.81
629.605	6.78
629.797	6.75
629.989	6.83
630.18	6.83
630.372	6.87
630.564	6.96
630.755	6.93
630.947	6.85
631.139	6.81
631.33	6.83
631.522	6.76
631.714	6.74
631.905	6.78
632.097	6.83
632.289	6.79
632.48	6.77
632.672	6.74
632.863	6.65
633.055	6.6
633.246	6.56
633.438	6.56
633.629	6.46
633.821	6.5
634.012	6.48
634.203	6.51
634.395	6.54
634.586	6.69
634.777	6.65
634.969	6.64
635.16	6.65
635.351	6.62
635.543	6.59
635.734	6.61
635.925	6.61
636.117	6.59
636.308	6.59
636.499	6.57
636.69	6.54
636.881	6.57
637.073	6.59
637.264	6.6
637.455	6.54
637.646	6.53
637.837	6.53
638.028	6.49
638.219	6.44
638.41	6.42
638.601	6.39
638.792	6.41
638.983	6.39
639.174	6.31
639.365	6.27
639.556	6.35
639.747	6.25
639.938	6.25
640.129	6.37
640.32	6.35
640.511	6.2
640.701	6.24
640.892	6.16
641.083	6.09
641.274	6.13
641.465	6.22
641.655	6.15
641.846	6.15
642.037	6.15
642.228	6.15
642.418	6.1
642.609	6.19
642.8	6.21
642.99	6.14
643.181	6.13
643.372	6.13
643.562	6.02
643.753	6.02
643.943	6.12
644.134	6.03
644.324	6.04
644.515	6.02
644.705	5.94
644.896	5.89
645.086	5.94
645.277	5.89
645.467	5.92
645.658	5.99
645.848	5.93
646.038	5.95
646.229	5.97
646.419	5.97
646.61	6.01
646.8	6.05
646.99	5.96
647.18	5.9
647.371	5.88
647.561	5.78
647.751	5.66
647.941	5.68
648.132	5.78
648.322	5.84
648.512	5.89
648.702	6.01
648.892	6.04
649.082	6.01
649.272	5.88
649.462	5.8
649.653	5.75
649.843	5.74
650.033	5.74
650.223	5.86
650.413	5.91
650.603	6.01
650.793	6
650.983	5.93
651.172	5.81
651.362	5.76
651.552	5.68
651.742	5.58
651.932	5.49
652.122	5.6
652.312	5.64
652.502	5.48
652.691	5.6
652.881	5.65
653.071	5.51
653.261	5.37
653.45	5.45
653.64	5.32
653.83	5.24
654.019	5.28
654.209	5.32
654.399	5.3
654.588	5.29
654.778	5.26
654.968	5.26
655.157	5.2
655.347	5.19
655.536	5.16
655.726	5.22
655.915	5.17
656.105	5.13
656.294	5.04
656.484	4.94
656.673	4.82
656.863	4.69
657.052	4.61
657.241	4.51
657.431	4.44
657.62	4.43
657.809	4.47
657.999	4.49
658.188	4.59
658.377	4.59
658.567	4.53
658.756	4.38
658.945	4.34
659.134	4.24
659.324	4.22
659.513	4.16
659.702	4.02
659.891	3.99
660.08	3.93
660.269	3.87
660.458	3.82
660.648	4
660.837	3.96
661.026	3.94
661.215	3.95
661.404	3.92
661.593	3.83
661.782	3.79
661.971	3.81
662.16	3.73
662.349	3.63
662.538	3.64
662.726	3.69
662.915	3.62
663.104	3.7
663.293	3.77
663.482	3.82
663.671	3.79
663.86	3.69
664.048	3.63
664.237	3.7
664.426	3.65
664.615	3.66
664.803	3.87
664.992	3.89
665.181	3.91
665.369	3.91
665.558	3.91
665.747	3.87
665.935	3.89
666.124	3.84
666.312	3.85
666.501	3.95
666.69	3.86
666.878	3.84
667.067	3.9
667.255	3.96
667.444	4
667.632	4.01
667.82	4.1
668.009	4.13
668.197	4.12
668.386	3.95
668.574	4.01
668.762	3.98
668.951	4
669.139	3.99
669.327	4.05
669.516	4.02
669.704	4.12
669.892	4.2
670.08	4.25
670.269	4.29
670.457	4.43
670.645	4.41
670.833	4.46
671.021	4.54
671.21	4.56
671.398	4.61
671.586	4.65
671.774	4.65
671.962	4.62
672.15	4.82
672.338	4.92
672.526	5.03
672.714	5.03
672.902	5.03
673.09	4.96
673.278	4.91
673.466	5.05
673.654	5.23
673.842	5.41
674.03	5.58
674.218	5.66
674.405	5.7
674.593	5.68
674.781	5.73
674.969	5.76
675.157	5.82
675.344	5.88
675.532	5.81
675.72	5.75
675.908	5.75
676.095	5.68
676.283	5.69
676.471	5.9
676.658	6.16
676.846	6.25
677.033	6.44
677.221	6.48
677.409	6.51
677.596	6.49
677.784	6.49
677.971	6.6
678.159	6.65
678.346	6.63
678.534	6.71
678.721	6.74
678.909	6.78
679.096	6.91
679.283	6.93
679.471	7
679.658	7.22
679.846	7.18
680.033	7.3
680.22	7.44
680.408	7.34
680.595	7.34
680.782	7.33
680.969	7.28
681.157	7.34
681.344	7.45
681.531	7.45
681.718	7.62
681.905	7.51
682.093	7.58
682.28	7.64
682.467	7.87
682.654	7.92
682.841	8.21
683.028	8.22
683.215	8.44
683.402	8.28
683.589	8.3
683.776	8.23
683.963	8.27
684.15	8.21
684.337	8.37
684.524	8.41
684.711	8.68
684.898	8.9
685.085	8.97
685.271	8.98
685.458	9.09
685.645	8.97
685.832	8.98
686.019	9.08
686.205	9.19
686.392	9.33
686.579	9.48
686.766	9.48
686.952	9.5
687.139	9.63
687.326	9.56
687.512	9.58
687.699	9.93
687.886	10.12
688.072	10.29
688.259	10.67
688.445	10.91
688.632	10.88
688.818	11.25
689.005	11.45
689.191	11.57
689.378	11.79
689.564	11.99
689.751	12.11
689.937	12.39
690.124	12.67
690.31	12.9
690.496	13.35
690.683	13.6
690.869	13.76
691.055	13.96
691.242	14.34
691.428	14.41
691.614	14.78
691.8	15.15
691.987	15.56
692.173	15.87
692.359	16.33
692.545	16.66
692.731	16.92
692.918	17.04
693.104	17.22
693.29	17.69
693.476	17.98
693.662	18.75
693.848	19.47
694.034	19.97
694.22	20.29
694.406	20.85
694.592	21.05
694.778	21.31
694.964	21.88
695.15	22.33
695.336	22.57
695.522	23
695.708	23.55
695.894	23.8
696.08	24.32
696.265	24.97
696.451	25.49
696.637	25.77
696.823	26.47
697.009	27.01
697.194	27.34
697.38	28
697.566	28.56
697.751	28.9
697.937	29.27
698.123	29.79
698.308	30.03
698.494	30.73
698.68	31.23
698.865	31.82
699.051	32.4
699.236	33
699.422	33.45
699.607	33.89
699.793	34.3
699.978	34.81
700.164	35.28
700.349	35.74
700.535	36.42
700.72	36.87
700.906	37.35
701.091	37.75
701.276	38.37
701.462	38.92
701.647	39.59
701.832	40.3
702.018	41.04
702.203	41.44
702.388	41.77
702.573	42
702.759	42.11
702.944	42.14
703.129	42.34
703.314	43.04
703.499	43.84
703.684	44.43
703.87	45
704.055	45.47
704.24	45.83
704.425	46.14
704.61	46.41
704.795	46.63
704.98	47.53
705.165	47.99
705.35	48.21
705.535	48.8
705.72	49.8
705.905	50.06
706.09	50.25
706.275	50.55
706.459	50.95
706.644	51.14
706.829	51.79
707.014	52.48
707.199	53.27
707.384	53.63
707.568	54.3
707.753	54.87
707.938	55.55
708.123	56.28
708.307	57
708.492	57.01
708.677	56.91
708.861	56.77
709.046	56.81
709.231	57.21
709.415	57.7
709.6	57.98
709.784	58.67
709.969	58.86
710.153	59.16
710.338	59.36
710.522	59.99
710.707	60.42
710.891	60.68
711.076	60.48
711.26	61.25
711.445	61.45
711.629	61.66
711.813	62.02
711.998	62.85
712.182	63
712.366	63.6
712.551	64.31
712.735	65.04
712.919	65.47
713.103	65.77
713.288	65.84
713.472	66.02
713.656	65.92
713.84	66.61
714.024	67.45
714.208	67.96
714.393	68.04
714.577	68.43
714.761	68.51
714.945	68.52
715.129	68.97
715.313	69.39
715.497	70.15
715.681	70.13
715.865	70.12
716.049	70.11
716.233	70.61
716.417	70.63
716.601	71.2
716.785	71.67
716.968	71.83
717.152	72.04
717.336	72.04
717.52	72.35
717.704	72.22
717.888	72.68
718.071	72.64
718.255	73.47
718.439	73.16
718.622	73.54
718.806	73.72
718.99	74.03
719.174	73.88
719.357	74.1
719.541	74.59
719.724	74.86
719.908	75.32
720.092	75.69
720.275	76.27
720.459	76.62
720.642	77.21
720.826	76.77
721.009	76.65
721.193	76.91
721.376	76.8
721.559	76.84
721.743	77.46
721.926	78.61
722.11	79.16
722.293	79.7
722.476	79.62
722.66	79.88
722.843	79.49
723.026	79.47
723.21	80.09
723.393	80.22
723.576	80.37
723.759	80.4
723.942	80.18
724.126	80.08
724.309	80.7
724.492	80.88
724.675	81.36
724.858	82.36
725.041	83.02
725.224	83.03
725.407	83.07
725.59	83.47
725.774	83.03
725.957	82.61
726.14	82.91
726.322	83.17
726.505	83.3
726.688	83.89
726.871	84.63
727.054	84.9
727.237	85.28
727.42	85.58
727.603	85.43
727.786	84.89
727.968	84.3
728.151	84.91
728.334	85.08
728.517	85.65
728.699	86.51
728.882	86.89
729.065	86.47
729.248	86.6
729.43	85.77
729.613	85.69
729.796	86.34
729.978	87.55
730.161	87.68
730.343	88.91
730.526	88.79
730.708	89.34
730.891	88.71
731.073	88.16
731.256	87.39
731.438	88.15
731.621	88.32
731.803	88.75
731.986	89.7
732.168	89.64
732.35	88.81
732.533	88.36
732.715	87.34
732.898	86.62
733.08	87.12
733.262	88.46
733.444	88.64
733.627	89.25
733.809	89.17
733.991	90.42
734.173	89.61
734.355	90.05
734.538	90.81
734.72	91.68
734.902	90.91
735.084	91.07
735.266	91.2
735.448	91.2
735.63	91.63
735.812	92.44
735.994	93.43
736.176	92.96
736.358	91.81
736.54	90.8
736.722	90.62
736.904	90.25
737.086	90.63
737.268	92.47
737.45	93.88
737.632	93.26
737.814	93.52
737.995	93.96
738.177	92.97
738.359	92.22
738.541	93.25
738.723	93.34
738.904	93.01
739.086	93.02
739.268	94.12
739.449	93.86
739.631	92.92
739.813	92.44
739.994	94.14
740.176	92.46
740.358	93.32
740.539	94.39
740.721	95.08
740.902	94.38
741.084	96.16
741.265	95.13
741.447	94.49
741.628	96.31
741.81	95.87
741.991	95.05
742.172	95.47
742.354	95.74
742.535	93.65
742.717	93.36
742.898	94.24
743.079	94.4
743.261	95.17
743.442	95.91
743.623	97.35
743.804	96.85
743.986	98.06
744.167	96.73
744.348	96.38
744.529	96.11
744.71	96.11
744.891	95.05
745.073	96.55
745.254	97.26
745.435	96.44
745.616	97.21
745.797	96.74
745.978	97
746.159	97.4
746.34	96.85
746.521	96.74
746.702	95.95
746.883	93.81
747.064	91.57
747.245	93.61
747.426	94.66
747.606	95.39
747.787	97.38
747.968	99.45
748.149	98.05
748.33	96.06
748.51	95.79
748.691	94.62
748.872	93.42
749.053	92.58
749.233	93.54
749.414	94.11
749.595	95.21
749.775	95.62
749.956	96.6
750.137	96.26
750.317	97.2
750.498	96.74
750.678	98.03
750.859	97.43
751.04	97.51
751.22	96.52
751.4	96.62
751.581	96.13
751.761	97.27
751.942	98.15
752.122	97.88
752.303	96.53
752.483	97.5
752.663	98.96
752.844	98.11
753.024	99.51
753.204	101.78
753.385	99.72
753.565	97.6
753.745	97.79
753.925	97.43
754.106	96.47
754.286	98.06
754.466	98.69
754.646	97.9
754.826	96.02
755.006	95.19
755.187	93.96
755.367	93.25
755.547	93.91
755.727	94.53
755.907	94.46
756.087	94.53
756.267	94.22
756.447	94.19
756.627	94.34
756.807	94.54
756.987	96.12
757.167	97.94
757.346	96.55
757.526	97.37
757.706	98.29
757.886	97.5
758.066	96.95
758.246	98.44
758.425	97.38
758.605	95.48
758.785	96.16
758.965	94.55
759.144	93.24
759.324	91.43
759.504	93.22
759.683	93.15
759.863	94.2
760.043	95.36
760.222	96.1
760.402	94.88
760.581	93.06
760.761	92.02
760.94	91.61
761.12	95.24
761.299	95.54
761.479	96.92
761.658	96.84
761.838	97.09
762.017	95.23
762.197	95.8
762.376	95.17
762.555	95.85
762.735	95.77
762.914	96.51
763.093	97.71
763.273	97.74
763.452	97.79
763.631	98.01
763.81	96.45
763.99	95.22
764.169	93.39
764.348	93.63
764.527	93.18
764.706	92.78
764.885	91.86
765.064	93.56
765.243	90.82
765.423	90.74
765.602	92.85
765.781	94.83
765.96	92.82
766.139	95.52
766.318	94.47
766.497	93.63
766.676	91.97
766.854	94.25
767.033	93.41
767.212	95
767.391	92.14
767.57	93.71
767.749	93.87
767.928	94.47
768.106	92.53
768.285	92.79
768.464	88.11
768.643	87.42
768.821	87.34
769	89.2
769.179	90.33
769.357	92.77
769.536	93.67
769.715	93.54
769.893	92.91
770.072	92.57
770.25	92.59
770.429	90.91
770.607	91.76
770.786	90.65
770.964	91.75
771.143	93.6
771.321	93.16
771.5	92.91
771.678	95.14
771.857	96.34
772.035	95.32
772.213	96.86
772.392	93.66
772.57	91.85
772.748	89.51
772.927	90.88
773.105	89.44
773.283	92.24
773.461	91.11
773.64	89.42
773.818	88.29
773.996	89.5
774.174	87.8
774.352	88.24
774.531	89.59
774.709	88.38
774.887	88.42
775.065	87.46
775.243	87.77
775.421	88.35
775.599	89.26
775.777	86.87
775.955	87.37
776.133	86.67
776.311	85.53
776.489	86.57
776.667	87.33
776.844	88.96
777.022	88.75
777.2	91.43
777.378	88.13
777.556	87.58
777.734	87.32
777.911	89.98
778.089	87.58
778.267	90.21
778.445	88.19
778.622	85.31
778.8	84.98
778.978	88.39
779.155	88.8
779.333	90.71
779.511	91.9
779.688	90.08
779.866	88.14
780.043	83.24
780.221	82.24
780.398	82.63
780.576	81.69
780.753	79.05
780.931	81.75
781.108	84.59
781.286	86.31
781.463	85.99
781.64	86.38
781.818	87.32
781.995	87.14
782.172	85.95
782.35	87.68
782.527	89.81
782.704	88.89
782.882	88.27
783.059	89.21
783.236	87.02
783.413	86.05
783.59	87.26
783.768	84.53
783.945	82.85
784.122	82.66
784.299	79.85
784.476	79.31
784.653	82.06
784.83	83.82
785.007	83.84
785.184	87.04
785.361	87.31
785.538	86.8
785.715	85.15
785.892	87.03
786.069	86.59
786.246	89.83
786.423	91.03
786.6	94.32
786.776	93.19
786.953	92.97
787.13	91.76
787.307	88.47
787.484	86.73
787.66	82.96
787.837	84.89
788.014	87.74
788.191	90.71
788.367	90.16
788.544	94.25
788.721	94.86
788.897	90.64
789.074	89.19
789.25	87.61
789.427	89.53
789.603	82
789.78	80.53
789.956	87.81
790.133	85.68
790.309	82.22
790.486	84.04
790.662	84
790.839	72.69
791.015	72.63
791.192	74.56
791.368	79.58
791.544	77.56
791.721	83.54
791.897	84.01
792.073	87.04
792.249	85.12
792.426	90.28
792.602	90.03
792.778	91.45
792.954	86.31
793.13	86.96
793.307	81.89
793.483	78.49
793.659	79.68
793.835	77.32
794.011	72.53
794.187	73.07
794.363	71.48
794.539	64.38
794.715	69.02
794.891	76.05
795.067	74.87
795.243	76.72
795.419	83.57
795.595	82.68
795.771	77.46
795.947	77.13
796.122	78.18
796.298	78.59
796.474	78.12
796.65	77.25
796.826	77.52
797.001	77.36
797.177	76.94
797.353	77.61
797.529	81.18
797.704	85.39
797.88	85.46
798.056	84.91
798.231	83.79
798.407	83.4
798.582	82.13
798.758	83.1
798.934	85.22
799.109	82.57
799.285	82.39
799.46	78.96
799.636	80.29
799.811	81.61
799.986	87.21
800.162	90.33
800.337	94.52
800.513	87.12
800.688	80.95
800.863	81.83
801.039	80.32
801.214	80.05
801.389	81.64
801.565	80.87
801.74	78.64
801.915	73.8
802.09	73.92
802.265	73.82
802.441	76.82
802.616	73.98
802.791	76.28
802.966	84.51
803.141	89.37
803.316	84.01
803.491	83.54
803.666	80.46
803.841	74.87
804.016	68.21
804.191	71.88
804.366	82.77
804.541	86.98
804.716	84.11
804.891	88.44
805.066	89.16
805.241	75.1
805.416	72.37
805.591	68.93
805.765	64.46
805.94	65.36
806.115	73.88
806.29	80.09
806.464	80.38
806.639	84.01
806.814	82.59
806.989	74.19
807.163	69.42
807.338	71.57
807.512	67.24
807.687	63.38
807.862	68.38
808.036	71.03
808.211	65.83
808.385	71.26
808.56	79.16
808.734	76.96
808.909	78.23
809.083	77.59
809.258	74.4
809.432	70.45
809.606	66.81
809.781	63.6
809.955	68.53
810.13	72.31
810.304	73.12
810.478	78.98
810.652	89.13
810.827	86.91
811.001	87.39
811.175	84.77
811.349	83.53
811.524	69.27
811.698	69.67
811.872	78.14
812.046	72.76
812.22	82.68
812.394	80.54
812.568	94.13
812.742	80.69
812.916	88.46
813.09	83.03
813.264	100.26
813.438	90.85
813.612	95.72
813.786	93.3
813.96	85.7
814.134	76.61
814.308	74.36
814.482	78.44
814.656	86.96
814.83	99.94
815.003	101.96
815.177	100.29
815.351	101.67
815.525	97.9
815.698	86.36
815.872	78.01
816.046	80.17
816.219	75.32
816.393	70.98
816.567	87.11
816.74	93.72
816.914	85.33
817.088	80.69
817.261	75.02
817.435	65.08
817.608	65.36
817.782	58.27
817.955	62.42
818.129	67.69
818.302	76.75
818.475	83
818.649	88.21
818.822	89.29
818.996	83.07
819.169	71.73
819.342	61.28
819.516	67.84
819.689	74.97
819.862	74.88
820.035	76.06
820.209	73.16
820.382	83.24
820.555	68.56
820.728	77.07
820.901	83.55
821.075	89.27
821.248	77.01
821.421	80.84
821.594	81.65
821.767	89.52
821.94	87.8
822.113	96.11
822.286	93.64
822.459	92.08
822.632	83.58
822.805	85.21
822.978	84.29
823.151	88.87
823.324	86.07
823.496	75.15
823.669	77.34
823.842	71.88
824.015	69.32
824.188	72.57
824.361	77.39
824.533	74.65
824.706	78.89
824.879	80.04
825.051	74.56
825.224	76.88
825.397	79.15
825.569	77.08
825.742	64.65
825.915	67.78
826.087	61.32
826.26	53.16
826.432	58.95
826.605	69.15
826.777	64.3
826.95	62.27
827.122	65.72
827.295	65.65
827.467	70.78
827.64	68.3
827.812	61.54
827.984	51.16
828.157	49.66
828.329	43.01
828.501	46.78
828.674	60.4
828.846	73.39
829.018	82.47
829.19	83.89
829.363	79.87
829.535	76.65
829.707	69.76
829.879	58.09
830.051	44.88
830.223	49.52
830.395	51.21
830.568	61.07
830.74	59.14
830.912	81.1
831.084	101.76
831.256	91.06
831.428	72.59
831.6	82.38
831.772	62.37
831.943	43.08
832.115	72.42
832.287	73.82
832.459	73.81
832.631	71.71
832.803	63.64
832.975	41.74
833.146	45.01
833.318	34.55
833.49	60.17
833.662	68.34
833.833	84.58
834.005	71.02
834.177	75.7
834.348	65.48
834.52	65.12
834.692	74.58
834.863	68.54
835.035	59.2
835.206	40.65
835.378	57.48
835.549	42.51
835.721	60.06
835.892	49.31
836.064	64.42
836.235	64.38
836.407	72.02
836.578	67.06
836.749	96.53
836.921	89.83
837.092	83.5
837.264	74.82
837.435	86.7
837.606	61.81
837.777	78.69
837.949	88.95
838.12	92.23
838.291	74.18
838.462	93.92
838.633	75.06
838.805	68.18
838.976	73.4
839.147	86.57
839.318	78.01
839.489	100.12
839.66	84.37
839.831	69.65
840.002	66.32
840.173	55.1
840.344	23.96
840.515	5.64
840.686	5.83
840.857	4.16
841.028	18.2
841.199	42.84
841.369	57.48
841.54	75.1
841.711	70.88
841.882	62
842.053	66.61
842.223	58.08
842.394	64.14
842.565	62.51
842.736	82.76
842.906	86.94
843.077	85.32
843.248	98.35
843.418	113.63
843.589	96.4
843.759	80.34
843.93	80.29
844.101	57.05
844.271	69.26
844.442	66.68
844.612	63.69
844.783	62.66
844.953	61.27
845.123	55.27
845.294	77.03
845.464	74.42
845.635	42.22
845.805	39.33
845.975	35.06
846.146	4
846.316	23.86
846.486	53.27
846.656	56.86
846.827	87.06
846.997	81.73
847.167	73.52
847.337	59.43
847.507	79.34
847.677	70.74
847.848	96.63
848.018	116.02
848.188	113.74
848.358	105.88
848.528	71.29
848.698	71.26
848.868	52.21
849.038	38.88
849.208	51.01
849.378	85.24
849.548	76.48
849.718	100.14
849.887	106.96
850.057	88.49
850.227	79.65
850.397	66.49
850.567	40.7
850.737	40.63
850.906	29.23
851.076	24.97
851.246	28.02
851.415	49.98
851.585	46.54
851.755	54.9
851.924	82.2
852.094	61.33
852.264	52.05
852.433	38.45
852.603	42.16
852.772	20.29
852.942	38.09
853.111	13.94
853.281	50.18
853.45	45.39
853.62	35.55
853.789	32.28
853.959	55.16
854.128	30.53
854.297	36.68
854.467	36.22
854.636	53.44
854.805	61.38
854.975	38.64
855.144	55.15
855.313	89.91
855.482	101.93
855.652	71.6
855.821	101.01
855.99	92.58
856.159	116.16
856.328	87.05
856.497	96.24
856.667	71.74
856.836	111.92
857.005	74.43
857.174	47.66
857.343	94.93
857.512	172.65
857.681	49.95
857.85	98.76
858.019	89.17
858.188	83.44
858.356	91.46
858.525	80.7
858.694	34.39
858.863	32.39
859.032	21.68
859.201	19.75
859.369	29.46
859.538	51.89
859.707	52.62
859.876	63.53
860.044	70.13
860.213	90.53
860.382	88.82
860.55	112.79
860.719	86.01
860.888	55.73
861.056	24.44
861.225	37.63
861.393	38.19
861.562	44.36
861.73	70.34
861.899	70.68
862.067	60.77
862.236	70.54
862.404	47.57
862.572	31.84
862.741	27.36
862.909	-7.1
863.078	-40.87
863.246	15.9
863.414	21.93
863.582	35.57
863.751	42.91
863.919	51.29
864.087	35.08
864.255	34.85
864.424	36.98
864.592	35.32
864.76	27.35
864.928	49.17
865.096	50.7
865.264	58.47
865.432	81.62
865.6	80.78
865.768	56.91
865.936	70.99
866.104	55.94
866.272	67.15
866.44	40.42
866.608	89.16
866.776	68.35
866.944	154.95
867.112	107.85
867.28	317.2
867.448	215.67
867.615	361.4
867.783	188.85
867.951	147.17
868.119	123.31
868.286	104.57
868.454	117.44
868.622	64.34
868.789	83.42
868.957	61.98
869.125	34.63
869.292	39.21
869.46	50.15
869.627	39.25
869.795	19.35
869.963	8.48
870.13	-5.88
870.298	-22.26
870.465	-43.47
870.632	26.6
870.8	72.41
870.967	88.33
871.135	158.69
871.302	223.31
871.469	-131.86
871.637	58.11
871.804	54.45
871.971	34.45
872.139	58.57
872.306	59.27
872.473	45.6
872.64	43.32
872.807	67.89
872.975	98.59
873.142	178.77
873.309	4943.48
873.476	1264.03
873.643	272.68
873.81	146.62
873.977	86.48
874.144	87.17
874.311	52.36
874.478	42.21
874.645	29.35
874.812	33.5
874.979	24.88
875.146	41.23
875.313	76.52
875.48	54.01
875.647	-475.22
875.813	838.67
875.98	-1045.45
876.147	409.09
876.314	203.16
876.481	113.81
876.647	182.31
876.814	175.53
876.981	222.16
877.147	186.58
877.314	173.74
877.481	159.31
877.647	128.07
877.814	109.2
877.98	86.42
878.147	42.81
878.314	49.02
878.48	33.09
878.647	74.51
878.813	1072.09
878.979	272.58
879.146	142.88
879.312	224.34
879.479	145.31
879.645	134.21
879.811	92.03
879.978	99.88
880.144	76.36
880.31	58.51
880.477	16.05
880.643	41.31
880.809	71.33
880.975	2009.09
881.142	-25.66
881.308	-2084
881.474	255.56
881.64	188.82
881.806	89.57
881.972	127.24
882.138	112.47
882.304	154.99
882.47	127.29
882.636	120.72
882.802	103.58
882.968	144.71
883.134	67.16
883.3	48.34
883.466	90.59
883.632	101.52
883.798	113.33
883.964	137.43
884.129	214.64
884.295	138.57
884.461	91.12
884.627	40.81
884.793	0.15
884.958	63.45
885.124	64.02
885.29	50.39
885.455	211.23
885.621	217.21
885.787	169.05
885.952	-3.56
886.118	-153.59
886.283	1436.84
886.449	104.85
886.614	148.08
886.78	142.64
886.945	181.41
887.111	80.82
887.276	106.42
887.442	87.89
887.607	87.23
887.773	70.87
887.938	99
888.103	54.41
888.269	-4.31
888.434	-50.45
888.599	-46.04
888.764	30.48
888.93	39.81
889.095	67.72
889.26	163.44
889.425	454.39
889.59	-488.41
889.756	269.47
889.921	88.43
890.086	179.13
890.251	113.21
890.416	108.02
890.581	101.81
890.746	134.93
890.911	74.75
891.076	69.49
891.241	30.48
891.406	37.35
891.571	27.67
891.736	52.64
891.901	19.52
892.065	93.21
892.23	104.06
892.395	47.51
892.56	-51.62
892.725	52.46
892.889	53.19
893.054	31.48
893.219	0.19
893.384	11.93
893.548	-128.9
893.713	629.63
893.878	129.59
