Data from Ofav_PS_Phys_9JQ431_Reflection_2.txt Node
Date: Thu Jul 29 18:20:13 EDT 2021
User: USUARIO
Spectrometer: FLMT01687
Trigger mode: 0
Integration Time (sec): 9.010000E-1
Scans to average: 2
Electric dark correction enabled: true
Nonlinearity correction enabled: false
Boxcar width: 2
XAxis mode: Wavelengths
Number of Pixels in Spectrum: 3648
>>>>>Begin Spectral Data<<<<<
179.494	274.92
179.716	346.85
179.937	229.87
180.158	-1009.04
180.38	-43.98
180.601	-544.36
180.823	-108.77
181.044	-84.65
181.265	-104.05
181.486	-1076.84
181.708	68.37
181.929	164.3
182.15	9666.67
182.372	-167.69
182.593	-57
182.814	-37.77
183.035	-384.19
183.257	39.04
183.478	7.33
183.699	55.42
183.92	36.21
184.141	33.72
184.363	29.86
184.584	31.89
184.805	25.17
185.026	46.15
185.247	34.61
185.468	36.63
185.689	37.46
185.91	74.29
186.132	77.92
186.353	70.6
186.574	68.88
186.795	72.71
187.016	44.92
187.237	25.75
187.458	18.53
187.679	12.99
187.9	15.27
188.121	13.02
188.342	31.73
188.563	42.25
188.784	54.21
189.005	46.35
189.226	54.04
189.447	61.13
189.667	53.33
189.888	47.67
190.109	77.54
190.33	95.36
190.551	36.71
190.772	42.01
190.993	19.13
191.214	10.17
191.434	3.63
191.655	29.29
191.876	27.92
192.097	56.47
192.318	52.55
192.538	69.93
192.759	83.19
192.98	62.02
193.201	69.46
193.421	58.15
193.642	64.57
193.863	5.43
194.083	-9.46
194.304	-34.43
194.525	-0.74
194.745	-13.41
194.966	5.23
195.187	21.06
195.407	6.66
195.628	-31.42
195.848	-8.75
196.069	33.57
196.29	10.06
196.51	19.41
196.731	34.16
196.951	25.57
197.172	-6.55
197.392	21.04
197.613	4.09
197.833	-0.25
198.054	7.43
198.274	9.52
198.495	10.33
198.715	17.77
198.936	25.83
199.156	28.12
199.377	40.83
199.597	39.87
199.817	58.38
200.038	55.92
200.258	54.62
200.479	67.64
200.699	53.26
200.919	50.82
201.14	35.56
201.36	34.43
201.58	37.28
201.801	33.38
202.021	39.01
202.241	46.56
202.461	46.38
202.682	64.7
202.902	94.13
203.122	67.86
203.342	80.59
203.563	78.93
203.783	75.68
204.003	52.03
204.223	78.44
204.443	49.77
204.663	63.95
204.884	38.31
205.104	28.05
205.324	14.01
205.544	24.1
205.764	11.8
205.984	33.46
206.204	48.23
206.424	47.35
206.644	47.09
206.864	41.39
207.084	11.93
207.304	30.9
207.525	14.95
207.745	8.4
207.964	33.13
208.184	47.34
208.404	1.19
208.624	33.13
208.844	28.11
209.064	28.05
209.284	19.73
209.504	29.99
209.724	51.02
209.944	61.79
210.164	60.38
210.384	49.96
210.604	47.71
210.823	42.08
211.043	32.42
211.263	51.08
211.483	64.06
211.703	57.36
211.922	51.65
212.142	57.86
212.362	44.86
212.582	26.18
212.801	34.11
213.021	31.73
213.241	18.37
213.461	11.29
213.68	15.42
213.9	30.27
214.12	36.03
214.339	47.47
214.559	68.6
214.779	91.85
214.998	47.72
215.218	2.37
215.438	32.16
215.657	4.92
215.877	4.26
216.096	19.73
216.316	36.04
216.535	-0.37
216.755	-9.52
216.974	-46.68
217.194	-62.5
217.413	-29.87
217.633	15.89
217.852	-2.59
218.072	20.38
218.291	12.39
218.511	21.72
218.73	2.32
218.95	5.15
219.169	14.45
219.389	21.2
219.608	8.92
219.827	16.67
220.047	32.13
220.266	17.58
220.485	38.5
220.705	33.59
220.924	16.47
221.143	-0.65
221.363	-1
221.582	-19.65
221.801	-57.88
222.021	-7.24
222.24	41.21
222.459	48.83
222.678	45.76
222.897	43.33
223.117	45.62
223.336	31.68
223.555	22.75
223.774	48.4
223.993	59.92
224.213	57.61
224.432	59.66
224.651	80.03
224.87	61.9
225.089	75.35
225.308	83.63
225.527	98.36
225.746	73.86
225.965	69.78
226.184	37.54
226.404	-1.99
226.623	23.4
226.842	34.95
227.061	33.66
227.28	53.9
227.499	95.67
227.718	95.03
227.936	57.36
228.155	65.41
228.374	25.73
228.593	21.86
228.812	23.69
229.031	27.89
229.25	12.19
229.469	27.2
229.688	17.69
229.907	28.99
230.125	27.44
230.344	29.65
230.563	20.45
230.782	32.2
231.001	2.39
231.22	-19.97
231.438	-12.53
231.657	1.76
231.876	2.94
232.095	-2.89
232.313	6.04
232.532	-1.59
232.751	-6.99
232.969	-11.08
233.188	-5.67
233.407	-24.18
233.625	-1.16
233.844	18.64
234.063	24.75
234.281	16.63
234.5	26.96
234.719	33
234.937	37.77
235.156	47.08
235.374	62.1
235.593	79.08
235.811	91.84
236.03	48.5
236.249	44.15
236.467	43.69
236.686	44.54
236.904	36.72
237.123	48.93
237.341	31.81
237.559	15.83
237.778	14.14
237.996	29.61
238.215	27.41
238.433	45.11
238.652	60.11
238.87	52.3
239.088	39.65
239.307	19.38
239.525	6.96
239.743	-0.53
239.962	-1.97
240.18	-2.07
240.398	15.3
240.617	7.59
240.835	-6.52
241.053	-9.36
241.271	-0.9
241.49	-4.09
241.708	30.83
241.926	34.68
242.144	27.02
242.363	38.72
242.581	34.83
242.799	8.41
243.017	11.14
243.235	19.08
243.453	10.62
243.672	15.01
243.89	22.68
244.108	54.71
244.326	66.99
244.544	45.71
244.762	51.5
244.98	43.85
245.198	11.24
245.416	12.96
245.634	25.68
245.852	15.12
246.07	31.83
246.288	59.47
246.506	57.31
246.724	67.44
246.942	63.05
247.16	58.92
247.378	17.4
247.596	13.65
247.814	13.16
248.032	3.67
248.25	4.42
248.468	5.46
248.685	-0.77
248.903	-7.19
249.121	-13.12
249.339	-1.02
249.557	13.67
249.775	24.21
249.992	11.59
250.21	30.91
250.428	33.21
250.646	27.28
250.863	37.93
251.081	47.2
251.299	51.52
251.517	53.94
251.734	72.97
251.952	63.97
252.17	39.61
252.387	24.65
252.605	7.95
252.823	4.89
253.04	30.77
253.258	40.54
253.475	53.55
253.693	55.88
253.911	48.06
254.128	25.09
254.346	21.27
254.563	12.29
254.781	-17.23
254.998	-17.48
255.216	-32.49
255.433	-23.55
255.651	-29.87
255.868	-31.87
256.086	-8.5
256.303	1.74
256.521	6.64
256.738	9.27
256.956	24.31
257.173	23.7
257.39	22.44
257.608	24.7
257.825	34.7
258.043	15.3
258.26	4.14
258.477	7.94
258.695	-8.37
258.912	-22.01
259.129	-1.61
259.346	-11.75
259.564	-20.75
259.781	-10.55
259.998	6.17
260.216	21.85
260.433	37.05
260.65	31.98
260.867	51.36
261.084	50.93
261.302	31.17
261.519	41.93
261.736	42.72
261.953	20.97
262.17	23.79
262.387	23
262.604	-1.38
262.822	-11.17
263.039	1.24
263.256	-12.5
263.473	-12.74
263.69	-6.77
263.907	6.12
264.124	-5.53
264.341	8.78
264.558	20.97
264.775	25.7
264.992	24.81
265.209	13.66
265.426	11.05
265.643	14.57
265.86	5.22
266.077	11.76
266.294	32.8
266.51	28.6
266.727	34.6
266.944	38.7
267.161	31.25
267.378	25.04
267.595	41.68
267.812	34.85
268.028	30.59
268.245	21.03
268.462	9.01
268.679	-4.48
268.896	2.37
269.112	11.34
269.329	22.37
269.546	31.99
269.763	40.92
269.979	36.02
270.196	54.66
270.413	60.87
270.629	64.97
270.846	51.33
271.063	48.68
271.279	27.37
271.496	7.83
271.712	-2.5
271.929	-4.32
272.146	23.24
272.362	23.08
272.579	58.71
272.795	76.83
273.012	80.03
273.228	52.97
273.445	63.94
273.661	43.16
273.878	17.77
274.094	22.54
274.311	33.39
274.527	22.26
274.744	14.36
274.96	22.59
275.177	17
275.393	10.59
275.609	13.27
275.826	12.4
276.042	1.1
276.259	-16.46
276.475	-13.1
276.691	10.87
276.908	21.24
277.124	32.73
277.34	35.14
277.557	39.06
277.773	10.17
277.989	0.62
278.205	2.5
278.422	0.66
278.638	8.45
278.854	50.73
279.07	68.05
279.286	53.73
279.503	61.17
279.719	50.26
279.935	29.83
280.151	15.62
280.367	29.81
280.583	51.54
280.799	52.63
281.016	62.6
281.232	55.81
281.448	49.88
281.664	38.3
281.88	32.45
282.096	33.32
282.312	32.12
282.528	33.75
282.744	-1.74
282.96	5.3
283.176	-28.44
283.392	-15.3
283.608	1.03
283.824	22.92
284.04	20.61
284.256	37.95
284.471	28.6
284.687	16.68
284.903	8.95
285.119	5.56
285.335	-2.52
285.551	6.16
285.767	14.31
285.982	15.14
286.198	19.45
286.414	20.41
286.63	29.25
286.846	28.1
287.061	28.94
287.277	35.32
287.493	39.21
287.709	32.98
287.924	39.19
288.14	40.87
288.356	46.4
288.571	40.34
288.787	25.06
289.003	14.57
289.218	8.63
289.434	6.44
289.65	24.91
289.865	36.02
290.081	21.84
290.296	22.87
290.512	5.96
290.727	-9.97
290.943	4.47
291.159	9.76
291.374	13.8
291.59	20.6
291.805	5.39
292.021	4.22
292.236	7.59
292.451	9.11
292.667	14.5
292.882	31.31
293.098	33.06
293.313	44.31
293.529	46.59
293.744	48.99
293.959	47.3
294.175	48.13
294.39	45.37
294.605	41.83
294.821	38.93
295.036	38.03
295.251	38.01
295.467	30.84
295.682	15.31
295.897	20.65
296.112	22.69
296.328	32.54
296.543	27.51
296.758	38.6
296.973	27.25
297.188	43.47
297.404	13.95
297.619	37.09
297.834	28.44
298.049	32.28
298.264	29.37
298.479	49.27
298.694	41.38
298.909	43.06
299.125	32.47
299.34	21.26
299.555	6.6
299.77	27.63
299.985	23.18
300.2	39.6
300.415	34.79
300.63	33.04
300.845	-3.55
301.06	-10.51
301.275	5.4
301.49	-6.83
301.704	-37.72
301.919	2.48
302.134	22.08
302.349	3.48
302.564	16.17
302.779	28.37
302.994	25.16
303.209	26.83
303.423	25.49
303.638	16.86
303.853	-0.46
304.068	20.35
304.283	16.15
304.497	26.45
304.712	10.62
304.927	26.46
305.142	8.14
305.356	-8.6
305.571	-12.53
305.786	19.73
306	-8.48
306.215	3.45
306.43	26.54
306.644	17.46
306.859	34.52
307.074	63.13
307.288	48.59
307.503	34.81
307.717	35.49
307.932	19.43
308.147	14.48
308.361	5.67
308.576	-7.46
308.79	-3.24
309.005	25.76
309.219	31.55
309.434	41.3
309.648	49.8
309.863	55.2
310.077	24.11
310.292	15.31
310.506	5.57
310.72	7.29
310.935	6.18
311.149	26.1
311.364	38.3
311.578	47.33
311.792	36.78
312.007	30.2
312.221	6.97
312.435	14.64
312.649	-7.89
312.864	-114.36
313.078	-50.86
313.292	-40.26
313.507	-8.64
313.721	4.6
313.935	15.35
314.149	21.85
314.363	29.57
314.578	13.45
314.792	48.39
315.006	66.99
315.22	55.19
315.434	42.76
315.648	44.53
315.862	25.92
316.077	16.67
316.291	13.05
316.505	33
316.719	37.8
316.933	47.64
317.147	36.73
317.361	27.21
317.575	18.92
317.789	-3.94
318.003	-7.35
318.217	9.8
318.431	5.68
318.645	-3.52
318.859	6.88
319.073	-7.99
319.287	-17.19
319.5	-3.01
319.714	16.26
319.928	18.79
320.142	40.42
320.356	39.66
320.57	40.04
320.784	34.19
320.997	17.88
321.211	17.19
321.425	14.65
321.639	9.47
321.853	15.56
322.066	13.86
322.28	1.68
322.494	13.19
322.707	26.71
322.921	17.51
323.135	25.42
323.349	14.25
323.562	-8.31
323.776	-11.84
323.989	-1.69
324.203	20.03
324.417	34.11
324.63	31.11
324.844	26.84
325.057	13.08
325.271	-11.38
325.485	-14.27
325.698	-2.11
325.912	2.82
326.125	5.95
326.339	18.07
326.552	23.13
326.766	18.74
326.979	22.44
327.193	30.71
327.406	35.91
327.619	23.17
327.833	28.49
328.046	35.69
328.26	43.37
328.473	25.08
328.686	38.78
328.9	21.12
329.113	-5.44
329.326	-36.86
329.54	-45.24
329.753	-54.64
329.966	-18.08
330.179	-12.77
330.393	-1.16
330.606	11.45
330.819	24.44
331.032	9.81
331.246	6.93
331.459	-20.88
331.672	-19.1
331.885	-26.89
332.098	-17.06
332.311	2.25
332.525	17.66
332.738	18.97
332.951	18.89
333.164	19.97
333.377	18.15
333.59	20.16
333.803	20.61
334.016	17.19
334.229	15.23
334.442	17.04
334.655	19.38
334.868	9.21
335.081	29.32
335.294	40.83
335.507	41.26
335.72	43.63
335.933	27.4
336.146	21.4
336.359	13.24
336.572	-6.04
336.785	-22.32
336.997	13.53
337.21	10.51
337.423	14.04
337.636	23.49
337.849	22.81
338.062	9.4
338.274	6.31
338.487	2.74
338.7	-14.97
338.913	20.48
339.125	28.07
339.338	30.26
339.551	34.96
339.763	55
339.976	33.11
340.189	41.67
340.402	33.93
340.614	27.53
340.827	20.89
341.039	52.84
341.252	51.78
341.465	46.18
341.677	41.09
341.89	19.97
342.102	6.21
342.315	14.47
342.527	17.5
342.74	17.71
342.952	28.8
343.165	37.35
343.377	22.81
343.59	20.45
343.802	28.53
344.015	28.22
344.227	15.22
344.44	20.06
344.652	29.28
344.864	25.33
345.077	36.96
345.289	30.63
345.502	26.08
345.714	10.1
345.926	0.75
346.139	-23.65
346.351	-17.02
346.563	-0.49
346.775	2.06
346.988	-6.85
347.2	-3.33
347.412	-4.02
347.624	0.16
347.837	-12.67
348.049	-13.45
348.261	-12.71
348.473	11.66
348.685	9.45
348.897	29.15
349.11	39.36
349.322	43.24
349.534	32.33
349.746	22.54
349.958	22.83
350.17	17.67
350.382	32.57
350.594	25.58
350.806	45.93
351.018	30.24
351.23	17.04
351.442	-2.99
351.654	13.8
351.866	-6.77
352.078	13.89
352.29	8.25
352.502	20.91
352.714	18.33
352.926	22.52
353.138	27.49
353.35	46.15
353.561	13.81
353.773	29.84
353.985	39.47
354.197	42.9
354.409	38.53
354.621	48.86
354.832	36.38
355.044	26.1
355.256	27.22
355.468	18.69
355.679	29.61
355.891	33.86
356.103	42.75
356.314	33.58
356.526	46.49
356.738	42.91
356.949	39.28
357.161	37.83
357.373	40.37
357.584	41.26
357.796	38.13
358.008	35.77
358.219	21.33
358.431	0.39
358.642	-12.11
358.854	-18.21
359.065	-2.83
359.277	-5.74
359.488	9.78
359.7	15.88
359.911	19.33
360.123	14.48
360.334	26.43
360.546	19
360.757	17.68
360.969	16.27
361.18	35.57
361.391	34.19
361.603	49.88
361.814	49.5
362.025	47.43
362.237	39.85
362.448	33.53
362.659	22.61
362.871	22.66
363.082	23.69
363.293	14.65
363.504	24.78
363.716	25.57
363.927	22.04
364.138	6.97
364.349	9.38
364.56	16.89
364.772	14.39
364.983	19.87
365.194	35.16
365.405	35.67
365.616	21.55
365.827	29.72
366.038	33.52
366.25	23.49
366.461	27.45
366.672	42.27
366.883	40.96
367.094	18.65
367.305	35.89
367.516	36.24
367.727	30.31
367.938	28.13
368.149	25.37
368.36	12
368.571	17.48
368.781	14.32
368.992	1.34
369.203	22.98
369.414	30.42
369.625	16.67
369.836	18
370.047	21.91
370.258	19.04
370.468	16.55
370.679	15.6
370.89	-3.86
371.101	-1.39
371.312	-8.73
371.522	-0.13
371.733	-5.06
371.944	2.21
372.155	5.02
372.365	1.14
372.576	-4.97
372.787	11.09
372.997	21.85
373.208	21.33
373.419	33.32
373.629	38.99
373.84	36.7
374.05	38.3
374.261	40.54
374.472	23.92
374.682	12.52
374.893	16.41
375.103	18.96
375.314	22.8
375.524	35.14
375.735	46.96
375.945	47.39
376.156	43.68
376.366	29.35
376.577	34.03
376.787	24.48
376.997	20.66
377.208	25.49
377.418	26.84
377.629	24.24
377.839	28.97
378.049	27.66
378.26	20.82
378.47	26.8
378.68	23.71
378.89	23.41
379.101	26.82
379.311	27
379.521	25.58
379.732	19.5
379.942	11.6
380.152	16.49
380.362	16.71
380.572	13.68
380.783	16.71
380.993	24.05
381.203	22.68
381.413	16.22
381.623	19.41
381.833	33.43
382.043	22.72
382.253	16.49
382.463	20.69
382.674	15.43
382.884	11.35
383.094	10.77
383.304	11.56
383.514	8.73
383.724	17.3
383.934	11.5
384.144	13.67
384.353	18.83
384.563	24.48
384.773	22.41
384.983	23.01
385.193	27.04
385.403	18.85
385.613	18.52
385.823	16.41
386.033	17.69
386.242	13.89
386.452	15.83
386.662	15.17
386.872	14.79
387.082	13.94
387.291	13.79
387.501	12.66
387.711	12.7
387.921	11.97
388.13	11.23
388.34	12.08
388.55	12.93
388.759	11.88
388.969	13.76
389.179	11.99
389.388	11.61
389.598	13.56
389.807	12.7
390.017	13.42
390.227	20.33
390.436	22.35
390.646	20.15
390.855	17.73
391.065	16.32
391.274	11.26
391.484	8.59
391.693	7.27
391.903	9.87
392.112	10.93
392.322	11.47
392.531	11.93
392.74	13.07
392.95	14.28
393.159	14.24
393.369	15.34
393.578	15.63
393.787	16.78
393.997	15.31
394.206	14.96
394.415	14.78
394.625	14.34
394.834	13.2
395.043	13.56
395.252	13.85
395.462	13.7
395.671	14.69
395.88	16.27
396.089	16.63
396.298	17.63
396.508	17.22
396.717	16.43
396.926	15.73
397.135	14.93
397.344	13.72
397.553	14.52
397.762	15.13
397.971	14.89
398.181	15.4
398.39	15.66
398.599	15.34
398.808	15.44
399.017	15.87
399.226	15.92
399.435	16.13
399.644	16.29
399.853	15.84
400.062	15.79
400.27	15.93
400.479	15.85
400.688	15.74
400.897	16.17
401.106	16.14
401.315	15.79
401.524	15.91
401.733	15.54
401.941	15.26
402.15	15.34
402.359	15.3
402.568	15.2
402.777	15.21
402.985	15.19
403.194	14.75
403.403	14.57
403.612	14.33
403.82	14.4
404.029	14.14
404.238	14.32
404.446	14.41
404.655	14.38
404.864	14.24
405.072	14.3
405.281	14.16
405.489	14.18
405.698	14.1
405.906	14.17
406.115	14.08
406.324	14.07
406.532	14.06
406.741	14.23
406.949	14.04
407.158	14.13
407.366	13.97
407.574	13.87
407.783	13.74
407.991	13.67
408.2	13.44
408.408	13.43
408.617	13.47
408.825	13.37
409.033	13.51
409.242	13.57
409.45	13.53
409.658	13.39
409.867	13.36
410.075	13.12
410.283	13.07
410.491	13
410.7	13.09
410.908	13.15
411.116	13.4
411.324	13.41
411.533	13.54
411.741	13.58
411.949	13.59
412.157	13.39
412.365	13.38
412.573	13.3
412.781	13.15
412.99	13.04
413.198	13.07
413.406	13.13
413.614	13.12
413.822	13.07
414.03	13.03
414.238	12.93
414.446	12.92
414.654	12.87
414.862	12.83
415.07	12.52
415.278	12.51
415.486	12.35
415.694	12.34
415.902	12.23
416.109	12.41
416.317	12.38
416.525	12.38
416.733	12.23
416.941	12.33
417.149	12.41
417.357	12.42
417.564	12.33
417.772	12.38
417.98	12.42
418.188	12.28
418.395	12.16
418.603	12.13
418.811	12.13
419.019	12.05
419.226	12.35
419.434	12.35
419.642	12.42
419.849	12.5
420.057	12.47
420.265	12.14
420.472	12.09
420.68	12.09
420.887	12.02
421.095	11.86
421.302	11.95
421.51	12.05
421.717	11.95
421.925	11.91
422.132	11.98
422.34	11.71
422.547	11.56
422.755	11.63
422.962	11.62
423.17	11.66
423.377	11.88
423.585	11.96
423.792	11.84
423.999	11.73
424.207	11.72
424.414	11.68
424.621	11.68
424.829	11.75
425.036	11.88
425.243	11.73
425.451	11.64
425.658	11.64
425.865	11.48
426.072	11.26
426.28	11.56
426.487	11.66
426.694	11.71
426.901	11.64
427.108	11.69
427.315	11.32
427.523	11.32
427.73	11.29
427.937	11.63
428.144	11.71
428.351	11.89
428.558	11.82
428.765	11.79
428.972	11.59
429.179	11.53
429.386	11.55
429.593	11.59
429.8	11.78
430.007	11.89
430.214	12.02
430.421	11.99
430.628	11.95
430.835	11.73
431.042	11.66
431.249	11.54
431.456	11.44
431.662	11.63
431.869	11.81
432.076	11.94
432.283	12.14
432.49	12.22
432.697	12.13
432.903	11.93
433.11	11.82
433.317	11.66
433.524	11.73
433.73	11.65
433.937	11.68
434.144	11.6
434.35	11.68
434.557	11.65
434.764	11.62
434.97	11.48
435.177	11.6
435.384	11.41
435.59	11.46
435.797	11.53
436.003	11.56
436.21	11.46
436.416	11.58
436.623	11.51
436.829	11.54
437.036	11.54
437.242	11.62
437.449	11.57
437.655	11.6
437.862	11.59
438.068	11.66
438.275	11.52
438.481	11.41
438.687	11.31
438.894	11.22
439.1	11.13
439.307	11.21
439.513	11.19
439.719	11.14
439.926	11.11
440.132	11.2
440.338	11.38
440.544	11.48
440.751	11.65
440.957	11.78
441.163	11.72
441.369	11.61
441.575	11.58
441.782	11.39
441.988	11.28
442.194	11.38
442.4	11.42
442.606	11.44
442.812	11.55
443.018	11.54
443.224	11.56
443.431	11.45
443.637	11.45
443.843	11.41
444.049	11.48
444.255	11.34
444.461	11.35
444.667	11.24
444.873	11.08
445.079	11.01
445.284	11.15
445.49	11.09
445.696	11.16
445.902	11.2
446.108	11.11
446.314	10.96
446.52	10.99
446.726	11.08
446.931	11.17
447.137	11.26
447.343	11.32
447.549	11.4
447.755	11.2
447.96	11.32
448.166	11.34
448.372	11.29
448.578	11.3
448.783	11.41
448.989	11.45
449.195	11.29
449.4	11.28
449.606	11.26
449.812	11.26
450.017	11.07
450.223	11.18
450.428	11.28
450.634	11.27
450.84	11.3
451.045	11.34
451.251	11.34
451.456	11.32
451.662	11.29
451.867	11.24
452.073	11.16
452.278	11.2
452.483	11.17
452.689	11.21
452.894	11.26
453.1	11.32
453.305	11.25
453.51	11.2
453.716	11.14
453.921	11.14
454.127	11.22
454.332	11.21
454.537	11.15
454.742	11.15
454.948	10.98
455.153	10.89
455.358	11.05
455.563	11.12
455.769	11.12
455.974	11.26
456.179	11.23
456.384	11.02
456.589	11.12
456.795	11.05
457	11.05
457.205	11.22
457.41	11.37
457.615	11.29
457.82	11.39
458.025	11.32
458.23	11.28
458.435	11.19
458.64	11.14
458.845	11.1
459.05	11.06
459.255	10.96
459.46	11.01
459.665	11.13
459.87	11.06
460.075	11.14
460.28	11.07
460.485	11.06
460.69	10.93
460.895	11.03
461.099	11.03
461.304	11.04
461.509	11.04
461.714	11.13
461.919	11.09
462.123	11.17
462.328	11.21
462.533	11.28
462.738	11.26
462.942	11.29
463.147	11.34
463.352	11.52
463.556	11.43
463.761	11.36
463.966	11.39
464.17	11.39
464.375	11.23
464.58	11.28
464.784	11.36
464.989	11.25
465.193	11.24
465.398	11.32
465.602	11.48
465.807	11.54
466.011	11.71
466.216	11.61
466.42	11.51
466.625	11.54
466.829	11.53
467.034	11.54
467.238	11.59
467.443	11.62
467.647	11.41
467.851	11.36
468.056	11.25
468.26	11.25
468.464	11.34
468.669	11.45
468.873	11.48
469.077	11.52
469.282	11.57
469.486	11.5
469.69	11.46
469.894	11.51
470.099	11.56
470.303	11.59
470.507	11.6
470.711	11.63
470.915	11.62
471.119	11.63
471.324	11.64
471.528	11.62
471.732	11.54
471.936	11.54
472.14	11.49
472.344	11.42
472.548	11.49
472.752	11.73
472.956	11.8
473.16	11.8
473.364	11.88
473.568	11.86
473.772	11.79
473.976	11.72
474.18	11.75
474.384	11.63
474.588	11.58
474.792	11.46
474.995	11.46
475.199	11.43
475.403	11.5
475.607	11.45
475.811	11.44
476.015	11.5
476.218	11.42
476.422	11.38
476.626	11.4
476.83	11.32
477.033	11.22
477.237	11.2
477.441	11.08
477.644	11.17
477.848	11.27
478.052	11.21
478.255	11.26
478.459	11.35
478.663	11.34
478.866	11.25
479.07	11.32
479.273	11.26
479.477	11.24
479.681	11.13
479.884	11.1
480.088	10.99
480.291	11.02
480.495	11.05
480.698	11.08
480.901	11.03
481.105	11.13
481.308	11.16
481.512	11.09
481.715	11
481.919	11.12
482.122	11.09
482.325	11.11
482.529	11.16
482.732	11.22
482.935	11.16
483.138	11.14
483.342	11.08
483.545	11.11
483.748	11.08
483.952	11.15
484.155	11.22
484.358	11.21
484.561	11.19
484.764	11.22
484.967	11.27
485.171	11.25
485.374	11.3
485.577	11.39
485.78	11.45
485.983	11.41
486.186	11.42
486.389	11.45
486.592	11.4
486.795	11.41
486.998	11.51
487.201	11.67
487.404	11.86
487.607	12.05
487.81	12.16
488.013	12.24
488.216	12.2
488.419	12.27
488.622	12.31
488.825	12.44
489.028	12.57
489.231	12.83
489.433	13.04
489.636	13.18
489.839	13.37
490.042	13.48
490.245	13.56
490.447	13.58
490.65	13.82
490.853	13.97
491.056	14.19
491.258	14.43
491.461	14.68
491.664	14.87
491.866	15.12
492.069	15.41
492.272	15.66
492.474	15.92
492.677	16.17
492.879	16.46
493.082	16.69
493.285	16.99
493.487	17.23
493.69	17.62
493.892	17.87
494.095	18.21
494.297	18.57
494.5	19.04
494.702	19.27
494.905	19.68
495.107	20.04
495.309	20.4
495.512	20.75
495.714	21.24
495.917	21.63
496.119	22.06
496.321	22.44
496.524	22.88
496.726	23.14
496.928	23.5
497.13	23.85
497.333	24.13
497.535	24.54
497.737	24.95
497.939	25.4
498.142	25.86
498.344	26.34
498.546	26.56
498.748	26.92
498.95	27.22
499.152	27.44
499.355	27.86
499.557	28.27
499.759	28.55
499.961	28.81
500.163	29.16
500.365	29.4
500.567	29.67
500.769	30.03
500.971	30.38
501.173	30.69
501.375	30.9
501.577	31.09
501.779	31.25
501.981	31.34
502.183	31.55
502.385	31.56
502.587	31.59
502.788	31.72
502.99	31.83
503.192	31.84
503.394	31.92
503.596	32.04
503.798	32.08
503.999	32.1
504.201	32.06
504.403	32.1
504.605	32.07
504.806	31.94
505.008	31.97
505.21	32.04
505.411	32.05
505.613	31.93
505.815	31.95
506.016	31.8
506.218	31.52
506.42	31.25
506.621	31.18
506.823	31.02
507.024	30.79
507.226	30.68
507.427	30.61
507.629	30.53
507.83	30.38
508.032	30.32
508.233	30.12
508.435	29.88
508.636	29.75
508.838	29.63
509.039	29.38
509.24	29.24
509.442	29.03
509.643	28.65
509.845	28.41
510.046	28.3
510.247	28.16
510.448	28
510.65	27.91
510.851	27.72
511.052	27.59
511.254	27.37
511.455	27.41
511.656	27.24
511.857	27.11
512.058	26.84
512.26	26.63
512.461	26.19
512.662	26.05
512.863	25.9
513.064	25.73
513.265	25.53
513.466	25.46
513.667	25.32
513.868	25.11
514.069	24.96
514.27	24.94
514.471	24.79
514.672	24.55
514.873	24.43
515.074	24.39
515.275	24.16
515.476	24.06
515.677	23.93
515.878	23.74
516.079	23.5
516.28	23.43
516.481	23.32
516.682	23.33
516.882	23.27
517.083	23.2
517.284	23.08
517.485	23.03
517.686	22.8
517.886	22.79
518.087	22.68
518.288	22.63
518.488	22.49
518.689	22.51
518.89	22.38
519.091	22.37
519.291	22.27
519.492	22.17
519.692	22.07
519.893	22.04
520.094	21.93
520.294	21.85
520.495	21.82
520.695	21.81
520.896	21.73
521.096	21.72
521.297	21.67
521.497	21.54
521.698	21.32
521.898	21.17
522.099	21.02
522.299	20.92
522.499	20.95
522.7	20.93
522.9	20.89
523.101	20.85
523.301	20.83
523.501	20.77
523.702	20.8
523.902	20.81
524.102	20.8
524.302	20.77
524.503	20.67
524.703	20.55
524.903	20.41
525.103	20.26
525.304	20.17
525.504	20.1
525.704	20.09
525.904	20.08
526.104	20.06
526.304	20.08
526.504	20.06
526.705	20.02
526.905	19.98
527.105	20.04
527.305	20.01
527.505	19.95
527.705	19.93
527.905	20
528.105	19.93
528.305	19.81
528.505	19.82
528.705	19.76
528.905	19.65
529.105	19.65
529.304	19.72
529.504	19.69
529.704	19.71
529.904	19.71
530.104	19.68
530.304	19.62
530.503	19.62
530.703	19.6
530.903	19.58
531.103	19.49
531.303	19.47
531.502	19.39
531.702	19.36
531.902	19.32
532.101	19.34
532.301	19.37
532.501	19.38
532.7	19.42
532.9	19.46
533.1	19.51
533.299	19.48
533.499	19.56
533.698	19.48
533.898	19.52
534.097	19.52
534.297	19.59
534.496	19.56
534.696	19.58
534.895	19.59
535.095	19.56
535.294	19.52
535.494	19.5
535.693	19.48
535.892	19.49
536.092	19.44
536.291	19.43
536.491	19.4
536.69	19.45
536.889	19.34
537.088	19.35
537.288	19.29
537.487	19.29
537.686	19.22
537.886	19.3
538.085	19.3
538.284	19.35
538.483	19.34
538.682	19.34
538.882	19.25
539.081	19.31
539.28	19.27
539.479	19.25
539.678	19.28
539.877	19.3
540.076	19.25
540.275	19.27
540.474	19.32
540.673	19.3
540.872	19.28
541.071	19.23
541.27	19.19
541.469	19.23
541.668	19.23
541.867	19.25
542.066	19.32
542.265	19.31
542.464	19.21
542.663	19.33
542.862	19.42
543.06	19.45
543.259	19.56
543.458	19.6
543.657	19.5
543.856	19.48
544.054	19.37
544.253	19.24
544.452	19.24
544.651	19.19
544.849	19.08
545.048	19.09
545.247	19.03
545.445	18.99
545.644	18.94
545.843	18.96
546.041	18.99
546.24	19.11
546.438	19.08
546.637	19.08
546.836	19
547.034	18.94
547.233	18.86
547.431	18.9
547.63	18.95
547.828	19.02
548.027	19
548.225	19.04
548.423	19.05
548.622	19
548.82	19
549.019	19.01
549.217	18.96
549.415	18.94
549.614	18.98
549.812	18.89
550.01	18.99
550.209	19.08
550.407	19.09
550.605	19.15
550.803	19.25
551.002	19.26
551.2	19.21
551.398	19.24
551.596	19.19
551.794	19.2
551.993	19.13
552.191	19.16
552.389	19.13
552.587	19.16
552.785	19.31
552.983	19.46
553.181	19.46
553.379	19.53
553.577	19.53
553.775	19.46
553.973	19.36
554.171	19.39
554.369	19.39
554.567	19.45
554.765	19.46
554.963	19.57
555.161	19.57
555.359	19.71
555.557	19.79
555.755	19.88
555.952	19.85
556.15	20.02
556.348	20
556.546	20.08
556.744	20.14
556.941	20.2
557.139	20.25
557.337	20.39
557.535	20.34
557.732	20.39
557.93	20.5
558.128	20.49
558.325	20.46
558.523	20.47
558.721	20.44
558.918	20.45
559.116	20.56
559.313	20.6
559.511	20.82
559.708	20.87
559.906	20.99
560.104	21.04
560.301	21.13
560.498	21.24
560.696	21.33
560.893	21.4
561.091	21.49
561.288	21.61
561.486	21.58
561.683	21.67
561.88	21.74
562.078	21.86
562.275	21.92
562.473	21.95
562.67	22.02
562.867	22.09
563.064	22.05
563.262	22.07
563.459	22.21
563.656	22.38
563.853	22.43
564.051	22.41
564.248	22.5
564.445	22.53
564.642	22.54
564.839	22.66
565.036	22.84
565.234	22.94
565.431	22.96
565.628	23.02
565.825	22.99
566.022	23.04
566.219	23.01
566.416	23.13
566.613	23.2
566.81	23.33
567.007	23.41
567.204	23.59
567.401	23.65
567.598	23.8
567.795	23.86
567.991	23.97
568.188	24.01
568.385	24.03
568.582	23.97
568.779	24.02
568.976	24.05
569.172	24.13
569.369	24.25
569.566	24.28
569.763	24.33
569.96	24.4
570.156	24.43
570.353	24.36
570.55	24.43
570.746	24.4
570.943	24.38
571.14	24.37
571.336	24.52
571.533	24.44
571.729	24.6
571.926	24.7
572.123	24.77
572.319	24.77
572.516	25.02
572.712	24.96
572.909	24.93
573.105	24.91
573.302	24.89
573.498	24.81
573.695	24.83
573.891	24.87
574.087	24.97
574.284	25.07
574.48	25.17
574.677	25.2
574.873	25.21
575.069	25.23
575.266	25.19
575.462	25.13
575.658	25.29
575.854	25.33
576.051	25.22
576.247	25.23
576.443	25.2
576.639	25.14
576.835	25.09
577.032	25.04
577.228	24.99
577.424	25.05
577.62	24.89
577.816	24.83
578.012	24.97
578.208	24.99
578.404	24.95
578.6	24.96
578.796	25.04
578.993	24.96
579.189	24.88
579.384	24.81
579.58	24.82
579.776	24.77
579.972	24.75
580.168	24.74
580.364	24.7
580.56	24.74
580.756	24.6
580.952	24.59
581.148	24.65
581.343	24.75
581.539	24.72
581.735	24.91
581.931	24.99
582.127	24.92
582.322	24.81
582.518	24.82
582.714	24.62
582.909	24.39
583.105	24.36
583.301	24.37
583.496	24.32
583.692	24.32
583.888	24.38
584.083	24.36
584.279	24.35
584.474	24.33
584.67	24.28
584.866	24.3
585.061	24.26
585.257	24.26
585.452	24.26
585.648	24.22
585.843	24.16
586.039	24.15
586.234	24.03
586.429	23.93
586.625	23.95
586.82	23.92
587.015	23.91
587.211	23.89
587.406	23.91
587.601	23.9
587.797	23.86
587.992	23.83
588.187	23.77
588.383	23.75
588.578	23.82
588.773	23.81
588.968	23.81
589.163	23.91
589.359	23.92
589.554	23.83
589.749	23.88
589.944	23.78
590.139	23.65
590.334	23.67
590.529	23.65
590.724	23.64
590.919	23.65
591.114	23.76
591.309	23.69
591.504	23.8
591.699	23.77
591.894	23.83
592.089	23.83
592.284	23.82
592.479	23.82
592.674	23.9
592.869	24.03
593.064	24.05
593.259	24.08
593.454	24.02
593.648	23.93
593.843	23.99
594.038	24.02
594.233	24.19
594.428	24.26
594.622	24.38
594.817	24.41
595.012	24.43
595.206	24.45
595.401	24.52
595.596	24.6
595.79	24.57
595.985	24.68
596.18	24.69
596.374	24.78
596.569	24.88
596.763	24.97
596.958	25.12
597.153	25.21
597.347	25.29
597.542	25.37
597.736	25.44
597.931	25.32
598.125	25.39
598.319	25.51
598.514	25.65
598.708	25.65
598.903	25.83
599.097	25.98
599.291	26.04
599.486	25.94
599.68	26.08
599.874	26.05
600.069	26.03
600.263	25.96
600.457	25.95
600.651	25.9
600.846	25.95
601.04	25.91
601.234	25.98
601.428	26.08
601.622	26.13
601.817	26.16
602.011	26.24
602.205	26.31
602.399	26.4
602.593	26.46
602.787	26.41
602.981	26.4
603.175	26.31
603.369	26.2
603.563	26.21
603.757	26.27
603.951	26.3
604.145	26.19
604.339	26.23
604.533	26.08
604.727	26.1
604.921	26.08
605.115	26.18
605.309	26.13
605.502	26.14
605.696	26.02
605.89	25.92
606.084	25.92
606.278	25.8
606.471	25.74
606.665	25.73
606.859	25.72
607.053	25.57
607.246	25.45
607.44	25.36
607.634	25.31
607.827	25.23
608.021	25.08
608.214	25.14
608.408	25.21
608.602	25.12
608.795	25.12
608.989	25.13
609.182	25.07
609.376	24.99
609.569	24.91
609.763	24.68
609.956	24.61
610.15	24.37
610.343	24.22
610.537	24.15
610.73	24.14
610.923	24.12
611.117	24.24
611.31	24.26
611.504	24.25
611.697	24.22
611.89	24.09
612.083	23.95
612.277	23.74
612.47	23.55
612.663	23.48
612.856	23.53
613.05	23.52
613.243	23.48
613.436	23.48
613.629	23.34
613.822	23.2
614.015	23.04
614.209	23.01
614.402	22.96
614.595	22.94
614.788	22.82
614.981	22.73
615.174	22.65
615.367	22.62
615.56	22.45
615.753	22.4
615.946	22.32
616.139	22.24
616.332	22.06
616.525	22.06
616.718	21.98
616.911	21.86
617.103	21.87
617.296	21.81
617.489	21.78
617.682	21.78
617.875	21.84
618.067	21.75
618.26	21.72
618.453	21.59
618.646	21.51
618.838	21.36
619.031	21.29
619.224	21.2
619.417	21.26
619.609	21.2
619.802	21.23
619.994	21.17
620.187	21.15
620.38	21.07
620.572	20.96
620.765	20.96
620.957	20.94
621.15	20.89
621.342	20.79
621.535	20.88
621.727	20.89
621.92	20.95
622.112	20.98
622.305	21.05
622.497	21.02
622.69	20.94
622.882	20.8
623.074	20.81
623.267	20.76
623.459	20.66
623.651	20.65
623.844	20.77
624.036	20.61
624.228	20.67
624.42	20.59
624.613	20.6
624.805	20.48
624.997	20.47
625.189	20.32
625.381	20.39
625.574	20.35
625.766	20.33
625.958	20.37
626.15	20.43
626.342	20.37
626.534	20.26
626.726	20.27
626.918	20.3
627.11	20.27
627.302	20.15
627.494	20.08
627.686	20
627.878	19.88
628.07	19.75
628.262	19.85
628.454	19.88
628.646	19.9
628.838	19.94
629.029	19.91
629.221	19.79
629.413	19.74
629.605	19.63
629.797	19.59
629.989	19.64
630.18	19.69
630.372	19.66
630.564	19.71
630.755	19.64
630.947	19.48
631.139	19.37
631.33	19.33
631.522	19.26
631.714	19.22
631.905	19.36
632.097	19.36
632.289	19.34
632.48	19.29
632.672	19.28
632.863	19.09
633.055	19.05
633.246	18.94
633.438	19
633.629	18.93
633.821	18.95
634.012	18.96
634.203	18.98
634.395	18.98
634.586	19.08
634.777	19.13
634.969	19.12
635.16	19.19
635.351	19.05
635.543	19.03
635.734	18.98
635.925	18.92
636.117	18.94
636.308	18.98
636.499	18.9
636.69	18.88
636.881	18.86
637.073	18.89
637.264	18.81
637.455	18.81
637.646	18.75
637.837	18.87
638.028	18.79
638.219	18.82
638.41	18.87
638.601	18.89
638.792	18.79
638.983	18.74
639.174	18.71
639.365	18.53
639.556	18.47
639.747	18.45
639.938	18.52
640.129	18.54
640.32	18.67
640.511	18.69
640.701	18.58
640.892	18.47
641.083	18.41
641.274	18.31
641.465	18.37
641.655	18.43
641.846	18.38
642.037	18.33
642.228	18.32
642.418	18.18
642.609	18.2
642.8	18.22
642.99	18.19
643.181	18.15
643.372	18.25
643.562	18.18
643.753	18.24
643.943	18.38
644.134	18.4
644.324	18.41
644.515	18.38
644.705	18.32
644.896	18.21
645.086	18.09
645.277	18.01
645.467	18.06
645.658	18.02
645.848	17.99
646.038	18.04
646.229	18.03
646.419	17.99
646.61	18.05
646.8	17.98
646.99	17.91
647.18	17.82
647.371	17.75
647.561	17.66
647.751	17.65
647.941	17.71
648.132	17.84
648.322	17.83
648.512	17.78
648.702	17.75
648.892	17.66
649.082	17.63
649.272	17.56
649.462	17.61
649.653	17.64
649.843	17.72
650.033	17.77
650.223	17.81
650.413	17.74
650.603	17.82
650.793	17.81
650.983	17.63
651.172	17.65
651.362	17.6
651.552	17.39
651.742	17.33
651.932	17.32
652.122	17.26
652.312	17.23
652.502	17.21
652.691	17.16
652.881	17.12
653.071	17.09
653.261	16.99
653.45	16.93
653.64	16.76
653.83	16.61
654.019	16.47
654.209	16.47
654.399	16.42
654.588	16.52
654.778	16.45
654.968	16.34
655.157	16.14
655.347	16.04
655.536	15.85
655.726	15.75
655.915	15.67
656.105	15.61
656.294	15.54
656.484	15.38
656.673	15.23
656.863	15.17
657.052	15.09
657.241	14.92
657.431	14.74
657.62	14.69
657.809	14.54
657.999	14.48
658.188	14.31
658.377	14.26
658.567	14.11
658.756	13.92
658.945	13.66
659.134	13.6
659.324	13.48
659.513	13.31
659.702	13.17
659.891	13.1
660.08	12.99
660.269	12.9
660.458	12.94
660.648	12.93
660.837	12.88
661.026	12.7
661.215	12.6
661.404	12.41
661.593	12.2
661.782	12.06
661.971	12.11
662.16	11.96
662.349	11.82
662.538	11.75
662.726	11.65
662.915	11.51
663.104	11.45
663.293	11.44
663.482	11.5
663.671	11.53
663.86	11.45
664.048	11.5
664.237	11.48
664.426	11.42
664.615	11.34
664.803	11.34
664.992	11.19
665.181	11.22
665.369	11.21
665.558	11.15
665.747	11.12
665.935	11.08
666.124	10.9
666.312	10.83
666.501	10.81
666.69	10.74
666.878	10.76
667.067	10.71
667.255	10.66
667.444	10.75
667.632	10.82
667.82	10.82
668.009	10.88
668.197	10.83
668.386	10.68
668.574	10.58
668.762	10.43
668.951	10.56
669.139	10.54
669.327	10.56
669.516	10.64
669.704	10.86
669.892	10.86
670.08	10.9
670.269	10.91
670.457	10.87
670.645	10.78
670.833	10.76
671.021	10.76
671.21	10.76
671.398	10.77
671.586	10.88
671.774	10.77
671.962	10.85
672.15	10.92
672.338	10.95
672.526	11
672.714	11.09
672.902	11.13
673.09	11.27
673.278	11.38
673.466	11.4
673.654	11.58
673.842	11.55
674.03	11.57
674.218	11.59
674.405	11.66
674.593	11.69
674.781	11.75
674.969	11.66
675.157	11.75
675.344	11.7
675.532	11.68
675.72	11.74
675.908	11.88
676.095	11.83
676.283	11.93
676.471	11.99
676.658	12.06
676.846	12.17
677.033	12.27
677.221	12.34
677.409	12.37
677.596	12.5
677.784	12.59
677.971	12.68
678.159	12.8
678.346	12.83
678.534	12.99
678.721	12.83
678.909	12.91
679.096	12.86
679.283	13.04
679.471	12.97
679.658	13.29
679.846	13.38
680.033	13.7
680.22	13.75
680.408	13.73
680.595	13.63
680.782	13.73
680.969	13.59
681.157	13.62
681.344	13.62
681.531	13.8
681.718	13.91
681.905	13.97
682.093	13.96
682.28	14.19
682.467	14.41
682.654	14.37
682.841	14.57
683.028	14.79
683.215	15.02
683.402	15
683.589	15.21
683.776	15.36
683.963	15.51
684.15	15.6
684.337	15.93
684.524	16.22
684.711	16.46
684.898	16.59
685.085	16.71
685.271	16.71
685.458	16.77
685.645	16.93
685.832	17.27
686.019	17.55
686.205	17.86
686.392	18.2
686.579	18.39
686.766	18.55
686.952	18.78
687.139	19.09
687.326	19.24
687.512	19.6
687.699	19.96
687.886	20.38
688.072	20.69
688.259	21.2
688.445	21.49
688.632	21.83
688.818	22.27
689.005	22.6
689.191	23.16
689.378	23.63
689.564	24.17
689.751	24.74
689.937	25.21
690.124	25.5
690.31	25.86
690.496	26.53
690.683	26.84
690.869	27.38
691.055	28.11
691.242	28.89
691.428	29.26
691.614	30.1
691.8	30.9
691.987	31.27
692.173	31.95
692.359	32.71
692.545	33.36
692.731	34.06
692.918	34.81
693.104	35.47
693.29	36.29
693.476	36.98
693.662	37.72
693.848	38.75
694.034	39.26
694.22	39.94
694.406	40.47
694.592	41.11
694.778	41.54
694.964	42.34
695.15	42.81
695.336	43.63
695.522	44.21
695.708	45.18
695.894	46.19
696.08	47.32
696.265	48.16
696.451	49.04
696.637	49.5
696.823	50.25
697.009	50.84
697.194	51.42
697.38	52.07
697.566	52.76
697.751	53.37
697.937	53.89
698.123	54.47
698.308	55.29
698.494	56.18
698.68	56.87
698.865	57.57
699.051	58.39
699.236	59.19
699.422	60.04
699.607	60.72
699.793	61.36
699.978	62.17
700.164	63.1
700.349	63.87
700.535	64.46
700.72	65.31
700.906	65.96
701.091	65.91
701.276	66.36
701.462	67.01
701.647	67.6
701.832	68.19
702.018	69.22
702.203	69.44
702.388	69.96
702.573	70.23
702.759	70.83
702.944	71
703.129	71.57
703.314	71.87
703.499	72.69
703.684	72.35
703.87	72.91
704.055	73.54
704.24	74.45
704.425	74.74
704.61	75.45
704.795	75.66
704.98	75.97
705.165	75.86
705.35	75.94
705.535	76.47
705.72	77.21
705.905	77.44
706.09	77.93
706.275	78.68
706.459	79.06
706.644	79.32
706.829	79.69
707.014	80.51
707.199	80.7
707.384	81.01
707.568	81.2
707.753	81.81
707.938	81.71
708.123	82.38
708.307	82.65
708.492	82.87
708.677	82.83
708.861	82.7
709.046	82.62
709.231	83.12
709.415	83.33
709.6	83.38
709.784	84.08
709.969	84.52
710.153	84.81
710.338	85.18
710.522	86
710.707	86.45
710.891	86.26
711.076	86.46
711.26	86.43
711.445	86.44
711.629	86.47
711.813	86.91
711.998	87.02
712.182	87.38
712.366	87.76
712.551	87.89
712.735	88.29
712.919	88.54
713.103	89.08
713.288	89.19
713.472	89.54
713.656	89.44
713.84	89.54
714.024	89.88
714.208	90.29
714.393	90.23
714.577	90.23
714.761	90.52
714.945	90.33
715.129	90.19
715.313	90.76
715.497	90.97
715.681	91.19
715.865	91.16
716.049	91.12
716.233	90.62
716.417	91.29
716.601	91.46
716.785	91.51
716.968	91.33
717.152	92.35
717.336	91.88
717.52	91.69
717.704	91.53
717.888	91.74
718.071	91.19
718.255	91.75
718.439	91.74
718.622	92.5
718.806	93.21
718.99	93.55
719.174	93.93
719.357	94.34
719.541	94.12
719.724	94.31
719.908	94.23
720.092	94.56
720.275	95.11
720.459	95.3
720.642	95.52
720.826	95.65
721.009	95.63
721.193	95.36
721.376	95.42
721.559	95.56
721.743	95.98
721.926	95.56
722.11	95.33
722.293	95.77
722.476	95.23
722.66	95.24
722.843	95.06
723.026	95.93
723.21	96.31
723.393	95.92
723.576	96.27
723.759	96.66
723.942	96.03
724.126	95.95
724.309	97.53
724.492	96.46
724.675	96.93
724.858	97.64
725.041	97.6
725.224	97.36
725.407	98.12
725.59	98.04
725.774	98.11
725.957	98.4
726.14	98.28
726.322	97.96
726.505	98.01
726.688	98.04
726.871	98
727.054	98.14
727.237	98.61
727.42	99.27
727.603	99.02
727.786	98.56
727.968	98.4
728.151	98.8
728.334	98.52
728.517	98.79
728.699	99.97
728.882	99.81
729.065	99.84
729.248	99.85
729.43	99.02
729.613	98.74
729.796	99.18
729.978	99.78
730.161	99.2
730.343	100.13
730.526	100.45
730.708	101.11
730.891	100.5
731.073	100.42
731.256	99.81
731.438	99.39
731.621	99.19
731.803	99.83
731.986	100.76
732.168	100.87
732.35	100.41
732.533	100.52
732.715	99.52
732.898	98.5
733.08	99.65
733.262	100.58
733.444	100.45
733.627	101.39
733.809	101.6
733.991	101.66
734.173	101.31
734.355	100.42
734.538	100
734.72	100.23
734.902	100.34
735.084	99.83
735.266	100.92
735.448	101.2
735.63	101.89
735.812	101.89
735.994	103.09
736.176	102.83
736.358	102.01
736.54	101.58
736.722	101.19
736.904	100.66
737.086	100.85
737.268	103
737.45	103.88
737.632	103.75
737.814	103.73
737.995	104.18
738.177	102.45
738.359	101.69
738.541	103.3
738.723	104.08
738.904	103.87
739.086	104.54
739.268	104.44
739.449	102.86
739.631	102.17
739.813	101.85
739.994	101.78
740.176	102.32
740.358	102.59
740.539	103.87
740.721	104.34
740.902	104.61
741.084	104.74
741.265	104.43
741.447	104.36
741.628	105.99
741.81	106.11
741.991	105.37
742.172	106.54
742.354	104.42
742.535	103.8
742.717	102.59
742.898	103.26
743.079	103.72
743.261	105.85
743.442	104.93
743.623	106.36
743.804	106.08
743.986	104.61
744.167	103.48
744.348	103.06
744.529	102.87
744.71	104.44
744.891	105.53
745.073	105.79
745.254	106.18
745.435	106.05
745.616	105.15
745.797	103.96
745.978	104.11
746.159	104.68
746.34	104.34
746.521	105.51
746.702	103.93
746.883	102.05
747.064	100.41
747.245	101.16
747.426	101.26
747.606	103.25
747.787	105.6
747.968	107.49
748.149	107.33
748.33	104.98
748.51	104.57
748.691	103.43
748.872	101.73
749.053	100.48
749.233	100.24
749.414	100.11
749.595	101.9
749.775	101.8
749.956	103.03
750.137	103.43
750.317	104.89
750.498	103.93
750.678	105.2
750.859	103.37
751.04	104.64
751.22	102.73
751.4	102.97
751.581	102.24
751.761	103.16
751.942	103.06
752.122	104.59
752.303	102.23
752.483	103.49
752.663	104.43
752.844	103.41
753.024	102.62
753.204	104.65
753.385	101.9
753.565	101.58
753.745	102.39
753.925	103.11
754.106	102.2
754.286	104.63
754.466	104.97
754.646	106.36
754.826	104.91
755.006	105.18
755.187	103.9
755.367	103.35
755.547	102.13
755.727	103.42
755.907	102.52
756.087	101.04
756.267	99.87
756.447	99.32
756.627	98.14
756.807	99.18
756.987	102.12
757.167	102.96
757.346	103.27
757.526	103.55
757.706	103.07
757.886	101.68
758.066	102.58
758.246	101.19
758.425	100.59
758.605	101.72
758.785	102.78
758.965	100.98
759.144	101.11
759.324	101.64
759.504	100.97
759.683	100.95
759.863	102.22
760.043	102.74
760.222	100.67
760.402	99.79
760.581	99.58
760.761	100.02
760.94	100.28
761.12	105.57
761.299	104.2
761.479	103.4
761.658	100.08
761.838	98.66
762.017	96.45
762.197	98.78
762.376	98.75
762.555	102.27
762.735	102.65
762.914	103.63
763.093	104.33
763.273	104.42
763.452	103.54
763.631	104.44
763.81	104.27
763.99	104.3
764.169	104.4
764.348	103.6
764.527	102.37
764.706	101.32
764.885	97.55
765.064	96.59
765.243	96.12
765.423	97.23
765.602	98.02
765.781	100.91
765.96	99.76
766.139	101.27
766.318	100.94
766.497	99.77
766.676	99.07
766.854	102.43
767.033	101.35
767.212	100.3
767.391	99.6
767.57	101.69
767.749	99.21
767.928	100.54
768.106	100.75
768.285	98.95
768.464	94.27
768.643	93.83
768.821	91.91
769	93.1
769.179	94.81
769.357	96.33
769.536	97.23
769.715	98.95
769.893	98.98
770.072	97.61
770.25	98.1
770.429	99.07
770.607	98.88
770.786	98.39
770.964	100.17
771.143	99.72
771.321	99.11
771.5	97.76
771.678	97.38
771.857	99.34
772.035	100.74
772.213	99.36
772.392	98.22
772.57	97.86
772.748	94.55
772.927	96.24
773.105	98.19
773.283	98.31
773.461	100.37
773.64	101.03
773.818	99.12
773.996	96.34
774.174	95.67
774.352	93.88
774.531	94.94
774.709	94.79
774.887	98.27
775.065	99.4
775.243	99
775.421	97.22
775.599	96.41
775.777	95.32
775.955	95.38
776.133	95.45
776.311	97.48
776.489	99.7
776.667	98.42
776.844	102.18
777.022	103.5
777.2	101.96
777.378	98.49
777.556	96.93
777.734	94.73
777.911	94.94
778.089	92.42
778.267	92.18
778.445	91.41
778.622	90.91
778.8	91.18
778.978	93.6
779.155	96.66
779.333	98.36
779.511	95.23
779.688	91.97
779.866	89.32
780.043	84.46
780.221	84.07
780.398	84.71
780.576	86.47
780.753	87.61
780.931	90.28
781.108	90.47
781.286	94.07
781.463	93.36
781.64	93.23
781.818	94.37
781.995	96
782.172	95.7
782.35	94.81
782.527	97.47
782.704	97.42
782.882	96.99
783.059	95.12
783.236	91.81
783.413	88.7
783.59	87.9
783.768	86.63
783.945	85.92
784.122	89.38
784.299	90.11
784.476	89.66
784.653	92.96
784.83	94.99
785.007	93.97
785.184	91.5
785.361	93.12
785.538	91.69
785.715	91.65
785.892	95.17
786.069	96.5
786.246	96.76
786.423	98.45
786.6	96.6
786.776	92.78
786.953	94.04
787.13	94.83
787.307	89.23
787.484	92.85
787.66	93.1
787.837	97.76
788.014	98.89
788.191	102.34
788.367	99.31
788.544	101.39
788.721	98.23
788.897	92.74
789.074	90.11
789.25	88.38
789.427	87.51
789.603	82
789.78	83.89
789.956	90.4
790.133	90.64
790.309	90.28
790.486	93.96
790.662	96.35
790.839	86.27
791.015	83.41
791.192	83.96
791.368	85.64
791.544	79.5
791.721	88.05
791.897	93.99
792.073	95.19
792.249	94.51
792.426	97.92
792.602	96.2
792.778	94.46
792.954	88.82
793.13	89.82
793.307	93.02
793.483	87.77
793.659	88.55
793.835	86.58
794.011	82.81
794.187	76.89
794.363	77.21
794.539	78.07
794.715	82.54
794.891	84.46
795.067	86.77
795.243	88.12
795.419	83.8
795.595	87.95
795.771	85.43
795.947	84.01
796.122	85.07
796.298	84.87
796.474	78.8
796.65	79.08
796.826	81.5
797.001	78.95
797.177	85.74
797.353	89.71
797.529	97.23
797.704	96.22
797.88	101.01
798.056	100.58
798.231	97.44
798.407	93.5
798.582	94.73
798.758	94.25
798.934	92.45
799.109	95.87
799.285	99.67
799.46	96.72
799.636	98.33
799.811	96.01
799.986	95.06
800.162	99.26
800.337	99.96
800.513	94.45
800.688	93.98
800.863	100.58
801.039	92.8
801.214	97.04
801.389	95.47
801.565	92.49
801.74	84.67
801.915	79.82
802.09	75.26
802.265	81.86
802.441	83.74
802.616	80.3
802.791	79.12
802.966	84.63
803.141	83.64
803.316	83.32
803.491	88.97
803.666	94.31
803.841	88.67
804.016	88.28
804.191	88.54
804.366	91.4
804.541	91.32
804.716	93.37
804.891	84.85
805.066	90.17
805.241	83.96
805.416	83.08
805.591	83.92
805.765	89.09
805.94	80.65
806.115	80.4
806.29	78.5
806.464	78.9
806.639	75.71
806.814	74.74
806.989	71.64
807.163	71.13
807.338	69.17
807.512	65.66
807.687	65.93
807.862	69.04
808.036	78.12
808.211	67.2
808.385	72.21
808.56	73.14
808.734	70.59
808.909	59.91
809.083	67.74
809.258	67.19
809.432	71.17
809.606	69.99
809.781	73.02
809.955	72.71
810.13	74.51
810.304	72.07
810.478	71.15
810.652	74.95
810.827	73.34
811.001	73.95
811.175	81.85
811.349	87.85
811.524	74.21
811.698	78.76
811.872	84.51
812.046	69.45
812.22	78.6
812.394	77.85
812.568	89.1
812.742	81.29
812.916	95.45
813.09	82.92
813.264	104.08
813.438	93.4
813.612	95.42
813.786	91.65
813.96	90.93
814.134	92.99
814.308	90.28
814.482	88.31
814.656	99.35
814.83	100.68
815.003	81.49
815.177	87.43
815.351	94.57
815.525	79.03
815.698	92.86
815.872	95.66
816.046	106.68
816.219	102.28
816.393	108.37
816.567	105.74
816.74	101.61
816.914	80.34
817.088	79.13
817.261	78.95
817.435	75.32
817.608	73.32
817.782	77.85
817.955	82.61
818.129	82.73
818.302	77.06
818.475	83.21
818.649	81.48
818.822	73.61
818.996	73.64
819.169	79.42
819.342	82.84
819.516	83.67
819.689	85.72
819.862	87.24
820.035	80.66
820.209	80.85
820.382	83.36
820.555	87.45
820.728	89.83
820.901	94.24
821.075	87.84
821.248	80.97
821.421	78.9
821.594	84.26
821.767	91.62
821.94	92.91
822.113	102.61
822.286	93.49
822.459	81.82
822.632	80.95
822.805	86.19
822.978	78.47
823.151	88.15
823.324	85.2
823.496	74.82
823.669	73.43
823.842	71.99
824.015	74.82
824.188	78.92
824.361	84.56
824.533	80.07
824.706	92.68
824.879	86.84
825.051	83.88
825.224	87.47
825.397	83.27
825.569	77.21
825.742	64.49
825.915	62.28
826.087	55.32
826.26	53.29
826.432	56.09
826.605	76.55
826.777	77.53
826.95	72.79
827.122	79.49
827.295	78.9
827.467	71.07
827.64	63.27
827.812	60.3
827.984	57.22
828.157	42.99
828.329	57.08
828.501	57.54
828.674	71
828.846	62.66
829.018	86.46
829.19	71.55
829.363	73.23
829.535	53.38
829.707	71.51
829.879	55.29
830.051	55.49
830.223	61.45
830.395	68.26
830.568	57.54
830.74	59.9
830.912	71.59
831.084	66.74
831.256	50.42
831.428	71.83
831.6	84.73
831.772	64.78
831.943	66.38
832.115	64.64
832.287	54.9
832.459	54.39
832.631	67.85
832.803	54.85
832.975	58.37
833.146	54.74
833.318	55.03
833.49	68.98
833.662	76.74
833.833	81.39
834.005	95.11
834.177	92.7
834.348	64.41
834.52	74.48
834.692	81.35
834.863	65.37
835.035	59.35
835.206	39.31
835.378	33.07
835.549	34.47
835.721	35
835.892	33.41
836.064	33.62
836.235	39.75
836.407	42.67
836.578	59.69
836.749	83.03
836.921	82.08
837.092	78.02
837.264	74.81
837.435	89.97
837.606	57
837.777	56.31
837.949	65.59
838.12	63.21
838.291	46.65
838.462	58.84
838.633	61.29
838.805	52.67
838.976	58.79
839.147	51.29
839.318	54.4
839.489	61.9
839.66	68.62
839.831	69.01
840.002	82.73
840.173	77.49
840.344	58.93
840.515	37.94
840.686	28.98
840.857	24.15
841.028	12.08
841.199	33.55
841.369	38.7
841.54	64.01
841.711	44.69
841.882	77.3
842.053	70.1
842.223	71.31
842.394	68.54
842.565	89.32
842.736	90.85
842.906	100.89
843.077	130.12
843.248	114.51
843.418	104.62
843.589	117.42
843.759	111.4
843.93	113.39
844.101	109.57
844.271	114.87
844.442	87.89
844.612	82.5
844.783	69.13
844.953	63.13
845.123	57.94
845.294	69.07
845.464	63.5
845.635	43.11
845.805	61.07
845.975	56.35
846.146	27.74
846.316	36.58
846.486	50.53
846.656	48.44
846.827	49.33
846.997	61.59
847.167	58.61
847.337	34
847.507	32.97
847.677	44.5
847.848	79.07
848.018	92.03
848.188	103.58
848.358	101.93
848.528	72.24
848.698	58.31
848.868	40.87
849.038	52.85
849.208	68.5
849.378	80.76
849.548	74.55
849.718	82.87
849.887	90.37
850.057	99.18
850.227	140.9
850.397	100.44
850.567	105.66
850.737	71.73
850.906	33.48
851.076	16.58
851.246	24.06
851.415	37.95
851.585	41.27
851.755	64.31
851.924	74.22
852.094	71.44
852.264	55.4
852.433	62.44
852.603	52.2
852.772	64.45
852.942	51.42
853.111	32.42
853.281	19.92
853.45	11.37
853.62	6.2
853.789	24.6
853.959	56.46
854.128	61.5
854.297	60.2
854.467	58.74
854.636	65.65
854.805	74.77
854.975	101.75
855.144	195.43
855.313	136.7
855.482	159.22
855.652	113.05
855.821	126.86
855.99	119.06
856.159	154.71
856.328	126.67
856.497	127.07
856.667	117.43
856.836	146.31
857.005	103.79
857.174	103.76
857.343	119.62
857.512	37.97
857.681	25.41
857.85	50.63
858.019	52.97
858.188	41.03
858.356	45.06
858.525	56.08
858.694	49.42
858.863	43.66
859.032	115.07
859.201	44.31
859.369	52.68
859.538	56.74
859.707	49.82
859.876	51.6
860.044	79.44
860.213	55.55
860.382	58.37
860.55	72.72
860.719	61.94
860.888	21.09
861.056	32.98
861.225	32.12
861.393	44.68
861.562	37.31
861.73	59.64
861.899	73.4
862.067	69.04
862.236	82.05
862.404	71.11
862.572	84.54
862.741	52.72
862.909	45.81
863.078	26.26
863.246	35.99
863.414	39.91
863.582	59.53
863.751	71.11
863.919	50.93
864.087	79.66
864.255	59.61
864.424	59.15
864.592	31.42
864.76	42.4
864.928	16.42
865.096	-13.81
865.264	-41.65
865.432	-38.16
865.6	-8.32
865.768	-9.97
865.936	13.22
866.104	27.29
866.272	52.48
866.44	55.79
866.608	104.81
866.776	71.15
866.944	191.53
867.112	114.84
867.28	120.67
867.448	48.05
867.615	234.73
867.783	73.71
867.951	65.94
868.119	76.65
868.286	55.95
868.454	-2.19
868.622	-14.54
868.789	-124.04
868.957	-85.4
869.125	-143.63
869.292	-72.39
869.46	-75.01
869.627	-7.8
869.795	-10.81
869.963	5.49
870.13	21.74
870.298	25.23
870.465	36.96
870.632	47.92
870.8	34.07
870.967	-6.66
871.135	6.77
871.302	-69.57
871.469	402.95
871.637	-77.68
871.804	26.65
871.971	-13.01
872.139	27.84
872.306	20.58
872.473	20.57
872.64	13.35
872.807	57.81
872.975	27.1
873.142	111.98
873.309	1759.42
873.476	717.03
873.643	154.21
873.81	130.75
873.977	97.75
874.144	120.88
874.311	83.12
874.478	80.93
874.645	97.28
874.812	87.07
874.979	73.65
875.146	95.36
875.313	124.56
875.48	150.09
875.647	31.27
875.813	230.22
875.98	-208.08
876.147	73.19
876.314	32.98
876.481	29.84
876.647	56.59
876.814	49.88
876.981	70.26
877.147	93.59
877.314	91.44
877.481	115.93
877.647	147.27
877.814	138.48
877.98	125.7
878.147	161.28
878.314	89.91
878.48	40.91
878.647	-2.45
878.813	159.69
878.979	126.87
879.146	114.69
879.312	131.82
879.479	84.61
879.645	68.46
879.811	51.76
879.978	42.15
880.144	35.65
880.31	41.4
880.477	31.76
880.643	41.28
880.809	100.98
880.975	1860.61
881.142	257.82
881.308	413.33
881.474	31.55
881.64	-55.39
881.806	29.28
881.972	68.73
882.138	66.67
882.304	65.21
882.47	79.72
882.636	49.32
882.802	83.36
882.968	190.07
883.134	62.07
883.3	38.92
883.466	51.91
883.632	30.98
883.798	0.37
883.964	-3.47
884.129	10.7
884.295	14.39
884.461	11.77
884.627	63.21
884.793	7.94
884.958	37.33
885.124	50.47
885.29	21.17
885.455	-11.31
885.621	61.15
885.787	13.47
885.952	87.49
886.118	5.42
886.283	-1049.12
886.449	1.26
886.614	94.68
886.78	94.56
886.945	127.91
887.111	100.62
887.276	103.73
887.442	106.15
887.607	19.09
887.773	22.22
887.938	-7.19
888.103	15.2
888.269	-88.57
888.434	-47.91
888.599	-53.87
888.764	-0.71
888.93	-99.29
889.095	-6.56
889.26	31.62
889.425	70.57
889.59	-227.05
889.756	357.76
889.921	102.66
890.086	120.21
890.251	113.14
890.416	49.88
890.581	44.99
890.746	73.49
890.911	93.04
891.076	85.5
891.241	85.2
891.406	88.87
891.571	65.69
891.736	33.46
891.901	2.19
892.065	2.69
892.23	50.71
892.395	90
892.56	119.37
892.725	150.89
892.889	138.26
893.054	55
893.219	12.27
893.384	20.13
893.548	-25.6
893.713	332.1
893.878	66.67
