Data from Ofav_PS_Phys_352_Reflection_1.txt Node
Date: Thu Jul 29 18:18:43 EDT 2021
User: USUARIO
Spectrometer: FLMT01687
Trigger mode: 0
Integration Time (sec): 9.010000E-1
Scans to average: 2
Electric dark correction enabled: true
Nonlinearity correction enabled: false
Boxcar width: 2
XAxis mode: Wavelengths
Number of Pixels in Spectrum: 3648
>>>>>Begin Spectral Data<<<<<
179.494	114.29
179.716	120.27
179.937	121.94
180.158	-711.86
180.38	-0
180.601	-601.57
180.823	-147.37
181.044	-53.95
181.265	-34.74
181.486	-379.66
181.708	152.47
181.929	254.39
182.15	5771.43
182.372	-119.53
182.593	8.93
182.814	22.12
183.035	-218.56
183.257	88.65
183.478	32.69
183.699	73.54
183.92	81.51
184.141	91.28
184.363	89.45
184.584	99.58
184.805	66.87
185.026	59.01
185.247	65.26
185.468	98.75
185.689	79.93
185.91	123
186.132	82.4
186.353	36.36
186.574	53.63
186.795	57.37
187.016	40.48
187.237	33.71
187.458	1.58
187.679	-6.47
187.9	-4.35
188.121	-2.78
188.342	39.93
188.563	72.87
188.784	57.25
189.005	59.47
189.226	61.76
189.447	59.13
189.667	41.5
189.888	64.21
190.109	59.73
190.33	1.41
190.551	-5.96
190.772	31.65
190.993	13.15
191.214	26.44
191.434	38.47
191.655	42.59
191.876	43.59
192.097	40.12
192.318	40.21
192.538	30.97
192.759	46.04
192.98	37.23
193.201	50.59
193.421	59.05
193.642	64.52
193.863	43.94
194.083	22.2
194.304	16.23
194.525	-3.12
194.745	-3.64
194.966	-5.19
195.187	-6.13
195.407	-14.33
195.628	-44.8
195.848	-19.38
196.069	32.69
196.29	34.87
196.51	42.89
196.731	54.64
196.951	56.22
197.172	17.59
197.392	28.68
197.613	11.25
197.833	2.95
198.054	-4.1
198.274	3.55
198.495	8.49
198.715	-9.37
198.936	9.15
199.156	27.46
199.377	37.8
199.597	64.93
199.817	87.18
200.038	79.22
200.258	62.92
200.479	71.32
200.699	25.97
200.919	14.97
201.14	-3.11
201.36	3.35
201.58	10.44
201.801	20.75
202.021	44.19
202.241	60.75
202.461	59.49
202.682	39.89
202.902	47.33
203.122	32.8
203.342	18.23
203.563	21.93
203.783	31.45
204.003	17.03
204.223	-16.44
204.443	3.51
204.663	15.07
204.884	33.18
205.104	15.12
205.324	28.17
205.544	32.76
205.764	35.5
205.984	66.18
206.204	82.33
206.424	71.84
206.644	73.69
206.864	53.15
207.084	1.78
207.304	20.39
207.525	52.09
207.745	57.3
207.964	60.79
208.184	84.53
208.404	18.06
208.624	13.24
208.844	-5.67
209.064	20.67
209.284	14.03
209.504	57.86
209.724	56.75
209.944	66.82
210.164	53.4
210.384	72.32
210.604	76.39
210.823	81.08
211.043	94.25
211.263	90.93
211.483	86.31
211.703	56.33
211.922	53.65
212.142	47.61
212.362	60.81
212.582	51.29
212.801	56.24
213.021	37.23
213.241	37.87
213.461	21.68
213.68	-2.87
213.9	-4.17
214.12	7.2
214.339	-19.49
214.559	-32.44
214.779	-12.11
214.998	-22
215.218	-18.09
215.438	19.02
215.657	26.94
215.877	42.82
216.096	57.05
216.316	70.23
216.535	60.51
216.755	72.82
216.974	-3
217.194	6.47
217.413	44.09
217.633	58.7
217.852	39.33
218.072	50.44
218.291	33.11
218.511	38.73
218.73	17.33
218.95	26.57
219.169	29.77
219.389	26.87
219.608	-0.68
219.827	16.27
220.047	14.75
220.266	8.35
220.485	24.34
220.705	33.56
220.924	13.61
221.143	14.75
221.363	15.15
221.582	-11.71
221.801	-46.27
222.021	0.46
222.24	-5.3
222.459	24.95
222.678	35.3
222.897	34.53
223.117	45.41
223.336	38.77
223.555	19.96
223.774	24.51
223.993	16.87
224.213	5.57
224.432	29.4
224.651	50.81
224.87	34.32
225.089	32.2
225.308	38.03
225.527	43.77
225.746	28.45
225.965	32.68
226.184	44.31
226.404	11.27
226.623	32.45
226.842	17.81
227.061	23.53
227.28	27.31
227.499	70.12
227.718	47.94
227.936	44.61
228.155	58.71
228.374	47.53
228.593	39.7
228.812	27.78
229.031	31.55
229.25	28.35
229.469	31.39
229.688	22.96
229.907	40.83
230.125	36.6
230.344	48.4
230.563	40.07
230.782	41.16
231.001	32.4
231.22	36.74
231.438	19.38
231.657	30.64
231.876	35.65
232.095	33.63
232.313	33.17
232.532	36.4
232.751	31.27
232.969	41.69
233.188	49.76
233.407	56.52
233.625	39.11
233.844	46.06
234.063	28.91
234.281	-8.97
234.5	-40.82
234.719	-34.38
234.937	-49.23
235.156	-66.61
235.374	-5.19
235.593	15.08
235.811	35.84
236.03	37.03
236.249	31.16
236.467	26.2
236.686	31.05
236.904	14.2
237.123	30.93
237.341	7.09
237.559	5.69
237.778	9.77
237.996	24.74
238.215	14.32
238.433	54.24
238.652	52.55
238.87	47.32
239.088	56.65
239.307	47.76
239.525	41.1
239.743	40.71
239.962	35.12
240.18	24.16
240.398	33.72
240.617	10.78
240.835	2.7
241.053	13.16
241.271	13.86
241.49	4.36
241.708	15.84
241.926	32.7
242.144	16.15
242.363	22.99
242.581	16.06
242.799	15.72
243.017	3.87
243.235	14.12
243.453	6.7
243.672	15.35
243.89	14.57
244.108	29.72
244.326	52.83
244.544	44.03
244.762	40.98
244.98	45.56
245.198	23.35
245.416	21.47
245.634	34.63
245.852	52.5
246.07	53.36
246.288	64.78
246.506	63.31
246.724	76.2
246.942	55.68
247.16	56.23
247.378	41.15
247.596	18.77
247.814	2.16
248.032	3.48
248.25	16.1
248.468	25.58
248.685	28.11
248.903	37.92
249.121	21.92
249.339	-9.9
249.557	-1.6
249.775	15.42
249.992	10.25
250.21	35.62
250.428	51.38
250.646	50.31
250.863	45.52
251.081	46.17
251.299	53.79
251.517	58.15
251.734	69.85
251.952	60.21
252.17	45.63
252.387	40.42
252.605	47.03
252.823	20.46
253.04	37.07
253.258	36.07
253.475	30.16
253.693	20.38
253.911	40.27
254.128	37.98
254.346	24.97
254.563	32.67
254.781	16.76
254.998	7.22
255.216	-10.77
255.433	23.4
255.651	10.51
255.868	14.99
256.086	20.64
256.303	34.97
256.521	42.28
256.738	41.46
256.956	47.11
257.173	42.68
257.39	32.29
257.608	16.67
257.825	37.31
258.043	32.78
258.26	35.38
258.477	28.17
258.695	22.69
258.912	8.29
259.129	12.45
259.346	1
259.564	5.74
259.781	13.25
259.998	5.85
260.216	20.12
260.433	42.19
260.65	33.24
260.867	53.51
261.084	65.06
261.302	56.48
261.519	30.4
261.736	48.52
261.953	38.35
262.17	38.95
262.387	35.73
262.604	26.07
262.822	3.36
263.039	-6.43
263.256	-25.67
263.473	-26.32
263.69	-23.37
263.907	-3.17
264.124	8.59
264.341	20.34
264.558	22.04
264.775	12.03
264.992	17.31
265.209	14.87
265.426	12.28
265.643	26.7
265.86	35.44
266.077	31.48
266.294	34.6
266.51	28.32
266.727	26.79
266.944	35.33
267.161	27.72
267.378	25.51
267.595	21.75
267.812	2.38
268.028	-14.42
268.245	-4.71
268.462	-5.06
268.679	15.5
268.896	25.11
269.112	16.75
269.329	12.66
269.546	13.28
269.763	5.28
269.979	17.4
270.196	30.37
270.413	33.03
270.629	39.82
270.846	32.92
271.063	31.75
271.279	39.03
271.496	27.77
271.712	14.65
271.929	29.26
272.146	38.42
272.362	25.12
272.579	61.12
272.795	81.2
273.012	61.72
273.228	51.88
273.445	49.77
273.661	17.68
273.878	6.12
274.094	13.15
274.311	19
274.527	14.08
274.744	31.41
274.96	34.8
275.177	28.66
275.393	24.91
275.609	28.15
275.826	23.86
276.042	23.74
276.259	32.63
276.475	17.99
276.691	26.78
276.908	18.58
277.124	16.75
277.34	7.12
277.557	12.88
277.773	12.68
277.989	16.05
278.205	9.68
278.422	11.09
278.638	-3.13
278.854	-6.83
279.07	16.82
279.286	5.99
279.503	22.25
279.719	36.05
279.935	48.47
280.151	33.74
280.367	45.97
280.583	52.5
280.799	47.24
281.016	46.59
281.232	51.94
281.448	51.93
281.664	56.25
281.88	56.3
282.096	53.46
282.312	45.61
282.528	45.89
282.744	27.75
282.96	40.86
283.176	13.63
283.392	31.87
283.608	35.8
283.824	43.22
284.04	29.53
284.256	40.78
284.471	20.21
284.687	13.07
284.903	-7.86
285.119	27.63
285.335	14.81
285.551	26.48
285.767	32.97
285.982	39.22
286.198	30.59
286.414	29.16
286.63	28.45
286.846	28.08
287.061	26.13
287.277	23.44
287.493	32.06
287.709	35.3
287.924	28.52
288.14	20.49
288.356	36.53
288.571	30.52
288.787	22.19
289.003	18.8
289.218	18.52
289.434	5.27
289.65	14.9
289.865	26.17
290.081	20.79
290.296	32.77
290.512	36.46
290.727	35.87
290.943	26.95
291.159	39.38
291.374	34.18
291.59	24.5
291.805	10.03
292.021	15.63
292.236	15.13
292.451	-18.15
292.667	-23.58
292.882	-1.6
293.098	-2.85
293.313	-3.84
293.529	29.14
293.744	36.28
293.959	27.37
294.175	36.92
294.39	29.08
294.605	32.86
294.821	35.27
295.036	37.48
295.251	28.84
295.467	18.29
295.682	11.15
295.897	4.39
296.112	-2.02
296.328	-2.34
296.543	8.65
296.758	9.88
296.973	17.22
297.188	32.66
297.404	15.81
297.619	39.28
297.834	32.73
298.049	39.67
298.264	35.9
298.479	51.07
298.694	30.89
298.909	39.52
299.125	26.7
299.34	38
299.555	45.9
299.77	55.17
299.985	10.31
300.2	26.53
300.415	10.85
300.63	22.18
300.845	20.19
301.06	49.58
301.275	46.97
301.49	31.83
301.704	-21.21
301.919	7.95
302.134	-0.93
302.349	-5.49
302.564	1.5
302.779	13.63
302.994	-10.82
303.209	-4.04
303.423	5.87
303.638	0.65
303.853	-13.79
304.068	14.13
304.283	7.51
304.497	2.97
304.712	-14.8
304.927	-10.92
305.142	-37.96
305.356	-33.2
305.571	-14.81
305.786	10.62
306	9.61
306.215	36.39
306.43	31.85
306.644	48.08
306.859	63.79
307.074	41.55
307.288	22.04
307.503	41.28
307.717	24.89
307.932	12.17
308.147	9.42
308.361	23.55
308.576	-1.98
308.79	5.16
309.005	35.96
309.219	44.63
309.434	34.65
309.648	48.63
309.863	44.7
310.077	28.66
310.292	25.08
310.506	24.54
310.72	13.62
310.935	2.05
311.149	12.46
311.364	17.45
311.578	12.14
311.792	1.43
312.007	17.47
312.221	16.48
312.435	27.31
312.649	29.39
312.864	65.04
313.078	72.01
313.292	39.24
313.507	54.38
313.721	58.83
313.935	46.8
314.149	45.78
314.363	52.47
314.578	38.25
314.792	49.94
315.006	49.46
315.22	40.05
315.434	39.4
315.648	38.58
315.862	29.58
316.077	34.18
316.291	33.93
316.505	44.7
316.719	57.94
316.933	83.99
317.147	81.97
317.361	65.83
317.575	49.7
317.789	36.66
318.003	15.71
318.217	12.91
318.431	18.69
318.645	20.55
318.859	23.33
319.073	18.92
319.287	3.44
319.5	6.58
319.714	24.51
319.928	26.68
320.142	27.97
320.356	36.56
320.57	36.87
320.784	33.3
320.997	27.81
321.211	31.51
321.425	36.36
321.639	35.85
321.853	30.82
322.066	25.69
322.28	20.28
322.494	18.57
322.707	16.28
322.921	11.01
323.135	-2.02
323.349	1.66
323.562	-17.01
323.776	-8.76
323.989	-3.42
324.203	13.04
324.417	4.77
324.63	23.99
324.844	31.56
325.057	21.24
325.271	13.86
325.485	17.21
325.698	13.82
325.912	4.05
326.125	3.74
326.339	17.73
326.552	27.58
326.766	25.47
326.979	20.93
327.193	31.33
327.406	36.49
327.619	27.03
327.833	35.85
328.046	46.17
328.26	46.1
328.473	36.32
328.686	47.84
328.9	37.98
329.113	10.45
329.326	-9.66
329.54	-50.98
329.753	-45.61
329.966	-22.6
330.179	-14.86
330.393	-12.75
330.606	4.49
330.819	9.98
331.032	-5.24
331.246	2.64
331.459	-11.07
331.672	-6.69
331.885	2.76
332.098	12.04
332.311	34.93
332.525	44.6
332.738	36.83
332.951	10.03
333.164	26.08
333.377	4.89
333.59	11.51
333.803	29.57
334.016	38.08
334.229	13.12
334.442	24.15
334.655	31.56
334.868	14.43
335.081	33.04
335.294	51.58
335.507	54.44
335.72	41.67
335.933	38.76
336.146	44.29
336.359	36.5
336.572	7.82
336.785	9.01
336.997	18.17
337.21	-3.39
337.423	-4.22
337.636	22.15
337.849	23.06
338.062	21.67
338.274	44.53
338.487	45.86
338.7	22.51
338.913	19.26
339.125	22.8
339.338	15.37
339.551	18.63
339.763	20.11
339.976	23.72
340.189	22.81
340.402	5.31
340.614	-5.06
340.827	13.59
341.039	12.87
341.252	7.33
341.465	33.89
341.677	37.41
341.89	24.97
342.102	24.44
342.315	29.41
342.527	15.06
342.74	6.71
342.952	23.02
343.165	24.88
343.377	16.1
343.59	18.03
343.802	25.53
344.015	16.55
344.227	-0.57
344.44	10.17
344.652	31.95
344.864	36.9
345.077	51.2
345.289	72.97
345.502	52.08
345.714	30.98
345.926	9.5
346.139	-31.43
346.351	-15.6
346.563	17.08
346.775	8.15
346.988	15.13
347.2	20.62
347.412	-5.24
347.624	-4.92
347.837	-8.52
348.049	-9.91
348.261	5.53
348.473	32.41
348.685	29.46
348.897	28.45
349.11	36.94
349.322	38.26
349.534	23.52
349.746	23.85
349.958	32.28
350.17	18.55
350.382	28.19
350.594	24.83
350.806	29.58
351.018	24.76
351.23	26.78
351.442	3.02
351.654	28.02
351.866	9.79
352.078	25.68
352.29	20.22
352.502	20.09
352.714	18.6
352.926	31.11
353.138	31.08
353.35	32.15
353.561	41.32
353.773	34.81
353.985	39.95
354.197	26.93
354.409	30
354.621	20.22
354.832	17.37
355.044	15.1
355.256	24
355.468	28
355.679	41.97
355.891	25.99
356.103	20.01
356.314	11.62
356.526	4.44
356.738	-0.9
356.949	-1.82
357.161	6.24
357.373	9.39
357.584	1.37
357.796	1.85
358.008	6.66
358.219	-0.51
358.431	8.85
358.642	21.59
358.854	20.08
359.065	14.01
359.277	0.84
359.488	-1.89
359.7	9.19
359.911	18.96
360.123	15.59
360.334	25.41
360.546	13.47
360.757	3.87
360.969	0.65
361.18	32.85
361.391	36.13
361.603	33.68
361.814	42.61
362.025	38.97
362.237	19.07
362.448	23.01
362.659	25.91
362.871	20.06
363.082	16.67
363.293	24.32
363.504	29.57
363.716	28.16
363.927	27.12
364.138	23.67
364.349	19.95
364.56	16.87
364.772	22.58
364.983	20.75
365.194	22.13
365.405	21.42
365.616	15.48
365.827	16.49
366.038	24.01
366.25	13.2
366.461	8.1
366.672	14.6
366.883	24.91
367.094	13.3
367.305	31.48
367.516	40.77
367.727	34.58
367.938	37.93
368.149	43.76
368.36	44.09
368.571	43.32
368.781	46.12
368.992	31.87
369.203	16.62
369.414	10.02
369.625	2.38
369.836	15.94
370.047	19.01
370.258	27.49
370.468	26.78
370.679	26.46
370.89	2.09
371.101	14.88
371.312	11.58
371.522	9.09
371.733	14.95
371.944	21.45
372.155	1.3
372.365	-6.82
372.576	-4.08
372.787	-7.05
372.997	-9.25
373.208	-10.26
373.419	-5.38
373.629	2.28
373.84	15.86
374.05	16.77
374.261	31.49
374.472	24.55
374.682	3.47
374.893	9.15
375.103	18.83
375.314	6.2
375.524	11.89
375.735	23.83
375.945	17.52
376.156	10.39
376.366	2.21
376.577	3.05
376.787	6.6
376.997	3.8
377.208	-0.28
377.418	5.9
377.629	9.36
377.839	11.7
378.049	12.37
378.26	14.11
378.47	22.13
378.68	19.35
378.89	15.55
379.101	23.77
379.311	27.3
379.521	19.94
379.732	11.15
379.942	6.59
380.152	1.67
380.362	-1.09
380.572	-3.85
380.783	4.26
380.993	14.87
381.203	7.29
381.413	-1.91
381.623	0.75
381.833	10.56
382.043	8.82
382.253	10.31
382.463	13.12
382.674	14.92
382.884	12.18
383.094	3.15
383.304	4.51
383.514	6.82
383.724	18.9
383.934	12.89
384.144	16.41
384.353	15.24
384.563	16.42
384.773	11.56
384.983	13.99
385.193	16.59
385.403	13.49
385.613	17.72
385.823	11.24
386.033	8.95
386.242	5.82
386.452	7.16
386.662	1.96
386.872	6.15
387.082	7.94
387.291	2.92
387.501	4.77
387.711	3.38
387.921	1.55
388.13	1.96
388.34	4.14
388.55	6.23
388.759	7.29
388.969	7.88
389.179	5.46
389.388	5.38
389.598	5.08
389.807	5.08
390.017	3.1
390.227	8.56
390.436	9.75
390.646	7.59
390.855	8.61
391.065	9.55
391.274	6.76
391.484	5.82
391.693	3.79
391.903	2.25
392.112	1.83
392.322	0.98
392.531	1.22
392.74	1.46
392.95	2.1
393.159	3.36
393.369	5.36
393.578	4.95
393.787	5.58
393.997	5.86
394.206	5.65
394.415	4.34
394.625	3.8
394.834	2.97
395.043	1.93
395.252	2.6
395.462	2.62
395.671	3.48
395.88	5.29
396.089	6.32
396.298	5.32
396.508	5.07
396.717	5
396.926	4.04
397.135	2.89
397.344	3.08
397.553	3.58
397.762	3.8
397.971	4.12
398.181	4.84
398.39	4.53
398.599	3.85
398.808	3.56
399.017	3.6
399.226	3.24
399.435	3.41
399.644	4.24
399.853	4.42
400.062	4.56
400.27	4.9
400.479	5.01
400.688	4.48
400.897	4.6
401.106	4.4
401.315	4.21
401.524	4.31
401.733	4.44
401.941	4.34
402.15	4.62
402.359	4.47
402.568	4.31
402.777	4.19
402.985	4.1
403.194	3.73
403.403	3.73
403.612	3.72
403.82	3.79
404.029	3.71
404.238	3.52
404.446	3.61
404.655	3.46
404.864	3.43
405.072	3.42
405.281	3.67
405.489	3.62
405.698	3.65
405.906	3.55
406.115	3.57
406.324	3.53
406.532	3.53
406.741	3.56
406.949	3.67
407.158	3.62
407.366	3.63
407.574	3.61
407.783	3.52
407.991	3.27
408.2	3.34
408.408	3.17
408.617	3.31
408.825	3.35
409.033	3.56
409.242	3.63
409.45	3.68
409.658	3.6
409.867	3.6
410.075	3.52
410.283	3.44
410.491	3.45
410.7	3.39
410.908	3.47
411.116	3.56
411.324	3.55
411.533	3.54
411.741	3.6
411.949	3.48
412.157	3.29
412.365	3.22
412.573	3.25
412.781	3.22
412.99	3.3
413.198	3.41
413.406	3.49
413.614	3.56
413.822	3.58
414.03	3.51
414.238	3.37
414.446	3.53
414.654	3.48
414.862	3.37
415.07	3.13
415.278	3.22
415.486	2.87
415.694	2.93
415.902	2.95
416.109	3.18
416.317	3.2
416.525	3.34
416.733	3.26
416.941	3.4
417.149	3.28
417.357	3.13
417.564	3.08
417.772	2.98
417.98	2.88
418.188	2.93
418.395	2.96
418.603	2.93
418.811	2.99
419.019	3.05
419.226	3.23
419.434	3.22
419.642	3.21
419.849	3.16
420.057	2.98
420.265	2.87
420.472	2.92
420.68	2.94
420.887	2.95
421.095	2.97
421.302	2.93
421.51	2.87
421.717	2.95
421.925	3.03
422.132	2.99
422.34	2.98
422.547	2.82
422.755	2.92
422.962	2.89
423.17	2.89
423.377	3.02
423.585	3.31
423.792	3.15
423.999	3.14
424.207	3.14
424.414	2.88
424.621	2.75
424.829	2.85
425.036	2.83
425.243	2.91
425.451	2.97
425.658	3
425.865	2.84
426.072	2.85
426.28	2.98
426.487	3.19
426.694	3.1
426.901	2.93
427.108	2.9
427.315	2.78
427.523	2.55
427.73	2.65
427.937	2.78
428.144	2.72
428.351	2.77
428.558	2.86
428.765	2.96
428.972	3.03
429.179	3.16
429.386	3.01
429.593	3.08
429.8	3.02
430.007	3.03
430.214	3.21
430.421	3.36
430.628	3.24
430.835	3.24
431.042	3.23
431.249	3.19
431.456	3.02
431.662	3.29
431.869	3.45
432.076	3.49
432.283	3.46
432.49	3.55
432.697	3.36
432.903	3.05
433.11	2.99
433.317	2.88
433.524	3.05
433.73	3.12
433.937	3.29
434.144	3.26
434.35	3.37
434.557	3.15
434.764	3.02
434.97	2.99
435.177	3.12
435.384	3.04
435.59	3.15
435.797	3.18
436.003	3.28
436.21	3.26
436.416	3.29
436.623	3.29
436.829	3.46
437.036	3.38
437.242	3.35
437.449	3.39
437.655	3.46
437.862	3.57
438.068	3.5
438.275	3.52
438.481	3.5
438.687	3.41
438.894	3.39
439.1	3.47
439.307	3.54
439.513	3.59
439.719	3.58
439.926	3.44
440.132	3.57
440.338	3.69
440.544	3.64
440.751	3.6
440.957	3.63
441.163	3.56
441.369	3.46
441.575	3.48
441.782	3.66
441.988	3.76
442.194	3.71
442.4	3.7
442.606	3.81
442.812	3.77
443.018	3.74
443.224	3.88
443.431	3.89
443.637	3.86
443.843	3.9
444.049	3.97
444.255	3.85
444.461	3.89
444.667	3.74
444.873	3.62
445.079	3.54
445.284	3.62
445.49	3.56
445.696	3.73
445.902	3.78
446.108	3.79
446.314	3.81
446.52	3.82
446.726	3.79
446.931	3.82
447.137	3.75
447.343	3.75
447.549	3.72
447.755	3.74
447.96	3.75
448.166	3.78
448.372	3.76
448.578	3.95
448.783	3.97
448.989	4
449.195	3.96
449.4	3.96
449.606	3.84
449.812	3.78
450.017	3.69
450.223	3.82
450.428	3.84
450.634	3.93
450.84	3.95
451.045	4.06
451.251	4.08
451.456	4.1
451.662	4.06
451.867	4.03
452.073	3.99
452.278	3.94
452.483	3.97
452.689	3.98
452.894	3.96
453.1	3.99
453.305	4
453.51	4
453.716	3.94
453.921	4.06
454.127	4.16
454.332	4.05
454.537	4.02
454.742	4.06
454.948	3.92
455.153	3.88
455.358	4.01
455.563	4.05
455.769	3.88
455.974	4.05
456.179	3.94
456.384	3.84
456.589	3.94
456.795	4.16
457	4.17
457.205	4.31
457.41	4.42
457.615	4.28
457.82	4.21
458.025	4.13
458.23	4.11
458.435	4.06
458.64	4.06
458.845	4.09
459.05	4.11
459.255	4.17
459.46	4.15
459.665	4.17
459.87	4.1
460.075	4.18
460.28	4.07
460.485	4.16
460.69	4.21
460.895	4.29
461.099	4.29
461.304	4.35
461.509	4.22
461.714	4.24
461.919	4.22
462.123	4.12
462.328	4.14
462.533	4.36
462.738	4.32
462.942	4.36
463.147	4.47
463.352	4.52
463.556	4.45
463.761	4.44
463.966	4.43
464.17	4.46
464.375	4.35
464.58	4.26
464.784	4.28
464.989	4.27
465.193	4.2
465.398	4.28
465.602	4.41
465.807	4.44
466.011	4.5
466.216	4.49
466.42	4.43
466.625	4.63
466.829	4.72
467.034	4.81
467.238	4.88
467.443	4.93
467.647	4.64
467.851	4.53
468.056	4.46
468.26	4.37
468.464	4.39
468.669	4.53
468.873	4.48
469.077	4.48
469.282	4.54
469.486	4.57
469.69	4.54
469.894	4.64
470.099	4.74
470.303	4.78
470.507	4.78
470.711	4.79
470.915	4.82
471.119	4.76
471.324	4.73
471.528	4.71
471.732	4.77
471.936	4.75
472.14	4.76
472.344	4.84
472.548	4.92
472.752	5.01
472.956	5.04
473.16	5.05
473.364	5.07
473.568	4.97
473.772	4.88
473.976	4.94
474.18	4.96
474.384	4.82
474.588	4.84
474.792	4.79
474.995	4.7
475.199	4.64
475.403	4.76
475.607	4.77
475.811	4.84
476.015	4.87
476.218	4.85
476.422	4.83
476.626	4.83
476.83	4.81
477.033	4.91
477.237	5
477.441	5.01
477.644	5.13
477.848	5.13
478.052	5.07
478.255	5
478.459	5.07
478.663	5.05
478.866	5.06
479.07	5.12
479.273	5.27
479.477	5.26
479.681	5.3
479.884	5.29
480.088	5.18
480.291	5.12
480.495	5.15
480.698	5.12
480.901	5.19
481.105	5.22
481.308	5.19
481.512	5.17
481.715	5.14
481.919	5.17
482.122	5.18
482.325	5.3
482.529	5.27
482.732	5.27
482.935	5.21
483.138	5.25
483.342	5.22
483.545	5.31
483.748	5.33
483.952	5.39
484.155	5.42
484.358	5.35
484.561	5.3
484.764	5.31
484.967	5.27
485.171	5.28
485.374	5.3
485.577	5.28
485.78	5.28
485.983	5.31
486.186	5.29
486.389	5.3
486.592	5.28
486.795	5.35
486.998	5.3
487.201	5.34
487.404	5.42
487.607	5.49
487.81	5.4
488.013	5.47
488.216	5.47
488.419	5.5
488.622	5.53
488.825	5.64
489.028	5.66
489.231	5.62
489.433	5.56
489.636	5.49
489.839	5.44
490.042	5.44
490.245	5.43
490.447	5.43
490.65	5.5
490.853	5.51
491.056	5.49
491.258	5.49
491.461	5.5
491.664	5.44
491.866	5.34
492.069	5.38
492.272	5.3
492.474	5.25
492.677	5.2
492.879	5.32
493.082	5.37
493.285	5.44
493.487	5.48
493.69	5.57
493.892	5.49
494.095	5.42
494.297	5.44
494.5	5.45
494.702	5.44
494.905	5.53
495.107	5.48
495.309	5.55
495.512	5.56
495.714	5.6
495.917	5.54
496.119	5.63
496.321	5.6
496.524	5.66
496.726	5.58
496.928	5.61
497.13	5.6
497.333	5.61
497.535	5.58
497.737	5.65
497.939	5.69
498.142	5.75
498.344	5.85
498.546	5.83
498.748	5.87
498.95	5.88
499.152	5.78
499.355	5.76
499.557	5.83
499.759	5.85
499.961	5.82
500.163	5.9
500.365	5.86
500.567	5.88
500.769	5.87
500.971	5.94
501.173	5.97
501.375	6.03
501.577	6.05
501.779	6.15
501.981	6.13
502.183	6.18
502.385	6.16
502.587	6.1
502.788	6.03
502.99	6.03
503.192	6.02
503.394	6.05
503.596	6.13
503.798	6.1
503.999	6.16
504.201	6.22
504.403	6.25
504.605	6.29
504.806	6.34
505.008	6.38
505.21	6.35
505.411	6.31
505.613	6.25
505.815	6.3
506.016	6.28
506.218	6.3
506.42	6.34
506.621	6.38
506.823	6.34
507.024	6.31
507.226	6.32
507.427	6.37
507.629	6.4
507.83	6.47
508.032	6.56
508.233	6.55
508.435	6.57
508.636	6.64
508.838	6.63
509.039	6.63
509.24	6.71
509.442	6.72
509.643	6.71
509.845	6.75
510.046	6.84
510.247	6.88
510.448	6.93
510.65	6.96
510.851	6.98
511.052	6.94
511.254	6.85
511.455	6.8
511.656	6.78
511.857	6.77
512.058	6.8
512.26	6.86
512.461	6.83
512.662	6.84
512.863	6.83
513.064	6.84
513.265	6.82
513.466	6.9
513.667	6.9
513.868	6.89
514.069	6.85
514.27	6.88
514.471	6.91
514.672	6.92
514.873	6.94
515.074	7.05
515.275	7.12
515.476	7.08
515.677	7.13
515.878	7.31
516.079	7.26
516.28	7.29
516.481	7.33
516.682	7.34
516.882	7.23
517.083	7.25
517.284	7.18
517.485	7.14
517.686	7.12
517.886	7.2
518.087	7.24
518.288	7.28
518.488	7.33
518.689	7.39
518.89	7.3
519.091	7.31
519.291	7.28
519.492	7.36
519.692	7.33
519.893	7.47
520.094	7.47
520.294	7.57
520.495	7.53
520.695	7.62
520.896	7.61
521.096	7.67
521.297	7.68
521.497	7.72
521.698	7.68
521.898	7.64
522.099	7.6
522.299	7.56
522.499	7.6
522.7	7.63
522.9	7.72
523.101	7.77
523.301	7.81
523.501	7.79
523.702	7.89
523.902	7.89
524.102	7.99
524.302	8.04
524.503	8.07
524.703	8
524.903	8.03
525.103	7.97
525.304	7.99
525.504	8.05
525.704	8.05
525.904	8.04
526.104	8.08
526.304	8.05
526.504	8.03
526.705	8.07
526.905	8.08
527.105	8.13
527.305	8.1
527.505	8.14
527.705	8.16
527.905	8.21
528.105	8.19
528.305	8.24
528.505	8.23
528.705	8.33
528.905	8.28
529.105	8.31
529.304	8.37
529.504	8.42
529.704	8.39
529.904	8.49
530.104	8.48
530.304	8.49
530.503	8.47
530.703	8.42
530.903	8.46
531.103	8.46
531.303	8.5
531.502	8.51
531.702	8.57
531.902	8.53
532.101	8.59
532.301	8.6
532.501	8.67
532.7	8.76
532.9	8.82
533.1	8.89
533.299	8.85
533.499	8.87
533.698	8.87
533.898	8.87
534.097	8.88
534.297	8.93
534.496	8.96
534.696	8.99
534.895	9.07
535.095	9.07
535.294	9.14
535.494	9.16
535.693	9.15
535.892	9.16
536.092	9.16
536.291	9.18
536.491	9.19
536.69	9.19
536.889	9.17
537.088	9.21
537.288	9.2
537.487	9.27
537.686	9.34
537.886	9.43
538.085	9.48
538.284	9.52
538.483	9.55
538.682	9.65
538.882	9.72
539.081	9.78
539.28	9.86
539.479	9.85
539.678	9.81
539.877	9.8
540.076	9.81
540.275	9.81
540.474	9.88
540.673	9.93
540.872	9.97
541.071	9.99
541.27	10.07
541.469	10.13
541.668	10.19
541.867	10.25
542.066	10.33
542.265	10.37
542.464	10.41
542.663	10.51
542.862	10.7
543.06	10.87
543.259	11.03
543.458	11.11
543.657	11.16
543.856	11.12
544.054	11.05
544.253	11
544.452	11.04
544.651	11.1
544.849	11.07
545.048	11.14
545.247	11.25
545.445	11.29
545.644	11.29
545.843	11.43
546.041	11.49
546.24	11.45
546.438	11.5
546.637	11.62
546.836	11.64
547.034	11.69
547.233	11.79
547.431	11.82
547.63	11.78
547.828	11.85
548.027	11.92
548.225	11.96
548.423	12.07
548.622	12.2
548.82	12.19
549.019	12.24
549.217	12.22
549.415	12.27
549.614	12.37
549.812	12.4
550.01	12.45
550.209	12.64
550.407	12.73
550.605	12.74
550.803	12.85
551.002	12.94
551.2	12.98
551.398	13.02
551.596	13.11
551.794	13.2
551.993	13.28
552.191	13.41
552.389	13.51
552.587	13.6
552.785	13.7
552.983	13.82
553.181	13.86
553.379	13.96
553.577	14.04
553.775	14.17
553.973	14.19
554.171	14.3
554.369	14.4
554.567	14.59
554.765	14.58
554.963	14.7
555.161	14.76
555.359	14.78
555.557	14.76
555.755	14.93
555.952	15.03
556.15	15.09
556.348	15.18
556.546	15.27
556.744	15.34
556.941	15.39
557.139	15.56
557.337	15.64
557.535	15.69
557.732	15.8
557.93	15.89
558.128	15.92
558.325	16.06
558.523	16.16
558.721	16.21
558.918	16.24
559.116	16.36
559.313	16.4
559.511	16.51
559.708	16.56
559.906	16.66
560.104	16.68
560.301	16.73
560.498	16.85
560.696	16.98
560.893	17.11
561.091	17.25
561.288	17.3
561.486	17.44
561.683	17.5
561.88	17.57
562.078	17.64
562.275	17.8
562.473	17.76
562.67	17.84
562.867	17.89
563.064	17.96
563.262	18.02
563.459	18.1
563.656	18.16
563.853	18.28
564.051	18.31
564.248	18.4
564.445	18.55
564.642	18.61
564.839	18.72
565.036	18.76
565.234	18.81
565.431	18.86
565.628	19
565.825	18.99
566.022	19.05
566.219	19.12
566.416	19.14
566.613	19.08
566.81	19.08
567.007	19.15
567.204	19.19
567.401	19.22
567.598	19.3
567.795	19.33
567.991	19.31
568.188	19.39
568.385	19.41
568.582	19.42
568.779	19.49
568.976	19.59
569.172	19.67
569.369	19.71
569.566	19.82
569.763	19.85
569.96	19.84
570.156	19.78
570.353	19.68
570.55	19.64
570.746	19.65
570.943	19.61
571.14	19.54
571.336	19.73
571.533	19.67
571.729	19.63
571.926	19.74
572.123	19.8
572.319	19.79
572.516	19.88
572.712	19.89
572.909	19.83
573.105	19.85
573.302	19.77
573.498	19.75
573.695	19.89
573.891	19.96
574.087	20
574.284	20.04
574.48	20.08
574.677	19.9
574.873	19.88
575.069	19.87
575.266	19.89
575.462	19.8
575.658	19.91
575.854	19.95
576.051	19.89
576.247	19.84
576.443	19.93
576.639	19.95
576.835	19.87
577.032	19.85
577.228	19.86
577.424	19.78
577.62	19.71
577.816	19.59
578.012	19.64
578.208	19.64
578.404	19.62
578.6	19.57
578.796	19.66
578.993	19.63
579.189	19.51
579.384	19.43
579.58	19.5
579.776	19.49
579.972	19.31
580.168	19.26
580.364	19.23
580.56	19.14
580.756	19.05
580.952	19.03
581.148	19.1
581.343	19.17
581.539	19.15
581.735	19.13
581.931	19.13
582.127	19.13
582.322	19.11
582.518	19.06
582.714	18.96
582.909	18.93
583.105	18.85
583.301	18.72
583.496	18.67
583.692	18.67
583.888	18.7
584.083	18.7
584.279	18.79
584.474	18.8
584.67	18.75
584.866	18.77
585.061	18.71
585.257	18.69
585.452	18.69
585.648	18.67
585.843	18.65
586.039	18.66
586.234	18.56
586.429	18.47
586.625	18.58
586.82	18.53
587.015	18.47
587.211	18.43
587.406	18.39
587.601	18.33
587.797	18.32
587.992	18.25
588.187	18.32
588.383	18.35
588.578	18.43
588.773	18.46
588.968	18.56
589.163	18.56
589.359	18.65
589.554	18.59
589.749	18.56
589.944	18.52
590.139	18.46
590.334	18.37
590.529	18.3
590.724	18.36
590.919	18.35
591.114	18.45
591.309	18.43
591.504	18.58
591.699	18.48
591.894	18.54
592.089	18.41
592.284	18.55
592.479	18.49
592.674	18.54
592.869	18.59
593.064	18.79
593.259	18.75
593.454	18.73
593.648	18.75
593.843	18.77
594.038	18.73
594.233	18.85
594.428	18.91
594.622	18.97
594.817	18.98
595.012	18.97
595.206	18.95
595.401	19.02
595.596	19.06
595.79	19.11
595.985	19.16
596.18	19.14
596.374	19.09
596.569	19.1
596.763	19.2
596.958	19.34
597.153	19.45
597.347	19.63
597.542	19.72
597.736	19.61
597.931	19.56
598.125	19.61
598.319	19.63
598.514	19.63
598.708	19.86
598.903	19.97
599.097	20.04
599.291	20.03
599.486	20.09
599.68	20.06
599.874	20.09
600.069	20.17
600.263	20.19
600.457	20.28
600.651	20.34
600.846	20.34
601.04	20.33
601.234	20.36
601.428	20.47
601.622	20.47
601.817	20.49
602.011	20.47
602.205	20.43
602.399	20.26
602.593	20.29
602.787	20.24
602.981	20.24
603.175	20.29
603.369	20.34
603.563	20.31
603.757	20.28
603.951	20.34
604.145	20.31
604.339	20.35
604.533	20.3
604.727	20.28
604.921	20.22
605.115	20.21
605.309	20.13
605.502	20.06
605.696	20.08
605.89	19.99
606.084	20.05
606.278	20.03
606.471	20.04
606.665	19.97
606.859	19.95
607.053	19.77
607.246	19.73
607.44	19.64
607.634	19.57
607.827	19.51
608.021	19.49
608.214	19.53
608.408	19.59
608.602	19.62
608.795	19.6
608.989	19.58
609.182	19.46
609.376	19.35
609.569	19.2
609.763	19.2
609.956	19.22
610.15	19.13
610.343	19.06
610.537	19.02
610.73	18.86
610.923	18.8
611.117	18.76
611.31	18.73
611.504	18.77
611.697	18.76
611.89	18.57
612.083	18.52
612.277	18.37
612.47	18.24
612.663	18.15
612.856	18.2
613.05	18.14
613.243	18.07
613.436	17.98
613.629	18
613.822	17.88
614.015	17.81
614.209	17.74
614.402	17.67
614.595	17.6
614.788	17.47
614.981	17.38
615.174	17.36
615.367	17.31
615.56	17.18
615.753	17.22
615.946	17.14
616.139	17.05
616.332	17.08
616.525	17.02
616.718	16.94
616.911	16.87
617.103	16.94
617.296	16.87
617.489	16.85
617.682	16.81
617.875	16.79
618.067	16.67
618.26	16.6
618.453	16.59
618.646	16.59
618.838	16.53
619.031	16.45
619.224	16.39
619.417	16.33
619.609	16.16
619.802	16.17
619.994	16.2
620.187	16.16
620.38	16.06
620.572	16.17
620.765	16.19
620.957	16.06
621.15	15.99
621.342	15.97
621.535	15.97
621.727	15.87
621.92	15.88
622.112	15.94
622.305	16.02
622.497	15.84
622.69	15.72
622.882	15.75
623.074	15.73
623.267	15.62
623.459	15.69
623.651	15.79
623.844	15.82
624.036	15.77
624.228	15.79
624.42	15.75
624.613	15.7
624.805	15.59
624.997	15.52
625.189	15.47
625.381	15.47
625.574	15.46
625.766	15.46
625.958	15.46
626.15	15.48
626.342	15.45
626.534	15.38
626.726	15.37
626.918	15.37
627.11	15.29
627.302	15.18
627.494	15.22
627.686	15.15
627.878	15.07
628.07	15.07
628.262	15.09
628.454	15.03
628.646	15.04
628.838	15.06
629.029	14.96
629.221	14.94
629.413	14.9
629.605	14.79
629.797	14.8
629.989	14.85
630.18	14.92
630.372	14.86
630.564	14.9
630.755	14.89
630.947	14.86
631.139	14.63
631.33	14.64
631.522	14.59
631.714	14.53
631.905	14.48
632.097	14.47
632.289	14.54
632.48	14.51
632.672	14.41
632.863	14.38
633.055	14.43
633.246	14.25
633.438	14.19
633.629	14.05
633.821	14.01
634.012	13.88
634.203	13.93
634.395	13.98
634.586	14.18
634.777	14.07
634.969	13.99
635.16	13.94
635.351	13.85
635.543	13.75
635.734	13.8
635.925	13.97
636.117	14
636.308	14.02
636.499	14.02
636.69	14.03
636.881	13.96
637.073	13.93
637.264	13.92
637.455	13.85
637.646	13.79
637.837	13.76
638.028	13.7
638.219	13.63
638.41	13.61
638.601	13.6
638.792	13.57
638.983	13.59
639.174	13.51
639.365	13.37
639.556	13.31
639.747	13.26
639.938	13.3
640.129	13.39
640.32	13.45
640.511	13.4
640.701	13.49
640.892	13.33
641.083	13.19
641.274	13.19
641.465	13.22
641.655	13.04
641.846	13.02
642.037	12.99
642.228	12.92
642.418	12.77
642.609	12.87
642.8	12.82
642.99	12.84
643.181	12.78
643.372	12.9
643.562	12.83
643.753	12.88
643.943	12.87
644.134	12.84
644.324	12.8
644.515	12.73
644.705	12.66
644.896	12.69
645.086	12.71
645.277	12.71
645.467	12.74
645.658	12.7
645.848	12.6
646.038	12.53
646.229	12.49
646.419	12.44
646.61	12.49
646.8	12.57
646.99	12.57
647.18	12.51
647.371	12.47
647.561	12.42
647.751	12.26
647.941	12.19
648.132	12.27
648.322	12.3
648.512	12.24
648.702	12.29
648.892	12.42
649.082	12.39
649.272	12.27
649.462	12.33
649.653	12.41
649.843	12.34
650.033	12.3
650.223	12.26
650.413	12.2
650.603	12.22
650.793	12.22
650.983	12.19
651.172	12.36
651.362	12.23
651.552	12.06
651.742	11.97
651.932	11.89
652.122	11.81
652.312	11.86
652.502	11.81
652.691	11.83
652.881	11.78
653.071	11.68
653.261	11.63
653.45	11.65
653.64	11.48
653.83	11.37
654.019	11.28
654.209	11.19
654.399	11.15
654.588	11.19
654.778	11.24
654.968	11.21
655.157	11.14
655.347	10.92
655.536	10.74
655.726	10.64
655.915	10.58
656.105	10.45
656.294	10.49
656.484	10.47
656.673	10.42
656.863	10.36
657.052	10.28
657.241	10.19
657.431	10.05
657.62	9.89
657.809	9.78
657.999	9.87
658.188	9.79
658.377	9.71
658.567	9.69
658.756	9.54
658.945	9.29
659.134	9.09
659.324	9.05
659.513	8.83
659.702	8.68
659.891	8.66
660.08	8.6
660.269	8.4
660.458	8.35
660.648	8.38
660.837	8.19
661.026	8.13
661.215	8.08
661.404	7.92
661.593	7.69
661.782	7.64
661.971	7.56
662.16	7.49
662.349	7.36
662.538	7.36
662.726	7.21
662.915	7.09
663.104	7.04
663.293	7.04
663.482	7.02
663.671	7.09
663.86	6.93
664.048	6.92
664.237	6.94
664.426	6.84
664.615	6.73
664.803	6.77
664.992	6.63
665.181	6.62
665.369	6.62
665.558	6.57
665.747	6.61
665.935	6.61
666.124	6.48
666.312	6.4
666.501	6.39
666.69	6.31
666.878	6.23
667.067	6.2
667.255	6.21
667.444	6.22
667.632	6.19
667.82	6.25
668.009	6.29
668.197	6.26
668.386	6.27
668.574	6.3
668.762	6.19
668.951	6.27
669.139	6.28
669.327	6.1
669.516	6.14
669.704	6.18
669.892	6.11
670.08	6.18
670.269	6.26
670.457	6.22
670.645	6.16
670.833	6.16
671.021	6.07
671.21	6.21
671.398	6.2
671.586	6.26
671.774	6.35
671.962	6.43
672.15	6.35
672.338	6.42
672.526	6.49
672.714	6.38
672.902	6.37
673.09	6.44
673.278	6.49
673.466	6.6
673.654	6.86
673.842	6.83
674.03	6.88
674.218	6.9
674.405	6.93
674.593	6.91
674.781	7.01
674.969	6.97
675.157	6.98
675.344	6.99
675.532	6.92
675.72	6.96
675.908	7.17
676.095	7.19
676.283	7.28
676.471	7.45
676.658	7.58
676.846	7.61
677.033	7.78
677.221	7.82
677.409	7.72
677.596	7.67
677.784	7.58
677.971	7.63
678.159	7.65
678.346	7.81
678.534	8.02
678.721	8.17
678.909	8.22
679.096	8.3
679.283	8.41
679.471	8.4
679.658	8.67
679.846	8.67
680.033	8.91
680.22	9.03
680.408	9.06
680.595	9
680.782	9.2
680.969	9.05
681.157	9.06
681.344	9.06
681.531	9.12
681.718	9.03
681.905	9
682.093	8.97
682.28	9.18
682.467	9.29
682.654	9.41
682.841	9.63
683.028	9.75
683.215	9.82
683.402	9.8
683.589	9.98
683.776	10.15
683.963	10.25
684.15	10.5
684.337	10.74
684.524	10.84
684.711	10.89
684.898	11.09
685.085	11.1
685.271	11.21
685.458	11.4
685.645	11.57
685.832	11.78
686.019	11.95
686.205	12.19
686.392	12.34
686.579	12.69
686.766	12.91
686.952	13.1
687.139	13.28
687.326	13.5
687.512	13.49
687.699	13.59
687.886	13.82
688.072	14.09
688.259	14.38
688.445	14.83
688.632	15.2
688.818	15.55
689.005	15.85
689.191	16.1
689.378	16.33
689.564	16.71
689.751	17.19
689.937	17.52
690.124	18.03
690.31	18.3
690.496	18.68
690.683	18.88
690.869	19.17
691.055	19.47
691.242	19.96
691.428	20.08
691.614	20.73
691.8	21.16
691.987	21.57
692.173	22.19
692.359	22.84
692.545	23.13
692.731	23.79
692.918	24.29
693.104	24.62
693.29	25.19
693.476	25.61
693.662	26.25
693.848	26.62
694.034	26.85
694.22	27.4
694.406	28.23
694.592	28.53
694.778	29.28
694.964	30.02
695.15	30.54
695.336	30.76
695.522	31.38
695.708	32.05
695.894	32.66
696.08	33.27
696.265	33.95
696.451	34.4
696.637	34.7
696.823	35.6
697.009	36.02
697.194	36.4
697.38	36.94
697.566	37.48
697.751	37.75
697.937	38.43
698.123	39.09
698.308	39.67
698.494	39.93
698.68	40.38
698.865	40.8
699.051	41.26
699.236	41.85
699.422	42.93
699.607	43.46
699.793	43.82
699.978	44.1
700.164	44.7
700.349	45.07
700.535	45.39
700.72	45.91
700.906	47.12
701.091	47.2
701.276	47.48
701.462	48.34
701.647	48.95
701.832	49.24
702.018	50.03
702.203	50.66
702.388	50.86
702.573	51.16
702.759	51.33
702.944	51.68
703.129	52.09
703.314	52.51
703.499	53.1
703.684	53.48
703.87	53.7
704.055	54.11
704.24	54.76
704.425	54.84
704.61	55.07
704.795	55.44
704.98	55.88
705.165	55.93
705.35	56.44
705.535	56.86
705.72	57.38
705.905	57.49
706.09	57.93
706.275	58.53
706.459	58.97
706.644	58.95
706.829	59.41
707.014	59.94
707.199	60.19
707.384	60.27
707.568	61
707.753	61.37
707.938	61.65
708.123	62.22
708.307	62.64
708.492	62.85
708.677	62.89
708.861	62.77
709.046	62.55
709.231	63.02
709.415	63.23
709.6	63.42
709.784	63.79
709.969	64.08
710.153	64.19
710.338	64.32
710.522	65.07
710.707	65.43
710.891	65.9
711.076	66.21
711.26	66.68
711.445	66.22
711.629	66.4
711.813	66.26
711.998	66.13
712.182	66.25
712.366	66.58
712.551	66.83
712.735	67.13
712.919	67.87
713.103	67.91
713.288	68.2
713.472	68.7
713.656	68.82
713.84	68.94
714.024	69.04
714.208	69.86
714.393	69.52
714.577	69.45
714.761	69.7
714.945	70.29
715.129	70.04
715.313	70.81
715.497	71.56
715.681	71.74
715.865	71.5
716.049	71.21
716.233	70.64
716.417	70.46
716.601	70.28
716.785	70.48
716.968	70.98
717.152	71.68
717.336	71.25
717.52	71.3
717.704	71.73
717.888	71.56
718.071	71.47
718.255	72.29
718.439	72.25
718.622	72.08
718.806	72.62
718.99	73
719.174	73.33
719.357	73.89
719.541	74.4
719.724	74.71
719.908	75.03
720.092	75.07
720.275	75.11
720.459	75.05
720.642	75.43
720.826	74.84
721.009	74.8
721.193	75.28
721.376	75.42
721.559	75.27
721.743	76.35
721.926	76.49
722.11	76.41
722.293	76.61
722.476	76.45
722.66	75.71
722.843	75.56
723.026	75.81
723.21	76
723.393	76.28
723.576	76.51
723.759	77.01
723.942	76.55
724.126	76.58
724.309	76.9
724.492	76.97
724.675	77.2
724.858	78.15
725.041	78.19
725.224	78.16
725.407	78.31
725.59	78.48
725.774	78.37
725.957	78.45
726.14	78.67
726.322	78.87
726.505	79.01
726.688	78.81
726.871	79.15
727.054	79.48
727.237	80.12
727.42	80.5
727.603	80.38
727.786	80.22
727.968	79.47
728.151	79.4
728.334	79.52
728.517	80.23
728.699	80.63
728.882	81.38
729.065	80.44
729.248	80.18
729.43	80.04
729.613	80.06
729.796	80.43
729.978	81.83
730.161	81.88
730.343	82.24
730.526	82.46
730.708	82.69
730.891	82.15
731.073	82.2
731.256	82.41
731.438	82.02
731.621	81.87
731.803	82.73
731.986	82.88
732.168	82.4
732.35	83.48
732.533	83.48
732.715	83.1
732.898	83.18
733.08	83.5
733.262	83.13
733.444	83.88
733.627	83.82
733.809	84.03
733.991	84.77
734.173	85.2
734.355	84.17
734.538	84.75
734.72	85.21
734.902	85.44
735.084	85.12
735.266	85.94
735.448	86.28
735.63	85.97
735.812	86.38
735.994	87.37
736.176	87.89
736.358	86.94
736.54	86.58
736.722	85.86
736.904	85.51
737.086	84.85
737.268	85.79
737.45	86.91
737.632	87.08
737.814	87.06
737.995	87.34
738.177	87.17
738.359	86.29
738.541	87.33
738.723	87.27
738.904	87.76
739.086	87.95
739.268	88.44
739.449	87.32
739.631	87.39
739.813	87.57
739.994	88.4
740.176	88.52
740.358	89.38
740.539	90.71
740.721	89.99
740.902	90.23
741.084	91.14
741.265	90.91
741.447	89.76
741.628	91.09
741.81	89.91
741.991	89.28
742.172	90.16
742.354	89.92
742.535	88.8
742.717	88.41
742.898	88.31
743.079	87.77
743.261	88.76
743.442	90.1
743.623	91.44
743.804	91.47
743.986	91.76
744.167	90.93
744.348	90.16
744.529	90.68
744.71	91.27
744.891	90.26
745.073	91.02
745.254	91.22
745.435	90.98
745.616	90.57
745.797	91.67
745.978	92.39
746.159	92.7
746.34	91.1
746.521	91.29
746.702	89.8
746.883	87.96
747.064	86.42
747.245	87.8
747.426	88.4
747.606	88.99
747.787	90.12
747.968	91.76
748.149	91.83
748.33	91.18
748.51	92.05
748.691	90.73
748.872	89.86
749.053	89.08
749.233	88.68
749.414	87.9
749.595	90.05
749.775	90.55
749.956	91.4
750.137	92.27
750.317	93.1
750.498	92.6
750.678	92.54
750.859	90.74
751.04	91.24
751.22	89.99
751.4	89.25
751.581	89.01
751.761	90.92
751.942	90.69
752.122	90.99
752.303	90.34
752.483	92.15
752.663	91.9
752.844	90.57
753.024	91.57
753.204	92.22
753.385	89.91
753.565	89.75
753.745	90.33
753.925	90.57
754.106	90.22
754.286	91.57
754.466	91.27
754.646	92.54
754.826	91.11
755.006	92.96
755.187	93.08
755.367	92.76
755.547	92.7
755.727	94.78
755.907	92.63
756.087	91.47
756.267	91.25
756.447	90.94
756.627	87.55
756.807	87.92
756.987	88.43
757.167	88.61
757.346	87.65
757.526	89.47
757.706	90.45
757.886	89.87
758.066	91.91
758.246	93.28
758.425	91.93
758.605	91.26
758.785	92.63
758.965	89.79
759.144	89.65
759.324	90.51
759.504	92.07
759.683	91.98
759.863	94.18
760.043	92.74
760.222	93.54
760.402	91.65
760.581	90.79
760.761	90
760.94	90.3
761.12	92.58
761.299	92.79
761.479	93.6
761.658	93.31
761.838	93.36
762.017	92.86
762.197	93.94
762.376	93.83
762.555	93.61
762.735	92.53
762.914	91.69
763.093	92.57
763.273	91.23
763.452	90.75
763.631	93.9
763.81	93.81
763.99	92.78
764.169	92.4
764.348	93.32
764.527	90.42
764.706	88.3
764.885	87.64
765.064	89.91
765.243	89.94
765.423	91.26
765.602	93.01
765.781	94.96
765.96	91.25
766.139	91.36
766.318	91.46
766.497	90.1
766.676	89.85
766.854	92.44
767.033	90.79
767.212	91.19
767.391	90.72
767.57	89.76
767.749	89.26
767.928	91.25
768.106	88.27
768.285	87.98
768.464	85.59
768.643	86.03
768.821	84.66
769	86.97
769.179	88.91
769.357	89.69
769.536	89.23
769.715	89.5
769.893	89.36
770.072	87.59
770.25	87.69
770.429	88.6
770.607	88.97
770.786	89.39
770.964	89.66
771.143	90.24
771.321	90
771.5	90.87
771.678	92.08
771.857	93.83
772.035	93.96
772.213	93.44
772.392	92.61
772.57	89.98
772.748	86.83
772.927	86.3
773.105	86.86
773.283	86.29
773.461	86.68
773.64	89.11
773.818	89.48
773.996	88.7
774.174	86.72
774.352	87.3
774.531	86.66
774.709	86.92
774.887	86.14
775.065	87.5
775.243	87.12
775.421	87.8
775.599	86.51
775.777	86.54
775.955	85.47
776.133	85.03
776.311	83.12
776.489	84.4
776.667	83.67
776.844	87.42
777.022	87.94
777.2	88.44
777.378	87.32
777.556	86.92
777.734	86.81
777.911	88.53
778.089	92.34
778.267	90.72
778.445	89.96
778.622	87.04
778.8	84.98
778.978	82.31
779.155	84.9
779.333	86.37
779.511	85.86
779.688	85.98
779.866	84.75
780.043	82.19
780.221	81.62
780.398	81.53
780.576	80.77
780.753	81.83
780.931	83.3
781.108	84.45
781.286	87.86
781.463	87.08
781.64	86.1
781.818	87.84
781.995	87.25
782.172	85.59
782.35	86.14
782.527	87.23
782.704	85.77
782.882	86.02
783.059	84.06
783.236	80.95
783.413	75.96
783.59	72.87
783.768	71.03
783.945	72.59
784.122	77.93
784.299	80.23
784.476	82.89
784.653	85.49
784.83	84.31
785.007	81.84
785.184	81.61
785.361	80.53
785.538	79.28
785.715	82.3
785.892	85.93
786.069	87.4
786.246	89.02
786.423	93.74
786.6	89.53
786.776	86.56
786.953	83.63
787.13	83.43
787.307	78.54
787.484	83.14
787.66	81.1
787.837	87.47
788.014	91.44
788.191	93.82
788.367	93.66
788.544	93.63
788.721	93.11
788.897	88.71
789.074	84.8
789.25	82.43
789.427	85.22
789.603	79.22
789.78	84.18
789.956	94.01
790.133	94.03
790.309	90.87
790.486	95.35
790.662	92.3
790.839	78.45
791.015	74.97
791.192	74.51
791.368	74.83
791.544	68.43
791.721	75.55
791.897	78.83
792.073	77.95
792.249	74.48
792.426	80.36
792.602	77.75
792.778	79.98
792.954	82.16
793.13	83.63
793.307	82.72
793.483	82.32
793.659	78.78
793.835	75.07
794.011	74.67
794.187	72.15
794.363	71.47
794.539	72
794.715	75.14
794.891	77.3
795.067	81.19
795.243	80.49
795.419	82.84
795.595	83.3
795.771	78.66
795.947	73.19
796.122	72.79
796.298	72.21
796.474	68.03
796.65	69.8
796.826	72.39
797.001	73.1
797.177	76.41
797.353	80.85
797.529	83.85
797.704	83.69
797.88	86.27
798.056	83.01
798.231	83.06
798.407	80.44
798.582	80.62
798.758	85.97
798.934	84.39
799.109	85.47
799.285	89.51
799.46	86.56
799.636	81.2
799.811	79.85
799.986	79.23
800.162	79.86
800.337	84.05
800.513	83.41
800.688	81.83
800.863	83.24
801.039	78.07
801.214	77.94
801.389	78.06
801.565	78.78
801.74	77.16
801.915	76.64
802.09	76.76
802.265	78.67
802.441	82.82
802.616	81.48
802.791	82.85
802.966	86
803.141	88.08
803.316	82.05
803.491	81.65
803.666	87.08
803.841	72.79
804.016	69.66
804.191	69.24
804.366	75.93
804.541	71.83
804.716	85.62
804.891	77.95
805.066	83.86
805.241	71.8
805.416	67.35
805.591	70.5
805.765	74.68
805.94	70.53
806.115	78.99
806.29	81.92
806.464	71.63
806.639	71.04
806.814	70.53
806.989	64.76
807.163	59.87
807.338	66.21
807.512	65.85
807.687	72.46
807.862	70.05
808.036	74.48
808.211	61.81
808.385	53.36
808.56	41.31
808.734	43.5
808.909	48.12
809.083	58.18
809.258	63.51
809.432	67.14
809.606	68.99
809.781	62.65
809.955	55.72
810.13	63.32
810.304	64.75
810.478	63.8
810.652	69.75
810.827	75.4
811.001	73.68
811.175	82.22
811.349	83.3
811.524	77.38
811.698	71.83
811.872	77.93
812.046	70.48
812.22	72.08
812.394	70.5
812.568	75.16
812.742	64.59
812.916	66.82
813.09	69.43
813.264	80.58
813.438	78.5
813.612	83.29
813.786	83.14
813.96	77.38
814.134	67.25
814.308	59.99
814.482	62.98
814.656	75.11
814.83	79.97
815.003	88.54
815.177	95.82
815.351	101.64
815.525	87.85
815.698	87.79
815.872	78.75
816.046	88.75
816.219	72.47
816.393	66.79
816.567	79.8
816.74	90.16
816.914	67.06
817.088	82.54
817.261	77.76
817.435	67.74
817.608	65.93
817.782	74.6
817.955	70.12
818.129	74.8
818.302	72.73
818.475	66.25
818.649	77.81
818.822	79.81
818.996	80.29
819.169	80.65
819.342	79.61
819.516	64.2
819.689	67.39
819.862	65.09
820.035	63.83
820.209	63.76
820.382	54.91
820.555	33.93
820.728	39.09
820.901	36.21
821.075	41.13
821.248	49.96
821.421	57.06
821.594	61.93
821.767	68.33
821.94	77.12
822.113	82.91
822.286	68.42
822.459	64.35
822.632	53.49
822.805	40.89
822.978	58.83
823.151	92.39
823.324	83.46
823.496	95.02
823.669	92.77
823.842	82.54
824.015	78
824.188	85.27
824.361	90.08
824.533	80.17
824.706	84.05
824.879	74.17
825.051	62.58
825.224	49.95
825.397	49.42
825.569	42.48
825.742	49.35
825.915	49.24
826.087	53.72
826.26	52.84
826.432	54.05
826.605	59.54
826.777	66.99
826.95	58.73
827.122	71.7
827.295	88.38
827.467	84.87
827.64	76.54
827.812	90.79
827.984	91.94
828.157	60.15
828.329	70.28
828.501	75.43
828.674	71.61
828.846	63.68
829.018	62.97
829.19	42.39
829.363	35.16
829.535	19.94
829.707	33.98
829.879	43.38
830.051	56.16
830.223	59.3
830.395	63.46
830.568	52.01
830.74	58.19
830.912	51.69
831.084	62.97
831.256	51.77
831.428	67.85
831.6	57.14
831.772	60.96
831.943	32.43
832.115	37.34
832.287	28.27
832.459	42.81
832.631	49.63
832.803	47.04
832.975	64.61
833.146	80.56
833.318	75.9
833.49	76.51
833.662	81.87
833.833	80.16
834.005	75.75
834.177	64.79
834.348	68.75
834.52	71.02
834.692	69.57
834.863	65.34
835.035	68.47
835.206	58.37
835.378	67.39
835.549	64.02
835.721	68.08
835.892	73.11
836.064	85.3
836.235	84.78
836.407	81.12
836.578	77.32
836.749	79.44
836.921	57.5
837.092	51.17
837.264	46.25
837.435	57.25
837.606	41.25
837.777	38.14
837.949	53.52
838.12	52.68
838.291	53.68
838.462	78.86
838.633	82.13
838.805	84
838.976	95.06
839.147	91.65
839.318	66.26
839.489	67.25
839.66	56.09
839.831	43.92
840.002	40.89
840.173	41.96
840.344	22.86
840.515	18.02
840.686	30.03
840.857	34.6
841.028	17.81
841.199	61.54
841.369	68.14
841.54	79.69
841.711	76.46
841.882	114.15
842.053	73.11
842.223	67.39
842.394	64.09
842.565	80.04
842.736	91.49
842.906	94.2
843.077	93.76
843.248	109.06
843.418	81.8
843.589	59.7
843.759	75.1
843.93	84.66
844.101	61.71
844.271	86.77
844.442	81.4
844.612	79.07
844.783	75.03
844.953	75.93
845.123	59.64
845.294	78.46
845.464	91.13
845.635	60.17
845.805	71.91
845.975	66.51
846.146	43.9
846.316	36.11
846.486	53.07
846.656	53.77
846.827	57.42
846.997	63.31
847.167	63.7
847.337	31.63
847.507	15.31
847.677	23.91
847.848	27.78
848.018	42.42
848.188	58.17
848.358	82.89
848.528	35.37
848.698	35.6
848.868	25.72
849.038	7.13
849.208	2.09
849.378	50.13
849.548	60.91
849.718	69.26
849.887	104.69
850.057	112.59
850.227	165.61
850.397	126.95
850.567	113.4
850.737	64.47
850.906	47.77
851.076	40.56
851.246	40.81
851.415	48.92
851.585	36.58
851.755	39.64
851.924	57.75
852.094	42
852.264	36.91
852.433	58.38
852.603	58.24
852.772	34.33
852.942	40.97
853.111	28.97
853.281	20.9
853.45	17.12
853.62	27.11
853.789	12.67
853.959	26.88
854.128	28.1
854.297	32.92
854.467	27.49
854.636	43.64
854.805	65.28
854.975	105.78
855.144	138.26
855.313	87.54
855.482	91.55
855.652	55
855.821	66.43
855.99	87.04
856.159	123.37
856.328	106.79
856.497	106.43
856.667	93.28
856.836	101.19
857.005	98.07
857.174	187.33
857.343	163.38
857.512	156.05
857.681	47.35
857.85	47.75
858.019	38.19
858.188	42.15
858.356	64
858.525	65.24
858.694	56.24
858.863	56.58
859.032	118.32
859.201	50.57
859.369	65.21
859.538	73.75
859.707	70.5
859.876	55.06
860.044	63.26
860.213	54.44
860.382	65.24
860.55	79.7
860.719	119.41
860.888	71.25
861.056	64.53
861.225	35.92
861.393	20.64
861.562	-8.34
861.73	30.36
861.899	41.92
862.067	41.15
862.236	91.04
862.404	82.32
862.572	86.7
862.741	90.76
862.909	127.56
863.078	86.17
863.246	86.24
863.414	88.23
863.582	86.33
863.751	77.49
863.919	62.84
864.087	80.8
864.255	56.84
864.424	61.83
864.592	43.91
864.76	57.42
864.928	71.67
865.096	82.47
865.264	66.72
865.432	60.05
865.6	37.73
865.768	14.78
865.936	4.48
866.104	18.07
866.272	69.79
866.44	97.89
866.608	124.57
866.776	92.66
866.944	151.03
867.112	54.13
867.28	57.35
867.448	69.52
867.615	182.33
867.783	35.23
867.951	39.49
868.119	37.3
868.286	47.49
868.454	62.97
868.622	67.77
868.789	54.32
868.957	39.2
869.125	-7.15
869.292	-53.4
869.46	-46.47
869.627	-8.99
869.795	-13.26
869.963	-9.41
870.13	18.5
870.298	31.43
870.465	11.64
870.632	26.82
870.8	31.45
870.967	-22.16
871.135	-48.4
871.302	50.54
871.469	17.7
871.637	88.5
871.804	117.04
871.971	81.79
872.139	46.86
872.306	51.96
872.473	35.63
872.64	31.06
872.807	63.96
872.975	117.58
873.142	102.09
873.309	2573.91
873.476	756.83
873.643	149.53
873.81	77.05
873.977	61.35
874.144	67.77
874.311	32.91
874.478	23.25
874.645	29.28
874.812	45.73
874.979	31.98
875.146	57.56
875.313	70.16
875.48	98.4
875.647	-148.67
875.813	533.33
875.98	-763.64
876.147	173.43
876.314	59.79
876.481	-11.25
876.647	-23.86
876.814	20.37
876.981	-4.62
877.147	56.43
877.314	59.53
877.481	70.15
877.647	62.41
877.814	57.99
877.98	21.07
878.147	-24.3
878.314	-62.75
878.48	-67.26
878.647	16.41
878.813	93.02
878.979	211.82
879.146	182.5
879.312	233.27
879.479	116.02
879.645	100.6
879.811	76.03
879.978	67.12
880.144	64.44
880.31	61.42
880.477	37.91
880.643	9.94
880.809	-71.85
880.975	-7454.55
881.142	920.35
881.308	2192
881.474	-57.61
881.64	50.76
881.806	59.33
881.972	69.1
882.138	58.79
882.304	97.4
882.47	120.71
882.636	15.42
882.802	89.11
882.968	243.14
883.134	86.34
883.3	52.79
883.466	121.88
883.632	159.74
883.798	120.16
883.964	139.98
884.129	273.72
884.295	163.98
884.461	111.81
884.627	111.32
884.793	120.06
884.958	115.02
885.124	75.98
885.29	54.77
885.455	42.82
885.621	14.81
885.787	-110.49
885.952	83.29
886.118	53.59
886.283	-210.53
886.449	85.18
886.614	125.25
886.78	87.29
886.945	109.37
887.111	64.39
887.276	55.37
887.442	76.45
887.607	43.86
887.773	50.4
887.938	87.56
888.103	89.51
888.269	56.14
888.434	29.94
888.599	16.13
888.764	17.14
888.93	-8.54
889.095	-20.78
889.26	-13.29
889.425	-79.53
889.59	144.93
889.756	161.83
889.921	121.21
890.086	142.35
890.251	174.03
890.416	82.99
890.581	73.81
890.746	94.77
890.911	66.59
891.076	66.96
891.241	103.1
891.406	89.56
891.571	67.94
891.736	64.29
891.901	65.63
892.065	42.65
892.23	11.74
892.395	53.43
892.56	121.53
892.725	113.92
892.889	91.61
893.054	61.82
893.219	32.64
893.384	9.43
893.548	-42.59
893.713	292.59
893.878	56.8
