Data from Ofav_PS_Phys_358_Reflection_3.txt Node
Date: Thu Jul 29 18:25:23 EDT 2021
User: USUARIO
Spectrometer: FLMT01687
Trigger mode: 0
Integration Time (sec): 9.010000E-1
Scans to average: 2
Electric dark correction enabled: true
Nonlinearity correction enabled: false
Boxcar width: 2
XAxis mode: Wavelengths
Number of Pixels in Spectrum: 3648
>>>>>Begin Spectral Data<<<<<
179.494	251.43
179.716	287.84
179.937	169.98
180.158	-603.39
180.38	-10.11
180.601	-355.91
180.823	-43.34
181.044	13.1
181.265	0.99
181.486	-108.47
181.708	115.47
181.929	164.02
182.15	2857.14
182.372	1.88
182.593	13.95
182.814	-8.97
183.035	-404.12
183.257	113.87
183.478	84.76
183.699	78.73
183.92	55.64
184.141	58.82
184.363	50.28
184.584	56.09
184.805	41.55
185.026	61.75
185.247	65.48
185.468	73.82
185.689	108.16
185.91	186.53
186.132	204.29
186.353	138.62
186.574	122.67
186.795	127.63
187.016	117.67
187.237	98.11
187.458	114.59
187.679	118.14
187.9	91.12
188.121	105.64
188.342	102.81
188.563	83.28
188.784	83.43
189.005	81.52
189.226	73.97
189.447	89.68
189.667	98.37
189.888	102.21
190.109	118.16
190.33	186.24
190.551	103.09
190.772	77.64
190.993	37.14
191.214	30.14
191.434	42.63
191.655	50.17
191.876	67.96
192.097	90.57
192.318	88.72
192.538	60.89
192.759	60.75
192.98	43.89
193.201	67.14
193.421	56.24
193.642	60.97
193.863	53.58
194.083	39.47
194.304	7.78
194.525	25.47
194.745	24.67
194.966	8.26
195.187	33.26
195.407	31.15
195.628	-12.11
195.848	43.35
196.069	98.89
196.29	76.12
196.51	68.21
196.731	81.84
196.951	46.94
197.172	20.34
197.392	12.87
197.613	41.82
197.833	33.36
198.054	19.69
198.274	39.97
198.495	56.85
198.715	31.16
198.936	46.85
199.156	84.52
199.377	94.63
199.597	78.45
199.817	77.67
200.038	73.66
200.258	77.32
200.479	55.89
200.699	60.31
200.919	66.03
201.14	55.48
201.36	54.72
201.58	59.92
201.801	68.47
202.021	52.11
202.241	64.79
202.461	59.22
202.682	47.28
202.902	53.6
203.122	79.12
203.342	111.68
203.563	106.81
203.783	105.78
204.003	90.52
204.223	116.08
204.443	45.58
204.663	54.56
204.884	48.7
205.104	53.42
205.324	39.66
205.544	61.06
205.764	61.23
205.984	83.23
206.204	105.46
206.424	108.3
206.644	90.55
206.864	95.73
207.084	56.12
207.304	45.34
207.525	48
207.745	70.35
207.964	64.02
208.184	75.14
208.404	55.32
208.624	59.03
208.844	69.45
209.064	50.31
209.284	52.06
209.504	59.22
209.724	55.25
209.944	52.18
210.164	57.57
210.384	47.45
210.604	30.88
210.823	19.84
211.043	9.6
211.263	38.85
211.483	45.76
211.703	61.52
211.922	59.08
212.142	61.88
212.362	48.46
212.582	46.56
212.801	46.36
213.021	31.69
213.241	28.3
213.461	23.35
213.68	-15.64
213.9	11.21
214.12	29.51
214.339	27.64
214.559	22.95
214.779	74.58
214.998	52.06
215.218	49.66
215.438	77.32
215.657	75.18
215.877	72.78
216.096	69.27
216.316	69.64
216.535	54.73
216.755	18.2
216.974	-28.19
217.194	-14.67
217.413	21.88
217.633	29.23
217.852	23.18
218.072	31.73
218.291	28.41
218.511	51.82
218.73	38.9
218.95	48.98
219.169	41.73
219.389	29.87
219.608	4.45
219.827	13.09
220.047	26.43
220.266	31.87
220.485	54.02
220.705	50.35
220.924	32.45
221.143	24.08
221.363	5.6
221.582	3.99
221.801	-12.88
222.021	42.97
222.24	27.75
222.459	40.47
222.678	36.21
222.897	44.8
223.117	31.48
223.336	30.08
223.555	48.41
223.774	57.19
223.993	37.1
224.213	50.15
224.432	36.96
224.651	36.75
224.87	28.47
225.089	42.23
225.308	41.28
225.527	64.47
225.746	48.8
225.965	47.56
226.184	48.64
226.404	45.43
226.623	47.45
226.842	45.93
227.061	65.42
227.28	54.37
227.499	50.68
227.718	43.24
227.936	53.31
228.155	35.86
228.374	16.24
228.593	34.59
228.812	37.33
229.031	45.59
229.25	53.06
229.469	69.39
229.688	66.48
229.907	79.97
230.125	69.03
230.344	78.92
230.563	88.61
230.782	105.72
231.001	62.44
231.22	95.89
231.438	64.7
231.657	51.58
231.876	45.29
232.095	54.93
232.313	33.9
232.532	37.42
232.751	45.6
232.969	28.81
233.188	40.79
233.407	36.05
233.625	43.91
233.844	39.71
234.063	38.05
234.281	6.25
234.5	6.05
234.719	23
234.937	0.54
235.156	5.7
235.374	33.75
235.593	52.51
235.811	58.17
236.03	39.94
236.249	38.3
236.467	37.07
236.686	30.06
236.904	7.82
237.123	27.82
237.341	27.05
237.559	27.59
237.778	40.59
237.996	64.01
238.215	73.2
238.433	81.9
238.652	80.83
238.87	64.29
239.088	63.69
239.307	51.59
239.525	49.54
239.743	43.63
239.962	52.28
240.18	42.18
240.398	53.05
240.617	22.2
240.835	19.28
241.053	38.22
241.271	51.2
241.49	36.26
241.708	63.91
241.926	60.73
242.144	31.21
242.363	35.77
242.581	24.93
242.799	15.93
243.017	37.56
243.235	39.13
243.453	33.17
243.672	35.14
243.89	32.3
244.108	30.71
244.326	52.83
244.544	40.49
244.762	50.98
244.98	73.24
245.198	81.72
245.416	63.78
245.634	91.07
245.852	96.17
246.07	66.93
246.288	45.37
246.506	41.26
246.724	38.19
246.942	20.26
247.16	28.91
247.378	23.41
247.596	19.6
247.814	26.76
248.032	35.11
248.25	31.72
248.468	45.9
248.685	49.38
248.903	53.09
249.121	52.62
249.339	31.38
249.557	30.08
249.775	37.94
249.992	20.49
250.21	24.09
250.428	63.12
250.646	53.74
250.863	43.27
251.081	52.86
251.299	58.38
251.517	46.49
251.734	50.75
251.952	52.33
252.17	48.37
252.387	56.23
252.605	63.07
252.823	72.3
253.04	63.11
253.258	78.9
253.475	75.03
253.693	59.12
253.911	68.01
254.128	78.51
254.346	65.02
254.563	67.99
254.781	56.38
254.998	46.41
255.216	38.14
255.433	34.43
255.651	27.91
255.868	42.18
256.086	48.3
256.303	49.87
256.521	50.99
256.738	45.32
256.956	41
257.173	23.51
257.39	37.58
257.608	46.02
257.825	65.54
258.043	52.85
258.26	61.87
258.477	40.81
258.695	31.44
258.912	19.59
259.129	33.82
259.346	27.34
259.564	62.42
259.781	48.86
259.998	24.48
260.216	54.91
260.433	68.02
260.65	50.5
260.867	63.13
261.084	78.18
261.302	45.58
261.519	17.24
261.736	12.98
261.953	1.32
262.17	17.15
262.387	23.31
262.604	13.91
262.822	11.57
263.039	18.58
263.256	-3.64
263.473	9.48
263.69	3.86
263.907	28.78
264.124	39.93
264.341	45.35
264.558	53.55
264.775	65.36
264.992	70.16
265.209	50.29
265.426	52.01
265.643	45.59
265.86	36.54
266.077	40.15
266.294	51.77
266.51	46.44
266.727	44.55
266.944	61.21
267.161	-5.58
267.378	-18.8
267.595	-10.2
267.812	-12.64
268.028	-50.35
268.245	25.28
268.462	19.55
268.679	32.96
268.896	36.98
269.112	39.98
269.329	31.37
269.546	40.09
269.763	22.78
269.979	21
270.196	41.17
270.413	49.83
270.629	56.11
270.846	71.27
271.063	76.31
271.279	73.11
271.496	61.25
271.712	45.95
271.929	39.35
272.146	41.02
272.362	41.72
272.579	64.5
272.795	74.39
273.012	72.33
273.228	56.49
273.445	62.21
273.661	41.77
273.878	28.07
274.094	28.52
274.311	28.71
274.527	22.42
274.744	34.77
274.96	47.03
275.177	52.31
275.393	56.47
275.609	60.71
275.826	47.37
276.042	27.44
276.259	3.41
276.475	0.4
276.691	18.23
276.908	33.76
277.124	52.19
277.34	55.82
277.557	52.5
277.773	29.64
277.989	19.38
278.205	13.79
278.422	21.77
278.638	29.56
278.854	25.12
279.07	51.38
279.286	43.46
279.503	46.52
279.719	47.77
279.935	63.53
280.151	42.62
280.367	51.04
280.583	55.67
280.799	43.75
281.016	22.19
281.232	40.79
281.448	22.58
281.664	17.8
281.88	17.25
282.096	23.53
282.312	15.5
282.528	41.54
282.744	55.76
282.96	69.3
283.176	70.36
283.392	73.22
283.608	62.9
283.824	55.86
284.04	46
284.256	80.04
284.471	81.11
284.687	53.71
284.903	47.15
285.119	49.53
285.335	-0.64
285.551	5.05
285.767	23.06
285.982	18.3
286.198	12.91
286.414	32.53
286.63	40.04
286.846	40.38
287.061	44.68
287.277	49.47
287.493	40.42
287.709	40.82
287.924	38.17
288.14	52.09
288.356	58.51
288.571	54.02
288.787	45.92
289.003	37.46
289.218	22.65
289.434	23.69
289.65	40.8
289.865	41.84
290.081	38.01
290.296	52.93
290.512	51.04
290.727	45.3
290.943	44.87
291.159	45.15
291.374	41.47
291.59	30.32
291.805	16.25
292.021	20.46
292.236	26.94
292.451	0.43
292.667	19.22
292.882	34.29
293.098	16.52
293.313	25.52
293.529	35.3
293.744	22.9
293.959	20.79
294.175	51.47
294.39	49.75
294.605	74.95
294.821	76.74
295.036	77.07
295.251	67.39
295.467	61.63
295.682	50.02
295.897	45.78
296.112	34.36
296.328	42.83
296.543	32.57
296.758	18.66
296.973	24.44
297.188	44.12
297.404	11.52
297.619	39.65
297.834	44.06
298.049	35.36
298.264	47.91
298.479	77.1
298.694	57.51
298.909	53.73
299.125	60.84
299.34	52.35
299.555	44.44
299.77	54.09
299.985	49.34
300.2	34.21
300.415	11.05
300.63	15.4
300.845	17.72
301.06	20.86
301.275	55.9
301.49	65.18
301.704	61.64
301.919	42.38
302.134	50.58
302.349	29.48
302.564	32.15
302.779	30.94
302.994	28.95
303.209	25.88
303.423	31.86
303.638	40.97
303.853	43.39
304.068	31.93
304.283	37.26
304.497	35.46
304.712	20.41
304.927	25.48
305.142	35.99
305.356	24.33
305.571	46.89
305.786	54.33
306	30.41
306.215	31.01
306.43	46.69
306.644	30.67
306.859	40.33
307.074	67.63
307.288	82.23
307.503	77.48
307.717	73.69
307.932	63.72
308.147	80.17
308.361	71.46
308.576	59.72
308.79	49.44
309.005	62.55
309.219	61.55
309.434	64.71
309.648	57.31
309.863	59.09
310.077	40.86
310.292	27.46
310.506	17.1
310.72	36.5
310.935	34.65
311.149	49.53
311.364	51.27
311.578	39.33
311.792	14.7
312.007	23.09
312.221	21.97
312.435	42.14
312.649	57.53
312.864	124.23
313.078	98.79
313.292	54.37
313.507	66.61
313.721	57.92
313.935	41.74
314.149	40.36
314.363	38.92
314.578	27.43
314.792	37.65
315.006	47.53
315.22	45.03
315.434	55.64
315.648	54.16
315.862	34.27
316.077	28.79
316.291	25.52
316.505	19.49
316.719	25.93
316.933	42.96
317.147	51.42
317.361	41.47
317.575	50.35
317.789	28.05
318.003	29.18
318.217	33.26
318.431	44.62
318.645	52.4
318.859	56.8
319.073	52.26
319.287	38.79
319.5	30.87
319.714	23.44
319.928	24.51
320.142	49.28
320.356	67.42
320.57	65.88
320.784	69.48
320.997	65.45
321.211	48.14
321.425	34.97
321.639	30.15
321.853	31.85
322.066	27.82
322.28	29.59
322.494	26.6
322.707	47.21
322.921	36.58
323.135	31.44
323.349	33.3
323.562	33.86
323.776	5.11
323.989	15.56
324.203	26.53
324.417	27.61
324.63	19.77
324.844	27.42
325.057	25.4
325.271	22.23
325.485	31.79
325.698	50.19
325.912	50.16
326.125	41.76
326.339	35.62
326.552	33.99
326.766	34.52
326.979	36.66
327.193	50.43
327.406	48.6
327.619	36.13
327.833	44.06
328.046	45.58
328.26	45.81
328.473	44.46
328.686	20.92
328.9	-18.76
329.113	-35.79
329.326	-49.54
329.54	-76.2
329.753	-20.48
329.966	7.93
330.179	17.07
330.393	21.79
330.606	36.73
330.819	45.03
331.032	27.42
331.246	21.45
331.459	5.74
331.672	24.67
331.885	8.9
332.098	34
332.311	39.38
332.525	37.8
332.738	25.44
332.951	16.32
333.164	9.97
333.377	13.77
333.59	35.16
333.803	37.31
334.016	47.47
334.229	46.66
334.442	42.81
334.655	40.94
334.868	44.94
335.081	44.4
335.294	47.95
335.507	48.72
335.72	58.62
335.933	45.67
336.146	48.01
336.359	49.72
336.572	24.41
336.785	8.29
336.997	27.35
337.21	25.66
337.423	18.98
337.636	48.11
337.849	48.63
338.062	43.8
338.274	57.68
338.487	60.45
338.7	39.8
338.913	36.56
339.125	34.35
339.338	28.47
339.551	46.85
339.763	53.24
339.976	53.53
340.189	72.4
340.402	70.24
340.614	41.71
340.827	41.94
341.039	51.66
341.252	52.89
341.465	50.29
341.677	58.01
341.89	48.08
342.102	35.76
342.315	30.54
342.527	33.02
342.74	25.87
342.952	35.77
343.165	48.17
343.377	46.26
343.59	44.52
343.802	46.61
344.015	48.05
344.227	38.84
344.44	33.05
344.652	38.34
344.864	45.27
345.077	38.69
345.289	51.06
345.502	54.14
345.714	44.6
345.926	41.77
346.139	22.36
346.351	-3.33
346.563	9.93
346.775	1.1
346.988	-24.41
347.2	-9.16
347.412	-2.4
347.624	8.61
347.837	17.34
348.049	36.05
348.261	48.76
348.473	52.74
348.685	45.46
348.897	47.23
349.11	47.02
349.322	47.66
349.534	61.37
349.746	65.3
349.958	68.41
350.17	64.76
350.382	53
350.594	34.73
350.806	47.12
351.018	37.14
351.23	32.51
351.442	25.48
351.654	33.03
351.866	-1.33
352.078	26.29
352.29	25.62
352.502	35.49
352.714	31.87
352.926	45.15
353.138	29.72
353.35	39.98
353.561	35.44
353.773	46.46
353.985	55.31
354.197	71.91
354.409	64.7
354.621	50.94
354.832	45.52
355.044	41.78
355.256	16.37
355.468	7
355.679	32.06
355.891	38
356.103	37.08
356.314	40.73
356.526	43.94
356.738	38.29
356.949	38.41
357.161	43.25
357.373	46.23
357.584	48.87
357.796	51.53
358.008	48.88
358.219	38.01
358.431	32.69
358.642	38.55
358.854	30.58
359.065	23.87
359.277	11.38
359.488	21.26
359.7	23.4
359.911	28.02
360.123	25.79
360.334	34.38
360.546	24.98
360.757	16.76
360.969	20.3
361.18	26.4
361.391	23.87
361.603	25.09
361.814	45.73
362.025	39.84
362.237	24.94
362.448	27.51
362.659	31.09
362.871	19.52
363.082	21.88
363.293	32.63
363.504	49.16
363.716	42.02
363.927	40.85
364.138	14.04
364.349	19.81
364.56	19.22
364.772	19.84
364.983	17.14
365.194	36.26
365.405	34.87
365.616	25.88
365.827	32
366.038	23.07
366.25	21.71
366.461	26.8
366.672	33.48
366.883	35.99
367.094	48.7
367.305	41.71
367.516	43.81
367.727	37.13
367.938	30.81
368.149	32.3
368.36	35.94
368.571	35.33
368.781	40.28
368.992	42.38
369.203	36.72
369.414	35.32
369.625	26.43
369.836	22.89
370.047	13.83
370.258	15.05
370.468	3.04
370.679	-0.12
370.89	-16.6
371.101	-12.19
371.312	-2.37
371.522	4.7
371.733	1.08
371.944	15.92
372.155	34.87
372.365	7.92
372.576	11.49
372.787	19.24
372.997	12.73
373.208	15.2
373.419	39.96
373.629	50.35
373.84	54.23
374.05	57.36
374.261	55.92
374.472	35.58
374.682	20.92
374.893	11.52
375.103	16.95
375.314	22.36
375.524	26.45
375.735	36.1
375.945	43.4
376.156	35.7
376.366	21.85
376.577	30.49
376.787	23.85
376.997	23.68
377.208	18.75
377.418	15.55
377.629	12.11
377.839	22.42
378.049	35.67
378.26	49.72
378.47	59.62
378.68	64.15
378.89	61.95
379.101	43.29
379.311	29.72
379.521	23.68
379.732	24.79
379.942	13.06
380.152	11.94
380.362	17.3
380.572	23.34
380.783	8.06
380.993	23.79
381.203	39.2
381.413	38.52
381.623	31.31
381.833	45.59
382.043	40.16
382.253	28.34
382.463	30.18
382.674	30.99
382.884	24.81
383.094	12.21
383.304	8.3
383.514	3.8
383.724	13.79
383.934	7.56
384.144	13.96
384.353	19.84
384.563	21.48
384.773	13.08
384.983	14.52
385.193	15.36
385.403	9.21
385.613	11.4
385.823	10.44
386.033	11.4
386.242	9.47
386.452	8.08
386.662	8.76
386.872	7.86
387.082	7.41
387.291	5.69
387.501	7.25
387.711	7.26
387.921	8.33
388.13	10.05
388.34	12.89
388.55	12.47
388.759	13.86
388.969	13.31
389.179	9.17
389.388	6.67
389.598	6.92
389.807	6.58
390.017	7.12
390.227	11.92
390.436	11.41
390.646	11.65
390.855	11.05
391.065	10.65
391.274	6.85
391.484	6.24
391.693	4.76
391.903	6.26
392.112	6.07
392.322	6.83
392.531	7.35
392.74	6.78
392.95	5.43
393.159	6.39
393.369	8.78
393.578	9.15
393.787	10.24
393.997	9.15
394.206	9.05
394.415	7.28
394.625	7.15
394.834	6.45
395.043	6.73
395.252	7.16
395.462	7.4
395.671	8.1
395.88	9.91
396.089	10.89
396.298	9.98
396.508	8.91
396.717	8.24
396.926	7.35
397.135	5.98
397.344	5.78
397.553	6.39
397.762	7.21
397.971	7.37
398.181	8.1
398.39	8.29
398.599	8.52
398.808	7.87
399.017	8.42
399.226	8.31
399.435	8.52
399.644	8.92
399.853	9.18
400.062	9.1
400.27	9.61
400.479	9.71
400.688	9.18
400.897	9.21
401.106	8.79
401.315	8.35
401.524	8.22
401.733	8.48
401.941	8.54
402.15	8.62
402.359	8.55
402.568	8.74
402.777	8.53
402.985	8.32
403.194	8.13
403.403	8.18
403.612	7.81
403.82	7.92
404.029	7.79
404.238	7.65
404.446	7.53
404.655	7.41
404.864	7.24
405.072	7.33
405.281	7.52
405.489	7.45
405.698	7.54
405.906	7.5
406.115	7.55
406.324	7.36
406.532	7.33
406.741	7.34
406.949	7.36
407.158	7.35
407.366	7.4
407.574	7.27
407.783	7.24
407.991	7.12
408.2	6.93
408.408	6.94
408.617	7.03
408.825	7.09
409.033	7.09
409.242	7.24
409.45	7.06
409.658	7.17
409.867	7.1
410.075	7.17
410.283	7.07
410.491	7.01
410.7	6.93
410.908	6.99
411.116	7.02
411.324	6.98
411.533	7.11
411.741	7.14
411.949	7.06
412.157	6.88
412.365	6.69
412.573	6.64
412.781	6.61
412.99	6.65
413.198	6.79
413.406	7.07
413.614	7.19
413.822	7.07
414.03	6.92
414.238	6.7
414.446	6.76
414.654	6.55
414.862	6.69
415.07	6.52
415.278	6.72
415.486	6.49
415.694	6.68
415.902	6.42
416.109	6.45
416.317	6.41
416.525	6.36
416.733	6.24
416.941	6.34
417.149	6.36
417.357	6.26
417.564	6.22
417.772	6.07
417.98	6.16
418.188	6.07
418.395	6
418.603	6.04
418.811	6.23
419.019	6.26
419.226	6.57
419.434	6.68
419.642	6.53
419.849	6.48
420.057	6.36
420.265	6.18
420.472	6.11
420.68	6.28
420.887	6.27
421.095	6.31
421.302	6.34
421.51	6.27
421.717	6.17
421.925	6.14
422.132	6.12
422.34	5.95
422.547	5.94
422.755	6.03
422.962	6.11
423.17	5.92
423.377	6.19
423.585	6.27
423.792	6.18
423.999	6.04
424.207	6.13
424.414	5.83
424.621	5.85
424.829	5.87
425.036	6.03
425.243	6.02
425.451	6.09
425.658	6.08
425.865	6.16
426.072	6.05
426.28	6.23
426.487	6.36
426.694	6.33
426.901	6.22
427.108	6.18
427.315	6.25
427.523	6.22
427.73	6.16
427.937	6.19
428.144	6.18
428.351	5.96
428.558	6.03
428.765	6.27
428.972	6.34
429.179	6.37
429.386	6.33
429.593	6.28
429.8	6.13
430.007	6.23
430.214	6.43
430.421	6.42
430.628	6.31
430.835	6.31
431.042	6.09
431.249	6.19
431.456	6.22
431.662	6.48
431.869	6.58
432.076	6.81
432.283	6.7
432.49	6.91
432.697	6.87
432.903	6.72
433.11	6.46
433.317	6.42
433.524	6.44
433.73	6.32
433.937	6.37
434.144	6.58
434.35	6.62
434.557	6.52
434.764	6.46
434.97	6.5
435.177	6.61
435.384	6.48
435.59	6.43
435.797	6.52
436.003	6.61
436.21	6.47
436.416	6.45
436.623	6.6
436.829	6.63
437.036	6.6
437.242	6.7
437.449	6.84
437.655	6.87
437.862	7
438.068	7.01
438.275	6.94
438.481	6.9
438.687	6.77
438.894	6.69
439.1	6.82
439.307	6.8
439.513	6.85
439.719	6.97
439.926	6.97
440.132	6.85
440.338	6.93
440.544	6.89
440.751	6.68
440.957	6.73
441.163	6.75
441.369	6.82
441.575	6.87
441.782	7.05
441.988	7.08
442.194	7.08
442.4	6.99
442.606	7.16
442.812	7.19
443.018	7.14
443.224	7.16
443.431	7.09
443.637	7.05
443.843	7.07
444.049	7.17
444.255	7.17
444.461	7.34
444.667	7.19
444.873	7.09
445.079	6.95
445.284	6.99
445.49	6.9
445.696	6.97
445.902	7.01
446.108	7.03
446.314	7.11
446.52	7.23
446.726	7.2
446.931	7.3
447.137	7.38
447.343	7.31
447.549	7.25
447.755	7.24
447.96	7.24
448.166	7.28
448.372	7.29
448.578	7.46
448.783	7.6
448.989	7.71
449.195	7.56
449.4	7.48
449.606	7.38
449.812	7.31
450.017	7.23
450.223	7.32
450.428	7.48
450.634	7.53
450.84	7.68
451.045	7.66
451.251	7.77
451.456	7.81
451.662	7.77
451.867	7.6
452.073	7.62
452.278	7.65
452.483	7.67
452.689	7.78
452.894	7.93
453.1	7.99
453.305	7.91
453.51	7.93
453.716	7.83
453.921	7.88
454.127	7.94
454.332	7.95
454.537	7.89
454.742	7.96
454.948	7.77
455.153	7.71
455.358	7.79
455.563	7.82
455.769	7.76
455.974	7.89
456.179	7.81
456.384	7.74
456.589	7.77
456.795	7.85
457	7.93
457.205	8.2
457.41	8.3
457.615	8.31
457.82	8.38
458.025	8.33
458.23	8.21
458.435	8.17
458.64	8.18
458.845	8.21
459.05	8.28
459.255	8.29
459.46	8.32
459.665	8.41
459.87	8.4
460.075	8.29
460.28	8.27
460.485	8.36
460.69	8.28
460.895	8.19
461.099	8.38
461.304	8.42
461.509	8.35
461.714	8.34
461.919	8.34
462.123	8.29
462.328	8.38
462.533	8.47
462.738	8.55
462.942	8.59
463.147	8.64
463.352	8.68
463.556	8.6
463.761	8.51
463.966	8.64
464.17	8.74
464.375	8.64
464.58	8.67
464.784	8.76
464.989	8.71
465.193	8.55
465.398	8.62
465.602	8.79
465.807	8.91
466.011	8.95
466.216	8.99
466.42	9.06
466.625	9.04
466.829	9.02
467.034	9.09
467.238	9.19
467.443	9.1
467.647	8.92
467.851	8.95
468.056	8.86
468.26	8.82
468.464	8.92
468.669	9.06
468.873	9
469.077	9.02
469.282	9.11
469.486	9.04
469.69	9.05
469.894	9.12
470.099	9.19
470.303	9.25
470.507	9.29
470.711	9.26
470.915	9.22
471.119	9.18
471.324	9.14
471.528	9.09
471.732	9.2
471.936	9.26
472.14	9.27
472.344	9.31
472.548	9.39
472.752	9.46
472.956	9.46
473.16	9.5
473.364	9.52
473.568	9.59
473.772	9.55
473.976	9.59
474.18	9.59
474.384	9.55
474.588	9.44
474.792	9.43
474.995	9.48
475.199	9.54
475.403	9.58
475.607	9.67
475.811	9.66
476.015	9.65
476.218	9.61
476.422	9.58
476.626	9.68
476.83	9.63
477.033	9.68
477.237	9.68
477.441	9.64
477.644	9.5
477.848	9.61
478.052	9.48
478.255	9.5
478.459	9.48
478.663	9.58
478.866	9.53
479.07	9.63
479.273	9.69
479.477	9.76
479.681	9.8
479.884	9.85
480.088	9.79
480.291	9.84
480.495	9.82
480.698	9.76
480.901	9.75
481.105	9.75
481.308	9.7
481.512	9.71
481.715	9.66
481.919	9.68
482.122	9.74
482.325	9.72
482.529	9.76
482.732	9.87
482.935	9.79
483.138	9.76
483.342	9.68
483.545	9.75
483.748	9.74
483.952	9.77
484.155	9.87
484.358	9.91
484.561	9.82
484.764	9.77
484.967	9.79
485.171	9.76
485.374	9.8
485.577	9.82
485.78	9.85
485.983	9.83
486.186	9.7
486.389	9.77
486.592	9.74
486.795	9.72
486.998	9.75
487.201	9.92
487.404	9.92
487.607	9.99
487.81	9.96
488.013	9.97
488.216	9.93
488.419	9.89
488.622	9.78
488.825	9.83
489.028	9.78
489.231	9.79
489.433	9.75
489.636	9.86
489.839	9.79
490.042	9.74
490.245	9.64
490.447	9.67
490.65	9.59
490.853	9.69
491.056	9.79
491.258	9.74
491.461	9.72
491.664	9.79
491.866	9.68
492.069	9.64
492.272	9.69
492.474	9.75
492.677	9.66
492.879	9.72
493.082	9.78
493.285	9.87
493.487	9.75
493.69	9.73
493.892	9.66
494.095	9.58
494.297	9.46
494.5	9.5
494.702	9.57
494.905	9.64
495.107	9.7
495.309	9.77
495.512	9.79
495.714	9.85
495.917	9.83
496.119	9.71
496.321	9.72
496.524	9.76
496.726	9.63
496.928	9.59
497.13	9.61
497.333	9.57
497.535	9.56
497.737	9.58
497.939	9.61
498.142	9.72
498.344	9.78
498.546	9.75
498.748	9.83
498.95	9.87
499.152	9.82
499.355	9.84
499.557	9.87
499.759	9.76
499.961	9.66
500.163	9.67
500.365	9.64
500.567	9.65
500.769	9.7
500.971	9.75
501.173	9.65
501.375	9.66
501.577	9.61
501.779	9.65
501.981	9.63
502.183	9.74
502.385	9.63
502.587	9.57
502.788	9.53
502.99	9.56
503.192	9.56
503.394	9.58
503.596	9.65
503.798	9.7
503.999	9.72
504.201	9.69
504.403	9.72
504.605	9.8
504.806	9.72
505.008	9.7
505.21	9.65
505.411	9.63
505.613	9.57
505.815	9.66
506.016	9.65
506.218	9.66
506.42	9.72
506.621	9.71
506.823	9.69
507.024	9.72
507.226	9.79
507.427	9.78
507.629	9.81
507.83	9.75
508.032	9.77
508.233	9.71
508.435	9.69
508.636	9.75
508.838	9.71
509.039	9.66
509.24	9.73
509.442	9.77
509.643	9.73
509.845	9.8
510.046	9.92
510.247	9.94
510.448	9.93
510.65	9.97
510.851	9.95
511.052	9.85
511.254	9.73
511.455	9.72
511.656	9.66
511.857	9.66
512.058	9.69
512.26	9.77
512.461	9.72
512.662	9.71
512.863	9.72
513.064	9.75
513.265	9.72
513.466	9.75
513.667	9.81
513.868	9.77
514.069	9.73
514.27	9.72
514.471	9.74
514.672	9.68
514.873	9.64
515.074	9.71
515.275	9.72
515.476	9.76
515.677	9.77
515.878	9.85
516.079	9.71
516.28	9.78
516.481	9.77
516.682	9.78
516.882	9.75
517.083	9.86
517.284	9.78
517.485	9.7
517.686	9.68
517.886	9.7
518.087	9.67
518.288	9.68
518.488	9.65
518.689	9.7
518.89	9.64
519.091	9.64
519.291	9.61
519.492	9.68
519.692	9.65
519.893	9.75
520.094	9.74
520.294	9.77
520.495	9.83
520.695	9.88
520.896	9.79
521.096	9.81
521.297	9.86
521.497	9.83
521.698	9.76
521.898	9.82
522.099	9.74
522.299	9.62
522.499	9.64
522.7	9.71
522.9	9.7
523.101	9.78
523.301	9.85
523.501	9.8
523.702	9.76
523.902	9.77
524.102	9.76
524.302	9.82
524.503	9.84
524.703	9.83
524.903	9.83
525.103	9.88
525.304	9.87
525.504	9.91
525.704	9.92
525.904	9.91
526.104	9.9
526.304	9.89
526.504	9.88
526.705	9.88
526.905	9.88
527.105	9.91
527.305	9.9
527.505	9.91
527.705	9.92
527.905	9.92
528.105	9.88
528.305	9.84
528.505	9.77
528.705	9.83
528.905	9.81
529.105	9.85
529.304	9.89
529.504	9.98
529.704	9.92
529.904	9.91
530.104	9.87
530.304	9.91
530.503	9.88
530.703	9.85
530.903	9.9
531.103	9.87
531.303	9.87
531.502	9.89
531.702	9.93
531.902	9.86
532.101	9.92
532.301	9.87
532.501	9.88
532.7	9.92
532.9	9.99
533.1	10
533.299	9.99
533.499	10.03
533.698	10.04
533.898	10.06
534.097	10.02
534.297	10.06
534.496	9.98
534.696	9.99
534.895	9.98
535.095	10.04
535.294	10.06
535.494	10.09
535.693	10.05
535.892	10.07
536.092	10.03
536.291	10.01
536.491	10.03
536.69	9.96
536.889	9.91
537.088	9.87
537.288	9.95
537.487	9.95
537.686	10.06
537.886	10.15
538.085	10.24
538.284	10.21
538.483	10.22
538.682	10.19
538.882	10.22
539.081	10.27
539.28	10.23
539.479	10.29
539.678	10.33
539.877	10.33
540.076	10.27
540.275	10.39
540.474	10.33
540.673	10.32
540.872	10.26
541.071	10.28
541.27	10.24
541.469	10.3
541.668	10.36
541.867	10.42
542.066	10.48
542.265	10.5
542.464	10.51
542.663	10.61
542.862	10.74
543.06	10.84
543.259	10.91
543.458	10.97
543.657	10.99
543.856	10.95
544.054	10.91
544.253	10.88
544.452	10.87
544.651	10.86
544.849	10.81
545.048	10.77
545.247	10.77
545.445	10.8
545.644	10.82
545.843	10.84
546.041	10.9
546.24	10.97
546.438	10.96
546.637	10.99
546.836	11.06
547.034	11.05
547.233	11.06
547.431	11.12
547.63	11.08
547.828	11.1
548.027	11.14
548.225	11.17
548.423	11.23
548.622	11.28
548.82	11.27
549.019	11.33
549.217	11.3
549.415	11.3
549.614	11.46
549.812	11.51
550.01	11.47
550.209	11.6
550.407	11.65
550.605	11.57
550.803	11.6
551.002	11.72
551.2	11.72
551.398	11.74
551.596	11.8
551.794	11.86
551.993	11.87
552.191	11.9
552.389	11.94
552.587	12
552.785	12.07
552.983	12.18
553.181	12.31
553.379	12.46
553.577	12.38
553.775	12.53
553.973	12.54
554.171	12.47
554.369	12.45
554.567	12.59
554.765	12.5
554.963	12.5
555.161	12.56
555.359	12.62
555.557	12.62
555.755	12.76
555.952	12.88
556.15	12.95
556.348	12.99
556.546	13.23
556.744	13.28
556.941	13.32
557.139	13.45
557.337	13.57
557.535	13.46
557.732	13.43
557.93	13.52
558.128	13.55
558.325	13.54
558.523	13.63
558.721	13.78
558.918	13.78
559.116	13.83
559.313	13.87
559.511	13.99
559.708	13.95
559.906	14.06
560.104	14.12
560.301	14.25
560.498	14.3
560.696	14.43
560.893	14.47
561.091	14.61
561.288	14.63
561.486	14.64
561.683	14.7
561.88	14.77
562.078	14.8
562.275	14.93
562.473	15.02
562.67	15.05
562.867	15.1
563.064	15.16
563.262	15.2
563.459	15.25
563.656	15.35
563.853	15.48
564.051	15.43
564.248	15.49
564.445	15.62
564.642	15.7
564.839	15.78
565.036	15.99
565.234	16.09
565.431	16.13
565.628	16.18
565.825	16.17
566.022	16.25
566.219	16.19
566.416	16.28
566.613	16.37
566.81	16.54
567.007	16.52
567.204	16.59
567.401	16.64
567.598	16.77
567.795	16.71
567.991	16.8
568.188	16.96
568.385	17.01
568.582	17.04
568.779	17.12
568.976	17.21
569.172	17.31
569.369	17.34
569.566	17.33
569.763	17.4
569.96	17.39
570.156	17.32
570.353	17.36
570.55	17.38
570.746	17.45
570.943	17.49
571.14	17.56
571.336	17.6
571.533	17.69
571.729	17.66
571.926	17.73
572.123	17.77
572.319	17.9
572.516	17.96
572.712	17.92
572.909	17.91
573.105	17.95
573.302	17.9
573.498	17.83
573.695	17.91
573.891	17.96
574.087	17.96
574.284	17.99
574.48	18
574.677	18.05
574.873	17.99
575.069	18.07
575.266	18
575.462	17.95
575.658	17.94
575.854	18.02
576.051	17.96
576.247	18.06
576.443	18.22
576.639	18.22
576.835	18.22
577.032	18.32
577.228	18.38
577.424	18.39
577.62	18.39
577.816	18.37
578.012	18.31
578.208	18.24
578.404	18.14
578.6	18.17
578.796	18.16
578.993	18.1
579.189	18.06
579.384	18.06
579.58	17.96
579.776	17.95
579.972	18.02
580.168	18
580.364	17.94
580.56	18.02
580.756	17.92
580.952	17.8
581.148	17.82
581.343	17.88
581.539	17.78
581.735	17.87
581.931	17.98
582.127	17.99
582.322	17.88
582.518	18.02
582.714	17.92
582.909	17.8
583.105	17.8
583.301	17.9
583.496	17.76
583.692	17.81
583.888	17.83
584.083	17.87
584.279	17.93
584.474	17.99
584.67	17.97
584.866	17.94
585.061	17.85
585.257	17.8
585.452	17.85
585.648	17.85
585.843	17.88
586.039	17.94
586.234	17.91
586.429	17.79
586.625	17.69
586.82	17.68
587.015	17.63
587.211	17.62
587.406	17.69
587.601	17.76
587.797	17.72
587.992	17.63
588.187	17.58
588.383	17.53
588.578	17.6
588.773	17.62
588.968	17.69
589.163	17.8
589.359	17.87
589.554	17.85
589.749	17.95
589.944	17.97
590.139	17.93
590.334	17.9
590.529	17.92
590.724	17.85
590.919	17.75
591.114	17.84
591.309	17.83
591.504	17.92
591.699	17.95
591.894	18.07
592.089	18.04
592.284	18.04
592.479	17.96
592.674	17.99
592.869	18.01
593.064	18.02
593.259	18.11
593.454	18.15
593.648	18.16
593.843	18.28
594.038	18.34
594.233	18.39
594.428	18.41
594.622	18.46
594.817	18.32
595.012	18.24
595.206	18.33
595.401	18.38
595.596	18.38
595.79	18.49
595.985	18.61
596.18	18.54
596.374	18.57
596.569	18.66
596.763	18.68
596.958	18.78
597.153	18.86
597.347	18.94
597.542	18.98
597.736	19.03
597.931	18.95
598.125	19
598.319	19.1
598.514	19.18
598.708	19.21
598.903	19.34
599.097	19.4
599.291	19.37
599.486	19.36
599.68	19.41
599.874	19.37
600.069	19.46
600.263	19.45
600.457	19.55
600.651	19.55
600.846	19.56
601.04	19.54
601.234	19.53
601.428	19.55
601.622	19.72
601.817	19.75
602.011	19.8
602.205	19.85
602.399	19.83
602.593	19.65
602.787	19.73
602.981	19.69
603.175	19.69
603.369	19.67
603.563	19.77
603.757	19.79
603.951	19.81
604.145	19.79
604.339	19.89
604.533	19.82
604.727	19.81
604.921	19.7
605.115	19.73
605.309	19.59
605.502	19.56
605.696	19.46
605.89	19.5
606.084	19.45
606.278	19.43
606.471	19.35
606.665	19.34
606.859	19.28
607.053	19.23
607.246	19.24
607.44	19.21
607.634	19.09
607.827	19.05
608.021	18.97
608.214	18.91
608.408	18.83
608.602	18.96
608.795	18.9
608.989	18.86
609.182	18.75
609.376	18.88
609.569	18.65
609.763	18.54
609.956	18.46
610.15	18.35
610.343	18.18
610.537	18.18
610.73	18.18
610.923	18.22
611.117	18.3
611.31	18.25
611.504	18.23
611.697	18.23
611.89	18.14
612.083	17.94
612.277	17.88
612.47	17.82
612.663	17.75
612.856	17.75
613.05	17.79
613.243	17.79
613.436	17.7
613.629	17.63
613.822	17.53
614.015	17.48
614.209	17.35
614.402	17.35
614.595	17.28
614.788	17.19
614.981	17.05
615.174	16.98
615.367	16.89
615.56	16.87
615.753	16.91
615.946	16.78
616.139	16.81
616.332	16.76
616.525	16.65
616.718	16.46
616.911	16.58
617.103	16.58
617.296	16.48
617.489	16.48
617.682	16.58
617.875	16.51
618.067	16.44
618.26	16.41
618.453	16.37
618.646	16.28
618.838	16.23
619.031	16.21
619.224	16.24
619.417	16.22
619.609	16.23
619.802	16.29
619.994	16.23
620.187	16.2
620.38	16.21
620.572	16.18
620.765	16.22
620.957	16.21
621.15	16.15
621.342	16.1
621.535	16.11
621.727	15.94
621.92	15.91
622.112	15.94
622.305	15.98
622.497	15.86
622.69	15.79
622.882	15.76
623.074	15.7
623.267	15.67
623.459	15.8
623.651	15.81
623.844	15.89
624.036	15.88
624.228	15.86
624.42	15.79
624.613	15.87
624.805	15.83
624.997	15.82
625.189	15.87
625.381	15.85
625.574	15.65
625.766	15.6
625.958	15.64
626.15	15.48
626.342	15.37
626.534	15.39
626.726	15.34
626.918	15.32
627.11	15.32
627.302	15.32
627.494	15.29
627.686	15.29
627.878	15.19
628.07	15.15
628.262	15.09
628.454	15.07
628.646	15.06
628.838	15.13
629.029	15.04
629.221	15.04
629.413	14.97
629.605	14.92
629.797	14.87
629.989	14.9
630.18	14.9
630.372	14.94
630.564	14.92
630.755	14.93
630.947	14.93
631.139	14.84
631.33	14.81
631.522	14.71
631.714	14.58
631.905	14.56
632.097	14.52
632.289	14.55
632.48	14.56
632.672	14.52
632.863	14.47
633.055	14.51
633.246	14.47
633.438	14.48
633.629	14.47
633.821	14.42
634.012	14.42
634.203	14.39
634.395	14.44
634.586	14.48
634.777	14.5
634.969	14.44
635.16	14.49
635.351	14.37
635.543	14.51
635.734	14.56
635.925	14.61
636.117	14.56
636.308	14.64
636.499	14.43
636.69	14.32
636.881	14.33
637.073	14.35
637.264	14.28
637.455	14.28
637.646	14.3
637.837	14.26
638.028	14.23
638.219	14.23
638.41	14.23
638.601	14.24
638.792	14.26
638.983	14.21
639.174	14.14
639.365	14.15
639.556	14.07
639.747	13.95
639.938	14.05
640.129	14.09
640.32	14.07
640.511	14.08
640.701	14.08
640.892	13.96
641.083	13.97
641.274	13.95
641.465	13.99
641.655	13.94
641.846	13.9
642.037	13.79
642.228	13.77
642.418	13.66
642.609	13.68
642.8	13.68
642.99	13.64
643.181	13.55
643.372	13.61
643.562	13.56
643.753	13.54
643.943	13.57
644.134	13.58
644.324	13.6
644.515	13.63
644.705	13.63
644.896	13.72
645.086	13.69
645.277	13.66
645.467	13.61
645.658	13.65
645.848	13.51
646.038	13.54
646.229	13.44
646.419	13.44
646.61	13.48
646.8	13.55
646.99	13.51
647.18	13.54
647.371	13.49
647.561	13.35
647.751	13.2
647.941	13.14
648.132	13.12
648.322	13.11
648.512	13.11
648.702	13.11
648.892	13.11
649.082	13.13
649.272	13.14
649.462	13.11
649.653	13.17
649.843	13.2
650.033	13.28
650.223	13.28
650.413	13.28
650.603	13.25
650.793	13.26
650.983	13.05
651.172	13.06
651.362	12.94
651.552	12.9
651.742	12.79
651.932	12.78
652.122	12.74
652.312	12.77
652.502	12.59
652.691	12.58
652.881	12.57
653.071	12.55
653.261	12.47
653.45	12.63
653.64	12.52
653.83	12.44
654.019	12.32
654.209	12.31
654.399	12.15
654.588	12.15
654.778	12.06
654.968	12.01
655.157	11.92
655.347	11.91
655.536	11.86
655.726	11.82
655.915	11.78
656.105	11.72
656.294	11.64
656.484	11.49
656.673	11.45
656.863	11.42
657.052	11.29
657.241	11.12
657.431	11.04
657.62	10.89
657.809	10.74
657.999	10.76
658.188	10.71
658.377	10.66
658.567	10.65
658.756	10.56
658.945	10.48
659.134	10.41
659.324	10.39
659.513	10.28
659.702	10.15
659.891	10.05
660.08	9.92
660.269	9.76
660.458	9.66
660.648	9.68
660.837	9.55
661.026	9.53
661.215	9.49
661.404	9.43
661.593	9.26
661.782	9.2
661.971	9.16
662.16	9.13
662.349	9.09
662.538	9.04
662.726	9.02
662.915	8.95
663.104	8.84
663.293	8.78
663.482	8.82
663.671	8.74
663.86	8.69
664.048	8.65
664.237	8.61
664.426	8.5
664.615	8.49
664.803	8.49
664.992	8.41
665.181	8.4
665.369	8.41
665.558	8.32
665.747	8.32
665.935	8.41
666.124	8.36
666.312	8.27
666.501	8.29
666.69	8.21
666.878	8.09
667.067	8.02
667.255	8.1
667.444	8.25
667.632	8.25
667.82	8.3
668.009	8.37
668.197	8.32
668.386	8.09
668.574	8.1
668.762	7.93
668.951	8.06
669.139	8.08
669.327	8.13
669.516	8.18
669.704	8.36
669.892	8.22
670.08	8.17
670.269	8.13
670.457	7.99
670.645	7.92
670.833	7.93
671.021	8
671.21	8.04
671.398	8.22
671.586	8.27
671.774	8.33
671.962	8.32
672.15	8.39
672.338	8.41
672.526	8.47
672.714	8.44
672.902	8.45
673.09	8.5
673.278	8.59
673.466	8.76
673.654	8.96
673.842	8.99
674.03	9.18
674.218	9.1
674.405	9.01
674.593	9.05
674.781	9.19
674.969	9.08
675.157	9.23
675.344	9.24
675.532	9.06
675.72	9.02
675.908	9.14
676.095	9.08
676.283	9.21
676.471	9.36
676.658	9.52
676.846	9.62
677.033	9.76
677.221	9.74
677.409	9.72
677.596	9.63
677.784	9.54
677.971	9.59
678.159	9.68
678.346	9.78
678.534	9.94
678.721	9.95
678.909	9.97
679.096	10.1
679.283	10.23
679.471	10.22
679.658	10.54
679.846	10.64
680.033	10.92
680.22	10.94
680.408	11.04
680.595	10.99
680.782	10.98
680.969	10.83
681.157	10.9
681.344	10.85
681.531	10.96
681.718	10.89
681.905	10.82
682.093	10.83
682.28	10.98
682.467	11.05
682.654	11.37
682.841	11.56
683.028	11.64
683.215	11.86
683.402	11.72
683.589	11.79
683.776	11.84
683.963	12.02
684.15	12.03
684.337	12.37
684.524	12.55
684.711	12.75
684.898	12.88
685.085	13.01
685.271	12.97
685.458	12.94
685.645	13.12
685.832	13.32
686.019	13.56
686.205	13.84
686.392	14.19
686.579	14.36
686.766	14.58
686.952	14.7
687.139	15.01
687.326	15.16
687.512	15.32
687.699	15.32
687.886	15.59
688.072	15.62
688.259	15.82
688.445	16.17
688.632	16.53
688.818	16.95
689.005	17.26
689.191	17.57
689.378	17.79
689.564	18.21
689.751	18.51
689.937	19.03
690.124	19.42
690.31	19.76
690.496	20.04
690.683	20.21
690.869	20.51
691.055	20.86
691.242	21.33
691.428	21.74
691.614	22.26
691.8	22.68
691.987	22.89
692.173	23.38
692.359	23.95
692.545	24.42
692.731	24.83
692.918	25.45
693.104	25.73
693.29	26
693.476	26.33
693.662	26.87
693.848	27.38
694.034	28.02
694.22	28.42
694.406	28.98
694.592	29.48
694.778	29.95
694.964	30.23
695.15	30.91
695.336	31.41
695.522	31.88
695.708	32.65
695.894	33.18
696.08	33.79
696.265	34.09
696.451	34.6
696.637	34.9
696.823	35.6
697.009	36.2
697.194	36.88
697.38	37.53
697.566	37.94
697.751	38.54
697.937	39.23
698.123	39.72
698.308	40.36
698.494	41.13
698.68	41.47
698.865	41.75
699.051	42.3
699.236	42.88
699.422	43.71
699.607	44.27
699.793	44.75
699.978	45.47
700.164	46.05
700.349	46.56
700.535	46.96
700.72	47.63
700.906	48.25
701.091	48.61
701.276	48.57
701.462	49.51
701.647	50.14
701.832	50.65
702.018	51.13
702.203	51.75
702.388	52.03
702.573	52.22
702.759	52.56
702.944	52.88
703.129	53.57
703.314	54.19
703.499	54.92
703.684	55.11
703.87	55.67
704.055	55.88
704.24	56.24
704.425	56.63
704.61	57.01
704.795	57.19
704.98	57.66
705.165	58.18
705.35	58.41
705.535	59.05
705.72	59.72
705.905	60.23
706.09	60.38
706.275	60.76
706.459	61.33
706.644	61.76
706.829	62.33
707.014	62.98
707.199	63.48
707.384	63.75
707.568	64.08
707.753	64.8
707.938	65.11
708.123	65.55
708.307	66.21
708.492	66.47
708.677	66.24
708.861	66.4
709.046	66.65
709.231	66.61
709.415	66.91
709.6	67.09
709.784	67.58
709.969	67.92
710.153	68.54
710.338	68.86
710.522	69.58
710.707	69.93
710.891	70.05
711.076	70.27
711.26	70.56
711.445	70.59
711.629	70.64
711.813	71.21
711.998	71.39
712.182	72.02
712.366	72.5
712.551	72.87
712.735	73.31
712.919	73.23
713.103	73.33
713.288	73.47
713.472	74.12
713.656	73.78
713.84	74.4
714.024	74.92
714.208	75.28
714.393	75.05
714.577	75.68
714.761	75.5
714.945	75.23
715.129	75.61
715.313	75.91
715.497	76.16
715.681	76.63
715.865	76.68
716.049	76.31
716.233	76.53
716.417	76.61
716.601	76.64
716.785	76.76
716.968	76.8
717.152	77.05
717.336	77.29
717.52	77.88
717.704	78.14
717.888	78.36
718.071	78.54
718.255	79.03
718.439	78.94
718.622	79.33
718.806	79.77
718.99	79.62
719.174	78.96
719.357	78.78
719.541	79.02
719.724	78.89
719.908	79.7
720.092	80.58
720.275	80.93
720.459	80.76
720.642	81.73
720.826	80.84
721.009	80.95
721.193	81.29
721.376	81.58
721.559	81.57
721.743	82.47
721.926	82.72
722.11	82.93
722.293	82.97
722.476	82.51
722.66	82.49
722.843	81.83
723.026	81.75
723.21	81.98
723.393	82.15
723.576	82.35
723.759	83.28
723.942	83.33
724.126	83.94
724.309	84.59
724.492	83.96
724.675	84.04
724.858	84.74
725.041	84.86
725.224	84.55
725.407	85.18
725.59	84.73
725.774	84.82
725.957	84.52
726.14	84.48
726.322	84.85
726.505	84.9
726.688	84.6
726.871	85.19
727.054	85.34
727.237	85.95
727.42	87.01
727.603	87.83
727.786	87.27
727.968	87.26
728.151	86.89
728.334	87.13
728.517	86.91
728.699	87.52
728.882	88.55
729.065	88.23
729.248	87.68
729.43	87.4
729.613	87.67
729.796	87.33
729.978	88.4
730.161	88.28
730.343	88.7
730.526	88.87
730.708	88.88
730.891	88.79
731.073	88.56
731.256	88.45
731.438	88.62
731.621	89.23
731.803	89.19
731.986	90.08
732.168	89.24
732.35	88.77
732.533	88.23
732.715	87.9
732.898	87.37
733.08	88.59
733.262	89.84
733.444	90.11
733.627	90
733.809	90.06
733.991	91.22
734.173	90.59
734.355	90.7
734.538	91.27
734.72	91.47
734.902	90.84
735.084	90.38
735.266	91.14
735.448	90.99
735.63	91.42
735.812	92.06
735.994	92.56
736.176	92.57
736.358	92.35
736.54	92.13
736.722	90.95
736.904	90.5
737.086	90.06
737.268	90.79
737.45	91.92
737.632	92.43
737.814	92.99
737.995	92.82
738.177	92.3
738.359	90.45
738.541	91.07
738.723	91.69
738.904	91.9
739.086	92.49
739.268	93.61
739.449	92.83
739.631	92.36
739.813	92.73
739.994	92.8
740.176	93.7
740.358	94.15
740.539	94.74
740.721	94.19
740.902	94.5
741.084	93.77
741.265	93.4
741.447	92.81
741.628	94.4
741.81	93.94
741.991	93.71
742.172	95.32
742.354	94.91
742.535	93.12
742.717	92.37
742.898	92.14
743.079	92.21
743.261	93.26
743.442	94.4
743.623	95.88
743.804	96.6
743.986	96.27
744.167	95.95
744.348	95.69
744.529	95.19
744.71	96.14
744.891	95.11
745.073	95.31
745.254	95.02
745.435	94.75
745.616	93.76
745.797	93.71
745.978	94.08
746.159	95.01
746.34	95.04
746.521	95.61
746.702	95.14
746.883	92.98
747.064	91.27
747.245	91.65
747.426	91.54
747.606	91.81
747.787	92.63
747.968	93.61
748.149	94.25
748.33	92.73
748.51	92.66
748.691	92.25
748.872	92.16
749.053	90.82
749.233	92.62
749.414	91.94
749.595	94.41
749.775	94.13
749.956	95.37
750.137	94.46
750.317	96.6
750.498	94.58
750.678	94.35
750.859	92.51
751.04	93.24
751.22	91.52
751.4	91.83
751.581	92.21
751.761	94.5
751.942	94.4
752.122	94.68
752.303	93.65
752.483	94.17
752.663	93.91
752.844	93.4
753.024	94.19
753.204	95.89
753.385	95.63
753.565	95.4
753.745	95.6
753.925	95.57
754.106	94.63
754.286	95.46
754.466	96.84
754.646	97.35
754.826	96.39
755.006	97.23
755.187	95.84
755.367	93.6
755.547	93.85
755.727	95.27
755.907	93.5
756.087	94.5
756.267	94.62
756.447	95.12
756.627	93.04
756.807	94.94
756.987	94.52
757.167	93.98
757.346	92.94
757.526	94.35
757.706	94.33
757.886	95.48
758.066	98.16
758.246	98.2
758.425	96.79
758.605	95.39
758.785	93.53
758.965	92.87
759.144	91.79
759.324	91.18
759.504	93.19
759.683	94.36
759.863	93.48
760.043	93.04
760.222	94.36
760.402	93.27
760.581	93.49
760.761	94.17
760.94	94.13
761.12	97.27
761.299	95.57
761.479	94.44
761.658	92.35
761.838	92.64
762.017	90.08
762.197	92.57
762.376	93.6
762.555	93.79
762.735	95.03
762.914	95.26
763.093	96.1
763.273	94.39
763.452	95.66
763.631	93.87
763.81	93.84
763.99	91.97
764.169	91.93
764.348	91.56
764.527	91.46
764.706	90.98
764.885	91.78
765.064	92.52
765.243	92.49
765.423	94.17
765.602	95.25
765.781	95.08
765.96	93.07
766.139	93.17
766.318	92.66
766.497	92.63
766.676	93.25
766.854	96.47
767.033	95.89
767.212	95.21
767.391	93.21
767.57	92.94
767.749	92.64
767.928	93.53
768.106	92.15
768.285	90.74
768.464	89.04
768.643	88.16
768.821	86.18
769	87.28
769.179	90.94
769.357	90.04
769.536	90.25
769.715	92.53
769.893	93.08
770.072	89.97
770.25	90.88
770.429	90.54
770.607	89.12
770.786	88.8
770.964	90.65
771.143	93.2
771.321	94.2
771.5	94.46
771.678	96.03
771.857	96.91
772.035	95.12
772.213	93.52
772.392	94.01
772.57	94.06
772.748	90.29
772.927	90.93
773.105	92.9
773.283	92.93
773.461	93.24
773.64	94.29
773.818	92.49
773.996	92.17
774.174	91.96
774.352	91.33
774.531	92.01
774.709	90.55
774.887	88.4
775.065	87.33
775.243	85.49
775.421	84.67
775.599	86.19
775.777	84.95
775.955	85.45
776.133	86.9
776.311	88.54
776.489	88.59
776.667	91.13
776.844	91.5
777.022	90.56
777.2	87.55
777.378	86.79
777.556	88.74
777.734	89.22
777.911	90.65
778.089	93.49
778.267	93.83
778.445	88.23
778.622	86.46
778.8	86.02
778.978	88.29
779.155	87.67
779.333	87.4
779.511	85.32
779.688	85.15
779.866	81.17
780.043	81.06
780.221	84.18
780.398	87.74
780.576	87.13
780.753	88.06
780.931	87.84
781.108	87.46
781.286	86.33
781.463	85.24
781.64	84.91
781.818	89.14
781.995	91.37
782.172	92.1
782.35	93.3
782.527	95.89
782.704	94.3
782.882	93.5
783.059	91.82
783.236	88.69
783.413	86.88
783.59	87.02
783.768	82.98
783.945	81.3
784.122	84.21
784.299	83.02
784.476	81.83
784.653	84.73
784.83	86.68
785.007	84.58
785.184	84.31
785.361	87.14
785.538	88.12
785.715	88.74
785.892	91.48
786.069	92.89
786.246	91.68
786.423	90.7
786.6	89.96
786.776	88.98
786.953	88.42
787.13	89.65
787.307	89.39
787.484	90.92
787.66	90.76
787.837	94.76
788.014	97.46
788.191	98.55
788.367	100.29
788.544	102.61
788.721	99.93
788.897	93.81
789.074	91.5
789.25	89.79
789.427	85.98
789.603	80.79
789.78	81.63
789.956	82.86
790.133	82.68
790.309	85.06
790.486	88.12
790.662	90.97
790.839	88.35
791.015	84.12
791.192	85.33
791.368	90.23
791.544	82.06
791.721	86
791.897	90.19
792.073	88.5
792.249	83.76
792.426	89.14
792.602	88.32
792.778	85.71
792.954	83.57
793.13	84.75
793.307	86.18
793.483	86.21
793.659	89.22
793.835	89.8
794.011	87.7
794.187	82.39
794.363	75.56
794.539	75.01
794.715	73.26
794.891	75.62
795.067	77.76
795.243	85.08
795.419	84.2
795.595	89.51
795.771	89.91
795.947	87.44
796.122	85.39
796.298	89.05
796.474	83.85
796.65	80.44
796.826	81.63
797.001	81.27
797.177	82.27
797.353	84.35
797.529	90.77
797.704	93.54
797.88	98.43
798.056	96.35
798.231	94.95
798.407	96.38
798.582	96.91
798.758	96.95
798.934	90.92
799.109	90.77
799.285	87.55
799.46	81.44
799.636	78.88
799.811	80.67
799.986	83.43
800.162	89.26
800.337	92.96
800.513	91.24
800.688	92.42
800.863	92.75
801.039	87.79
801.214	88.82
801.389	84.58
801.565	79.25
801.74	77.46
801.915	77.23
802.09	82.63
802.265	86.1
802.441	89.5
802.616	86.43
802.791	80.25
802.966	80.59
803.141	81.62
803.316	77.65
803.491	72.73
803.666	84.19
803.841	79.17
804.016	82
804.191	83.28
804.366	98.41
804.541	88.7
804.716	87.86
804.891	76.26
805.066	82.48
805.241	72.08
805.416	78.87
805.591	78.31
805.765	85.62
805.94	82.71
806.115	87.57
806.29	84.39
806.464	81.72
806.639	81.19
806.814	81.02
806.989	69.22
807.163	66.97
807.338	69.16
807.512	66.05
807.687	65.07
807.862	75.11
808.036	85.28
808.211	78.59
808.385	83.09
808.56	82.04
808.734	73.83
808.909	71.09
809.083	74.82
809.258	80
809.432	83.87
809.606	81.07
809.781	76.23
809.955	79.93
810.13	71.94
810.304	65.73
810.478	65.6
810.652	73.9
810.827	74.81
811.001	83.84
811.175	90.59
811.349	99.63
811.524	82.78
811.698	73.29
811.872	78.02
812.046	71
812.22	79.31
812.394	79.38
812.568	97.06
812.742	83.23
812.916	99.92
813.09	92.09
813.264	107.89
813.438	96.14
813.612	91.46
813.786	81.5
813.96	79.1
814.134	76.11
814.308	70.51
814.482	71.62
814.656	80.56
814.83	92.26
815.003	91.19
815.177	97.58
815.351	110.75
815.525	98.3
815.698	94.3
815.872	96.52
816.046	100.03
816.219	89.36
816.393	89.29
816.567	89.7
816.74	76.9
816.914	73.86
817.088	81
817.261	82.66
817.435	84.5
817.608	90.49
817.782	94.19
817.955	92.99
818.129	91.13
818.302	82.65
818.475	81.01
818.649	80.32
818.822	71.19
818.996	70.48
819.169	76.55
819.342	75.14
819.516	64.42
819.689	81.49
819.862	81.69
820.035	75.07
820.209	76.8
820.382	89.86
820.555	75.09
820.728	84.32
820.901	94.48
821.075	87.23
821.248	84.73
821.421	87.47
821.594	82.94
821.767	95.81
821.94	94.59
822.113	101.17
822.286	99.49
822.459	110.44
822.632	98.65
822.805	110.17
822.978	111.12
823.151	108.06
823.324	88.32
823.496	85.14
823.669	90.22
823.842	78.26
824.015	81.08
824.188	89.03
824.361	70.55
824.533	59.33
824.706	73.93
824.879	66.07
825.051	69.67
825.224	85.59
825.397	81.25
825.569	69.43
825.742	70.4
825.915	61.62
826.087	60.81
826.26	65.7
826.432	65.58
826.605	85.43
826.777	87.02
826.95	82.83
827.122	105.8
827.295	118.38
827.467	96.58
827.64	90.58
827.812	84.62
827.984	82.5
828.157	71.5
828.329	92.99
828.501	104.11
828.674	116.2
828.846	97.81
829.018	105.33
829.19	93.41
829.363	94.95
829.535	91.56
829.707	101.16
829.879	96.18
830.051	89.27
830.223	86.24
830.395	69.53
830.568	61.64
830.74	71.94
830.912	80.88
831.084	103.16
831.256	104.47
831.428	111.12
831.6	107.18
831.772	93.59
831.943	57.45
832.115	78.24
832.287	89.17
832.459	73.64
832.631	89.4
832.803	94.08
832.975	103.01
833.146	97.05
833.318	101.27
833.49	108.67
833.662	106.55
833.833	91.89
834.005	101.2
834.177	118.5
834.348	94.62
834.52	88.69
834.692	99.68
834.863	83.9
835.035	74.45
835.206	53.76
835.378	72.64
835.549	62.6
835.721	59.88
835.892	60.85
836.064	82.06
836.235	82.91
836.407	94.91
836.578	101.02
836.749	115.04
836.921	101.72
837.092	95.28
837.264	94.87
837.435	117.54
837.606	94.74
837.777	69.45
837.949	70.41
838.12	56.83
838.291	50.42
838.462	66.12
838.633	84.65
838.805	81.66
838.976	106.96
839.147	98.41
839.318	89.29
839.489	74.99
839.66	84.51
839.831	82.03
840.002	85.99
840.173	75.75
840.344	57.32
840.515	41.64
840.686	31.84
840.857	14.4
841.028	24.09
841.199	53.98
841.369	55.37
841.54	70.17
841.711	92.62
841.882	82.88
842.053	57.64
842.223	65.11
842.394	80.56
842.565	72.13
842.736	93.3
842.906	108.56
843.077	108.29
843.248	90.49
843.418	120.93
843.589	109.59
843.759	112.54
843.93	107.76
844.101	80.89
844.271	79.91
844.442	83.8
844.612	76.74
844.783	78.45
844.953	80.21
845.123	86
845.294	110.24
845.464	129.7
845.635	103.25
845.805	118.75
845.975	91.71
846.146	43.36
846.316	37.14
846.486	64.13
846.656	65.92
846.827	86.26
846.997	103.37
847.167	148.63
847.337	102.14
847.507	101.31
847.677	105.72
847.848	134.86
848.018	117.58
848.188	134.76
848.358	139.86
848.528	109.51
848.698	93.49
848.868	86.84
849.038	92.67
849.208	93.53
849.378	112.37
849.548	130.25
849.718	152.08
849.887	137.6
850.057	127.18
850.227	172.16
850.397	123.86
850.567	92.93
850.737	101.06
850.906	91.77
851.076	54.39
851.246	56.97
851.415	55.18
851.585	35.78
851.755	44.99
851.924	75.17
852.094	73.38
852.264	82.91
852.433	70.73
852.603	74.92
852.772	53.76
852.942	45.95
853.111	21.91
853.281	46.47
853.45	45.57
853.62	41.65
853.789	45.41
853.959	55.09
854.128	47.54
854.297	48.61
854.467	59.2
854.636	53.09
854.805	57.3
854.975	67.78
855.144	124.54
855.313	98.57
855.482	125.78
855.652	100.08
855.821	118.19
855.99	87.26
856.159	124.07
856.328	123.1
856.497	145.6
856.667	106.25
856.836	167.42
857.005	86.87
857.174	-5.51
857.343	-31.55
857.512	-154.26
857.681	-15.37
857.85	40.67
858.019	55.39
858.188	59.53
858.356	91.39
858.525	94.28
858.694	79.74
858.863	164.07
859.032	188.24
859.201	128.88
859.369	133.66
859.538	166.54
859.707	95.77
859.876	93.07
860.044	78.39
860.213	79.79
860.382	69.16
860.55	74.88
860.719	87.88
860.888	64.46
861.056	47.08
861.225	63.33
861.393	74.71
861.562	78.7
861.73	94.73
861.899	106.05
862.067	92.08
862.236	139.36
862.404	129.8
862.572	143.02
862.741	107.94
862.909	112.64
863.078	14.78
863.246	23.13
863.414	31.64
863.582	24.94
863.751	48.49
863.919	24.27
864.087	59.5
864.255	44.14
864.424	67.29
864.592	51.08
864.76	85.97
864.928	89.19
865.096	89.97
865.264	80.73
865.432	89.17
865.6	61.85
865.768	43.21
865.936	48.49
866.104	53.93
866.272	62.64
866.44	68.56
866.608	72.43
866.776	51.64
866.944	31.4
867.112	17.32
867.28	2.87
867.448	72.93
867.615	225.12
867.783	116.63
867.951	78.98
868.119	102.58
868.286	67.95
868.454	68.4
868.622	93.47
868.789	145.33
868.957	72.26
869.125	35.77
869.292	1.91
869.46	-8.34
869.627	27.9
869.795	26.04
869.963	51.27
870.13	59.62
870.298	54.23
870.465	38.24
870.632	52.49
870.8	66.33
870.967	85.06
871.135	114.05
871.302	162.09
871.469	-375.22
871.637	112.09
871.804	81.45
871.971	48.55
872.139	42.36
872.306	40.36
872.473	45.55
872.64	30.84
872.807	49.77
872.975	98.45
873.142	155.58
873.309	3739.13
873.476	1107.91
873.643	343.83
873.81	184.7
873.977	141.68
874.144	133.53
874.311	101.39
874.478	73.13
874.645	78.18
874.812	77.2
874.979	55.41
875.146	59.98
875.313	99.01
875.48	4.28
875.647	-293.81
875.813	458.67
875.98	-424.24
876.147	78.32
876.314	163.37
876.481	-9.21
876.647	13.52
876.814	59.41
876.981	148.75
877.147	64.73
877.314	80
877.481	104.43
877.647	107.16
877.814	73.27
877.98	60.79
878.147	95.41
878.314	189.11
878.48	109.48
878.647	106.26
878.813	1618.6
878.979	217.49
879.146	105.66
879.312	131.7
879.479	106.92
879.645	89.6
879.811	81.62
879.978	89.91
880.144	71.86
880.31	73.81
880.477	57.77
880.643	81.32
880.809	148.53
880.975	8836.36
881.142	-676.11
881.308	-3472
881.474	360.49
881.64	96.68
881.806	35.69
881.972	33.22
882.138	61.77
882.304	85.91
882.47	127.13
882.636	190.84
882.802	170.41
882.968	174.12
883.134	88.63
883.3	66.4
883.466	88.85
883.632	70.51
883.798	70.27
883.964	73.98
884.129	101.59
884.295	76.12
884.461	69.34
884.627	98.86
884.793	82.65
884.958	80.56
885.124	60.27
885.29	27.83
885.455	-34.46
885.621	-37.47
885.787	-29.67
885.952	174.25
886.118	107.18
886.283	989.47
886.449	127.22
886.614	166.46
886.78	157.76
886.945	200.31
887.111	112.46
887.276	138.21
887.442	90.44
887.607	21.6
887.773	53.98
887.938	21.23
888.103	-12.31
888.269	-32.54
888.434	-18.06
888.599	-17.8
888.764	35.05
888.93	51.26
889.095	109.09
889.26	267.07
889.425	486.55
889.59	-1397.1
889.756	909.92
889.921	327.27
890.086	219.48
890.251	254.21
890.416	139.42
890.581	106.84
890.746	107.68
890.911	89.83
891.076	88.23
891.241	68.02
891.406	74.51
891.571	48.61
891.736	74.6
891.901	-17.27
892.065	-2.58
892.23	87.58
892.395	81.28
892.56	103.83
892.725	224.41
892.889	170.21
893.054	57.89
893.219	69.07
893.384	67.16
893.548	42.59
893.713	77.78
893.878	9.47
