Data from Ofav_PS_Phys_0HS3_Reflection_2.txt Node
Date: Thu Jul 29 18:17:24 EDT 2021
User: USUARIO
Spectrometer: FLMT01687
Trigger mode: 0
Integration Time (sec): 9.010000E-1
Scans to average: 2
Electric dark correction enabled: true
Nonlinearity correction enabled: false
Boxcar width: 2
XAxis mode: Wavelengths
Number of Pixels in Spectrum: 3648
>>>>>Begin Spectral Data<<<<<
179.494	72.38
179.716	45.95
179.937	0
180.158	40.68
180.38	69.89
180.601	-390.55
180.823	-147.37
181.044	-78.61
181.265	-28.78
181.486	-216.95
181.708	143.54
181.929	339.75
182.15	10628.57
182.372	-121.41
182.593	3.35
182.814	-20.93
183.035	-358.76
183.257	110.99
183.478	71.85
183.699	73.83
183.92	62.51
184.141	86.39
184.363	49.53
184.584	68.21
184.805	52.79
185.026	57.65
185.247	32.2
185.468	46.55
185.689	10.27
185.91	39.14
186.132	26.32
186.353	64.65
186.574	79.96
186.795	99.65
187.016	93.76
187.237	70.23
187.458	63.37
187.679	51.79
187.9	42.78
188.121	23.17
188.342	47.41
188.563	40.1
188.784	29.62
189.005	14.27
189.226	30.81
189.447	34.12
189.667	11.59
189.888	10.7
190.109	11.3
190.33	-55.73
190.551	-59.64
190.772	-12.88
190.993	-7.48
191.214	11.61
191.434	28.8
191.655	51.41
191.876	59.05
192.097	60.38
192.318	38.07
192.538	42.36
192.759	39.97
192.98	19.14
193.201	40.13
193.421	49.68
193.642	57.96
193.863	31.18
194.083	56.39
194.304	35.84
194.525	34.57
194.745	14.02
194.966	0.71
195.187	-6.13
195.407	-8.55
195.628	-79.52
195.848	-41.23
196.069	14.53
196.29	29.11
196.51	23.23
196.731	50.26
196.951	14.7
197.172	-14.57
197.392	-33.65
197.613	-42.11
197.833	-67.6
198.054	-23.51
198.274	-7.7
198.495	42.96
198.715	34.96
198.936	66.81
199.156	79.63
199.377	67.98
199.597	52.95
199.817	29.47
200.038	5.84
200.258	-13.14
200.479	-66.32
200.699	-81.68
200.919	-6.46
201.14	-21.78
201.36	-5.36
201.58	14.22
201.801	39.73
202.021	73.79
202.241	101.96
202.461	134.34
202.682	146.63
202.902	112.33
203.122	64.78
203.342	61.31
203.563	35.01
203.783	21.31
204.003	8.07
204.223	-41.11
204.443	-20.72
204.663	14.47
204.884	50.84
205.104	34.75
205.324	28.85
205.544	37.21
205.764	8.21
205.984	14.36
206.204	26.8
206.424	56
206.644	45.41
206.864	40.09
207.084	-2.38
207.304	26.56
207.525	7.44
207.745	46.06
207.964	54.34
208.184	96.84
208.404	47.41
208.624	51.89
208.844	36.57
209.064	47.59
209.284	45.31
209.504	65.34
209.724	66.56
209.944	67.95
210.164	54.99
210.384	55.09
210.604	48.76
210.823	29.11
211.043	22.78
211.263	49.51
211.483	26.56
211.703	12.85
211.922	29.65
212.142	36.82
212.362	13.57
212.582	27.67
212.801	37.49
213.021	21.77
213.241	22.32
213.461	25.64
213.68	5.99
213.9	-1.04
214.12	10.32
214.339	-8.73
214.559	-20.2
214.779	5.42
214.998	-10.27
215.218	-31.18
215.438	-5.3
215.657	13.6
215.877	36.68
216.096	33.73
216.316	35.11
216.535	47.61
216.755	47.53
216.974	-26.39
217.194	-3.88
217.413	15.45
217.633	12.88
217.852	-8.51
218.072	-10.03
218.291	-24.71
218.511	11.12
218.73	5.39
218.95	8.8
219.169	18.72
219.389	25.13
219.608	4.96
219.827	5.42
220.047	10.05
220.266	1.19
220.485	21.04
220.705	16.78
220.924	9.72
221.143	-1.02
221.363	-15.15
221.582	-51.1
221.801	-147
222.021	-100.11
222.24	-36.48
222.459	-5.27
222.678	15.91
222.897	22.03
223.117	35.64
223.336	29.86
223.555	23.21
223.774	20.43
223.993	41.88
224.213	20.66
224.432	20.62
224.651	42.55
224.87	30.47
225.089	30.7
225.308	29.81
225.527	28.89
225.746	-1.72
225.965	7.88
226.184	-22.62
226.404	-4.78
226.623	17.21
226.842	26.01
227.061	28.44
227.28	61.01
227.499	69.16
227.718	69.57
227.936	50.41
228.155	39.33
228.374	9.45
228.593	3.71
228.812	-2.6
229.031	-6.16
229.25	14.99
229.469	17.99
229.688	6.42
229.907	26.99
230.125	29.14
230.344	22.57
230.563	19.17
230.782	44.24
231.001	19.33
231.22	37.64
231.438	25.67
231.657	26.14
231.876	33.65
232.095	38.43
232.313	21.32
232.532	23.79
232.751	37.26
232.969	13.64
233.188	12.24
233.407	-1.15
233.625	13.68
233.844	8.62
234.063	1.24
234.281	5.17
234.5	4.84
234.719	-2.85
234.937	-19.26
235.156	0.71
235.374	21
235.593	33.6
235.811	50.17
236.03	41.19
236.249	29.56
236.467	29.41
236.686	20.37
236.904	-3.03
237.123	8.47
237.341	5.8
237.559	-6.74
237.778	6.95
237.996	31.38
238.215	26.85
238.433	35.56
238.652	41.18
238.87	32.44
239.088	26.03
239.307	25.62
239.525	23.14
239.743	18.62
239.962	16.1
240.18	18.54
240.398	18.57
240.617	4.34
240.835	-13.49
241.053	-4.6
241.271	-9.63
241.49	-17.67
241.708	4.45
241.926	11.29
242.144	-5.14
242.363	8.74
242.581	9.7
242.799	3.06
243.017	-4.88
243.235	4.25
243.453	1.41
243.672	-4.62
243.89	-16.15
244.108	9.91
244.326	19.72
244.544	-0.47
244.762	18.34
244.98	28.99
245.198	23.35
245.416	16.05
245.634	24.27
245.852	44.7
246.07	55.36
246.288	57.85
246.506	54.64
246.724	42.31
246.942	27.44
247.16	25.9
247.378	5.47
247.596	11.55
247.814	14.96
248.032	7.62
248.25	-3.58
248.468	-5.43
248.685	-11.43
248.903	4.88
249.121	10.16
249.339	-5.69
249.557	7.62
249.775	14.38
249.992	-8.94
250.21	-13.79
250.428	19.57
250.646	16.2
250.863	16.1
251.081	32.12
251.299	44.77
251.517	40.3
251.734	58.03
251.952	57.14
252.17	47.27
252.387	41.02
252.605	45.54
252.823	28.76
253.04	44.28
253.258	41.94
253.475	35.49
253.693	23.34
253.911	15.38
254.128	-1.96
254.346	-9.69
254.563	-20.21
254.781	-36.32
254.998	-14.01
255.216	-34.77
255.433	-13.12
255.651	-8.52
255.868	-11.15
256.086	-7.33
256.303	10.89
256.521	17.75
256.738	14.95
256.956	18.18
257.173	28.85
257.39	35.82
257.608	23.51
257.825	42.76
258.043	42.56
258.26	26.33
258.477	5.79
258.695	7.15
258.912	-12.44
259.129	-11.98
259.346	3.76
259.564	3.59
259.781	-3.24
259.998	26.35
260.216	28.77
260.433	21.01
260.65	25.49
260.867	36.14
261.084	30.08
261.302	28.68
261.519	38.06
261.736	33.1
261.953	22.48
262.17	31.62
262.387	24.67
262.604	10.39
262.822	16.8
263.039	20.84
263.256	-8.08
263.473	7.93
263.69	5.22
263.907	7.92
264.124	-2.32
264.341	17.29
264.558	7.27
264.775	0.6
264.992	-0.73
265.209	1.77
265.426	2.53
265.643	14.85
265.86	18.47
266.077	20.54
266.294	20.68
266.51	3.57
266.727	3.01
266.944	-0.44
267.161	-11.15
267.378	-12.42
267.595	17.4
267.812	9.16
268.028	4.3
268.245	11.14
268.462	15.64
268.679	1.77
268.896	-2.34
269.112	1.66
269.329	-2.15
269.546	4.64
269.763	-9.66
269.979	-4.5
270.196	11.27
270.413	26.27
270.629	34.13
270.846	49.38
271.063	45.58
271.279	35.46
271.496	19.21
271.712	19
271.929	23.33
272.146	32.22
272.362	35.29
272.579	45.7
272.795	39.1
273.012	25.36
273.228	17.53
273.445	29.31
273.661	20.01
273.878	4.22
274.094	36.1
274.311	41.16
274.527	32.98
274.744	47.43
274.96	61.59
275.177	28.24
275.393	35.34
275.609	31.18
275.826	1.06
276.042	-8.32
276.259	3.41
276.475	-5.86
276.691	2.3
276.908	17.5
277.124	19.33
277.34	16.56
277.557	6.93
277.773	11.31
277.989	18.6
278.205	30.47
278.422	36.63
278.638	29.76
278.854	32.4
279.07	36.36
279.286	12.55
279.503	14.62
279.719	26.49
279.935	17.03
280.151	-15.98
280.367	4.46
280.583	9.51
280.799	-1.4
281.016	12.42
281.232	31.46
281.448	8.86
281.664	24.03
281.88	17.78
282.096	7.84
282.312	-12.08
282.528	-5.44
282.744	-36.16
282.96	-29.49
283.176	-37.01
283.392	6.86
283.608	22.42
283.824	23.21
284.04	18.26
284.256	36.59
284.471	28.05
284.687	-1.43
284.903	-6.81
285.119	15
285.335	3.66
285.551	10.37
285.767	27.31
285.982	31.94
286.198	28.33
286.414	38.07
286.63	41.07
286.846	36.1
287.061	44.68
287.277	47.16
287.493	43.98
287.709	28.11
287.924	42.28
288.14	23.97
288.356	34.68
288.571	37.43
288.787	36.9
289.003	21.3
289.218	21.33
289.434	20.9
289.65	27.25
289.865	33.41
290.081	19.77
290.296	38.28
290.512	20.01
290.727	11.89
290.943	13.16
291.159	23.41
291.374	11.79
291.59	5.14
291.805	-9.33
292.021	-20.62
292.236	-17.25
292.451	-30.25
292.667	-10.1
292.882	-6.42
293.098	7.21
293.313	4.74
293.529	17.27
293.744	3.35
293.959	4.98
294.175	17.31
294.39	20.67
294.605	19.36
294.821	32.04
295.036	35.76
295.251	27.15
295.467	32.64
295.682	32.44
295.897	27.06
296.112	34.79
296.328	42.2
296.543	18.99
296.758	10.04
296.973	16.56
297.188	17.27
297.404	1.03
297.619	20.19
297.834	14.2
298.049	23.63
298.264	16.54
298.479	33.2
298.694	26.88
298.909	23.08
299.125	16.05
299.34	9.1
299.555	-9.23
299.77	12.71
299.985	8.92
300.2	4.89
300.415	13.06
300.63	33.01
300.845	17.5
301.06	21.99
301.275	11.49
301.49	-7.13
301.704	-40.43
301.919	-0.61
302.134	17.97
302.349	11.45
302.564	23.18
302.779	17.99
302.994	0.64
303.209	-7.34
303.423	19.94
303.638	6.47
303.853	1.5
304.068	18.19
304.283	25.68
304.497	23.32
304.712	16.21
304.927	38.31
305.142	42.51
305.356	22.74
305.571	29.61
305.786	33.24
306	0.47
306.215	12.24
306.43	25.51
306.644	0.78
306.859	11
307.074	40.03
307.288	5.2
307.503	8.54
307.717	28.3
307.932	22.82
308.147	14.02
308.361	35.23
308.576	27.55
308.79	4.92
309.005	17.55
309.219	26.55
309.434	16.82
309.648	10.32
309.863	16.41
310.077	-10.34
310.292	-9.65
310.506	-20.58
310.72	-10.89
310.935	-24.97
311.149	-0.66
311.364	3.03
311.578	11.24
311.792	5.38
312.007	16.02
312.221	5.01
312.435	-6.83
312.649	-13.34
312.864	-265.37
313.078	-177.39
313.292	-158.42
313.507	-121.32
313.721	-99.77
313.935	-0
314.149	5.43
314.363	9.95
314.578	5.49
314.792	8.66
315.006	21.04
315.22	20.26
315.434	41.9
315.648	51.44
315.862	46.33
316.077	35.31
316.291	31.63
316.505	26.85
316.719	18.73
316.933	14.71
317.147	30.18
317.361	15.7
317.575	3.47
317.789	-2.21
318.003	5.61
318.217	5.74
318.431	14.22
318.645	13.75
318.859	24.12
319.073	14.91
319.287	11.78
319.5	6.24
319.714	9.04
319.928	0.78
320.142	13.61
320.356	11.41
320.57	20.86
320.784	21.77
320.997	16.08
321.211	17.03
321.425	27.86
321.639	15.28
321.853	14.64
322.066	12.16
322.28	8.86
322.494	6.79
322.707	33.66
322.921	28.65
323.135	22.03
323.349	24.06
323.562	11.57
323.776	-5.48
323.989	3.89
324.203	18.95
324.417	18.24
324.63	23.39
324.844	19
325.057	16.65
325.271	7.51
325.485	2.92
325.698	2.8
325.912	6.43
326.125	8.41
326.339	13.45
326.552	18.19
326.766	25.62
326.979	27.9
327.193	18.93
327.406	21.08
327.619	18.66
327.833	14.92
328.046	22.79
328.26	38.85
328.473	29.12
328.686	24.92
328.9	-3.71
329.113	-37.1
329.326	-55.23
329.54	-80.27
329.753	-60.97
329.966	-23.11
330.179	-8.69
330.393	-5.04
330.606	8.6
330.819	10.63
331.032	7.3
331.246	0.73
331.459	-8.61
331.672	-6.46
331.885	-2.76
332.098	13.79
332.311	28.9
332.525	25.2
332.738	23.05
332.951	7.19
333.164	0.31
333.377	-31.54
333.59	-18.06
333.803	-2.07
334.016	3.62
334.229	0.45
334.442	20.45
334.655	21.14
334.868	16.07
335.081	38.08
335.294	38.81
335.507	32.53
335.72	41.67
335.933	33.64
336.146	25.09
336.359	19.23
336.572	17.71
336.785	1.44
336.997	14.93
337.21	14.84
337.423	32.54
337.636	30.66
337.849	28.76
338.062	16.44
338.274	2.75
338.487	-18.76
338.7	-20.92
338.913	-11.6
339.125	-5.55
339.338	5.54
339.551	10.35
339.763	7.32
339.976	-13.27
340.189	7.26
340.402	-3.27
340.614	-8.68
340.827	5.62
341.039	33.61
341.252	16.71
341.465	23.61
341.677	21.69
341.89	16.07
342.102	5.28
342.315	14.95
342.527	12.53
342.74	18.01
342.952	20.83
343.165	36.22
343.377	19.11
343.59	22.66
343.802	22.06
344.015	15.81
344.227	3.44
344.44	11.21
344.652	15.13
344.864	4.37
345.077	18.37
345.289	16.12
345.502	23.07
345.714	21.31
345.926	24.74
346.139	7.97
346.351	10.4
346.563	13.59
346.775	1.41
346.988	2.75
347.2	12.07
347.412	2.4
347.624	10.93
347.837	5.42
348.049	-0.49
348.261	-5.19
348.473	10.46
348.685	-15.85
348.897	-0.68
349.11	-0
349.322	-0.25
349.534	-1.08
349.746	12.23
349.958	13.01
350.17	22.37
350.382	23.04
350.594	26.09
350.806	33.55
351.018	11.72
351.23	0.84
351.442	-4.15
351.654	6.11
351.866	-17.92
352.078	18.98
352.29	18.74
352.502	25.31
352.714	12.81
352.926	24.57
353.138	10.21
353.35	11
353.561	-3.44
353.773	16.65
353.985	11.44
354.197	13.54
354.409	18.68
354.621	11.55
354.832	-15.76
355.044	-11.28
355.256	-2.64
355.468	-13.42
355.679	10.6
355.891	25.53
356.103	37.08
356.314	33.78
356.526	35.91
356.738	27.76
356.949	21.76
357.161	4.25
357.373	5.46
357.584	12.83
357.796	15.27
358.008	16.29
358.219	26.59
358.431	5.78
358.642	-17.35
358.854	-17.32
359.065	-7.43
359.277	-13.21
359.488	-7.72
359.7	1.01
359.911	9.54
360.123	-0.14
360.334	8.72
360.546	9.18
360.757	7.73
360.969	4.71
361.18	11.7
361.391	6.05
361.603	2.15
361.814	11.39
362.025	2.36
362.237	8.1
362.448	10.5
362.659	8.37
362.871	9.08
363.082	24.12
363.293	12.31
363.504	14.61
363.716	12.47
363.927	8.46
364.138	-12.62
364.349	-10.87
364.56	-2.75
364.772	0.96
364.983	8.64
365.194	13.75
365.405	24.03
365.616	7.26
365.827	17.47
366.038	12.65
366.25	0.73
366.461	-0.93
366.672	-10.32
366.883	-14.63
367.094	-23.73
367.305	8.37
367.516	16.46
367.727	23.09
367.938	19.64
368.149	20.72
368.36	13.58
368.571	4.6
368.781	-0
368.992	-5.09
369.203	0.79
369.414	0.99
369.625	4.36
369.836	14.1
370.047	9.95
370.258	15.26
370.468	18.97
370.679	7.61
370.89	-8.97
371.101	11.19
371.312	-1.78
371.522	-6.67
371.733	5.39
371.944	15.25
372.155	-14.08
372.365	-9.95
372.576	-23.34
372.787	-18.6
372.997	-12.43
373.208	-0.91
373.419	4.25
373.629	23.03
373.84	22.73
374.05	16.77
374.261	19.57
374.472	18.38
374.682	2.85
374.893	10.22
375.103	13.07
375.314	19.47
375.524	10.78
375.735	27.51
375.945	23.8
376.156	28.41
376.366	7.98
376.577	27.21
376.787	16.88
376.997	17.47
377.208	-1.12
377.418	1.61
377.629	-5.92
377.839	4.68
378.049	8.56
378.26	21.75
378.47	29.34
378.68	31.66
378.89	34.04
379.101	20.75
379.311	17.81
379.521	12.34
379.732	2.92
379.942	-8.63
380.152	-0.24
380.362	-1.94
380.572	-0.82
380.783	-2.19
380.993	7.26
381.203	8.67
381.413	4.63
381.623	1.24
381.833	17.57
382.043	19.05
382.253	11.96
382.463	13.92
382.674	17.54
382.884	11.04
383.094	-3.96
383.304	-2.69
383.514	-2.53
383.724	2.72
383.934	-2.52
384.144	4.84
384.353	10.58
384.563	19.73
384.773	15.07
384.983	13.99
385.193	15.36
385.403	9.86
385.613	8.8
385.823	12.77
386.033	11.4
386.242	10.94
386.452	6.82
386.662	1.15
386.872	0.49
387.082	3.1
387.291	-0.42
387.501	4.96
387.711	3.15
387.921	2.44
388.13	2.59
388.34	3.87
388.55	3.74
388.759	4.81
388.969	2.44
389.179	-0.61
389.388	0.51
389.598	0.91
389.807	1.13
390.017	4.25
390.227	10.76
390.436	11.49
390.646	8.5
390.855	7.58
391.065	5.57
391.274	3.39
391.484	0.59
391.693	1.17
391.903	2.38
392.112	3.81
392.322	2.93
392.531	4.37
392.74	5.74
392.95	6.02
393.159	6.15
393.369	8.05
393.578	8.2
393.787	8.5
393.997	7.49
394.206	7.9
394.415	7.73
394.625	7.7
394.834	6.89
395.043	6.8
395.252	6.32
395.462	5.74
395.671	6.05
395.88	7.14
396.089	7.44
396.298	7.87
396.508	7.48
396.717	7.25
396.926	7.09
397.135	6.55
397.344	6.55
397.553	6.92
397.762	7.35
397.971	7.2
398.181	7.71
398.39	7.15
398.599	7.03
398.808	6.93
399.017	6.74
399.226	6.72
399.435	7.37
399.644	7.9
399.853	8.07
400.062	8.5
400.27	8.92
400.479	8.74
400.688	8.35
400.897	8.2
401.106	7.85
401.315	7.62
401.524	7.64
401.733	7.81
401.941	7.43
402.15	7.57
402.359	7.48
402.568	7.52
402.777	7.18
402.985	7.46
403.194	7.14
403.403	7.06
403.612	6.71
403.82	6.76
404.029	6.46
404.238	6.66
404.446	6.8
404.655	6.83
404.864	6.78
405.072	6.91
405.281	6.97
405.489	6.98
405.698	7.07
405.906	7.19
406.115	7.11
406.324	6.91
406.532	6.78
406.741	6.96
406.949	7.06
407.158	7.21
407.366	7.27
407.574	7.17
407.783	7.06
407.991	6.75
408.2	6.72
408.408	6.71
408.617	6.83
408.825	6.85
409.033	7.08
409.242	7.21
409.45	7.18
409.658	7.12
409.867	7.01
410.075	7
410.283	6.79
410.491	6.79
410.7	6.83
410.908	6.89
411.116	6.87
411.324	6.92
411.533	6.81
411.741	6.83
411.949	6.92
412.157	6.67
412.365	6.64
412.573	6.67
412.781	6.62
412.99	6.47
413.198	6.52
413.406	6.52
413.614	6.54
413.822	6.49
414.03	6.3
414.238	6.4
414.446	6.36
414.654	6.36
414.862	6.4
415.07	6.37
415.278	6.28
415.486	6.22
415.694	6.25
415.902	6.15
416.109	6.24
416.317	6.33
416.525	6.4
416.733	6.38
416.941	6.48
417.149	6.54
417.357	6.4
417.564	6.34
417.772	6.23
417.98	6.18
418.188	5.94
418.395	5.93
418.603	5.94
418.811	5.9
419.019	6
419.226	6.38
419.434	6.33
419.642	6.21
419.849	6.2
420.057	6.09
420.265	5.89
420.472	5.97
420.68	6.05
420.887	6.15
421.095	6.15
421.302	6.2
421.51	6.24
421.717	6.1
421.925	6.08
422.132	5.99
422.34	5.71
422.547	5.54
422.755	5.63
422.962	5.64
423.17	5.52
423.377	5.96
423.585	5.96
423.792	6.05
423.999	6.06
424.207	6.23
424.414	5.88
424.621	5.92
424.829	6.04
425.036	6
425.243	6.06
425.451	6.03
425.658	6.02
425.865	5.89
426.072	5.81
426.28	5.76
426.487	6.06
426.694	6.02
426.901	5.91
427.108	5.88
427.315	5.97
427.523	5.82
427.73	5.82
427.937	5.91
428.144	5.92
428.351	5.77
428.558	5.85
428.765	5.82
428.972	5.88
429.179	5.92
429.386	5.91
429.593	5.83
429.8	5.86
430.007	5.93
430.214	6.08
430.421	6.33
430.628	6.35
430.835	6.54
431.042	6.44
431.249	6.41
431.456	6.33
431.662	6.5
431.869	6.47
432.076	6.59
432.283	6.56
432.49	6.47
432.697	6.31
432.903	6.22
433.11	6.19
433.317	6.2
433.524	6.34
433.73	6.39
433.937	6.5
434.144	6.39
434.35	6.39
434.557	6.4
434.764	6.44
434.97	6.38
435.177	6.53
435.384	6.54
435.59	6.45
435.797	6.52
436.003	6.65
436.21	6.65
436.416	6.63
436.623	6.7
436.829	6.71
437.036	6.6
437.242	6.6
437.449	6.75
437.655	6.88
437.862	6.93
438.068	7.01
438.275	7
438.481	6.84
438.687	6.61
438.894	6.64
439.1	6.6
439.307	6.66
439.513	6.72
439.719	6.82
439.926	6.72
440.132	6.84
440.338	6.86
440.544	6.86
440.751	6.86
440.957	6.96
441.163	6.97
441.369	7.02
441.575	7.1
441.782	7.08
441.988	6.96
442.194	6.82
442.4	6.75
442.606	6.89
442.812	7.06
443.018	7.19
443.224	7.36
443.431	7.31
443.637	7.2
443.843	7.15
444.049	7.09
444.255	7.03
444.461	7.1
444.667	7.01
444.873	6.92
445.079	6.93
445.284	6.9
445.49	6.84
445.696	6.96
445.902	6.94
446.108	6.86
446.314	6.99
446.52	7.17
446.726	7.12
446.931	7.28
447.137	7.27
447.343	7.25
447.549	7.14
447.755	7.12
447.96	7.16
448.166	7.3
448.372	7.29
448.578	7.42
448.783	7.42
448.989	7.4
449.195	7.23
449.4	7.15
449.606	7.15
449.812	7.17
450.017	7.11
450.223	7.29
450.428	7.41
450.634	7.36
450.84	7.48
451.045	7.48
451.251	7.47
451.456	7.45
451.662	7.42
451.867	7.33
452.073	7.48
452.278	7.41
452.483	7.42
452.689	7.48
452.894	7.53
453.1	7.47
453.305	7.52
453.51	7.55
453.716	7.54
453.921	7.51
454.127	7.55
454.332	7.45
454.537	7.42
454.742	7.5
454.948	7.37
455.153	7.29
455.358	7.44
455.563	7.45
455.769	7.22
455.974	7.35
456.179	7.3
456.384	7.19
456.589	7.22
456.795	7.48
457	7.51
457.205	7.65
457.41	7.75
457.615	7.67
457.82	7.62
458.025	7.53
458.23	7.53
458.435	7.57
458.64	7.62
458.845	7.61
459.05	7.65
459.255	7.65
459.46	7.75
459.665	7.78
459.87	7.77
460.075	7.83
460.28	7.79
460.485	7.69
460.69	7.69
460.895	7.71
461.099	7.64
461.304	7.58
461.509	7.5
461.714	7.52
461.919	7.39
462.123	7.49
462.328	7.58
462.533	7.67
462.738	7.66
462.942	7.79
463.147	7.77
463.352	7.89
463.556	7.9
463.761	7.8
463.966	7.87
464.17	7.94
464.375	7.82
464.58	7.77
464.784	7.88
464.989	7.81
465.193	7.7
465.398	7.72
465.602	7.86
465.807	7.87
466.011	7.88
466.216	7.95
466.42	7.94
466.625	7.89
466.829	7.92
467.034	8.01
467.238	8.05
467.443	8.04
467.647	7.96
467.851	8.02
468.056	8.04
468.26	8.04
468.464	8.19
468.669	8.29
468.873	8.31
469.077	8.24
469.282	8.23
469.486	8.15
469.69	8.09
469.894	7.99
470.099	7.93
470.303	8.07
470.507	8.09
470.711	8.14
470.915	8.2
471.119	8.18
471.324	8.05
471.528	8.09
471.732	8.09
471.936	8.05
472.14	8.12
472.344	8.22
472.548	8.22
472.752	8.33
472.956	8.35
473.16	8.34
473.364	8.3
473.568	8.29
473.772	8.18
473.976	8.2
474.18	8.3
474.384	8.17
474.588	8.14
474.792	8.15
474.995	8.13
475.199	8.06
475.403	8.18
475.607	8.27
475.811	8.25
476.015	8.28
476.218	8.23
476.422	8.18
476.626	8.09
476.83	8.12
477.033	8.14
477.237	8.14
477.441	8.16
477.644	8.19
477.848	8.16
478.052	8.1
478.255	8.14
478.459	8.08
478.663	8.05
478.866	8.05
479.07	8.07
479.273	8.02
479.477	8.05
479.681	8.13
479.884	8.07
480.088	8.04
480.291	8.12
480.495	8.18
480.698	8.07
480.901	8.12
481.105	8.15
481.308	8.03
481.512	7.99
481.715	8.1
481.919	8.15
482.122	8.09
482.325	8.19
482.529	8.16
482.732	8.16
482.935	8.1
483.138	8.07
483.342	8.03
483.545	8.11
483.748	8.07
483.952	8.17
484.155	8.31
484.358	8.31
484.561	8.23
484.764	8.25
484.967	8.23
485.171	8.23
485.374	8.23
485.577	8.29
485.78	8.29
485.983	8.25
486.186	8.17
486.389	8.19
486.592	8.1
486.795	8.12
486.998	8.2
487.201	8.29
487.404	8.35
487.607	8.46
487.81	8.34
488.013	8.24
488.216	8.17
488.419	8.12
488.622	8.11
488.825	8.18
489.028	8.19
489.231	8.23
489.433	8.22
489.636	8.21
489.839	8.21
490.042	8.22
490.245	8.19
490.447	8.27
490.65	8.27
490.853	8.25
491.056	8.26
491.258	8.24
491.461	8.16
491.664	8.14
491.866	8.14
492.069	8.15
492.272	8.12
492.474	8.11
492.677	8.08
492.879	8.12
493.082	8.18
493.285	8.3
493.487	8.32
493.69	8.37
493.892	8.34
494.095	8.29
494.297	8.22
494.5	8.28
494.702	8.3
494.905	8.4
495.107	8.38
495.309	8.52
495.512	8.48
495.714	8.56
495.917	8.54
496.119	8.57
496.321	8.48
496.524	8.53
496.726	8.4
496.928	8.36
497.13	8.4
497.333	8.44
497.535	8.38
497.737	8.41
497.939	8.46
498.142	8.46
498.344	8.49
498.546	8.57
498.748	8.68
498.95	8.66
499.152	8.69
499.355	8.72
499.557	8.77
499.759	8.71
499.961	8.75
500.163	8.76
500.365	8.81
500.567	8.75
500.769	8.73
500.971	8.74
501.173	8.75
501.375	8.73
501.577	8.77
501.779	8.81
501.981	8.81
502.183	8.78
502.385	8.66
502.587	8.55
502.788	8.59
502.99	8.52
503.192	8.57
503.394	8.58
503.596	8.69
503.798	8.71
503.999	8.79
504.201	8.78
504.403	8.81
504.605	8.8
504.806	8.73
505.008	8.71
505.21	8.7
505.411	8.71
505.613	8.68
505.815	8.75
506.016	8.76
506.218	8.7
506.42	8.69
506.621	8.73
506.823	8.67
507.024	8.56
507.226	8.64
507.427	8.66
507.629	8.64
507.83	8.65
508.032	8.7
508.233	8.7
508.435	8.66
508.636	8.66
508.838	8.64
509.039	8.64
509.24	8.53
509.442	8.57
509.643	8.49
509.845	8.5
510.046	8.58
510.247	8.66
510.448	8.63
510.65	8.7
510.851	8.66
511.052	8.59
511.254	8.52
511.455	8.49
511.656	8.42
511.857	8.38
512.058	8.37
512.26	8.39
512.461	8.37
512.662	8.35
512.863	8.35
513.064	8.31
513.265	8.33
513.466	8.38
513.667	8.35
513.868	8.32
514.069	8.27
514.27	8.2
514.471	8.11
514.672	8.13
514.873	8.12
515.074	8.21
515.275	8.23
515.476	8.2
515.677	8.22
515.878	8.32
516.079	8.18
516.28	8.18
516.481	8.2
516.682	8.19
516.882	8.11
517.083	8.2
517.284	8.11
517.485	8.11
517.686	8.06
517.886	8.09
518.087	8.03
518.288	8.04
518.488	8.09
518.689	8.11
518.89	8.09
519.091	8.14
519.291	8.13
519.492	8.1
519.692	8.13
519.893	8.12
520.094	8.06
520.294	8.11
520.495	8.06
520.695	8.08
520.896	8.07
521.096	8.06
521.297	8.06
521.497	8.08
521.698	8
521.898	7.99
522.099	7.99
522.299	7.95
522.499	7.98
522.7	8.02
522.9	8.03
523.101	8.06
523.301	8.07
523.501	8.02
523.702	8.02
523.902	8.01
524.102	8.01
524.302	8.05
524.503	8.1
524.703	8.01
524.903	8.03
525.103	8
525.304	8
525.504	7.99
525.704	8.08
525.904	8.08
526.104	8.11
526.304	8.13
526.504	8.13
526.705	8.05
526.905	8.03
527.105	8.04
527.305	7.97
527.505	7.93
527.705	7.97
527.905	7.97
528.105	7.95
528.305	7.93
528.505	7.98
528.705	7.97
528.905	7.97
529.105	7.93
529.304	7.99
529.504	7.94
529.704	7.92
529.904	7.89
530.104	7.9
530.304	7.87
530.503	7.89
530.703	7.87
530.903	7.91
531.103	7.9
531.303	7.96
531.502	7.98
531.702	8.06
531.902	8.02
532.101	8.05
532.301	8.02
532.501	7.99
532.7	8
532.9	8.04
533.1	8.04
533.299	8
533.499	8.02
533.698	7.97
533.898	7.98
534.097	7.93
534.297	7.98
534.496	7.91
534.696	7.96
534.895	7.98
535.095	8.03
535.294	7.99
535.494	8.06
535.693	7.95
535.892	7.95
536.092	7.91
536.291	7.95
536.491	7.94
536.69	8.02
536.889	7.93
537.088	7.96
537.288	7.96
537.487	7.97
537.686	7.87
537.886	7.98
538.085	7.98
538.284	7.97
538.483	8.02
538.682	8.13
538.882	8.11
539.081	8.17
539.28	8.15
539.479	8.08
539.678	8.07
539.877	8.03
540.076	8
540.275	8.05
540.474	8.1
540.673	8.12
540.872	8.19
541.071	8.16
541.27	8.15
541.469	8.22
541.668	8.22
541.867	8.22
542.066	8.32
542.265	8.33
542.464	8.31
542.663	8.4
542.862	8.51
543.06	8.54
543.259	8.62
543.458	8.64
543.657	8.62
543.856	8.53
544.054	8.47
544.253	8.46
544.452	8.46
544.651	8.49
544.849	8.49
545.048	8.58
545.247	8.6
545.445	8.62
545.644	8.61
545.843	8.63
546.041	8.58
546.24	8.56
546.438	8.57
546.637	8.56
546.836	8.58
547.034	8.57
547.233	8.62
547.431	8.7
547.63	8.74
547.828	8.76
548.027	8.75
548.225	8.71
548.423	8.68
548.622	8.7
548.82	8.72
549.019	8.8
549.217	8.81
549.415	8.84
549.614	8.93
549.812	8.93
550.01	8.99
550.209	9.08
550.407	9.06
550.605	9.02
550.803	9.05
551.002	9.06
551.2	9.05
551.398	9.15
551.596	9.16
551.794	9.23
551.993	9.23
552.191	9.28
552.389	9.31
552.587	9.34
552.785	9.41
552.983	9.46
553.181	9.5
553.379	9.57
553.577	9.59
553.775	9.64
553.973	9.7
554.171	9.72
554.369	9.73
554.567	9.79
554.765	9.72
554.963	9.7
555.161	9.75
555.359	9.74
555.557	9.82
555.755	9.9
555.952	10.06
556.15	10.09
556.348	10.14
556.546	10.19
556.744	10.21
556.941	10.22
557.139	10.32
557.337	10.39
557.535	10.34
557.732	10.41
557.93	10.44
558.128	10.42
558.325	10.49
558.523	10.48
558.721	10.52
558.918	10.47
559.116	10.5
559.313	10.46
559.511	10.6
559.708	10.61
559.906	10.72
560.104	10.82
560.301	10.9
560.498	10.89
560.696	10.95
560.893	10.98
561.091	11.09
561.288	11.19
561.486	11.24
561.683	11.29
561.88	11.34
562.078	11.32
562.275	11.31
562.473	11.4
562.67	11.42
562.867	11.43
563.064	11.41
563.262	11.46
563.459	11.54
563.656	11.62
563.853	11.67
564.051	11.73
564.248	11.76
564.445	11.83
564.642	11.85
564.839	11.97
565.036	12
565.234	12.01
565.431	11.93
565.628	11.97
565.825	11.92
566.022	11.95
566.219	11.96
566.416	11.98
566.613	12
566.81	12
567.007	12.04
567.204	12.13
567.401	12.16
567.598	12.25
567.795	12.32
567.991	12.31
568.188	12.32
568.385	12.31
568.582	12.31
568.779	12.28
568.976	12.34
569.172	12.45
569.369	12.5
569.566	12.5
569.763	12.57
569.96	12.54
570.156	12.5
570.353	12.47
570.55	12.41
570.746	12.42
570.943	12.42
571.14	12.39
571.336	12.46
571.533	12.5
571.729	12.49
571.926	12.61
572.123	12.61
572.319	12.64
572.516	12.68
572.712	12.64
572.909	12.54
573.105	12.59
573.302	12.53
573.498	12.46
573.695	12.51
573.891	12.55
574.087	12.52
574.284	12.6
574.48	12.71
574.677	12.7
574.873	12.64
575.069	12.66
575.266	12.53
575.462	12.47
575.658	12.52
575.854	12.59
576.051	12.54
576.247	12.65
576.443	12.65
576.639	12.62
576.835	12.57
577.032	12.56
577.228	12.53
577.424	12.55
577.62	12.49
577.816	12.42
578.012	12.41
578.208	12.41
578.404	12.38
578.6	12.36
578.796	12.43
578.993	12.47
579.189	12.37
579.384	12.28
579.58	12.21
579.776	12.14
579.972	12.07
580.168	12.1
580.364	12.12
580.56	12.12
580.756	12.11
580.952	12.11
581.148	12.17
581.343	12.17
581.539	12.21
581.735	12.21
581.931	12.19
582.127	12.03
582.322	12.01
582.518	11.97
582.714	11.98
582.909	11.97
583.105	12.01
583.301	12.04
583.496	12
583.692	11.91
583.888	11.92
584.083	12.02
584.279	11.98
584.474	11.99
584.67	11.99
584.866	11.95
585.061	11.82
585.257	11.85
585.452	11.87
585.648	11.87
585.843	11.87
586.039	11.9
586.234	11.85
586.429	11.78
586.625	11.74
586.82	11.69
587.015	11.69
587.211	11.68
587.406	11.63
587.601	11.59
587.797	11.63
587.992	11.6
588.187	11.55
588.383	11.6
588.578	11.62
588.773	11.59
588.968	11.6
589.163	11.64
589.359	11.64
589.554	11.68
589.749	11.62
589.944	11.51
590.139	11.43
590.334	11.41
590.529	11.36
590.724	11.37
590.919	11.45
591.114	11.52
591.309	11.52
591.504	11.59
591.699	11.63
591.894	11.61
592.089	11.64
592.284	11.61
592.479	11.6
592.674	11.57
592.869	11.59
593.064	11.62
593.259	11.73
593.454	11.68
593.648	11.72
593.843	11.84
594.038	11.76
594.233	11.74
594.428	11.73
594.622	11.77
594.817	11.67
595.012	11.7
595.206	11.69
595.401	11.74
595.596	11.66
595.79	11.67
595.985	11.74
596.18	11.78
596.374	11.9
596.569	12.03
596.763	12.1
596.958	12.08
597.153	12.09
597.347	12.05
597.542	12.08
597.736	12.03
597.931	12.02
598.125	12.12
598.319	12.2
598.514	12.27
598.708	12.33
598.903	12.43
599.097	12.43
599.291	12.36
599.486	12.39
599.68	12.39
599.874	12.35
600.069	12.41
600.263	12.46
600.457	12.44
600.651	12.48
600.846	12.48
601.04	12.49
601.234	12.45
601.428	12.45
601.622	12.47
601.817	12.52
602.011	12.49
602.205	12.47
602.399	12.48
602.593	12.47
602.787	12.42
602.981	12.44
603.175	12.54
603.369	12.48
603.563	12.53
603.757	12.56
603.951	12.61
604.145	12.56
604.339	12.58
604.533	12.53
604.727	12.52
604.921	12.46
605.115	12.42
605.309	12.36
605.502	12.37
605.696	12.33
605.89	12.21
606.084	12.21
606.278	12.22
606.471	12.18
606.665	12.12
606.859	12.21
607.053	12.23
607.246	12.3
607.44	12.31
607.634	12.39
607.827	12.33
608.021	12.18
608.214	12.08
608.408	12.01
608.602	11.95
608.795	11.91
608.989	11.95
609.182	11.92
609.376	11.84
609.569	11.78
609.763	11.74
609.956	11.7
610.15	11.64
610.343	11.6
610.537	11.49
610.73	11.48
610.923	11.48
611.117	11.43
611.31	11.34
611.504	11.41
611.697	11.34
611.89	11.27
612.083	11.23
612.277	11.23
612.47	11.22
612.663	11.12
612.856	11.13
613.05	11.2
613.243	11.15
613.436	11.04
613.629	11.07
613.822	11.03
614.015	10.88
614.209	10.86
614.402	10.85
614.595	10.8
614.788	10.71
614.981	10.7
615.174	10.7
615.367	10.57
615.56	10.47
615.753	10.45
615.946	10.39
616.139	10.35
616.332	10.42
616.525	10.44
616.718	10.35
616.911	10.32
617.103	10.38
617.296	10.32
617.489	10.28
617.682	10.39
617.875	10.36
618.067	10.24
618.26	10.22
618.453	10.21
618.646	10.16
618.838	10.18
619.031	10.15
619.224	10.12
619.417	10.1
619.609	9.96
619.802	9.89
619.994	9.87
620.187	9.77
620.38	9.74
620.572	9.8
620.765	9.83
620.957	9.79
621.15	9.8
621.342	9.78
621.535	9.8
621.727	9.77
621.92	9.73
622.112	9.67
622.305	9.62
622.497	9.6
622.69	9.6
622.882	9.59
623.074	9.67
623.267	9.67
623.459	9.62
623.651	9.59
623.844	9.67
624.036	9.63
624.228	9.65
624.42	9.68
624.613	9.62
624.805	9.62
624.997	9.58
625.189	9.66
625.381	9.65
625.574	9.7
625.766	9.66
625.958	9.71
626.15	9.64
626.342	9.64
626.534	9.62
626.726	9.61
626.918	9.56
627.11	9.5
627.302	9.43
627.494	9.4
627.686	9.38
627.878	9.39
628.07	9.38
628.262	9.35
628.454	9.29
628.646	9.3
628.838	9.32
629.029	9.24
629.221	9.26
629.413	9.28
629.605	9.13
629.797	9.06
629.989	9.07
630.18	9.03
630.372	9
630.564	9.12
630.755	9.15
630.947	9.11
631.139	9.08
631.33	9.04
631.522	8.95
631.714	8.89
631.905	8.95
632.097	8.88
632.289	8.93
632.48	8.94
632.672	8.96
632.863	8.93
633.055	8.99
633.246	8.95
633.438	8.92
633.629	8.83
633.821	8.78
634.012	8.73
634.203	8.72
634.395	8.77
634.586	8.84
634.777	8.77
634.969	8.75
635.16	8.73
635.351	8.64
635.543	8.65
635.734	8.73
635.925	8.82
636.117	8.84
636.308	8.91
636.499	8.88
636.69	8.77
636.881	8.72
637.073	8.74
637.264	8.68
637.455	8.65
637.646	8.73
637.837	8.74
638.028	8.74
638.219	8.66
638.41	8.69
638.601	8.63
638.792	8.6
638.983	8.53
639.174	8.58
639.365	8.46
639.556	8.49
639.747	8.5
639.938	8.5
640.129	8.52
640.32	8.59
640.511	8.54
640.701	8.54
640.892	8.48
641.083	8.47
641.274	8.37
641.465	8.4
641.655	8.34
641.846	8.32
642.037	8.25
642.228	8.29
642.418	8.25
642.609	8.25
642.8	8.27
642.99	8.19
643.181	8.2
643.372	8.2
643.562	8.14
643.753	8.15
643.943	8.21
644.134	8.19
644.324	8.21
644.515	8.28
644.705	8.35
644.896	8.37
645.086	8.35
645.277	8.38
645.467	8.37
645.658	8.3
645.848	8.25
646.038	8.28
646.229	8.22
646.419	8.21
646.61	8.22
646.8	8.33
646.99	8.27
647.18	8.27
647.371	8.21
647.561	8.14
647.751	7.97
647.941	7.9
648.132	7.84
648.322	7.87
648.512	7.86
648.702	7.95
648.892	8.07
649.082	8.07
649.272	8.11
649.462	8.11
649.653	8.11
649.843	8.05
650.033	8.13
650.223	8.07
650.413	8.07
650.603	8.15
650.793	8.14
650.983	8.04
651.172	8.04
651.362	8.03
651.552	7.88
651.742	7.89
651.932	7.85
652.122	7.88
652.312	7.88
652.502	7.74
652.691	7.72
652.881	7.68
653.071	7.71
653.261	7.59
653.45	7.76
653.64	7.71
653.83	7.75
654.019	7.62
654.209	7.69
654.399	7.64
654.588	7.64
654.778	7.58
654.968	7.57
655.157	7.51
655.347	7.41
655.536	7.39
655.726	7.42
655.915	7.45
656.105	7.38
656.294	7.35
656.484	7.26
656.673	7.22
656.863	7.21
657.052	7.21
657.241	7.18
657.431	7.18
657.62	7.1
657.809	6.93
657.999	6.97
658.188	6.96
658.377	6.93
658.567	6.91
658.756	6.86
658.945	6.81
659.134	6.76
659.324	6.74
659.513	6.74
659.702	6.74
659.891	6.69
660.08	6.65
660.269	6.52
660.458	6.49
660.648	6.58
660.837	6.58
661.026	6.54
661.215	6.61
661.404	6.51
661.593	6.36
661.782	6.27
661.971	6.27
662.16	6.23
662.349	6.17
662.538	6.23
662.726	6.21
662.915	6.25
663.104	6.24
663.293	6.34
663.482	6.35
663.671	6.4
663.86	6.34
664.048	6.39
664.237	6.32
664.426	6.28
664.615	6.19
664.803	6.22
664.992	6.16
665.181	6.18
665.369	6.2
665.558	6.27
665.747	6.34
665.935	6.38
666.124	6.39
666.312	6.41
666.501	6.4
666.69	6.26
666.878	6.08
667.067	6.11
667.255	6.08
667.444	6.15
667.632	6.35
667.82	6.51
668.009	6.49
668.197	6.47
668.386	6.34
668.574	6.25
668.762	6.29
668.951	6.45
669.139	6.58
669.327	6.54
669.516	6.51
669.704	6.58
669.892	6.49
670.08	6.42
670.269	6.54
670.457	6.67
670.645	6.67
670.833	6.73
671.021	6.72
671.21	6.71
671.398	6.79
671.586	6.72
671.774	6.75
671.962	6.89
672.15	6.86
672.338	6.86
672.526	6.98
672.714	6.89
672.902	6.88
673.09	7.13
673.278	7.13
673.466	7.25
673.654	7.42
673.842	7.41
674.03	7.39
674.218	7.45
674.405	7.41
674.593	7.47
674.781	7.6
674.969	7.54
675.157	7.51
675.344	7.48
675.532	7.45
675.72	7.4
675.908	7.43
676.095	7.4
676.283	7.47
676.471	7.5
676.658	7.6
676.846	7.75
677.033	7.98
677.221	8.08
677.409	7.97
677.596	8
677.784	8.01
677.971	7.89
678.159	7.73
678.346	7.95
678.534	8.07
678.721	7.98
678.909	8.06
679.096	8.28
679.283	8.24
679.471	8.24
679.658	8.59
679.846	8.47
680.033	8.52
680.22	8.59
680.408	8.49
680.595	8.4
680.782	8.56
680.969	8.54
681.157	8.58
681.344	8.53
681.531	8.52
681.718	8.57
681.905	8.49
682.093	8.49
682.28	8.63
682.467	8.73
682.654	8.7
682.841	8.74
683.028	8.65
683.215	8.72
683.402	8.57
683.589	8.58
683.776	8.69
683.963	8.74
684.15	8.79
684.337	8.97
684.524	9.07
684.711	9.1
684.898	9.27
685.085	9.24
685.271	9.14
685.458	9.11
685.645	9.11
685.832	9.17
686.019	9.33
686.205	9.56
686.392	9.77
686.579	9.88
686.766	9.83
686.952	9.85
687.139	9.79
687.326	9.69
687.512	9.67
687.699	9.83
687.886	9.82
688.072	9.91
688.259	10.06
688.445	10.22
688.632	10.27
688.818	10.51
689.005	10.71
689.191	10.9
689.378	11.1
689.564	11.26
689.751	11.55
689.937	11.73
690.124	11.8
690.31	11.99
690.496	12.18
690.683	12.11
690.869	12.09
691.055	12.43
691.242	12.71
691.428	12.83
691.614	13.21
691.8	13.77
691.987	13.89
692.173	13.95
692.359	14.27
692.545	14.47
692.731	14.52
692.918	14.86
693.104	15.35
693.29	15.92
693.476	16.14
693.662	16.74
693.848	17.24
694.034	17.6
694.22	17.69
694.406	18.33
694.592	18.55
694.778	18.88
694.964	19.19
695.15	19.67
695.336	19.71
695.522	20.1
695.708	20.41
695.894	20.88
696.08	21.42
696.265	22.14
696.451	22.52
696.637	22.81
696.823	23.16
697.009	23.57
697.194	23.8
697.38	24.25
697.566	24.92
697.751	25.3
697.937	25.81
698.123	26.25
698.308	26.78
698.494	27.2
698.68	27.73
698.865	28.26
699.051	28.95
699.236	29.62
699.422	30.12
699.607	30.9
699.793	31.19
699.978	31.82
700.164	32.04
700.349	32.56
700.535	32.81
700.72	33.29
700.906	33.58
701.091	33.95
701.276	34.53
701.462	35.34
701.647	35.9
701.832	36.48
702.018	37.24
702.203	37.72
702.388	37.86
702.573	38.02
702.759	38.08
702.944	38.25
703.129	38.63
703.314	39.13
703.499	40.04
703.684	40.65
703.87	41.2
704.055	41.44
704.24	41.55
704.425	41.58
704.61	41.85
704.795	42.13
704.98	42.6
705.165	43.26
705.35	43.71
705.535	43.97
705.72	44.5
705.905	44.97
706.09	45.16
706.275	45.85
706.459	46.6
706.644	47.01
706.829	47.36
707.014	48.01
707.199	48.36
707.384	48.55
707.568	48.74
707.753	49.07
707.938	49.48
708.123	49.8
708.307	50.23
708.492	50.99
708.677	51.24
708.861	50.99
709.046	50.98
709.231	51.25
709.415	50.83
709.6	51.2
709.784	51.8
709.969	52.25
710.153	52.37
710.338	52.85
710.522	52.92
710.707	53.37
710.891	53.5
711.076	54
711.26	54.16
711.445	54.44
711.629	54.35
711.813	54.57
711.998	54.68
712.182	54.79
712.366	54.72
712.551	55.05
712.735	55.25
712.919	55.42
713.103	55.93
713.288	56.58
713.472	56.9
713.656	57.11
713.84	57.73
714.024	57.6
714.208	57.77
714.393	57.99
714.577	58.25
714.761	58.2
714.945	58.73
715.129	58.73
715.313	59.15
715.497	59.58
715.681	59.76
715.865	59.59
716.049	60.01
716.233	59.85
716.417	59.67
716.601	59.61
716.785	60.16
716.968	60.52
717.152	60.91
717.336	61.27
717.52	61.42
717.704	61.64
717.888	61.4
718.071	61.23
718.255	61.36
718.439	61.5
718.622	61.73
718.806	62.11
718.99	62.55
719.174	62.92
719.357	63.13
719.541	63.28
719.724	63.82
719.908	64.02
720.092	64.13
720.275	64.51
720.459	64.58
720.642	64.92
720.826	64.85
721.009	65.17
721.193	65.27
721.376	64.91
721.559	64.58
721.743	64.97
721.926	64.85
722.11	64.88
722.293	65.53
722.476	65.34
722.66	65.1
722.843	65.43
723.026	65.6
723.21	66.23
723.393	66.62
723.576	66.95
723.759	67.47
723.942	67.62
724.126	67.72
724.309	68.27
724.492	67.83
724.675	67.63
724.858	68.14
725.041	68.28
725.224	68
725.407	68.72
725.59	68.73
725.774	68.98
725.957	68.53
726.14	68.54
726.322	68.42
726.505	68.87
726.688	68.69
726.871	69.73
727.054	69.87
727.237	70.92
727.42	71.1
727.603	71.14
727.786	70.68
727.968	71.05
728.151	70.94
728.334	71.32
728.517	72.12
728.699	73.05
728.882	73.47
729.065	73.3
729.248	73.08
729.43	72.99
729.613	72.66
729.796	72.62
729.978	72.89
730.161	72.65
730.343	73.21
730.526	73.45
730.708	73.92
730.891	74.68
731.073	74.94
731.256	74.66
731.438	74.58
731.621	74.92
731.803	74.74
731.986	76.05
732.168	75.79
732.35	75.9
732.533	76.12
732.715	75.67
732.898	74.63
733.08	75.64
733.262	76.45
733.444	76.18
733.627	76.76
733.809	77.23
733.991	77.54
734.173	78.08
734.355	78.68
734.538	79.61
734.72	79.65
734.902	79.45
735.084	78.42
735.266	79
735.448	78.45
735.63	78.51
735.812	79.51
735.994	80.06
736.176	79.4
736.358	79.55
736.54	80.44
736.722	80.17
736.904	80.81
737.086	81.39
737.268	82.79
737.45	84.22
737.632	83.43
737.814	84.27
737.995	85.12
738.177	84.33
738.359	83.37
738.541	85.19
738.723	85.04
738.904	84.88
739.086	84.6
739.268	84.49
739.449	83.3
739.631	82.63
739.813	81.62
739.994	81.94
740.176	81.18
740.358	82.5
740.539	82.94
740.721	83.67
740.902	84.04
741.084	85.7
741.265	84.92
741.447	85.08
741.628	86.44
741.81	86.3
741.991	85.69
742.172	86.38
742.354	85.63
742.535	84.12
742.717	84.23
742.898	83.55
743.079	83.57
743.261	84.79
743.442	86.39
743.623	86.7
743.804	87.66
743.986	87.82
744.167	87.91
744.348	87.18
744.529	87.96
744.71	89.12
744.891	88.64
745.073	89.13
745.254	89.26
745.435	89.23
745.616	88.89
745.797	88.89
745.978	88.6
746.159	88.41
746.34	87.6
746.521	86.62
746.702	86.88
746.883	84.82
747.064	84.41
747.245	85.89
747.426	87.86
747.606	87.9
747.787	90.26
747.968	91.07
748.149	89.37
748.33	87.83
748.51	88.32
748.691	86.76
748.872	86.03
749.053	85.57
749.233	84.92
749.414	84.74
749.595	86.43
749.775	86.31
749.956	88.11
750.137	88.92
750.317	89.91
750.498	89.37
750.678	90.24
750.859	88.59
751.04	88.05
751.22	86.67
751.4	86.58
751.581	87.02
751.761	88.14
751.942	89.66
752.122	90.3
752.303	89.17
752.483	90.03
752.663	90.73
752.844	90.16
753.024	90.15
753.204	91.31
753.385	88.22
753.565	88.8
753.745	89.43
753.925	90.7
754.106	90.49
754.286	92.07
754.466	91.52
754.646	90.34
754.826	87.5
755.006	88.13
755.187	88.48
755.367	87.56
755.547	87.95
755.727	89.21
755.907	88.28
756.087	86.9
756.267	87.93
756.447	87.52
756.627	87.19
756.807	87.96
756.987	89.52
757.167	89.28
757.346	90.06
757.526	91.59
757.706	92.81
757.886	92.71
758.066	93.03
758.246	93.22
758.425	90.92
758.605	89.53
758.785	89.68
758.965	88.5
759.144	88.6
759.324	88.55
759.504	90.53
759.683	91.86
759.863	92.92
760.043	92.65
760.222	92.69
760.402	89.53
760.581	88.65
760.761	89.32
760.94	89.35
761.12	92.92
761.299	94.09
761.479	93.8
761.658	92.04
761.838	91.52
762.017	90.38
762.197	91.69
762.376	92.2
762.555	93.01
762.735	92
762.914	92.87
763.093	92.85
763.273	90.48
763.452	90.84
763.631	92.89
763.81	91.19
763.99	91.31
764.169	92.01
764.348	90.56
764.527	89.24
764.706	87.83
764.885	84.95
765.064	85.67
765.243	85.93
765.423	86.62
765.602	87.96
765.781	91.01
765.96	89.27
766.139	89.65
766.318	89.7
766.497	88.05
766.676	86.67
766.854	89.07
767.033	88.74
767.212	87.42
767.391	89.02
767.57	89.33
767.749	89
767.928	91.68
768.106	91.48
768.285	89.44
768.464	87.38
768.643	87.54
768.821	84.2
769	85.94
769.179	87.46
769.357	89.09
769.536	88.95
769.715	89.79
769.893	89.48
770.072	87.55
770.25	87.12
770.429	85.35
770.607	85.14
770.786	85.26
770.964	85.99
771.143	87.71
771.321	89.16
771.5	88.88
771.678	87.64
771.857	89.71
772.035	89.24
772.213	88.62
772.392	88.61
772.57	90.24
772.748	87.33
772.927	87.33
773.105	88.35
773.283	88.24
773.461	85.21
773.64	86.68
773.818	85.49
773.996	83.46
774.174	82.3
774.352	84.03
774.531	83.09
774.709	82.58
774.887	85.42
775.065	84.96
775.243	84.28
775.421	83.51
775.599	83.72
775.777	81.14
775.955	82.05
776.133	80.91
776.311	83.5
776.489	85.85
776.667	87.21
776.844	90.9
777.022	93.98
777.2	91.9
777.378	88.77
777.556	88.09
777.734	86.64
777.911	86.2
778.089	86.64
778.267	86.92
778.445	83.96
778.622	83.33
778.8	81.86
778.978	82.24
779.155	80.8
779.333	81.83
779.511	78.38
779.688	79.52
779.866	78.85
780.043	78.8
780.221	78.77
780.398	81.01
780.576	82.37
780.753	81.02
780.931	83.93
781.108	86.03
781.286	86.23
781.463	85.21
781.64	85.48
781.818	88.21
781.995	88.58
782.172	88.87
782.35	88.86
782.527	92.18
782.704	85.63
782.882	86.54
783.059	87.64
783.236	84.75
783.413	81.93
783.59	86.61
783.768	82.92
783.945	80.02
784.122	80.05
784.299	80.65
784.476	77.1
784.653	79
784.83	80.66
785.007	81.78
785.184	83.51
785.361	85.19
785.538	85.63
785.715	83.21
785.892	87.47
786.069	84.99
786.246	85.9
786.423	85.99
786.6	87.85
786.776	83.97
786.953	82.58
787.13	84.44
787.307	81.82
787.484	82.97
787.66	83.06
787.837	89.17
788.014	90.32
788.191	92.04
788.367	89.44
788.544	88.01
788.721	85.31
788.897	81.07
789.074	77.72
789.25	78.27
789.427	78.19
789.603	74.66
789.78	73
789.956	80.96
790.133	80.38
790.309	80.51
790.486	83.58
790.662	83.27
790.839	73.89
791.015	73.18
791.192	71.18
791.368	72.26
791.544	74.4
791.721	80.8
791.897	83.56
792.073	85.13
792.249	81.06
792.426	85.57
792.602	83.56
792.778	82.78
792.954	82
793.13	83.01
793.307	77.34
793.483	74.26
793.659	76.23
793.835	77.79
794.011	78.58
794.187	79.07
794.363	79.61
794.539	77.3
794.715	73.45
794.891	71.92
795.067	69.03
795.243	71.2
795.419	72.23
795.595	75.64
795.771	79.63
795.947	81.42
796.122	85.11
796.298	81.43
796.474	84.06
796.65	80.36
796.826	82.58
797.001	78.67
797.177	82.17
797.353	76.85
797.529	76
797.704	75.32
797.88	76.9
798.056	78.73
798.231	76.07
798.407	78.42
798.582	81.31
798.758	85.34
798.934	80.3
799.109	85.31
799.285	84.39
799.46	81.01
799.636	78.35
799.811	78.46
799.986	76.88
800.162	79.33
800.337	82.58
800.513	90.87
800.688	91.34
800.863	100.2
801.039	103.41
801.214	101.61
801.389	93
801.565	86.9
801.74	82.2
801.915	78.68
802.09	79.39
802.265	77.72
802.441	80.15
802.616	78.08
802.791	74.33
802.966	78.18
803.141	76.87
803.316	79.79
803.491	79.57
803.666	83.01
803.841	74.85
804.016	75.6
804.191	75.21
804.366	78.7
804.541	76.99
804.716	86.99
804.891	79.78
805.066	83.86
805.241	76.59
805.416	78.36
805.591	69.33
805.765	75.79
805.94	67.42
806.115	73.53
806.29	70.06
806.464	67.68
806.639	72.25
806.814	74.19
806.989	71.08
807.163	67.56
807.338	69.02
807.512	65.78
807.687	64.29
807.862	57.08
808.036	66.6
808.211	67.04
808.385	60.06
808.56	63.85
808.734	60.37
808.909	55.53
809.083	58.41
809.258	61.48
809.432	59.98
809.606	67.01
809.781	64.08
809.955	68.15
810.13	69.25
810.304	66.08
810.478	59.49
810.652	71.3
810.827	66.21
811.001	71.27
811.175	91.17
811.349	96.88
811.524	77.03
811.698	77.29
811.872	80.15
812.046	62.31
812.22	71.81
812.394	79.79
812.568	88.28
812.742	72.42
812.916	75.49
813.09	66.51
813.264	78.41
813.438	75.47
813.612	78.67
813.786	82.28
813.96	88.12
814.134	83.07
814.308	82.19
814.482	90.35
814.656	103.62
814.83	96.4
815.003	90.81
815.177	76.07
815.351	71.24
815.525	61.44
815.698	64.55
815.872	59.99
816.046	72.46
816.219	54.29
816.393	58.19
816.567	66.4
816.74	72.38
816.914	60.95
817.088	79
817.261	66.05
817.435	66.11
817.608	62.69
817.782	64.81
817.955	63.28
818.129	64.14
818.302	57.84
818.475	59.58
818.649	65.17
818.822	66.05
818.996	73.49
819.169	71.82
819.342	77.55
819.516	69.2
819.689	69.94
819.862	57.28
820.035	55.58
820.209	40.53
820.382	43.56
820.555	31.51
820.728	49.7
820.901	60.39
821.075	70.16
821.248	75.79
821.421	78.69
821.594	80.52
821.767	75.18
821.94	72.33
822.113	62.96
822.286	62.81
822.459	57.46
822.632	71.06
822.805	88.54
822.978	96.05
823.151	101.65
823.324	100.61
823.496	83.89
823.669	74.08
823.842	61.28
824.015	68.01
824.188	66.16
824.361	55.06
824.533	48.1
824.706	63.68
824.879	53.14
825.051	47.4
825.224	69.82
825.397	69.53
825.569	69.13
825.742	57.35
825.915	65.7
826.087	46.32
826.26	44.51
826.432	38.13
826.605	51.1
826.777	45.15
826.95	59.08
827.122	73.83
827.295	90.66
827.467	89.97
827.64	91.91
827.812	86.47
827.984	91.94
828.157	74.42
828.329	91.7
828.501	92.61
828.674	88.92
828.846	76.63
829.018	84.72
829.19	82.77
829.363	84.25
829.535	91
829.707	102.43
829.879	101.12
830.051	80.72
830.223	75.75
830.395	77.42
830.568	68.07
830.74	64.91
830.912	72.44
831.084	105.02
831.256	81.49
831.428	91.95
831.6	70.17
831.772	49.9
831.943	5.51
832.115	10.07
832.287	17.4
832.459	34.82
832.631	28.82
832.803	41.57
832.975	43.51
833.146	47.78
833.318	34.09
833.49	68.1
833.662	58.15
833.833	57.09
834.005	41.7
834.177	47.77
834.348	40.77
834.52	47.05
834.692	60.21
834.863	59.95
835.035	60.99
835.206	37.52
835.378	39.23
835.549	32.56
835.721	37.57
835.892	36.35
836.064	49.5
836.235	56.28
836.407	63.49
836.578	72.91
836.749	83.75
836.921	76.84
837.092	68.46
837.264	54.67
837.435	53.7
837.606	31.94
837.777	15.3
837.949	33.41
838.12	37.74
838.291	37.95
838.462	50.09
838.633	60.82
838.805	53.18
838.976	78.73
839.147	67.45
839.318	57.95
839.489	62.57
839.66	55.33
839.831	42.67
840.002	52.76
840.173	45.37
840.344	25.49
840.515	21.34
840.686	20.62
840.857	19.64
841.028	28.11
841.199	44.35
841.369	49.74
841.54	63.53
841.711	38.74
841.882	36.9
842.053	35.62
842.223	30.38
842.394	27.93
842.565	28.15
842.736	34.93
842.906	57.04
843.077	93.76
843.248	78.5
843.418	93.66
843.589	91.71
843.759	76.04
843.93	79.3
844.101	61.71
844.271	78.2
844.442	71.62
844.612	62.93
844.783	49.48
844.953	63.45
845.123	50.99
845.294	61.33
845.464	68.2
845.635	51.05
845.805	33.12
845.975	50.95
846.146	26.63
846.316	28.56
846.486	36.71
846.656	38.05
846.827	21.69
846.997	46.51
847.167	56.13
847.337	27.48
847.507	51.18
847.677	48.03
847.848	52.06
848.018	48.18
848.188	47.23
848.358	55.46
848.528	52.57
848.698	50.12
848.868	57.35
849.038	86.34
849.208	83.61
849.378	96.02
849.548	95.17
849.718	84.81
849.887	89.01
850.057	54.25
850.227	22.92
850.397	25.95
850.567	17.55
850.737	6.97
850.906	14.08
851.076	11.1
851.246	17.61
851.415	18.62
851.585	19.4
851.755	42.85
851.924	53.52
852.094	48.92
852.264	66.8
852.433	60.72
852.603	53.47
852.772	54.03
852.942	54.56
853.111	45.77
853.281	45.87
853.45	17.12
853.62	22.18
853.789	23.5
853.959	43.11
854.128	34.67
854.297	58.2
854.467	56.97
854.636	71.44
854.805	52.22
854.975	77.02
855.144	104.49
855.313	87.54
855.482	82.99
855.652	71.53
855.821	82.53
855.99	75.39
856.159	100.09
856.328	110.31
856.497	130.96
856.667	100.69
856.836	165.83
857.005	147.11
857.174	40.77
857.343	37.18
857.512	-3.59
857.681	-19.11
857.85	24.4
858.019	29.7
858.188	14.13
858.356	12.47
858.525	18.45
858.694	2.38
858.863	-25.46
859.032	35.63
859.201	37.58
859.369	54.24
859.538	30.28
859.707	42.7
859.876	31.84
860.044	35.03
860.213	34.16
860.382	40.81
860.55	25.58
860.719	35.47
860.888	14.25
861.056	6.91
861.225	40.85
861.393	43.97
861.562	53.42
861.73	77.58
861.899	82.35
862.067	93.56
862.236	124.08
862.404	93.25
862.572	111.73
862.741	72.46
862.909	31.29
863.078	-10.14
863.246	24.64
863.414	33.18
863.582	54.36
863.751	67.74
863.919	62.51
864.087	83.22
864.255	26.3
864.424	11.96
864.592	11.35
864.76	36.25
864.928	25.71
865.096	55.11
865.264	73.73
865.432	66.24
865.6	53.73
865.768	41.39
865.936	54.1
866.104	47.81
866.272	49.36
866.44	47.3
866.608	96.42
866.776	73.92
866.944	150.28
867.112	93.64
867.28	179.21
867.448	58.12
867.615	-7.44
867.783	-57.93
867.951	-7.31
868.119	-10.8
868.286	21.92
868.454	33.98
868.622	49.61
868.789	64.9
868.957	66.59
869.125	64.39
869.292	59.59
869.46	34.16
869.627	20.29
869.795	17.36
869.963	37.65
870.13	23.07
870.298	2.88
870.465	-1
870.632	19.9
870.8	-7.15
870.967	-31.26
871.135	-12.8
871.302	-24.4
871.469	92.04
871.637	77.88
871.804	76.62
871.971	75.07
872.139	58.77
872.306	36.5
872.473	25.25
872.64	18.86
872.807	37.65
872.975	-9
873.142	-15.71
873.309	-2434.78
873.476	-23.02
873.643	-5.31
873.81	68.41
873.977	106.96
874.144	100.36
874.311	60.25
874.478	28.31
874.645	14.5
874.812	2.21
874.979	-22.61
875.146	-39.66
875.313	-33.95
875.48	-329.41
875.647	672.57
875.813	-784
875.98	2460.61
876.147	-517.48
876.314	-64
876.481	-59.34
876.647	14.31
876.814	43
876.981	37.76
877.147	7.19
877.314	18.2
877.481	2.76
877.647	7.07
877.814	-8.11
877.98	-22.7
878.147	-55.7
878.314	-122
878.48	-75.13
878.647	4.32
878.813	-167.44
878.979	60.52
879.146	88.51
879.312	76.36
879.479	69.76
879.645	75.65
879.811	69.32
879.978	75.29
880.144	61.9
880.31	47.55
880.477	31.72
880.643	25.76
880.809	35.92
880.975	181.82
881.142	123.89
881.308	160
881.474	1.65
881.64	-60.42
881.806	36.62
881.972	27.91
882.138	50.6
882.304	91.93
882.47	94.38
882.636	23.13
882.802	98.21
882.968	178.82
883.134	73.94
883.3	49.88
883.466	63.42
883.632	78.78
883.798	51.76
883.964	59.8
884.129	40.92
884.295	57.73
884.461	37.7
884.627	43.61
884.793	-8.45
884.958	43.31
885.124	31.78
885.29	17.96
885.455	-4.18
885.621	-21.79
885.787	-54.22
885.952	199.45
886.118	304.31
886.283	-3052.63
886.449	-43.13
886.614	-16.16
886.78	34.43
886.945	12.29
887.111	6.62
887.276	4.87
887.442	-6.46
887.607	-66.78
887.773	-15.01
887.938	-36.48
888.103	-27.41
888.269	-75.28
888.434	-13.42
888.599	-30.6
888.764	7.4
888.93	-52.04
889.095	28.2
889.26	15.71
889.425	196.49
889.59	-202.9
889.756	314.5
889.921	12.12
890.086	58.05
890.251	-5.47
890.416	17.7
890.581	2.58
890.746	56.06
890.911	-8.94
891.076	21.97
891.241	11.12
891.406	33.11
891.571	-14.06
891.736	78.53
891.901	42.14
892.065	27.14
892.23	58.69
892.395	68.49
892.56	-11.8
892.725	114.78
892.889	88.61
893.054	43.83
893.219	25.81
893.384	45.95
893.548	-60.84
893.713	318.52
893.878	73.37
