Data from Ofav_PS_Phys_2HS2_Reflection_3.txt Node
Date: Thu Jul 29 18:16:46 EDT 2021
User: USUARIO
Spectrometer: FLMT01687
Trigger mode: 0
Integration Time (sec): 9.010000E-1
Scans to average: 2
Electric dark correction enabled: true
Nonlinearity correction enabled: false
Boxcar width: 2
XAxis mode: Wavelengths
Number of Pixels in Spectrum: 3648
>>>>>Begin Spectral Data<<<<<
179.494	255.56
179.716	331.53
179.937	285.84
180.158	-1562.15
180.38	-90.5
180.601	-889.5
180.823	-292.78
181.044	-135.97
181.265	-126.47
181.486	-1324.86
181.708	67.36
181.929	201.81
182.15	10547.62
182.372	-169.96
182.593	-66.16
182.814	6.83
183.035	-18.9
183.257	-50.03
183.478	-62.33
183.699	-20.6
183.92	2.65
184.141	23.33
184.363	9.75
184.584	30.56
184.805	22.22
185.026	28.45
185.247	-4.2
185.468	-13.44
185.689	-29.85
185.91	-60.69
186.132	-39.15
186.353	-14.43
186.574	37.17
186.795	37.56
187.016	46.69
187.237	16.33
187.458	27.61
187.679	-7.93
187.9	-28.38
188.121	-67.77
188.342	-47.02
188.563	-34.59
188.784	-15.24
189.005	-6.19
189.226	7.95
189.447	3.5
189.667	-16.1
189.888	-37.03
190.109	-34.03
190.33	-79.31
190.551	-14.66
190.772	10.52
190.993	10.98
191.214	-23.33
191.434	-9.74
191.655	-5.02
191.876	-9
192.097	-56.57
192.318	-4.12
192.538	-6.2
192.759	4.98
192.98	20.92
193.201	30.35
193.421	35.75
193.642	27.77
193.863	22.56
194.083	15.01
194.304	12.37
194.525	29
194.745	8.29
194.966	-3.87
195.187	-18.5
195.407	-15.83
195.628	-104.71
195.848	-33.27
196.069	5.89
196.29	15.34
196.51	35.02
196.731	48.09
196.951	22.07
197.172	-8.36
197.392	-9.58
197.613	-35.02
197.833	-50.01
198.054	-24.72
198.274	-33.28
198.495	-25.83
198.715	-54.06
198.936	-35.32
199.156	-28.2
199.377	-8
199.597	-3.25
199.817	39.78
200.038	33.24
200.258	13.03
200.479	8.17
200.699	-60.49
200.919	-71.44
201.14	-65.69
201.36	-36.94
201.58	-26.17
201.801	5.96
202.021	32.22
202.241	40.27
202.461	45.94
202.682	27.92
202.902	44.64
203.122	31.31
203.342	34.33
203.563	15.41
203.783	14.97
204.003	-5.8
204.223	-46.15
204.443	-39.65
204.663	-13.69
204.884	20.22
205.104	0.83
205.324	6.89
205.544	30.44
205.764	7.01
205.984	5.74
206.204	10.28
206.424	24.43
206.644	8.04
206.864	28.15
207.084	24.82
207.304	47.37
207.525	11.01
207.745	9.28
207.964	-2.53
208.184	-11.47
208.404	-37.03
208.624	21.86
208.844	15.19
209.064	36.32
209.284	41.69
209.504	21.46
209.724	25.51
209.944	39.34
210.164	24.73
210.384	19.83
210.604	39.29
210.823	10.69
211.043	2.59
211.263	34.65
211.483	34.76
211.703	13.73
211.922	32.96
212.142	35
212.362	4.74
212.582	2.12
212.801	2.83
213.021	-13.83
213.241	-12.64
213.461	-3.63
213.68	-23.56
213.9	-14.44
214.12	3.5
214.339	-21.65
214.559	-26.75
214.779	14.53
214.998	-10.79
215.218	-45.2
215.438	-4.18
215.657	-6.26
215.877	-7.95
216.096	-13.45
216.316	-8.32
216.535	-61.14
216.755	-64.43
216.974	-97.4
217.194	-57.57
217.413	-11.08
217.633	37.05
217.852	5.45
218.072	28.36
218.291	26.33
218.511	37.76
218.73	12.19
218.95	28.9
219.169	36.91
219.389	33.6
219.608	11.9
219.827	25.73
220.047	27.33
220.266	5.04
220.485	21.61
220.705	16.73
220.924	-10.68
221.143	-31.78
221.363	-33.09
221.582	-52.01
221.801	-105.08
222.021	-33.56
222.24	-1.38
222.459	21.23
222.678	12.54
222.897	12.24
223.117	16.93
223.336	2.36
223.555	-13.33
223.774	-24.31
223.993	-22.32
224.213	-18.9
224.432	-9.07
224.651	2.74
224.87	4.09
225.089	16.56
225.308	15.17
225.527	37.21
225.746	10.2
225.965	12.72
226.184	-22.13
226.404	-45.57
226.623	-31.82
226.842	-23.3
227.061	-20.79
227.28	2.19
227.499	21.86
227.718	4.97
227.936	12.9
228.155	10.58
228.374	-8.39
228.593	-10.31
228.812	-21.58
229.031	-32.88
229.25	-16.69
229.469	-19.9
229.688	-18.53
229.907	4.18
230.125	10.27
230.344	-7.48
230.563	-9.06
230.782	5.04
231.001	-16.05
231.22	-28.21
231.438	-12.16
231.657	8.06
231.876	12.66
232.095	33.96
232.313	16.51
232.532	8.46
232.751	-9.49
232.969	-24.62
233.188	-64.83
233.407	-57.51
233.625	-37.29
233.844	-32.31
234.063	-32.47
234.281	-38.73
234.5	-40.34
234.719	-13.61
234.937	-6.8
235.156	-24.73
235.374	26.1
235.593	34.48
235.811	25.52
236.03	13.85
236.249	27.17
236.467	14.18
236.686	11.59
236.904	7.59
237.123	9.09
237.341	-23.06
237.559	-13.15
237.778	-18.1
237.996	-8.14
238.215	0.64
238.433	29.92
238.652	30.52
238.87	30.73
239.088	34.32
239.307	21.19
239.525	19.41
239.743	8.28
239.962	21.89
240.18	26.72
240.398	32.91
240.617	6.21
240.835	-5.29
241.053	-13.25
241.271	-32.28
241.49	-34.29
241.708	-10.76
241.926	-8.06
242.144	-23.76
242.363	-5.09
242.581	-18.3
242.799	-17.85
243.017	-14.05
243.235	-7.05
243.453	-14.01
243.672	-5.99
243.89	-19.78
244.108	5.86
244.326	11.83
244.544	1.08
244.762	1.33
244.98	9.72
245.198	0.38
245.416	-10.3
245.634	-10.2
245.852	3.27
246.07	7.69
246.288	4.87
246.506	2.94
246.724	-2.76
246.942	-9.16
247.16	-18.88
247.378	-35.76
247.596	-40.31
247.814	-25.83
248.032	-17.46
248.25	-4.13
248.468	-8.48
248.685	2.47
248.903	-1.16
249.121	-2.08
249.339	-13.15
249.557	0.92
249.775	-3.21
249.992	-16.22
250.21	-26.85
250.428	-0.24
250.646	-14.56
250.863	-6.82
251.081	11.47
251.299	29.12
251.517	24.5
251.734	53.22
251.952	55.3
252.17	50.68
252.387	44.54
252.605	51.22
252.823	26.04
253.04	32.45
253.258	23.74
253.475	23.46
253.693	18.29
253.911	26.09
254.128	26.74
254.346	42.77
254.563	40.75
254.781	36.21
254.998	38
255.216	5.96
255.433	-3.31
255.651	-14.94
255.868	-17.68
256.086	-20.55
256.303	2.66
256.521	2.03
256.738	6.1
256.956	19.28
257.173	22.44
257.39	9.45
257.608	5.43
257.825	0.43
258.043	-28.04
258.26	-33.63
258.477	-32.04
258.695	-54.03
258.912	-37.01
259.129	-29.93
259.346	-20.17
259.564	-32.8
259.781	5.47
259.998	-6.5
260.216	22.3
260.433	18.35
260.65	8.16
260.867	5.98
261.084	5.87
261.302	-28.33
261.519	-27.87
261.736	11.02
261.953	12.03
262.17	12.25
262.387	9.63
262.604	-5.53
262.822	-24.34
263.039	-10.15
263.256	-24.34
263.473	-15.17
263.69	-26.64
263.907	-15.95
264.124	-15.65
264.341	-11.88
264.558	-22.35
264.775	-9.51
264.992	-19.94
265.209	-33.19
265.426	-26.08
265.643	-10.11
265.86	-13.19
266.077	1.95
266.294	17.38
266.51	8.41
266.727	17.57
266.944	37.45
267.161	32.91
267.378	17.22
267.595	36.4
267.812	30.71
268.028	-3.96
268.245	-24.3
268.462	-13.44
268.679	-18.33
268.896	-36.29
269.112	-7.61
269.329	8.56
269.546	-1.21
269.763	1.75
269.979	18.09
270.196	30.93
270.413	14.02
270.629	34.84
270.846	24.22
271.063	13.25
271.279	12.4
271.496	18.37
271.712	14.94
271.929	30.76
272.146	52.54
272.362	34.16
272.579	52.58
272.795	48.84
273.012	25.86
273.228	-3.79
273.445	-4.84
273.661	-26.89
273.878	-42.94
274.094	-34.41
274.311	-3.04
274.527	-0.63
274.744	14.27
274.96	20.62
275.177	20.81
275.393	14.55
275.609	15.81
275.826	-1.49
276.042	1.17
276.259	-12.27
276.475	-20.7
276.691	-5
276.908	-8.27
277.124	-13.76
277.34	-5.87
277.557	-11.57
277.773	-11.39
277.989	3.83
278.205	26.06
278.422	31.94
278.638	33.4
278.854	36.27
279.07	43.89
279.286	8.22
279.503	7.25
279.719	6.45
279.935	2.55
280.151	-31.46
280.367	-17.1
280.583	-3.05
280.799	-8.24
281.016	-27.6
281.232	-3.55
281.448	-5.11
281.664	-9.33
281.88	-9.83
282.096	10.5
282.312	-4.04
282.528	-9.23
282.744	-29.64
282.96	-9.36
283.176	-37.59
283.392	-4.52
283.608	-1.58
283.824	1.37
284.04	-5.26
284.256	22.6
284.471	-1.87
284.687	-3.43
284.903	-27.61
285.119	-16.26
285.335	-34.16
285.551	-17.93
285.767	3.2
285.982	20.98
286.198	30.66
286.414	43.55
286.63	47.32
286.846	29.71
287.061	34.72
287.277	32.24
287.493	16.51
287.709	3.11
287.924	17.68
288.14	17.22
288.356	14.21
288.571	28.25
288.787	27.72
289.003	25.94
289.218	11.34
289.434	7.5
289.65	1.79
289.865	-4.89
290.081	-7.74
290.296	0.09
290.512	-5.5
290.727	2.56
290.943	23.56
291.159	27.45
291.374	43.4
291.59	45.43
291.805	37.1
292.021	29.9
292.236	31.42
292.451	-2.03
292.667	-7.81
292.882	-12.72
293.098	-11.09
293.313	-29.46
293.529	-9.68
293.744	-20.86
293.959	-12.51
294.175	-1.14
294.39	-2.32
294.605	4.34
294.821	14.48
295.036	10.9
295.251	-0.48
295.467	-5.69
295.682	-14.49
295.897	-20.83
296.112	-16.66
296.328	-6.94
296.543	-11.95
296.758	-3.67
296.973	11.25
297.188	5.91
297.404	-9.35
297.619	30.68
297.834	19.27
298.049	6.14
298.264	14.29
298.479	32.72
298.694	11.71
298.909	8.81
299.125	2.97
299.34	4.16
299.555	-32.65
299.77	-28.51
299.985	-48.06
300.2	-42.21
300.415	-34.44
300.63	-9.21
300.845	-14.45
301.06	-5.93
301.275	-11.34
301.49	-33.97
301.704	-60.45
301.919	-32.48
302.134	-26.76
302.349	-23.27
302.564	-17.11
302.779	-14.64
302.994	-30.13
303.209	-11.46
303.423	-10.4
303.638	-24.89
303.853	-22.17
304.068	-8.4
304.283	-14.94
304.497	-2.75
304.712	-20.63
304.927	-24.13
305.142	-47.34
305.356	-69
305.571	-45.86
305.786	-11.76
306	-15.66
306.215	4.18
306.43	20.77
306.644	-12.06
306.859	-8.22
307.074	-50.16
307.288	-28.34
307.503	-9.03
307.717	4.81
307.932	-20.05
308.147	-8.46
308.361	-13.97
308.576	-39.54
308.79	-46.96
309.005	0.78
309.219	9.06
309.434	1.29
309.648	7.14
309.863	7.75
310.077	-5.5
310.292	4.54
310.506	4.37
310.72	-4.61
310.935	-33.05
311.149	-16.14
311.364	-12.89
311.578	2.64
311.792	-4.92
312.007	23.83
312.221	10.65
312.435	19.21
312.649	-12.18
312.864	-52.95
313.078	12.99
313.292	-27.87
313.507	-44.22
313.721	-22.87
313.935	0.63
314.149	-11.04
314.363	9.74
314.578	11.2
314.792	8.6
315.006	7
315.22	1.34
315.434	-7
315.648	-2.4
315.862	4.53
316.077	7.46
316.291	7.68
316.505	26.11
316.719	29.71
316.933	29.14
317.147	20.42
317.361	28.1
317.575	5.77
317.789	0.13
318.003	5.06
318.217	17.29
318.431	15.48
318.645	9.88
318.859	21.43
319.073	6.03
319.287	-9.14
319.5	-19.47
319.714	-2.36
319.928	-17.75
320.142	12.66
320.356	21
320.57	30.95
320.784	35.54
320.997	24.06
321.211	8.79
321.425	3.43
321.639	1.47
321.853	-9.68
322.066	-6.6
322.28	-12.53
322.494	-11.7
322.707	-6.49
322.921	-18.04
323.135	-25.29
323.349	-12.78
323.562	-29.85
323.776	-41.52
323.989	-27.45
324.203	-14.46
324.417	-13.36
324.63	3.11
324.844	6.06
325.057	8.84
325.271	-5.83
325.485	-11.44
325.698	-9.28
325.912	-6.21
326.125	-4.9
326.339	8.96
326.552	7.69
326.766	5.92
326.979	11.37
327.193	14.95
327.406	18.93
327.619	17.41
327.833	21.15
328.046	19.18
328.26	22.7
328.473	5.57
328.686	-0.26
328.9	-35.53
329.113	-53.93
329.326	-72.92
329.54	-95.03
329.753	-70.14
329.966	-28.7
330.179	-24.56
330.393	-17.7
330.606	0.59
330.819	-0.32
331.032	-3.09
331.246	-5.5
331.459	-28.58
331.672	-39.52
331.885	-23.62
332.098	-17.76
332.311	-1.81
332.525	11.03
332.738	7.63
332.951	-16.69
333.164	-18.48
333.377	-18.92
333.59	-6.3
333.803	13.34
334.016	27.84
334.229	22.6
334.442	10.92
334.655	7.23
334.868	-1.38
335.081	15.56
335.294	8.96
335.507	21.45
335.72	12.89
335.933	7.24
336.146	-14.93
336.359	-9.68
336.572	-30.22
336.785	-36.67
336.997	-35.52
337.21	-24.27
337.423	-10.31
337.636	-8.72
337.849	2.03
338.062	-2.06
338.274	-21.46
338.487	-16.35
338.7	-28.07
338.913	-27.6
339.125	-5.76
339.338	-1.06
339.551	-18.56
339.763	-10.72
339.976	-23.16
340.189	-33.42
340.402	-41.33
340.614	-40.12
340.827	-28.45
341.039	-5.65
341.252	-0.32
341.465	21.92
341.677	23.53
341.89	11.14
342.102	14.12
342.315	2.34
342.527	-5.35
342.74	-19.06
342.952	-0.74
343.165	-3.99
343.377	-12.2
343.59	-15.7
343.802	7.26
344.015	12.7
344.227	4.24
344.44	13.25
344.652	11.53
344.864	-17.01
345.077	-13.96
345.289	-7.32
345.502	-0.78
345.714	1.89
345.926	9.61
346.139	-28.43
346.351	-39.19
346.563	-25.17
346.775	-26.56
346.988	-31.36
347.2	-6.63
347.412	-1.71
347.624	-0.19
347.837	-15.71
348.049	-12.09
348.261	-12.47
348.473	2.3
348.685	-3.65
348.897	17.77
349.11	23.1
349.322	20.79
349.534	21.03
349.746	21.56
349.958	27.39
350.17	13.93
350.382	18.3
350.594	-2.95
350.806	4.82
351.018	-13.11
351.23	-7.99
351.442	-37.08
351.654	-8.05
351.866	-20.31
352.078	4.45
352.29	-10.3
352.502	8.65
352.714	-4.33
352.926	4.4
353.138	-0.55
353.35	18.74
353.561	0.73
353.773	20.52
353.985	8.98
354.197	-2.77
354.409	4.4
354.621	-0.32
354.832	-19.69
355.044	-22.33
355.256	-11.43
355.468	-20.18
355.679	1.32
355.891	16.58
356.103	34.64
356.314	35.03
356.526	44.11
356.738	33.83
356.949	27.66
357.161	14.01
357.373	17.03
357.584	10.17
357.796	15.04
358.008	5.88
358.219	5.55
358.431	-11.81
358.642	-31.5
358.854	-9.84
359.065	-0.92
359.277	-5.4
359.488	0.08
359.7	13.79
359.911	7.22
360.123	-3.88
360.334	14.02
360.546	11.83
360.757	7.17
360.969	-5.26
361.18	9.99
361.391	-5.63
361.603	-19.55
361.814	-3.34
362.025	-4.64
362.237	3.08
362.448	11.08
362.659	21.86
362.871	16.62
363.082	13.63
363.293	1.17
363.504	-1.27
363.716	-5.3
363.927	-5.17
364.138	-1.17
364.349	6.69
364.56	14.07
364.772	18.96
364.983	20.57
365.194	27.33
365.405	28.94
365.616	11.32
365.827	11.64
366.038	-3.21
366.25	-21.62
366.461	-36.68
366.672	-53.8
366.883	-45.76
367.094	-50.62
367.305	-9.49
367.516	-0.31
367.727	15.04
367.938	12.22
368.149	22.76
368.36	12.42
368.571	4.68
368.781	-11.27
368.992	-27.34
369.203	-27.13
369.414	-20.27
369.625	-11.16
369.836	-1.27
370.047	0.56
370.258	6.54
370.468	2.09
370.679	-7.3
370.89	-27.28
371.101	4.05
371.312	-6.3
371.522	-3.25
371.733	4.1
371.944	1.27
372.155	-36.04
372.365	-24.03
372.576	-24.53
372.787	-14.18
372.997	-0.06
373.208	0.21
373.419	-7.29
373.629	-4.88
373.84	2.32
374.05	-3.63
374.261	8.17
374.472	7.74
374.682	2.18
374.893	7.32
375.103	26.32
375.314	15.9
375.524	22.85
375.735	28.9
375.945	24.52
376.156	13.44
376.366	9.15
376.577	15.31
376.787	12.67
376.997	7.04
377.208	-4.4
377.418	-4.48
377.629	-21.39
377.839	-10.77
378.049	0.21
378.26	10.18
378.47	11.36
378.68	8.98
378.89	5.83
379.101	-7.67
379.311	-13.32
379.521	-20.32
379.732	-15.09
379.942	-27.3
380.152	-23.09
380.362	-24.73
380.572	-18.37
380.783	-20.88
380.993	-22.29
381.203	-24.45
381.413	-24.42
381.623	-15.21
381.833	0.49
382.043	6.15
382.253	8.24
382.463	2.78
382.674	-0.53
382.884	3.85
383.094	-4.4
383.304	-8.89
383.514	-2.28
383.724	4.96
383.934	-2.83
384.144	5.67
384.353	14.55
384.563	17.89
384.773	17.17
384.983	13.61
385.193	11.82
385.403	-0.44
385.613	3.36
385.823	1.96
386.033	0.15
386.242	-1.55
386.452	3.47
386.662	0.21
386.872	-2.61
387.082	-3.02
387.291	-7.07
387.501	-9.17
387.711	-10.16
387.921	-9.81
388.13	-6.19
388.34	0.14
388.55	1.38
388.759	-1.39
388.969	-1.12
389.179	-2.08
389.388	-3.53
389.598	-2.05
389.807	-0.75
390.017	-1.1
390.227	2.78
390.436	3.66
390.646	2.12
390.855	3.05
391.065	1.64
391.274	-0.74
391.484	-2.19
391.693	-3.69
391.903	-3.08
392.112	-1.91
392.322	-2.73
392.531	-3.61
392.74	-2.17
392.95	-1.53
393.159	-1.32
393.369	1.3
393.578	2.39
393.787	2.96
393.997	1.41
394.206	1.63
394.415	0.32
394.625	0.79
394.834	0.27
395.043	0.01
395.252	1.12
395.462	0.63
395.671	0.38
395.88	1.58
396.089	2.73
396.298	2.37
396.508	2.67
396.717	2.26
396.926	1.78
397.135	1.02
397.344	0.65
397.553	0.81
397.762	1.42
397.971	1.85
398.181	2.5
398.39	2.67
398.599	2.56
398.808	2.59
399.017	2.89
399.226	3.01
399.435	2.72
399.644	3.19
399.853	3.26
400.062	3.29
400.27	3.43
400.479	3.54
400.688	3.19
400.897	3.09
401.106	2.7
401.315	2.41
401.524	2.69
401.733	2.5
401.941	2.59
402.15	2.8
402.359	2.62
402.568	2.47
402.777	2.68
402.985	2.52
403.194	2.32
403.403	2.48
403.612	2.54
403.82	2.53
404.029	2.39
404.238	2.39
404.446	2.46
404.655	2.31
404.864	2.36
405.072	2.63
405.281	2.59
405.489	2.46
405.698	2.58
405.906	2.31
406.115	2.18
406.324	2.19
406.532	2.3
406.741	2.26
406.949	2.47
407.158	2.54
407.366	2.54
407.574	2.47
407.783	2.51
407.991	2.33
408.2	2.26
408.408	2.22
408.617	2.24
408.825	2.18
409.033	2.4
409.242	2.5
409.45	2.43
409.658	2.49
409.867	2.42
410.075	2.31
410.283	2.21
410.491	2.2
410.7	2.15
410.908	2.32
411.116	2.38
411.324	2.32
411.533	2.49
411.741	2.44
411.949	2.43
412.157	2.28
412.365	2.19
412.573	2.07
412.781	2.04
412.99	2.02
413.198	2.09
413.406	2.16
413.614	2.26
413.822	2.34
414.03	2.19
414.238	2.19
414.446	2.31
414.654	2.18
414.862	2.17
415.07	2.05
415.278	2.13
415.486	2.02
415.694	2.07
415.902	1.94
416.109	2.08
416.317	2
416.525	2
416.733	1.97
416.941	2.03
417.149	1.96
417.357	1.93
417.564	2
417.772	2.01
417.98	2.06
418.188	2.08
418.395	1.89
418.603	1.79
418.811	1.91
419.019	1.88
419.226	1.9
419.434	2.16
419.642	2.17
419.849	2.06
420.057	1.95
420.265	1.89
420.472	1.8
420.68	1.87
420.887	1.95
421.095	1.92
421.302	2.04
421.51	2.02
421.717	2.03
421.925	1.88
422.132	1.94
422.34	1.78
422.547	1.67
422.755	1.67
422.962	1.69
423.17	1.65
423.377	1.76
423.585	2.04
423.792	1.83
423.999	1.81
424.207	1.81
424.414	1.67
424.621	1.48
424.829	1.53
425.036	1.6
425.243	1.73
425.451	1.75
425.658	1.8
425.865	1.84
426.072	1.82
426.28	1.86
426.487	2.06
426.694	2.07
426.901	2.02
427.108	2
427.315	2.02
427.523	1.86
427.73	1.8
427.937	1.79
428.144	1.86
428.351	1.79
428.558	1.97
428.765	2.05
428.972	2.19
429.179	2.08
429.386	1.99
429.593	1.91
429.8	1.82
430.007	1.72
430.214	1.86
430.421	1.88
430.628	1.76
430.835	1.8
431.042	1.83
431.249	1.84
431.456	1.71
431.662	1.86
431.869	1.96
432.076	2.01
432.283	2.03
432.49	2.1
432.697	2.12
432.903	1.94
433.11	1.88
433.317	1.8
433.524	1.97
433.73	1.87
433.937	1.89
434.144	1.85
434.35	1.82
434.557	1.68
434.764	1.66
434.97	1.69
435.177	1.99
435.384	1.96
435.59	1.97
435.797	2.08
436.003	2.09
436.21	1.87
436.416	1.79
436.623	1.86
436.829	1.8
437.036	1.8
437.242	1.79
437.449	1.9
437.655	1.95
437.862	2.03
438.068	1.95
438.275	2.04
438.481	2.05
438.687	1.94
438.894	1.98
439.1	2.12
439.307	2.14
439.513	2.17
439.719	2.17
439.926	2.01
440.132	2.02
440.338	2.06
440.544	1.99
440.751	2.1
440.957	2.21
441.163	2.14
441.369	2.2
441.575	2.22
441.782	2.14
441.988	2.06
442.194	2.08
442.4	1.91
442.606	2.05
442.812	2.11
443.018	2.13
443.224	2.26
443.431	2.18
443.637	2.18
443.843	2.17
444.049	2.27
444.255	2.14
444.461	2.26
444.667	2.15
444.873	2.11
445.079	2.02
445.284	2.08
445.49	2.05
445.696	2.09
445.902	2.1
446.108	2.05
446.314	2.11
446.52	2.16
446.726	2.15
446.931	2.18
447.137	2.29
447.343	2.21
447.549	2.11
447.755	2.01
447.96	2.02
448.166	1.94
448.372	1.94
448.578	2.04
448.783	2.17
448.989	2.17
449.195	2.18
449.4	2.28
449.606	2.26
449.812	2.21
450.017	2.21
450.223	2.32
450.428	2.3
450.634	2.37
450.84	2.53
451.045	2.57
451.251	2.57
451.456	2.5
451.662	2.45
451.867	2.31
452.073	2.27
452.278	2.17
452.483	2.22
452.689	2.2
452.894	2.2
453.1	2.21
453.305	2.25
453.51	2.26
453.716	2.21
453.921	2.23
454.127	2.31
454.332	2.25
454.537	2.21
454.742	2.21
454.948	2.08
455.153	1.97
455.358	2.1
455.563	2.04
455.769	2
455.974	2.12
456.179	2.11
456.384	2.01
456.589	2.1
456.795	2.25
457	2.26
457.205	2.32
457.41	2.37
457.615	2.31
457.82	2.27
458.025	2.24
458.23	2.21
458.435	2.16
458.64	2.13
458.845	2.15
459.05	2.17
459.255	2.18
459.46	2.29
459.665	2.34
459.87	2.23
460.075	2.24
460.28	2.21
460.485	2.14
460.69	2.14
460.895	2.22
461.099	2.17
461.304	2.13
461.509	2.22
461.714	2.23
461.919	2.19
462.123	2.24
462.328	2.35
462.533	2.27
462.738	2.29
462.942	2.38
463.147	2.35
463.352	2.35
463.556	2.35
463.761	2.24
463.966	2.21
464.17	2.33
464.375	2.24
464.58	2.24
464.784	2.4
464.989	2.27
465.193	2.23
465.398	2.35
465.602	2.44
465.807	2.32
466.011	2.44
466.216	2.39
466.42	2.34
466.625	2.33
466.829	2.47
467.034	2.52
467.238	2.61
467.443	2.56
467.647	2.44
467.851	2.33
468.056	2.27
468.26	2.21
468.464	2.26
468.669	2.45
468.873	2.55
469.077	2.59
469.282	2.63
469.486	2.61
469.69	2.51
469.894	2.4
470.099	2.36
470.303	2.34
470.507	2.35
470.711	2.37
470.915	2.37
471.119	2.37
471.324	2.4
471.528	2.37
471.732	2.42
471.936	2.45
472.14	2.44
472.344	2.43
472.548	2.52
472.752	2.54
472.956	2.64
473.16	2.69
473.364	2.72
473.568	2.7
473.772	2.61
473.976	2.61
474.18	2.68
474.384	2.67
474.588	2.62
474.792	2.63
474.995	2.62
475.199	2.56
475.403	2.54
475.607	2.64
475.811	2.69
476.015	2.72
476.218	2.7
476.422	2.69
476.626	2.64
476.83	2.66
477.033	2.65
477.237	2.69
477.441	2.69
477.644	2.74
477.848	2.72
478.052	2.68
478.255	2.7
478.459	2.69
478.663	2.75
478.866	2.78
479.07	2.77
479.273	2.77
479.477	2.8
479.681	2.79
479.884	2.76
480.088	2.8
480.291	2.82
480.495	2.84
480.698	2.8
480.901	2.85
481.105	2.86
481.308	2.82
481.512	2.92
481.715	2.88
481.919	2.88
482.122	2.87
482.325	2.85
482.529	2.75
482.732	2.83
482.935	2.82
483.138	2.87
483.342	2.9
483.545	2.95
483.748	2.88
483.952	2.93
484.155	2.98
484.358	2.95
484.561	2.94
484.764	3.01
484.967	3
485.171	2.89
485.374	2.93
485.577	3.02
485.78	3
485.983	3.04
486.186	3.07
486.389	3.1
486.592	2.98
486.795	3.03
486.998	2.97
487.201	3
487.404	3.06
487.607	3.13
487.81	3.06
488.013	3.11
488.216	3.17
488.419	3.17
488.622	3.16
488.825	3.26
489.028	3.21
489.231	3.22
489.433	3.19
489.636	3.24
489.839	3.22
490.042	3.26
490.245	3.24
490.447	3.21
490.65	3.23
490.853	3.22
491.056	3.24
491.258	3.2
491.461	3.28
491.664	3.3
491.866	3.3
492.069	3.36
492.272	3.38
492.474	3.43
492.677	3.37
492.879	3.45
493.082	3.39
493.285	3.46
493.487	3.43
493.69	3.46
493.892	3.53
494.095	3.65
494.297	3.66
494.5	3.69
494.702	3.75
494.905	3.72
495.107	3.69
495.309	3.8
495.512	3.87
495.714	3.99
495.917	4
496.119	4.04
496.321	4.01
496.524	4
496.726	3.92
496.928	3.99
497.13	4.07
497.333	4.07
497.535	4.15
497.737	4.21
497.939	4.28
498.142	4.33
498.344	4.36
498.546	4.34
498.748	4.44
498.95	4.48
499.152	4.5
499.355	4.61
499.557	4.67
499.759	4.63
499.961	4.61
500.163	4.57
500.365	4.55
500.567	4.59
500.769	4.64
500.971	4.72
501.173	4.78
501.375	4.83
501.577	4.88
501.779	4.89
501.981	4.85
502.183	4.93
502.385	4.95
502.587	4.88
502.788	4.98
502.99	5.04
503.192	5.07
503.394	5.05
503.596	5.13
503.798	5.12
503.999	5.14
504.201	5.16
504.403	5.15
504.605	5.17
504.806	5.19
505.008	5.22
505.21	5.29
505.411	5.32
505.613	5.3
505.815	5.34
506.016	5.31
506.218	5.19
506.42	5.24
506.621	5.27
506.823	5.26
507.024	5.27
507.226	5.36
507.427	5.33
507.629	5.36
507.83	5.3
508.032	5.37
508.233	5.36
508.435	5.33
508.636	5.37
508.838	5.41
509.039	5.35
509.24	5.27
509.442	5.34
509.643	5.25
509.845	5.24
510.046	5.27
510.247	5.31
510.448	5.31
510.65	5.38
510.851	5.4
511.052	5.37
511.254	5.34
511.455	5.29
511.656	5.21
511.857	5.16
512.058	5.13
512.26	5.12
512.461	5.11
512.662	5.09
512.863	5.05
513.064	5.05
513.265	5.03
513.466	5.09
513.667	5.09
513.868	5.17
514.069	5.21
514.27	5.3
514.471	5.32
514.672	5.31
514.873	5.22
515.074	5.25
515.275	5.19
515.476	5.11
515.677	5.12
515.878	5.22
516.079	5.13
516.28	5.15
516.481	5.19
516.682	5.21
516.882	5.13
517.083	5.14
517.284	5.05
517.485	5
517.686	4.95
517.886	5.07
518.087	5.1
518.288	5.18
518.488	5.17
518.689	5.22
518.89	5.17
519.091	5.19
519.291	5.13
519.492	5.18
519.692	5.25
519.893	5.3
520.094	5.34
520.294	5.41
520.495	5.4
520.695	5.35
520.896	5.28
521.096	5.25
521.297	5.22
521.497	5.24
521.698	5.16
521.898	5.13
522.099	5.11
522.299	5.08
522.499	5.1
522.7	5.16
522.9	5.23
523.101	5.27
523.301	5.31
523.501	5.29
523.702	5.33
523.902	5.3
524.102	5.34
524.302	5.34
524.503	5.36
524.703	5.29
524.903	5.29
525.103	5.23
525.304	5.3
525.504	5.32
525.704	5.42
525.904	5.47
526.104	5.5
526.304	5.42
526.504	5.44
526.705	5.35
526.905	5.34
527.105	5.37
527.305	5.36
527.505	5.33
527.705	5.37
527.905	5.36
528.105	5.29
528.305	5.34
528.505	5.34
528.705	5.39
528.905	5.41
529.105	5.48
529.304	5.46
529.504	5.5
529.704	5.46
529.904	5.48
530.104	5.43
530.304	5.46
530.503	5.47
530.703	5.5
530.903	5.48
531.103	5.51
531.303	5.54
531.502	5.53
531.702	5.55
531.902	5.59
532.101	5.57
532.301	5.56
532.501	5.55
532.7	5.56
532.9	5.56
533.1	5.58
533.299	5.61
533.499	5.66
533.698	5.69
533.898	5.66
534.097	5.67
534.297	5.71
534.496	5.65
534.696	5.63
534.895	5.68
535.095	5.72
535.294	5.71
535.494	5.75
535.693	5.75
535.892	5.8
536.092	5.84
536.291	5.85
536.491	5.83
536.69	5.87
536.889	5.87
537.088	5.87
537.288	5.89
537.487	5.95
537.686	5.97
537.886	5.99
538.085	5.95
538.284	5.91
538.483	5.98
538.682	6.03
538.882	6.04
539.081	6.15
539.28	6.16
539.479	6.11
539.678	6.08
539.877	6.1
540.076	6.09
540.275	6.16
540.474	6.23
540.673	6.28
540.872	6.31
541.071	6.28
541.27	6.28
541.469	6.29
541.668	6.33
541.867	6.38
542.066	6.43
542.265	6.48
542.464	6.48
542.663	6.47
542.862	6.57
543.06	6.66
543.259	6.77
543.458	6.82
543.657	6.86
543.856	6.77
544.054	6.72
544.253	6.63
544.452	6.66
544.651	6.63
544.849	6.64
545.048	6.65
545.247	6.67
545.445	6.7
545.644	6.78
545.843	6.8
546.041	6.91
546.24	6.95
546.438	7.01
546.637	7.04
546.836	7.16
547.034	7.14
547.233	7.17
547.431	7.15
547.63	7.14
547.828	7.14
548.027	7.15
548.225	7.18
548.423	7.18
548.622	7.23
548.82	7.22
549.019	7.28
549.217	7.34
549.415	7.4
549.614	7.47
549.812	7.46
550.01	7.5
550.209	7.5
550.407	7.55
550.605	7.57
550.803	7.66
551.002	7.67
551.2	7.73
551.398	7.74
551.596	7.76
551.794	7.87
551.993	7.96
552.191	7.95
552.389	8.03
552.587	8.07
552.785	8.11
552.983	8.1
553.181	8.21
553.379	8.31
553.577	8.38
553.775	8.41
553.973	8.48
554.171	8.53
554.369	8.55
554.567	8.6
554.765	8.6
554.963	8.59
555.161	8.61
555.359	8.7
555.557	8.75
555.755	8.85
555.952	8.96
556.15	9.06
556.348	9.07
556.546	9.18
556.744	9.22
556.941	9.27
557.139	9.31
557.337	9.44
557.535	9.43
557.732	9.42
557.93	9.47
558.128	9.49
558.325	9.5
558.523	9.53
558.721	9.6
558.918	9.61
559.116	9.65
559.313	9.66
559.511	9.78
559.708	9.87
559.906	10.06
560.104	10.13
560.301	10.16
560.498	10.21
560.696	10.26
560.893	10.23
561.091	10.34
561.288	10.48
561.486	10.49
561.683	10.58
561.88	10.67
562.078	10.71
562.275	10.75
562.473	10.83
562.67	10.92
562.867	10.91
563.064	10.95
563.262	11.03
563.459	11.13
563.656	11.07
563.853	11.15
564.051	11.17
564.248	11.2
564.445	11.29
564.642	11.41
564.839	11.54
565.036	11.57
565.234	11.63
565.431	11.63
565.628	11.7
565.825	11.64
566.022	11.77
566.219	11.78
566.416	11.85
566.613	11.89
566.81	12.01
567.007	12.09
567.204	12.13
567.401	12.14
567.598	12.18
567.795	12.18
567.991	12.15
568.188	12.19
568.385	12.3
568.582	12.29
568.779	12.3
568.976	12.36
569.172	12.45
569.369	12.41
569.566	12.46
569.763	12.59
569.96	12.62
570.156	12.56
570.353	12.56
570.55	12.57
570.746	12.56
570.943	12.56
571.14	12.63
571.336	12.7
571.533	12.74
571.729	12.76
571.926	12.86
572.123	12.81
572.319	12.83
572.516	12.86
572.712	12.81
572.909	12.71
573.105	12.81
573.302	12.82
573.498	12.79
573.695	12.89
573.891	12.93
574.087	12.88
574.284	12.96
574.48	13.02
574.677	12.97
574.873	12.98
575.069	13.11
575.266	12.96
575.462	12.87
575.658	12.96
575.854	13.06
576.051	12.97
576.247	13.07
576.443	13.17
576.639	13.14
576.835	13.05
577.032	13.03
577.228	13.07
577.424	13.11
577.62	13.08
577.816	13.09
578.012	13.17
578.208	13.15
578.404	13.05
578.6	13.03
578.796	12.98
578.993	12.92
579.189	12.89
579.384	12.87
579.58	12.78
579.776	12.81
579.972	12.82
580.168	12.77
580.364	12.69
580.56	12.74
580.756	12.65
580.952	12.58
581.148	12.55
581.343	12.64
581.539	12.66
581.735	12.72
581.931	12.75
582.127	12.76
582.322	12.73
582.518	12.72
582.714	12.63
582.909	12.56
583.105	12.53
583.301	12.54
583.496	12.52
583.692	12.58
583.888	12.62
584.083	12.59
584.279	12.61
584.474	12.52
584.67	12.47
584.866	12.46
585.061	12.42
585.257	12.42
585.452	12.44
585.648	12.41
585.843	12.38
586.039	12.47
586.234	12.3
586.429	12.31
586.625	12.35
586.82	12.36
587.015	12.34
587.211	12.41
587.406	12.36
587.601	12.31
587.797	12.24
587.992	12.17
588.187	12.11
588.383	12.13
588.578	12.12
588.773	12.17
588.968	12.17
589.163	12.23
589.359	12.26
589.554	12.29
589.749	12.26
589.944	12.31
590.139	12.26
590.334	12.24
590.529	12.24
590.724	12.19
590.919	12.17
591.114	12.25
591.309	12.28
591.504	12.37
591.699	12.46
591.894	12.5
592.089	12.51
592.284	12.54
592.479	12.51
592.674	12.45
592.869	12.46
593.064	12.45
593.259	12.49
593.454	12.48
593.648	12.54
593.843	12.62
594.038	12.68
594.233	12.66
594.428	12.7
594.622	12.75
594.817	12.76
595.012	12.74
595.206	12.76
595.401	12.8
595.596	12.76
595.79	12.74
595.985	12.77
596.18	12.85
596.374	12.83
596.569	13
596.763	13.08
596.958	13.09
597.153	13.07
597.347	13.18
597.542	13.15
597.736	13.11
597.931	13.17
598.125	13.2
598.319	13.29
598.514	13.41
598.708	13.51
598.903	13.52
599.097	13.59
599.291	13.58
599.486	13.56
599.68	13.48
599.874	13.47
600.069	13.55
600.263	13.5
600.457	13.49
600.651	13.56
600.846	13.57
601.04	13.53
601.234	13.53
601.428	13.61
601.622	13.66
601.817	13.72
602.011	13.75
602.205	13.73
602.399	13.67
602.593	13.73
602.787	13.71
602.981	13.65
603.175	13.79
603.369	13.78
603.563	13.67
603.757	13.72
603.951	13.75
604.145	13.63
604.339	13.71
604.533	13.76
604.727	13.69
604.921	13.72
605.115	13.73
605.309	13.57
605.502	13.51
605.696	13.45
605.89	13.33
606.084	13.31
606.278	13.32
606.471	13.36
606.665	13.34
606.859	13.36
607.053	13.32
607.246	13.26
607.44	13.18
607.634	13.17
607.827	13.09
608.021	12.99
608.214	12.97
608.408	12.94
608.602	12.96
608.795	12.94
608.989	13
609.182	13.07
609.376	13.1
609.569	13.01
609.763	12.96
609.956	12.88
610.15	12.73
610.343	12.62
610.537	12.59
610.73	12.55
610.923	12.48
611.117	12.44
611.31	12.43
611.504	12.45
611.697	12.42
611.89	12.42
612.083	12.36
612.277	12.28
612.47	12.15
612.663	12.11
612.856	12.03
613.05	11.99
613.243	11.99
613.436	12.02
613.629	12
613.822	11.94
614.015	11.93
614.209	11.85
614.402	11.75
614.595	11.71
614.788	11.69
614.981	11.65
615.174	11.59
615.367	11.57
615.56	11.51
615.753	11.54
615.946	11.43
616.139	11.38
616.332	11.36
616.525	11.31
616.718	11.14
616.911	11.16
617.103	11.19
617.296	11.11
617.489	11.1
617.682	11.17
617.875	11.15
618.067	11
618.26	11.02
618.453	11.01
618.646	10.95
618.838	10.88
619.031	10.9
619.224	10.8
619.417	10.77
619.609	10.76
619.802	10.77
619.994	10.76
620.187	10.76
620.38	10.68
620.572	10.63
620.765	10.64
620.957	10.64
621.15	10.59
621.342	10.56
621.535	10.57
621.727	10.54
621.92	10.49
622.112	10.53
622.305	10.58
622.497	10.53
622.69	10.43
622.882	10.43
623.074	10.45
623.267	10.42
623.459	10.5
623.651	10.46
623.844	10.52
624.036	10.46
624.228	10.47
624.42	10.36
624.613	10.52
624.805	10.5
624.997	10.43
625.189	10.44
625.381	10.5
625.574	10.39
625.766	10.31
625.958	10.35
626.15	10.29
626.342	10.2
626.534	10.13
626.726	10.13
626.918	10.06
627.11	10.03
627.302	10
627.494	9.95
627.686	9.94
627.878	9.92
628.07	9.9
628.262	9.88
628.454	9.86
628.646	9.84
628.838	9.89
629.029	9.86
629.221	9.85
629.413	9.88
629.605	9.84
629.797	9.83
629.989	9.76
630.18	9.71
630.372	9.73
630.564	9.73
630.755	9.75
630.947	9.69
631.139	9.69
631.33	9.61
631.522	9.55
631.714	9.43
631.905	9.47
632.097	9.42
632.289	9.43
632.48	9.39
632.672	9.37
632.863	9.3
633.055	9.27
633.246	9.21
633.438	9.21
633.629	9.18
633.821	9.18
634.012	9.15
634.203	9.16
634.395	9.14
634.586	9.15
634.777	9.16
634.969	9.14
635.16	9.19
635.351	9.14
635.543	9.11
635.734	9.12
635.925	9.13
636.117	9.13
636.308	9.19
636.499	9.19
636.69	9.1
636.881	9.11
637.073	9.08
637.264	9.01
637.455	9
637.646	9.07
637.837	9.13
638.028	9.03
638.219	8.92
638.41	8.88
638.601	8.85
638.792	8.8
638.983	8.82
639.174	8.8
639.365	8.72
639.556	8.65
639.747	8.57
639.938	8.5
640.129	8.58
640.32	8.59
640.511	8.57
640.701	8.53
640.892	8.57
641.083	8.45
641.274	8.41
641.465	8.41
641.655	8.41
641.846	8.33
642.037	8.33
642.228	8.32
642.418	8.26
642.609	8.27
642.8	8.22
642.99	8.17
643.181	8.17
643.372	8.16
643.562	8.1
643.753	8.18
643.943	8.23
644.134	8.21
644.324	8.24
644.515	8.19
644.705	8.19
644.896	8.27
645.086	8.25
645.277	8.18
645.467	8.29
645.658	8.23
645.848	8.15
646.038	8.07
646.229	8.17
646.419	8.05
646.61	8.06
646.8	8.06
646.99	8.05
647.18	7.91
647.371	7.87
647.561	7.77
647.751	7.66
647.941	7.66
648.132	7.69
648.322	7.77
648.512	7.84
648.702	7.9
648.892	7.94
649.082	7.97
649.272	7.85
649.462	7.81
649.653	7.84
649.843	7.81
650.033	7.83
650.223	7.86
650.413	7.83
650.603	7.79
650.793	7.76
650.983	7.62
651.172	7.58
651.362	7.53
651.552	7.41
651.742	7.32
651.932	7.32
652.122	7.43
652.312	7.41
652.502	7.43
652.691	7.52
652.881	7.51
653.071	7.39
653.261	7.3
653.45	7.35
653.64	7.26
653.83	7.19
654.019	7.14
654.209	7.13
654.399	7.05
654.588	6.98
654.778	6.98
654.968	6.96
655.157	6.98
655.347	6.95
655.536	6.89
655.726	6.8
655.915	6.74
656.105	6.68
656.294	6.65
656.484	6.62
656.673	6.62
656.863	6.55
657.052	6.48
657.241	6.3
657.431	6.22
657.62	6.17
657.809	6.17
657.999	6.08
658.188	6.09
658.377	6.03
658.567	5.9
658.756	5.74
658.945	5.65
659.134	5.49
659.324	5.47
659.513	5.39
659.702	5.34
659.891	5.34
660.08	5.34
660.269	5.22
660.458	5.27
660.648	5.26
660.837	5.18
661.026	5.06
661.215	5.02
661.404	4.9
661.593	4.76
661.782	4.66
661.971	4.66
662.16	4.6
662.349	4.5
662.538	4.52
662.726	4.54
662.915	4.53
663.104	4.49
663.293	4.47
663.482	4.4
663.671	4.32
663.86	4.19
664.048	4.19
664.237	4.17
664.426	4.2
664.615	4.2
664.803	4.3
664.992	4.15
665.181	4.17
665.369	4.09
665.558	4.06
665.747	4.02
665.935	4.09
666.124	4
666.312	3.96
666.501	3.9
666.69	3.79
666.878	3.74
667.067	3.71
667.255	3.67
667.444	3.75
667.632	3.84
667.82	3.92
668.009	3.94
668.197	4.05
668.386	3.97
668.574	3.97
668.762	3.83
668.951	3.96
669.139	3.89
669.327	3.87
669.516	3.79
669.704	3.87
669.892	3.81
670.08	3.8
670.269	3.83
670.457	3.91
670.645	3.87
670.833	3.81
671.021	3.89
671.21	3.86
671.398	3.9
671.586	3.9
671.774	3.95
671.962	3.87
672.15	3.91
672.338	3.98
672.526	4.11
672.714	4.03
672.902	4.01
673.09	4.04
673.278	3.95
673.466	4.05
673.654	4.3
673.842	4.4
674.03	4.52
674.218	4.52
674.405	4.51
674.593	4.55
674.781	4.54
674.969	4.58
675.157	4.71
675.344	4.64
675.532	4.56
675.72	4.55
675.908	4.55
676.095	4.51
676.283	4.6
676.471	4.69
676.658	4.79
676.846	4.82
677.033	4.92
677.221	4.98
677.409	4.98
677.596	5.11
677.784	5.25
677.971	5.35
678.159	5.41
678.346	5.46
678.534	5.5
678.721	5.37
678.909	5.39
679.096	5.42
679.283	5.44
679.471	5.5
679.658	5.73
679.846	5.73
680.033	5.91
680.22	5.96
680.408	5.96
680.595	5.96
680.782	5.98
680.969	5.82
681.157	5.86
681.344	5.92
681.531	6.04
681.718	6.11
681.905	6.23
682.093	6.31
682.28	6.33
682.467	6.31
682.654	6.36
682.841	6.44
683.028	6.57
683.215	6.75
683.402	6.85
683.589	6.92
683.776	7.04
683.963	7.09
684.15	7.15
684.337	7.32
684.524	7.49
684.711	7.61
684.898	7.88
685.085	8.02
685.271	8.01
685.458	8.18
685.645	8.31
685.832	8.26
686.019	8.39
686.205	8.68
686.392	8.66
686.579	8.77
686.766	8.96
686.952	9.18
687.139	9.18
687.326	9.52
687.512	9.75
687.699	10.11
687.886	10.29
688.072	10.51
688.259	10.74
688.445	10.9
688.632	11.05
688.818	11.31
689.005	11.68
689.191	11.99
689.378	12.37
689.564	12.45
689.751	12.69
689.937	13.01
690.124	13.19
690.31	13.35
690.496	13.81
690.683	13.97
690.869	14.32
691.055	14.76
691.242	15.19
691.428	15.53
691.614	16.2
691.8	16.54
691.987	16.71
692.173	17.16
692.359	17.52
692.545	17.89
692.731	18.34
692.918	18.98
693.104	19.37
693.29	19.88
693.476	20.2
693.662	20.51
693.848	20.9
694.034	21.12
694.22	21.56
694.406	21.86
694.592	22.43
694.778	22.65
694.964	23.14
695.15	23.54
695.336	24.15
695.522	24.49
695.708	25.27
695.894	25.8
696.08	26.27
696.265	26.7
696.451	27.26
696.637	27.5
696.823	28.24
697.009	28.71
697.194	29.04
697.38	29.36
697.566	29.75
697.751	30.16
697.937	30.39
698.123	30.9
698.308	31.43
698.494	31.99
698.68	32.09
698.865	32.75
699.051	33.34
699.236	34.05
699.422	34.67
699.607	35.25
699.793	35.74
699.978	36.06
700.164	36.35
700.349	36.81
700.535	37.31
700.72	37.59
700.906	38.19
701.091	38.49
701.276	38.89
701.462	39.67
701.647	40.28
701.832	40.65
702.018	41.14
702.203	41.55
702.388	41.58
702.573	41.72
702.759	42.1
702.944	42.57
703.129	43.04
703.314	43.48
703.499	44.45
703.684	44.64
703.87	44.87
704.055	45.03
704.24	45.52
704.425	45.83
704.61	46.28
704.795	46.72
704.98	47.13
705.165	47.32
705.35	47.49
705.535	47.85
705.72	48.18
705.905	48.78
706.09	49.17
706.275	49.55
706.459	50.1
706.644	50.49
706.829	50.6
707.014	51.32
707.199	51.73
707.384	52.18
707.568	52.4
707.753	53.22
707.938	53.4
708.123	53.86
708.307	54.27
708.492	54.56
708.677	54.65
708.861	54.86
709.046	54.87
709.231	55.2
709.415	55.53
709.6	55.57
709.784	56.03
709.969	56.17
710.153	56.12
710.338	56.55
710.522	57.17
710.707	57.38
710.891	57.7
711.076	58.36
711.26	58.74
711.445	58.74
711.629	59.06
711.813	59.48
711.998	59.36
712.182	59.96
712.366	60.03
712.551	60.2
712.735	60.32
712.919	60.42
713.103	60.53
713.288	60.94
713.472	61.46
713.656	61.82
713.84	62.22
714.024	62.14
714.208	62.55
714.393	62.17
714.577	62.2
714.761	62.8
714.945	63.17
715.129	62.96
715.313	64.2
715.497	64.97
715.681	65.39
715.865	65.46
716.049	65.88
716.233	65.51
716.417	65.87
716.601	65.88
716.785	66.02
716.968	66.41
717.152	66.86
717.336	66.6
717.52	66.8
717.704	67.22
717.888	67.18
718.071	67.25
718.255	67.62
718.439	67.19
718.622	67.31
718.806	67.67
718.99	68.13
719.174	68.46
719.357	69.09
719.541	69.36
719.724	70.11
719.908	70
720.092	70.48
720.275	70.44
720.459	70.54
720.642	70.79
720.826	70.71
721.009	70.81
721.193	71.54
721.376	71.91
721.559	71.61
721.743	71.89
721.926	71.64
722.11	71.59
722.293	71.78
722.476	72.14
722.66	72.2
722.843	72.18
723.026	72.71
723.21	72.95
723.393	72.75
723.576	73.18
723.759	73.61
723.942	73
724.126	72.95
724.309	73.73
724.492	72.73
724.675	72.99
724.858	73.7
725.041	73.83
725.224	73.56
725.407	74.81
725.59	74.75
725.774	74.74
725.957	74.83
726.14	75.16
726.322	74.45
726.505	75.05
726.688	75.01
726.871	75.5
727.054	75.2
727.237	76.33
727.42	76.4
727.603	76.26
727.786	75.76
727.968	75.35
728.151	74.94
728.334	75.08
728.517	75.49
728.699	76.43
728.882	76.89
729.065	77.57
729.248	77.83
729.43	77.24
729.613	76.89
729.796	77.24
729.978	77.42
730.161	76.65
730.343	77.62
730.526	78.16
730.708	78.53
730.891	78.01
731.073	78.19
731.256	77.83
731.438	77
731.621	77.29
731.803	77.52
731.986	77.7
732.168	78.07
732.35	78.53
732.533	77.89
732.715	77.8
732.898	77.96
733.08	78.14
733.262	78.89
733.444	79.21
733.627	79.24
733.809	78.96
733.991	80.06
734.173	79.43
734.355	79.92
734.538	79.91
734.72	80.13
734.902	79.25
735.084	79.43
735.266	79.17
735.448	79.8
735.63	80.19
735.812	80.32
735.994	80.68
736.176	80.73
736.358	80.54
736.54	79.59
736.722	79.39
736.904	79.44
737.086	79.61
737.268	79.77
737.45	81.26
737.632	80.86
737.814	80.85
737.995	80.62
738.177	80.72
738.359	79.74
738.541	81.08
738.723	81.66
738.904	82.02
739.086	81.39
739.268	81.78
739.449	80.58
739.631	80.03
739.813	79.83
739.994	81
740.176	81.65
740.358	82.39
740.539	82.96
740.721	82.67
740.902	82.07
741.084	82.44
741.265	82.48
741.447	81.96
741.628	83.76
741.81	83.48
741.991	81.57
742.172	81.54
742.354	80.49
742.535	78.4
742.717	78.82
742.898	80.48
743.079	80.63
743.261	82.71
743.442	83.53
743.623	84.31
743.804	83.6
743.986	83.9
744.167	82.8
744.348	83.11
744.529	83.05
744.71	83.23
744.891	82.47
745.073	83.44
745.254	84.21
745.435	83.69
745.616	84.21
745.797	84.14
745.978	83.61
746.159	82.76
746.34	81.8
746.521	81.47
746.702	81.07
746.883	78.67
747.064	78.29
747.245	79.56
747.426	79.83
747.606	80.1
747.787	82.13
747.968	83.2
748.149	82.63
748.33	81.74
748.51	81.9
748.691	82.03
748.872	80.98
749.053	80.79
749.233	81.22
749.414	82.17
749.595	83.23
749.775	83.63
749.956	84.21
750.137	85.14
750.317	84.23
750.498	83.79
750.678	84.6
750.859	82.54
751.04	81.58
751.22	81.14
751.4	80.33
751.581	79.26
751.761	79.85
751.942	81
752.122	81.3
752.303	80.4
752.483	80.84
752.663	82.13
752.844	81.56
753.024	82.27
753.204	82.2
753.385	81.26
753.565	80.83
753.745	81.18
753.925	81.77
754.106	81.85
754.286	83.42
754.466	84.77
754.646	84.21
754.826	83.11
755.006	85.1
755.187	83.49
755.367	82.06
755.547	81.78
755.727	82.85
755.907	80.21
756.087	79.8
756.267	79.14
756.447	79.45
756.627	78.04
756.807	79.08
756.987	80.48
757.167	80.99
757.346	80.22
757.526	80.68
757.706	80.44
757.886	79.17
758.066	80.76
758.246	81.83
758.425	81.93
758.605	81.49
758.785	83.52
758.965	82.28
759.144	81.77
759.324	81.46
759.504	82.68
759.683	82.04
759.863	82.21
760.043	81.36
760.222	80.37
760.402	79.41
760.581	78.98
760.761	78.78
760.94	79.36
761.12	83.28
761.299	83.19
761.479	84.17
761.658	83.49
761.838	82.78
762.017	80.83
762.197	82.23
762.376	80.95
762.555	83.56
762.735	84.31
762.914	84.31
763.093	84.63
763.273	83.56
763.452	80.17
763.631	80.83
763.81	79.54
763.99	78.73
764.169	79.89
764.348	81.11
764.527	80.57
764.706	79.4
764.885	79.87
765.064	80.6
765.243	78.88
765.423	78.72
765.602	80.84
765.781	81.81
765.96	80.15
766.139	82.89
766.318	81.94
766.497	82.26
766.676	81.13
766.854	82.75
767.033	81.41
767.212	82.41
767.391	81.21
767.57	82.26
767.749	80.63
767.928	80.72
768.106	78.29
768.285	77.67
768.464	73.8
768.643	74.56
768.821	73.19
769	73.87
769.179	74.42
769.357	76.72
769.536	75.91
769.715	78.07
769.893	79.38
770.072	78.57
770.25	78.18
770.429	78
770.607	77.84
770.786	78.32
770.964	79.71
771.143	81.51
771.321	83.53
771.5	83.2
771.678	83.67
771.857	83.34
772.035	82.16
772.213	80.29
772.392	79.57
772.57	79.13
772.748	77.57
772.927	76.49
773.105	77.62
773.283	76.84
773.461	75.51
773.64	75.03
773.818	75.36
773.996	74.15
774.174	74.27
774.352	74.59
774.531	75.99
774.709	75.28
774.887	75.1
775.065	76.24
775.243	76.01
775.421	73.12
775.599	74.02
775.777	74.43
775.955	73.28
776.133	70.99
776.311	71.76
776.489	74.27
776.667	74.26
776.844	76.24
777.022	77.77
777.2	81
777.378	77.57
777.556	75.78
777.734	75.05
777.911	78.16
778.089	77.34
778.267	76.64
778.445	74.58
778.622	73.19
778.8	71.1
778.978	72.53
779.155	73.12
779.333	76.01
779.511	74.13
779.688	74.53
779.866	71.41
780.043	70.84
780.221	69.79
780.398	72.09
780.576	71.3
780.753	72.85
780.931	74.34
781.108	74.92
781.286	74.31
781.463	76.13
781.64	72.34
781.818	73.41
781.995	73.71
782.172	73.53
782.35	71.7
782.527	75.96
782.704	74.09
782.882	74.44
783.059	75.16
783.236	71.8
783.413	69.85
783.59	70.72
783.768	70.11
783.945	67.81
784.122	72.57
784.299	70.82
784.476	68.26
784.653	69.68
784.83	71.54
785.007	69.02
785.184	72.93
785.361	75.95
785.538	73.5
785.715	72.25
785.892	76.87
786.069	76.76
786.246	75.66
786.423	80.1
786.6	81.38
786.776	77.56
786.953	74.35
787.13	75.87
787.307	72.02
787.484	72.92
787.66	72.25
787.837	78.54
788.014	80.94
788.191	83.27
788.367	82.63
788.544	86.35
788.721	80.1
788.897	74.96
789.074	72.74
789.25	70.78
789.427	69.09
789.603	69.37
789.78	67.92
789.956	73.81
790.133	73.69
790.309	73.69
790.486	75.54
790.662	78.73
790.839	73.63
791.015	72.64
791.192	68.54
791.368	69.28
791.544	66.63
791.721	69.16
791.897	73
792.073	73.06
792.249	71.49
792.426	74.76
792.602	69.82
792.778	68.09
792.954	70.17
793.13	70.8
793.307	68.16
793.483	68.89
793.659	68.57
793.835	66.05
794.011	63.29
794.187	63.89
794.363	61.11
794.539	65.3
794.715	68.41
794.891	69.33
795.067	69.6
795.243	71.49
795.419	69.4
795.595	65.93
795.771	65.81
795.947	63.04
796.122	64.82
796.298	62.97
796.474	63.98
796.65	66.13
796.826	68.84
797.001	69.85
797.177	68.25
797.353	67.42
797.529	70.1
797.704	68.62
797.88	66.8
798.056	70.99
798.231	73.9
798.407	68.63
798.582	69.49
798.758	77.34
798.934	75.49
799.109	70.9
799.285	71.76
799.46	73.42
799.636	68.15
799.811	64.54
799.986	67.69
800.162	72.96
800.337	77.81
800.513	79.37
800.688	84.2
800.863	88.93
801.039	82.71
801.214	82.05
801.389	79.38
801.565	72.94
801.74	65.3
801.915	66.67
802.09	60.41
802.265	59.54
802.441	67.48
802.616	71.56
802.791	64.7
802.966	70.94
803.141	68.5
803.316	65.81
803.491	63.99
803.666	70.17
803.841	59.08
804.016	61.36
804.191	60.74
804.366	63.02
804.541	59.09
804.716	65.18
804.891	58.1
805.066	56.86
805.241	50.69
805.416	51.97
805.591	56.51
805.765	64.27
805.94	65.45
806.115	70.51
806.29	72.57
806.464	60.1
806.639	63.29
806.814	60.38
806.989	55.19
807.163	54.34
807.338	61.96
807.512	55.31
807.687	57.72
807.862	61.81
808.036	60.81
808.211	55.32
808.385	52.37
808.56	50.41
808.734	48.87
808.909	46.85
809.083	52.34
809.258	53.65
809.432	56.66
809.606	53.27
809.781	53.05
809.955	54.1
810.13	60.05
810.304	53.94
810.478	54.51
810.652	62.89
810.827	62.03
811.001	59.79
811.175	71.67
811.349	78.74
811.524	64.35
811.698	63.52
811.872	65.23
812.046	58.71
812.22	64.62
812.394	70.25
812.568	71.58
812.742	72.48
812.916	82.34
813.09	70.12
813.264	87.47
813.438	82.16
813.612	80.17
813.786	68.64
813.96	73.56
814.134	64.55
814.308	62.92
814.482	63.55
814.656	71.58
814.83	68.77
815.003	61.84
815.177	65.98
815.351	64.76
815.525	55.25
815.698	54.74
815.872	47.23
816.046	47.76
816.219	42.4
816.393	41.36
816.567	43.33
816.74	54.54
816.914	47.19
817.088	55.61
817.261	55.03
817.435	59.07
817.608	55.87
817.782	62.47
817.955	60.07
818.129	63.12
818.302	60.7
818.475	60.41
818.649	60.45
818.822	66.6
818.996	58.79
819.169	45.43
819.342	55.7
819.516	53.74
819.689	47.91
819.862	50.84
820.035	60.46
820.209	63.12
820.382	67.5
820.555	61.36
820.728	69.57
820.901	72.36
821.075	65.97
821.248	60.45
821.421	60.88
821.594	66.11
821.767	75.24
821.94	68.34
822.113	75.5
822.286	71.79
822.459	56.92
822.632	50.03
822.805	56.69
822.978	51.85
823.151	68.28
823.324	75.82
823.496	57.48
823.669	60.45
823.842	62.61
824.015	67.06
824.188	62.77
824.361	78.06
824.533	82.22
824.706	81.25
824.879	67.86
825.051	69.5
825.224	63.54
825.397	44.17
825.569	44.32
825.742	40.25
825.915	47.45
826.087	49.88
826.26	55.47
826.432	59.11
826.605	69.3
826.777	55.06
826.95	49.79
827.122	55.6
827.295	47.62
827.467	40.64
827.64	39.83
827.812	42.79
827.984	41.6
828.157	37.06
828.329	44.5
828.501	50.9
828.674	55.14
828.846	49.5
829.018	63.2
829.19	64.83
829.363	60.57
829.535	49.58
829.707	61.52
829.879	55.36
830.051	47.41
830.223	47.18
830.395	44.66
830.568	47.2
830.74	37.05
830.912	40.19
831.084	44.24
831.256	49.12
831.428	33.58
831.6	38.66
831.772	21.2
831.943	32.13
832.115	23.61
832.287	34.39
832.459	49.17
832.631	62.21
832.803	59.39
832.975	54.81
833.146	39.45
833.318	15.34
833.49	4.96
833.662	6.62
833.833	21.8
834.005	32.25
834.177	40.51
834.348	51.39
834.52	51.48
834.692	48.39
834.863	47.07
835.035	43.47
835.206	22.07
835.378	27.33
835.549	30.76
835.721	31.32
835.892	27.54
836.064	37.95
836.235	51.76
836.407	51.56
836.578	53.55
836.749	69.43
836.921	51.72
837.092	33.8
837.264	20.22
837.435	18.89
837.606	-22.2
837.777	-7.63
837.949	26.87
838.12	33.53
838.291	27.32
838.462	38.72
838.633	38.56
838.805	17.77
838.976	36.02
839.147	36.2
839.318	52.59
839.489	81.92
839.66	65.48
839.831	60.61
840.002	60.72
840.173	44.34
840.344	-4.12
840.515	-9.62
840.686	-19.07
840.857	-6.62
841.028	6.91
841.199	47.72
841.369	51.73
841.54	78.05
841.711	74.3
841.882	94.63
842.053	52.63
842.223	57.47
842.394	60.39
842.565	55.32
842.736	68.41
842.906	81.17
843.077	71.53
843.248	60.7
843.418	57.6
843.589	31.31
843.759	66.29
843.93	76.17
844.101	60.2
844.271	67.61
844.442	58.25
844.612	34.53
844.783	29.97
844.953	30.37
845.123	30.32
845.294	44.09
845.464	48.8
845.635	23.61
845.805	33.25
845.975	32.35
846.146	10.54
846.316	16.22
846.486	32.8
846.656	38.34
846.827	59.05
846.997	62.84
847.167	70.67
847.337	47.85
847.507	32.21
847.677	15.85
847.848	26.59
848.018	25.96
848.188	26.57
848.358	40.57
848.528	15.4
848.698	18.42
848.868	34.83
849.038	41.08
849.208	12.43
849.378	68.1
849.548	51.55
849.718	45.39
849.887	59.54
850.057	68.74
850.227	11.5
850.397	59.49
850.567	28.78
850.737	22.8
850.906	40.62
851.076	41.76
851.246	24.15
851.415	46.48
851.585	37.71
851.755	36.33
851.924	51.92
852.094	61.91
852.264	46.68
852.433	61.91
852.603	54.42
852.772	60.3
852.942	34.31
853.111	30.09
853.281	33.81
853.45	19.19
853.62	-17.35
853.789	5.43
853.959	6.01
854.128	15.12
854.297	31.3
854.467	32.09
854.636	27.13
854.805	10.73
854.975	-0.21
855.144	-72.21
855.313	43.99
855.482	42.6
855.652	53.67
855.821	51.35
855.99	60.44
856.159	67.27
856.328	82.36
856.497	122.49
856.667	71.22
856.836	89.32
857.005	52.25
857.174	-52.25
857.343	-84.98
857.512	-142.45
857.681	11.46
857.85	49.01
858.019	66.02
858.188	56.42
858.356	86.94
858.525	63.05
858.694	44.51
858.863	17.3
859.032	3.08
859.201	-11.74
859.369	-19.5
859.538	-92.02
859.707	-6.17
859.876	7.72
860.044	14.01
860.213	29.78
860.382	52.01
860.55	34.69
860.719	46.34
860.888	29.38
861.056	48.92
861.225	43.48
861.393	45.67
861.562	21.52
861.73	45.98
861.899	35.08
862.067	25.04
862.236	30.42
862.404	40.17
862.572	17.24
862.741	-4.26
862.909	-1.64
863.078	-31.43
863.246	18
863.414	27.16
863.582	36
863.751	31.45
863.919	16.82
864.087	1.84
864.255	-7.68
864.424	6.35
864.592	20.79
864.76	21.68
864.928	52.03
865.096	55.33
865.264	21.55
865.432	-18.35
865.6	20.44
865.768	-16.24
865.936	-7.69
866.104	8.78
866.272	19.26
866.44	-7.49
866.608	-2.96
866.776	-15.71
866.944	-97.51
867.112	-67.34
867.28	-178.38
867.448	-118.99
867.615	-149.61
867.783	-5.81
867.951	7.74
868.119	-11.49
868.286	7.15
868.454	-8.34
868.622	-21.45
868.789	-113.87
868.957	0.75
869.125	-72.47
869.292	-55.03
869.46	-53.79
869.627	11.89
869.795	-17.7
869.963	-13.23
870.13	-19.74
870.298	-26.73
870.465	-81.27
870.632	-33.29
870.8	-18.13
870.967	-26.67
871.135	-41.96
871.302	-41.32
871.469	603.24
871.637	-165.68
871.804	-32.83
871.971	5.82
872.139	2.01
872.306	17.78
872.473	3.68
872.64	4.57
872.807	8.66
872.975	27.33
873.142	-14.93
873.309	-1259.42
873.476	53.48
873.643	50.54
873.81	33.33
873.977	73.7
874.144	77.75
874.311	31.74
874.478	-7.22
874.645	23.19
874.812	7.03
874.979	0.71
875.146	38.49
875.313	60.87
875.48	-13.73
875.647	97.05
875.813	67.11
875.98	1277.78
876.147	-222.14
876.314	-5.4
876.481	-73.06
876.647	-84.63
876.814	-43.23
876.981	-108.99
877.147	-97.05
877.314	-10.02
877.481	-0.16
877.647	0.23
877.814	8.6
877.98	-41.51
878.147	-112.25
878.314	-220.84
878.48	-140.55
878.647	-1.22
878.813	-236.43
878.979	24.19
879.146	91.65
879.312	100.58
879.479	49.13
879.645	92.18
879.811	77.87
879.978	88.07
880.144	79.83
880.31	60.83
880.477	39.35
880.643	77.49
880.809	46.69
880.975	-2015.15
881.142	220.94
881.308	1078.67
881.474	-173.53
881.64	-214.4
881.806	-41.44
881.972	-37.39
882.138	-4.25
882.304	14.55
882.47	42.75
882.636	-30.28
882.802	67.37
882.968	222.09
883.134	105.89
883.3	77.27
883.466	105.56
883.632	102.1
883.798	38.77
883.964	4.25
884.129	15.23
884.295	14.6
884.461	-3.21
884.627	21.01
884.793	-58.17
884.958	-38.38
885.124	-5.63
885.29	0.71
885.455	-62.05
885.621	-26.51
885.787	-7.59
885.952	122.1
886.118	234.29
886.283	-2261.4
886.449	16.8
886.614	15.82
886.78	5.04
886.945	-71.53
887.111	-52.66
887.276	-38.72
887.442	-86.36
887.607	-103.06
887.773	-9.44
887.938	-36.1
888.103	-33.8
888.269	-78.1
888.434	-46.67
888.599	-51.41
888.764	-30.15
888.93	-189.06
889.095	-92.33
889.26	-176.94
889.425	-188.11
889.59	576.33
889.756	148.35
889.921	-28.01
890.086	64.88
890.251	-10.4
890.416	30.2
890.581	11.66
890.746	43.42
890.911	1.15
891.076	5.09
891.241	-14.3
891.406	-22.73
891.571	-57.05
891.736	-39.47
891.901	-101.84
892.065	-141.79
892.23	-122.27
892.395	-20.48
892.56	-165.68
892.725	-35.47
892.889	17.81
893.054	-2.1
893.219	-115.69
893.384	-102.16
893.548	-415.84
893.713	956.79
893.878	206.11
