Data from Ofav_PS_Phys_362_Reflection_1.txt Node
Date: Thu Jul 29 18:21:32 EDT 2021
User: USUARIO
Spectrometer: FLMT01687
Trigger mode: 0
Integration Time (sec): 9.010000E-1
Scans to average: 2
Electric dark correction enabled: true
Nonlinearity correction enabled: false
Boxcar width: 2
XAxis mode: Wavelengths
Number of Pixels in Spectrum: 3648
>>>>>Begin Spectral Data<<<<<
179.494	-81.9
179.716	-97.3
179.937	-77.14
180.158	288.14
180.38	-29.89
180.601	-766.93
180.823	-284.21
181.044	-206.17
181.265	-169.23
181.486	-403.39
181.708	168.1
181.929	449.37
182.15	19171.43
182.372	-254.59
182.593	-73.92
182.814	-24.81
183.035	-703.09
183.257	120
183.478	51.46
183.699	70.8
183.92	66.97
184.141	50.64
184.363	60.01
184.584	71.66
184.805	50.02
185.026	59.31
185.247	45.27
185.468	23.77
185.689	1.65
185.91	24.65
186.132	-12.3
186.353	12.28
186.574	43
186.795	54.05
187.016	44.15
187.237	25.61
187.458	24.69
187.679	22.52
187.9	27.43
188.121	35.68
188.342	46.79
188.563	63.33
188.784	56.98
189.005	59.19
189.226	49.34
189.447	74.41
189.667	72.14
189.888	82.81
190.109	91.53
190.33	148.5
190.551	72.63
190.772	39.93
190.993	43.46
191.214	33.72
191.434	31.36
191.655	41.11
191.876	51.67
192.097	18.07
192.318	18.57
192.538	55.2
192.759	38.53
192.98	46.91
193.201	67.62
193.421	63.85
193.642	39.78
193.863	39.55
194.083	4.41
194.304	20.46
194.525	64.07
194.745	63.77
194.966	50.62
195.187	71.63
195.407	45.9
195.628	13.12
195.848	37.89
196.069	62.76
196.29	67.48
196.51	71.03
196.731	57.98
196.951	57.64
197.172	52.92
197.392	43.25
197.613	35.9
197.833	32.03
198.054	-5.88
198.274	-13.18
198.495	-13.5
198.715	-27.99
198.936	-20.1
199.156	12.97
199.377	42.01
199.597	61.26
199.817	71.68
200.038	105.21
200.258	104.74
200.479	109.07
200.699	56.75
200.919	72.34
201.14	29.94
201.36	34.95
201.58	32.66
201.801	61.46
202.021	70.77
202.241	75.52
202.461	85.13
202.682	84.76
202.902	65.15
203.122	53.07
203.342	86.33
203.563	90.72
203.783	100.19
204.003	102.91
204.223	148.25
204.443	86.85
204.663	73.7
204.884	75.85
205.104	85.44
205.324	40
205.544	34.43
205.764	25.62
205.984	34.89
206.204	36.41
206.424	43.08
206.644	32.22
206.864	40.56
207.084	4.01
207.304	9.52
207.525	31.81
207.745	100.27
207.964	80.03
208.184	94.09
208.404	91.63
208.624	76.37
208.844	42.95
209.064	44.46
209.284	89.68
209.504	95.18
209.724	97.39
209.944	99.58
210.164	82.28
210.384	59.8
210.604	48.67
210.823	30.94
211.043	7.48
211.263	57.84
211.483	39
211.703	40.4
211.922	44.03
212.142	45.2
212.362	24.83
212.582	45.3
212.801	47.29
213.021	41.34
213.241	59.09
213.461	39.71
213.68	6.38
213.9	19.67
214.12	32.99
214.339	9.16
214.559	5.05
214.779	31.71
214.998	2.38
215.218	-43.31
215.438	-30.4
215.657	-4.49
215.877	9.7
216.096	-0.79
216.316	10.1
216.535	-3.78
216.755	-13.4
216.974	-38.68
217.194	14.89
217.413	28.16
217.633	48.17
217.852	33.31
218.072	35.66
218.291	3.58
218.511	30.39
218.73	15.77
218.95	26.65
219.169	41.2
219.389	41.8
219.608	32.06
219.827	41.98
220.047	39.97
220.266	21.9
220.485	35.73
220.705	20.94
220.924	2.32
221.143	-1.1
221.363	-21.48
221.582	-22.22
221.801	-44.22
222.021	7.54
222.24	-0.78
222.459	32.29
222.678	29.72
222.897	31.64
223.117	32.84
223.336	34.65
223.555	32.56
223.774	32.51
223.993	43.99
224.213	48.17
224.432	53.19
224.651	57.23
224.87	45.17
225.089	44.7
225.308	45.65
225.527	47.76
225.746	40.34
225.965	38.37
226.184	22.77
226.404	-1.2
226.623	14.38
226.842	5.51
227.061	7.89
227.28	25.91
227.499	52.75
227.718	62.75
227.936	45.15
228.155	56.83
228.374	21.99
228.593	28.67
228.812	6.19
229.031	21.32
229.25	11.44
229.469	30.56
229.688	22.72
229.907	41.75
230.125	39.4
230.344	58.78
230.563	58.62
230.782	60.32
231.001	49.51
231.22	33.31
231.438	28.95
231.657	19.3
231.876	31.92
232.095	37.28
232.313	45.1
232.532	37.52
232.751	50.16
232.969	43.59
233.188	42.01
233.407	29.56
233.625	38.75
233.844	64.32
234.063	60.9
234.281	53.7
234.5	33.41
234.719	24.3
234.937	-12.98
235.156	-30.81
235.374	6.96
235.593	27.78
235.811	27.43
236.03	33.18
236.249	41.86
236.467	37
236.686	39.67
236.904	32.15
237.123	33.78
237.341	13.85
237.559	11.27
237.778	30.06
237.996	36.84
238.215	42.51
238.433	55.77
238.652	55.7
238.87	40.48
239.088	50.35
239.307	39.13
239.525	24.7
239.743	14.66
239.962	26.67
240.18	23.05
240.398	29.74
240.617	25.01
240.835	24.96
241.053	25.38
241.271	6.93
241.49	4.02
241.708	25.9
241.926	19.37
242.144	4.86
242.363	21.29
242.581	22.84
242.799	19.7
243.017	38.99
243.235	37.35
243.453	36.08
243.672	48.36
243.89	35.16
244.108	42.3
244.326	62.2
244.544	42.26
244.762	29.9
244.98	41.09
245.198	47.53
245.416	24.7
245.634	36.13
245.852	40.94
246.07	47.03
246.288	42.69
246.506	53.04
246.724	59.79
246.942	44.12
247.16	52.77
247.378	22.75
247.596	30.43
247.814	25.18
248.032	31.22
248.25	27.25
248.468	41.61
248.685	41.37
248.903	53.18
249.121	58.89
249.339	39.28
249.557	50.03
249.775	49.71
249.992	17.77
250.21	16.98
250.428	46.53
250.646	48.31
250.863	44.05
251.081	58.64
251.299	61.25
251.517	48.7
251.734	56.48
251.952	52.87
252.17	46.27
252.387	49.32
252.605	43.08
252.823	32.71
253.04	38.76
253.258	35.1
253.475	23.45
253.693	27.15
253.911	32.58
254.128	37.49
254.346	34
254.563	51.56
254.781	37.21
254.998	29.45
255.216	0.11
255.433	21.59
255.651	10.42
255.868	21.35
256.086	20.56
256.303	33.32
256.521	44.13
256.738	35.38
256.956	38.17
257.173	36.93
257.39	55.67
257.608	34.43
257.825	50.93
258.043	34.23
258.26	32.5
258.477	8.3
258.695	2.41
258.912	-8.38
259.129	13.98
259.346	15.17
259.564	32.47
259.781	13.39
259.998	14.77
260.216	32.44
260.433	32.46
260.65	38.64
260.867	52.66
261.084	63.75
261.302	45.91
261.519	53.02
261.736	46.17
261.953	44.85
262.17	46.72
262.387	41.43
262.604	26.16
262.822	-2.71
263.039	8.42
263.256	-8.59
263.473	20.8
263.69	27.57
263.907	76.7
264.124	79.98
264.341	84.7
264.558	60.28
264.775	62.26
264.992	45.1
265.209	25.23
265.426	31.33
265.643	40.57
265.86	35.24
266.077	38.21
266.294	40
266.51	17
266.727	25.49
266.944	25.52
267.161	8.52
267.378	12.17
267.595	41.74
267.812	16.22
268.028	6.56
268.245	13.18
268.462	12.54
268.679	-6.18
268.896	4.77
269.112	15.77
269.329	31.3
269.546	38.35
269.763	48.96
269.979	57.67
270.196	75.85
270.413	67.7
270.629	68.37
270.846	67.2
271.063	59.5
271.279	63.89
271.496	64.19
271.712	53.1
271.929	49.93
272.146	62.73
272.362	40.17
272.579	64.79
272.795	64.46
273.012	45.9
273.228	37.1
273.445	44.57
273.661	23.8
273.878	21.42
274.094	32.42
274.311	35.15
274.527	34
274.744	45.37
274.96	40.84
275.177	35.83
275.393	37.5
275.609	41.6
275.826	29.96
276.042	40.31
276.259	23.4
276.475	19.91
276.691	25.22
276.908	7.36
277.124	-9.42
277.34	21.78
277.557	16.54
277.773	-6.73
277.989	13.41
278.205	28.72
278.422	-1.57
278.638	-7.93
278.854	2.98
279.07	20.53
279.286	4.93
279.503	29.79
279.719	39.88
279.935	46.42
280.151	27.53
280.367	37.77
280.583	49.03
280.799	33.39
281.016	26.29
281.232	45.82
281.448	52.71
281.664	47.8
281.88	42.27
282.096	54.98
282.312	49.66
282.528	41.65
282.744	35.77
282.96	58.87
283.176	42.48
283.392	40.85
283.608	41.07
283.824	43.94
284.04	22.1
284.256	33.83
284.471	32.72
284.687	18.89
284.903	-2.23
285.119	32.46
285.335	7.57
285.551	20.13
285.767	34.45
285.982	32.57
286.198	18.49
286.414	26.39
286.63	20.79
286.846	18.05
287.061	13.07
287.277	33.87
287.493	35.08
287.709	26.68
287.924	29.02
288.14	36.63
288.356	29.9
288.571	36.48
288.787	28.77
289.003	31.36
289.218	23.23
289.434	24.6
289.65	22.26
289.865	51.05
290.081	37.07
290.296	42.77
290.512	31.28
290.727	21.61
290.943	18.31
291.159	30.63
291.374	50.94
291.59	54.62
291.805	49.81
292.021	46.15
292.236	36.4
292.451	-11.99
292.667	-10
292.882	-13.53
293.098	-9.21
293.313	-13.44
293.529	13.29
293.744	14.35
293.959	27.45
294.175	34.7
294.39	22.61
294.605	21.64
294.821	25.24
295.036	20.52
295.251	8.93
295.467	17.24
295.682	23.08
295.897	13.82
296.112	14.07
296.328	25.56
296.543	9.03
296.758	6.51
296.973	5
297.188	2.31
297.404	-16.07
297.619	17.69
297.834	-1.96
298.049	16.65
298.264	23.02
298.479	39.32
298.694	27.59
298.909	35.41
299.125	23.91
299.34	45.78
299.555	23.44
299.77	25.29
299.985	-4.04
300.2	5.7
300.415	-8.94
300.63	26.49
300.845	30.62
301.06	39.82
301.275	58.58
301.49	57.92
301.704	31.98
301.919	33.52
302.134	57.16
302.349	35.2
302.564	42.24
302.779	55.54
302.994	60.36
303.209	61.4
303.423	84.47
303.638	97.36
303.853	94.67
304.068	77.5
304.283	66.14
304.497	46.04
304.712	23.45
304.927	25.56
305.142	22.44
305.356	1.02
305.571	16.49
305.786	29.47
306	1.97
306.215	0.08
306.43	9.42
306.644	-13.39
306.859	-21.81
307.074	18.65
307.288	20.19
307.503	33.86
307.717	45.95
307.932	44.79
308.147	31.5
308.361	23.25
308.576	14.66
308.79	-19.33
309.005	17.13
309.219	24.14
309.434	32.19
309.648	16.78
309.863	29.62
310.077	13.82
310.292	7.64
310.506	5.62
310.72	21.33
310.935	41.08
311.149	46
311.364	60.79
311.578	67.69
311.792	47.06
312.007	22.57
312.221	4.18
312.435	14.71
312.649	6.57
312.864	26.99
313.078	29.2
313.292	41.22
313.507	43.28
313.721	36.54
313.935	15.94
314.149	22.96
314.363	8.58
314.578	11.48
314.792	26.7
315.006	46.65
315.22	49.16
315.434	54.87
315.648	57.19
315.862	45.16
316.077	35.74
316.291	27.76
316.505	35.09
316.719	34.97
316.933	42.09
317.147	64.37
317.361	68.55
317.575	52.85
317.789	33.46
318.003	26.37
318.217	26.41
318.431	28.63
318.645	28.51
318.859	38.81
319.073	33.11
319.287	11.33
319.5	9.03
319.714	28.88
319.928	18.22
320.142	28.04
320.356	40.29
320.57	34.37
320.784	26.45
320.997	23.41
321.211	20.45
321.425	12.61
321.639	7.02
321.853	17.14
322.066	16.04
322.28	13.74
322.494	22.93
322.707	35.79
322.921	23.39
323.135	25.81
323.349	22.78
323.562	10.46
323.776	11.05
323.989	25.59
324.203	27.66
324.417	32.64
324.63	24.82
324.844	22.9
325.057	11.84
325.271	4.11
325.485	-0.07
325.698	19.33
325.912	23.68
326.125	18.15
326.339	13.38
326.552	28.4
326.766	20.94
326.979	16.99
327.193	25.38
327.406	36.41
327.619	28.14
327.833	26.48
328.046	33.22
328.26	42.12
328.473	30.45
328.686	45.75
328.9	52.46
329.113	41.93
329.326	10.28
329.54	6.1
329.753	-5.47
329.966	19.58
330.179	21.73
330.393	37.72
330.606	48.6
330.819	49.69
331.032	41.13
331.246	45.61
331.459	25.32
331.672	16.95
331.885	16.64
332.098	28.07
332.311	32.95
332.525	39.5
332.738	32.13
332.951	23.89
333.164	23.71
333.377	14.23
333.59	16.22
333.803	41.93
334.016	49.55
334.229	35.71
334.442	43.02
334.655	42.5
334.868	25.67
335.081	29.36
335.294	35.37
335.507	27.56
335.72	33.06
335.933	28.85
336.146	32.6
336.359	32.22
336.572	18.11
336.785	20.28
336.997	21.86
337.21	16.22
337.423	20.11
337.636	31.32
337.849	33.14
338.062	43.57
338.274	64.25
338.487	56.38
338.7	47.87
338.913	36.46
339.125	21.52
339.338	5.48
339.551	13.26
339.763	16.07
339.976	5.07
340.189	21.68
340.402	31.34
340.614	15.55
340.827	36.44
341.039	55.78
341.252	61.25
341.465	53.99
341.677	54.29
341.89	39.11
342.102	35.99
342.315	28.34
342.527	27.9
342.74	26.77
342.952	44.88
343.165	46.26
343.377	42.92
343.59	31.19
343.802	28.57
344.015	26.54
344.227	14.98
344.44	19.96
344.652	32.7
344.864	38.52
345.077	38.98
345.289	29.25
345.502	24.1
345.714	24.57
345.926	23.4
346.139	16.71
346.351	24.44
346.563	27.97
346.775	16.7
346.988	15.56
347.2	11.99
347.412	16.55
347.624	26.72
347.837	21.6
348.049	21.19
348.261	12.99
348.473	11.27
348.685	2.02
348.897	19.39
349.11	17.33
349.322	28.41
349.534	38.59
349.746	44.06
349.958	39.9
350.17	35.02
350.382	26.5
350.594	11.97
350.806	19.44
351.018	19.23
351.23	31.24
351.442	26.9
351.654	24.5
351.866	-1.08
352.078	16.73
352.29	8.97
352.502	15.33
352.714	18.83
352.926	29.92
353.138	22.35
353.35	14.49
353.561	4.56
353.773	26.86
353.985	31.67
354.197	27.75
354.409	41.25
354.621	43.39
354.832	26.78
355.044	24.48
355.256	27.12
355.468	22.53
355.679	35.16
355.891	39.56
356.103	37.89
356.314	44.91
356.526	41.14
356.738	40.34
356.949	48.31
357.161	60.56
357.373	52.61
357.584	46.2
357.796	62.02
358.008	45.99
358.219	34.17
358.431	28.62
358.642	45.98
358.854	16.12
359.065	24.08
359.277	10.47
359.488	25.56
359.7	19.82
359.911	21.28
360.123	20.62
360.334	35.94
360.546	25.04
360.757	32.68
360.969	39.87
361.18	39.07
361.391	32.61
361.603	35.25
361.814	37.22
362.025	26.87
362.237	16
362.448	20.82
362.659	10.96
362.871	5.08
363.082	5.43
363.293	16.54
363.504	17.28
363.716	27.01
363.927	16.51
364.138	2.76
364.349	8.88
364.56	5.95
364.772	-5.27
364.983	-0.71
365.194	16.19
365.405	11.17
365.616	8.04
365.827	11.96
366.038	13.06
366.25	4.62
366.461	10.21
366.672	15.28
366.883	27.78
367.094	15.86
367.305	23.31
367.516	23.11
367.727	25.01
367.938	23.38
368.149	30.62
368.36	28.96
368.571	25.65
368.781	18.27
368.992	5.67
369.203	19.87
369.414	23.9
369.625	35.08
369.836	31.01
370.047	36.97
370.258	32.35
370.468	36.27
370.679	17.82
370.89	18.62
371.101	36.77
371.312	24.12
371.522	11.6
371.733	19.65
371.944	16.17
372.155	-4.01
372.365	8.01
372.576	17.88
372.787	24.29
372.997	30.39
373.208	31.24
373.419	32.52
373.629	35.82
373.84	38.65
374.05	30.36
374.261	30.62
374.472	25.03
374.682	3.65
374.893	1.13
375.103	15.9
375.314	13
375.524	18.06
375.735	44.34
375.945	45.22
376.156	44.16
376.366	34.31
376.577	36.76
376.787	8.87
376.997	8.8
377.208	-1.75
377.418	7.44
377.629	12.73
377.839	29.75
378.049	31
378.26	35.56
378.47	37.79
378.68	33.6
378.89	24.3
379.101	26.41
379.311	15.02
379.521	10.63
379.732	5.14
379.942	4.94
380.152	0.06
380.362	7.2
380.572	8
380.783	6.96
380.993	10.65
381.203	19.02
381.413	13.13
381.623	10.87
381.833	30.56
382.043	31.76
382.253	20.84
382.463	23.62
382.674	22.26
382.884	9.1
383.094	-4.49
383.304	-2.81
383.514	1.37
383.724	14.53
383.934	10.61
384.144	15.65
384.353	23.87
384.563	23.01
384.773	16.44
384.983	22.5
385.193	26.88
385.403	18.51
385.613	17.81
385.823	16.55
386.033	11.03
386.242	6.8
386.452	5.07
386.662	4.93
386.872	5.3
387.082	9.75
387.291	9.94
387.501	14.92
387.711	10.98
387.921	7.73
388.13	3.32
388.34	4.78
388.55	2.44
388.759	1.97
388.969	2.75
389.179	4.01
389.388	3.44
389.598	4.64
389.807	7.57
390.017	6.31
390.227	10.34
390.436	9.22
390.646	6.99
390.855	7.22
391.065	7.59
391.274	4.48
391.484	3.37
391.693	2.89
391.903	2.77
392.112	2.75
392.322	2.84
392.531	4.07
392.74	4.26
392.95	4.43
393.159	7.02
393.369	8.11
393.578	8.25
393.787	8.76
393.997	7.5
394.206	6.78
394.415	6.5
394.625	6.38
394.834	6.15
395.043	5.96
395.252	6.3
395.462	5.56
395.671	5.31
395.88	6.49
396.089	7.16
396.298	6.83
396.508	6.61
396.717	6.67
396.926	5.37
397.135	5.08
397.344	4.55
397.553	5.36
397.762	5.16
397.971	5.81
398.181	6.25
398.39	5.83
398.599	5.28
398.808	5.52
399.017	5.86
399.226	5.87
399.435	6.21
399.644	6.44
399.853	6.38
400.062	6.12
400.27	6.07
400.479	6.23
400.688	6.05
400.897	6.06
401.106	5.86
401.315	5.45
401.524	5.5
401.733	5.53
401.941	5.65
402.15	5.67
402.359	5.74
402.568	5.54
402.777	5.45
402.985	5.34
403.194	5.04
403.403	5.07
403.612	5.04
403.82	5
404.029	4.82
404.238	4.94
404.446	4.91
404.655	4.89
404.864	4.99
405.072	5.03
405.281	5.04
405.489	4.92
405.698	4.94
405.906	4.82
406.115	4.87
406.324	4.73
406.532	4.84
406.741	4.78
406.949	4.8
407.158	4.89
407.366	4.88
407.574	4.79
407.783	4.72
407.991	4.54
408.2	4.39
408.408	4.32
408.617	4.4
408.825	4.48
409.033	4.66
409.242	4.75
409.45	4.92
409.658	4.95
409.867	4.93
410.075	4.81
410.283	4.67
410.491	4.48
410.7	4.43
410.908	4.45
411.116	4.58
411.324	4.52
411.533	4.57
411.741	4.62
411.949	4.63
412.157	4.5
412.365	4.51
412.573	4.55
412.781	4.51
412.99	4.5
413.198	4.56
413.406	4.67
413.614	4.74
413.822	4.71
414.03	4.7
414.238	4.68
414.446	4.62
414.654	4.44
414.862	4.43
415.07	4.16
415.278	4.21
415.486	4.13
415.694	4.24
415.902	4.16
416.109	4.34
416.317	4.36
416.525	4.29
416.733	4.36
416.941	4.3
417.149	4.35
417.357	4.13
417.564	4.28
417.772	4.13
417.98	4.15
418.188	4.04
418.395	4.05
418.603	3.84
418.811	3.97
419.019	4.09
419.226	4.37
419.434	4.41
419.642	4.45
419.849	4.22
420.057	4.13
420.265	3.83
420.472	3.81
420.68	3.95
420.887	4.04
421.095	4.15
421.302	4.22
421.51	4.4
421.717	4.29
421.925	4.37
422.132	4.31
422.34	4.13
422.547	3.79
422.755	3.99
422.962	4.01
423.17	3.98
423.377	4.16
423.585	4.32
423.792	4.23
423.999	4.08
424.207	3.95
424.414	3.91
424.621	4.01
424.829	3.94
425.036	3.97
425.243	4.1
425.451	4.04
425.658	3.94
425.865	3.91
426.072	3.89
426.28	3.83
426.487	3.89
426.694	3.87
426.901	3.83
427.108	3.82
427.315	3.94
427.523	4.02
427.73	3.88
427.937	3.97
428.144	4.04
428.351	3.97
428.558	4.07
428.765	4.25
428.972	4.23
429.179	4.12
429.386	4.06
429.593	3.92
429.8	3.89
430.007	3.86
430.214	4.02
430.421	4.09
430.628	3.97
430.835	3.92
431.042	3.85
431.249	3.81
431.456	3.8
431.662	3.99
431.869	4.26
432.076	4.35
432.283	4.41
432.49	4.4
432.697	4.33
432.903	4.02
433.11	4.03
433.317	3.91
433.524	3.95
433.73	3.86
433.937	3.95
434.144	3.86
434.35	3.82
434.557	3.75
434.764	3.75
434.97	3.74
435.177	3.85
435.384	3.82
435.59	3.89
435.797	3.85
436.003	3.86
436.21	3.7
436.416	3.81
436.623	3.78
436.829	3.89
437.036	3.87
437.242	4.01
437.449	4.04
437.655	4.13
437.862	4.15
438.068	4.01
438.275	4.1
438.481	4.09
438.687	3.98
438.894	3.96
439.1	4.14
439.307	3.97
439.513	3.88
439.719	3.83
439.926	3.85
440.132	3.81
440.338	3.89
440.544	3.86
440.751	3.83
440.957	3.85
441.163	3.8
441.369	3.83
441.575	3.91
441.782	3.91
441.988	3.92
442.194	3.95
442.4	3.88
442.606	3.93
442.812	4.1
443.018	4.08
443.224	4.12
443.431	4.15
443.637	4.15
443.843	4.09
444.049	4.07
444.255	3.96
444.461	4.04
444.667	3.84
444.873	3.74
445.079	3.8
445.284	3.87
445.49	3.76
445.696	3.87
445.902	3.94
446.108	3.72
446.314	3.77
446.52	3.88
446.726	3.88
446.931	3.9
447.137	4.08
447.343	4.06
447.549	3.9
447.755	3.91
447.96	4.02
448.166	4
448.372	3.97
448.578	4.15
448.783	4.18
448.989	4.12
449.195	4.05
449.4	4.08
449.606	4
449.812	3.99
450.017	3.88
450.223	3.94
450.428	3.87
450.634	3.92
450.84	3.97
451.045	3.95
451.251	3.91
451.456	4.02
451.662	4.04
451.867	3.98
452.073	4.09
452.278	4.12
452.483	4.16
452.689	4.17
452.894	4.1
453.1	4.08
453.305	4.12
453.51	4.03
453.716	4.04
453.921	4.07
454.127	4.11
454.332	3.95
454.537	3.91
454.742	3.9
454.948	3.76
455.153	3.71
455.358	3.83
455.563	3.9
455.769	3.78
455.974	3.95
456.179	3.82
456.384	3.83
456.589	3.73
456.795	3.75
457	3.83
457.205	4
457.41	4.05
457.615	4.09
457.82	4.07
458.025	3.94
458.23	3.86
458.435	3.79
458.64	3.78
458.845	3.91
459.05	3.99
459.255	3.92
459.46	3.96
459.665	4.12
459.87	4.03
460.075	4.08
460.28	4.09
460.485	4.06
460.69	3.93
460.895	3.86
461.099	3.8
461.304	3.83
461.509	3.78
461.714	3.75
461.919	3.76
462.123	3.76
462.328	3.79
462.533	3.89
462.738	3.92
462.942	3.93
463.147	4.02
463.352	4.1
463.556	4.06
463.761	4.02
463.966	4.1
464.17	4.11
464.375	4.04
464.58	4.03
464.784	4.08
464.989	3.99
465.193	3.91
465.398	3.97
465.602	4.12
465.807	4.19
466.011	4.23
466.216	4.19
466.42	4.16
466.625	4.15
466.829	4.1
467.034	4.17
467.238	4.24
467.443	4.15
467.647	3.98
467.851	3.95
468.056	3.87
468.26	3.82
468.464	3.89
468.669	4.01
468.873	4.01
469.077	4
469.282	4.02
469.486	4.06
469.69	4.02
469.894	4.04
470.099	4.1
470.303	4.09
470.507	4.06
470.711	4.1
470.915	4.09
471.119	4.04
471.324	4.06
471.528	3.98
471.732	3.97
471.936	3.93
472.14	4.02
472.344	4.11
472.548	4.13
472.752	4.17
472.956	4.16
473.16	4.16
473.364	4.1
473.568	4.05
473.772	4.02
473.976	4.03
474.18	4.03
474.384	3.97
474.588	4.01
474.792	3.99
474.995	4.02
475.199	4
475.403	4.04
475.607	4.12
475.811	4.1
476.015	4.1
476.218	4.07
476.422	4.12
476.626	4.07
476.83	4
477.033	4.08
477.237	4.03
477.441	4.01
477.644	3.97
477.848	4.07
478.052	3.97
478.255	3.95
478.459	3.86
478.663	3.96
478.866	3.95
479.07	3.98
479.273	4.01
479.477	4
479.681	3.97
479.884	4.01
480.088	3.97
480.291	3.99
480.495	4.03
480.698	4.03
480.901	3.96
481.105	4.02
481.308	4.06
481.512	4.14
481.715	4.1
481.919	4.15
482.122	4.18
482.325	4.15
482.529	4.13
482.732	4.19
482.935	4.17
483.138	4.1
483.342	4.06
483.545	4.07
483.748	4.08
483.952	4.13
484.155	4.22
484.358	4.3
484.561	4.28
484.764	4.29
484.967	4.25
485.171	4.24
485.374	4.29
485.577	4.29
485.78	4.27
485.983	4.37
486.186	4.31
486.389	4.26
486.592	4.27
486.795	4.32
486.998	4.19
487.201	4.26
487.404	4.35
487.607	4.38
487.81	4.31
488.013	4.4
488.216	4.42
488.419	4.38
488.622	4.38
488.825	4.45
489.028	4.45
489.231	4.48
489.433	4.49
489.636	4.47
489.839	4.46
490.042	4.46
490.245	4.42
490.447	4.46
490.65	4.5
490.853	4.5
491.056	4.51
491.258	4.54
491.461	4.62
491.664	4.69
491.866	4.68
492.069	4.74
492.272	4.73
492.474	4.69
492.677	4.64
492.879	4.66
493.082	4.71
493.285	4.79
493.487	4.77
493.69	4.81
493.892	4.83
494.095	4.87
494.297	4.9
494.5	4.98
494.702	5.03
494.905	5.11
495.107	5.11
495.309	5.13
495.512	5.19
495.714	5.32
495.917	5.34
496.119	5.42
496.321	5.45
496.524	5.51
496.726	5.41
496.928	5.54
497.13	5.52
497.333	5.58
497.535	5.63
497.737	5.71
497.939	5.71
498.142	5.84
498.344	5.85
498.546	5.79
498.748	5.89
498.95	5.96
499.152	5.9
499.355	6.03
499.557	6.13
499.759	6.09
499.961	6.01
500.163	6.05
500.365	5.99
500.567	5.99
500.769	6
500.971	6.14
501.173	6.16
501.375	6.16
501.577	6.2
501.779	6.32
501.981	6.29
502.183	6.35
502.385	6.35
502.587	6.27
502.788	6.22
502.99	6.25
503.192	6.22
503.394	6.26
503.596	6.38
503.798	6.36
503.999	6.34
504.201	6.4
504.403	6.42
504.605	6.41
504.806	6.4
505.008	6.45
505.21	6.46
505.411	6.44
505.613	6.41
505.815	6.44
506.016	6.42
506.218	6.31
506.42	6.31
506.621	6.33
506.823	6.35
507.024	6.25
507.226	6.24
507.427	6.28
507.629	6.24
507.83	6.18
508.032	6.27
508.233	6.32
508.435	6.26
508.636	6.29
508.838	6.26
509.039	6.23
509.24	6.19
509.442	6.23
509.643	6.18
509.845	6.17
510.046	6.18
510.247	6.18
510.448	6.18
510.65	6.19
510.851	6.13
511.052	6.08
511.254	6.04
511.455	6
511.656	5.88
511.857	5.89
512.058	5.88
512.26	5.87
512.461	5.79
512.662	5.81
512.863	5.73
513.064	5.72
513.265	5.67
513.466	5.71
513.667	5.73
513.868	5.73
514.069	5.73
514.27	5.7
514.471	5.64
514.672	5.58
514.873	5.56
515.074	5.5
515.275	5.47
515.476	5.43
515.677	5.45
515.878	5.56
516.079	5.55
516.28	5.63
516.481	5.63
516.682	5.64
516.882	5.54
517.083	5.59
517.284	5.49
517.485	5.46
517.686	5.43
517.886	5.46
518.087	5.37
518.288	5.38
518.488	5.36
518.689	5.35
518.89	5.32
519.091	5.39
519.291	5.42
519.492	5.45
519.692	5.47
519.893	5.54
520.094	5.47
520.294	5.48
520.495	5.51
520.695	5.47
520.896	5.39
521.096	5.43
521.297	5.45
521.497	5.45
521.698	5.43
521.898	5.44
522.099	5.37
522.299	5.32
522.499	5.28
522.7	5.29
522.9	5.28
523.101	5.33
523.301	5.32
523.501	5.33
523.702	5.36
523.902	5.32
524.102	5.32
524.302	5.29
524.503	5.3
524.703	5.24
524.903	5.18
525.103	5.22
525.304	5.25
525.504	5.29
525.704	5.34
525.904	5.43
526.104	5.39
526.304	5.33
526.504	5.26
526.705	5.27
526.905	5.24
527.105	5.25
527.305	5.29
527.505	5.31
527.705	5.3
527.905	5.29
528.105	5.25
528.305	5.15
528.505	5.15
528.705	5.13
528.905	5.17
529.105	5.17
529.304	5.26
529.504	5.29
529.704	5.29
529.904	5.28
530.104	5.27
530.304	5.21
530.503	5.18
530.703	5.13
530.903	5.14
531.103	5.14
531.303	5.23
531.502	5.27
531.702	5.31
531.902	5.27
532.101	5.3
532.301	5.28
532.501	5.27
532.7	5.35
532.9	5.41
533.1	5.45
533.299	5.42
533.499	5.41
533.698	5.36
533.898	5.36
534.097	5.3
534.297	5.3
534.496	5.27
534.696	5.3
534.895	5.32
535.095	5.39
535.294	5.4
535.494	5.43
535.693	5.36
535.892	5.39
536.092	5.3
536.291	5.31
536.491	5.32
536.69	5.38
536.889	5.29
537.088	5.31
537.288	5.35
537.487	5.35
537.686	5.35
537.886	5.4
538.085	5.45
538.284	5.42
538.483	5.45
538.682	5.45
538.882	5.47
539.081	5.52
539.28	5.59
539.479	5.52
539.678	5.48
539.877	5.45
540.076	5.43
540.275	5.43
540.474	5.49
540.673	5.54
540.872	5.57
541.071	5.5
541.27	5.48
541.469	5.54
541.668	5.55
541.867	5.58
542.066	5.68
542.265	5.7
542.464	5.66
542.663	5.68
542.862	5.77
543.06	5.81
543.259	5.92
543.458	5.94
543.657	6.02
543.856	5.95
544.054	5.93
544.253	5.88
544.452	5.88
544.651	5.79
544.849	5.77
545.048	5.75
545.247	5.76
545.445	5.76
545.644	5.86
545.843	5.89
546.041	5.9
546.24	5.95
546.438	5.98
546.637	5.96
546.836	6
547.034	5.98
547.233	5.95
547.431	5.96
547.63	5.95
547.828	5.97
548.027	5.99
548.225	6.01
548.423	5.98
548.622	6.05
548.82	5.99
549.019	6.08
549.217	6.07
549.415	6.18
549.614	6.22
549.812	6.28
550.01	6.26
550.209	6.29
550.407	6.31
550.605	6.26
550.803	6.26
551.002	6.3
551.2	6.38
551.398	6.35
551.596	6.41
551.794	6.47
551.993	6.47
552.191	6.44
552.389	6.46
552.587	6.49
552.785	6.53
552.983	6.56
553.181	6.64
553.379	6.77
553.577	6.74
553.775	6.81
553.973	6.85
554.171	6.84
554.369	6.79
554.567	6.9
554.765	6.86
554.963	6.9
555.161	6.9
555.359	6.99
555.557	7.01
555.755	7.09
555.952	7.14
556.15	7.21
556.348	7.22
556.546	7.3
556.744	7.35
556.941	7.4
557.139	7.45
557.337	7.52
557.535	7.5
557.732	7.49
557.93	7.49
558.128	7.5
558.325	7.48
558.523	7.56
558.721	7.61
558.918	7.63
559.116	7.65
559.313	7.68
559.511	7.72
559.708	7.69
559.906	7.78
560.104	7.89
560.301	7.96
560.498	7.99
560.696	8.1
560.893	8.17
561.091	8.19
561.288	8.25
561.486	8.35
561.683	8.38
561.88	8.42
562.078	8.54
562.275	8.61
562.473	8.57
562.67	8.65
562.867	8.67
563.064	8.66
563.262	8.66
563.459	8.77
563.656	8.8
563.853	8.81
564.051	8.79
564.248	8.81
564.445	8.8
564.642	8.84
564.839	8.91
565.036	8.99
565.234	9.08
565.431	9.09
565.628	9.12
565.825	9.12
566.022	9.17
566.219	9.16
566.416	9.23
566.613	9.29
566.81	9.32
567.007	9.33
567.204	9.42
567.401	9.45
567.598	9.57
567.795	9.62
567.991	9.69
568.188	9.75
568.385	9.69
568.582	9.65
568.779	9.61
568.976	9.68
569.172	9.73
569.369	9.85
569.566	9.88
569.763	9.92
569.96	9.92
570.156	9.86
570.353	9.88
570.55	9.92
570.746	9.93
570.943	9.88
571.14	9.88
571.336	9.92
571.533	9.96
571.729	10.04
571.926	10.13
572.123	10.13
572.319	10.16
572.516	10.17
572.712	10.2
572.909	10.16
573.105	10.26
573.302	10.19
573.498	10.14
573.695	10.15
573.891	10.22
574.087	10.24
574.284	10.3
574.48	10.3
574.677	10.25
574.873	10.2
575.069	10.23
575.266	10.2
575.462	10.2
575.658	10.27
575.854	10.33
576.051	10.31
576.247	10.41
576.443	10.48
576.639	10.49
576.835	10.42
577.032	10.34
577.228	10.32
577.424	10.34
577.62	10.22
577.816	10.16
578.012	10.24
578.208	10.22
578.404	10.21
578.6	10.28
578.796	10.38
578.993	10.33
579.189	10.33
579.384	10.25
579.58	10.19
579.776	10.15
579.972	10.15
580.168	10.04
580.364	10.04
580.56	10.05
580.756	9.99
580.952	9.97
581.148	10
581.343	10.07
581.539	10.04
581.735	10.12
581.931	10.07
582.127	10.05
582.322	9.96
582.518	10.02
582.714	9.91
582.909	9.94
583.105	9.91
583.301	9.93
583.496	9.84
583.692	9.91
583.888	9.97
584.083	10.04
584.279	10.11
584.474	10.09
584.67	10.01
584.866	9.87
585.061	9.8
585.257	9.78
585.452	9.82
585.648	9.85
585.843	9.91
586.039	9.9
586.234	9.83
586.429	9.76
586.625	9.73
586.82	9.7
587.015	9.79
587.211	9.71
587.406	9.69
587.601	9.68
587.797	9.64
587.992	9.49
588.187	9.54
588.383	9.6
588.578	9.59
588.773	9.62
588.968	9.64
589.163	9.69
589.359	9.72
589.554	9.74
589.749	9.73
589.944	9.76
590.139	9.69
590.334	9.67
590.529	9.63
590.724	9.62
590.919	9.61
591.114	9.72
591.309	9.66
591.504	9.7
591.699	9.65
591.894	9.67
592.089	9.58
592.284	9.66
592.479	9.7
592.674	9.76
592.869	9.8
593.064	9.94
593.259	10
593.454	9.96
593.648	9.92
593.843	9.99
594.038	9.91
594.233	9.87
594.428	9.93
594.622	9.99
594.817	9.98
595.012	10.07
595.206	10.07
595.401	10.13
595.596	10.18
595.79	10.19
595.985	10.09
596.18	10.13
596.374	10.12
596.569	10.15
596.763	10.21
596.958	10.31
597.153	10.26
597.347	10.29
597.542	10.28
597.736	10.19
597.931	10.17
598.125	10.29
598.319	10.38
598.514	10.49
598.708	10.52
598.903	10.57
599.097	10.58
599.291	10.58
599.486	10.72
599.68	10.8
599.874	10.79
600.069	10.9
600.263	10.8
600.457	10.7
600.651	10.7
600.846	10.65
601.04	10.65
601.234	10.74
601.428	10.76
601.622	10.81
601.817	10.92
602.011	10.9
602.205	10.85
602.399	10.83
602.593	10.77
602.787	10.79
602.981	10.7
603.175	10.83
603.369	10.75
603.563	10.78
603.757	10.71
603.951	10.75
604.145	10.68
604.339	10.76
604.533	10.72
604.727	10.71
604.921	10.72
605.115	10.72
605.309	10.63
605.502	10.62
605.696	10.59
605.89	10.47
606.084	10.37
606.278	10.38
606.471	10.38
606.665	10.29
606.859	10.36
607.053	10.39
607.246	10.45
607.44	10.32
607.634	10.37
607.827	10.34
608.021	10.25
608.214	10.14
608.408	10.13
608.602	10.12
608.795	10.12
608.989	10.12
609.182	10.05
609.376	10.19
609.569	10.09
609.763	9.99
609.956	9.99
610.15	9.86
610.343	9.68
610.537	9.74
610.73	9.76
610.923	9.69
611.117	9.79
611.31	9.82
611.504	9.75
611.697	9.7
611.89	9.69
612.083	9.6
612.277	9.53
612.47	9.4
612.663	9.4
612.856	9.29
613.05	9.37
613.243	9.27
613.436	9.28
613.629	9.2
613.822	9.21
614.015	9.04
614.209	9.02
614.402	8.98
614.595	8.96
614.788	8.85
614.981	8.83
615.174	8.81
615.367	8.85
615.56	8.76
615.753	8.82
615.946	8.78
616.139	8.69
616.332	8.6
616.525	8.58
616.718	8.49
616.911	8.49
617.103	8.5
617.296	8.47
617.489	8.49
617.682	8.47
617.875	8.43
618.067	8.36
618.26	8.27
618.453	8.26
618.646	8.21
618.838	8.2
619.031	8.24
619.224	8.23
619.417	8.15
619.609	8.15
619.802	8.18
619.994	8.15
620.187	8.06
620.38	8.04
620.572	8.02
620.765	7.99
620.957	7.98
621.15	8.03
621.342	7.99
621.535	8.05
621.727	8.05
621.92	8.03
622.112	8.01
622.305	8.1
622.497	8.01
622.69	7.91
622.882	7.88
623.074	7.91
623.267	7.82
623.459	7.89
623.651	7.92
623.844	7.94
624.036	7.86
624.228	7.87
624.42	7.73
624.613	7.74
624.805	7.78
624.997	7.81
625.189	7.81
625.381	7.87
625.574	7.79
625.766	7.73
625.958	7.77
626.15	7.77
626.342	7.7
626.534	7.67
626.726	7.74
626.918	7.6
627.11	7.49
627.302	7.46
627.494	7.49
627.686	7.36
627.878	7.45
628.07	7.42
628.262	7.51
628.454	7.44
628.646	7.48
628.838	7.45
629.029	7.39
629.221	7.29
629.413	7.29
629.605	7.17
629.797	7.19
629.989	7.27
630.18	7.33
630.372	7.29
630.564	7.33
630.755	7.31
630.947	7.27
631.139	7.15
631.33	7.18
631.522	7.17
631.714	7.14
631.905	7.19
632.097	7.21
632.289	7.23
632.48	7.2
632.672	7.14
632.863	7.04
633.055	7.03
633.246	6.99
633.438	7.02
633.629	6.98
633.821	6.99
634.012	6.9
634.203	6.88
634.395	6.88
634.586	6.96
634.777	6.95
634.969	7.04
635.16	7.08
635.351	6.99
635.543	7.01
635.734	7.07
635.925	7.01
636.117	7.02
636.308	7.11
636.499	7.07
636.69	6.93
636.881	7
637.073	7.01
637.264	6.96
637.455	6.95
637.646	7.07
637.837	7.03
638.028	6.98
638.219	6.97
638.41	6.92
638.601	6.8
638.792	6.8
638.983	6.85
639.174	6.81
639.365	6.79
639.556	6.81
639.747	6.76
639.938	6.68
640.129	6.68
640.32	6.67
640.511	6.61
640.701	6.57
640.892	6.59
641.083	6.55
641.274	6.55
641.465	6.61
641.655	6.62
641.846	6.56
642.037	6.55
642.228	6.59
642.418	6.49
642.609	6.52
642.8	6.48
642.99	6.47
643.181	6.41
643.372	6.47
643.562	6.42
643.753	6.45
643.943	6.48
644.134	6.48
644.324	6.47
644.515	6.43
644.705	6.44
644.896	6.43
645.086	6.41
645.277	6.43
645.467	6.48
645.658	6.48
645.848	6.49
646.038	6.48
646.229	6.41
646.419	6.4
646.61	6.49
646.8	6.52
646.99	6.5
647.18	6.46
647.371	6.38
647.561	6.23
647.751	6.11
647.941	6.11
648.132	6.18
648.322	6.31
648.512	6.28
648.702	6.32
648.892	6.34
649.082	6.32
649.272	6.15
649.462	6.14
649.653	6.16
649.843	6.16
650.033	6.2
650.223	6.26
650.413	6.3
650.603	6.33
650.793	6.24
650.983	6.17
651.172	6.21
651.362	6.15
651.552	6.07
651.742	6.08
651.932	5.99
652.122	5.98
652.312	6.06
652.502	5.91
652.691	6.01
652.881	6.12
653.071	6.14
653.261	6.07
653.45	6.2
653.64	5.99
653.83	5.89
654.019	5.78
654.209	5.81
654.399	5.69
654.588	5.74
654.778	5.74
654.968	5.67
655.157	5.52
655.347	5.55
655.536	5.48
655.726	5.43
655.915	5.48
656.105	5.46
656.294	5.42
656.484	5.34
656.673	5.29
656.863	5.26
657.052	5.25
657.241	5.21
657.431	5.24
657.62	5.15
657.809	5.06
657.999	5.03
658.188	5.02
658.377	4.92
658.567	4.93
658.756	4.84
658.945	4.77
659.134	4.58
659.324	4.6
659.513	4.57
659.702	4.54
659.891	4.53
660.08	4.65
660.269	4.65
660.458	4.59
660.648	4.63
660.837	4.59
661.026	4.48
661.215	4.42
661.404	4.35
661.593	4.28
661.782	4.28
661.971	4.28
662.16	4.36
662.349	4.35
662.538	4.36
662.726	4.31
662.915	4.33
663.104	4.25
663.293	4.23
663.482	4.27
663.671	4.31
663.86	4.22
664.048	4.16
664.237	4.22
664.426	4.2
664.615	4.23
664.803	4.38
664.992	4.42
665.181	4.41
665.369	4.39
665.558	4.39
665.747	4.32
665.935	4.38
666.124	4.4
666.312	4.46
666.501	4.52
666.69	4.53
666.878	4.41
667.067	4.43
667.255	4.5
667.444	4.53
667.632	4.58
667.82	4.74
668.009	4.78
668.197	4.72
668.386	4.63
668.574	4.6
668.762	4.59
668.951	4.68
669.139	4.7
669.327	4.83
669.516	4.98
669.704	5.01
669.892	5.03
670.08	5.17
670.269	5.09
670.457	5.23
670.645	5.31
670.833	5.46
671.021	5.46
671.21	5.5
671.398	5.43
671.586	5.47
671.774	5.35
671.962	5.35
672.15	5.66
672.338	5.67
672.526	5.71
672.714	5.7
672.902	5.77
673.09	5.64
673.278	5.73
673.466	5.94
673.654	6.29
673.842	6.4
674.03	6.48
674.218	6.58
674.405	6.61
674.593	6.57
674.781	6.65
674.969	6.76
675.157	6.78
675.344	6.82
675.532	6.86
675.72	6.85
675.908	6.91
676.095	6.87
676.283	6.83
676.471	6.97
676.658	7.14
676.846	7.3
677.033	7.64
677.221	7.83
677.409	7.62
677.596	7.74
677.784	7.77
677.971	7.65
678.159	7.63
678.346	7.8
678.534	7.78
678.721	7.8
678.909	7.9
679.096	8.1
679.283	8.15
679.471	8.16
679.658	8.29
679.846	8.38
680.033	8.52
680.22	8.66
680.408	8.71
680.595	8.67
680.782	8.6
680.969	8.49
681.157	8.57
681.344	8.62
681.531	8.74
681.718	8.83
681.905	8.79
682.093	8.83
682.28	9
682.467	9.17
682.654	9.2
682.841	9.36
683.028	9.43
683.215	9.55
683.402	9.31
683.589	9.49
683.776	9.58
683.963	9.52
684.15	9.61
684.337	9.86
684.524	9.97
684.711	10.05
684.898	10.29
685.085	10.29
685.271	10.34
685.458	10.46
685.645	10.4
685.832	10.66
686.019	10.82
686.205	11.03
686.392	11.11
686.579	11.37
686.766	11.25
686.952	11.21
687.139	11.24
687.326	11.26
687.512	11.39
687.699	11.48
687.886	11.68
688.072	11.92
688.259	12.14
688.445	12.2
688.632	12.31
688.818	12.6
689.005	12.87
689.191	13.04
689.378	13.35
689.564	13.7
689.751	13.9
689.937	13.88
690.124	14.1
690.31	14.27
690.496	14.61
690.683	14.66
690.869	14.88
691.055	15.21
691.242	15.49
691.428	15.52
691.614	15.99
691.8	16.43
691.987	16.64
692.173	17.09
692.359	17.48
692.545	17.76
692.731	18.04
692.918	18.48
693.104	18.71
693.29	19.25
693.476	19.78
693.662	20.24
693.848	20.65
694.034	21.02
694.22	21.28
694.406	21.58
694.592	22.05
694.778	22.4
694.964	22.93
695.15	23.28
695.336	23.65
695.522	24.01
695.708	24.46
695.894	24.69
696.08	25.31
696.265	25.71
696.451	26.07
696.637	26.35
696.823	27.1
697.009	27.44
697.194	27.88
697.38	28.33
697.566	28.97
697.751	29.19
697.937	29.77
698.123	30.22
698.308	30.79
698.494	31.13
698.68	31.61
698.865	32.07
699.051	32.49
699.236	32.92
699.422	33.74
699.607	34.33
699.793	34.74
699.978	35.14
700.164	35.72
700.349	36.19
700.535	36.46
700.72	36.73
700.906	37.35
701.091	37.48
701.276	37.55
701.462	38.25
701.647	38.74
701.832	39.28
702.018	39.97
702.203	40.4
702.388	40.86
702.573	41.33
702.759	41.44
702.944	41.69
703.129	42.27
703.314	42.61
703.499	43.34
703.684	43.87
703.87	44.43
704.055	44.75
704.24	45.23
704.425	45.59
704.61	46.02
704.795	46.16
704.98	46.67
705.165	46.86
705.35	47.11
705.535	47.92
705.72	48.74
705.905	49.12
706.09	49.53
706.275	50.11
706.459	50.16
706.644	50.26
706.829	50.86
707.014	51.74
707.199	52.26
707.384	52.56
707.568	52.96
707.753	53.32
707.938	53.45
708.123	54.09
708.307	54.82
708.492	55.47
708.677	55.88
708.861	56.22
709.046	56.38
709.231	56.97
709.415	56.83
709.6	57.08
709.784	57.44
709.969	57.51
710.153	57.62
710.338	58.81
710.522	59.56
710.707	60.12
710.891	60.74
711.076	61.05
711.26	60.79
711.445	60.82
711.629	60.75
711.813	61
711.998	61.6
712.182	62.12
712.366	62.33
712.551	62.99
712.735	63.23
712.919	63.09
713.103	63.76
713.288	64.22
713.472	64.85
713.656	65.17
713.84	65.8
714.024	65.77
714.208	66.1
714.393	66.14
714.577	66.08
714.761	66.37
714.945	66.82
715.129	66.99
715.313	67.56
715.497	68.28
715.681	68.32
715.865	68.36
716.049	68.54
716.233	68.55
716.417	68.89
716.601	69.19
716.785	69.95
716.968	70.29
717.152	71
717.336	70.98
717.52	70.93
717.704	70.67
717.888	71.05
718.071	70.71
718.255	71.23
718.439	71.45
718.622	71.77
718.806	71.86
718.99	72.01
719.174	71.91
719.357	72.78
719.541	73.14
719.724	73.88
719.908	74.98
720.092	75.53
720.275	76.02
720.459	76.38
720.642	76.84
720.826	75.93
721.009	76.11
721.193	76.22
721.376	76.35
721.559	76.19
721.743	76.79
721.926	77.36
722.11	77.5
722.293	77.77
722.476	77.61
722.66	77.86
722.843	77.3
723.026	77.05
723.21	76.87
723.393	77.12
723.576	77.57
723.759	78.23
723.942	78.31
724.126	79.25
724.309	79.94
724.492	79.87
724.675	80.15
724.858	81.27
725.041	81.04
725.224	80.8
725.407	80.92
725.59	81.64
725.774	81.54
725.957	81.67
726.14	82.42
726.322	82.34
726.505	82.71
726.688	83.33
726.871	84.43
727.054	84.8
727.237	85.51
727.42	84.95
727.603	84.7
727.786	84.14
727.968	83.05
728.151	83.63
728.334	83.87
728.517	84.43
728.699	85.03
728.882	85.85
729.065	85.63
729.248	86.34
729.43	85.61
729.613	86.16
729.796	86.91
729.978	87.69
730.161	87.28
730.343	87.69
730.526	87.42
730.708	87.88
730.891	88.12
731.073	88.26
731.256	88.12
731.438	87.88
731.621	88.04
731.803	87.8
731.986	88.05
732.168	88.51
732.35	88.75
732.533	88.47
732.715	87.63
732.898	87.49
733.08	88.35
733.262	89.13
733.444	88.84
733.627	89.86
733.809	90.25
733.991	90.41
734.173	90.17
734.355	90.37
734.538	90.27
734.72	90.29
734.902	90.2
735.084	89.63
735.266	90.07
735.448	90.32
735.63	90.38
735.812	91.05
735.994	91.76
736.176	92.34
736.358	91.82
736.54	92.11
736.722	91.56
736.904	91.49
737.086	91.15
737.268	92.82
737.45	93.59
737.632	93.08
737.814	93.83
737.995	94.34
738.177	93.44
738.359	92.44
738.541	93.51
738.723	93.68
738.904	93.03
739.086	93.35
739.268	94.3
739.449	93.64
739.631	93.38
739.813	94.36
739.994	94.42
740.176	93.67
740.358	94.94
740.539	94.67
740.721	93.82
740.902	94.52
741.084	95.18
741.265	94.11
741.447	94.74
741.628	96.45
741.81	95.91
741.991	95.55
742.172	97.5
742.354	97.09
742.535	96.05
742.717	96.11
742.898	96.21
743.079	95.62
743.261	97
743.442	96.92
743.623	98.06
743.804	98.35
743.986	98.16
744.167	96.1
744.348	96.43
744.529	95.62
744.71	95.72
744.891	95.23
745.073	97.17
745.254	96.71
745.435	96.19
745.616	95.54
745.797	96.6
745.978	96.28
746.159	97.61
746.34	97.53
746.521	98.75
746.702	96.79
746.883	95.28
747.064	93.51
747.245	94.47
747.426	95.34
747.606	95.36
747.787	96.28
747.968	96.48
748.149	96.59
748.33	96.85
748.51	98.24
748.691	97.11
748.872	96.45
749.053	95.67
749.233	94.72
749.414	93.7
749.595	95.22
749.775	95.47
749.956	97.36
750.137	97.43
750.317	98.27
750.498	97.03
750.678	98.17
750.859	95.06
751.04	94.19
751.22	93.29
751.4	94.33
751.581	94.45
751.761	95.41
751.942	96.79
752.122	96.47
752.303	95.9
752.483	95.77
752.663	96.04
752.844	95.76
753.024	98.23
753.204	97.56
753.385	95.72
753.565	95.59
753.745	95.51
753.925	94.4
754.106	96.24
754.286	97.74
754.466	99
754.646	99.64
754.826	98.38
755.006	96.69
755.187	96
755.367	94.83
755.547	95.17
755.727	95.33
755.907	95.63
756.087	96.35
756.267	95.68
756.447	94.86
756.627	94.44
756.807	94.47
756.987	93.8
757.167	93.84
757.346	93.31
757.526	92.99
757.706	92.37
757.886	93.49
758.066	95.2
758.246	95.62
758.425	95.87
758.605	96.17
758.785	95.43
758.965	95.32
759.144	94.66
759.324	93.57
759.504	93.42
759.683	94.34
759.863	93.87
760.043	94.55
760.222	94.93
760.402	94.03
760.581	94.13
760.761	94.01
760.94	92.89
761.12	96.75
761.299	97.43
761.479	96.85
761.658	95.48
761.838	94.7
762.017	93.98
762.197	95.68
762.376	94.9
762.555	96.39
762.735	96.61
762.914	96.1
763.093	95.69
763.273	95.13
763.452	94.06
763.631	95.04
763.81	94.53
763.99	94.51
764.169	94.07
764.348	94.42
764.527	93.48
764.706	93.79
764.885	94.22
765.064	96.04
765.243	96.28
765.423	96.04
765.602	94.83
765.781	94.29
765.96	91.83
766.139	91.28
766.318	91.61
766.497	91.84
766.676	91.22
766.854	93.46
767.033	93.25
767.212	93.89
767.391	92.55
767.57	93.36
767.749	94.11
767.928	94.25
768.106	90.63
768.285	91.62
768.464	89.51
768.643	88
768.821	87.51
769	90.72
769.179	90.58
769.357	91.47
769.536	92.21
769.715	91.55
769.893	92.59
770.072	91.02
770.25	91.01
770.429	88.79
770.607	89.34
770.786	88.84
770.964	91.13
771.143	92.87
771.321	92.73
771.5	93.51
771.678	93.41
771.857	93.84
772.035	92.64
772.213	93.43
772.392	92.23
772.57	92.28
772.748	89.26
772.927	91.52
773.105	92.21
773.283	92.57
773.461	92.15
773.64	91.59
773.818	88.78
773.996	89.19
774.174	88.89
774.352	89.43
774.531	91.37
774.709	88.41
774.887	87.92
775.065	87.92
775.243	86.64
775.421	86.01
775.599	87.35
775.777	86.48
775.955	84.78
776.133	84.89
776.311	84.98
776.489	87.06
776.667	86.31
776.844	87.78
777.022	87.04
777.2	88.05
777.378	85.24
777.556	87.79
777.734	89.4
777.911	91.49
778.089	91.18
778.267	93.4
778.445	87.69
778.622	85.82
778.8	83.87
778.978	84.74
779.155	83.8
779.333	87.09
779.511	83.49
779.688	83.91
779.866	82.71
780.043	82.7
780.221	81.37
780.398	84.97
780.576	86.05
780.753	84.92
780.931	84.72
781.108	87.37
781.286	87.64
781.463	87.25
781.64	89.26
781.818	91.7
781.995	90.07
782.172	90.35
782.35	88.82
782.527	89.85
782.704	89.22
782.882	90.73
783.059	89.88
783.236	88.08
783.413	84.01
783.59	83.85
783.768	80.95
783.945	80.24
784.122	83.83
784.299	84.02
784.476	81.47
784.653	83.13
784.83	83.86
785.007	80.58
785.184	82.61
785.361	86.71
785.538	86.97
785.715	88.63
785.892	90.69
786.069	88.84
786.246	87.35
786.423	89.41
786.6	88.64
786.776	87.78
786.953	90.5
787.13	90.7
787.307	86.87
787.484	84.28
787.66	85.09
787.837	84.79
788.014	87.19
788.191	88.91
788.367	93.99
788.544	94.45
788.721	92.22
788.897	86
789.074	85.51
789.25	80.33
789.427	79.27
789.603	79.47
789.78	83.24
789.956	87.45
790.133	87.26
790.309	86
790.486	87.04
790.662	85.31
790.839	79.11
791.015	79.96
791.192	81.35
791.368	83.79
791.544	78.73
791.721	85.33
791.897	88.32
792.073	89.4
792.249	85.44
792.426	90.54
792.602	85.23
792.778	81.38
792.954	76.69
793.13	81.08
793.307	77.82
793.483	76.32
793.659	78.8
793.835	80.78
794.011	79.5
794.187	83.69
794.363	84.42
794.539	83.91
794.715	86.32
794.891	86.58
795.067	84.79
795.243	89.46
795.419	88.12
795.595	84.67
795.771	83.64
795.947	86.01
796.122	85.6
796.298	91.26
796.474	89.96
796.65	86.03
796.826	86.27
797.001	82.2
797.177	80.37
797.353	82.18
797.529	88.58
797.704	88.79
797.88	90.46
798.056	91.37
798.231	94.43
798.407	91.27
798.582	88.99
798.758	93.4
798.934	90.24
799.109	82.22
799.285	84.06
799.46	82.18
799.636	81.17
799.811	76.78
799.986	81.6
800.162	83.24
800.337	83.25
800.513	80.75
800.688	83.06
800.863	86.69
801.039	81.24
801.214	87.83
801.389	84.55
801.565	82.37
801.74	84.75
801.915	81.18
802.09	79.36
802.265	81.49
802.441	83.82
802.616	74.06
802.791	79.32
802.966	81.52
803.141	79.95
803.316	78.94
803.491	87.78
803.666	87.24
803.841	81.59
804.016	83.24
804.191	85.68
804.366	76.28
804.541	76.42
804.716	79.79
804.891	76.93
805.066	75.92
805.241	75.76
805.416	71.16
805.591	70.47
805.765	71.12
805.94	69.25
806.115	76.23
806.29	75.99
806.464	74.49
806.639	80.26
806.814	79.79
806.989	70.98
807.163	68.9
807.338	71.38
807.512	62.03
807.687	63.33
807.862	68.4
808.036	77.44
808.211	72.45
808.385	70.17
808.56	68.45
808.734	68.61
808.909	66.84
809.083	66.69
809.258	69.99
809.432	71.71
809.606	69.31
809.781	67.4
809.955	64.14
810.13	72.05
810.304	69.94
810.478	68.51
810.652	84.47
810.827	89.6
811.001	88.44
811.175	102.51
811.349	108.93
811.524	85.56
811.698	87.07
811.872	94.71
812.046	82.16
812.22	84.42
812.394	83.97
812.568	86.17
812.742	69.79
812.916	70.22
813.09	69.49
813.264	83.73
813.438	87.27
813.612	92.47
813.786	90.81
813.96	89.43
814.134	92.74
814.308	95.73
814.482	95.45
814.656	105.3
814.83	115.76
815.003	99.59
815.177	87.47
815.351	98.49
815.525	90.92
815.698	81.34
815.872	80.23
816.046	87.64
816.219	82.15
816.393	84.77
816.567	93.12
816.74	91.78
816.914	78.56
817.088	87.14
817.261	91.56
817.435	86.75
817.608	92.11
817.782	93.2
817.955	83.93
818.129	76.41
818.302	77.85
818.475	74.39
818.649	83.57
818.822	85.97
818.996	89.11
819.169	85.68
819.342	78.29
819.516	69.89
819.689	70.77
819.862	67.43
820.035	67.2
820.209	67.5
820.382	80.53
820.555	67.78
820.728	74.54
820.901	72.88
821.075	78.76
821.248	63.72
821.421	65.03
821.594	63.18
821.767	75.13
821.94	67.27
822.113	69.12
822.286	73.69
822.459	77.07
822.632	55.88
822.805	67.59
822.978	88.52
823.151	100.67
823.324	98.82
823.496	105.92
823.669	95.53
823.842	88.02
824.015	92.92
824.188	91.42
824.361	81.57
824.533	75.67
824.706	86.3
824.879	83.62
825.051	77.08
825.224	87.11
825.397	91.58
825.569	74.62
825.742	56.24
825.915	67.03
826.087	65.93
826.26	62.38
826.432	70.75
826.605	85.94
826.777	76.66
826.95	79.15
827.122	83.05
827.295	87.78
827.467	89.3
827.64	87.7
827.812	82.54
827.984	101.64
828.157	86.83
828.329	77.83
828.501	80.31
828.674	92.26
828.846	78.65
829.018	85.51
829.19	85.78
829.363	88.58
829.535	72.63
829.707	76.19
829.879	73.56
830.051	65.88
830.223	69.19
830.395	75.54
830.568	75.49
830.74	70.64
830.912	74.64
831.084	88.14
831.256	69.99
831.428	79.29
831.6	98.74
831.772	89.95
831.943	64.76
832.115	72.89
832.287	69.01
832.459	54.87
832.631	57.26
832.803	76.11
832.975	81.66
833.146	86.09
833.318	80.67
833.49	111.93
833.662	90
833.833	87.02
834.005	74.51
834.177	90.11
834.348	70.93
834.52	75.44
834.692	82.51
834.863	86.4
835.035	78.52
835.206	64.84
835.378	64.48
835.549	63.15
835.721	66.57
835.892	63.48
836.064	71.68
836.235	69.45
836.407	66.29
836.578	73.97
836.749	95.64
836.921	75.24
837.092	74.02
837.264	59.75
837.435	53.32
837.606	14.77
837.777	35.43
837.949	50.74
838.12	46.1
838.291	38.29
838.462	60.04
838.633	62.97
838.805	56.15
838.976	76.72
839.147	86.83
839.318	73.34
839.489	77.91
839.66	74.56
839.831	75.09
840.002	76.59
840.173	69.39
840.344	42.81
840.515	27.65
840.686	19.45
840.857	30.01
841.028	39.72
841.199	60.59
841.369	82.5
841.54	97.73
841.711	66.58
841.882	69.9
842.053	81.43
842.223	81.44
842.394	85.89
842.565	88.51
842.736	98.59
842.906	94.02
843.077	44.36
843.248	42.1
843.418	76.18
843.589	56.38
843.759	64.16
843.93	94.11
844.101	97.43
844.271	67.17
844.442	44.95
844.612	45.63
844.783	36.98
844.953	34.63
845.123	30.88
845.294	67.41
845.464	64.99
845.635	40.46
845.805	50.98
845.975	66.79
846.146	25.1
846.316	31.15
846.486	52.99
846.656	55.65
846.827	76.77
846.997	93.5
847.167	105.8
847.337	79.97
847.507	79.18
847.677	58.21
847.848	92.38
848.018	112.62
848.188	122.62
848.358	100.53
848.528	81.28
848.698	66.53
848.868	43.3
849.038	48.98
849.208	50.03
849.378	70.21
849.548	80.9
849.718	88.06
849.887	93.54
850.057	93.11
850.227	116.73
850.397	84.48
850.567	80.1
850.737	69.07
850.906	62.23
851.076	46.66
851.246	34.08
851.415	38.85
851.585	34.26
851.755	48.53
851.924	65.09
852.094	62.38
852.264	53.15
852.433	32.19
852.603	52.28
852.772	59.48
852.942	73.46
853.111	78.51
853.281	85.95
853.45	80.89
853.62	62.23
853.789	67.72
853.959	55.22
854.128	48.19
854.297	43.05
854.467	47.93
854.636	54.34
854.805	52.04
854.975	54.69
855.144	94.46
855.313	117.41
855.482	130.7
855.652	124.87
855.821	150.83
855.99	126.9
856.159	144.74
856.328	125.5
856.497	122.06
856.667	72.74
856.836	89.27
857.005	33.27
857.174	-34.71
857.343	-59.15
857.512	-135.43
857.681	-6.85
857.85	39.79
858.019	45.23
858.188	52.23
858.356	73.63
858.525	100.26
858.694	58.75
858.863	92.5
859.032	130.76
859.201	71.82
859.369	62.47
859.538	108.18
859.707	70.12
859.876	60.09
860.044	67.42
860.213	64.18
860.382	64.21
860.55	62.09
860.719	64.04
860.888	22.56
861.056	24.53
861.225	30.84
861.393	43.19
861.562	56.42
861.73	97.12
861.899	101.68
862.067	92.52
862.236	117.38
862.404	95.82
862.572	118.66
862.741	80.86
862.909	89.29
863.078	73.28
863.246	69.52
863.414	66.5
863.582	92.89
863.751	69.66
863.919	58.02
864.087	30.35
864.255	34.32
864.424	10.08
864.592	19.57
864.76	13.63
864.928	55.89
865.096	36.55
865.264	53.88
865.432	76.62
865.6	62.69
865.768	42.18
865.936	48.35
866.104	50.17
866.272	37.62
866.44	47.48
866.608	69.43
866.776	36.6
866.944	31.03
867.112	56.56
867.28	72.4
867.448	137.32
867.615	360
867.783	84.93
867.951	44.97
868.119	46.38
868.286	25.39
868.454	21.97
868.622	54.71
868.789	37.74
868.957	27.63
869.125	-46.5
869.292	-56.02
869.46	-58.99
869.627	-6.11
869.795	-6.39
869.963	13
870.13	33.92
870.298	29.63
870.465	0.17
870.632	14.85
870.8	26.16
870.967	-7.72
871.135	2.5
871.302	125.93
871.469	-76.11
871.637	59.59
871.804	100.45
871.971	75.63
872.139	28.19
872.306	50.88
872.473	42.83
872.64	32.28
872.807	46.55
872.975	108.3
873.142	145.52
873.309	5017.39
873.476	1296.4
873.643	316.13
873.81	138.43
873.977	111.2
874.144	108.87
874.311	71.27
874.478	96.21
874.645	111.3
874.812	112.23
874.979	88.35
875.146	113.42
875.313	120.79
875.48	195.72
875.647	-419.47
875.813	701.33
875.98	-1012.12
876.147	320.28
876.314	167.16
876.481	15.86
876.647	79.92
876.814	154.17
876.981	186.13
877.147	114.8
877.314	106.73
877.481	100.69
877.647	56.72
877.814	70.62
877.98	99.49
878.147	109.93
878.314	132.03
878.48	121.29
878.647	93.74
878.813	-144.19
878.979	123.4
879.146	77.19
879.312	33.27
879.479	54.41
879.645	83.03
879.811	59.12
879.978	81.86
880.144	85.96
880.31	71.7
880.477	49.39
880.643	91.81
880.809	92.92
880.975	2200
881.142	-90.27
881.308	-1256
881.474	148.97
881.64	149.24
881.806	120.74
881.972	143.74
882.138	143.44
882.304	169.9
882.47	169.82
882.636	94.94
882.802	159.67
882.968	195.29
883.134	103.1
883.3	66.88
883.466	125.35
883.632	89.88
883.798	91.45
883.964	83.06
884.129	132.98
884.295	41.63
884.461	25.35
884.627	14.33
884.793	-12.37
884.958	18.39
885.124	34.89
885.29	47.36
885.455	214.62
885.621	200
885.787	200
885.952	-168.22
886.118	-439.23
886.283	2915.79
886.449	153.64
886.614	143.43
886.78	98.3
886.945	71.58
887.111	42.56
887.276	86.6
887.442	73.49
887.607	20.62
887.773	47.72
887.938	81.92
888.103	30.49
888.269	30.3
888.434	28.65
888.599	15.86
888.764	12.66
888.93	-6.6
889.095	14.47
889.26	76.74
889.425	115.79
889.59	-843.48
889.756	627.48
889.921	198.9
890.086	170.58
890.251	205.47
890.416	52.28
890.581	25.55
890.746	90.99
890.911	109.72
891.076	90.5
891.241	97.75
891.406	133.02
891.571	102.2
891.736	78.77
891.901	88.08
892.065	143.13
892.23	163.88
892.395	101.03
892.56	157.52
892.725	108.35
892.889	80.35
893.054	22.73
893.219	-38.33
893.384	-49.19
893.548	-201.52
893.713	770.37
893.878	150.3
