Data from Ofav_PS_Phys_9JQ431_Reflection_1.txt Node
Date: Thu Jul 29 18:20:04 EDT 2021
User: USUARIO
Spectrometer: FLMT01687
Trigger mode: 0
Integration Time (sec): 9.010000E-1
Scans to average: 2
Electric dark correction enabled: true
Nonlinearity correction enabled: false
Boxcar width: 2
XAxis mode: Wavelengths
Number of Pixels in Spectrum: 3648
>>>>>Begin Spectral Data<<<<<
179.494	-137.78
179.716	-191.44
179.937	-149.5
180.158	412.43
180.38	103.75
180.601	-740.68
180.823	-293.7
181.044	-161.21
181.265	-57.73
181.486	-780.79
181.708	187.45
181.929	449.93
182.15	11819.05
182.372	-176.78
182.593	-51.23
182.814	-21.43
183.035	-213.75
183.257	107.99
183.478	52.81
183.699	48.4
183.92	46.21
184.141	76.35
184.363	66.67
184.584	56.53
184.805	50.44
185.026	71.88
185.247	54.64
185.468	65.45
185.689	75.47
185.91	130.03
186.132	124.08
186.353	98.78
186.574	98.85
186.795	113.3
187.016	105.68
187.237	85.97
187.458	93.16
187.679	78.98
187.9	56.03
188.121	41.34
188.342	50.11
188.563	37.75
188.784	41.5
189.005	34.8
189.226	49.93
189.447	49.64
189.667	50.52
189.888	42.76
190.109	62.9
190.33	35.16
190.551	16.97
190.772	45.94
190.993	44.83
191.214	55.8
191.434	58.52
191.655	64.09
191.876	50.58
192.097	59.12
192.318	34.33
192.538	48.93
192.759	52.38
192.98	66.74
193.201	65.78
193.421	78.7
193.642	67.76
193.863	39.92
194.083	37.3
194.304	33.08
194.525	23.87
194.745	16.21
194.966	21.91
195.187	14.54
195.407	-3.91
195.628	-18.63
195.848	38.71
196.069	83.08
196.29	94.57
196.51	96.45
196.731	77.89
196.951	55.66
197.172	41.19
197.392	25.03
197.613	40.04
197.833	46.89
198.054	58.19
198.274	69.82
198.495	58.35
198.715	41.25
198.936	65.37
199.156	68.9
199.377	71.47
199.597	92.69
199.817	80.69
200.038	60
200.258	59.09
200.479	55.4
200.699	54.38
200.919	41.04
201.14	22.25
201.36	18.28
201.58	17.6
201.801	25.51
202.021	42.9
202.241	59.66
202.461	78.64
202.682	87.47
202.902	94.61
203.122	93.41
203.342	119.91
203.563	111.7
203.783	100.8
204.003	76.72
204.223	87.95
204.443	57.32
204.663	65.96
204.884	67.11
205.104	61.73
205.324	48.64
205.544	55.23
205.764	43
205.984	50.89
206.204	63.07
206.424	88.52
206.644	71.2
206.864	86.35
207.084	79.83
207.304	108.07
207.525	79.94
207.745	108.37
207.964	89.8
208.184	113.63
208.404	77.45
208.624	105.58
208.844	103.99
209.064	94.58
209.284	87.35
209.504	88.9
209.724	76.98
209.944	64.91
210.164	74.01
210.384	65.9
210.604	60.65
210.823	46.76
211.043	50.88
211.263	53.26
211.483	41.93
211.703	25.16
211.922	29.16
212.142	43.34
212.362	29.28
212.582	31.35
212.801	42.41
213.021	37.77
213.241	32.05
213.461	26.85
213.68	32.27
213.9	39.57
214.12	49.63
214.339	34.57
214.559	23.51
214.779	36.92
214.998	6.9
215.218	-27.01
215.438	-3.17
215.657	15.86
215.877	20.52
216.096	25.32
216.316	30.38
216.535	47.09
216.755	8.51
216.974	-18.09
217.194	0.36
217.413	33.09
217.633	42.56
217.852	40.16
218.072	43.62
218.291	51.35
218.511	53.4
218.73	37.41
218.95	52.15
219.169	50.45
219.389	42.17
219.608	25.45
219.827	24.65
220.047	20.24
220.266	15.99
220.485	14.27
220.705	15.17
220.924	2.97
221.143	5.74
221.363	6.4
221.582	-0.31
221.801	-31.72
222.021	1.3
222.24	2.44
222.459	2.73
222.678	24.84
222.897	25.35
223.117	36.88
223.336	40.74
223.555	34.89
223.774	46.92
223.993	45.77
224.213	45
224.432	34.47
224.651	51.84
224.87	36.6
225.089	40.86
225.308	33.03
225.527	43.52
225.746	14.67
225.965	13.08
226.184	8
226.404	9.17
226.623	34.38
226.842	41.2
227.061	46.24
227.28	85.22
227.499	110.54
227.718	147.51
227.936	137.75
228.155	98.58
228.374	45.41
228.593	46.86
228.812	16.46
229.031	1.93
229.25	16.37
229.469	20.9
229.688	1.58
229.907	28.52
230.125	30.98
230.344	33.2
230.563	58.95
230.782	85.87
231.001	51.69
231.22	60
231.438	62.56
231.657	26.63
231.876	13.79
232.095	13.33
232.313	3.43
232.532	-3.49
232.751	6.21
232.969	26.74
233.188	39.11
233.407	58.21
233.625	63.07
233.844	75.29
234.063	75.31
234.281	51.62
234.5	60.42
234.719	52.36
234.937	40.62
235.156	59.78
235.374	78.54
235.593	66.79
235.811	75.49
236.03	68.19
236.249	47.88
236.467	47.77
236.686	37.59
236.904	20.87
237.123	23.3
237.341	21.22
237.559	13.45
237.778	34.47
237.996	43.18
238.215	38.63
238.433	49
238.652	53.76
238.87	37.38
239.088	45.33
239.307	30.65
239.525	15.22
239.743	15.54
239.962	33.77
240.18	27.66
240.398	40.65
240.617	37.29
240.835	32.55
241.053	14.8
241.271	35.19
241.49	29.11
241.708	41.27
241.926	40.26
242.144	35.58
242.363	19.24
242.581	16.03
242.799	23.65
243.017	24.22
243.235	35.7
243.453	31.91
243.672	31.59
243.89	22.03
244.108	32.46
244.326	34.77
244.544	26.56
244.762	30.93
244.98	45.3
245.198	47.61
245.416	31.23
245.634	66.21
245.852	80.27
246.07	70.67
246.288	67.33
246.506	75.52
246.724	67.2
246.942	50.87
247.16	48.04
247.378	31.87
247.596	46.18
247.814	29.05
248.032	33.1
248.25	30.39
248.468	43.95
248.685	33.32
248.903	56.49
249.121	57.37
249.339	48.62
249.557	47.69
249.775	61.04
249.992	52.5
250.21	52.26
250.428	80.79
250.646	76.77
250.863	61.59
251.081	45.31
251.299	57.37
251.517	44.34
251.734	53.27
251.952	58.64
252.17	67.03
252.387	56.19
252.605	53.84
252.823	39.86
253.04	44.84
253.258	38.35
253.475	27.92
253.693	31.71
253.911	42.62
254.128	40.89
254.346	39.65
254.563	40.19
254.781	42.12
254.998	47.25
255.216	34.06
255.433	55.13
255.651	61.95
255.868	47.73
256.086	33.92
256.303	35.09
256.521	31.6
256.738	35.43
256.956	44.03
257.173	54.66
257.39	60.67
257.608	67.17
257.825	67.99
258.043	42.87
258.26	21.53
258.477	19.31
258.695	-5.21
258.912	-31.12
259.129	-4.03
259.346	25.54
259.564	16.08
259.781	37.33
259.998	75.8
260.216	64.28
260.433	51.28
260.65	51.28
260.867	51.62
261.084	41.77
261.302	30.2
261.519	52.86
261.736	51.12
261.953	60.79
262.17	54.64
262.387	58.84
262.604	31.32
262.822	27.97
263.039	21.51
263.256	9.47
263.473	8.29
263.69	5.41
263.907	3.65
264.124	23.87
264.341	36.16
264.558	28.61
264.775	19.01
264.992	25.3
265.209	6.88
265.426	17.13
265.643	30.42
265.86	42.26
266.077	36.79
266.294	52.01
266.51	45.1
266.727	44.8
266.944	51.88
267.161	58.91
267.378	48.31
267.595	61.2
267.812	55.31
268.028	49.24
268.245	39.17
268.462	33.54
268.679	16.64
268.896	-1.98
269.112	5.71
269.329	9.13
269.546	22.41
269.763	29.1
269.979	48.72
270.196	66.98
270.413	86.88
270.629	83.15
270.846	68.21
271.063	67.41
271.279	68.91
271.496	47.14
271.712	37.06
271.929	53.95
272.146	72.8
272.362	44.59
272.579	78.58
272.795	83.98
273.012	65.81
273.228	48.49
273.445	70.19
273.661	42.12
273.878	31.2
274.094	34.06
274.311	34.16
274.527	37.21
274.744	42.52
274.96	51.81
275.177	39.63
275.393	33.76
275.609	29.09
275.826	21
276.042	25.87
276.259	22.74
276.475	37.97
276.691	40.88
276.908	45.5
277.124	36.06
277.34	41.88
277.557	20.37
277.773	4.26
277.989	12.11
278.205	21.17
278.422	22.99
278.638	16.41
278.854	38.53
279.07	46.83
279.286	19.09
279.503	33.27
279.719	44.28
279.935	33.37
280.151	12.99
280.367	38.65
280.583	58.61
280.799	50.92
281.016	51.43
281.232	66.36
281.448	40.44
281.664	28.63
281.88	33.09
282.096	36.79
282.312	17.46
282.528	43.9
282.744	31.28
282.96	34.93
283.176	12.62
283.392	17.72
283.608	32.43
283.824	37.27
284.04	23.42
284.256	46.66
284.471	54.29
284.687	30.62
284.903	29.29
285.119	55.81
285.335	30.88
285.551	31.5
285.767	47.94
285.982	43.52
286.198	38.59
286.414	43.31
286.63	58.3
286.846	39.19
287.061	35.54
287.277	49.86
287.493	50.92
287.709	37.95
287.924	52.48
288.14	63.32
288.356	59.63
288.571	63.14
288.787	58.48
289.003	58.29
289.218	39.66
289.434	36.83
289.65	36.37
289.865	38.54
290.081	18.55
290.296	41.09
290.512	38.97
290.727	30.36
290.943	23.6
291.159	39.81
291.374	31.25
291.59	27.19
291.805	27.53
292.021	47.82
292.236	40.23
292.451	30
292.667	36.02
292.882	24.83
293.098	14.21
293.313	24.13
293.529	25.21
293.744	15.29
293.959	20.05
294.175	30.15
294.39	21.85
294.605	27.85
294.821	25.15
295.036	35.61
295.251	24.74
295.467	23.61
295.682	25.7
295.897	32.74
296.112	28.7
296.328	29.99
296.543	19.27
296.758	12.05
296.973	-2.16
297.188	-11.32
297.404	-23.92
297.619	0.71
297.834	-9.92
298.049	10.84
298.264	19.95
298.479	38.53
298.694	27.89
298.909	41.58
299.125	32.92
299.34	43.42
299.555	28.62
299.77	38.9
299.985	2.18
300.2	27.19
300.415	15.64
300.63	28.07
300.845	28.9
301.06	13.87
301.275	7.36
301.49	1.49
301.704	-8.34
301.919	11.99
302.134	36.28
302.349	35.88
302.564	46.33
302.779	44.13
302.994	36.24
303.209	59.81
303.423	67.08
303.638	65.73
303.853	69.93
304.068	52.41
304.283	30.19
304.497	26.27
304.712	15.09
304.927	27.99
305.142	49
305.356	40.89
305.571	35.86
305.786	35.37
306	4.23
306.215	-0.52
306.43	27.15
306.644	28.55
306.859	46.87
307.074	61.81
307.288	52.71
307.503	35.76
307.717	30.72
307.932	14.04
308.147	17.34
308.361	17.88
308.576	-2.46
308.79	-15.97
309.005	10.88
309.219	20.21
309.434	19.33
309.648	30.75
309.863	42.65
310.077	34.05
310.292	13.18
310.506	7.57
310.72	15.4
310.935	10.59
311.149	21.78
311.364	36.11
311.578	31.32
311.792	5.89
312.007	-6.07
312.221	-11.98
312.435	-11.1
312.649	11.43
312.864	22.66
313.078	35.05
313.292	16.86
313.507	24.08
313.721	-5.21
313.935	9.15
314.149	18.5
314.363	10.35
314.578	9.94
314.792	19.98
315.006	36.1
315.22	25.68
315.434	32.17
315.648	34.85
315.862	37.83
316.077	23.02
316.291	26.04
316.505	32.96
316.719	34.23
316.933	28.03
317.147	48.04
317.361	30.57
317.575	27.53
317.789	31.11
318.003	31.72
318.217	20.58
318.431	33.54
318.645	39.99
318.859	45.45
319.073	42.78
319.287	45.28
319.5	31.86
319.714	27.7
319.928	22.31
320.142	32.09
320.356	30.25
320.57	31.7
320.784	40.34
320.997	31.11
321.211	28
321.425	36.48
321.639	31.52
321.853	32.08
322.066	31.29
322.28	32.42
322.494	33.92
322.707	45.14
322.921	49.35
323.135	46.38
323.349	49.31
323.562	36.21
323.776	41.96
323.989	27.05
324.203	35.44
324.417	18.38
324.63	23.51
324.844	23.26
325.057	27.25
325.271	29.42
325.485	45.33
325.698	54.76
325.912	38.4
326.125	30.83
326.339	22.93
326.552	17.42
326.766	24.22
326.979	41.68
327.193	48.44
327.406	41.25
327.619	33.87
327.833	24.2
328.046	9.74
328.26	22.01
328.473	25.65
328.686	22.53
328.9	34.47
329.113	57.96
329.326	30.67
329.54	16.23
329.753	23.7
329.966	26.88
330.179	21.63
330.393	33.91
330.606	37.09
330.819	48.68
331.032	38.01
331.246	32.29
331.459	1.61
331.672	14.72
331.885	11.84
332.098	10.46
332.311	22.84
332.525	41.81
332.738	30.19
332.951	20.79
333.164	14.24
333.377	15.92
333.59	20.91
333.803	40.05
334.016	43.42
334.229	39.48
334.442	32.09
334.655	34.51
334.868	29
335.081	41.15
335.294	51.68
335.507	57.41
335.72	53.94
335.933	47.44
336.146	36.06
336.359	28.81
336.572	16.89
336.785	-1.47
336.997	2.85
337.21	10.95
337.423	16.55
337.636	35.33
337.849	45.13
338.062	38.39
338.274	40.38
338.487	48.53
338.7	18.61
338.913	18.44
339.125	33.57
339.338	32.99
339.551	29.48
339.763	36.84
339.976	34.15
340.189	37.81
340.402	26.51
340.614	39.02
340.827	44.25
341.039	48.94
341.252	45.53
341.465	48.82
341.677	39.56
341.89	29.54
342.102	22.61
342.315	24.23
342.527	22.76
342.74	25.52
342.952	31.08
343.165	32.5
343.377	27.54
343.59	17.21
343.802	21.42
344.015	22.78
344.227	16.89
344.44	20.16
344.652	27.38
344.864	21.46
345.077	29.08
345.289	28.7
345.502	22.81
345.714	28.58
345.926	36.37
346.139	7.93
346.351	-8.98
346.563	5.72
346.775	-1.44
346.988	-14.3
347.2	-6.29
347.412	7.76
347.624	10.09
347.837	7.87
348.049	4.2
348.261	25.95
348.473	33.71
348.685	32.87
348.897	47.34
349.11	43.16
349.322	35.19
349.534	39.59
349.746	28
349.958	9.93
350.17	15.43
350.382	26.39
350.594	18.32
350.806	35.96
351.018	34.64
351.23	31.97
351.442	20.17
351.654	21.89
351.866	-2.02
352.078	12.03
352.29	17.64
352.502	23.01
352.714	24.98
352.926	45.77
353.138	59.41
353.35	32.12
353.561	29.33
353.773	35.54
353.985	31.55
354.197	40.14
354.409	37.09
354.621	22.16
354.832	17.67
355.044	20.1
355.256	21.07
355.468	36.29
355.679	51.44
355.891	43.64
356.103	42.49
356.314	47.99
356.526	43.92
356.738	39.87
356.949	33.89
357.161	32.88
357.373	15.25
357.584	22.27
357.796	21.46
358.008	22.4
358.219	28.94
358.431	34.82
358.642	26.38
358.854	47.5
359.065	50.42
359.277	37.63
359.488	35.36
359.7	34.2
359.911	31.81
360.123	25.34
360.334	24.89
360.546	28.87
360.757	28.08
360.969	17.51
361.18	35.97
361.391	43.62
361.603	31.17
361.814	44.92
362.025	48.01
362.237	45.82
362.448	42.99
362.659	56.97
362.871	45.52
363.082	45.97
363.293	37.68
363.504	49.48
363.716	29.83
363.927	28.85
364.138	10.23
364.349	7.55
364.56	16.06
364.772	19.68
364.983	26.28
365.194	40.37
365.405	45.29
365.616	33.61
365.827	32.31
366.038	27.74
366.25	12.44
366.461	1.22
366.672	-0.81
366.883	29.23
367.094	21.24
367.305	35.31
367.516	52.02
367.727	43.73
367.938	30.42
368.149	40.04
368.36	40.12
368.571	31.11
368.781	33.59
368.992	22.48
369.203	7.25
369.414	18.86
369.625	16.76
369.836	18.17
370.047	25.56
370.258	33.43
370.468	25.65
370.679	26.8
370.89	15.98
371.101	19.25
371.312	25.65
371.522	34.38
371.733	33.89
371.944	31.81
372.155	15.34
372.365	9.37
372.576	-16.71
372.787	-5.32
372.997	20.29
373.208	28.04
373.419	29.31
373.629	53.28
373.84	47.01
374.05	33.05
374.261	41.43
374.472	36.96
374.682	26.97
374.893	35.26
375.103	41.3
375.314	34.96
375.524	35.88
375.735	33.63
375.945	29.62
376.156	32.26
376.366	16.43
376.577	25.9
376.787	24.44
376.997	18.85
377.208	15.37
377.418	28.41
377.629	22.13
377.839	26.84
378.049	35.78
378.26	35.71
378.47	33.05
378.68	32.7
378.89	33.04
379.101	30.03
379.311	19.8
379.521	20.36
379.732	21.09
379.942	15.08
380.152	11.2
380.362	7.48
380.572	2.55
380.783	-9.8
380.993	-8.94
381.203	-5.8
381.413	-0.02
381.623	10.04
381.833	21.65
382.043	26.07
382.253	25.93
382.463	26.7
382.674	30.65
382.884	28.99
383.094	23.44
383.304	20.47
383.514	18.84
383.724	22.78
383.934	22.75
384.144	21.73
384.353	27.41
384.563	34.39
384.773	32.14
384.983	27.91
385.193	30.77
385.403	23.11
385.613	18.45
385.823	14.29
386.033	14.76
386.242	11.05
386.452	13.23
386.662	13.13
386.872	15.43
387.082	15.71
387.291	14.4
387.501	12.11
387.711	11.32
387.921	6.33
388.13	8.63
388.34	8.28
388.55	10.12
388.759	7.06
388.969	8.98
389.179	6.49
389.388	12.18
389.598	13.32
389.807	14.06
390.017	13.73
390.227	17.61
390.436	15.08
390.646	12.58
390.855	13.5
391.065	11.98
391.274	8.66
391.484	7.2
391.693	5.68
391.903	5.59
392.112	8.48
392.322	8.59
392.531	7.29
392.74	8.5
392.95	8.54
393.159	7.07
393.369	7.75
393.578	9.27
393.787	10.72
393.997	9.85
394.206	8.38
394.415	8.22
394.625	7.55
394.834	5.69
395.043	5.59
395.252	7.61
395.462	7.47
395.671	7.85
395.88	9.28
396.089	10.34
396.298	10.14
396.508	9.54
396.717	9.55
396.926	8.96
397.135	7.96
397.344	7.53
397.553	8.1
397.762	8.01
397.971	8.57
398.181	8.96
398.39	8.48
398.599	8.34
398.808	8.58
399.017	8.6
399.226	8.4
399.435	8.62
399.644	8.82
399.853	8.68
400.062	8.51
400.27	8.71
400.479	8.62
400.688	8.55
400.897	8.51
401.106	8.17
401.315	8.08
401.524	8.3
401.733	8.22
401.941	8.19
402.15	8.26
402.359	8.16
402.568	7.88
402.777	7.74
402.985	7.68
403.194	7.68
403.403	7.48
403.612	7.43
403.82	7.53
404.029	7.19
404.238	6.98
404.446	7.21
404.655	7.19
404.864	7.13
405.072	7.27
405.281	7.31
405.489	7.06
405.698	7.01
405.906	6.88
406.115	6.89
406.324	6.75
406.532	6.86
406.741	6.93
406.949	7.06
407.158	7.05
407.366	7.11
407.574	6.92
407.783	6.78
407.991	6.55
408.2	6.51
408.408	6.51
408.617	6.58
408.825	6.69
409.033	6.84
409.242	6.91
409.45	6.88
409.658	6.99
409.867	6.95
410.075	6.86
410.283	6.73
410.491	6.75
410.7	6.67
410.908	6.77
411.116	6.73
411.324	6.8
411.533	6.86
411.741	6.87
411.949	6.76
412.157	6.76
412.365	6.62
412.573	6.53
412.781	6.39
412.99	6.41
413.198	6.45
413.406	6.59
413.614	6.66
413.822	6.88
414.03	6.82
414.238	6.76
414.446	6.74
414.654	6.61
414.862	6.45
415.07	6.41
415.278	6.38
415.486	6.23
415.694	6.25
415.902	6.33
416.109	6.37
416.317	6.37
416.525	6.41
416.733	6.46
416.941	6.39
417.149	6.33
417.357	6.26
417.564	6.32
417.772	6.15
417.98	6.24
418.188	6.2
418.395	6.09
418.603	6.01
418.811	6.12
419.019	6.1
419.226	6.23
419.434	6.45
419.642	6.5
419.849	6.38
420.057	6.37
420.265	6.18
420.472	6.12
420.68	6.09
420.887	6.24
421.095	6.18
421.302	6.24
421.51	6.12
421.717	6.04
421.925	5.87
422.132	5.76
422.34	5.68
422.547	5.59
422.755	5.65
422.962	5.71
423.17	5.71
423.377	5.82
423.585	6.12
423.792	6.13
423.999	6.07
424.207	6.05
424.414	5.87
424.621	5.76
424.829	5.81
425.036	5.85
425.243	5.87
425.451	5.89
425.658	5.82
425.865	5.78
426.072	5.79
426.28	6.09
426.487	6.13
426.694	6.18
426.901	6.04
427.108	5.99
427.315	5.82
427.523	5.85
427.73	5.78
427.937	5.87
428.144	5.81
428.351	5.76
428.558	5.72
428.765	5.91
428.972	6.07
429.179	6.09
429.386	6.09
429.593	6.1
429.8	6.05
430.007	6.04
430.214	6.23
430.421	6.24
430.628	6.2
430.835	6.17
431.042	6.08
431.249	6.06
431.456	5.99
431.662	6.19
431.869	6.28
432.076	6.33
432.283	6.33
432.49	6.44
432.697	6.35
432.903	6.18
433.11	6.14
433.317	6.08
433.524	5.89
433.73	5.89
433.937	5.87
434.144	5.81
434.35	5.79
434.557	5.94
434.764	5.83
434.97	5.93
435.177	6.15
435.384	6.11
435.59	6.16
435.797	6.29
436.003	6.24
436.21	6.07
436.416	6.05
436.623	5.98
436.829	5.92
437.036	6.05
437.242	6.14
437.449	6.25
437.655	6.27
437.862	6.36
438.068	6.24
438.275	6.14
438.481	6.05
438.687	6.04
438.894	6.06
439.1	6.06
439.307	6.2
439.513	6.19
439.719	6.12
439.926	5.98
440.132	6.08
440.338	6.07
440.544	6.05
440.751	6.04
440.957	6.18
441.163	6.17
441.369	6.13
441.575	6.28
441.782	6.34
441.988	6.2
442.194	6.13
442.4	6.07
442.606	6.06
442.812	6.09
443.018	6.21
443.224	6.27
443.431	6.29
443.637	6.22
443.843	6.23
444.049	6.24
444.255	6.21
444.461	6.25
444.667	6.25
444.873	6.12
445.079	6.01
445.284	5.99
445.49	5.81
445.696	5.84
445.902	5.93
446.108	5.96
446.314	6.09
446.52	6.27
446.726	6.23
446.931	6.15
447.137	6.21
447.343	6.13
447.549	6.11
447.755	6.13
447.96	6.28
448.166	6.32
448.372	6.3
448.578	6.39
448.783	6.46
448.989	6.44
449.195	6.29
449.4	6.3
449.606	6.2
449.812	6.18
450.017	6.2
450.223	6.38
450.428	6.3
450.634	6.35
450.84	6.46
451.045	6.36
451.251	6.26
451.456	6.4
451.662	6.33
451.867	6.22
452.073	6.31
452.278	6.36
452.483	6.38
452.689	6.41
452.894	6.4
453.1	6.35
453.305	6.34
453.51	6.24
453.716	6.27
453.921	6.29
454.127	6.43
454.332	6.42
454.537	6.46
454.742	6.5
454.948	6.39
455.153	6.36
455.358	6.35
455.563	6.4
455.769	6.34
455.974	6.51
456.179	6.39
456.384	6.37
456.589	6.36
456.795	6.35
457	6.3
457.205	6.46
457.41	6.48
457.615	6.51
457.82	6.54
458.025	6.51
458.23	6.44
458.435	6.46
458.64	6.45
458.845	6.5
459.05	6.55
459.255	6.56
459.46	6.66
459.665	6.65
459.87	6.55
460.075	6.5
460.28	6.5
460.485	6.38
460.69	6.36
460.895	6.42
461.099	6.45
461.304	6.5
461.509	6.55
461.714	6.58
461.919	6.63
462.123	6.61
462.328	6.56
462.533	6.61
462.738	6.68
462.942	6.62
463.147	6.69
463.352	6.78
463.556	6.77
463.761	6.64
463.966	6.68
464.17	6.81
464.375	6.63
464.58	6.6
464.784	6.7
464.989	6.6
465.193	6.4
465.398	6.54
465.602	6.73
465.807	6.65
466.011	6.83
466.216	6.84
466.42	6.84
466.625	6.76
466.829	6.82
467.034	6.8
467.238	6.92
467.443	6.82
467.647	6.61
467.851	6.58
468.056	6.6
468.26	6.53
468.464	6.62
468.669	6.78
468.873	6.83
469.077	6.77
469.282	6.81
469.486	6.74
469.69	6.73
469.894	6.65
470.099	6.67
470.303	6.74
470.507	6.75
470.711	6.75
470.915	6.84
471.119	6.79
471.324	6.77
471.528	6.74
471.732	6.79
471.936	6.76
472.14	6.78
472.344	6.73
472.548	6.88
472.752	6.93
472.956	6.92
473.16	6.97
473.364	7
473.568	6.91
473.772	6.83
473.976	6.9
474.18	6.85
474.384	6.81
474.588	6.83
474.792	6.87
474.995	6.87
475.199	6.87
475.403	6.87
475.607	6.86
475.811	6.82
476.015	6.81
476.218	6.85
476.422	6.86
476.626	6.84
476.83	6.82
477.033	6.8
477.237	6.74
477.441	6.72
477.644	6.74
477.848	6.75
478.052	6.74
478.255	6.72
478.459	6.73
478.663	6.72
478.866	6.76
479.07	6.77
479.273	6.77
479.477	6.74
479.681	6.82
479.884	6.8
480.088	6.73
480.291	6.81
480.495	6.83
480.698	6.75
480.901	6.7
481.105	6.78
481.308	6.7
481.512	6.74
481.715	6.79
481.919	6.82
482.122	6.82
482.325	6.85
482.529	6.81
482.732	6.81
482.935	6.8
483.138	6.68
483.342	6.64
483.545	6.73
483.748	6.72
483.952	6.8
484.155	6.94
484.358	6.97
484.561	6.94
484.764	6.89
484.967	6.83
485.171	6.71
485.374	6.76
485.577	6.76
485.78	6.79
485.983	6.83
486.186	6.84
486.389	6.78
486.592	6.73
486.795	6.73
486.998	6.75
487.201	6.85
487.404	6.9
487.607	6.91
487.81	6.82
488.013	6.73
488.216	6.6
488.419	6.61
488.622	6.6
488.825	6.67
489.028	6.71
489.231	6.8
489.433	6.72
489.636	6.71
489.839	6.68
490.042	6.68
490.245	6.6
490.447	6.6
490.65	6.59
490.853	6.63
491.056	6.63
491.258	6.6
491.461	6.67
491.664	6.71
491.866	6.64
492.069	6.61
492.272	6.62
492.474	6.57
492.677	6.43
492.879	6.42
493.082	6.35
493.285	6.38
493.487	6.39
493.69	6.46
493.892	6.52
494.095	6.65
494.297	6.65
494.5	6.68
494.702	6.72
494.905	6.71
495.107	6.57
495.309	6.67
495.512	6.64
495.714	6.69
495.917	6.75
496.119	6.87
496.321	6.74
496.524	6.77
496.726	6.66
496.928	6.59
497.13	6.51
497.333	6.6
497.535	6.61
497.737	6.6
497.939	6.61
498.142	6.71
498.344	6.68
498.546	6.63
498.748	6.73
498.95	6.71
499.152	6.68
499.355	6.7
499.557	6.75
499.759	6.66
499.961	6.63
500.163	6.58
500.365	6.66
500.567	6.64
500.769	6.64
500.971	6.64
501.173	6.63
501.375	6.56
501.577	6.58
501.779	6.68
501.981	6.71
502.183	6.75
502.385	6.7
502.587	6.62
502.788	6.58
502.99	6.59
503.192	6.62
503.394	6.65
503.596	6.74
503.798	6.78
503.999	6.8
504.201	6.82
504.403	6.79
504.605	6.77
504.806	6.69
505.008	6.72
505.21	6.8
505.411	6.79
505.613	6.81
505.815	6.92
506.016	6.91
506.218	6.79
506.42	6.85
506.621	6.82
506.823	6.81
507.024	6.77
507.226	6.79
507.427	6.74
507.629	6.74
507.83	6.67
508.032	6.73
508.233	6.72
508.435	6.68
508.636	6.72
508.838	6.65
509.039	6.65
509.24	6.64
509.442	6.76
509.643	6.76
509.845	6.85
510.046	6.86
510.247	6.89
510.448	6.9
510.65	6.92
510.851	6.89
511.052	6.85
511.254	6.84
511.455	6.8
511.656	6.73
511.857	6.77
512.058	6.82
512.26	6.77
512.461	6.76
512.662	6.76
512.863	6.67
513.064	6.62
513.265	6.65
513.466	6.68
513.667	6.68
513.868	6.65
514.069	6.69
514.27	6.68
514.471	6.68
514.672	6.62
514.873	6.66
515.074	6.65
515.275	6.71
515.476	6.64
515.677	6.71
515.878	6.81
516.079	6.79
516.28	6.72
516.481	6.82
516.682	6.84
516.882	6.72
517.083	6.74
517.284	6.76
517.485	6.7
517.686	6.67
517.886	6.75
518.087	6.73
518.288	6.69
518.488	6.63
518.689	6.64
518.89	6.58
519.091	6.64
519.291	6.68
519.492	6.73
519.692	6.75
519.893	6.87
520.094	6.83
520.294	6.86
520.495	6.89
520.695	6.89
520.896	6.78
521.096	6.8
521.297	6.8
521.497	6.8
521.698	6.79
521.898	6.79
522.099	6.76
522.299	6.75
522.499	6.73
522.7	6.76
522.9	6.79
523.101	6.77
523.301	6.77
523.501	6.77
523.702	6.76
523.902	6.75
524.102	6.77
524.302	6.83
524.503	6.82
524.703	6.79
524.903	6.78
525.103	6.78
525.304	6.77
525.504	6.81
525.704	6.84
525.904	6.94
526.104	6.91
526.304	6.91
526.504	6.87
526.705	6.87
526.905	6.83
527.105	6.91
527.305	6.86
527.505	6.83
527.705	6.81
527.905	6.79
528.105	6.73
528.305	6.71
528.505	6.72
528.705	6.74
528.905	6.76
529.105	6.82
529.304	6.84
529.504	6.94
529.704	6.97
529.904	6.97
530.104	6.95
530.304	6.99
530.503	6.97
530.703	6.95
530.903	6.96
531.103	6.98
531.303	7.01
531.502	6.99
531.702	7.02
531.902	7.01
532.101	7.04
532.301	7.02
532.501	7.02
532.7	7.05
532.9	7.06
533.1	7.07
533.299	7.04
533.499	7.09
533.698	7.08
533.898	7.08
534.097	7.03
534.297	7.09
534.496	7.05
534.696	7.03
534.895	7.08
535.095	7.09
535.294	7.08
535.494	7.06
535.693	7.1
535.892	7.17
536.092	7.2
536.291	7.19
536.491	7.21
536.69	7.23
536.889	7.19
537.088	7.16
537.288	7.22
537.487	7.3
537.686	7.3
537.886	7.33
538.085	7.32
538.284	7.34
538.483	7.31
538.682	7.33
538.882	7.31
539.081	7.37
539.28	7.37
539.479	7.39
539.678	7.4
539.877	7.4
540.076	7.41
540.275	7.39
540.474	7.4
540.673	7.42
540.872	7.52
541.071	7.54
541.27	7.59
541.469	7.68
541.668	7.7
541.867	7.71
542.066	7.78
542.265	7.81
542.464	7.8
542.663	7.87
542.862	7.91
543.06	7.98
543.259	8.05
543.458	8.05
543.657	8.05
543.856	8
544.054	7.97
544.253	7.88
544.452	7.9
544.651	7.93
544.849	7.93
545.048	7.93
545.247	8.02
545.445	8
545.644	8
545.843	8.08
546.041	8.09
546.24	8.14
546.438	8.21
546.637	8.23
546.836	8.25
547.034	8.28
547.233	8.26
547.431	8.28
547.63	8.36
547.828	8.42
548.027	8.44
548.225	8.47
548.423	8.52
548.622	8.49
548.82	8.48
549.019	8.57
549.217	8.61
549.415	8.64
549.614	8.78
549.812	8.8
550.01	8.81
550.209	8.91
550.407	8.98
550.605	9.01
550.803	9.09
551.002	9.18
551.2	9.19
551.398	9.23
551.596	9.19
551.794	9.31
551.993	9.36
552.191	9.4
552.389	9.44
552.587	9.46
552.785	9.48
552.983	9.5
553.181	9.6
553.379	9.67
553.577	9.76
553.775	9.88
553.973	9.96
554.171	10.07
554.369	10.12
554.567	10.19
554.765	10.16
554.963	10.12
555.161	10.06
555.359	10.08
555.557	10.16
555.755	10.29
555.952	10.44
556.15	10.54
556.348	10.64
556.546	10.75
556.744	10.74
556.941	10.8
557.139	10.86
557.337	10.98
557.535	10.98
557.732	11.03
557.93	11.04
558.128	11.1
558.325	11.04
558.523	11.14
558.721	11.22
558.918	11.29
559.116	11.38
559.313	11.51
559.511	11.56
559.708	11.6
559.906	11.77
560.104	11.78
560.301	11.92
560.498	11.97
560.696	12.13
560.893	12.19
561.091	12.42
561.288	12.46
561.486	12.48
561.683	12.57
561.88	12.63
562.078	12.68
562.275	12.76
562.473	12.9
562.67	12.94
562.867	13.02
563.064	13.07
563.262	13.12
563.459	13.25
563.656	13.35
563.853	13.44
564.051	13.45
564.248	13.55
564.445	13.63
564.642	13.67
564.839	13.83
565.036	14.01
565.234	14.14
565.431	14.19
565.628	14.32
565.825	14.33
566.022	14.37
566.219	14.38
566.416	14.48
566.613	14.52
566.81	14.54
567.007	14.56
567.204	14.63
567.401	14.77
567.598	14.88
567.795	14.99
567.991	15.09
568.188	15.23
568.385	15.15
568.582	15.18
568.779	15.29
568.976	15.41
569.172	15.49
569.369	15.65
569.566	15.77
569.763	15.82
569.96	15.85
570.156	15.83
570.353	15.86
570.55	15.88
570.746	15.9
570.943	15.89
571.14	15.93
571.336	15.99
571.533	16.03
571.729	16.07
571.926	16.24
572.123	16.27
572.319	16.3
572.516	16.41
572.712	16.4
572.909	16.31
573.105	16.39
573.302	16.42
573.498	16.35
573.695	16.42
573.891	16.53
574.087	16.59
574.284	16.69
574.48	16.79
574.677	16.67
574.873	16.63
575.069	16.66
575.266	16.62
575.462	16.56
575.658	16.74
575.854	16.84
576.051	16.82
576.247	16.89
576.443	16.93
576.639	16.91
576.835	16.87
577.032	16.77
577.228	16.78
577.424	16.82
577.62	16.77
577.816	16.71
578.012	16.83
578.208	16.74
578.404	16.65
578.6	16.73
578.796	16.74
578.993	16.77
579.189	16.78
579.384	16.78
579.58	16.68
579.776	16.72
579.972	16.71
580.168	16.67
580.364	16.62
580.56	16.64
580.756	16.58
580.952	16.39
581.148	16.53
581.343	16.59
581.539	16.54
581.735	16.55
581.931	16.67
582.127	16.51
582.322	16.51
582.518	16.55
582.714	16.44
582.909	16.36
583.105	16.44
583.301	16.42
583.496	16.36
583.692	16.48
583.888	16.54
584.083	16.44
584.279	16.47
584.474	16.48
584.67	16.38
584.866	16.35
585.061	16.32
585.257	16.27
585.452	16.22
585.648	16.21
585.843	16.21
586.039	16.19
586.234	16.08
586.429	16.07
586.625	16.12
586.82	16.1
587.015	16.18
587.211	16.27
587.406	16.19
587.601	16.24
587.797	16.24
587.992	16.16
588.187	16.06
588.383	16.16
588.578	16.09
588.773	16.04
588.968	16.06
589.163	16.19
589.359	16.13
589.554	16.19
589.749	16.24
589.944	16.29
590.139	16.21
590.334	16.32
590.529	16.31
590.724	16.35
590.919	16.31
591.114	16.41
591.309	16.35
591.504	16.34
591.699	16.28
591.894	16.34
592.089	16.26
592.284	16.36
592.479	16.37
592.674	16.41
592.869	16.48
593.064	16.62
593.259	16.61
593.454	16.6
593.648	16.67
593.843	16.74
594.038	16.78
594.233	16.83
594.428	16.94
594.622	16.99
594.817	17
595.012	17.06
595.206	17.11
595.401	17.25
595.596	17.24
595.79	17.33
595.985	17.35
596.18	17.37
596.374	17.31
596.569	17.47
596.763	17.49
596.958	17.63
597.153	17.74
597.347	17.87
597.542	17.93
597.736	17.95
597.931	18.01
598.125	18.08
598.319	18.2
598.514	18.26
598.708	18.36
598.903	18.49
599.097	18.58
599.291	18.68
599.486	18.86
599.68	18.88
599.874	18.86
600.069	18.96
600.263	18.9
600.457	18.82
600.651	18.82
600.846	18.81
601.04	18.81
601.234	18.81
601.428	18.91
601.622	19.03
601.817	19.09
602.011	19.11
602.205	19.12
602.399	19.08
602.593	19.11
602.787	19.09
602.981	19.07
603.175	19.19
603.369	19.21
603.563	19.18
603.757	19.2
603.951	19.25
604.145	19.16
604.339	19.14
604.533	19.12
604.727	19.09
604.921	19.06
605.115	19.13
605.309	19.11
605.502	19.08
605.696	19.02
605.89	18.94
606.084	18.8
606.278	18.67
606.471	18.69
606.665	18.65
606.859	18.59
607.053	18.57
607.246	18.64
607.44	18.47
607.634	18.48
607.827	18.4
608.021	18.33
608.214	18.19
608.408	18.23
608.602	18.11
608.795	18.1
608.989	18.03
609.182	17.99
609.376	17.93
609.569	17.83
609.763	17.7
609.956	17.64
610.15	17.58
610.343	17.5
610.537	17.46
610.73	17.43
610.923	17.48
611.117	17.45
611.31	17.37
611.504	17.38
611.697	17.24
611.89	17.16
612.083	16.92
612.277	16.82
612.47	16.73
612.663	16.78
612.856	16.63
613.05	16.71
613.243	16.58
613.436	16.44
613.629	16.34
613.822	16.39
614.015	16.21
614.209	16.16
614.402	16.13
614.595	16.04
614.788	15.93
614.981	15.83
615.174	15.8
615.367	15.75
615.56	15.68
615.753	15.57
615.946	15.54
616.139	15.54
616.332	15.45
616.525	15.44
616.718	15.32
616.911	15.38
617.103	15.37
617.296	15.39
617.489	15.29
617.682	15.26
617.875	15.25
618.067	15.08
618.26	14.96
618.453	14.92
618.646	14.94
618.838	14.8
619.031	14.77
619.224	14.71
619.417	14.69
619.609	14.59
619.802	14.56
619.994	14.52
620.187	14.48
620.38	14.48
620.572	14.4
620.765	14.47
620.957	14.39
621.15	14.33
621.342	14.19
621.535	14.22
621.727	14.05
621.92	14.04
622.112	14.06
622.305	14.12
622.497	14.06
622.69	14.06
622.882	14.08
623.074	14.1
623.267	14.06
623.459	14.04
623.651	14.1
623.844	14.08
624.036	13.96
624.228	13.96
624.42	13.97
624.613	13.96
624.805	13.98
624.997	14.04
625.189	14.06
625.381	14.07
625.574	13.94
625.766	13.89
625.958	13.81
626.15	13.74
626.342	13.72
626.534	13.75
626.726	13.74
626.918	13.76
627.11	13.62
627.302	13.5
627.494	13.4
627.686	13.32
627.878	13.27
628.07	13.38
628.262	13.37
628.454	13.35
628.646	13.43
628.838	13.53
629.029	13.42
629.221	13.4
629.413	13.4
629.605	13.21
629.797	13.03
629.989	13.02
630.18	13
630.372	12.99
630.564	13.15
630.755	13.16
630.947	13.05
631.139	13.06
631.33	12.93
631.522	12.89
631.714	12.82
631.905	12.88
632.097	12.77
632.289	12.8
632.48	12.66
632.672	12.7
632.863	12.7
633.055	12.76
633.246	12.75
633.438	12.73
633.629	12.67
633.821	12.65
634.012	12.6
634.203	12.59
634.395	12.66
634.586	12.75
634.777	12.7
634.969	12.69
635.16	12.72
635.351	12.63
635.543	12.63
635.734	12.54
635.925	12.51
636.117	12.45
636.308	12.52
636.499	12.42
636.69	12.45
636.881	12.46
637.073	12.48
637.264	12.39
637.455	12.38
637.646	12.41
637.837	12.44
638.028	12.41
638.219	12.4
638.41	12.37
638.601	12.32
638.792	12.21
638.983	12.23
639.174	12.24
639.365	12.22
639.556	12.21
639.747	12.26
639.938	12.27
640.129	12.28
640.32	12.32
640.511	12.28
640.701	12.24
640.892	12.22
641.083	12.17
641.274	12.12
641.465	12.1
641.655	12.06
641.846	11.99
642.037	11.93
642.228	11.86
642.418	11.84
642.609	11.86
642.8	11.81
642.99	11.76
643.181	11.76
643.372	11.77
643.562	11.74
643.753	11.75
643.943	11.82
644.134	11.85
644.324	11.94
644.515	11.88
644.705	11.87
644.896	11.84
645.086	11.77
645.277	11.72
645.467	11.76
645.658	11.78
645.848	11.68
646.038	11.8
646.229	11.74
646.419	11.79
646.61	11.8
646.8	11.98
646.99	11.83
647.18	11.8
647.371	11.7
647.561	11.65
647.751	11.44
647.941	11.42
648.132	11.47
648.322	11.58
648.512	11.57
648.702	11.64
648.892	11.72
649.082	11.7
649.272	11.52
649.462	11.48
649.653	11.5
649.843	11.34
650.033	11.41
650.223	11.44
650.413	11.46
650.603	11.51
650.793	11.55
650.983	11.41
651.172	11.43
651.362	11.31
651.552	11.2
651.742	11.21
651.932	11.14
652.122	11.16
652.312	11.2
652.502	11.05
652.691	11.09
652.881	11.1
653.071	10.94
653.261	10.83
653.45	10.88
653.64	10.62
653.83	10.58
654.019	10.53
654.209	10.45
654.399	10.26
654.588	10.24
654.778	10.13
654.968	10.06
655.157	10.04
655.347	10.09
655.536	10.01
655.726	9.93
655.915	9.78
656.105	9.59
656.294	9.46
656.484	9.4
656.673	9.28
656.863	9.26
657.052	9.2
657.241	8.99
657.431	8.87
657.62	8.8
657.809	8.71
657.999	8.66
658.188	8.67
658.377	8.59
658.567	8.45
658.756	8.22
658.945	8.16
659.134	8.03
659.324	7.93
659.513	7.79
659.702	7.74
659.891	7.6
660.08	7.51
660.269	7.47
660.458	7.41
660.648	7.35
660.837	7.26
661.026	7.17
661.215	7.13
661.404	7.06
661.593	7.03
661.782	6.9
661.971	6.9
662.16	6.7
662.349	6.64
662.538	6.57
662.726	6.69
662.915	6.59
663.104	6.59
663.293	6.48
663.482	6.44
663.671	6.28
663.86	6.16
664.048	6.19
664.237	6.27
664.426	6.25
664.615	6.16
664.803	6.14
664.992	6
665.181	5.91
665.369	5.85
665.558	5.84
665.747	5.89
665.935	5.91
666.124	5.94
666.312	5.91
666.501	6.04
666.69	5.96
666.878	5.83
667.067	5.7
667.255	5.74
667.444	5.71
667.632	5.73
667.82	5.88
668.009	5.9
668.197	5.86
668.386	5.72
668.574	5.82
668.762	5.75
668.951	5.84
669.139	5.82
669.327	5.81
669.516	5.68
669.704	5.75
669.892	5.77
670.08	5.82
670.269	5.84
670.457	5.86
670.645	5.88
670.833	5.87
671.021	5.83
671.21	5.83
671.398	6
671.586	5.97
671.774	6.04
671.962	6.17
672.15	6.26
672.338	6.24
672.526	6.26
672.714	6.15
672.902	6.04
673.09	6.03
673.278	6.03
673.466	6.18
673.654	6.49
673.842	6.57
674.03	6.69
674.218	6.8
674.405	6.81
674.593	6.73
674.781	6.79
674.969	6.75
675.157	6.72
675.344	6.72
675.532	6.61
675.72	6.66
675.908	6.84
676.095	6.9
676.283	6.92
676.471	7.23
676.658	7.28
676.846	7.35
677.033	7.45
677.221	7.6
677.409	7.4
677.596	7.51
677.784	7.53
677.971	7.56
678.159	7.44
678.346	7.56
678.534	7.6
678.721	7.6
678.909	7.64
679.096	7.84
679.283	8.01
679.471	8.07
679.658	8.3
679.846	8.35
680.033	8.46
680.22	8.54
680.408	8.45
680.595	8.43
680.782	8.42
680.969	8.35
681.157	8.23
681.344	8.35
681.531	8.48
681.718	8.57
681.905	8.56
682.093	8.72
682.28	8.86
682.467	8.73
682.654	8.82
682.841	9.05
683.028	9.09
683.215	9.22
683.402	9.37
683.589	9.62
683.776	9.78
683.963	9.84
684.15	9.93
684.337	10.1
684.524	10.17
684.711	10.2
684.898	10.53
685.085	10.62
685.271	10.8
685.458	10.9
685.645	11.13
685.832	11.23
686.019	11.49
686.205	11.69
686.392	12.01
686.579	12.27
686.766	12.47
686.952	12.71
687.139	12.87
687.326	12.91
687.512	13.09
687.699	13.38
687.886	13.71
688.072	14.1
688.259	14.62
688.445	15.07
688.632	15.49
688.818	16.06
689.005	16.48
689.191	16.99
689.378	17.3
689.564	17.77
689.751	18.09
689.937	18.49
690.124	18.88
690.31	19.44
690.496	19.94
690.683	20.45
690.869	21.11
691.055	21.74
691.242	22.51
691.428	22.97
691.614	23.77
691.8	24.21
691.987	24.62
692.173	25.19
692.359	25.92
692.545	26.44
692.731	27.33
692.918	28.15
693.104	28.8
693.29	29.66
693.476	30.36
693.662	31.21
693.848	31.86
694.034	32.37
694.22	33.15
694.406	33.96
694.592	34.35
694.778	35.15
694.964	36.09
695.15	36.65
695.336	37.38
695.522	38.43
695.708	39.47
695.894	40.29
696.08	41.22
696.265	42.29
696.451	43.18
696.637	43.89
696.823	44.93
697.009	45.88
697.194	46.18
697.38	47.1
697.566	47.89
697.751	48.61
697.937	49.31
698.123	50.31
698.308	50.89
698.494	51.54
698.68	52.09
698.865	52.81
699.051	53.32
699.236	54.04
699.422	55.03
699.607	55.69
699.793	56.17
699.978	57.16
700.164	57.65
700.349	58.69
700.535	59.45
700.72	60.16
700.906	60.72
701.091	61.31
701.276	61.42
701.462	62.22
701.647	63.09
701.832	64.09
702.018	64.91
702.203	65.35
702.388	65.72
702.573	66.02
702.759	66.05
702.944	66.3
703.129	66.96
703.314	67.77
703.499	68.55
703.684	69.1
703.87	69.54
704.055	69.95
704.24	70.52
704.425	70.94
704.61	71.26
704.795	71.97
704.98	72.23
705.165	72.31
705.35	72.39
705.535	73
705.72	73.55
705.905	74.05
706.09	74.31
706.275	74.82
706.459	75
706.644	75.28
706.829	75.8
707.014	76.77
707.199	77.34
707.384	77.67
707.568	78.17
707.753	79.02
707.938	79.47
708.123	80.2
708.307	80.91
708.492	81.11
708.677	81.19
708.861	80.94
709.046	80.78
709.231	81.41
709.415	81.69
709.6	81.85
709.784	82.08
709.969	82.32
710.153	82.77
710.338	83.13
710.522	83.48
710.707	83.97
710.891	83.83
711.076	83.44
711.26	83.45
711.445	83.4
711.629	83.38
711.813	84.3
711.998	84.59
712.182	84.96
712.366	85.47
712.551	86.12
712.735	86.38
712.919	86.42
713.103	86.43
713.288	85.95
713.472	86.11
713.656	85.88
713.84	86.09
714.024	86.42
714.208	87.31
714.393	87
714.577	87
714.761	87.85
714.945	87.8
715.129	87.67
715.313	88.25
715.497	88.71
715.681	88.82
715.865	88.69
716.049	88.91
716.233	88.89
716.417	89.48
716.601	88.75
716.785	90.03
716.968	90.36
717.152	90.65
717.336	90.43
717.52	91.52
717.704	90.82
717.888	90.53
718.071	89.88
718.255	89.99
718.439	89.34
718.622	89.53
718.806	89.87
718.99	90.86
719.174	90.84
719.357	90.98
719.541	91.43
719.724	92.12
719.908	92.15
720.092	92.72
720.275	93.5
720.459	93.26
720.642	93.23
720.826	92.72
721.009	92.41
721.193	92.22
721.376	92.45
721.559	92.2
721.743	93.11
721.926	93.46
722.11	93.05
722.293	93.32
722.476	93.4
722.66	92.9
722.843	92.8
723.026	93.46
723.21	93.35
723.393	92.97
723.576	93.32
723.759	93.6
723.942	93.35
724.126	93.51
724.309	94.3
724.492	93.91
724.675	94.11
724.858	95.05
725.041	94.55
725.224	94.46
725.407	94.91
725.59	95.49
725.774	94.57
725.957	95.71
726.14	95.45
726.322	95.19
726.505	94.69
726.688	94.92
726.871	95.3
727.054	95.6
727.237	96.53
727.42	96.74
727.603	97.23
727.786	96.35
727.968	96.47
728.151	96.75
728.334	96.76
728.517	97.19
728.699	98.07
728.882	98.09
729.065	97.79
729.248	98.06
729.43	97.28
729.613	96.89
729.796	96.88
729.978	97.75
730.161	97.24
730.343	97.48
730.526	97.64
730.708	98.41
730.891	98.24
731.073	98.92
731.256	99.06
731.438	99.3
731.621	99.38
731.803	99.07
731.986	98.08
732.168	98.17
732.35	97.72
732.533	98.04
732.715	97.32
732.898	97.56
733.08	97.89
733.262	99.4
733.444	98.53
733.627	99.52
733.809	99.68
733.991	100.41
734.173	99.02
734.355	99.4
734.538	98.75
734.72	99.15
734.902	99.14
735.084	98.56
735.266	98.53
735.448	98.95
735.63	99.13
735.812	98.64
735.994	99.33
736.176	98.74
736.358	98.12
736.54	97.19
736.722	97.24
736.904	97.98
737.086	98.8
737.268	99.73
737.45	101.55
737.632	100.24
737.814	99.9
737.995	99.98
738.177	99.5
738.359	98.69
738.541	101.22
738.723	101.63
738.904	101.21
739.086	100.99
739.268	101.64
739.449	99.2
739.631	98.95
739.813	98.95
739.994	100.35
740.176	99.21
740.358	100.94
740.539	101.23
740.721	101.7
740.902	101.15
741.084	101.74
741.265	101.77
741.447	101.87
741.628	103.4
741.81	102.57
741.991	102.44
742.172	102.27
742.354	102.02
742.535	100.91
742.717	101.21
742.898	101.36
743.079	101.64
743.261	101.96
743.442	102.02
743.623	103.74
743.804	103.63
743.986	104.28
744.167	104.29
744.348	102.96
744.529	101.86
744.71	102.34
744.891	101.41
745.073	101.61
745.254	103.36
745.435	103.35
745.616	103.25
745.797	102.99
745.978	103.05
746.159	103
746.34	102.52
746.521	101.98
746.702	101.4
746.883	99.18
747.064	97.41
747.245	98.25
747.426	99.9
747.606	100.44
747.787	102.82
747.968	104.69
748.149	104.71
748.33	103.35
748.51	104.24
748.691	101.99
748.872	100.94
749.053	100.1
749.233	100.18
749.414	98.9
749.595	101.11
749.775	101.45
749.956	101.55
750.137	102.4
750.317	104.23
750.498	103.96
750.678	104.15
750.859	103.27
751.04	102.53
751.22	101.13
751.4	100.52
751.581	99.79
751.761	100.89
751.942	101.98
752.122	100.42
752.303	99.66
752.483	100.08
752.663	100.43
752.844	98.99
753.024	100.88
753.204	101.86
753.385	101.29
753.565	101.03
753.745	101.01
753.925	100.81
754.106	100.17
754.286	100.79
754.466	101.5
754.646	101.58
754.826	100.46
755.006	101.16
755.187	99.9
755.367	98.74
755.547	100.19
755.727	101.76
755.907	100.45
756.087	100.87
756.267	101.58
756.447	99.29
756.627	98.36
756.807	98.53
756.987	99.92
757.167	98.08
757.346	99.68
757.526	100.16
757.706	101.47
757.886	100.46
758.066	103.33
758.246	103.26
758.425	101.71
758.605	101.13
758.785	102.61
758.965	101.46
759.144	101.08
759.324	101.89
759.504	101.85
759.683	101.3
759.863	101.05
760.043	101.41
760.222	100.77
760.402	98.98
760.581	100.41
760.761	99.5
760.94	97.28
761.12	100.82
761.299	102.17
761.479	100.68
761.658	98.89
761.838	99.86
762.017	97.45
762.197	98.21
762.376	98.09
762.555	100.78
762.735	100
762.914	101.39
763.093	101.01
763.273	99.73
763.452	99.08
763.631	100.46
763.81	98.88
763.99	98.23
764.169	97.87
764.348	97.41
764.527	97.38
764.706	95.45
764.885	94.41
765.064	95.43
765.243	95.91
765.423	95.29
765.602	96.99
765.781	98.13
765.96	95.44
766.139	95.91
766.318	95.1
766.497	96.53
766.676	97.59
766.854	100.86
767.033	100.15
767.212	101.9
767.391	98.77
767.57	98.45
767.749	98.94
767.928	97.42
768.106	95.78
768.285	96.17
768.464	94.88
768.643	92.33
768.821	92.11
769	93.11
769.179	94.9
769.357	94.65
769.536	95.31
769.715	96.69
769.893	96.28
770.072	93
770.25	92.2
770.429	93.01
770.607	94.62
770.786	93.57
770.964	95.81
771.143	97.76
771.321	98.6
771.5	96.85
771.678	98.55
771.857	99.93
772.035	100.62
772.213	100.52
772.392	98.78
772.57	98.07
772.748	96.65
772.927	96.1
773.105	94.14
773.283	93.84
773.461	97.16
773.64	96.36
773.818	95.21
773.996	94.69
774.174	95.06
774.352	92.76
774.531	93.82
774.709	91.93
774.887	92.56
775.065	93.04
775.243	91.76
775.421	91
775.599	92.93
775.777	92.2
775.955	93.07
776.133	91.83
776.311	92.75
776.489	92.99
776.667	95.4
776.844	96.76
777.022	99.28
777.2	96.85
777.378	93.3
777.556	91.44
777.734	90.26
777.911	91.4
778.089	92.17
778.267	95.88
778.445	93.08
778.622	92.57
778.8	92.61
778.978	94.18
779.155	94.54
779.333	97.77
779.511	97.08
779.688	94.79
779.866	92.75
780.043	90.15
780.221	87.38
780.398	86.91
780.576	87.25
780.753	88.16
780.931	89.39
781.108	91.58
781.286	91.44
781.463	90.24
781.64	89.19
781.818	90.75
781.995	91.53
782.172	94.88
782.35	94.6
782.527	96.29
782.704	94.96
782.882	95.66
783.059	94.77
783.236	91.64
783.413	90.26
783.59	90.99
783.768	86.94
783.945	85.01
784.122	88.11
784.299	85.18
784.476	85.75
784.653	87.6
784.83	88.21
785.007	85.26
785.184	90.32
785.361	90.23
785.538	88.6
785.715	89.27
785.892	95.8
786.069	93.53
786.246	91.94
786.423	97.39
786.6	96.96
786.776	95.29
786.953	94.85
787.13	96.66
787.307	91.62
787.484	92.2
787.66	89.08
787.837	93.42
788.014	97.79
788.191	100.79
788.367	102.57
788.544	104.67
788.721	99.17
788.897	91.44
789.074	91.02
789.25	87.37
789.427	85.06
789.603	83.25
789.78	86.98
789.956	93.68
790.133	96.54
790.309	96.78
790.486	97.81
790.662	97.22
790.839	86.3
791.015	84.6
791.192	88.15
791.368	91.99
791.544	89.02
791.721	96.14
791.897	94.67
792.073	96.26
792.249	92.83
792.426	97.95
792.602	93.12
792.778	93.19
792.954	88.19
793.13	90.88
793.307	88.38
793.483	88.97
793.659	93.59
793.835	93.72
794.011	96.27
794.187	93.63
794.363	94.6
794.539	87.03
794.715	88.46
794.891	84.35
795.067	84.81
795.243	85.42
795.419	91.21
795.595	90.45
795.771	90.6
795.947	91.05
796.122	90.07
796.298	87.49
796.474	83.5
796.65	83.38
796.826	83.39
797.001	81.76
797.177	80.53
797.353	82.19
797.529	81.47
797.704	85.27
797.88	86.37
798.056	92.5
798.231	94.89
798.407	98.21
798.582	95.11
798.758	98.39
798.934	92.49
799.109	92.52
799.285	95.23
799.46	90.72
799.636	91.51
799.811	88.89
799.986	88.33
800.162	86.37
800.337	90.71
800.513	82.08
800.688	82.42
800.863	85.9
801.039	83.24
801.214	80.85
801.389	78.29
801.565	80.13
801.74	77.56
801.915	74.1
802.09	77.75
802.265	84.36
802.441	87.97
802.616	90.17
802.791	94.26
802.966	97.06
803.141	94.22
803.316	89.7
803.491	86.87
803.666	88.64
803.841	84.65
804.016	91.47
804.191	95.08
804.366	99.1
804.541	96.52
804.716	100.44
804.891	88.06
805.066	90.22
805.241	87.29
805.416	86.75
805.591	84.38
805.765	89
805.94	86.37
806.115	80.11
806.29	83.69
806.464	80.59
806.639	86.15
806.814	85.92
806.989	82.65
807.163	76.26
807.338	79.13
807.512	71.65
807.687	72.73
807.862	80.22
808.036	92.12
808.211	88.53
808.385	87.94
808.56	87.32
808.734	83.29
808.909	77.4
809.083	78.02
809.258	76.39
809.432	80.79
809.606	88.48
809.781	85.57
809.955	82.73
810.13	93.73
810.304	86.79
810.478	82.62
810.652	94.74
810.827	94.89
811.001	93.98
811.175	111.49
811.349	108.66
811.524	89.48
811.698	90.64
811.872	97.79
812.046	90.27
812.22	97.11
812.394	101.56
812.568	114.38
812.742	98.46
812.916	101.57
813.09	95.31
813.264	109.53
813.438	101.43
813.612	99.14
813.786	88.43
813.96	93.51
814.134	86.48
814.308	85.89
814.482	84.98
814.656	91.55
814.83	90.99
815.003	93.06
815.177	92.88
815.351	111.66
815.525	105.29
815.698	105.85
815.872	103.19
816.046	114.55
816.219	98.95
816.393	104.31
816.567	111.81
816.74	105.94
816.914	90.61
817.088	106.32
817.261	95.53
817.435	90.04
817.608	96.86
817.782	104.7
817.955	95.16
818.129	100.89
818.302	93.97
818.475	86.78
818.649	88.27
818.822	89.36
818.996	92.43
819.169	94.92
819.342	95.88
819.516	88.21
819.689	94.01
819.862	88.73
820.035	84.69
820.209	87.8
820.382	85.66
820.555	67.16
820.728	72.8
820.901	80.98
821.075	76.31
821.248	76.27
821.421	79.83
821.594	84.02
821.767	89.37
821.94	85.84
822.113	91.66
822.286	90.71
822.459	98.73
822.632	89.07
822.805	93.86
822.978	106.91
823.151	115.15
823.324	85.86
823.496	93.27
823.669	99.74
823.842	82.65
824.015	90.66
824.188	101.46
824.361	88.67
824.533	81.26
824.706	87.44
824.879	80.54
825.051	80.35
825.224	92.72
825.397	84.69
825.569	79.51
825.742	74.23
825.915	76.18
826.087	60.79
826.26	73.59
826.432	75.54
826.605	84.84
826.777	72.85
826.95	86.44
827.122	90.48
827.295	88.63
827.467	86.04
827.64	88.93
827.812	74.43
827.984	83.82
828.157	86.07
828.329	74.28
828.501	82.54
828.674	89.78
828.846	70.2
829.018	80.12
829.19	88.3
829.363	91.86
829.535	87.28
829.707	99.22
829.879	89.05
830.051	79.73
830.223	67.11
830.395	64.6
830.568	68.04
830.74	69.47
830.912	95.27
831.084	132.54
831.256	135.54
831.428	130.75
831.6	154.21
831.772	93.28
831.943	66.31
832.115	73.8
832.287	72.91
832.459	61.91
832.631	65.02
832.803	77.98
832.975	77.43
833.146	83.15
833.318	90.28
833.49	107.37
833.662	107.09
833.833	114.34
834.005	102.5
834.177	92.84
834.348	84.67
834.52	71.89
834.692	59.08
834.863	58.44
835.035	54.98
835.206	30.24
835.378	27.56
835.549	46.22
835.721	50.5
835.892	62.58
836.064	68.34
836.235	84.18
836.407	64.74
836.578	73.37
836.749	75.28
836.921	80.01
837.092	79.37
837.264	89.21
837.435	104.83
837.606	90.44
837.777	84.48
837.949	78.46
838.12	80.18
838.291	61.11
838.462	77.97
838.633	68.34
838.805	59.46
838.976	82.16
839.147	95.1
839.318	73.02
839.489	119.7
839.66	108.73
839.831	92.77
840.002	73.36
840.173	77.61
840.344	45.51
840.515	34.56
840.686	37.96
840.857	52.52
841.028	48.68
841.199	78.36
841.369	88.57
841.54	110.64
841.711	96.69
841.882	108.16
842.053	74.01
842.223	68.04
842.394	37.74
842.565	38.45
842.736	56.08
842.906	56.61
843.077	63.4
843.248	92.53
843.418	115.42
843.589	97.14
843.759	96.72
843.93	100.02
844.101	83.62
844.271	83.74
844.442	85.06
844.612	74.91
844.783	66.19
844.953	72.82
845.123	65.96
845.294	64.76
845.464	68.44
845.635	59.22
845.805	79.44
845.975	72.04
846.146	51.43
846.316	45.7
846.486	60.41
846.656	52.85
846.827	67
846.997	79.3
847.167	103.44
847.337	72.54
847.507	70.44
847.677	61.84
847.848	87.35
848.018	90.34
848.188	115.23
848.358	115.4
848.528	101.47
848.698	67.4
848.868	51.17
849.038	68.34
849.208	68.15
849.378	87.7
849.548	125.31
849.718	145.25
849.887	107.75
850.057	115.97
850.227	151.5
850.397	89.52
850.567	88
850.737	97.78
850.906	88.46
851.076	70.91
851.246	79.51
851.415	86.13
851.585	79.2
851.755	93.38
851.924	103.26
852.094	104.96
852.264	84.95
852.433	99.03
852.603	77.26
852.772	70.75
852.942	53.84
853.111	46.22
853.281	62.07
853.45	64.82
853.62	74.14
853.789	90.78
853.959	115.46
854.128	70.34
854.297	68.85
854.467	51.23
854.636	42.21
854.805	3.93
854.975	42.53
855.144	7.21
855.313	33.43
855.482	39.29
855.652	48.64
855.821	50.85
855.99	55.02
856.159	108.37
856.328	114.1
856.497	131.68
856.667	112.69
856.836	159.91
857.005	93.75
857.174	108.91
857.343	115.87
857.512	46.34
857.681	-2.15
857.85	56.17
858.019	42.4
858.188	48.37
858.356	86.19
858.525	110.96
858.694	69.13
858.863	120.41
859.032	90.64
859.201	12.23
859.369	43.53
859.538	64.88
859.707	51.76
859.876	65.71
860.044	115.9
860.213	122.17
860.382	111.32
860.55	148.59
860.719	131.17
860.888	74.58
861.056	42.41
861.225	36.14
861.393	55.15
861.562	83.87
861.73	74.72
861.899	91.79
862.067	115.72
862.236	128.09
862.404	57.67
862.572	89.76
862.741	78.37
862.909	38.91
863.078	10.07
863.246	40.69
863.414	53.46
863.582	84.68
863.751	87.45
863.919	83.4
864.087	129.78
864.255	108.49
864.424	60.4
864.592	70.15
864.76	64.1
864.928	70.43
865.096	28.43
865.264	48.99
865.432	36.34
865.6	36.74
865.768	27.48
865.936	54.61
866.104	63.61
866.272	94.58
866.44	105.9
866.608	121.72
866.776	71.03
866.944	115.02
867.112	61.07
867.28	138.83
867.448	126.31
867.615	258.29
867.783	76.58
867.951	78.85
868.119	42.13
868.286	23.32
868.454	23.93
868.622	40.68
868.789	-27.63
868.957	35.34
869.125	66.88
869.292	70.48
869.46	47.6
869.627	50.45
869.795	35.4
869.963	47.27
870.13	42
870.298	52.51
870.465	68.77
870.632	86.76
870.8	68.86
870.967	44.25
871.135	24.94
871.302	57.37
871.469	223.6
871.637	24.58
871.804	101.86
871.971	86.59
872.139	67.46
872.306	65.22
872.473	52.59
872.64	29.25
872.807	25.49
872.975	-1.78
873.142	96.61
873.309	1318.84
873.476	664.27
873.643	232.89
873.81	132.79
873.977	96.8
874.144	114.16
874.311	78.79
874.478	67.34
874.645	65.06
874.812	41.75
874.979	25.04
875.146	42
875.313	50.83
875.48	10.34
875.647	-87.91
875.813	543.11
875.98	-858.59
876.147	354.78
876.314	164.07
876.481	162.49
876.647	158.91
876.814	102.31
876.981	171.74
877.147	185.8
877.314	131.88
877.481	102
877.647	119.66
877.814	105.01
877.98	53.43
878.147	104.2
878.314	152.36
878.48	152.3
878.647	107.85
878.813	1133.33
878.979	179.51
879.146	123.38
879.312	138.59
879.479	125.06
879.645	127.65
879.811	99.46
879.978	99.28
880.144	76.7
880.31	76.49
880.477	56.18
880.643	83.1
880.809	147.73
880.975	6648.48
881.142	-20.65
881.308	-525.33
881.474	159.4
881.64	131.52
881.806	67.13
881.972	120.41
882.138	108.96
882.304	118.65
882.47	118.67
882.636	97.19
882.802	107.21
882.968	329.15
883.134	143.21
883.3	108.12
883.466	146.6
883.632	176.21
883.798	97.2
883.964	126.17
884.129	155.79
884.295	130.69
884.461	60.17
884.627	78.44
884.793	46.96
884.958	64.65
885.124	59.12
885.29	83.88
885.455	160.66
885.621	192.45
885.787	208.53
885.952	-37.08
886.118	-189.15
886.283	2017.54
886.449	99.01
886.614	73.4
886.78	97.23
886.945	82.85
887.111	64.31
887.276	58.84
887.442	51.59
887.607	-28.26
887.773	29.97
887.938	90.11
888.103	70.4
888.269	80.28
888.434	69.08
888.599	44.41
888.764	45.5
888.93	53.46
889.095	73.35
889.26	160.52
889.425	404.29
889.59	-428.02
889.756	549.11
889.921	138.66
890.086	150.96
890.251	134.7
890.416	91.19
890.581	78.88
890.746	173.9
890.911	130.43
891.076	113.98
891.241	105.6
891.406	111.7
891.571	5.76
891.736	12.19
891.901	6.79
892.065	58.05
892.23	43.19
892.395	79.34
892.56	159.1
892.725	134.33
892.889	93.03
893.054	52.28
893.219	20.37
893.384	29.95
893.548	-85.42
893.713	453.09
893.878	117.95
