Data from Ofav_PS_Phys_0HS3_Reflection_1.txt Node
Date: Thu Jul 29 18:17:15 EDT 2021
User: USUARIO
Spectrometer: FLMT01687
Trigger mode: 0
Integration Time (sec): 9.010000E-1
Scans to average: 2
Electric dark correction enabled: true
Nonlinearity correction enabled: false
Boxcar width: 2
XAxis mode: Wavelengths
Number of Pixels in Spectrum: 3648
>>>>>Begin Spectral Data<<<<<
179.494	25.71
179.716	16.22
179.937	75.52
180.158	-364.41
180.38	39.77
180.601	-503.15
180.823	-124.77
181.044	-4.43
181.265	-38.46
181.486	-852.54
181.708	83.73
181.929	166.11
182.15	6757.14
182.372	-77.41
182.593	-7.95
182.814	-12.11
183.035	-145.36
183.257	-1.98
183.478	17.05
183.699	20.84
183.92	21.35
184.141	29.1
184.363	35.69
184.584	56.86
184.805	48.55
185.026	53
185.247	47.16
185.468	52.29
185.689	12.92
185.91	87.04
186.132	61.37
186.353	50.74
186.574	61.48
186.795	71.31
187.016	49.55
187.237	47.38
187.458	49.97
187.679	48.08
187.9	45.74
188.121	33.75
188.342	41.48
188.563	38.02
188.784	28.22
189.005	23.58
189.226	28.94
189.447	23.63
189.667	6.16
189.888	12.37
190.109	10.73
190.33	-45.68
190.551	-17.78
190.772	14.44
190.993	-8.19
191.214	2.04
191.434	15.21
191.655	24.97
191.876	17.16
192.097	27.9
192.318	29.85
192.538	30.24
192.759	30.14
192.98	23.76
193.201	25.15
193.421	1.46
193.642	-0.21
193.863	-1.35
194.083	-5.55
194.304	2.11
194.525	40.09
194.745	22.21
194.966	22.01
195.187	25.16
195.407	27.64
195.628	-23.31
195.848	35.68
196.069	55.8
196.29	48.29
196.51	21.82
196.731	26.11
196.951	-11.28
197.172	-34.57
197.392	-33.15
197.613	-45.49
197.833	-53.36
198.054	-26.18
198.274	-18.28
198.495	20.9
198.715	18.05
198.936	69.37
199.156	109
199.377	93.34
199.597	86.28
199.817	73.45
200.038	22.31
200.258	1.33
200.479	-40.35
200.699	-69.01
200.919	0.07
201.14	14.32
201.36	21.5
201.58	37.29
201.801	55.92
202.021	57.37
202.241	54.43
202.461	48.87
202.682	31.49
202.902	31.15
203.122	-1.59
203.342	24.61
203.563	23.08
203.783	25.02
204.003	10.23
204.223	4.96
204.443	-5.98
204.663	16.96
204.884	23.34
205.104	28.4
205.324	38.37
205.544	24.79
205.764	1.16
205.984	10.38
206.204	9.35
206.424	5.05
206.644	26.17
206.864	52.6
207.084	46.7
207.304	60.97
207.525	65.58
207.745	36.72
207.964	19.44
208.184	16.6
208.404	6.87
208.624	29.19
208.844	59.6
209.064	53.09
209.284	49.43
209.504	28.19
209.724	30.13
209.944	29.52
210.164	40.55
210.384	29.19
210.604	45.73
210.823	43.61
211.043	14.35
211.263	22.73
211.483	9.07
211.703	-4.39
211.922	-8.09
212.142	29.93
212.362	11.45
212.582	49.3
212.801	56.11
213.021	25.82
213.241	8.22
213.461	17.56
213.68	-36.68
213.9	-28.34
214.12	10.86
214.339	-13.89
214.559	-12.78
214.779	7.73
214.998	-22.64
215.218	-25.7
215.438	-4.91
215.657	-19.95
215.877	0.82
216.096	-7.41
216.316	-37.97
216.535	-70.19
216.755	-55.5
216.974	-102.4
217.194	-86.62
217.413	-19.87
217.633	12.45
217.852	-8.73
218.072	15.53
218.291	43.3
218.511	38.41
218.73	23.58
218.95	32.85
219.169	32.11
219.389	17.58
219.608	15.95
219.827	10.89
220.047	14.47
220.266	-5.07
220.485	14.49
220.705	2.28
220.924	-10.28
221.143	-20.98
221.363	-21.95
221.582	-54.49
221.801	-46.12
222.021	17.94
222.24	24.4
222.459	40.26
222.678	47.78
222.897	37.94
223.117	30.26
223.336	23.23
223.555	20.77
223.774	-14.89
223.993	-12.02
224.213	18.4
224.432	41.7
224.651	45.93
224.87	59.75
225.089	69.67
225.308	71.65
225.527	69.06
225.746	60.15
225.965	64.26
226.184	27.65
226.404	-15.63
226.623	4.73
226.842	-4.86
227.061	-20.88
227.28	6.19
227.499	58.09
227.718	34.43
227.936	34.9
228.155	28.13
228.374	8.93
228.593	-18.75
228.812	-22.3
229.031	-5.85
229.25	3.29
229.469	6.65
229.688	14.97
229.907	40.87
230.125	33.48
230.344	58.19
230.563	73.24
230.782	72.09
231.001	35.86
231.22	29.65
231.438	-4.91
231.657	-7.23
231.876	-9.23
232.095	-26.06
232.313	-13.26
232.532	-19.47
232.751	-32.25
232.969	-30.51
233.188	-0.75
233.407	-6.56
233.625	15.42
233.844	39.99
234.063	48.24
234.281	52.01
234.5	45.73
234.719	34.91
234.937	3.01
235.156	-25.2
235.374	-3.48
235.593	9.4
235.811	0.9
236.03	23.97
236.249	40.37
236.467	42.17
236.686	38.48
236.904	34.82
237.123	42.72
237.341	28.61
237.559	26.38
237.778	47.8
237.996	52.22
238.215	43.89
238.433	64.53
238.652	57.05
238.87	43.9
239.088	43.76
239.307	35.08
239.525	34.06
239.743	33.38
239.962	34.89
240.18	30.07
240.398	31.61
240.617	9.37
240.835	-0.34
241.053	12.17
241.271	1.94
241.49	14.52
241.708	31.2
241.926	38.98
242.144	30.7
242.363	41.64
242.581	38.02
242.799	41.3
243.017	20.59
243.235	11.1
243.453	13.45
243.672	12.07
243.89	2.02
244.108	27.79
244.326	47.29
244.544	5.47
244.762	1.73
244.98	7.47
245.198	11.97
245.416	-11.2
245.634	1.16
245.852	-3.05
246.07	9.84
246.288	6.98
246.506	17.95
246.724	31.6
246.942	43.12
247.16	32.68
247.378	22.13
247.596	29.96
247.814	18.16
248.032	12.96
248.25	16.63
248.468	16.69
248.685	15.44
248.903	22.44
249.121	26.56
249.339	15.43
249.557	21.9
249.775	28.82
249.992	25.99
250.21	22.08
250.428	51.77
250.646	46.93
250.863	43.31
251.081	30.32
251.299	38.91
251.517	29.03
251.734	43.52
251.952	30.93
252.17	43.84
252.387	29.46
252.605	38.32
252.823	15.24
253.04	29.61
253.258	38.43
253.475	44.37
253.693	35.2
253.911	35.24
254.128	47.04
254.346	43.46
254.563	50.08
254.781	38.16
254.998	48.22
255.216	4.99
255.433	5.56
255.651	2.4
255.868	-7.1
256.086	0.49
256.303	8.06
256.521	11.66
256.738	12.99
256.956	29.84
257.173	33.39
257.39	48.74
257.608	25.72
257.825	40.32
258.043	25.61
258.26	9.58
258.477	-3.46
258.695	2.9
258.912	-12.95
259.129	-17.56
259.346	-9.22
259.564	-2.06
259.781	15.08
259.998	17.37
260.216	37.09
260.433	42.57
260.65	38.93
260.867	36.33
261.084	43.24
261.302	28.29
261.519	24.24
261.736	29.95
261.953	9.31
262.17	10.05
262.387	27.78
262.604	6.03
262.822	-3.87
263.039	12.55
263.256	-2.98
263.473	-13.3
263.69	-10.61
263.907	-13.66
264.124	-9
264.341	-16.42
264.558	-36.97
264.775	-26.42
264.992	-7.43
265.209	-15.18
265.426	1.85
265.643	13.69
265.86	16.18
266.077	14.97
266.294	17.07
266.51	-1.03
266.727	7.55
266.944	11.23
267.161	10.23
267.378	12.8
267.595	41.36
267.812	33.58
268.028	11.46
268.245	10.77
268.462	9.03
268.679	17.12
268.896	-3.84
269.112	5.17
269.329	1.11
269.546	10.47
269.763	3.06
269.979	18.04
270.196	31.04
270.413	28.63
270.629	19.67
270.846	13.46
271.063	7.21
271.279	0.45
271.496	1
271.712	0.77
271.929	4.79
272.146	33.87
272.362	34.92
272.579	51.01
272.795	57.19
273.012	55.68
273.228	25.54
273.445	30.38
273.661	29.97
273.878	26.02
274.094	34.6
274.311	50.92
274.527	45.62
274.744	55.55
274.96	58.72
275.177	45.11
275.393	41.77
275.609	45.84
275.826	15.6
276.042	10.52
276.259	10.62
276.475	17.84
276.691	12.53
276.908	20.48
277.124	19.05
277.34	27.04
277.557	15.11
277.773	6.48
277.989	11.21
278.205	14.26
278.422	-4.34
278.638	6.12
278.854	28.93
279.07	38.22
279.286	20.71
279.503	34.42
279.719	22.33
279.935	0.7
280.151	-29.16
280.367	-7.04
280.583	3.22
280.799	7.04
281.016	12.7
281.232	33.7
281.448	37.56
281.664	43.3
281.88	35.95
282.096	39.58
282.312	16.99
282.528	3.75
282.744	-21.32
282.96	-4.79
283.176	2.01
283.392	41.6
283.608	45.55
283.824	43.58
284.04	34.77
284.256	39.3
284.471	22.05
284.687	18.36
284.903	8.71
285.119	12.09
285.335	4.5
285.551	9.59
285.767	11.64
285.982	18.44
286.198	19.08
286.414	10.56
286.63	14.71
286.846	17.76
287.061	11.64
287.277	28.52
287.493	33.64
287.709	28.31
287.924	32.81
288.14	37.26
288.356	32.43
288.571	36.56
288.787	28.98
289.003	2.09
289.218	-22.94
289.434	-28.75
289.65	-23.83
289.865	-24.41
290.081	-26.71
290.296	-8.31
290.512	-3.52
290.727	-0.33
290.943	16.53
291.159	22.84
291.374	35.81
291.59	35.63
291.805	17.7
292.021	14.7
292.236	26.07
292.451	2.22
292.667	6.39
292.882	17.89
293.098	14.48
293.313	32.35
293.529	37.59
293.744	29.81
293.959	33.27
294.175	42.47
294.39	24.17
294.605	31.57
294.821	38.81
295.036	39.1
295.251	45.2
295.467	47.73
295.682	43.34
295.897	27.97
296.112	22.56
296.328	10.82
296.543	-0.73
296.758	-9.84
296.973	-4.72
297.188	-14.84
297.404	-22.48
297.619	-4.59
297.834	-11.48
298.049	2.98
298.264	28.6
298.479	35.35
298.694	25.62
298.909	23.9
299.125	28.43
299.34	22.28
299.555	30.42
299.77	50.1
299.985	33.52
300.2	14.72
300.415	1.05
300.63	1.06
300.845	-7.35
301.06	9.03
301.275	17.42
301.49	-0.7
301.704	-25.1
301.919	-13.4
302.134	-11.07
302.349	-13.76
302.564	-6.69
302.779	10.66
302.994	7.67
303.209	14.55
303.423	19.45
303.638	3.07
303.853	-25.77
304.068	-6.14
304.283	0.67
304.497	0.71
304.712	1.29
304.927	8.9
305.142	-7.46
305.356	-18.14
305.571	0.95
305.786	26.36
306	7.29
306.215	21.58
306.43	34.72
306.644	21.38
306.859	19.52
307.074	42.53
307.288	37.46
307.503	15.1
307.717	24.77
307.932	14.5
308.147	2.77
308.361	-12.83
308.576	-24.19
308.79	-46.1
309.005	-10.86
309.219	9.33
309.434	13.63
309.648	26.57
309.863	34.9
310.077	7.16
310.292	-0.85
310.506	-8.67
310.72	-10.49
310.935	-35.35
311.149	-9.96
311.364	-15.98
311.578	-12.82
311.792	-25.41
312.007	-7.64
312.221	-14.03
312.435	-19.72
312.649	-9.74
312.864	-127.97
313.078	-50.82
313.292	-46.71
313.507	-21.16
313.721	-32.68
313.935	5.23
314.149	5.19
314.363	5.8
314.578	8.84
314.792	19.57
315.006	27.34
315.22	27.15
315.434	29.17
315.648	31.19
315.862	24.37
316.077	19.06
316.291	6.41
316.505	6.71
316.719	7.88
316.933	15.53
317.147	16.44
317.361	12.53
317.575	9.17
317.789	0.06
318.003	6.29
318.217	28.07
318.431	27.67
318.645	26.17
318.859	35.75
319.073	18
319.287	6.39
319.5	7.97
319.714	19.95
319.928	19.12
320.142	32.59
320.356	20.8
320.57	24.04
320.784	19.35
320.997	0.67
321.211	2.85
321.425	2.4
321.639	-0.1
321.853	-0.61
322.066	1.71
322.28	-1.16
322.494	15.55
322.707	31.37
322.921	24.48
323.135	28.29
323.349	35.3
323.562	25.22
323.776	16.11
323.989	30.07
324.203	43.69
324.417	22.88
324.63	20.86
324.844	26.24
325.057	15.25
325.271	-6.17
325.485	7.91
325.698	6.13
325.912	10.23
326.125	4.25
326.339	-1.86
326.552	-3.24
326.766	-2.11
326.979	-12.88
327.193	-19.71
327.406	-7.74
327.619	-15.04
327.833	-9
328.046	-0.55
328.26	23.38
328.473	21.64
328.686	17.51
328.9	24.15
329.113	6.86
329.326	-6.63
329.54	-26.24
329.753	4.25
329.966	6.43
330.179	7.78
330.393	15.89
330.606	16.73
330.819	18.02
331.032	10.09
331.246	12.23
331.459	-24.35
331.672	-18.16
331.885	-31.96
332.098	-23.65
332.311	-16.47
332.525	1.67
332.738	4.01
332.951	-13.74
333.164	-6.1
333.377	-11.19
333.59	-7.79
333.803	14.4
334.016	21.35
334.229	-3.99
334.442	10.46
334.655	14.92
334.868	3.65
335.081	28.04
335.294	44.23
335.507	43.86
335.72	48.17
335.933	32.91
336.146	33.8
336.359	37.59
336.572	39.93
336.785	30.15
336.997	29.37
337.21	18.76
337.423	12.39
337.636	-0.55
337.849	-5.11
338.062	-8.57
338.274	-26.43
338.487	-34.97
338.7	-74.76
338.913	-45.55
339.125	-19.76
339.338	-17.73
339.551	-16.14
339.763	3.88
339.976	-12.91
340.189	-17.24
340.402	-12.81
340.614	-26.46
340.827	-12.13
341.039	-1.49
341.252	7.61
341.465	10.68
341.677	22.13
341.89	5.2
342.102	3.81
342.315	6.94
342.527	13.41
342.74	16.41
342.952	18.81
343.165	28.98
343.377	14.64
343.59	9.77
343.802	13.67
344.015	19.15
344.227	2.19
344.44	6.47
344.652	5.09
344.864	-13.46
345.077	1.61
345.289	0.67
345.502	-9.54
345.714	-19.49
345.926	-3.72
346.139	-24.52
346.351	-11.39
346.563	29.15
346.775	30.46
346.988	11.04
347.2	10.88
347.412	15.16
347.624	2.22
347.837	3.76
348.049	0.85
348.261	-1.63
348.473	-2.76
348.685	-4
348.897	-4.05
349.11	8.07
349.322	6.64
349.534	3.55
349.746	0.48
349.958	8.55
350.17	12.6
350.382	12.12
350.594	-1.03
350.806	5.99
351.018	-8.21
351.23	-10.74
351.442	6.65
351.654	25.56
351.866	2.7
352.078	24
352.29	15.13
352.502	16.77
352.714	13.15
352.926	28.76
353.138	29.78
353.35	42.78
353.561	15.04
353.773	22.44
353.985	25.48
354.197	25.01
354.409	26.98
354.621	17.76
354.832	-5.27
355.044	-14.91
355.256	-7.6
355.468	-22.42
355.679	4.58
355.891	24.05
356.103	30.47
356.314	36.41
356.526	43.75
356.738	28.49
356.949	23
357.161	26.97
357.373	13.63
357.584	4.62
357.796	21.53
358.008	12.31
358.219	8.56
358.431	-5.19
358.642	-0.53
358.854	-8.8
359.065	8.32
359.277	0.04
359.488	7.75
359.7	7.83
359.911	17.68
360.123	10.95
360.334	14.11
360.546	8.97
360.757	9.06
360.969	-4.83
361.18	12.04
361.391	2.98
361.603	-7.55
361.814	-1.37
362.025	4.37
362.237	0.95
362.448	12.16
362.659	21.42
362.871	22.81
363.082	27.87
363.293	19.89
363.504	31.67
363.716	23.89
363.927	19.03
364.138	0.83
364.349	-4.09
364.56	-2.84
364.772	-10.91
364.983	-18.66
365.194	-6.35
365.405	7.22
365.616	-10.01
365.827	0.79
366.038	0.97
366.25	-12.58
366.461	-31.9
366.672	-21.56
366.883	-17.94
367.094	-25.73
367.305	2.96
367.516	27.26
367.727	22.31
367.938	21.63
368.149	38
368.36	38.31
368.571	26.02
368.781	10.27
368.992	13.68
369.203	10.96
369.414	8.09
369.625	14.97
369.836	25.67
370.047	16.45
370.258	20.51
370.468	19.5
370.679	11.27
370.89	7.36
371.101	30.92
371.312	29.87
371.522	23.23
371.733	21.46
371.944	13.62
372.155	-0.81
372.365	-27.22
372.576	-13.29
372.787	-8.46
372.997	-3.6
373.208	5.49
373.419	10.1
373.629	10.61
373.84	15.89
374.05	12.06
374.261	7.67
374.472	11.27
374.682	-10.62
374.893	0.62
375.103	11.22
375.314	10.08
375.524	10.81
375.735	28.66
375.945	22.06
376.156	18.82
376.366	7.27
376.577	20.43
376.787	19.23
376.997	18.65
377.208	15.29
377.418	21.35
377.629	11.59
377.839	9.39
378.049	1.88
378.26	13.08
378.47	20.17
378.68	16.8
378.89	13.38
379.101	22.34
379.311	15.84
379.521	10.71
379.732	7.93
379.942	9.79
380.152	2.42
380.362	0.64
380.572	-8.61
380.783	-4.69
380.993	-2.71
381.203	11.59
381.413	13.51
381.623	23.14
381.833	33.55
382.043	33.99
382.253	20.91
382.463	15.23
382.674	13.55
382.884	4.81
383.094	-7.18
383.304	-4.17
383.514	1.42
383.724	10.89
383.934	7.65
384.144	14.84
384.353	17.7
384.563	23.61
384.773	23.2
384.983	23.25
385.193	23.82
385.403	18.02
385.613	14.12
385.823	5.58
386.033	6.17
386.242	2.07
386.452	5.34
386.662	4.8
386.872	8.97
387.082	7.48
387.291	5.81
387.501	3.13
387.711	-1.18
387.921	-3.27
388.13	-0.7
388.34	0.98
388.55	1.97
388.759	1.92
388.969	3.48
389.179	3.47
389.388	2.68
389.598	2.6
389.807	4.72
390.017	4.72
390.227	8.41
390.436	9.11
390.646	9.19
390.855	8.98
391.065	7.97
391.274	4.95
391.484	5.17
391.693	2.7
391.903	2.57
392.112	3.8
392.322	3.68
392.531	3
392.74	5.04
392.95	6.49
393.159	6.85
393.369	8.53
393.578	8.87
393.787	9.32
393.997	7.57
394.206	7.31
394.415	6.89
394.625	6.65
394.834	5.57
395.043	5.42
395.252	6.35
395.462	6.38
395.671	6.7
395.88	7.9
396.089	9.02
396.298	7.62
396.508	7.05
396.717	6.85
396.926	6.69
397.135	6.03
397.344	6.84
397.553	7.38
397.762	7.83
397.971	7.88
398.181	8.72
398.39	7.95
398.599	7.53
398.808	7.43
399.017	7.96
399.226	7.69
399.435	8.3
399.644	8.97
399.853	8.96
400.062	8.9
400.27	9.02
400.479	8.87
400.688	8.42
400.897	8.51
401.106	8.07
401.315	7.91
401.524	8.12
401.733	7.9
401.941	7.88
402.15	8.03
402.359	7.72
402.568	7.56
402.777	7.68
402.985	7.56
403.194	7.32
403.403	7.5
403.612	7.39
403.82	7.35
404.029	7.35
404.238	7.28
404.446	7.36
404.655	7.29
404.864	7.45
405.072	7.4
405.281	7.62
405.489	7.55
405.698	7.57
405.906	7.36
406.115	7.35
406.324	7.19
406.532	7.17
406.741	7.12
406.949	7.22
407.158	7.19
407.366	7.09
407.574	7.01
407.783	7.15
407.991	7.09
408.2	7.01
408.408	7.08
408.617	7.08
408.825	6.98
409.033	7.02
409.242	7.22
409.45	7.18
409.658	7.18
409.867	7.1
410.075	7.05
410.283	6.87
410.491	6.91
410.7	6.95
410.908	7.15
411.116	7.09
411.324	7.1
411.533	7.08
411.741	7.02
411.949	6.96
412.157	7.04
412.365	6.88
412.573	6.86
412.781	6.81
412.99	6.67
413.198	6.53
413.406	6.68
413.614	6.72
413.822	6.83
414.03	6.85
414.238	6.86
414.446	6.97
414.654	6.88
414.862	6.83
415.07	6.67
415.278	6.65
415.486	6.52
415.694	6.6
415.902	6.5
416.109	6.53
416.317	6.54
416.525	6.51
416.733	6.4
416.941	6.46
417.149	6.57
417.357	6.6
417.564	6.54
417.772	6.44
417.98	6.53
418.188	6.53
418.395	6.37
418.603	6.3
418.811	6.43
419.019	6.41
419.226	6.4
419.434	6.44
419.642	6.5
419.849	6.51
420.057	6.28
420.265	6.23
420.472	6.18
420.68	6.2
420.887	6.13
421.095	6.31
421.302	6.3
421.51	6.3
421.717	6.47
421.925	6.44
422.132	6.42
422.34	6.32
422.547	6.22
422.755	6.03
422.962	6.13
423.17	6.08
423.377	6.17
423.585	6.42
423.792	6.4
423.999	6.31
424.207	6.33
424.414	6.2
424.621	6.16
424.829	6.26
425.036	6.26
425.243	6.17
425.451	6.25
425.658	6.22
425.865	6.05
426.072	6.18
426.28	6.24
426.487	6.31
426.694	6.27
426.901	6.2
427.108	6.1
427.315	6.12
427.523	6.14
427.73	6.11
427.937	6.27
428.144	6.19
428.351	6.05
428.558	6.16
428.765	6.29
428.972	6.43
429.179	6.48
429.386	6.54
429.593	6.38
429.8	6.35
430.007	6.28
430.214	6.39
430.421	6.39
430.628	6.47
430.835	6.51
431.042	6.53
431.249	6.56
431.456	6.64
431.662	6.78
431.869	6.88
432.076	6.91
432.283	6.94
432.49	7.02
432.697	7.03
432.903	6.78
433.11	6.66
433.317	6.55
433.524	6.47
433.73	6.42
433.937	6.49
434.144	6.53
434.35	6.64
434.557	6.72
434.764	6.65
434.97	6.71
435.177	6.85
435.384	6.83
435.59	6.79
435.797	6.88
436.003	6.85
436.21	6.83
436.416	6.75
436.623	6.81
436.829	6.78
437.036	6.89
437.242	6.97
437.449	7.03
437.655	7.04
437.862	7.09
438.068	7.03
438.275	6.92
438.481	6.98
438.687	6.93
438.894	7.01
439.1	7.13
439.307	7.31
439.513	7.28
439.719	7.25
439.926	7.07
440.132	7.11
440.338	7.08
440.544	7.11
440.751	7.05
440.957	7.21
441.163	7.15
441.369	7.07
441.575	7.13
441.782	7.23
441.988	7.15
442.194	7.03
442.4	6.99
442.606	6.98
442.812	6.99
443.018	7.01
443.224	7.2
443.431	7.17
443.637	7.18
443.843	7.17
444.049	7.23
444.255	7.11
444.461	7.2
444.667	7.12
444.873	7.1
445.079	7.12
445.284	7.23
445.49	7.21
445.696	7.31
445.902	7.41
446.108	7.36
446.314	7.34
446.52	7.38
446.726	7.43
446.931	7.41
447.137	7.47
447.343	7.51
447.549	7.49
447.755	7.34
447.96	7.47
448.166	7.42
448.372	7.48
448.578	7.61
448.783	7.79
448.989	7.82
449.195	7.72
449.4	7.71
449.606	7.58
449.812	7.6
450.017	7.52
450.223	7.64
450.428	7.57
450.634	7.67
450.84	7.6
451.045	7.51
451.251	7.57
451.456	7.74
451.662	7.67
451.867	7.7
452.073	7.76
452.278	7.73
452.483	7.64
452.689	7.64
452.894	7.59
453.1	7.69
453.305	7.74
453.51	7.75
453.716	7.73
453.921	7.76
454.127	7.68
454.332	7.51
454.537	7.46
454.742	7.62
454.948	7.51
455.153	7.61
455.358	7.8
455.563	7.81
455.769	7.54
455.974	7.68
456.179	7.5
456.384	7.46
456.589	7.44
456.795	7.6
457	7.68
457.205	7.93
457.41	7.97
457.615	8.03
457.82	8.09
458.025	7.95
458.23	7.86
458.435	7.8
458.64	7.82
458.845	7.82
459.05	7.86
459.255	7.82
459.46	7.87
459.665	7.9
459.87	7.95
460.075	8
460.28	8.03
460.485	8.12
460.69	8.09
460.895	8.06
461.099	8.06
461.304	8.03
461.509	7.99
461.714	7.98
461.919	7.94
462.123	7.95
462.328	7.97
462.533	8.01
462.738	8.16
462.942	8.12
463.147	8.15
463.352	8.26
463.556	8.22
463.761	8.11
463.966	8.3
464.17	8.4
464.375	8.26
464.58	8.26
464.784	8.34
464.989	8.2
465.193	8.1
465.398	8.29
465.602	8.36
465.807	8.26
466.011	8.38
466.216	8.42
466.42	8.31
466.625	8.4
466.829	8.49
467.034	8.51
467.238	8.47
467.443	8.48
467.647	8.25
467.851	8.25
468.056	8.24
468.26	8.3
468.464	8.39
468.669	8.58
468.873	8.55
469.077	8.49
469.282	8.44
469.486	8.42
469.69	8.4
469.894	8.39
470.099	8.4
470.303	8.49
470.507	8.53
470.711	8.46
470.915	8.53
471.119	8.6
471.324	8.57
471.528	8.51
471.732	8.57
471.936	8.52
472.14	8.42
472.344	8.46
472.548	8.45
472.752	8.45
472.956	8.42
473.16	8.48
473.364	8.48
473.568	8.48
473.772	8.49
473.976	8.59
474.18	8.69
474.384	8.58
474.588	8.64
474.792	8.66
474.995	8.68
475.199	8.55
475.403	8.55
475.607	8.55
475.811	8.54
476.015	8.49
476.218	8.45
476.422	8.45
476.626	8.39
476.83	8.27
477.033	8.33
477.237	8.45
477.441	8.5
477.644	8.64
477.848	8.72
478.052	8.66
478.255	8.63
478.459	8.56
478.663	8.47
478.866	8.51
479.07	8.51
479.273	8.55
479.477	8.6
479.681	8.65
479.884	8.57
480.088	8.55
480.291	8.6
480.495	8.64
480.698	8.54
480.901	8.59
481.105	8.66
481.308	8.54
481.512	8.57
481.715	8.55
481.919	8.55
482.122	8.55
482.325	8.63
482.529	8.62
482.732	8.77
482.935	8.72
483.138	8.65
483.342	8.62
483.545	8.68
483.748	8.65
483.952	8.7
484.155	8.82
484.358	8.8
484.561	8.7
484.764	8.65
484.967	8.65
485.171	8.6
485.374	8.63
485.577	8.61
485.78	8.57
485.983	8.64
486.186	8.58
486.389	8.58
486.592	8.59
486.795	8.61
486.998	8.51
487.201	8.63
487.404	8.65
487.607	8.72
487.81	8.69
488.013	8.76
488.216	8.67
488.419	8.67
488.622	8.66
488.825	8.77
489.028	8.71
489.231	8.84
489.433	8.86
489.636	8.8
489.839	8.76
490.042	8.81
490.245	8.67
490.447	8.66
490.65	8.74
490.853	8.73
491.056	8.62
491.258	8.59
491.461	8.56
491.664	8.58
491.866	8.57
492.069	8.76
492.272	8.78
492.474	8.78
492.677	8.7
492.879	8.72
493.082	8.68
493.285	8.78
493.487	8.81
493.69	8.91
493.892	8.93
494.095	8.91
494.297	8.91
494.5	8.97
494.702	8.92
494.905	8.98
495.107	8.97
495.309	9.05
495.512	8.98
495.714	9.06
495.917	9
496.119	9.01
496.321	8.98
496.524	9.13
496.726	9.07
496.928	9.13
497.13	9.17
497.333	9.14
497.535	9.04
497.737	9.1
497.939	9.12
498.142	9.21
498.344	9.27
498.546	9.31
498.748	9.37
498.95	9.4
499.152	9.31
499.355	9.38
499.557	9.5
499.759	9.51
499.961	9.51
500.163	9.55
500.365	9.5
500.567	9.44
500.769	9.43
500.971	9.46
501.173	9.51
501.375	9.47
501.577	9.4
501.779	9.43
501.981	9.45
502.183	9.41
502.385	9.44
502.587	9.38
502.788	9.32
502.99	9.29
503.192	9.29
503.394	9.3
503.596	9.43
503.798	9.44
503.999	9.49
504.201	9.57
504.403	9.56
504.605	9.57
504.806	9.58
505.008	9.53
505.21	9.54
505.411	9.55
505.613	9.47
505.815	9.53
506.016	9.53
506.218	9.5
506.42	9.48
506.621	9.56
506.823	9.44
507.024	9.44
507.226	9.38
507.427	9.39
507.629	9.36
507.83	9.37
508.032	9.39
508.233	9.4
508.435	9.34
508.636	9.42
508.838	9.47
509.039	9.42
509.24	9.41
509.442	9.45
509.643	9.31
509.845	9.33
510.046	9.35
510.247	9.37
510.448	9.4
510.65	9.43
510.851	9.24
511.052	9.2
511.254	9.11
511.455	9.08
511.656	9.01
511.857	9.06
512.058	9.02
512.26	9.04
512.461	9.04
512.662	9.03
512.863	9.07
513.064	9.04
513.265	9.02
513.466	8.97
513.667	8.98
513.868	8.92
514.069	8.92
514.27	8.91
514.471	8.93
514.672	8.85
514.873	8.82
515.074	8.79
515.275	8.76
515.476	8.74
515.677	8.79
515.878	8.87
516.079	8.8
516.28	8.83
516.481	8.85
516.682	8.8
516.882	8.78
517.083	8.84
517.284	8.75
517.485	8.65
517.686	8.69
517.886	8.74
518.087	8.74
518.288	8.73
518.488	8.74
518.689	8.74
518.89	8.66
519.091	8.7
519.291	8.73
519.492	8.78
519.692	8.75
519.893	8.75
520.094	8.65
520.294	8.6
520.495	8.58
520.695	8.61
520.896	8.58
521.096	8.63
521.297	8.69
521.497	8.67
521.698	8.63
521.898	8.64
522.099	8.63
522.299	8.54
522.499	8.55
522.7	8.59
522.9	8.55
523.101	8.5
523.301	8.64
523.501	8.63
523.702	8.59
523.902	8.67
524.102	8.7
524.302	8.67
524.503	8.64
524.703	8.63
524.903	8.53
525.103	8.52
525.304	8.55
525.504	8.58
525.704	8.57
525.904	8.65
526.104	8.62
526.304	8.59
526.504	8.55
526.705	8.56
526.905	8.5
527.105	8.5
527.305	8.48
527.505	8.47
527.705	8.49
527.905	8.52
528.105	8.49
528.305	8.46
528.505	8.45
528.705	8.38
528.905	8.38
529.105	8.39
529.304	8.39
529.504	8.45
529.704	8.54
529.904	8.53
530.104	8.51
530.304	8.56
530.503	8.54
530.703	8.48
530.903	8.46
531.103	8.47
531.303	8.48
531.502	8.51
531.702	8.53
531.902	8.5
532.101	8.51
532.301	8.49
532.501	8.46
532.7	8.49
532.9	8.51
533.1	8.57
533.299	8.55
533.499	8.55
533.698	8.52
533.898	8.62
534.097	8.53
534.297	8.54
534.496	8.5
534.696	8.54
534.895	8.41
535.095	8.46
535.294	8.45
535.494	8.47
535.693	8.38
535.892	8.51
536.092	8.5
536.291	8.54
536.491	8.5
536.69	8.52
536.889	8.44
537.088	8.42
537.288	8.39
537.487	8.4
537.686	8.43
537.886	8.48
538.085	8.52
538.284	8.53
538.483	8.6
538.682	8.65
538.882	8.62
539.081	8.68
539.28	8.68
539.479	8.63
539.678	8.6
539.877	8.63
540.076	8.61
540.275	8.62
540.474	8.67
540.673	8.73
540.872	8.67
541.071	8.62
541.27	8.66
541.469	8.72
541.668	8.7
541.867	8.76
542.066	8.8
542.265	8.82
542.464	8.78
542.663	8.83
542.862	8.95
543.06	9.01
543.259	9.06
543.458	9.08
543.657	9.13
543.856	9.11
544.054	9.11
544.253	9.1
544.452	9.12
544.651	9.05
544.849	8.99
545.048	8.99
545.247	8.96
545.445	8.96
545.644	8.99
545.843	9.01
546.041	9
546.24	9.05
546.438	9.05
546.637	9.02
546.836	9.08
547.034	9.08
547.233	9.12
547.431	9.15
547.63	9.19
547.828	9.18
548.027	9.19
548.225	9.21
548.423	9.17
548.622	9.19
548.82	9.23
549.019	9.25
549.217	9.23
549.415	9.27
549.614	9.37
549.812	9.32
550.01	9.38
550.209	9.48
550.407	9.54
550.605	9.52
550.803	9.52
551.002	9.58
551.2	9.53
551.398	9.56
551.596	9.58
551.794	9.72
551.993	9.72
552.191	9.76
552.389	9.8
552.587	9.76
552.785	9.78
552.983	9.79
553.181	9.88
553.379	9.94
553.577	10.01
553.775	10.07
553.973	10.11
554.171	10.09
554.369	10.09
554.567	10.14
554.765	10.08
554.963	10.07
555.161	10.09
555.359	10.13
555.557	10.17
555.755	10.28
555.952	10.38
556.15	10.43
556.348	10.42
556.546	10.47
556.744	10.52
556.941	10.58
557.139	10.62
557.337	10.76
557.535	10.81
557.732	10.8
557.93	10.79
558.128	10.82
558.325	10.74
558.523	10.76
558.721	10.91
558.918	10.94
559.116	11.01
559.313	11.1
559.511	11.17
559.708	11.05
559.906	11.12
560.104	11.14
560.301	11.18
560.498	11.18
560.696	11.31
560.893	11.32
561.091	11.48
561.288	11.58
561.486	11.64
561.683	11.62
561.88	11.66
562.078	11.69
562.275	11.7
562.473	11.73
562.67	11.83
562.867	11.87
563.064	11.86
563.262	11.9
563.459	11.93
563.656	12
563.853	12.04
564.051	11.97
564.248	12.02
564.445	12.08
564.642	12.07
564.839	12.15
565.036	12.28
565.234	12.3
565.431	12.24
565.628	12.23
565.825	12.24
566.022	12.2
566.219	12.22
566.416	12.33
566.613	12.46
566.81	12.5
567.007	12.54
567.204	12.57
567.401	12.61
567.598	12.64
567.795	12.61
567.991	12.66
568.188	12.71
568.385	12.66
568.582	12.67
568.779	12.71
568.976	12.74
569.172	12.77
569.369	12.89
569.566	12.85
569.763	12.82
569.96	12.85
570.156	12.75
570.353	12.64
570.55	12.71
570.746	12.77
570.943	12.75
571.14	12.76
571.336	12.8
571.533	12.73
571.729	12.7
571.926	12.71
572.123	12.73
572.319	12.81
572.516	12.83
572.712	12.86
572.909	12.84
573.105	12.84
573.302	12.8
573.498	12.79
573.695	12.85
573.891	12.8
574.087	12.77
574.284	12.82
574.48	12.91
574.677	12.78
574.873	12.78
575.069	12.82
575.266	12.7
575.462	12.59
575.658	12.67
575.854	12.78
576.051	12.77
576.247	12.91
576.443	12.99
576.639	13
576.835	12.91
577.032	12.87
577.228	12.87
577.424	12.79
577.62	12.73
577.816	12.73
578.012	12.8
578.208	12.72
578.404	12.7
578.6	12.7
578.796	12.69
578.993	12.61
579.189	12.62
579.384	12.61
579.58	12.5
579.776	12.5
579.972	12.5
580.168	12.39
580.364	12.28
580.56	12.34
580.756	12.24
580.952	12.16
581.148	12.19
581.343	12.28
581.539	12.21
581.735	12.3
581.931	12.37
582.127	12.38
582.322	12.28
582.518	12.3
582.714	12.23
582.909	12.14
583.105	12.16
583.301	12.2
583.496	12.2
583.692	12.17
583.888	12.25
584.083	12.2
584.279	12.2
584.474	12.09
584.67	12
584.866	11.98
585.061	11.95
585.257	11.97
585.452	12.01
585.648	12.07
585.843	12.04
586.039	12.07
586.234	11.99
586.429	11.91
586.625	11.81
586.82	11.79
587.015	11.72
587.211	11.7
587.406	11.72
587.601	11.77
587.797	11.72
587.992	11.7
588.187	11.7
588.383	11.71
588.578	11.73
588.773	11.68
588.968	11.65
589.163	11.7
589.359	11.68
589.554	11.71
589.749	11.82
589.944	11.89
590.139	11.83
590.334	11.87
590.529	11.89
590.724	11.86
590.919	11.79
591.114	11.82
591.309	11.69
591.504	11.74
591.699	11.7
591.894	11.8
592.089	11.82
592.284	11.92
592.479	11.83
592.674	11.88
592.869	11.81
593.064	11.83
593.259	11.85
593.454	11.82
593.648	11.81
593.843	11.89
594.038	11.94
594.233	11.98
594.428	12.05
594.622	12.07
594.817	12.06
595.012	12.06
595.206	12.05
595.401	12.1
595.596	12.14
595.79	12.16
595.985	12.18
596.18	12.22
596.374	12.21
596.569	12.26
596.763	12.3
596.958	12.31
597.153	12.33
597.347	12.43
597.542	12.4
597.736	12.4
597.931	12.35
598.125	12.41
598.319	12.39
598.514	12.46
598.708	12.46
598.903	12.61
599.097	12.59
599.291	12.61
599.486	12.61
599.68	12.6
599.874	12.57
600.069	12.71
600.263	12.67
600.457	12.63
600.651	12.69
600.846	12.63
601.04	12.61
601.234	12.62
601.428	12.74
601.622	12.77
601.817	12.78
602.011	12.7
602.205	12.71
602.399	12.65
602.593	12.64
602.787	12.72
602.981	12.76
603.175	12.86
603.369	12.84
603.563	12.74
603.757	12.71
603.951	12.65
604.145	12.55
604.339	12.56
604.533	12.62
604.727	12.53
604.921	12.52
605.115	12.59
605.309	12.51
605.502	12.49
605.696	12.53
605.89	12.55
606.084	12.47
606.278	12.46
606.471	12.45
606.665	12.4
606.859	12.39
607.053	12.43
607.246	12.46
607.44	12.38
607.634	12.4
607.827	12.34
608.021	12.23
608.214	12.11
608.408	12.11
608.602	12.07
608.795	12.07
608.989	12.03
609.182	12.06
609.376	12.15
609.569	12.14
609.763	12.07
609.956	11.99
610.15	11.9
610.343	11.76
610.537	11.69
610.73	11.63
610.923	11.68
611.117	11.73
611.31	11.65
611.504	11.61
611.697	11.63
611.89	11.58
612.083	11.48
612.277	11.48
612.47	11.5
612.663	11.5
612.856	11.39
613.05	11.42
613.243	11.35
613.436	11.21
613.629	11.1
613.822	11.14
614.015	11.08
614.209	11.02
614.402	11.02
614.595	11.01
614.788	10.91
614.981	10.86
615.174	10.82
615.367	10.81
615.56	10.74
615.753	10.81
615.946	10.77
616.139	10.74
616.332	10.71
616.525	10.64
616.718	10.55
616.911	10.53
617.103	10.57
617.296	10.57
617.489	10.6
617.682	10.66
617.875	10.61
618.067	10.54
618.26	10.46
618.453	10.41
618.646	10.3
618.838	10.29
619.031	10.27
619.224	10.26
619.417	10.26
619.609	10.22
619.802	10.21
619.994	10.21
620.187	10.17
620.38	10.1
620.572	10.14
620.765	10.15
620.957	10.09
621.15	10.04
621.342	10
621.535	9.99
621.727	9.91
621.92	9.88
622.112	9.9
622.305	9.94
622.497	9.89
622.69	9.84
622.882	9.93
623.074	9.98
623.267	9.99
623.459	9.93
623.651	9.96
623.844	9.9
624.036	9.81
624.228	9.82
624.42	9.84
624.613	9.9
624.805	9.92
624.997	9.89
625.189	9.87
625.381	9.91
625.574	9.87
625.766	9.88
625.958	9.89
626.15	9.83
626.342	9.77
626.534	9.75
626.726	9.74
626.918	9.72
627.11	9.73
627.302	9.72
627.494	9.67
627.686	9.63
627.878	9.6
628.07	9.6
628.262	9.61
628.454	9.54
628.646	9.47
628.838	9.54
629.029	9.48
629.221	9.35
629.413	9.43
629.605	9.41
629.797	9.37
629.989	9.52
630.18	9.58
630.372	9.5
630.564	9.55
630.755	9.51
630.947	9.34
631.139	9.31
631.33	9.38
631.522	9.36
631.714	9.34
631.905	9.35
632.097	9.33
632.289	9.31
632.48	9.28
632.672	9.23
632.863	9.23
633.055	9.17
633.246	9.11
633.438	9.08
633.629	9.08
633.821	9.03
634.012	8.98
634.203	9
634.395	9.04
634.586	9.15
634.777	9.14
634.969	9.2
635.16	9.23
635.351	9.16
635.543	9.08
635.734	9.09
635.925	9.11
636.117	9
636.308	9.05
636.499	9.02
636.69	9.01
636.881	9.02
637.073	9.05
637.264	9.02
637.455	9.02
637.646	9
637.837	8.98
638.028	9.02
638.219	9.02
638.41	8.98
638.601	8.94
638.792	8.95
638.983	8.93
639.174	8.92
639.365	8.85
639.556	8.8
639.747	8.79
639.938	8.79
640.129	8.8
640.32	8.88
640.511	8.94
640.701	8.86
640.892	8.75
641.083	8.7
641.274	8.63
641.465	8.68
641.655	8.67
641.846	8.72
642.037	8.71
642.228	8.69
642.418	8.61
642.609	8.64
642.8	8.61
642.99	8.55
643.181	8.57
643.372	8.53
643.562	8.49
643.753	8.51
643.943	8.62
644.134	8.59
644.324	8.6
644.515	8.59
644.705	8.49
644.896	8.4
645.086	8.45
645.277	8.57
645.467	8.59
645.658	8.61
645.848	8.64
646.038	8.56
646.229	8.44
646.419	8.44
646.61	8.47
646.8	8.51
646.99	8.53
647.18	8.54
647.371	8.45
647.561	8.45
647.751	8.34
647.941	8.3
648.132	8.33
648.322	8.42
648.512	8.47
648.702	8.53
648.892	8.52
649.082	8.51
649.272	8.48
649.462	8.4
649.653	8.41
649.843	8.45
650.033	8.52
650.223	8.46
650.413	8.39
650.603	8.44
650.793	8.45
650.983	8.33
651.172	8.34
651.362	8.35
651.552	8.28
651.742	8.26
651.932	8.15
652.122	8.16
652.312	8.19
652.502	8.08
652.691	8.04
652.881	8.09
653.071	8.03
653.261	8.05
653.45	8.1
653.64	7.98
653.83	7.9
654.019	7.95
654.209	7.88
654.399	7.83
654.588	7.87
654.778	7.88
654.968	7.82
655.157	7.74
655.347	7.64
655.536	7.57
655.726	7.58
655.915	7.5
656.105	7.44
656.294	7.45
656.484	7.48
656.673	7.45
656.863	7.44
657.052	7.5
657.241	7.5
657.431	7.41
657.62	7.39
657.809	7.37
657.999	7.34
658.188	7.33
658.377	7.31
658.567	7.33
658.756	7.23
658.945	7.14
659.134	7.04
659.324	7.03
659.513	6.98
659.702	6.92
659.891	6.86
660.08	6.9
660.269	6.88
660.458	6.82
660.648	6.92
660.837	6.95
661.026	6.85
661.215	6.88
661.404	6.84
661.593	6.68
661.782	6.67
661.971	6.62
662.16	6.54
662.349	6.42
662.538	6.52
662.726	6.48
662.915	6.58
663.104	6.6
663.293	6.68
663.482	6.73
663.671	6.81
663.86	6.69
664.048	6.69
664.237	6.73
664.426	6.69
664.615	6.62
664.803	6.71
664.992	6.68
665.181	6.63
665.369	6.53
665.558	6.46
665.747	6.37
665.935	6.4
666.124	6.43
666.312	6.48
666.501	6.63
666.69	6.68
666.878	6.53
667.067	6.51
667.255	6.6
667.444	6.7
667.632	6.83
667.82	7.09
668.009	7.09
668.197	7.02
668.386	6.85
668.574	6.85
668.762	6.73
668.951	6.86
669.139	6.95
669.327	6.96
669.516	6.89
669.704	6.86
669.892	6.81
670.08	6.82
670.269	6.83
670.457	6.93
670.645	7.02
670.833	7.03
671.021	7.06
671.21	7.06
671.398	7.03
671.586	6.97
671.774	6.98
671.962	7.01
672.15	7.05
672.338	7.07
672.526	7.16
672.714	7.19
672.902	7.1
673.09	7.22
673.278	7.26
673.466	7.51
673.654	7.78
673.842	7.86
674.03	7.89
674.218	8.07
674.405	8.04
674.593	7.98
674.781	8.09
674.969	8.09
675.157	7.98
675.344	7.96
675.532	7.87
675.72	7.79
675.908	7.96
676.095	7.92
676.283	7.99
676.471	8.17
676.658	8.32
676.846	8.43
677.033	8.53
677.221	8.59
677.409	8.5
677.596	8.53
677.784	8.39
677.971	8.47
678.159	8.29
678.346	8.26
678.534	8.24
678.721	8.34
678.909	8.34
679.096	8.56
679.283	8.74
679.471	8.67
679.658	8.78
679.846	8.72
680.033	8.75
680.22	8.62
680.408	8.67
680.595	8.65
680.782	8.78
680.969	8.68
681.157	8.84
681.344	8.86
681.531	8.79
681.718	8.95
681.905	9
682.093	9.08
682.28	9.15
682.467	9.28
682.654	9.28
682.841	9.38
683.028	9.24
683.215	9.39
683.402	9.3
683.589	9.22
683.776	9.27
683.963	9.25
684.15	9.15
684.337	9.24
684.524	9.21
684.711	9.23
684.898	9.44
685.085	9.48
685.271	9.43
685.458	9.55
685.645	9.54
685.832	9.54
686.019	9.67
686.205	9.76
686.392	9.86
686.579	9.96
686.766	9.99
686.952	9.95
687.139	10.16
687.326	10.2
687.512	10.31
687.699	10.4
687.886	10.57
688.072	10.62
688.259	10.65
688.445	10.65
688.632	11
688.818	11.23
689.005	11.28
689.191	11.47
689.378	11.56
689.564	11.5
689.751	11.62
689.937	11.83
690.124	12
690.31	12.13
690.496	12.33
690.683	12.45
690.869	12.62
691.055	12.9
691.242	13.29
691.428	13.47
691.614	13.65
691.8	14
691.987	14.19
692.173	14.4
692.359	14.74
692.545	15.06
692.731	15.25
692.918	15.39
693.104	15.72
693.29	15.86
693.476	16.15
693.662	16.63
693.848	17.14
694.034	17.45
694.22	18
694.406	18.5
694.592	18.66
694.778	18.95
694.964	19.26
695.15	19.6
695.336	19.79
695.522	20.28
695.708	20.7
695.894	21.09
696.08	21.47
696.265	21.99
696.451	22.28
696.637	22.49
696.823	22.88
697.009	23.19
697.194	23.37
697.38	23.73
697.566	24.48
697.751	24.93
697.937	25.21
698.123	25.84
698.308	26.43
698.494	26.77
698.68	27.34
698.865	28.13
699.051	28.55
699.236	28.97
699.422	29.47
699.607	29.88
699.793	30.27
699.978	30.68
700.164	31
700.349	31.45
700.535	31.82
700.72	32.2
700.906	32.74
701.091	33.23
701.276	33.51
701.462	34.15
701.647	34.75
701.832	35.57
702.018	36.28
702.203	36.77
702.388	37.27
702.573	37.35
702.759	37.33
702.944	37.46
703.129	37.96
703.314	38.33
703.499	39.02
703.684	39.38
703.87	39.99
704.055	40.3
704.24	40.57
704.425	41.23
704.61	41.64
704.795	41.99
704.98	42.53
705.165	42.71
705.35	42.72
705.535	43.27
705.72	43.48
705.905	43.9
706.09	44.38
706.275	44.99
706.459	45.41
706.644	45.98
706.829	46.06
707.014	46.84
707.199	47.17
707.384	47.42
707.568	47.71
707.753	48.45
707.938	48.73
708.123	49.16
708.307	49.53
708.492	49.65
708.677	50.07
708.861	49.99
709.046	50.01
709.231	50.6
709.415	50.92
709.6	50.72
709.784	51.01
709.969	51.44
710.153	51.69
710.338	52.16
710.522	52.81
710.707	53.46
710.891	53.85
711.076	53.84
711.26	54.04
711.445	53.88
711.629	53.97
711.813	54.46
711.998	54.29
712.182	54.56
712.366	54.81
712.551	55.14
712.735	54.92
712.919	55.53
713.103	55.73
713.288	55.83
713.472	55.9
713.656	56.2
713.84	56.48
714.024	56.29
714.208	56.8
714.393	57.17
714.577	57.66
714.761	57.88
714.945	58.41
715.129	58.5
715.313	58.8
715.497	58.52
715.681	58.86
715.865	59.17
716.049	59.29
716.233	59.53
716.417	60.25
716.601	60.34
716.785	60.75
716.968	61.12
717.152	61.07
717.336	61.4
717.52	61.51
717.704	61.68
717.888	61.77
718.071	61.72
718.255	61.44
718.439	60.96
718.622	60.66
718.806	61.14
718.99	61.51
719.174	61.58
719.357	62.36
719.541	62.76
719.724	62.39
719.908	62.49
720.092	62.88
720.275	63.29
720.459	63.66
720.642	64.47
720.826	64.84
721.009	65.14
721.193	65.58
721.376	65.78
721.559	66.21
721.743	66.85
721.926	67.07
722.11	66.82
722.293	66.4
722.476	65.93
722.66	65.6
722.843	65.18
723.026	65.45
723.21	66.37
723.393	66.23
723.576	66.59
723.759	67.09
723.942	67.55
724.126	67.16
724.309	68.13
724.492	67.54
724.675	67.85
724.858	67.92
725.041	68.43
725.224	68.5
725.407	68.8
725.59	69.01
725.774	68.69
725.957	69.04
726.14	69.15
726.322	69.32
726.505	69.31
726.688	69.28
726.871	70.14
727.054	70.2
727.237	70.93
727.42	71.37
727.603	71.89
727.786	70.9
727.968	70.83
728.151	70.83
728.334	71.27
728.517	71.59
728.699	72.36
728.882	72.76
729.065	73.17
729.248	73.24
729.43	73.31
729.613	73.48
729.796	73.36
729.978	73.92
730.161	73.91
730.343	74.44
730.526	74.75
730.708	75.75
730.891	75.23
731.073	75.15
731.256	74.99
731.438	74.91
731.621	75.43
731.803	76.56
731.986	77.21
732.168	77.44
732.35	77.83
732.533	77.7
732.715	77.24
732.898	76.48
733.08	76.8
733.262	77.22
733.444	76.73
733.627	77.22
733.809	77.34
733.991	77.75
734.173	77.79
734.355	78.29
734.538	78.6
734.72	78.99
734.902	78.74
735.084	78.29
735.266	78.31
735.448	78.13
735.63	78.82
735.812	79.77
735.994	80.89
736.176	81.68
736.358	81.07
736.54	81.24
736.722	80.82
736.904	80.74
737.086	80.71
737.268	82.21
737.45	82.97
737.632	82.8
737.814	82.98
737.995	82.82
738.177	82.32
738.359	81.46
738.541	83.39
738.723	83.92
738.904	83.91
739.086	83.54
739.268	84.48
739.449	82.89
739.631	82.07
739.813	82.08
739.994	82.92
740.176	82.27
740.358	83.83
740.539	84.48
740.721	84.75
740.902	84.81
741.084	85.98
741.265	84.38
741.447	84.26
741.628	85.53
741.81	85.02
741.991	84.87
742.172	85.89
742.354	86.46
742.535	86
742.717	86.56
742.898	86.6
743.079	87.19
743.261	87.49
743.442	87.17
743.623	88.21
743.804	88.19
743.986	88.22
744.167	87.71
744.348	88.58
744.529	88.2
744.71	88.34
744.891	88.04
745.073	88.57
745.254	87.93
745.435	88.16
745.616	88.06
745.797	87.47
745.978	87.22
746.159	87.87
746.34	87.24
746.521	88.18
746.702	88.51
746.883	88.27
747.064	87.6
747.245	88.02
747.426	86.4
747.606	86.24
747.787	87.25
747.968	88.83
748.149	89.09
748.33	90.37
748.51	91.39
748.691	90.01
748.872	88.81
749.053	88.12
749.233	88.57
749.414	87.63
749.595	90.52
749.775	90.57
749.956	92.27
750.137	92.41
750.317	93.11
750.498	89.8
750.678	89.29
750.859	87.43
751.04	86.92
751.22	86.54
751.4	88.39
751.581	89.39
751.761	89.72
751.942	90.25
752.122	89.93
752.303	87.35
752.483	87.64
752.663	88.54
752.844	89
753.024	89.7
753.204	91.06
753.385	89.78
753.565	90.63
753.745	89.93
753.925	90.27
754.106	91.12
754.286	92.44
754.466	92.15
754.646	93.4
754.826	93.41
755.006	93.13
755.187	91.27
755.367	91.12
755.547	91.2
755.727	91.33
755.907	90.57
756.087	91.08
756.267	88.94
756.447	88.35
756.627	87.11
756.807	86.8
756.987	87.89
757.167	88.15
757.346	87.1
757.526	87.89
757.706	89.76
757.886	89.04
758.066	90.5
758.246	91.18
758.425	90.15
758.605	89.63
758.785	91.27
758.965	91.61
759.144	92.23
759.324	92.76
759.504	93.66
759.683	92.75
759.863	92.59
760.043	91.85
760.222	91.01
760.402	89.07
760.581	89.73
760.761	89.53
760.94	89.84
761.12	93.93
761.299	94.67
761.479	94.07
761.658	93.28
761.838	91.98
762.017	89.94
762.197	90
762.376	89.94
762.555	89.78
762.735	90.29
762.914	92.07
763.093	94.18
763.273	93.76
763.452	94.16
763.631	95.69
763.81	93.61
763.99	91.53
764.169	90.88
764.348	91.29
764.527	89.9
764.706	88.43
764.885	88.95
765.064	90.14
765.243	90.56
765.423	90.09
765.602	92.95
765.781	94.68
765.96	92.6
766.139	92.91
766.318	93.33
766.497	91.34
766.676	88.95
766.854	92.27
767.033	91.47
767.212	91.96
767.391	92.74
767.57	94.51
767.749	93.94
767.928	93
768.106	91.22
768.285	88.53
768.464	85.76
768.643	83.82
768.821	83.36
769	85.83
769.179	86.82
769.357	87.16
769.536	88.48
769.715	90.2
769.893	88.44
770.072	88.65
770.25	90.02
770.429	90.47
770.607	90.54
770.786	90.52
770.964	91.77
771.143	91.78
771.321	91.2
771.5	89.96
771.678	90.79
771.857	92.89
772.035	89.97
772.213	90.55
772.392	89.22
772.57	89.29
772.748	84.58
772.927	87.32
773.105	87.26
773.283	89.07
773.461	89.28
773.64	91.41
773.818	90.61
773.996	88.88
774.174	89.09
774.352	88.65
774.531	87.5
774.709	88.3
774.887	88.93
775.065	89
775.243	87.62
775.421	87.89
775.599	86.85
775.777	86
775.955	85.35
776.133	84.72
776.311	85.61
776.489	85.34
776.667	84.93
776.844	87
777.022	88.16
777.2	89.24
777.378	89.33
777.556	90.91
777.734	89.41
777.911	90.77
778.089	88.73
778.267	89
778.445	87.5
778.622	86.25
778.8	86.71
778.978	89.8
779.155	88.7
779.333	88.01
779.511	87.9
779.688	86.4
779.866	83.34
780.043	82.55
780.221	82.55
780.398	84.03
780.576	86.6
780.753	86.34
780.931	89.8
781.108	91.15
781.286	90.28
781.463	87.72
781.64	89.33
781.818	87.74
781.995	86.17
782.172	85.69
782.35	85.47
782.527	84.1
782.704	85.81
782.882	87.52
783.059	85.69
783.236	82.09
783.413	81.18
783.59	81.14
783.768	78.7
783.945	79.28
784.122	84.63
784.299	84.26
784.476	80.86
784.653	84.8
784.83	89.84
785.007	84.99
785.184	86.5
785.361	86.06
785.538	84.47
785.715	81.9
785.892	87.6
786.069	87.47
786.246	90.76
786.423	92.63
786.6	90.61
786.776	89.26
786.953	87.19
787.13	89.22
787.307	87.7
787.484	89.91
787.66	89.3
787.837	95.54
788.014	96.87
788.191	95.84
788.367	98.05
788.544	95.55
788.721	91.57
788.897	86.65
789.074	85.1
789.25	78.35
789.427	79.34
789.603	79.12
789.78	80.46
789.956	89.49
790.133	92.03
790.309	90.07
790.486	90.06
790.662	87.96
790.839	74.1
791.015	75.02
791.192	79.26
791.368	80.29
791.544	78.05
791.721	84.24
791.897	82.33
792.073	80.14
792.249	78.34
792.426	80.75
792.602	82.41
792.778	84.05
792.954	82.75
793.13	82.52
793.307	81.02
793.483	76.36
793.659	76.45
793.835	72.71
794.011	73.6
794.187	75.58
794.363	78.44
794.539	78.74
794.715	84.47
794.891	86.42
795.067	84.91
795.243	86.58
795.419	86.61
795.595	85.11
795.771	83.49
795.947	82.16
796.122	80.11
796.298	80.87
796.474	80.39
796.65	77.46
796.826	80.24
797.001	79.09
797.177	80.26
797.353	80.01
797.529	84.79
797.704	86.27
797.88	84.91
798.056	84.47
798.231	86.43
798.407	88.36
798.582	86.05
798.758	92.17
798.934	91.86
799.109	90.73
799.285	87.82
799.46	83.22
799.636	82.56
799.811	76.93
799.986	73.62
800.162	77.05
800.337	82.79
800.513	84.36
800.688	86.69
800.863	87.05
801.039	81.79
801.214	82.28
801.389	78.75
801.565	79.15
801.74	82.45
801.915	84.39
802.09	81.86
802.265	83.94
802.441	84.05
802.616	80.06
802.791	75.62
802.966	76.57
803.141	74.39
803.316	72.7
803.491	77.71
803.666	82.3
803.841	75.83
804.016	80.62
804.191	80.08
804.366	77.62
804.541	73.66
804.716	82.38
804.891	72.27
805.066	77.13
805.241	68.96
805.416	63.61
805.591	62.36
805.765	64.11
805.94	62.59
806.115	73.95
806.29	80.57
806.464	77.61
806.639	76.93
806.814	70.01
806.989	59.5
807.163	56.62
807.338	54.7
807.512	53.58
807.687	60.54
807.862	65.74
808.036	68.67
808.211	63.79
808.385	57.13
808.56	53.36
808.734	50.4
808.909	54.1
809.083	60.26
809.258	63.6
809.432	66.79
809.606	72.04
809.781	69.89
809.955	69.32
810.13	82.86
810.304	78.13
810.478	76.04
810.652	82.45
810.827	85.65
811.001	81.19
811.175	91.68
811.349	93.85
811.524	82.62
811.698	82.68
811.872	84.61
812.046	77.88
812.22	82.05
812.394	78.79
812.568	69.26
812.742	70.07
812.916	75.72
813.09	72.17
813.264	87.12
813.438	96.73
813.612	94.66
813.786	89.44
813.96	78.31
814.134	69.85
814.308	60.23
814.482	58.48
814.656	67.49
814.83	82.64
815.003	92.61
815.177	95.03
815.351	102.75
815.525	82.48
815.698	67.5
815.872	59.69
816.046	64.7
816.219	49.28
816.393	49.48
816.567	78.23
816.74	72.84
816.914	62.79
817.088	74.61
817.261	73.64
817.435	66.99
817.608	69.1
817.782	72.13
817.955	75.39
818.129	77.66
818.302	73.4
818.475	76.22
818.649	77.73
818.822	74.1
818.996	77.31
819.169	76.08
819.342	73.44
819.516	69.55
819.689	72.52
819.862	65.66
820.035	65.46
820.209	66.99
820.382	65.11
820.555	60.64
820.728	74.26
820.901	83.42
821.075	78.61
821.248	77.01
821.421	72.92
821.594	71.9
821.767	68.47
821.94	61.92
822.113	62.29
822.286	66.54
822.459	65.99
822.632	72.02
822.805	85.41
822.978	91.56
823.151	97.42
823.324	84.21
823.496	69.5
823.669	68.2
823.842	59.3
824.015	64.59
824.188	69.53
824.361	67.18
824.533	65.65
824.706	65.63
824.879	49.63
825.051	53.03
825.224	55.42
825.397	49.85
825.569	54.96
825.742	54.28
825.915	49.12
826.087	47.62
826.26	43.41
826.432	51.71
826.605	66.64
826.777	61.36
826.95	72.33
827.122	84.39
827.295	82.39
827.467	72.74
827.64	75.99
827.812	62.77
827.984	72.75
828.157	49.33
828.329	57.24
828.501	58.57
828.674	70.51
828.846	58.09
829.018	77.89
829.19	72.95
829.363	73.25
829.535	59.85
829.707	58.28
829.879	53.3
830.051	57.02
830.223	54.43
830.395	60.52
830.568	58.01
830.74	60.37
830.912	56.84
831.084	69.86
831.256	56.24
831.428	74.06
831.6	64.03
831.772	54.28
831.943	44.14
832.115	28.37
832.287	24.3
832.459	32.86
832.631	34.87
832.803	38.47
832.975	69.43
833.146	88.67
833.318	77.57
833.49	85.81
833.662	81.16
833.833	67.88
834.005	55.33
834.177	65.04
834.348	63.22
834.52	58.63
834.692	59.34
834.863	54.99
835.035	57.71
835.206	26.39
835.378	37.02
835.549	50.22
835.721	50.56
835.892	54.83
836.064	74.29
836.235	82.66
836.407	82.93
836.578	109.4
836.749	99.91
836.921	84.28
837.092	68.15
837.264	49.97
837.435	38.82
837.606	49.3
837.777	52.09
837.949	58.06
838.12	62.63
838.291	52.63
838.462	53.27
838.633	55.97
838.805	44.39
838.976	50.17
839.147	52.74
839.318	60.08
839.489	71.53
839.66	68.64
839.831	62.4
840.002	65.59
840.173	47.89
840.344	14.99
840.515	5.64
840.686	19.58
840.857	9.21
841.028	27.98
841.199	54.02
841.369	68.93
841.54	70.89
841.711	51.38
841.882	20.09
842.053	26.07
842.223	19.02
842.394	23.56
842.565	26.44
842.736	57.52
842.906	68.17
843.077	70.8
843.248	62.4
843.418	71.61
843.589	52.27
843.759	55.62
843.93	55.1
844.101	57.33
844.271	69.04
844.442	59.11
844.612	45.94
844.783	54.21
844.953	52.71
845.123	62.39
845.294	84.48
845.464	97.34
845.635	64.1
845.805	66.06
845.975	58.41
846.146	44.85
846.316	51.98
846.486	63.21
846.656	60.79
846.827	61.18
846.997	69.42
847.167	44.48
847.337	23.66
847.507	12.64
847.677	-4.77
847.848	-25.02
848.018	16.2
848.188	15.01
848.358	30.82
848.528	33.74
848.698	37.84
848.868	23.19
849.038	35.71
849.208	48.66
849.378	80.56
849.548	94.97
849.718	128.69
849.887	104.75
850.057	98.06
850.227	101.64
850.397	57.22
850.567	34.85
850.737	39.14
850.906	30.74
851.076	32.61
851.246	32.16
851.415	34.41
851.585	43.3
851.755	54.47
851.924	72.5
852.094	71.46
852.264	59.06
852.433	32.78
852.603	27.6
852.772	2.2
852.942	14.09
853.111	21.73
853.281	28.06
853.45	25.86
853.62	26.93
853.789	4.55
853.959	16.03
854.128	30.27
854.297	33.41
854.467	40.19
854.636	86.52
854.805	59.56
854.975	41.21
855.144	70.98
855.313	84.21
855.482	95.51
855.652	99.25
855.821	126.31
855.99	97.6
856.159	117.2
856.328	104.64
856.497	119.19
856.667	71.74
856.836	92.85
857.005	77.23
857.174	-51.52
857.343	-128.17
857.512	-202.24
857.681	15.47
857.85	48.89
858.019	60.36
858.188	53.79
858.356	81.97
858.525	61.91
858.694	43.37
858.863	74.82
859.032	142.02
859.201	41.18
859.369	66.26
859.538	67.52
859.707	31.4
859.876	43.4
860.044	63.07
860.213	58.24
860.382	67.61
860.55	112.79
860.719	74.58
860.888	46.56
861.056	30.7
861.225	16.79
861.393	15.76
861.562	16.74
861.73	32.4
861.899	40.74
862.067	59.88
862.236	93.3
862.404	91.63
862.572	111.84
862.741	115.13
862.909	78.58
863.078	25.87
863.246	61.16
863.414	75.43
863.582	67.87
863.751	56.51
863.919	35.33
864.087	31.46
864.255	20.63
864.424	17.51
864.592	40.1
864.76	56.21
864.928	34.37
865.096	38.71
865.264	47.79
865.432	60.51
865.6	44.72
865.768	27.35
865.936	15.77
866.104	20.92
866.272	34.81
866.44	51.05
866.608	86.39
866.776	62.69
866.944	77.2
867.112	18.54
867.28	-72.76
867.448	-44.16
867.615	166.05
867.783	112.92
867.951	80.62
868.119	46.75
868.286	31.51
868.454	-3.06
868.622	-34.88
868.789	-72.49
868.957	-46.16
869.125	-64.88
869.292	-74.26
869.46	-64.65
869.627	-17.93
869.795	11.15
869.963	5.02
870.13	16.28
870.298	32.21
870.465	19.04
870.632	43.33
870.8	50.11
870.967	42.83
871.135	37.97
871.302	56.86
871.469	342.48
871.637	6.19
871.804	74.96
871.971	44.91
872.139	52.22
872.306	41.15
872.473	32.86
872.64	15.81
872.807	50.87
872.975	46.84
873.142	121.35
873.309	1639.13
873.476	875.54
873.643	274.19
873.81	150.95
873.977	97.78
874.144	115.14
874.311	66.69
874.478	5.14
874.645	32.76
874.812	40.87
874.979	5.03
875.146	-2.3
875.313	-2.69
875.48	-279.68
875.647	307.08
875.813	-201.33
875.98	1815.15
876.147	-293.01
876.314	-60.42
876.481	-166.5
876.647	-53.88
876.814	44.27
876.981	62.62
877.147	81.47
877.314	103.22
877.481	115.57
877.647	55.05
877.814	58.07
877.98	38.2
878.147	24.44
878.314	-66.01
878.48	40.97
878.647	40.82
878.813	430.23
878.979	108.98
879.146	116.12
879.312	53.42
879.479	72.51
879.645	63.65
879.811	48.71
879.978	60.5
880.144	77.42
880.31	80.06
880.477	72.79
880.643	95.77
880.809	169.43
880.975	6554.55
881.142	-114.16
881.308	-1588
881.474	118.93
881.64	-32.33
881.806	39.51
881.972	63.9
882.138	57.02
882.304	88.78
882.47	86.2
882.636	-61.45
882.802	24.88
882.968	28.63
883.134	58.9
883.3	59.03
883.466	101.82
883.632	105.88
883.798	69.73
883.964	47.51
884.129	39.68
884.295	20.05
884.461	4.44
884.627	-11.53
884.793	-91.55
884.958	-51.11
885.124	-34.98
885.29	-45.23
885.455	-74.93
885.621	38.56
885.787	45.27
885.952	27.12
886.118	68.42
886.283	-731.58
886.449	15.36
886.614	63.23
886.78	73.77
886.945	110.75
887.111	91.84
887.276	84.72
887.442	41.05
887.607	-29.3
887.773	-12.42
887.938	-54.89
888.103	-23.92
888.269	-7.5
888.434	-26.19
888.599	-12.1
888.764	-1.46
888.93	-62.72
889.095	23.93
889.26	133.23
889.425	419.3
889.59	-784.06
889.756	727.48
889.921	135.81
890.086	120.28
890.251	14.81
890.416	-4.84
890.581	-43.23
890.746	9.9
890.911	19.33
891.076	42.63
891.241	85.24
891.406	65.57
891.571	20.64
891.736	43.31
891.901	18.83
892.065	-26.98
892.23	76.98
892.395	76.11
892.56	30.97
892.725	79.01
892.889	108.26
893.054	45.22
893.219	-6.64
893.384	-18.7
893.548	-244.49
893.713	862.96
893.878	200.59
