Data from Ofav_PS_Phys_352_Reflection_2.txt Node
Date: Thu Jul 29 18:18:52 EDT 2021
User: USUARIO
Spectrometer: FLMT01687
Trigger mode: 0
Integration Time (sec): 9.010000E-1
Scans to average: 2
Electric dark correction enabled: true
Nonlinearity correction enabled: false
Boxcar width: 2
XAxis mode: Wavelengths
Number of Pixels in Spectrum: 3648
>>>>>Begin Spectral Data<<<<<
179.494	-42.22
179.716	-69.37
179.937	-53.04
180.158	321.47
180.38	35.33
180.601	-663.25
180.823	-221.16
181.044	-166.92
181.265	-155.42
181.486	-742.94
181.708	131.05
181.929	353.84
182.15	12480.95
182.372	-221.57
182.593	-59.37
182.814	-25.96
183.035	-141.92
183.257	81.74
183.478	38.11
183.699	46.55
183.92	58.02
184.141	67.46
184.363	56.2
184.584	46.44
184.805	41.63
185.026	39.75
185.247	40.93
185.468	57.66
185.689	53.68
185.91	113.55
186.132	126.13
186.353	61.98
186.574	64.83
186.795	63.29
187.016	55.04
187.237	30.34
187.458	17.8
187.679	38.14
187.9	50.61
188.121	33.18
188.342	56.75
188.563	69.29
188.784	47.39
189.005	46.77
189.226	57.2
189.447	53.67
189.667	44.11
189.888	35.7
190.109	33.71
190.33	-32.16
190.551	25.31
190.772	50.94
190.993	44.72
191.214	47.79
191.434	51.43
191.655	48.38
191.876	52.82
192.097	72.46
192.318	66.74
192.538	63.38
192.759	52.89
192.98	38.78
193.201	35.46
193.421	17.44
193.642	-15.47
193.863	-33.05
194.083	-71.75
194.304	-63.43
194.525	-29.26
194.745	-3.25
194.966	6.23
195.187	-4.25
195.407	0.67
195.628	-49.88
195.848	-27.69
196.069	9.05
196.29	57.44
196.51	58.2
196.731	56.35
196.951	29.25
197.172	19.63
197.392	7.77
197.613	-15.16
197.833	-20.25
198.054	-10.55
198.274	-12.02
198.495	10.14
198.715	-1.16
198.936	25.06
199.156	59.01
199.377	64.83
199.597	67.41
199.817	66.44
200.038	49.59
200.258	38.01
200.479	-15.68
200.699	-49.25
200.919	-1.05
201.14	-5.34
201.36	-5.71
201.58	15.55
201.801	22.78
202.021	38.44
202.241	56.17
202.461	76.33
202.682	85.84
202.902	99.05
203.122	49.74
203.342	37.25
203.563	15
203.783	21.68
204.003	-19.59
204.223	-16.73
204.443	2.68
204.663	7.06
204.884	10.81
205.104	20.09
205.324	19.92
205.544	36.64
205.764	37.81
205.984	56.85
206.204	63.62
206.424	69.54
206.644	48.24
206.864	45.51
207.084	9.03
207.304	13.53
207.525	-5.05
207.745	29.53
207.964	37.77
208.184	27.34
208.404	8.06
208.624	15.73
208.844	-1.02
209.064	14.53
209.284	25.2
209.504	26.64
209.724	39.13
209.944	48.13
210.164	37.2
210.384	30.64
210.604	33.3
210.823	20.58
211.043	-2.14
211.263	8.67
211.483	5.79
211.703	-0.39
211.922	-3.98
212.142	22.25
212.362	8.82
212.582	25.54
212.801	24.95
213.021	33.68
213.241	25.59
213.461	32.4
213.68	27.21
213.9	44.41
214.12	36.09
214.339	26.01
214.559	22.77
214.779	-3.37
214.998	-18.18
215.218	-43.34
215.438	-24.19
215.657	-21.96
215.877	10.07
216.096	-7.6
216.316	-11.29
216.535	-30.96
216.755	-17.99
216.974	-55.52
217.194	-34.34
217.413	-2.12
217.633	16.7
217.852	-6.92
218.072	7.44
218.291	13.2
218.511	19.44
218.73	30.47
218.95	31.6
219.169	35.51
219.389	42.42
219.608	41.29
219.827	31.68
220.047	32.98
220.266	23.76
220.485	18.28
220.705	12.34
220.924	-10.11
221.143	-22.48
221.363	-38.11
221.582	-39.28
221.801	-89.95
222.021	11.16
222.24	55.31
222.459	67.2
222.678	57.51
222.897	60.55
223.117	43.49
223.336	34.86
223.555	33.79
223.774	43.04
223.993	21.2
224.213	26.1
224.432	25
224.651	26.1
224.87	20.23
225.089	35.11
225.308	32.79
225.527	45.8
225.746	28.31
225.965	28.42
226.184	12.21
226.404	11.76
226.623	11.66
226.842	22.59
227.061	9.67
227.28	20.02
227.499	26.27
227.718	14.77
227.936	19.73
228.155	15.74
228.374	-4.31
228.593	1.95
228.812	-7.94
229.031	1.33
229.25	16.69
229.469	29.63
229.688	8.26
229.907	44.71
230.125	36.95
230.344	45.4
230.563	37.69
230.782	62.36
231.001	9.78
231.22	-12.12
231.438	-12.99
231.657	-1.49
231.876	-5.56
232.095	-11.4
232.313	2.63
232.532	-15.78
232.751	-22.82
232.969	-5.96
233.188	-6.96
233.407	-11.99
233.625	41.13
233.844	48.19
234.063	31.73
234.281	14.8
234.5	7.99
234.719	-21.72
234.937	-29.86
235.156	-28.35
235.374	31.48
235.593	46.48
235.811	64.07
236.03	41.27
236.249	39.96
236.467	30.09
236.686	34.57
236.904	13.63
237.123	26.51
237.341	13.19
237.559	15.04
237.778	3.56
237.996	29.12
238.215	43.74
238.433	58.45
238.652	52.62
238.87	48.43
239.088	34.29
239.307	11.58
239.525	8.22
239.743	12.56
239.962	23.73
240.18	29.96
240.398	39.84
240.617	32.88
240.835	33.82
241.053	17.84
241.271	14.19
241.49	6.52
241.708	17.34
241.926	-1.67
242.144	-6.35
242.363	8.81
242.581	9.94
242.799	10.91
243.017	27.19
243.235	33.59
243.453	32.54
243.672	23.75
243.89	33.17
244.108	31.78
244.326	45.38
244.544	19.64
244.762	32.02
244.98	26.9
245.198	24.64
245.416	12.59
245.634	39.38
245.852	44.81
246.07	51.23
246.288	60.51
246.506	62.63
246.724	66.59
246.942	60.86
247.16	74.4
247.378	56.71
247.596	54.96
247.814	41.12
248.032	22.93
248.25	2.83
248.468	-5.36
248.685	3.72
248.903	2.24
249.121	23.2
249.339	17.57
249.557	51.81
249.775	48.65
249.992	34.53
250.21	21.91
250.428	31.89
250.646	12.09
250.863	22.23
251.081	28.34
251.299	48.94
251.517	51.51
251.734	65.56
251.952	63.36
252.17	46.8
252.387	27.9
252.605	24.03
252.823	-9.64
253.04	2.86
253.258	15.36
253.475	26.38
253.693	44.72
253.911	52.23
254.128	68.22
254.346	41.81
254.563	30.51
254.781	-3.2
254.998	25.93
255.216	-8.43
255.433	20.05
255.651	16.39
255.868	14.36
256.086	12.47
256.303	33.45
256.521	34.44
256.738	43.69
256.956	48.33
257.173	52.92
257.39	57.77
257.608	60.93
257.825	61.15
258.043	63.56
258.26	43.67
258.477	25.34
258.695	3.11
258.912	1.4
259.129	-13.76
259.346	16.66
259.564	1.23
259.781	5.42
259.998	-8.67
260.216	20.76
260.433	22.8
260.65	37.5
260.867	52.49
261.084	54.82
261.302	27
261.519	-6.6
261.736	0.64
261.953	-21.07
262.17	-1
262.387	11.81
262.604	9.06
262.822	11.09
263.039	31.68
263.256	29.19
263.473	36.27
263.69	41.39
263.907	49.48
264.124	50.94
264.341	44.01
264.558	49.68
264.775	58.83
264.992	43.99
265.209	23.45
265.426	24.45
265.643	30.66
265.86	20.99
266.077	23.93
266.294	35.96
266.51	26.25
266.727	21.24
266.944	33.21
267.161	30.65
267.378	17.02
267.595	27.34
267.812	11.62
268.028	4.61
268.245	0.09
268.462	-9.56
268.679	0.67
268.896	-1.09
269.112	1.57
269.329	10.29
269.546	25.58
269.763	15
269.979	38.31
270.196	46.09
270.413	48.17
270.629	48.14
270.846	60.79
271.063	44.12
271.279	47.43
271.496	29.75
271.712	19.98
271.929	0.87
272.146	29.7
272.362	6.94
272.579	33.74
272.795	54.22
273.012	51.38
273.228	27.87
273.445	34.5
273.661	26.11
273.878	-8.36
274.094	19.48
274.311	15.29
274.527	25.46
274.744	19.74
274.96	28.89
275.177	17.31
275.393	12.84
275.609	14.41
275.826	9.44
276.042	12.4
276.259	12.27
276.475	33.64
276.691	39.66
276.908	36.61
277.124	31.8
277.34	18.79
277.557	5.23
277.773	-13.96
277.989	-12.84
278.205	4.2
278.422	7.41
278.638	1.45
278.854	6.92
279.07	41.32
279.286	20.75
279.503	23.4
279.719	23.22
279.935	24.79
280.151	-10.38
280.367	-10.85
280.583	-1.3
280.799	0.56
281.016	-1.24
281.232	14.53
281.448	20.05
281.664	28.2
281.88	12.8
282.096	24.4
282.312	16.66
282.528	14.66
282.744	2.91
282.96	28.31
283.176	23.23
283.392	38.21
283.608	30.68
283.824	27.44
284.04	9.74
284.256	17.04
284.471	3.64
284.687	24.82
284.903	19.23
285.119	32.45
285.335	3.57
285.551	9.47
285.767	13.93
285.982	12.55
286.198	12.46
286.414	25.71
286.63	26.83
286.846	8.21
287.061	12.74
287.277	21.32
287.493	16.01
287.709	1.74
287.924	30.42
288.14	34.61
288.356	29.03
288.571	24.33
288.787	25.56
289.003	13.58
289.218	16.11
289.434	27.71
289.65	47.13
289.865	51.38
290.081	39.95
290.296	35.67
290.512	31.27
290.727	12.54
290.943	25.75
291.159	28.04
291.374	18.34
291.59	16.57
291.805	16.45
292.021	6.51
292.236	7.33
292.451	9.6
292.667	0.48
292.882	7.1
293.098	13.56
293.313	22.68
293.529	27.55
293.744	33.01
293.959	23
294.175	35.15
294.39	37.93
294.605	37.76
294.821	30.21
295.036	31.2
295.251	10.19
295.467	3.44
295.682	1.2
295.897	5.91
296.112	4.39
296.328	9.13
296.543	-4.88
296.758	-13.11
296.973	-21.25
297.188	-14.29
297.404	-24.68
297.619	-14.93
297.834	-1.77
298.049	20.77
298.264	25.35
298.479	45.08
298.694	44.12
298.909	43.88
299.125	31.33
299.34	39.7
299.555	23.17
299.77	20.67
299.985	-17.44
300.2	2.89
300.415	-17.19
300.63	7.86
300.845	-27.28
301.06	-12.92
301.275	-19.29
301.49	-26.37
301.704	-64.15
301.919	12.31
302.134	17.12
302.349	11.83
302.564	30.12
302.779	24.59
302.994	11.36
303.209	11.64
303.423	21.61
303.638	13.03
303.853	3.87
304.068	0.66
304.283	3.67
304.497	8.82
304.712	-14.74
304.927	-4.52
305.142	1.27
305.356	-8.77
305.571	-16.06
305.786	11.76
306	-12.54
306.215	-3.85
306.43	-7.27
306.644	-18.61
306.859	-22.58
307.074	5.28
307.288	5.3
307.503	42.79
307.717	34.23
307.932	23.66
308.147	27.93
308.361	4.31
308.576	-25.03
308.79	-28.02
309.005	3.65
309.219	12.01
309.434	35.4
309.648	33.8
309.863	34.3
310.077	40.77
310.292	33.75
310.506	21.91
310.72	28.58
310.935	7.16
311.149	0.72
311.364	6.84
311.578	-0.65
311.792	-18.03
312.007	-8.44
312.221	-26.65
312.435	-28.39
312.649	-15.96
312.864	-125.26
313.078	-56.46
313.292	-40.89
313.507	-26.58
313.721	-30.81
313.935	13.47
314.149	18.05
314.363	14.91
314.578	16.37
314.792	32.52
315.006	36.52
315.22	34.19
315.434	27.39
315.648	29.85
315.862	20.14
316.077	8.19
316.291	6.03
316.505	19.27
316.719	20.71
316.933	26.01
317.147	30.26
317.361	10.95
317.575	2.91
317.789	-0.79
318.003	8.88
318.217	21.7
318.431	30.99
318.645	33.27
318.859	35.77
319.073	18.5
319.287	6.78
319.5	4.79
319.714	17.83
319.928	-3.35
320.142	18.56
320.356	33.41
320.57	33.64
320.784	29.47
320.997	25.44
321.211	21.91
321.425	5.63
321.639	-2.17
321.853	2.49
322.066	7.51
322.28	14.93
322.494	12.8
322.707	21.27
322.921	11.88
323.135	9.65
323.349	-5.84
323.562	-3.84
323.776	-5.4
323.989	11.11
324.203	19.62
324.417	40.46
324.63	44.57
324.844	47.1
325.057	34.22
325.271	25.03
325.485	9.83
325.698	2.87
325.912	0.06
326.125	-4.92
326.339	-4.84
326.552	-5.9
326.766	-2.54
326.979	3.18
327.193	6.76
327.406	16.51
327.619	23.35
327.833	23.18
328.046	37.06
328.26	36.89
328.473	34.35
328.686	38.27
328.9	51.05
329.113	31.2
329.326	-1.88
329.54	-30.26
329.753	-51.33
329.966	-32.01
330.179	-20.48
330.393	-6.31
330.606	8.66
330.819	30.64
331.032	25.69
331.246	9.17
331.459	-9.14
331.672	2.4
331.885	3.27
332.098	4.16
332.311	31.35
332.525	40.62
332.738	39.8
332.951	13.84
333.164	16.63
333.377	6.6
333.59	15.09
333.803	23.55
334.016	40.82
334.229	37.93
334.442	41.22
334.655	33.11
334.868	19.75
335.081	36.71
335.294	34.98
335.507	35.85
335.72	50.91
335.933	34.72
336.146	9.67
336.359	3.97
336.572	-10.3
336.785	-29.13
336.997	-25.3
337.21	0.55
337.423	15.88
337.636	22.8
337.849	22.57
338.062	32.95
338.274	30.29
338.487	28.02
338.7	-0.36
338.913	5.59
339.125	6.06
339.338	-3.73
339.551	-2.53
339.763	1.04
339.976	-26
340.189	-18.76
340.402	-12.78
340.614	-25.46
340.827	-6.23
341.039	28.69
341.252	20.24
341.465	22.43
341.677	26.76
341.89	17.28
342.102	15
342.315	21.42
342.527	18.01
342.74	13.66
342.952	30.62
343.165	24.94
343.377	18.34
343.59	18.57
343.802	31.04
344.015	29.23
344.227	36.46
344.44	43.13
344.652	38.91
344.864	23.47
345.077	26.07
345.289	11.46
345.502	8.32
345.714	13.9
345.926	16.93
346.139	-1.46
346.351	10.49
346.563	12.27
346.775	6.49
346.988	-9.73
347.2	2.35
347.412	0.96
347.624	-2.81
347.837	-12.79
348.049	-7.89
348.261	-14.51
348.473	-14.38
348.685	-9.81
348.897	5.5
349.11	11.32
349.322	23.82
349.534	26.96
349.746	29.73
349.958	44.39
350.17	34.82
350.382	17.95
350.594	15.37
350.806	24.92
351.018	-6.2
351.23	1.08
351.442	4.61
351.654	14
351.866	-16.36
352.078	10.15
352.29	4.37
352.502	5.14
352.714	1.13
352.926	23.68
353.138	27.55
353.35	45.57
353.561	25
353.773	31.54
353.985	30.97
354.197	24.58
354.409	17.97
354.621	16.2
354.832	-2.18
355.044	-14.27
355.256	-22.28
355.468	-31.73
355.679	-14.12
355.891	-0.76
356.103	3.63
356.314	15.36
356.526	21.27
356.738	8.96
356.949	-4.2
357.161	0.98
357.373	3.7
357.584	-4.82
357.796	23.4
358.008	24.25
358.219	16.6
358.431	-2.99
358.642	-10.33
358.854	-28.3
359.065	-8.94
359.277	-15.68
359.488	-7.07
359.7	12.26
359.911	26.76
360.123	23.58
360.334	39.54
360.546	35.56
360.757	27.25
360.969	8.19
361.18	15.06
361.391	5.95
361.603	-5.21
361.814	8.18
362.025	4.89
362.237	5.67
362.448	5.3
362.659	2.45
362.871	-7.94
363.082	6.61
363.293	14.84
363.504	17.43
363.716	33
363.927	33.89
364.138	19.47
364.349	5.29
364.56	15.75
364.772	10.59
364.983	12.17
365.194	16.06
365.405	18.99
365.616	3.56
365.827	10.97
366.038	6.96
366.25	0.06
366.461	-12.09
366.672	-26.59
366.883	-33.33
367.094	-34.7
367.305	-6.72
367.516	0.31
367.727	14.44
367.938	24.35
368.149	25.29
368.36	19.81
368.571	37.69
368.781	32.22
368.992	6.97
369.203	15.26
369.414	27.01
369.625	22.52
369.836	25.79
370.047	27.71
370.258	23.14
370.468	17.09
370.679	-4.06
370.89	-19.83
371.101	-7.88
371.312	-8.84
371.522	-4.64
371.733	12.4
371.944	4.09
372.155	2.04
372.365	4.5
372.576	-15.3
372.787	-27.83
372.997	-13.58
373.208	-13.72
373.419	-20.34
373.629	-1.02
373.84	18.95
374.05	14.85
374.261	15.56
374.472	16.48
374.682	-3.41
374.893	-0.07
375.103	4.03
375.314	12.88
375.524	13.38
375.735	32.77
375.945	33.09
376.156	33.43
376.366	14.53
376.577	26.32
376.787	20.35
376.997	22.09
377.208	17.27
377.418	18.43
377.629	12.44
377.839	21.12
378.049	17.17
378.26	27.55
378.47	40.81
378.68	38.98
378.89	32.13
379.101	28.75
379.311	20.07
379.521	9.41
379.732	6.97
379.942	5.72
380.152	-1.26
380.362	-4.79
380.572	-5.09
380.783	-11
380.993	-15.17
381.203	-10.36
381.413	-11.1
381.623	2.79
381.833	20.63
382.043	17.77
382.253	11.63
382.463	13.39
382.674	11.43
382.884	7.49
383.094	5.61
383.304	10
383.514	6.08
383.724	11.55
383.934	6.61
384.144	7.31
384.353	8.63
384.563	10.64
384.773	9.35
384.983	10.1
385.193	16.56
385.403	11.14
385.613	11.42
385.823	6.38
386.033	7.32
386.242	-1.27
386.452	-0.95
386.662	-1.19
386.872	-0.53
387.082	-1.08
387.291	-3.01
387.501	-2.8
387.711	1.25
387.921	-0.82
388.13	-1.15
388.34	2.76
388.55	4.1
388.759	0.67
388.969	3.05
389.179	0.3
389.388	0.52
389.598	2.6
389.807	2.58
390.017	2.28
390.227	9.12
390.436	10.31
390.646	6.99
390.855	9.15
391.065	8.61
391.274	4.52
391.484	2.32
391.693	3.06
391.903	2.39
392.112	2.92
392.322	2.47
392.531	1.16
392.74	-0.56
392.95	-0.86
393.159	-0.26
393.369	1.06
393.578	2.37
393.787	4.57
393.997	4.34
394.206	4.48
394.415	4.98
394.625	5.08
394.834	4.47
395.043	3.62
395.252	3.78
395.462	2.36
395.671	2.88
395.88	4.07
396.089	4.97
396.298	4.65
396.508	4.58
396.717	4.42
396.926	3.9
397.135	3.42
397.344	3.07
397.553	3.61
397.762	3.65
397.971	3.65
398.181	4.15
398.39	4.08
398.599	3.76
398.808	3.9
399.017	4.1
399.226	3.92
399.435	4.2
399.644	4.68
399.853	4.47
400.062	4.85
400.27	5.15
400.479	5
400.688	4.73
400.897	4.54
401.106	4.08
401.315	3.69
401.524	3.95
401.733	3.83
401.941	4.22
402.15	4.22
402.359	4
402.568	4.04
402.777	3.97
402.985	3.7
403.194	3.59
403.403	3.9
403.612	3.71
403.82	3.93
404.029	3.87
404.238	3.8
404.446	3.65
404.655	3.5
404.864	3.47
405.072	3.51
405.281	3.65
405.489	3.73
405.698	3.79
405.906	3.71
406.115	3.59
406.324	3.4
406.532	3.38
406.741	3.3
406.949	3.38
407.158	3.58
407.366	3.6
407.574	3.52
407.783	3.61
407.991	3.43
408.2	3.36
408.408	3.29
408.617	3.24
408.825	3.24
409.033	3.34
409.242	3.38
409.45	3.41
409.658	3.56
409.867	3.57
410.075	3.43
410.283	3.35
410.491	3.34
410.7	3.24
410.908	3.23
411.116	3.3
411.324	3.23
411.533	3.34
411.741	3.36
411.949	3.35
412.157	3.27
412.365	3.22
412.573	3.18
412.781	3.13
412.99	3.12
413.198	3.29
413.406	3.42
413.614	3.49
413.822	3.5
414.03	3.45
414.238	3.29
414.446	3.39
414.654	3.22
414.862	3.15
415.07	3.02
415.278	3.04
415.486	2.83
415.694	2.97
415.902	2.94
416.109	3.14
416.317	3.17
416.525	3.14
416.733	3.13
416.941	3.28
417.149	3.12
417.357	3.05
417.564	3.06
417.772	2.91
417.98	2.92
418.188	2.96
418.395	2.86
418.603	2.97
418.811	3.07
419.019	3.07
419.226	3.28
419.434	3.32
419.642	3.23
419.849	3.09
420.057	3.01
420.265	2.69
420.472	2.74
420.68	2.75
420.887	2.86
421.095	2.89
421.302	2.95
421.51	2.92
421.717	2.96
421.925	2.99
422.132	2.98
422.34	2.89
422.547	2.76
422.755	2.8
422.962	2.77
423.17	2.56
423.377	2.82
423.585	3.05
423.792	2.92
423.999	2.88
424.207	2.9
424.414	2.68
424.621	2.66
424.829	2.74
425.036	2.78
425.243	2.8
425.451	2.78
425.658	2.77
425.865	2.71
426.072	2.75
426.28	2.83
426.487	2.96
426.694	2.91
426.901	2.65
427.108	2.54
427.315	2.58
427.523	2.51
427.73	2.56
427.937	2.79
428.144	2.77
428.351	2.79
428.558	2.91
428.765	2.93
428.972	2.99
429.179	2.97
429.386	2.88
429.593	2.76
429.8	2.78
430.007	2.82
430.214	3.05
430.421	3.15
430.628	3.19
430.835	3.21
431.042	3.14
431.249	3.18
431.456	3.22
431.662	3.28
431.869	3.34
432.076	3.49
432.283	3.47
432.49	3.28
432.697	3.28
432.903	3.08
433.11	2.82
433.317	2.63
433.524	2.74
433.73	2.64
433.937	2.73
434.144	2.79
434.35	2.95
434.557	2.9
434.764	2.91
434.97	2.9
435.177	3.04
435.384	2.85
435.59	2.96
435.797	3.06
436.003	3.03
436.21	2.99
436.416	3.14
436.623	3.21
436.829	3.17
437.036	3.28
437.242	3.3
437.449	3.28
437.655	3.29
437.862	3.28
438.068	3.25
438.275	3.25
438.481	3.26
438.687	3.1
438.894	3.19
439.1	3.2
439.307	3.26
439.513	3.3
439.719	3.35
439.926	3.2
440.132	3.19
440.338	3.19
440.544	3.14
440.751	3.11
440.957	3.21
441.163	3.34
441.369	3.37
441.575	3.4
441.782	3.47
441.988	3.53
442.194	3.33
442.4	3.24
442.606	3.2
442.812	3.25
443.018	3.25
443.224	3.42
443.431	3.47
443.637	3.51
443.843	3.45
444.049	3.43
444.255	3.35
444.461	3.29
444.667	3.29
444.873	3.3
445.079	3.23
445.284	3.33
445.49	3.31
445.696	3.29
445.902	3.26
446.108	3.26
446.314	3.2
446.52	3.27
446.726	3.31
446.931	3.39
447.137	3.41
447.343	3.42
447.549	3.32
447.755	3.33
447.96	3.4
448.166	3.5
448.372	3.56
448.578	3.74
448.783	3.82
448.989	3.76
449.195	3.59
449.4	3.65
449.606	3.56
449.812	3.42
450.017	3.41
450.223	3.56
450.428	3.49
450.634	3.59
450.84	3.72
451.045	3.7
451.251	3.67
451.456	3.71
451.662	3.66
451.867	3.57
452.073	3.59
452.278	3.6
452.483	3.63
452.689	3.64
452.894	3.62
453.1	3.63
453.305	3.64
453.51	3.58
453.716	3.52
453.921	3.65
454.127	3.71
454.332	3.6
454.537	3.56
454.742	3.66
454.948	3.53
455.153	3.49
455.358	3.71
455.563	3.7
455.769	3.57
455.974	3.66
456.179	3.56
456.384	3.4
456.589	3.46
456.795	3.52
457	3.49
457.205	3.68
457.41	3.72
457.615	3.66
457.82	3.65
458.025	3.64
458.23	3.53
458.435	3.51
458.64	3.54
458.845	3.59
459.05	3.56
459.255	3.61
459.46	3.65
459.665	3.66
459.87	3.59
460.075	3.66
460.28	3.65
460.485	3.61
460.69	3.67
460.895	3.72
461.099	3.72
461.304	3.65
461.509	3.66
461.714	3.64
461.919	3.56
462.123	3.59
462.328	3.67
462.533	3.7
462.738	3.66
462.942	3.69
463.147	3.72
463.352	3.65
463.556	3.72
463.761	3.64
463.966	3.68
464.17	3.72
464.375	3.71
464.58	3.57
464.784	3.69
464.989	3.7
465.193	3.67
465.398	3.85
465.602	3.95
465.807	3.96
466.011	3.98
466.216	3.9
466.42	3.85
466.625	3.94
466.829	3.94
467.034	4.05
467.238	4.14
467.443	4.06
467.647	3.92
467.851	3.99
468.056	3.87
468.26	3.82
468.464	3.89
468.669	4.01
468.873	3.98
469.077	3.99
469.282	3.97
469.486	3.98
469.69	3.86
469.894	3.85
470.099	3.89
470.303	3.9
470.507	3.92
470.711	3.92
470.915	3.87
471.119	3.86
471.324	3.9
471.528	3.87
471.732	3.95
471.936	4.03
472.14	4.05
472.344	4.1
472.548	4.06
472.752	4.14
472.956	4.12
473.16	4.17
473.364	4.15
473.568	4.25
473.772	4.25
473.976	4.3
474.18	4.27
474.384	4.29
474.588	4.22
474.792	4.15
474.995	4.21
475.199	4.21
475.403	4.15
475.607	4.13
475.811	4.21
476.015	4.14
476.218	4.08
476.422	4.18
476.626	4.23
476.83	4.18
477.033	4.25
477.237	4.3
477.441	4.24
477.644	4.33
477.848	4.3
478.052	4.21
478.255	4.19
478.459	4.18
478.663	4.19
478.866	4.19
479.07	4.22
479.273	4.25
479.477	4.28
479.681	4.34
479.884	4.34
480.088	4.37
480.291	4.45
480.495	4.43
480.698	4.4
480.901	4.39
481.105	4.33
481.308	4.25
481.512	4.36
481.715	4.27
481.919	4.32
482.122	4.44
482.325	4.51
482.529	4.45
482.732	4.5
482.935	4.5
483.138	4.41
483.342	4.37
483.545	4.49
483.748	4.47
483.952	4.6
484.155	4.7
484.358	4.71
484.561	4.63
484.764	4.7
484.967	4.67
485.171	4.63
485.374	4.54
485.577	4.54
485.78	4.49
485.983	4.41
486.186	4.34
486.389	4.43
486.592	4.39
486.795	4.41
486.998	4.42
487.201	4.53
487.404	4.61
487.607	4.66
487.81	4.6
488.013	4.56
488.216	4.51
488.419	4.46
488.622	4.42
488.825	4.47
489.028	4.51
489.231	4.62
489.433	4.57
489.636	4.57
489.839	4.59
490.042	4.55
490.245	4.41
490.447	4.44
490.65	4.47
490.853	4.44
491.056	4.48
491.258	4.45
491.461	4.43
491.664	4.44
491.866	4.43
492.069	4.47
492.272	4.53
492.474	4.55
492.677	4.5
492.879	4.5
493.082	4.53
493.285	4.58
493.487	4.55
493.69	4.59
493.892	4.64
494.095	4.61
494.297	4.59
494.5	4.7
494.702	4.74
494.905	4.75
495.107	4.73
495.309	4.75
495.512	4.68
495.714	4.73
495.917	4.7
496.119	4.71
496.321	4.69
496.524	4.69
496.726	4.61
496.928	4.66
497.13	4.7
497.333	4.76
497.535	4.81
497.737	4.81
497.939	4.79
498.142	4.86
498.344	4.89
498.546	4.9
498.748	5.04
498.95	5.14
499.152	5.12
499.355	5.09
499.557	5.11
499.759	4.99
499.961	4.9
500.163	4.91
500.365	4.98
500.567	5.02
500.769	5.1
500.971	5.08
501.173	5.07
501.375	5.04
501.577	5.01
501.779	5.02
501.981	5.11
502.183	5.15
502.385	5.16
502.587	5.12
502.788	5.13
502.99	5.08
503.192	5.12
503.394	5.09
503.596	5.2
503.798	5.2
503.999	5.34
504.201	5.42
504.403	5.4
504.605	5.38
504.806	5.49
505.008	5.45
505.21	5.46
505.411	5.57
505.613	5.6
505.815	5.58
506.016	5.55
506.218	5.47
506.42	5.44
506.621	5.48
506.823	5.48
507.024	5.51
507.226	5.59
507.427	5.61
507.629	5.61
507.83	5.6
508.032	5.65
508.233	5.68
508.435	5.71
508.636	5.78
508.838	5.78
509.039	5.79
509.24	5.73
509.442	5.77
509.643	5.74
509.845	5.81
510.046	5.82
510.247	5.86
510.448	5.87
510.65	5.91
510.851	5.88
511.052	5.93
511.254	5.93
511.455	5.95
511.656	5.91
511.857	5.99
512.058	5.98
512.26	5.97
512.461	6
512.662	5.99
512.863	5.92
513.064	5.94
513.265	5.95
513.466	5.93
513.667	5.93
513.868	5.98
514.069	5.93
514.27	5.94
514.471	5.93
514.672	5.93
514.873	5.94
515.074	5.98
515.275	6.04
515.476	6.05
515.677	6.14
515.878	6.28
516.079	6.22
516.28	6.21
516.481	6.27
516.682	6.25
516.882	6.13
517.083	6.24
517.284	6.23
517.485	6.18
517.686	6.1
517.886	6.2
518.087	6.22
518.288	6.25
518.488	6.34
518.689	6.44
518.89	6.36
519.091	6.38
519.291	6.43
519.492	6.41
519.692	6.41
519.893	6.48
520.094	6.47
520.294	6.51
520.495	6.53
520.695	6.58
520.896	6.54
521.096	6.57
521.297	6.54
521.497	6.57
521.698	6.56
521.898	6.57
522.099	6.53
522.299	6.56
522.499	6.61
522.7	6.62
522.9	6.71
523.101	6.74
523.301	6.84
523.501	6.83
523.702	6.87
523.902	6.83
524.102	6.87
524.302	6.79
524.503	6.83
524.703	6.84
524.903	6.85
525.103	6.85
525.304	6.9
525.504	6.91
525.704	6.97
525.904	7.04
526.104	7.07
526.304	7.11
526.504	7.07
526.705	7.09
526.905	7.06
527.105	7.12
527.305	7.11
527.505	7.14
527.705	7.11
527.905	7.12
528.105	7.08
528.305	7.01
528.505	6.99
528.705	7.02
528.905	7.04
529.105	7.08
529.304	7.12
529.504	7.21
529.704	7.23
529.904	7.27
530.104	7.28
530.304	7.35
530.503	7.32
530.703	7.31
530.903	7.32
531.103	7.33
531.303	7.39
531.502	7.42
531.702	7.47
531.902	7.48
532.101	7.52
532.301	7.54
532.501	7.6
532.7	7.63
532.9	7.7
533.1	7.75
533.299	7.77
533.499	7.76
533.698	7.78
533.898	7.79
534.097	7.74
534.297	7.77
534.496	7.78
534.696	7.8
534.895	7.85
535.095	7.91
535.294	7.94
535.494	7.98
535.693	7.97
535.892	8.05
536.092	8.06
536.291	8.06
536.491	8.1
536.69	8.22
536.889	8.13
537.088	8.16
537.288	8.19
537.487	8.25
537.686	8.27
537.886	8.41
538.085	8.47
538.284	8.51
538.483	8.53
538.682	8.55
538.882	8.53
539.081	8.58
539.28	8.57
539.479	8.56
539.678	8.55
539.877	8.61
540.076	8.65
540.275	8.78
540.474	8.89
540.673	8.98
540.872	8.99
541.071	9.01
541.27	9.04
541.469	9.06
541.668	9.12
541.867	9.21
542.066	9.27
542.265	9.27
542.464	9.34
542.663	9.37
542.862	9.5
543.06	9.6
543.259	9.73
543.458	9.72
543.657	9.86
543.856	9.91
544.054	9.87
544.253	9.92
544.452	9.98
544.651	9.93
544.849	9.91
545.048	10.03
545.247	10.04
545.445	10.12
545.644	10.21
545.843	10.25
546.041	10.31
546.24	10.34
546.438	10.38
546.637	10.41
546.836	10.51
547.034	10.56
547.233	10.67
547.431	10.83
547.63	10.86
547.828	10.89
548.027	10.9
548.225	10.92
548.423	10.85
548.622	10.95
548.82	11.01
549.019	11.12
549.217	11.14
549.415	11.29
549.614	11.41
549.812	11.46
550.01	11.49
550.209	11.64
550.407	11.71
550.605	11.76
550.803	11.79
551.002	11.85
551.2	11.93
551.398	12.02
551.596	12.1
551.794	12.3
551.993	12.46
552.191	12.53
552.389	12.57
552.587	12.63
552.785	12.72
552.983	12.72
553.181	12.87
553.379	13.02
553.577	13.11
553.775	13.23
553.973	13.33
554.171	13.38
554.369	13.48
554.567	13.58
554.765	13.63
554.963	13.7
555.161	13.75
555.359	13.83
555.557	13.9
555.755	13.94
555.952	14.05
556.15	14.16
556.348	14.26
556.546	14.42
556.744	14.52
556.941	14.67
557.139	14.81
557.337	14.91
557.535	14.96
557.732	15.03
557.93	15.08
558.128	15.08
558.325	15.14
558.523	15.2
558.721	15.3
558.918	15.44
559.116	15.59
559.313	15.62
559.511	15.79
559.708	15.93
559.906	15.97
560.104	16.05
560.301	16.12
560.498	16.18
560.696	16.27
560.893	16.33
561.091	16.44
561.288	16.55
561.486	16.6
561.683	16.72
561.88	16.79
562.078	16.9
562.275	17
562.473	17.1
562.67	17.13
562.867	17.3
563.064	17.34
563.262	17.44
563.459	17.53
563.656	17.58
563.853	17.67
564.051	17.72
564.248	17.83
564.445	17.96
564.642	18.02
564.839	18.11
565.036	18.19
565.234	18.25
565.431	18.23
565.628	18.29
565.825	18.31
566.022	18.32
566.219	18.31
566.416	18.38
566.613	18.48
566.81	18.62
567.007	18.73
567.204	18.85
567.401	18.9
567.598	18.96
567.795	18.93
567.991	18.97
568.188	19
568.385	19.06
568.582	19.06
568.779	19.14
568.976	19.32
569.172	19.42
569.369	19.44
569.566	19.61
569.763	19.65
569.96	19.52
570.156	19.59
570.353	19.63
570.55	19.55
570.746	19.52
570.943	19.52
571.14	19.45
571.336	19.47
571.533	19.5
571.729	19.57
571.926	19.7
572.123	19.68
572.319	19.7
572.516	19.74
572.712	19.73
572.909	19.65
573.105	19.75
573.302	19.65
573.498	19.58
573.695	19.65
573.891	19.6
574.087	19.54
574.284	19.72
574.48	19.75
574.677	19.66
574.873	19.65
575.069	19.71
575.266	19.59
575.462	19.53
575.658	19.59
575.854	19.63
576.051	19.55
576.247	19.65
576.443	19.76
576.639	19.73
576.835	19.81
577.032	19.78
577.228	19.75
577.424	19.76
577.62	19.7
577.816	19.65
578.012	19.66
578.208	19.6
578.404	19.58
578.6	19.5
578.796	19.5
578.993	19.49
579.189	19.43
579.384	19.27
579.58	19.31
579.776	19.2
579.972	19.19
580.168	19.24
580.364	19.25
580.56	19.32
580.756	19.25
580.952	19.15
581.148	19.06
581.343	19.06
581.539	19.02
581.735	19.06
581.931	19.03
582.127	19.01
582.322	18.95
582.518	18.85
582.714	18.74
582.909	18.76
583.105	18.81
583.301	18.8
583.496	18.78
583.692	18.79
583.888	18.78
584.083	18.74
584.279	18.67
584.474	18.66
584.67	18.62
584.866	18.64
585.061	18.53
585.257	18.48
585.452	18.47
585.648	18.53
585.843	18.5
586.039	18.55
586.234	18.52
586.429	18.41
586.625	18.41
586.82	18.33
587.015	18.36
587.211	18.38
587.406	18.37
587.601	18.28
587.797	18.32
587.992	18.18
588.187	18.17
588.383	18.21
588.578	18.29
588.773	18.18
588.968	18.21
589.163	18.33
589.359	18.34
589.554	18.3
589.749	18.36
589.944	18.33
590.139	18.29
590.334	18.23
590.529	18.24
590.724	18.24
590.919	18.31
591.114	18.34
591.309	18.44
591.504	18.59
591.699	18.56
591.894	18.55
592.089	18.56
592.284	18.52
592.479	18.52
592.674	18.58
592.869	18.65
593.064	18.73
593.259	18.84
593.454	18.7
593.648	18.75
593.843	18.76
594.038	18.68
594.233	18.78
594.428	18.89
594.622	18.95
594.817	18.9
595.012	19.01
595.206	18.92
595.401	19.01
595.596	19.01
595.79	19.16
595.985	19.22
596.18	19.38
596.374	19.47
596.569	19.6
596.763	19.65
596.958	19.75
597.153	19.78
597.347	19.78
597.542	19.81
597.736	19.83
597.931	19.8
598.125	19.82
598.319	19.92
598.514	19.98
598.708	20.05
598.903	20.12
599.097	20.18
599.291	20.24
599.486	20.26
599.68	20.28
599.874	20.29
600.069	20.39
600.263	20.36
600.457	20.45
600.651	20.51
600.846	20.55
601.04	20.42
601.234	20.4
601.428	20.46
601.622	20.54
601.817	20.61
602.011	20.73
602.205	20.83
602.399	20.83
602.593	20.73
602.787	20.6
602.981	20.57
603.175	20.54
603.369	20.54
603.563	20.59
603.757	20.69
603.951	20.76
604.145	20.68
604.339	20.64
604.533	20.64
604.727	20.57
604.921	20.52
605.115	20.67
605.309	20.69
605.502	20.68
605.696	20.63
605.89	20.57
606.084	20.38
606.278	20.33
606.471	20.23
606.665	20.23
606.859	20.23
607.053	20.23
607.246	20.2
607.44	20.19
607.634	20.19
607.827	20.07
608.021	20
608.214	19.9
608.408	19.74
608.602	19.59
608.795	19.59
608.989	19.52
609.182	19.49
609.376	19.51
609.569	19.39
609.763	19.24
609.956	19.25
610.15	19.1
610.343	19
610.537	19.11
610.73	19.08
610.923	19.01
611.117	19
611.31	19
611.504	18.89
611.697	18.82
611.89	18.74
612.083	18.64
612.277	18.49
612.47	18.43
612.663	18.37
612.856	18.26
613.05	18.26
613.243	18.2
613.436	18.11
613.629	18.01
613.822	17.97
614.015	17.86
614.209	17.81
614.402	17.76
614.595	17.79
614.788	17.71
614.981	17.53
615.174	17.49
615.367	17.37
615.56	17.25
615.753	17.21
615.946	17.19
616.139	17.15
616.332	17.19
616.525	17.1
616.718	16.98
616.911	16.96
617.103	16.92
617.296	16.82
617.489	16.79
617.682	16.87
617.875	16.9
618.067	16.77
618.26	16.76
618.453	16.69
618.646	16.61
618.838	16.48
619.031	16.41
619.224	16.28
619.417	16.25
619.609	16.17
619.802	16.22
619.994	16.23
620.187	16.19
620.38	16.15
620.572	16.05
620.765	15.95
620.957	15.87
621.15	15.86
621.342	15.81
621.535	15.86
621.727	15.81
621.92	15.87
622.112	15.9
622.305	15.89
622.497	15.86
622.69	15.95
622.882	15.88
623.074	15.75
623.267	15.71
623.459	15.73
623.651	15.63
623.844	15.69
624.036	15.76
624.228	15.79
624.42	15.79
624.613	15.72
624.805	15.64
624.997	15.52
625.189	15.55
625.381	15.53
625.574	15.55
625.766	15.56
625.958	15.57
626.15	15.53
626.342	15.45
626.534	15.44
626.726	15.37
626.918	15.38
627.11	15.25
627.302	15.15
627.494	15.09
627.686	15.07
627.878	15.04
628.07	15.04
628.262	14.98
628.454	14.87
628.646	14.85
628.838	14.88
629.029	14.82
629.221	14.84
629.413	14.85
629.605	14.76
629.797	14.65
629.989	14.67
630.18	14.69
630.372	14.7
630.564	14.73
630.755	14.69
630.947	14.59
631.139	14.52
631.33	14.49
631.522	14.4
631.714	14.31
631.905	14.32
632.097	14.29
632.289	14.3
632.48	14.31
632.672	14.29
632.863	14.19
633.055	14.11
633.246	13.97
633.438	14
633.629	13.91
633.821	13.95
634.012	13.91
634.203	13.89
634.395	13.85
634.586	13.97
634.777	13.88
634.969	13.86
635.16	13.92
635.351	13.82
635.543	13.81
635.734	13.88
635.925	13.85
636.117	13.84
636.308	13.89
636.499	13.83
636.69	13.7
636.881	13.76
637.073	13.79
637.264	13.74
637.455	13.67
637.646	13.74
637.837	13.76
638.028	13.72
638.219	13.6
638.41	13.59
638.601	13.5
638.792	13.37
638.983	13.34
639.174	13.34
639.365	13.3
639.556	13.33
639.747	13.35
639.938	13.32
640.129	13.35
640.32	13.3
640.511	13.33
640.701	13.33
640.892	13.23
641.083	13.23
641.274	13.3
641.465	13.29
641.655	13.27
641.846	13.26
642.037	13.16
642.228	13.13
642.418	12.98
642.609	12.95
642.8	12.94
642.99	12.82
643.181	12.72
643.372	12.76
643.562	12.67
643.753	12.62
643.943	12.71
644.134	12.7
644.324	12.61
644.515	12.66
644.705	12.62
644.896	12.53
645.086	12.56
645.277	12.58
645.467	12.58
645.658	12.62
645.848	12.61
646.038	12.56
646.229	12.6
646.419	12.58
646.61	12.63
646.8	12.66
646.99	12.61
647.18	12.52
647.371	12.38
647.561	12.35
647.751	12.26
647.941	12.29
648.132	12.31
648.322	12.36
648.512	12.22
648.702	12.32
648.892	12.26
649.082	12.26
649.272	12.24
649.462	12.27
649.653	12.18
649.843	12.21
650.033	12.24
650.223	12.26
650.413	12.26
650.603	12.34
650.793	12.32
650.983	12.21
651.172	12.17
651.362	12.08
651.552	11.94
651.742	11.92
651.932	11.88
652.122	11.9
652.312	11.94
652.502	11.86
652.691	11.8
652.881	11.82
653.071	11.73
653.261	11.58
653.45	11.61
653.64	11.52
653.83	11.34
654.019	11.24
654.209	11.24
654.399	11.2
654.588	11.13
654.778	11.12
654.968	11.1
655.157	10.99
655.347	10.89
655.536	10.82
655.726	10.72
655.915	10.56
656.105	10.46
656.294	10.4
656.484	10.27
656.673	10.16
656.863	10.09
657.052	10.06
657.241	9.94
657.431	9.82
657.62	9.7
657.809	9.61
657.999	9.53
658.188	9.33
658.377	9.23
658.567	9.14
658.756	8.9
658.945	8.67
659.134	8.57
659.324	8.47
659.513	8.4
659.702	8.33
659.891	8.25
660.08	8.15
660.269	8.04
660.458	7.87
660.648	7.78
660.837	7.68
661.026	7.5
661.215	7.45
661.404	7.33
661.593	7.27
661.782	7.19
661.971	7.15
662.16	7.08
662.349	6.97
662.538	6.78
662.726	6.67
662.915	6.61
663.104	6.44
663.293	6.37
663.482	6.48
663.671	6.46
663.86	6.33
664.048	6.24
664.237	6.27
664.426	6.19
664.615	6.14
664.803	6.12
664.992	6.06
665.181	5.95
665.369	5.81
665.558	5.64
665.747	5.61
665.935	5.61
666.124	5.54
666.312	5.53
666.501	5.61
666.69	5.48
666.878	5.35
667.067	5.31
667.255	5.26
667.444	5.18
667.632	5.26
667.82	5.38
668.009	5.38
668.197	5.4
668.386	5.33
668.574	5.37
668.762	5.32
668.951	5.47
669.139	5.42
669.327	5.5
669.516	5.45
669.704	5.41
669.892	5.32
670.08	5.29
670.269	5.22
670.457	5.29
670.645	5.29
670.833	5.31
671.021	5.38
671.21	5.42
671.398	5.36
671.586	5.28
671.774	5.29
671.962	5.36
672.15	5.35
672.338	5.47
672.526	5.57
672.714	5.49
672.902	5.3
673.09	5.34
673.278	5.3
673.466	5.5
673.654	5.72
673.842	5.83
674.03	5.9
674.218	5.94
674.405	5.88
674.593	5.81
674.781	5.87
674.969	5.78
675.157	5.8
675.344	5.82
675.532	5.88
675.72	5.9
675.908	6.04
676.095	6.01
676.283	6.11
676.471	6.22
676.658	6.44
676.846	6.58
677.033	6.84
677.221	6.9
677.409	6.82
677.596	6.74
677.784	6.63
677.971	6.58
678.159	6.57
678.346	6.64
678.534	6.75
678.721	6.87
678.909	6.86
679.096	7
679.283	7.06
679.471	7.07
679.658	7.31
679.846	7.42
680.033	7.44
680.22	7.48
680.408	7.42
680.595	7.34
680.782	7.36
680.969	7.45
681.157	7.54
681.344	7.69
681.531	7.83
681.718	7.97
681.905	7.91
682.093	7.97
682.28	8.14
682.467	8.22
682.654	8.26
682.841	8.37
683.028	8.42
683.215	8.5
683.402	8.48
683.589	8.75
683.776	8.94
683.963	9.05
684.15	9.17
684.337	9.53
684.524	9.68
684.711	9.88
684.898	10.14
685.085	10.3
685.271	10.38
685.458	10.43
685.645	10.53
685.832	10.68
686.019	10.93
686.205	10.94
686.392	11.29
686.579	11.42
686.766	11.63
686.952	11.73
687.139	12.05
687.326	12.1
687.512	12.3
687.699	12.57
687.886	12.83
688.072	13.06
688.259	13.29
688.445	13.57
688.632	13.7
688.818	14.21
689.005	14.71
689.191	15.23
689.378	15.64
689.564	16.15
689.751	16.4
689.937	16.67
690.124	16.87
690.31	17.26
690.496	17.66
690.683	18.08
690.869	18.47
691.055	18.87
691.242	19.44
691.428	19.67
691.614	20.18
691.8	20.76
691.987	21.3
692.173	21.88
692.359	22.59
692.545	23.11
692.731	23.59
692.918	24.02
693.104	24.41
693.29	25.06
693.476	25.45
693.662	25.96
693.848	26.71
694.034	27.21
694.22	27.75
694.406	28.51
694.592	29
694.778	29.41
694.964	29.9
695.15	30.29
695.336	30.68
695.522	31.38
695.708	31.99
695.894	32.76
696.08	33.55
696.265	33.98
696.451	34.48
696.637	35.18
696.823	35.59
697.009	36.21
697.194	36.9
697.38	37.51
697.566	38.05
697.751	38.65
697.937	39.07
698.123	39.74
698.308	40.19
698.494	40.64
698.68	41.09
698.865	41.74
699.051	42.12
699.236	42.75
699.422	43.53
699.607	44.13
699.793	44.64
699.978	45.06
700.164	45.7
700.349	45.96
700.535	46.54
700.72	46.83
700.906	47.56
701.091	47.76
701.276	48.32
701.462	48.85
701.647	49.37
701.832	50.08
702.018	50.64
702.203	51.31
702.388	51.35
702.573	51.5
702.759	51.39
702.944	51.63
703.129	51.83
703.314	52.72
703.499	53.71
703.684	54.09
703.87	55.03
704.055	55.44
704.24	55.63
704.425	55.8
704.61	56.01
704.795	55.89
704.98	56.34
705.165	56.62
705.35	56.82
705.535	57.29
705.72	57.74
705.905	57.81
706.09	58.35
706.275	58.58
706.459	59.23
706.644	59.36
706.829	59.82
707.014	60.41
707.199	60.73
707.384	60.88
707.568	61.14
707.753	61.41
707.938	61.34
708.123	62.02
708.307	62.23
708.492	62.66
708.677	62.95
708.861	63.17
709.046	62.97
709.231	63.51
709.415	63.53
709.6	63.57
709.784	63.79
709.969	64.24
710.153	64.38
710.338	64.76
710.522	65.42
710.707	65.78
710.891	65.71
711.076	65.92
711.26	66.15
711.445	65.78
711.629	65.9
711.813	66.21
711.998	66.25
712.182	66.61
712.366	66.79
712.551	66.98
712.735	67.08
712.919	67.31
713.103	67.34
713.288	67.64
713.472	67.68
713.656	67.78
713.84	68.16
714.024	68.35
714.208	68.49
714.393	68.5
714.577	68.76
714.761	68.81
714.945	68.72
715.129	69.12
715.313	69.81
715.497	70.05
715.681	70.08
715.865	70.08
716.049	70.11
716.233	69.67
716.417	69.69
716.601	69.8
716.785	69.92
716.968	70.02
717.152	70.71
717.336	70.98
717.52	71.09
717.704	71.49
717.888	71.07
718.071	70.81
718.255	71.16
718.439	71.07
718.622	71.01
718.806	71.5
718.99	71.84
719.174	72.02
719.357	72
719.541	72.32
719.724	72.81
719.908	72.85
720.092	72.58
720.275	73.31
720.459	73.45
720.642	73.43
720.826	73.4
721.009	73.7
721.193	73.48
721.376	73.74
721.559	73.46
721.743	73.82
721.926	73.97
722.11	73.9
722.293	73.93
722.476	74.45
722.66	74.68
722.843	74.73
723.026	75.14
723.21	75.74
723.393	75.68
723.576	75.52
723.759	75.25
723.942	75.45
724.126	75.15
724.309	76.18
724.492	76.06
724.675	76.61
724.858	77.24
725.041	77.12
725.224	76.57
725.407	76.84
725.59	77.31
725.774	76.36
725.957	76.9
726.14	77.03
726.322	77.06
726.505	77.01
726.688	77.5
726.871	77.87
727.054	78.37
727.237	78.62
727.42	78.81
727.603	78.82
727.786	78.32
727.968	77.52
728.151	77.93
728.334	77.68
728.517	77.77
728.699	78.09
728.882	78.56
729.065	78.15
729.248	78.68
729.43	79.24
729.613	79.65
729.796	79.84
729.978	80.59
730.161	80.27
730.343	79.96
730.526	80.09
730.708	80.32
730.891	80.15
731.073	79.95
731.256	79.69
731.438	79.6
731.621	79.69
731.803	79.58
731.986	79.93
732.168	80.49
732.35	80.28
732.533	80.22
732.715	80.47
732.898	79.75
733.08	80.27
733.262	80.96
733.444	81.13
733.627	81.56
733.809	82.75
733.991	83.18
734.173	83.59
734.355	84.64
734.538	84.45
734.72	83.91
734.902	84.1
735.084	83.01
735.266	82.65
735.448	82.29
735.63	83.28
735.812	83.21
735.994	84.41
736.176	84.28
736.358	84.68
736.54	84.38
736.722	84.3
736.904	83.73
737.086	83.21
737.268	84.4
737.45	85.4
737.632	84.76
737.814	85.23
737.995	85.81
738.177	84.74
738.359	84.37
738.541	85.78
738.723	85.92
738.904	86.13
739.086	86.54
739.268	86.48
739.449	85.63
739.631	86.19
739.813	86.58
739.994	86.19
740.176	85.85
740.358	87.16
740.539	86.87
740.721	85.6
740.902	86.46
741.084	87.53
741.265	86.74
741.447	86.21
741.628	88.93
741.81	88.49
741.991	87.47
742.172	88.07
742.354	88.31
742.535	86.69
742.717	86.47
742.898	86.78
743.079	86.67
743.261	88.32
743.442	88.24
743.623	89.48
743.804	89.29
743.986	88.72
744.167	86.84
744.348	86.51
744.529	85.78
744.71	86.62
744.891	86.34
745.073	86.54
745.254	87.22
745.435	87.9
745.616	87.58
745.797	88.66
745.978	88.76
746.159	88.77
746.34	87.48
746.521	87.58
746.702	86.99
746.883	86.58
747.064	86.59
747.245	88.05
747.426	88.68
747.606	88.73
747.787	89.79
747.968	90.01
748.149	90.03
748.33	88.97
748.51	89.75
748.691	88.69
748.872	87.91
749.053	87.02
749.233	87.57
749.414	86.79
749.595	88.57
749.775	88.75
749.956	89
750.137	89.3
750.317	89.44
750.498	89.07
750.678	89.81
750.859	88.81
751.04	88.75
751.22	89.36
751.4	89.7
751.581	89.85
751.761	91.31
751.942	91.61
752.122	90.67
752.303	88.26
752.483	88.62
752.663	89.31
752.844	88.97
753.024	90.81
753.204	91.66
753.385	90.63
753.565	90.49
753.745	90.51
753.925	89.39
754.106	89.44
754.286	89.06
754.466	87.58
754.646	87.82
754.826	86.39
755.006	86.34
755.187	86.1
755.367	86.38
755.547	85.87
755.727	87.83
755.907	88.8
756.087	88.95
756.267	89.3
756.447	89.51
756.627	87.68
756.807	87.33
756.987	88.28
757.167	88.65
757.346	88.17
757.526	88.42
757.706	88.57
757.886	88.52
758.066	88.61
758.246	89.44
758.425	89.65
758.605	89.18
758.785	90.07
758.965	89.25
759.144	88.41
759.324	88.07
759.504	90.03
759.683	89.85
759.863	91.53
760.043	92.42
760.222	91.51
760.402	88.89
760.581	87.67
760.761	87.38
760.94	87.12
761.12	91.38
761.299	90.94
761.479	90.78
761.658	88.12
761.838	86.48
762.017	84.05
762.197	85.91
762.376	86.47
762.555	88.32
762.735	88.94
762.914	89.98
763.093	90.7
763.273	90.13
763.452	89.61
763.631	91.16
763.81	91.14
763.99	89.55
764.169	89.44
764.348	89.56
764.527	87.85
764.706	86.43
764.885	86.44
765.064	87.05
765.243	86.85
765.423	87.1
765.602	87.11
765.781	89.13
765.96	88.19
766.139	88.51
766.318	87.83
766.497	89.6
766.676	85.68
766.854	87.27
767.033	85.67
767.212	87.31
767.391	85.23
767.57	86.63
767.749	86.42
767.928	87.46
768.106	84.44
768.285	83.25
768.464	82.67
768.643	81.91
768.821	82.15
769	85.42
769.179	86.39
769.357	86.69
769.536	87.38
769.715	87.34
769.893	86.94
770.072	86.44
770.25	86.68
770.429	84.95
770.607	84.36
770.786	84.17
770.964	85.68
771.143	87.5
771.321	87.84
771.5	89.09
771.678	89.32
771.857	88.41
772.035	87.22
772.213	87.19
772.392	83.65
772.57	84.93
772.748	85.07
772.927	84.53
773.105	84.84
773.283	88.02
773.461	87.68
773.64	86.19
773.818	86.19
773.996	87.58
774.174	86.97
774.352	85.13
774.531	86.26
774.709	84.47
774.887	82.81
775.065	80.88
775.243	79.62
775.421	79.69
775.599	80.13
775.777	80.26
775.955	81.04
776.133	81.34
776.311	82.83
776.489	84.86
776.667	83.28
776.844	85.96
777.022	85.05
777.2	83.04
777.378	80.52
777.556	83.22
777.734	81.93
777.911	83.12
778.089	84.21
778.267	84.69
778.445	81.61
778.622	80.98
778.8	82.36
778.978	84.86
779.155	86.69
779.333	88.66
779.511	88.32
779.688	86.88
779.866	83.91
780.043	83.72
780.221	81.53
780.398	81.29
780.576	80.63
780.753	78.57
780.931	77.17
781.108	78.66
781.286	80.37
781.463	79.32
781.64	80.2
781.818	80.77
781.995	80.07
782.172	76.37
782.35	77.64
782.527	80.45
782.704	79.42
782.882	79.13
783.059	80.92
783.236	78.43
783.413	76.76
783.59	77.41
783.768	77.01
783.945	76.26
784.122	80.01
784.299	78.62
784.476	79
784.653	79.84
784.83	81.67
785.007	80.61
785.184	79.73
785.361	79.81
785.538	82.47
785.715	83.38
785.892	86.17
786.069	84.52
786.246	84.99
786.423	81.95
786.6	82.11
786.776	79.48
786.953	81.78
787.13	82.05
787.307	81.83
787.484	81.1
787.66	78.1
787.837	80.24
788.014	83.48
788.191	84.33
788.367	84.84
788.544	86.07
788.721	85.66
788.897	79.13
789.074	78.22
789.25	75.01
789.427	80.53
789.603	76.99
789.78	77.4
789.956	85.95
790.133	85.72
790.309	83.86
790.486	86.78
790.662	87.2
790.839	75.99
791.015	74.43
791.192	71.66
791.368	74.32
791.544	75.33
791.721	79.38
791.897	84.62
792.073	84.9
792.249	80.21
792.426	84.87
792.602	86.97
792.778	84.6
792.954	83.71
793.13	87.01
793.307	86.4
793.483	86.82
793.659	88.73
793.835	87.54
794.011	85.74
794.187	77.63
794.363	71.02
794.539	63.86
794.715	66.08
794.891	69.79
795.067	74.52
795.243	79.28
795.419	84.58
795.595	83.27
795.771	78.49
795.947	77.96
796.122	75.29
796.298	73.61
796.474	75.21
796.65	72.81
796.826	72.87
797.001	69.98
797.177	72.13
797.353	70.66
797.529	75.35
797.704	74.21
797.88	74.29
798.056	77.14
798.231	77.19
798.407	79.83
798.582	73.86
798.758	85.36
798.934	85.99
799.109	83.1
799.285	83.36
799.46	91.89
799.636	87.2
799.811	81.77
799.986	84.87
800.162	85.47
800.337	86.77
800.513	83.81
800.688	86.1
800.863	87.24
801.039	86.67
801.214	86.11
801.389	83.37
801.565	77.79
801.74	76.19
801.915	70.37
802.09	68.62
802.265	69.75
802.441	72.64
802.616	71.25
802.791	68.74
802.966	74.48
803.141	71.66
803.316	70.89
803.491	73.77
803.666	80.8
803.841	69.84
804.016	75.89
804.191	76.81
804.366	75.76
804.541	70.25
804.716	73.63
804.891	68.84
805.066	73.09
805.241	68.97
805.416	69.34
805.591	69.63
805.765	71.32
805.94	67.17
806.115	69.9
806.29	75.3
806.464	72.25
806.639	72.72
806.814	73.91
806.989	68
807.163	64.87
807.338	65.11
807.512	65.75
807.687	64.53
807.862	68.25
808.036	69.08
808.211	67.14
808.385	60.23
808.56	53.74
808.734	48.78
808.909	53.31
809.083	52.71
809.258	60.16
809.432	71.41
809.606	75.87
809.781	72.97
809.955	77.28
810.13	79.08
810.304	71.95
810.478	70.52
810.652	76.53
810.827	69.8
811.001	71.65
811.175	80.51
811.349	87.67
811.524	71.76
811.698	69.24
811.872	67.34
812.046	58.43
812.22	58.19
812.394	61.26
812.568	66.09
812.742	59.28
812.916	73.24
813.09	69.27
813.264	80.93
813.438	79.77
813.612	81.31
813.786	74.7
813.96	78.05
814.134	79.77
814.308	81.38
814.482	79.38
814.656	88.72
814.83	90.93
815.003	84.68
815.177	87.92
815.351	97.95
815.525	86.49
815.698	83.24
815.872	76.27
816.046	77.75
816.219	68.65
816.393	65.27
816.567	66.46
816.74	69.19
816.914	65.3
817.088	63.45
817.261	60.55
817.435	61.93
817.608	60.57
817.782	53.81
817.955	60.06
818.129	59.1
818.302	58.53
818.475	64.33
818.649	80.59
818.822	81.29
818.996	85.44
819.169	78.59
819.342	66.12
819.516	55.64
819.689	51.56
819.862	53.64
820.035	50.38
820.209	49.35
820.382	60.83
820.555	74.21
820.728	65.59
820.901	75.77
821.075	77.56
821.248	68.38
821.421	64.05
821.594	81.07
821.767	82.8
821.94	74.4
822.113	86.09
822.286	72.31
822.459	57.53
822.632	45.84
822.805	58.25
822.978	49.64
823.151	59.71
823.324	62.65
823.496	71.88
823.669	67.28
823.842	63.34
824.015	66.4
824.188	67.52
824.361	55.11
824.533	50.75
824.706	46.38
824.879	41.98
825.051	39.74
825.224	44.04
825.397	51.2
825.569	50.15
825.742	52.38
825.915	57.45
826.087	65.6
826.26	64.06
826.432	67.65
826.605	77.26
826.777	69.3
826.95	67.67
827.122	72.38
827.295	71.97
827.467	75.32
827.64	72.02
827.812	61.72
827.984	79.7
828.157	77.57
828.329	75.23
828.501	95.73
828.674	106.4
828.846	82.7
829.018	97.52
829.19	77.29
829.363	68.52
829.535	60.07
829.707	75.69
829.879	62.43
830.051	71.81
830.223	69.18
830.395	65.06
830.568	62.32
830.74	57.03
830.912	42.97
831.084	43.38
831.256	29.58
831.428	39.93
831.6	51.34
831.772	52.71
831.943	45.24
832.115	72.87
832.287	69.16
832.459	62.85
832.631	69.58
832.803	71.29
832.975	60.88
833.146	48.23
833.318	52.44
833.49	76.81
833.662	82.91
833.833	74.67
834.005	72.2
834.177	62.21
834.348	57.08
834.52	50.55
834.692	71.85
834.863	82.86
835.035	89.14
835.206	60.21
835.378	60.89
835.549	51.97
835.721	47.13
835.892	38.83
836.064	50.74
836.235	59.79
836.407	41.75
836.578	57.12
836.749	78.58
836.921	79.43
837.092	62.89
837.264	77.89
837.435	74.08
837.606	22.73
837.777	21.76
837.949	51.8
838.12	55.41
838.291	41.4
838.462	57.3
838.633	68.28
838.805	49.11
838.976	54.81
839.147	48.06
839.318	48.4
839.489	38.29
839.66	44.04
839.831	45.24
840.002	59.23
840.173	59.69
840.344	35.06
840.515	19.14
840.686	7.67
840.857	5.88
841.028	17.01
841.199	45.45
841.369	62.58
841.54	100.15
841.711	97.09
841.882	103.02
842.053	82.35
842.223	81.88
842.394	66.18
842.565	77.72
842.736	104.43
842.906	130.79
843.077	100.53
843.248	103.2
843.418	102.14
843.589	69.91
843.759	76.14
843.93	93.86
844.101	87.12
844.271	96.07
844.442	76.87
844.612	63.19
844.783	59.63
844.953	59.93
845.123	51.64
845.294	67.39
845.464	82.3
845.635	46.59
845.805	52.38
845.975	43.06
846.146	22.75
846.316	18.71
846.486	25.88
846.656	20.44
846.827	21.05
846.997	33.89
847.167	33.54
847.337	1.14
847.507	1.56
847.677	4.7
847.848	-2.32
848.018	14.62
848.188	49.74
848.358	53.48
848.528	29.42
848.698	27.53
848.868	7.65
849.038	-7.81
849.208	0.63
849.378	20.91
849.548	45.8
849.718	74.75
849.887	87.56
850.057	96.05
850.227	130.72
850.397	91.56
850.567	77.15
850.737	73.78
850.906	60.7
851.076	50.83
851.246	41.52
851.415	42.9
851.585	35.05
851.755	38.23
851.924	60.34
852.094	75.71
852.264	77.04
852.433	67.53
852.603	58.09
852.772	70.1
852.942	56.69
853.111	54.15
853.281	65.84
853.45	65.68
853.62	44.96
853.789	22.02
853.959	22.73
854.128	13.77
854.297	29.74
854.467	13.23
854.636	49.87
854.805	71.96
854.975	49.51
855.144	-20.67
855.313	52.68
855.482	47.24
855.652	20.26
855.821	46.99
855.99	53.09
856.159	107.18
856.328	101.49
856.497	139.83
856.667	117.5
856.836	201.02
857.005	185.93
857.174	240.68
857.343	203.29
857.512	242.9
857.681	64.56
857.85	48.95
858.019	41.86
858.188	53.37
858.356	80.66
858.525	86.91
858.694	73.25
858.863	94.72
859.032	72.89
859.201	39.48
859.369	64.38
859.538	71.02
859.707	62.77
859.876	65.62
860.044	71.69
860.213	67.62
860.382	80.33
860.55	105.44
860.719	112.87
860.888	79.53
861.056	52.48
861.225	27.53
861.393	31.28
861.562	26.17
861.73	52.4
861.899	64.73
862.067	78.58
862.236	99.58
862.404	87.93
862.572	86
862.741	73.36
862.909	82.51
863.078	44.95
863.246	47.62
863.414	57.73
863.582	63.44
863.751	56.81
863.919	71.63
864.087	115.54
864.255	82.36
864.424	82.47
864.592	69.43
864.76	65.89
864.928	55.47
865.096	51.52
865.264	69.86
865.432	70.76
865.6	46.91
865.768	45.35
865.936	50.85
866.104	45.7
866.272	64.48
866.44	88.51
866.608	45.41
866.776	38.34
866.944	-12.4
867.112	14.84
867.28	-134.17
867.448	-24.6
867.615	54.73
867.783	69.99
867.951	5.42
868.119	5.11
868.286	12.94
868.454	-14.76
868.622	-49.87
868.789	-102
868.957	-35.69
869.125	-107.7
869.292	-103.26
869.46	-83.25
869.627	-30.57
869.795	-24.97
869.963	-8.81
870.13	5.12
870.298	12.58
870.465	-4.18
870.632	22.61
870.8	21.56
870.967	11.24
871.135	20.82
871.302	61.37
871.469	228.61
871.637	-3.05
871.804	80.49
871.971	56.18
872.139	35.05
872.306	61.25
872.473	51.54
872.64	27.38
872.807	27.19
872.975	38.49
873.142	2.17
873.309	-1714.49
873.476	4.08
873.643	29.16
873.81	30.03
873.977	45.38
874.144	74.81
874.311	47.89
874.478	42.94
874.645	59.54
874.812	53.45
874.979	38.43
875.146	72.27
875.313	125.84
875.48	238.32
875.647	-486.43
875.813	807.56
875.98	-902.02
876.147	280.89
876.314	95.51
876.481	-60.95
876.647	11.46
876.814	32.48
876.981	-13.55
877.147	27.34
877.314	68.4
877.481	63.22
877.647	81.42
877.814	76.51
877.98	65.42
878.147	58.91
878.314	47.42
878.48	5.31
878.647	55.65
878.813	487.6
878.979	148.86
879.146	108.69
879.312	129.19
879.479	101.39
879.645	97.5
879.811	79.78
879.978	85.3
880.144	82.76
880.31	69.45
880.477	40.86
880.643	49.46
880.809	82.5
880.975	-166.67
881.142	317.11
881.308	-262.67
881.474	78.05
881.64	16.21
881.806	78.06
881.972	82.13
882.138	63.41
882.304	90.52
882.47	122.26
882.636	13.9
882.802	65.31
882.968	207.71
883.134	85.61
883.3	34.79
883.466	64.55
883.632	61.55
883.798	20.52
883.964	-13.55
884.129	-33.57
884.295	-17.16
884.461	-32.32
884.627	-4.4
884.793	-33.53
884.958	40.71
885.124	84.17
885.29	110.18
885.455	186.34
885.621	139.8
885.787	42.37
885.952	195.71
886.118	269.06
886.283	-3864.91
886.449	-71.79
886.614	3.57
886.78	57.02
886.945	40.19
887.111	59.72
887.276	39.61
887.442	16.38
887.607	-67.81
887.773	-5.21
887.938	-22.94
888.103	23.73
888.269	45.56
888.434	75.57
888.599	87.02
888.764	84.68
888.93	72.56
889.095	79.72
889.26	152.77
889.425	272.32
889.59	-622.71
889.756	590.59
889.921	219.74
890.086	159.38
890.251	66.89
890.416	15.72
890.581	-15.27
890.746	24.66
890.911	-27.97
891.076	21.42
891.241	23.71
891.406	61.12
891.571	10.2
891.736	67.93
891.901	15.49
892.065	0.92
892.23	-32.13
892.395	21.23
892.56	-147
892.725	97.14
892.889	89.82
893.054	56.06
893.219	35.23
893.384	65.05
893.548	-152.98
893.713	509.88
893.878	141.81
