Data from Ofav_SP_Phys_6JQ16_Reflection_3.txt Node
Date: Thu Aug 05 17:54:16 EDT 2021
User: Adam
Spectrometer: FLMT01687
Trigger mode: 0
Integration Time (sec): 8.000000E-1
Scans to average: 2
Electric dark correction enabled: true
Nonlinearity correction enabled: false
Boxcar width: 2
XAxis mode: Wavelengths
Number of Pixels in Spectrum: 3648
>>>>>Begin Spectral Data<<<<<
179.494	572.88
179.716	683.37
179.937	572.48
180.158	716.61
180.38	1750.8
180.601	-877.3
180.823	-104.03
181.044	-105.36
181.265	-12.66
181.486	-42.29
181.708	-164.43
181.929	75.05
182.15	-423.27
182.372	3.9
182.593	-25.04
182.814	-362.57
183.035	-273.93
183.257	-714.95
183.478	701.36
183.699	-734.65
183.92	-214.39
184.141	895.52
184.363	-982.16
184.584	288.7
184.805	137.93
185.026	81.58
185.247	95.77
185.468	109.73
185.689	129.06
185.91	107.54
186.132	49.81
186.353	12.54
186.574	-151.65
186.795	-46.01
187.016	-53.82
187.237	28.77
187.458	-33.42
187.679	83.55
187.9	-7.73
188.121	21.98
188.342	3.37
188.563	36.99
188.784	76.81
189.005	62.7
189.226	75.88
189.447	67.54
189.667	190.34
189.888	428.66
190.109	255.74
190.33	199.67
190.551	187.44
190.772	167.95
190.993	90
191.214	76.94
191.434	71.85
191.655	62.84
191.876	60.58
192.097	41.78
192.318	56.87
192.538	60.91
192.759	72.62
192.98	23.06
193.201	143.13
193.421	4.57
193.642	2.71
193.863	-16.44
194.083	29.58
194.304	46.28
194.525	69.8
194.745	51.6
194.966	39.36
195.187	41.32
195.407	26.12
195.628	33.65
195.848	59.89
196.069	80.78
196.29	77.97
196.51	104.24
196.731	79.46
196.951	87.74
197.172	89.81
197.392	102.85
197.613	73.31
197.833	87.28
198.054	80.29
198.274	59.42
198.495	75.1
198.715	111.39
198.936	101.79
199.156	107.19
199.377	106.65
199.597	87.19
199.817	61.26
200.038	60.71
200.258	47.52
200.479	44.31
200.699	39.83
200.919	40.47
201.14	8.75
201.36	-6.84
201.58	25.67
201.801	-45.48
202.021	-48.36
202.241	26.45
202.461	1.18
202.682	-47.59
202.902	-98.41
203.122	-68.46
203.342	24.74
203.563	61.25
203.783	138.09
204.003	99.67
204.223	95.56
204.443	86.55
204.663	94.5
204.884	72.52
205.104	75.48
205.324	62.31
205.544	53.07
205.764	58.53
205.984	48.8
206.204	52.48
206.424	79.34
206.644	58.49
206.864	48.91
207.084	65.85
207.304	126.89
207.525	104.45
207.745	146.87
207.964	159.17
208.184	123.29
208.404	31.95
208.624	53.2
208.844	28.41
209.064	29.71
209.284	71.48
209.504	94.35
209.724	54.09
209.944	50.98
210.164	31.79
210.384	32.44
210.604	17.68
210.823	38.5
211.043	34.25
211.263	34.39
211.483	23.09
211.703	45.36
211.922	60.34
212.142	109.69
212.362	106.15
212.582	122.64
212.801	111.28
213.021	67.44
213.241	19.4
213.461	26.05
213.68	37.69
213.9	4.24
214.12	5.11
214.339	20.26
214.559	41.91
214.779	41.76
214.998	115
215.218	127.21
215.438	155.15
215.657	172.08
215.877	171.24
216.096	55.05
216.316	43.23
216.535	-20.41
216.755	-69.09
216.974	-143.74
217.194	63.15
217.413	39.93
217.633	64.61
217.852	67.18
218.072	56.99
218.291	45.55
218.511	71.25
218.73	54.13
218.95	43.16
219.169	24.05
219.389	80.69
219.608	56.05
219.827	68.86
220.047	83.02
220.266	85.36
220.485	50.85
220.705	61.47
220.924	60.69
221.143	33.08
221.363	24.37
221.582	37.26
221.801	26.41
222.021	70.48
222.24	112.39
222.459	206.01
222.678	157.98
222.897	119.78
223.117	95.65
223.336	80.73
223.555	59.54
223.774	2.25
223.993	23.57
224.213	36.07
224.432	17.43
224.651	14.38
224.87	42.56
225.089	48.24
225.308	-3.13
225.527	22.48
225.746	15.67
225.965	21.7
226.184	2.77
226.404	44.97
226.623	31.89
226.842	32.61
227.061	49.48
227.28	76.44
227.499	77.71
227.718	61.64
227.936	56.76
228.155	34.06
228.374	10.01
228.593	-1.74
228.812	9.72
229.031	24.55
229.25	30.09
229.469	35.44
229.688	47.13
229.907	42.16
230.125	29.9
230.344	41.42
230.563	63.65
230.782	68.97
231.001	90.69
231.22	119.38
231.438	84.15
231.657	62.48
231.876	86.97
232.095	58
232.313	28.98
232.532	9.74
232.751	12.23
232.969	18.46
233.188	36.13
233.407	33.71
233.625	58.5
233.844	32.97
234.063	46.1
234.281	48.91
234.5	58.61
234.719	95.04
234.937	96.56
235.156	68.46
235.374	51.64
235.593	52.68
235.811	28.72
236.03	48.83
236.249	68.61
236.467	56.81
236.686	66.68
236.904	59.33
237.123	26.35
237.341	38.76
237.559	42.86
237.778	31.04
237.996	36.99
238.215	50.91
238.433	40.59
238.652	47.33
238.87	31.26
239.088	12.22
239.307	16.61
239.525	-2.34
239.743	-13.31
239.962	27.32
240.18	43.41
240.398	33.68
240.617	14.86
240.835	61.56
241.053	21.09
241.271	13.33
241.49	36.78
241.708	38.71
241.926	-6.71
242.144	-21.81
242.363	18.26
242.581	26.09
242.799	2.47
243.017	26.56
243.235	12.76
243.453	7.52
243.672	-2.86
243.89	44.66
244.108	116.62
244.326	147.65
244.544	153.24
244.762	115.4
244.98	102.68
245.198	93.34
245.416	76.63
245.634	84.28
245.852	103.83
246.07	96.86
246.288	44.81
246.506	15.62
246.724	28.41
246.942	19.01
247.16	5.1
247.378	63.43
247.596	36.28
247.814	42.22
248.032	1.88
248.25	-8.07
248.468	-3
248.685	5.96
248.903	-8.74
249.121	10.41
249.339	23.65
249.557	16.75
249.775	35.46
249.992	21.55
250.21	33.86
250.428	13.74
250.646	33.02
250.863	49.48
251.081	81.92
251.299	70.09
251.517	102.7
251.734	76.22
251.952	51.22
252.17	62.72
252.387	57.86
252.605	71.81
252.823	68.8
253.04	63.8
253.258	52.08
253.475	71.61
253.693	37.94
253.911	48.3
254.128	38.34
254.346	43.71
254.563	26.01
254.781	36.7
254.998	25.79
255.216	14.61
255.433	6.6
255.651	28.72
255.868	-1.73
256.086	-1
256.303	0.11
256.521	-37.24
256.738	-84.89
256.956	-75.12
257.173	35.49
257.39	99.31
257.608	99.32
257.825	79.59
258.043	63.76
258.26	50.43
258.477	20.13
258.695	34.92
258.912	38.15
259.129	42.34
259.346	42.1
259.564	58.11
259.781	73.29
259.998	71.63
260.216	71.62
260.433	66.55
260.65	72.83
260.867	33.03
261.084	71.43
261.302	50.98
261.519	69.27
261.736	76.03
261.953	65.36
262.17	48.46
262.387	113.34
262.604	104.83
262.822	93.81
263.039	125.18
263.256	134.63
263.473	68.84
263.69	76.57
263.907	56.42
264.124	37.82
264.341	29.9
264.558	40.48
264.775	33.88
264.992	70.16
265.209	69.71
265.426	69.81
265.643	46.35
265.86	35.06
266.077	17.5
266.294	25.01
266.51	27.74
266.727	48.27
266.944	90.05
267.161	79.28
267.378	54.34
267.595	53.9
267.812	13.89
268.028	-3.13
268.245	6.5
268.462	10.01
268.679	10.43
268.896	29.04
269.112	19.66
269.329	42.29
269.546	55.91
269.763	57.52
269.979	65.14
270.196	81.38
270.413	67.04
270.629	67.18
270.846	61.02
271.063	71.17
271.279	56.58
271.496	53.21
271.712	-21.66
271.929	-8.07
272.146	2.98
272.362	-6.83
272.579	2.45
272.795	12.07
273.012	31.25
273.228	35.16
273.445	40.22
273.661	41.11
273.878	46.32
274.094	16.74
274.311	14.36
274.527	-3.74
274.744	-26.94
274.96	-12.23
275.177	-6.17
275.393	0.65
275.609	13.66
275.826	38.83
276.042	46.82
276.259	56.51
276.475	48.71
276.691	34.13
276.908	33.26
277.124	46.92
277.34	60.89
277.557	25.05
277.773	50.41
277.989	58.16
278.205	69.41
278.422	32.74
278.638	69.42
278.854	69.21
279.07	50.76
279.286	18.38
279.503	26.99
279.719	4.91
279.935	13.4
280.151	30.59
280.367	73.5
280.583	71
280.799	93.75
281.016	83.2
281.232	97.45
281.448	61.31
281.664	27.68
281.88	14.38
282.096	46.03
282.312	38.94
282.528	48.5
282.744	45.59
282.96	39.33
283.176	47.33
283.392	47.63
283.608	42.38
283.824	49.43
284.04	47.58
284.256	31.22
284.471	25.44
284.687	38.7
284.903	46.72
285.119	60.07
285.335	52.14
285.551	53.53
285.767	21.46
285.982	-2.95
286.198	-77.35
286.414	-25.07
286.63	15.34
286.846	49.03
287.061	30.86
287.277	38.53
287.493	53.66
287.709	38.47
287.924	33.31
288.14	55.83
288.356	63.77
288.571	57.24
288.787	60.65
289.003	97.99
289.218	106.84
289.434	81.92
289.65	101.59
289.865	84.28
290.081	40.73
290.296	45.51
290.512	50.45
290.727	45.16
290.943	32.32
291.159	49.51
291.374	58.19
291.59	59.98
291.805	49.59
292.021	106.08
292.236	132.91
292.451	140.82
292.667	158.54
292.882	124.71
293.098	54.45
293.313	52.67
293.529	62.28
293.744	49.31
293.959	47.05
294.175	65.4
294.39	38.61
294.605	22.85
294.821	25.7
295.036	24.18
295.251	20.53
295.467	35.26
295.682	33.84
295.897	38.75
296.112	51.31
296.328	51.55
296.543	48.07
296.758	45.82
296.973	61.6
297.188	65.13
297.404	52.24
297.619	59.19
297.834	54.43
298.049	14.85
298.264	-1.77
298.479	19.23
298.694	7
298.909	41.41
299.125	53.78
299.34	40.38
299.555	25.16
299.77	41.64
299.985	32.85
300.2	40.76
300.415	51.68
300.63	44.65
300.845	17.03
301.06	26.97
301.275	11.27
301.49	15.87
301.704	20.05
301.919	53.64
302.134	35.64
302.349	43.72
302.564	14.74
302.779	13.69
302.994	18.22
303.209	44.6
303.423	53.56
303.638	73.47
303.853	85.06
304.068	51.94
304.283	38.56
304.497	26.25
304.712	27.03
304.927	32.46
305.142	54.7
305.356	56.06
305.571	75.5
305.786	59.69
306	63.28
306.215	70.84
306.43	78.36
306.644	76.05
306.859	92.55
307.074	89.4
307.288	84.63
307.503	72.83
307.717	67.6
307.932	38.85
308.147	48.8
308.361	46.39
308.576	30.69
308.79	9.82
309.005	31.99
309.219	-2.68
309.434	-23.7
309.648	-62.29
309.863	-32.99
310.077	-100.89
310.292	-87.04
310.506	-51.45
310.72	2.81
310.935	29.41
311.149	81.04
311.364	98.94
311.578	91.64
311.792	81.71
312.007	54.38
312.221	29.67
312.435	33.99
312.649	37.17
312.864	38.36
313.078	56.71
313.292	81.19
313.507	89.65
313.721	94.41
313.935	97.57
314.149	77.95
314.363	81.29
314.578	49.77
314.792	35.26
315.006	34.46
315.22	42.31
315.434	-20.23
315.648	-45.98
315.862	-22.89
316.077	-22.37
316.291	-9.77
316.505	48.91
316.719	66.59
316.933	36.99
317.147	36.43
317.361	21.45
317.575	1.53
317.789	-8.99
318.003	6.62
318.217	41.28
318.431	86.01
318.645	87.41
318.859	87.63
319.073	45.73
319.287	22.56
319.5	7.95
319.714	-2.96
319.928	18.83
320.142	47.2
320.356	43.37
320.57	58.6
320.784	88.72
320.997	77.09
321.211	65.89
321.425	56.77
321.639	-19.88
321.853	-13.02
322.066	-7.42
322.28	-22.19
322.494	-12.07
322.707	23.89
322.921	25.69
323.135	25.11
323.349	46.57
323.562	55.64
323.776	62.15
323.989	39.59
324.203	39.07
324.417	39.12
324.63	18.42
324.844	-2.68
325.057	19.29
325.271	1.96
325.485	10.99
325.698	29.01
325.912	37.37
326.125	47.65
326.339	79.6
326.552	78.55
326.766	66.74
326.979	80.97
327.193	49.28
327.406	21.17
327.619	20.41
327.833	3.96
328.046	11.75
328.26	6.6
328.473	4.1
328.686	5.35
328.9	25.39
329.113	11.31
329.326	17.94
329.54	31.72
329.753	44.24
329.966	54.61
330.179	58.11
330.393	86.45
330.606	93.3
330.819	92.57
331.032	108.74
331.246	122.86
331.459	70.34
331.672	56.24
331.885	52.04
332.098	60.89
332.311	53.82
332.525	64.61
332.738	55.49
332.951	52.34
333.164	41.87
333.377	31.31
333.59	26.61
333.803	11.68
334.016	-20.16
334.229	-39.63
334.442	-44.08
334.655	-15.02
334.868	11.34
335.081	34.63
335.294	51.46
335.507	69.36
335.72	65.54
335.933	51.1
336.146	54.16
336.359	58.36
336.572	61.67
336.785	50.21
336.997	65.67
337.21	79.99
337.423	82.11
337.636	81.51
337.849	80.88
338.062	86.87
338.274	75.49
338.487	63.23
338.7	54.6
338.913	67.14
339.125	63.44
339.338	56.01
339.551	55.38
339.763	81.1
339.976	69.35
340.189	67.18
340.402	63.39
340.614	55.41
340.827	58.64
341.039	44.73
341.252	34.13
341.465	41.19
341.677	49.35
341.89	8.52
342.102	38.62
342.315	26.21
342.527	32.46
342.74	6.94
342.952	23.81
343.165	20.44
343.377	50.99
343.59	27.67
343.802	46.28
344.015	30.46
344.227	33.37
344.44	29.73
344.652	30.82
344.864	27.31
345.077	37.13
345.289	13.11
345.502	14.44
345.714	18.23
345.926	36.66
346.139	37.41
346.351	32.11
346.563	24.63
346.775	25.95
346.988	2.62
347.2	18.08
347.412	53.3
347.624	68.38
347.837	58.8
348.049	51.32
348.261	23.89
348.473	35.35
348.685	29
348.897	46.96
349.11	45.12
349.322	39.37
349.534	11.24
349.746	28.88
349.958	15.68
350.17	17.36
350.382	21.31
350.594	27.23
350.806	32.36
351.018	46.88
351.23	47.75
351.442	66.94
351.654	65.19
351.866	59.07
352.078	37.42
352.29	39.45
352.502	37.18
352.714	13.62
352.926	17.76
353.138	31.68
353.35	43.72
353.561	37.99
353.773	44.29
353.985	47.92
354.197	48.61
354.409	30.35
354.621	16.37
354.832	30.67
355.044	36.33
355.256	49.6
355.468	56.43
355.679	67.09
355.891	67.42
356.103	64.03
356.314	52.51
356.526	49.35
356.738	26.3
356.949	-2.91
357.161	9.3
357.373	2.05
357.584	13.58
357.796	33.84
358.008	54.9
358.219	35.46
358.431	56.92
358.642	52.66
358.854	62.98
359.065	69.03
359.277	78.89
359.488	67.22
359.7	61.24
359.911	46.65
360.123	45.88
360.334	41.99
360.546	31.77
360.757	36.95
360.969	40.11
361.18	37.42
361.391	46.37
361.603	68.14
361.814	64.34
362.025	81.53
362.237	65.72
362.448	65.23
362.659	64.05
362.871	54.45
363.082	38.92
363.293	44.09
363.504	38.83
363.716	41.27
363.927	39.01
364.138	32.1
364.349	3.4
364.56	3.86
364.772	9.11
364.983	13.8
365.194	36.66
365.405	60.06
365.616	52.16
365.827	48.8
366.038	62.02
366.25	61.92
366.461	55.81
366.672	59.33
366.883	50.34
367.094	39.79
367.305	43.23
367.516	50.08
367.727	55.13
367.938	59.88
368.149	46.69
368.36	32.74
368.571	35.36
368.781	29.98
368.992	21.41
369.203	37.4
369.414	32.24
369.625	33.79
369.836	20.23
370.047	16.26
370.258	15.5
370.468	18.43
370.679	6.56
370.89	11.03
371.101	18.81
371.312	19.19
371.522	19.35
371.733	23.73
371.944	16.71
372.155	21.94
372.365	9.6
372.576	9.26
372.787	3.19
372.997	18.49
373.208	16.32
373.419	28.17
373.629	27.77
373.84	48.22
374.05	36.72
374.261	31.46
374.472	33.12
374.682	28.73
374.893	20.07
375.103	9.34
375.314	20.57
375.524	14.95
375.735	19.12
375.945	41.9
376.156	54.32
376.366	55.68
376.577	60.16
376.787	64.2
376.997	44.17
377.208	53.03
377.418	45.12
377.629	45.79
377.839	51.22
378.049	59.63
378.26	36.16
378.47	41.81
378.68	53.39
378.89	33.04
379.101	25.16
379.311	36.35
379.521	31.29
379.732	25.16
379.942	36.29
380.152	42.56
380.362	56.92
380.572	59.86
380.783	56.23
380.993	59.34
381.203	62.59
381.413	50.47
381.623	51.66
381.833	53.68
382.043	53.62
382.253	45.54
382.463	53.75
382.674	45.17
382.884	34.56
383.094	26.5
383.304	22.97
383.514	13.93
383.724	3.91
383.934	4.66
384.144	7.24
384.353	13.14
384.563	9.4
384.773	22.74
384.983	16.4
385.193	22.29
385.403	17.61
385.613	21.23
385.823	14.57
386.033	20.6
386.242	13.46
386.452	18.2
386.662	16.53
386.872	14.3
387.082	15.82
387.291	2.38
387.501	1.55
387.711	2.17
387.921	5.65
388.13	3.07
388.34	16.59
388.55	14.4
388.759	11.06
388.969	10.29
389.179	10.6
389.388	10.02
389.598	10.85
389.807	13.56
390.017	11.8
390.227	13.72
390.436	11.07
390.646	8.9
390.855	7.29
391.065	7.71
391.274	6.22
391.484	8.17
391.693	8.64
391.903	9.65
392.112	11.42
392.322	9.75
392.531	9.89
392.74	10.64
392.95	8.58
393.159	7.79
393.369	10.69
393.578	10.71
393.787	10.35
393.997	11.46
394.206	10.58
394.415	9.9
394.625	10.7
394.834	10.46
395.043	9.81
395.252	10.36
395.462	10.5
395.671	9.71
395.88	10.57
396.089	10.7
396.298	10.95
396.508	10.56
396.717	10.02
396.926	9.24
397.135	8.64
397.344	7.65
397.553	7.46
397.762	7.54
397.971	7.16
398.181	7.36
398.39	6.96
398.599	7.34
398.808	7.39
399.017	7.73
399.226	7.79
399.435	8.33
399.644	8.32
399.853	8.62
400.062	8.63
400.27	8.57
400.479	8.31
400.688	7.98
400.897	7.61
401.106	7.32
401.315	7.26
401.524	7.52
401.733	7.47
401.941	7.59
402.15	7.58
402.359	7.44
402.568	7.36
402.777	7.26
402.985	6.97
403.194	6.8
403.403	6.75
403.612	6.46
403.82	6.47
404.029	6.41
404.238	6.66
404.446	6.71
404.655	6.92
404.864	6.94
405.072	6.86
405.281	6.65
405.489	6.69
405.698	6.72
405.906	6.5
406.115	6.44
406.324	6.7
406.532	6.51
406.741	6.33
406.949	6.4
407.158	6.56
407.366	6.32
407.574	6.48
407.783	6.5
407.991	6.45
408.2	6.33
408.408	6.24
408.617	6.19
408.825	6.15
409.033	6.21
409.242	6.21
409.45	6.15
409.658	6.04
409.867	6.05
410.075	6.01
410.283	6.06
410.491	6.13
410.7	6.12
410.908	6.13
411.116	6.09
411.324	6.13
411.533	6.1
411.741	6.01
411.949	5.92
412.157	5.96
412.365	6.16
412.573	6.1
412.781	6.34
412.99	6.47
413.198	6.59
413.406	6.46
413.614	6.63
413.822	6.56
414.03	6.53
414.238	6.32
414.446	6.33
414.654	6.26
414.862	6.13
415.07	6.2
415.278	6.3
415.486	6.07
415.694	6.13
415.902	6.17
416.109	5.87
416.317	5.82
416.525	5.65
416.733	5.57
416.941	5.85
417.149	6.1
417.357	6.17
417.564	6.22
417.772	6.15
417.98	5.88
418.188	5.62
418.395	5.37
418.603	5.55
418.811	5.49
419.019	5.47
419.226	5.69
419.434	6.04
419.642	5.97
419.849	6.12
420.057	6
420.265	5.96
420.472	5.59
420.68	5.47
420.887	5.39
421.095	5.55
421.302	5.59
421.51	5.67
421.717	5.84
421.925	5.88
422.132	5.97
422.34	5.97
422.547	5.97
422.755	5.91
422.962	6
423.17	5.85
423.377	5.62
423.585	5.75
423.792	5.78
423.999	5.69
424.207	5.43
424.414	5.32
424.621	5.25
424.829	5.24
425.036	5.23
425.243	5.65
425.451	5.83
425.658	5.76
425.865	5.7
426.072	5.65
426.28	5.52
426.487	5.52
426.694	5.58
426.901	5.75
427.108	5.91
427.315	5.88
427.523	5.97
427.73	5.85
427.937	5.54
428.144	5.46
428.351	5.54
428.558	5.34
428.765	5.3
428.972	5.54
429.179	5.38
429.386	5.24
429.593	5.44
429.8	5.59
430.007	5.45
430.214	5.54
430.421	5.81
430.628	5.7
430.835	5.79
431.042	5.78
431.249	5.77
431.456	5.59
431.662	5.8
431.869	5.71
432.076	5.86
432.283	6.04
432.49	5.92
432.697	5.78
432.903	5.85
433.11	5.76
433.317	5.57
433.524	5.75
433.73	5.77
433.937	5.69
434.144	5.79
434.35	5.83
434.557	5.7
434.764	5.7
434.97	5.68
435.177	5.75
435.384	5.61
435.59	5.66
435.797	5.76
436.003	5.66
436.21	5.43
436.416	5.51
436.623	5.42
436.829	5.32
437.036	5.4
437.242	5.46
437.449	5.68
437.655	5.93
437.862	6.15
438.068	6.37
438.275	6.42
438.481	6.35
438.687	6.1
438.894	6.02
439.1	5.76
439.307	5.8
439.513	5.75
439.719	5.78
439.926	5.68
440.132	5.81
440.338	5.85
440.544	5.89
440.751	5.97
440.957	6.01
441.163	5.93
441.369	5.9
441.575	5.89
441.782	5.98
441.988	6.02
442.194	5.96
442.4	5.98
442.606	5.97
442.812	5.91
443.018	5.82
443.224	5.93
443.431	5.87
443.637	5.84
443.843	5.76
444.049	5.73
444.255	5.79
444.461	5.85
444.667	5.88
444.873	5.88
445.079	5.87
445.284	5.96
445.49	5.89
445.696	5.93
445.902	5.95
446.108	5.95
446.314	5.72
446.52	5.83
446.726	5.88
446.931	5.91
447.137	5.92
447.343	6.02
447.549	6
447.755	5.98
447.96	6.1
448.166	6.08
448.372	6.19
448.578	6.16
448.783	6.29
448.989	6.13
449.195	6.28
449.4	6.21
449.606	6.22
449.812	6.12
450.017	6.28
450.223	6.15
450.428	6.14
450.634	6.2
450.84	6.17
451.045	6.07
451.251	6.24
451.456	6.35
451.662	6.41
451.867	6.52
452.073	6.68
452.278	6.59
452.483	6.54
452.689	6.5
452.894	6.58
453.1	6.53
453.305	6.63
453.51	6.66
453.716	6.68
453.921	6.61
454.127	6.7
454.332	6.6
454.537	6.71
454.742	6.77
454.948	6.67
455.153	6.54
455.358	6.6
455.563	6.59
455.769	6.41
455.974	6.51
456.179	6.47
456.384	6.38
456.589	6.4
456.795	6.48
457	6.52
457.205	6.65
457.41	6.85
457.615	6.72
457.82	6.81
458.025	6.8
458.23	6.77
458.435	6.68
458.64	6.65
458.845	6.67
459.05	6.64
459.255	6.64
459.46	6.79
459.665	6.97
459.87	6.94
460.075	6.98
460.28	7.01
460.485	6.98
460.69	6.97
460.895	6.84
461.099	6.89
461.304	6.92
461.509	6.93
461.714	6.9
461.919	7.14
462.123	7.14
462.328	7.18
462.533	7.15
462.738	7.27
462.942	7.27
463.147	7.34
463.352	7.43
463.556	7.45
463.761	7.3
463.966	7.19
464.17	7.22
464.375	7.16
464.58	7.14
464.784	7.21
464.989	7.35
465.193	7.29
465.398	7.49
465.602	7.76
465.807	7.88
466.011	7.9
466.216	8.01
466.42	7.96
466.625	7.87
466.829	7.91
467.034	7.93
467.238	7.85
467.443	7.7
467.647	7.52
467.851	7.43
468.056	7.41
468.26	7.45
468.464	7.43
468.669	7.68
468.873	7.68
469.077	7.66
469.282	7.66
469.486	7.69
469.69	7.6
469.894	7.59
470.099	7.5
470.303	7.52
470.507	7.57
470.711	7.54
470.915	7.58
471.119	7.7
471.324	7.78
471.528	7.61
471.732	7.69
471.936	7.74
472.14	7.76
472.344	7.68
472.548	7.85
472.752	7.78
472.956	7.8
473.16	7.89
473.364	7.82
473.568	7.82
473.772	7.89
473.976	7.85
474.18	7.77
474.384	7.88
474.588	7.93
474.792	7.89
474.995	7.89
475.199	7.94
475.403	7.9
475.607	7.95
475.811	7.88
476.015	7.79
476.218	7.72
476.422	7.81
476.626	7.81
476.83	7.97
477.033	8.07
477.237	8.14
477.441	8.1
477.644	8.03
477.848	7.99
478.052	7.89
478.255	7.79
478.459	7.8
478.663	7.79
478.866	7.72
479.07	7.92
479.273	7.92
479.477	7.93
479.681	7.93
479.884	8.06
480.088	7.83
480.291	7.89
480.495	7.86
480.698	7.82
480.901	7.67
481.105	7.9
481.308	7.97
481.512	7.97
481.715	8.06
481.919	8.11
482.122	8.11
482.325	7.97
482.529	7.97
482.732	7.94
482.935	7.94
483.138	7.88
483.342	7.96
483.545	7.95
483.748	7.94
483.952	7.94
484.155	7.93
484.358	7.87
484.561	7.85
484.764	7.87
484.967	7.97
485.171	7.8
485.374	7.8
485.577	7.83
485.78	7.85
485.983	7.77
486.186	7.93
486.389	7.89
486.592	7.81
486.795	7.73
486.998	7.64
487.201	7.59
487.404	7.72
487.607	7.86
487.81	7.85
488.013	7.91
488.216	7.95
488.419	7.91
488.622	7.79
488.825	7.83
489.028	7.77
489.231	7.8
489.433	7.67
489.636	7.69
489.839	7.58
490.042	7.64
490.245	7.53
490.447	7.6
490.65	7.64
490.853	7.75
491.056	7.7
491.258	7.69
491.461	7.73
491.664	7.6
491.866	7.55
492.069	7.6
492.272	7.56
492.474	7.49
492.677	7.52
492.879	7.49
493.082	7.48
493.285	7.56
493.487	7.52
493.69	7.54
493.892	7.58
494.095	7.64
494.297	7.62
494.5	7.72
494.702	7.69
494.905	7.69
495.107	7.56
495.309	7.55
495.512	7.44
495.714	7.47
495.917	7.49
496.119	7.58
496.321	7.56
496.524	7.54
496.726	7.47
496.928	7.39
497.13	7.28
497.333	7.24
497.535	7.45
497.737	7.55
497.939	7.56
498.142	7.63
498.344	7.63
498.546	7.55
498.748	7.49
498.95	7.52
499.152	7.47
499.355	7.48
499.557	7.41
499.759	7.48
499.961	7.42
500.163	7.42
500.365	7.54
500.567	7.51
500.769	7.47
500.971	7.49
501.173	7.5
501.375	7.38
501.577	7.47
501.779	7.43
501.981	7.53
502.183	7.58
502.385	7.53
502.587	7.39
502.788	7.34
502.99	7.24
503.192	7.16
503.394	7.16
503.596	7.21
503.798	7.22
503.999	7.29
504.201	7.24
504.403	7.32
504.605	7.31
504.806	7.21
505.008	7.1
505.21	7.09
505.411	6.98
505.613	7.01
505.815	7.11
506.016	7.14
506.218	7.19
506.42	7.21
506.621	7.18
506.823	7.18
507.024	7.2
507.226	7.28
507.427	7.32
507.629	7.35
507.83	7.38
508.032	7.29
508.233	7.19
508.435	7.15
508.636	7.13
508.838	7.07
509.039	7.13
509.24	7.14
509.442	7.18
509.643	7.24
509.845	7.28
510.046	7.29
510.247	7.4
510.448	7.36
510.65	7.33
510.851	7.31
511.052	7.36
511.254	7.25
511.455	7.23
511.656	7.16
511.857	7.13
512.058	7.03
512.26	7
512.461	7.06
512.662	7.06
512.863	6.97
513.064	7.03
513.265	7.01
513.466	6.95
513.667	6.93
513.868	6.95
514.069	6.92
514.27	6.93
514.471	6.89
514.672	6.97
514.873	6.92
515.074	6.88
515.275	6.88
515.476	6.93
515.677	6.84
515.878	6.94
516.079	6.95
516.28	6.95
516.481	6.89
516.682	6.88
516.882	6.86
517.083	6.83
517.284	6.88
517.485	6.91
517.686	6.97
517.886	6.98
518.087	6.99
518.288	6.92
518.488	6.93
518.689	6.93
518.89	6.89
519.091	6.9
519.291	6.91
519.492	6.94
519.692	6.97
519.893	7.08
520.094	7.02
520.294	7
520.495	6.95
520.695	6.87
520.896	6.84
521.096	6.87
521.297	6.96
521.497	6.98
521.698	7
521.898	7
522.099	6.99
522.299	6.94
522.499	6.92
522.7	6.89
522.9	6.85
523.101	6.82
523.301	6.79
523.501	6.76
523.702	6.79
523.902	6.79
524.102	6.88
524.302	6.81
524.503	6.76
524.703	6.75
524.903	6.74
525.103	6.73
525.304	6.77
525.504	6.88
525.704	6.86
525.904	6.9
526.104	6.82
526.304	6.84
526.504	6.84
526.705	6.87
526.905	6.81
527.105	6.88
527.305	6.87
527.505	6.84
527.705	6.86
527.905	6.87
528.105	6.82
528.305	6.82
528.505	6.83
528.705	6.82
528.905	6.76
529.105	6.74
529.304	6.71
529.504	6.64
529.704	6.65
529.904	6.68
530.104	6.71
530.304	6.73
530.503	6.7
530.703	6.66
530.903	6.71
531.103	6.73
531.303	6.81
531.502	6.87
531.702	6.87
531.902	6.85
532.101	6.83
532.301	6.74
532.501	6.78
532.7	6.78
532.9	6.71
533.1	6.73
533.299	6.74
533.499	6.73
533.698	6.69
533.898	6.81
534.097	6.78
534.297	6.79
534.496	6.76
534.696	6.8
534.895	6.72
535.095	6.63
535.294	6.68
535.494	6.63
535.693	6.66
535.892	6.67
536.092	6.79
536.291	6.7
536.491	6.72
536.69	6.69
536.889	6.63
537.088	6.59
537.288	6.63
537.487	6.67
537.686	6.65
537.886	6.76
538.085	6.82
538.284	6.82
538.483	6.8
538.682	6.89
538.882	6.87
539.081	6.85
539.28	6.84
539.479	6.79
539.678	6.71
539.877	6.68
540.076	6.63
540.275	6.65
540.474	6.6
540.673	6.65
540.872	6.62
541.071	6.7
541.27	6.75
541.469	6.82
541.668	6.8
541.867	6.85
542.066	6.82
542.265	6.85
542.464	6.9
542.663	7.02
542.862	7.06
543.06	7.07
543.259	7.05
543.458	7.05
543.657	7.03
543.856	7.08
544.054	7.1
544.253	7.09
544.452	7.07
544.651	6.99
544.849	6.86
545.048	6.79
545.247	6.8
545.445	6.84
545.644	6.86
545.843	6.96
546.041	7.02
546.24	7
546.438	7
546.637	7.06
546.836	7.14
547.034	7.14
547.233	7.24
547.431	7.31
547.63	7.32
547.828	7.27
548.027	7.28
548.225	7.21
548.423	7.17
548.622	7.18
548.82	7.1
549.019	7.12
549.217	7.11
549.415	7.19
549.614	7.25
549.812	7.34
550.01	7.38
550.209	7.45
550.407	7.41
550.605	7.39
550.803	7.42
551.002	7.45
551.2	7.46
551.398	7.53
551.596	7.55
551.794	7.59
551.993	7.59
552.191	7.64
552.389	7.61
552.587	7.59
552.785	7.56
552.983	7.66
553.181	7.72
553.379	7.81
553.577	7.92
553.775	8
553.973	7.93
554.171	7.95
554.369	7.94
554.567	7.97
554.765	7.99
554.963	8.03
555.161	8.01
555.359	8.05
555.557	8.07
555.755	8.11
555.952	8.16
556.15	8.2
556.348	8.22
556.546	8.33
556.744	8.35
556.941	8.42
557.139	8.5
557.337	8.62
557.535	8.53
557.732	8.54
557.93	8.54
558.128	8.6
558.325	8.58
558.523	8.66
558.721	8.68
558.918	8.68
559.116	8.64
559.313	8.6
559.511	8.79
559.708	8.9
559.906	9.01
560.104	9.06
560.301	9.28
560.498	9.21
560.696	9.2
560.893	9.27
561.091	9.37
561.288	9.37
561.486	9.37
561.683	9.4
561.88	9.44
562.078	9.48
562.275	9.44
562.473	9.52
562.67	9.6
562.867	9.61
563.064	9.59
563.262	9.62
563.459	9.79
563.656	9.78
563.853	9.78
564.051	9.79
564.248	9.89
564.445	9.8
564.642	9.8
564.839	9.9
565.036	10.06
565.234	10.08
565.431	10.19
565.628	10.3
565.825	10.34
566.022	10.42
566.219	10.47
566.416	10.48
566.613	10.5
566.81	10.57
567.007	10.51
567.204	10.53
567.401	10.5
567.598	10.64
567.795	10.67
567.991	10.76
568.188	10.87
568.385	10.94
568.582	10.97
568.779	10.99
568.976	11.09
569.172	11.08
569.369	11.17
569.566	11.14
569.763	11.2
569.96	11.16
570.156	11.24
570.353	11.26
570.55	11.31
570.746	11.28
570.943	11.26
571.14	11.29
571.336	11.34
571.533	11.39
571.729	11.45
571.926	11.52
572.123	11.55
572.319	11.57
572.516	11.54
572.712	11.63
572.909	11.69
573.105	11.72
573.302	11.73
573.498	11.8
573.695	11.67
573.891	11.64
574.087	11.63
574.284	11.67
574.48	11.65
574.677	11.73
574.873	11.78
575.069	11.89
575.266	11.83
575.462	11.83
575.658	11.84
575.854	11.99
576.051	11.9
576.247	11.9
576.443	12
576.639	12.1
576.835	11.9
577.032	11.83
577.228	11.92
577.424	11.88
577.62	11.77
577.816	11.79
578.012	11.94
578.208	11.9
578.404	11.88
578.6	11.94
578.796	11.94
578.993	11.93
579.189	11.98
579.384	11.98
579.58	12.02
579.776	12.1
579.972	11.94
580.168	11.75
580.364	11.74
580.56	11.62
580.756	11.56
580.952	11.59
581.148	11.78
581.343	11.83
581.539	11.91
581.735	11.88
581.931	11.82
582.127	11.79
582.322	11.78
582.518	11.73
582.714	11.69
582.909	11.76
583.105	11.73
583.301	11.67
583.496	11.65
583.692	11.62
583.888	11.58
584.083	11.5
584.279	11.51
584.474	11.52
584.67	11.54
584.866	11.49
585.061	11.51
585.257	11.46
585.452	11.48
585.648	11.61
585.843	11.62
586.039	11.73
586.234	11.72
586.429	11.63
586.625	11.56
586.82	11.56
587.015	11.49
587.211	11.45
587.406	11.45
587.601	11.48
587.797	11.52
587.992	11.42
588.187	11.5
588.383	11.59
588.578	11.59
588.773	11.54
588.968	11.69
589.163	11.7
589.359	11.67
589.554	11.68
589.749	11.74
589.944	11.63
590.139	11.62
590.334	11.62
590.529	11.66
590.724	11.74
590.919	11.86
591.114	11.88
591.309	11.88
591.504	11.87
591.699	11.78
591.894	11.7
592.089	11.64
592.284	11.63
592.479	11.61
592.674	11.6
592.869	11.65
593.064	11.76
593.259	11.83
593.454	11.82
593.648	11.96
593.843	12.01
594.038	11.97
594.233	11.99
594.428	12.07
594.622	12.08
594.817	12.17
595.012	12.1
595.206	12.22
595.401	12.32
595.596	12.27
595.79	12.26
595.985	12.41
596.18	12.45
596.374	12.43
596.569	12.52
596.763	12.54
596.958	12.7
597.153	12.59
597.347	12.64
597.542	12.72
597.736	12.78
597.931	12.73
598.125	12.83
598.319	12.89
598.514	12.88
598.708	12.85
598.903	12.88
599.097	13.05
599.291	13.08
599.486	13.04
599.68	12.98
599.874	13.05
600.069	12.97
600.263	12.99
600.457	13.06
600.651	13.17
600.846	13.23
601.04	13.11
601.234	12.99
601.428	13.07
601.622	13.15
601.817	13.05
602.011	13.14
602.205	13.3
602.399	13.35
602.593	13.3
602.787	13.28
602.981	13.27
603.175	13.25
603.369	13.08
603.563	13.16
603.757	13.21
603.951	13.17
604.145	13.12
604.339	13.19
604.533	13.1
604.727	13.16
604.921	13.27
605.115	13.24
605.309	13.14
605.502	13.18
605.696	13.11
605.89	13.02
606.084	13.03
606.278	13.12
606.471	13.05
606.665	12.97
606.859	12.96
607.053	12.92
607.246	12.85
607.44	12.8
607.634	12.83
607.827	12.8
608.021	12.61
608.214	12.58
608.408	12.63
608.602	12.62
608.795	12.59
608.989	12.68
609.182	12.61
609.376	12.49
609.569	12.35
609.763	12.32
609.956	12.32
610.15	12.28
610.343	12.29
610.537	12.28
610.73	12.22
610.923	12.18
611.117	12.13
611.31	12.01
611.504	11.96
611.697	12.04
611.89	12
612.083	11.99
612.277	11.9
612.47	11.94
612.663	11.77
612.856	11.67
613.05	11.6
613.243	11.55
613.436	11.44
613.629	11.45
613.822	11.45
614.015	11.35
614.209	11.27
614.402	11.23
614.595	11.14
614.788	11.04
614.981	11.02
615.174	11.02
615.367	10.94
615.56	10.85
615.753	10.9
615.946	10.84
616.139	10.92
616.332	10.91
616.525	10.84
616.718	10.73
616.911	10.71
617.103	10.51
617.296	10.5
617.489	10.57
617.682	10.62
617.875	10.67
618.067	10.69
618.26	10.61
618.453	10.47
618.646	10.39
618.838	10.25
619.031	10.22
619.224	10.22
619.417	10.42
619.609	10.46
619.802	10.54
619.994	10.48
620.187	10.45
620.38	10.28
620.572	10.14
620.765	10.13
620.957	10.17
621.15	10.18
621.342	10.2
621.535	10.33
621.727	10.21
621.92	10.23
622.112	10.16
622.305	10.09
622.497	10.01
622.69	9.96
622.882	9.89
623.074	9.93
623.267	10
623.459	9.9
623.651	9.99
623.844	9.95
624.036	9.97
624.228	9.91
624.42	9.95
624.613	9.91
624.805	9.97
624.997	10.01
625.189	9.96
625.381	10
625.574	9.95
625.766	9.92
625.958	9.79
626.15	9.8
626.342	9.72
626.534	9.71
626.726	9.63
626.918	9.62
627.11	9.6
627.302	9.65
627.494	9.57
627.686	9.63
627.878	9.6
628.07	9.63
628.262	9.57
628.454	9.51
628.646	9.45
628.838	9.48
629.029	9.4
629.221	9.39
629.413	9.38
629.605	9.37
629.797	9.35
629.989	9.35
630.18	9.29
630.372	9.29
630.564	9.31
630.755	9.26
630.947	9.24
631.139	9.25
631.33	9.22
631.522	9.17
631.714	9.19
631.905	9.13
632.097	9.1
632.289	9.18
632.48	9.2
632.672	9.09
632.863	9.09
633.055	9.12
633.246	9.1
633.438	9.09
633.629	9.13
633.821	9.15
634.012	9.13
634.203	9.08
634.395	9.06
634.586	9.16
634.777	9.16
634.969	9.07
635.16	9.06
635.351	9
635.543	8.91
635.734	8.86
635.925	8.86
636.117	8.92
636.308	9.06
636.499	9.03
636.69	8.95
636.881	9
637.073	9.05
637.264	8.95
637.455	8.88
637.646	8.97
637.837	9
638.028	8.77
638.219	8.76
638.41	8.82
638.601	8.8
638.792	8.72
638.983	8.81
639.174	8.71
639.365	8.67
639.556	8.63
639.747	8.72
639.938	8.79
640.129	8.9
640.32	8.88
640.511	8.86
640.701	8.78
640.892	8.72
641.083	8.68
641.274	8.68
641.465	8.67
641.655	8.68
641.846	8.71
642.037	8.67
642.228	8.67
642.418	8.74
642.609	8.69
642.8	8.66
642.99	8.59
643.181	8.57
643.372	8.48
643.562	8.49
643.753	8.45
643.943	8.45
644.134	8.41
644.324	8.52
644.515	8.59
644.705	8.48
644.896	8.6
645.086	8.54
645.277	8.49
645.467	8.47
645.658	8.51
645.848	8.32
646.038	8.44
646.229	8.4
646.419	8.27
646.61	8.32
646.8	8.41
646.99	8.4
647.18	8.36
647.371	8.38
647.561	8.32
647.751	8.34
647.941	8.32
648.132	8.32
648.322	8.32
648.512	8.37
648.702	8.37
648.892	8.31
649.082	8.38
649.272	8.3
649.462	8.25
649.653	8.2
649.843	8.24
650.033	8.2
650.223	8.18
650.413	8.16
650.603	8.24
650.793	8.22
650.983	8.17
651.172	8.2
651.362	8.17
651.552	8.06
651.742	7.9
651.932	7.88
652.122	7.92
652.312	7.97
652.502	7.92
652.691	7.95
652.881	8.01
653.071	8.12
653.261	7.93
653.45	7.94
653.64	7.97
653.83	7.87
654.019	7.74
654.209	7.8
654.399	7.71
654.588	7.66
654.778	7.59
654.968	7.53
655.157	7.57
655.347	7.62
655.536	7.55
655.726	7.47
655.915	7.48
656.105	7.33
656.294	7.23
656.484	7.23
656.673	7.24
656.863	7.16
657.052	7.2
657.241	7.21
657.431	7.25
657.62	7.12
657.809	7.03
657.999	7.03
658.188	6.91
658.377	6.83
658.567	6.83
658.756	6.77
658.945	6.68
659.134	6.66
659.324	6.61
659.513	6.5
659.702	6.43
659.891	6.34
660.08	6.26
660.269	6.2
660.458	6.25
660.648	6.39
660.837	6.36
661.026	6.27
661.215	6.27
661.404	6.26
661.593	6.09
661.782	5.97
661.971	6.05
662.16	6.04
662.349	5.95
662.538	5.94
662.726	6.01
662.915	5.96
663.104	5.77
663.293	5.71
663.482	5.76
663.671	5.84
663.86	5.82
664.048	5.92
664.237	6.14
664.426	6.05
664.615	5.97
664.803	5.98
664.992	5.86
665.181	5.74
665.369	5.79
665.558	5.81
665.747	5.92
665.935	6.11
666.124	6.13
666.312	6.14
666.501	6.18
666.69	6.25
666.878	6.16
667.067	6.1
667.255	6.24
667.444	6.38
667.632	6.36
667.82	6.42
668.009	6.5
668.197	6.52
668.386	6.35
668.574	6.2
668.762	6.43
668.951	6.57
669.139	6.38
669.327	6.45
669.516	6.58
669.704	6.37
669.892	6.24
670.08	6.42
670.269	6.4
670.457	6.34
670.645	6.32
670.833	6.42
671.021	6.38
671.21	6.51
671.398	6.53
671.586	6.6
671.774	6.69
671.962	6.79
672.15	6.85
672.338	7
672.526	7.21
672.714	7.34
672.902	7.24
673.09	7.11
673.278	7.07
673.466	7.09
673.654	7.12
673.842	7.4
674.03	7.76
674.218	7.83
674.405	7.86
674.593	7.89
674.781	7.95
674.969	7.83
675.157	8.02
675.344	7.96
675.532	8.07
675.72	8.13
675.908	8.13
676.095	8.14
676.283	8.25
676.471	8.25
676.658	8.1
676.846	8.21
677.033	8.25
677.221	8.22
677.409	8.21
677.596	8.4
677.784	8.47
677.971	8.5
678.159	8.65
678.346	8.78
678.534	8.76
678.721	8.77
678.909	8.82
679.096	8.86
679.283	8.76
679.471	8.76
679.658	8.9
679.846	8.91
680.033	9.2
680.22	9.42
680.408	9.47
680.595	9.38
680.782	9.41
680.969	9.23
681.157	9.13
681.344	9.18
681.531	9.39
681.718	9.55
681.905	9.48
682.093	9.63
682.28	9.84
682.467	9.92
682.654	9.8
682.841	9.85
683.028	9.79
683.215	9.85
683.402	9.75
683.589	9.85
683.776	9.96
683.963	10.06
684.15	10.11
684.337	10.26
684.524	10.43
684.711	10.5
684.898	10.71
685.085	10.55
685.271	10.68
685.458	10.73
685.645	10.72
685.832	10.55
686.019	10.64
686.205	10.69
686.392	10.88
686.579	11.14
686.766	11.41
686.952	11.68
687.139	11.83
687.326	11.72
687.512	11.85
687.699	11.98
687.886	12.15
688.072	12.09
688.259	12.44
688.445	12.53
688.632	12.61
688.818	12.85
689.005	13.14
689.191	13.46
689.378	13.79
689.564	14.28
689.751	14.27
689.937	14.71
690.124	14.98
690.31	15.2
690.496	15.46
690.683	16.09
690.869	16.26
691.055	16.47
691.242	16.94
691.428	17.22
691.614	17.32
691.8	17.67
691.987	18.13
692.173	18.5
692.359	18.91
692.545	19.57
692.731	20.1
692.918	20.72
693.104	21.14
693.29	21.61
693.476	22.34
693.662	22.95
693.848	23.28
694.034	23.59
694.22	24.3
694.406	24.5
694.592	24.8
694.778	25.28
694.964	26.17
695.15	26.56
695.336	26.97
695.522	27.67
695.708	28.36
695.894	28.64
696.08	29.21
696.265	30.17
696.451	30.82
696.637	31.57
696.823	32.5
697.009	33.29
697.194	33.71
697.38	34.45
697.566	34.8
697.751	35.3
697.937	35.86
698.123	36.64
698.308	37.03
698.494	37.69
698.68	38.44
698.865	38.95
699.051	39.5
699.236	40.3
699.422	41.21
699.607	41.67
699.793	42.45
699.978	43.13
700.164	43.72
700.349	44.12
700.535	44.56
700.72	44.85
700.906	45.44
701.091	45.7
701.276	46.25
701.462	46.91
701.647	48.02
701.832	48.26
702.018	49.32
702.203	49.93
702.388	50.61
702.573	51.33
702.759	52.51
702.944	52.8
703.129	53.3
703.314	53.74
703.499	53.82
703.684	53.89
703.87	54.34
704.055	54.74
704.24	55.58
704.425	56.05
704.61	56.8
704.795	57.49
704.98	58.17
705.165	58.38
705.35	59.11
705.535	59.26
705.72	59.77
705.905	60.2
706.09	61.03
706.275	61.35
706.459	61.91
706.644	62.05
706.829	62.57
707.014	63.01
707.199	63.69
707.384	63.82
707.568	64.54
707.753	64.78
707.938	64.74
708.123	64.85
708.307	65.3
708.492	65.33
708.677	65.07
708.861	65.6
709.046	65.46
709.231	66.08
709.415	66.65
709.6	67.57
709.784	67.63
709.969	68.51
710.153	68.88
710.338	69.41
710.522	69.72
710.707	70.05
710.891	70.08
711.076	70.11
711.26	70.25
711.445	71.02
711.629	71.44
711.813	71.57
711.998	72.16
712.182	72.15
712.366	71.95
712.551	72.08
712.735	72.56
712.919	72.3
713.103	72.51
713.288	72.78
713.472	72.91
713.656	73.18
713.84	73.83
714.024	74.56
714.208	74.67
714.393	74.74
714.577	74.49
714.761	74.44
714.945	74.56
715.129	74.85
715.313	75.25
715.497	76.04
715.681	75.99
715.865	75.97
716.049	75.97
716.233	76
716.417	75.94
716.601	76.53
716.785	76.73
716.968	77.19
717.152	77.68
717.336	78.17
717.52	78.3
717.704	78.05
717.888	78.78
718.071	78.96
718.255	79.06
718.439	79.1
718.622	79.19
718.806	78.42
718.99	78.16
719.174	78.01
719.357	77.98
719.541	79.21
719.724	78.97
719.908	79.17
720.092	79.52
720.275	80.25
720.459	80
720.642	80.57
720.826	80.83
721.009	81.37
721.193	80.67
721.376	80.72
721.559	81.42
721.743	81.76
721.926	81.56
722.11	82.54
722.293	82.36
722.476	82.38
722.66	82.78
722.843	82.95
723.026	82.81
723.21	82.95
723.393	82.61
723.576	82.8
723.759	82.68
723.942	83.06
724.126	83.4
724.309	84.06
724.492	84.28
724.675	84.49
724.858	85.01
725.041	85.57
725.224	85.29
725.407	85.49
725.59	85.61
725.774	85.41
725.957	85.22
726.14	85.16
726.322	84.99
726.505	85.28
726.688	85.39
726.871	85.71
727.054	86.72
727.237	87.54
727.42	88.17
727.603	88.77
727.786	88.7
727.968	88.53
728.151	87.96
728.334	87.34
728.517	86.76
728.699	87.32
728.882	88.05
729.065	87.98
729.248	88.14
729.43	88.42
729.613	88.39
729.796	88.07
729.978	88.54
730.161	88.63
730.343	89.27
730.526	89.15
730.708	88.51
730.891	88.06
731.073	88.42
731.256	87.84
731.438	88.02
731.621	88.39
731.803	89.51
731.986	90.44
732.168	91.54
732.35	91.98
732.533	92.76
732.715	92.71
732.898	91.88
733.08	92.08
733.262	92.02
733.444	91.71
733.627	91.88
733.809	91.99
733.991	91.63
734.173	92.26
734.355	92.55
734.538	92.64
734.72	93.55
734.902	93.59
735.084	94.02
735.266	94.48
735.448	94.54
735.63	94.35
735.812	94.47
735.994	93.39
736.176	93.46
736.358	94.26
736.54	95.54
736.722	94.47
736.904	95.7
737.086	95.47
737.268	94.7
737.45	94.68
737.632	96.15
737.814	96.03
737.995	97.16
738.177	97.53
738.359	96.51
738.541	95.8
738.723	95.56
738.904	94.71
739.086	95.65
739.268	96.49
739.449	97.21
739.631	98.04
739.813	98.44
739.994	98.13
740.176	98.11
740.358	98.08
740.539	98.45
740.721	98.31
740.902	98.52
741.084	98.92
741.265	99.03
741.447	97.65
741.628	96.99
741.81	96.39
741.991	96.64
742.172	96.98
742.354	97.89
742.535	98.06
742.717	98.35
742.898	97.2
743.079	97.39
743.261	97.92
743.442	99.09
743.623	99.44
743.804	99.75
743.986	98.28
744.167	96.56
744.348	97.13
744.529	96.68
744.71	96.45
744.891	98.05
745.073	98.87
745.254	98.45
745.435	99.06
745.616	98.9
745.797	98.63
745.978	99.44
746.159	100.13
746.34	100.31
746.521	101.44
746.702	102.95
746.883	103.22
747.064	100.42
747.245	99.93
747.426	99.65
747.606	98.32
747.787	97.27
747.968	99.84
748.149	99.09
748.33	98.16
748.51	97.77
748.691	96.46
748.872	95.36
749.053	95.8
749.233	96.56
749.414	96.92
749.595	99.41
749.775	99.45
749.956	98.26
750.137	97.51
750.317	96.92
750.498	95.8
750.678	95.7
750.859	98.75
751.04	98.46
751.22	98.03
751.4	98.07
751.581	96.8
751.761	95.14
751.942	95.34
752.122	96.71
752.303	96.3
752.483	97.99
752.663	98.93
752.844	98.85
753.024	98.6
753.204	98.93
753.385	98.55
753.565	97.42
753.745	97.25
753.925	98.52
754.106	98.53
754.286	98.85
754.466	98.85
754.646	100.25
754.826	98.64
755.006	98.78
755.187	99.91
755.367	101.54
755.547	99.46
755.727	99.14
755.907	98.58
756.087	96.91
756.267	95.18
756.447	96.84
756.627	96.09
756.807	97.43
756.987	98.8
757.167	99.7
757.346	100.27
757.526	100.5
757.706	100.56
757.886	99.54
758.066	98.7
758.246	95.98
758.425	97.43
758.605	95.44
758.785	95.18
758.965	96.83
759.144	98.5
759.324	97.04
759.504	98.48
759.683	99.3
759.863	96.55
760.043	96.57
760.222	99.23
760.402	98.46
760.581	98.82
760.761	100.24
760.94	99.19
761.12	96.33
761.299	96.6
761.479	94.54
761.658	94.03
761.838	93.71
762.017	95.01
762.197	96.01
762.376	97.79
762.555	97.86
762.735	100.36
762.914	96.95
763.093	95.96
763.273	95.16
763.452	96.25
763.631	94.79
763.81	95.66
763.99	95.7
764.169	95.99
764.348	93.7
764.527	94.41
764.706	96.02
764.885	96.07
765.064	95.05
765.243	96.68
765.423	95.09
765.602	94.13
765.781	92.29
765.96	91.81
766.139	90.08
766.318	90.11
766.497	90.16
766.676	89.8
766.854	89.82
767.033	90.72
767.212	92.52
767.391	94.99
767.57	96.5
767.749	98.27
767.928	99.25
768.106	97.52
768.285	95.02
768.464	94.08
768.643	93.02
768.821	92.64
769	92.99
769.179	92.06
769.357	92.55
769.536	92.65
769.715	92.33
769.893	92.19
770.072	94.25
770.25	94.6
770.429	95.77
770.607	94.22
770.786	95.38
770.964	94.63
771.143	94.29
771.321	93.29
771.5	98.34
771.678	96.98
771.857	97.56
772.035	98.04
772.213	98.57
772.392	93.82
772.57	93.85
772.748	93.78
772.927	94.89
773.105	93.21
773.283	95.14
773.461	95.01
773.64	96.17
773.818	93.75
773.996	95.25
774.174	93.32
774.352	92.44
774.531	89.53
774.709	91.64
774.887	92.26
775.065	91.96
775.243	94.35
775.421	94.16
775.599	93.7
775.777	91
775.955	89.6
776.133	90.63
776.311	92.3
776.489	92.53
776.667	92.74
776.844	94.09
777.022	92.02
777.2	94.33
777.378	93.7
777.556	94.58
777.734	96.11
777.911	97.52
778.089	97.16
778.267	97.69
778.445	98.81
778.622	96.87
778.8	92.89
778.978	90.74
779.155	89.66
779.333	85.8
779.511	81.1
779.688	81.48
779.866	77.52
780.043	75.28
780.221	77.69
780.398	82.69
780.576	83.89
780.753	89.95
780.931	92.75
781.108	94.7
781.286	96.22
781.463	95.23
781.64	91.51
781.818	89.91
781.995	89.23
782.172	88.99
782.35	90.74
782.527	90.77
782.704	94.6
782.882	95.77
783.059	94.5
783.236	92.27
783.413	96.43
783.59	94.15
783.768	88.52
783.945	89.71
784.122	92.81
784.299	91.06
784.476	92.96
784.653	97.74
784.83	93.81
785.007	91.64
785.184	92
785.361	89.39
785.538	89.44
785.715	88.5
785.892	93.92
786.069	92.91
786.246	94.71
786.423	95.11
786.6	99.37
786.776	94.44
786.953	91.34
787.13	87.96
787.307	88.36
787.484	89.24
787.66	86.54
787.837	90.87
788.014	93.87
788.191	94.5
788.367	92.13
788.544	100.72
788.721	96.41
788.897	95.12
789.074	94.39
789.25	92.56
789.427	88.29
789.603	95.22
789.78	94.15
789.956	95.77
790.133	98.11
790.309	101.8
790.486	95.37
790.662	100.52
790.839	95.92
791.015	96.63
791.192	88.46
791.368	89.1
791.544	86.63
791.721	85.36
791.897	86.34
792.073	91.21
792.249	92.25
792.426	89.58
792.602	91.72
792.778	88.77
792.954	88.57
793.13	87.05
793.307	88.33
793.483	84.94
793.659	85.39
793.835	88.82
794.011	90.53
794.187	80.25
794.363	82.54
794.539	82.34
794.715	73.66
794.891	74.13
795.067	83.09
795.243	88.19
795.419	84.56
795.595	89.74
795.771	84.73
795.947	88.24
796.122	79.25
796.298	85.87
796.474	85.18
796.65	89.57
796.826	84.45
797.001	95.39
797.177	97.06
797.353	94.9
797.529	97.04
797.704	100.16
797.88	91.96
798.056	90.99
798.231	93.66
798.407	91.37
798.582	89.96
798.758	96.39
798.934	94.86
799.109	95.95
799.285	95.32
799.46	98.97
799.636	95.48
799.811	94.12
799.986	97.34
800.162	104.76
800.337	107.67
800.513	104.82
800.688	106.76
800.863	103.02
801.039	100.97
801.214	89.48
801.389	89.07
801.565	90.89
801.74	88.73
801.915	83.17
802.09	95.24
802.265	95.41
802.441	101.17
802.616	102.3
802.791	104.41
802.966	97.86
803.141	98.8
803.316	84.83
803.491	76.62
803.666	76.13
803.841	85.68
804.016	89.34
804.191	102.12
804.366	113.03
804.541	117.62
804.716	106.98
804.891	100.05
805.066	96.66
805.241	94.15
805.416	89.23
805.591	94.37
805.765	101.65
805.94	101.49
806.115	97.91
806.29	97.44
806.464	100.99
806.639	92.48
806.814	83.9
806.989	83.16
807.163	90.17
807.338	89.65
807.512	95.07
807.687	96.43
807.862	92.5
808.036	84.82
808.211	86.16
808.385	84.84
808.56	86.53
808.734	95.63
808.909	98.19
809.083	84.8
809.258	84.14
809.432	85.71
809.606	79.53
809.781	77.38
809.955	81.21
810.13	81.97
810.304	84.6
810.478	82.72
810.652	92.74
810.827	97.94
811.001	106.19
811.175	104.96
811.349	117.06
811.524	114.34
811.698	112.39
811.872	100.61
812.046	110.44
812.22	95.66
812.394	84.19
812.568	87.52
812.742	98.68
812.916	88.12
813.09	106.65
813.264	118.63
813.438	117.45
813.612	109.35
813.786	98.59
813.96	88.38
814.134	87.04
814.308	91.55
814.482	90.69
814.656	109.83
814.83	105.36
815.003	106.22
815.177	96.77
815.351	95.28
815.525	85.69
815.698	78.38
815.872	70.26
816.046	77.23
816.219	74.09
816.393	81.28
816.567	100.22
816.74	115.01
816.914	121.1
817.088	143.79
817.261	152.52
817.435	136.08
817.608	117.63
817.782	112.14
817.955	113.5
818.129	111.74
818.302	96.76
818.475	121.81
818.649	115.32
818.822	92.78
818.996	86.09
819.169	91.22
819.342	93.1
819.516	95.22
819.689	115.39
819.862	119.62
820.035	121.9
820.209	96.62
820.382	103.89
820.555	98.9
820.728	100.22
820.901	97.1
821.075	125.29
821.248	129.95
821.421	119.87
821.594	123.72
821.767	126.39
821.94	115.06
822.113	80.4
822.286	85.31
822.459	81.95
822.632	80.09
822.805	91.31
822.978	119.47
823.151	113.17
823.324	114.2
823.496	91.39
823.669	69.84
823.842	83.2
824.015	89.29
824.188	87.32
824.361	91.82
824.533	119.41
824.706	90.29
824.879	89.85
825.051	83.17
825.224	102.2
825.397	87.04
825.569	91.02
825.742	87.36
825.915	84.32
826.087	75.47
826.26	69.1
826.432	71.82
826.605	73.58
826.777	71.85
826.95	76.2
827.122	87.73
827.295	71.41
827.467	77.05
827.64	49.81
827.812	35.93
827.984	48.43
828.157	57.28
828.329	51.42
828.501	85.89
828.674	105.33
828.846	97.69
829.018	108.52
829.19	123.35
829.363	108.45
829.535	111.71
829.707	112.55
829.879	96.73
830.051	70.14
830.223	96.78
830.395	83.95
830.568	69.93
830.74	72.17
830.912	85.31
831.084	71.71
831.256	64.68
831.428	64.03
831.6	79.16
831.772	78.4
831.943	47
832.115	65.78
832.287	77.39
832.459	64.79
832.631	64.36
832.803	104.63
832.975	105.76
833.146	94.33
833.318	75.4
833.49	98.43
833.662	93.21
833.833	92.18
834.005	98.59
834.177	119.71
834.348	109.29
834.52	96.63
834.692	119.78
834.863	126.84
835.035	134.03
835.206	117.04
835.378	113.27
835.549	107.43
835.721	101.55
835.892	79.2
836.064	115.14
836.235	143.68
836.407	164.77
836.578	163.11
836.749	174.8
836.921	145.15
837.092	146.25
837.264	107.58
837.435	102.48
837.606	101.53
837.777	88.55
837.949	94.88
838.12	48.81
838.291	72.98
838.462	65.83
838.633	49.29
838.805	39.12
838.976	103.74
839.147	109.17
839.318	173.54
839.489	157.62
839.66	193.52
839.831	153.54
840.002	179.98
840.173	82.48
840.344	70.2
840.515	18.36
840.686	-4.49
840.857	13.57
841.028	34.74
841.199	45.71
841.369	60.55
841.54	60.63
841.711	114.45
841.882	99.96
842.053	121.75
842.223	147.46
842.394	117.41
842.565	83.43
842.736	99.77
842.906	73.2
843.077	59.38
843.248	83.9
843.418	81.33
843.589	75.07
843.759	113.88
843.93	68.62
844.101	152.93
844.271	104.97
844.442	114
844.612	144.89
844.783	162.13
844.953	101.16
845.123	84.03
845.294	94.94
845.464	87.48
845.635	97.78
845.805	144.83
845.975	179.24
846.146	213.38
846.316	360.17
846.486	230.95
846.656	237.44
846.827	146.21
846.997	85.44
847.167	114.07
847.337	85.85
847.507	92.98
847.677	92.94
847.848	120.27
848.018	84.35
848.188	81.95
848.358	53.12
848.528	86.64
848.698	86.87
848.868	51.99
849.038	26.33
849.208	19.86
849.378	19.35
849.548	-2.95
849.718	333.77
849.887	-258.93
850.057	4274.19
850.227	203.86
850.397	302.68
850.567	54.89
850.737	97.88
850.906	73.51
851.076	89.24
851.246	113.83
851.415	93.15
851.585	73.47
851.755	92.5
851.924	102.98
852.094	116.27
852.264	82.03
852.433	64.86
852.603	92.51
852.772	73.26
852.942	64.19
853.111	91.71
853.281	114.17
853.45	88.45
853.62	109.01
853.789	83.98
853.959	-8.55
854.128	17.44
854.297	89.02
854.467	325.41
854.636	-270.7
854.805	30.77
854.975	31.26
855.144	24.28
855.313	58.48
855.482	107.03
855.652	65.57
855.821	50.77
855.99	100.84
856.159	177.06
856.328	76.8
856.497	123.2
856.667	137.33
856.836	127.94
857.005	128.82
857.174	119.89
857.343	112.55
857.512	71.65
857.681	-6.77
857.85	-78.46
858.019	-58.59
858.188	-20.96
858.356	-32.14
858.525	6.74
858.694	40.29
858.863	40.23
859.032	-33.98
859.201	11.96
859.369	84.74
859.538	93.11
859.707	55.97
859.876	88.89
860.044	99.59
860.213	104.22
860.382	138.8
860.55	147.25
860.719	159.85
860.888	163.59
861.056	181.27
861.225	142.77
861.393	212.43
861.562	261.23
861.73	221.13
861.899	150.39
862.067	221.69
862.236	167.05
862.404	45.75
862.572	13.53
862.741	-47.46
862.909	41.67
863.078	51.16
863.246	74.02
863.414	103.57
863.582	69.82
863.751	85.58
863.919	14.76
864.087	76.2
864.255	109.7
864.424	137.75
864.592	70.47
864.76	130.47
864.928	122.81
865.096	109.6
865.264	117.07
865.432	139.58
865.6	147.12
865.768	24.61
865.936	-166.25
866.104	-416.63
866.272	6.83
866.44	-118.71
866.608	-14.18
866.776	48.65
866.944	25.9
867.112	15.49
867.28	-7.21
867.448	25.54
867.615	31.24
867.783	67.33
867.951	3.22
868.119	88.89
868.286	124.22
868.454	95.08
868.622	56.81
868.789	359.01
868.957	-463.8
869.125	-125.62
869.292	281.04
869.46	-184.26
869.627	-600.57
869.795	-128.81
869.963	-25.4
870.13	11.66
870.298	45.03
870.465	72.13
870.632	67.37
870.8	86.43
870.967	103.59
871.135	134.09
871.302	-39.43
871.469	158.54
871.637	84.36
871.804	42.59
871.971	12.48
872.139	93.6
872.306	161.62
872.473	599.5
872.64	48.39
872.807	73.43
872.975	-8.31
873.142	13.99
873.309	42.52
873.476	68.43
873.643	78.47
873.81	81.31
873.977	92.19
874.144	93.71
874.311	150.95
874.478	28.36
874.645	-75.57
874.812	-623.22
874.979	-138.99
875.146	-92.53
875.313	-461.26
875.48	275.9
875.647	30.51
875.813	-753.16
875.98	440.77
876.147	30.39
876.314	56.54
876.481	8.85
876.647	51.93
876.814	99.91
876.981	145.97
877.147	149.02
877.314	123.28
877.481	150.48
877.647	104.13
877.814	63.7
877.98	-17.45
878.147	108.43
878.314	3.34
878.48	288.66
878.647	198.15
878.813	1592.09
878.979	120.32
879.146	117.3
879.312	78.93
879.479	147.76
879.645	114.71
879.811	135.61
879.978	124.14
880.144	367.69
880.31	833.88
880.477	-1485.23
880.643	-1060
880.809	-2148.78
880.975	316.08
881.142	-313.55
881.308	-302
881.474	65.08
881.64	120.24
881.806	65.89
881.972	103.38
882.138	86.21
882.304	51.69
882.47	-0.51
882.636	18.91
882.802	41.91
882.968	22.65
883.134	38.5
883.3	70.4
883.466	111.76
883.632	135.03
883.798	173.47
883.964	210.54
884.129	252.75
884.295	305.68
884.461	179.88
884.627	149.81
884.793	11.5
884.958	-79.17
885.124	173.27
885.29	9.22
885.455	120.36
885.621	64.17
885.787	54.76
885.952	69.65
886.118	92.07
886.283	73.68
886.449	128.05
886.614	84.9
886.78	97.75
886.945	101.29
887.111	50.78
887.276	32.49
887.442	81.72
887.607	70.78
887.773	34.02
887.938	106.51
888.103	258.85
888.269	357.77
888.434	-6241.18
888.599	299.52
888.764	3232.04
888.93	102.6
889.095	102.35
889.26	127.29
889.425	107.75
889.59	83.92
889.756	157.64
889.921	101.71
890.086	109.53
890.251	78.62
890.416	80.82
890.581	39.27
890.746	58.65
890.911	136.62
891.076	282.94
891.241	150.71
891.406	19100
891.571	369.11
891.736	132.18
891.901	193.22
892.065	74.86
892.23	170.1
892.395	180.35
892.56	2114.77
892.725	-146.78
892.889	-570.16
893.054	-1991.39
893.219	-3449.64
893.384	-631.4
893.548	-1090.81
893.713	-623.14
893.878	-985.86
