Data from Ofav_SP_Phys_9AZ81_Reflection_2.txt Node
Date: Thu Aug 05 17:50:40 EDT 2021
User: Adam
Spectrometer: FLMT01687
Trigger mode: 0
Integration Time (sec): 8.000000E-1
Scans to average: 2
Electric dark correction enabled: true
Nonlinearity correction enabled: false
Boxcar width: 2
XAxis mode: Wavelengths
Number of Pixels in Spectrum: 3648
>>>>>Begin Spectral Data<<<<<
179.494	591.18
179.716	649.52
179.937	525.35
180.158	613.74
180.38	1371.4
180.601	-414.29
180.823	130.25
181.044	-15.31
181.265	-22.03
181.486	-21.33
181.708	67.79
181.929	-54.32
182.15	-414.29
182.372	-17.53
182.593	-0.41
182.814	-132.63
183.035	-17.05
183.257	-87.9
183.478	254.58
183.699	-297.57
183.92	4.68
184.141	250.67
184.363	-457.84
184.584	236.83
184.805	158.19
185.026	125.94
185.247	86.25
185.468	78.08
185.689	51.05
185.91	3.31
186.132	-41.12
186.353	-7.05
186.574	-74.42
186.795	13.87
187.016	58.68
187.237	85.47
187.458	158.84
187.679	103.58
187.9	89.39
188.121	91.7
188.342	113.7
188.563	85.97
188.784	136.39
189.005	141.84
189.226	146.31
189.447	120.73
189.667	175.67
189.888	325.28
190.109	195.25
190.33	158.96
190.551	154.23
190.772	166.9
190.993	103.06
191.214	89.02
191.434	65.6
191.655	49.68
191.876	65.81
192.097	55.43
192.318	57.43
192.538	77.72
192.759	85.52
192.98	21.96
193.201	82.63
193.421	48.23
193.642	55.41
193.863	11.94
194.083	8.24
194.304	24.52
194.525	43.68
194.745	32.83
194.966	52.16
195.187	57.13
195.407	39.16
195.628	9.73
195.848	40.25
196.069	39.57
196.29	57.26
196.51	68.95
196.731	57.84
196.951	69.83
197.172	77.63
197.392	79.45
197.613	71.31
197.833	88.26
198.054	67.4
198.274	54.26
198.495	23.75
198.715	31.68
198.936	-24.22
199.156	30.94
199.377	43.52
199.597	62.15
199.817	55.51
200.038	50.79
200.258	39.39
200.479	44.56
200.699	16.98
200.919	14.23
201.14	-13.06
201.36	-19.67
201.58	-23.77
201.801	-79.29
202.021	-43.88
202.241	27.33
202.461	-4.58
202.682	-13.28
202.902	69.74
203.122	106.01
203.342	96.54
203.563	88.53
203.783	101.79
204.003	73.21
204.223	71.8
204.443	34.97
204.663	59.55
204.884	43.54
205.104	17.35
205.324	15.91
205.544	39.81
205.764	17.57
205.984	10.72
206.204	47.31
206.424	41.08
206.644	41
206.864	25.06
207.084	12.99
207.304	39.78
207.525	29
207.745	58.09
207.964	60.5
208.184	123.36
208.404	60.58
208.624	55.49
208.844	40.08
209.064	95.97
209.284	66.14
209.504	65.28
209.724	61.01
209.944	58.57
210.164	37.06
210.384	68.82
210.604	59.24
210.823	68.48
211.043	61.38
211.263	58.06
211.483	14.87
211.703	25.29
211.922	14.98
212.142	67.4
212.362	52.48
212.582	116.53
212.801	119.63
213.021	70.45
213.241	36.51
213.461	32.5
213.68	21.09
213.9	21.34
214.12	40.21
214.339	53.46
214.559	63.33
214.779	52.39
214.998	100.44
215.218	90.63
215.438	120.04
215.657	177.9
215.877	208.62
216.096	108.31
216.316	80.7
216.535	47.75
216.755	-56.61
216.974	-93.98
217.194	75.28
217.413	49.78
217.633	56
217.852	60.52
218.072	58.84
218.291	33.88
218.511	71.29
218.73	53.27
218.95	60.66
219.169	19.01
219.389	66.72
219.608	-13.83
219.827	27.14
220.047	43.85
220.266	62.41
220.485	28.29
220.705	70.16
220.924	50.43
221.143	38.03
221.363	-1.41
221.582	21.56
221.801	-29.85
222.021	12.12
222.24	35.63
222.459	108.79
222.678	81.95
222.897	78.22
223.117	32.79
223.336	10.76
223.555	2.25
223.774	-21.16
223.993	-15.89
224.213	33.35
224.432	36.88
224.651	45.19
224.87	41.8
225.089	58.27
225.308	30.75
225.527	8.45
225.746	-4.54
225.965	-30.39
226.184	-35.71
226.404	-18.71
226.623	-24.12
226.842	-28.71
227.061	14.94
227.28	17.44
227.499	36.44
227.718	30.57
227.936	31.77
228.155	12.04
228.374	26.73
228.593	35.85
228.812	59.8
229.031	72.42
229.25	87.11
229.469	70.84
229.688	48.48
229.907	32.89
230.125	10.14
230.344	-9.2
230.563	-9.74
230.782	-21.82
231.001	13.59
231.22	69.18
231.438	103.7
231.657	68.95
231.876	71.54
232.095	45.3
232.313	-0.71
232.532	-7.46
232.751	5.16
232.969	34.27
233.188	51.4
233.407	74.48
233.625	94.04
233.844	105.58
234.063	66.84
234.281	28.93
234.5	25.44
234.719	-5.43
234.937	-11.41
235.156	-18.08
235.374	-2.26
235.593	20.72
235.811	0.58
236.03	24.85
236.249	43.12
236.467	47.06
236.686	26.21
236.904	29.47
237.123	3.66
237.341	16.87
237.559	-0.34
237.778	21.14
237.996	53.81
238.215	68.54
238.433	79.06
238.652	85.12
238.87	58.3
239.088	18.33
239.307	26.35
239.525	9.6
239.743	4.18
239.962	31.72
240.18	62.82
240.398	50.11
240.617	24.59
240.835	85.38
241.053	43.59
241.271	9.16
241.49	28.65
241.708	31.32
241.926	-0.12
242.144	-13.56
242.363	42.37
242.581	29.41
242.799	7.61
243.017	-12.1
243.235	-30.19
243.453	-10.3
243.672	-21.24
243.89	-0.15
244.108	41.29
244.326	80.7
244.544	63.02
244.762	34.09
244.98	55.91
245.198	47.98
245.416	35.01
245.634	35.28
245.852	46.92
246.07	35.24
246.288	6.22
246.506	-43.17
246.724	-0.93
246.942	-4.63
247.16	-28.91
247.378	-71.24
247.596	-10.47
247.814	-27.96
248.032	-22.91
248.25	-33.12
248.468	-1.11
248.685	4.17
248.903	9.79
249.121	5.45
249.339	27.93
249.557	22.87
249.775	11.22
249.992	-37.63
250.21	-10.24
250.428	-25.44
250.646	-34.74
250.863	-9.77
251.081	53.17
251.299	50.51
251.517	84.38
251.734	117.03
251.952	79.92
252.17	58.35
252.387	36.59
252.605	18.99
252.823	-3.51
253.04	31.88
253.258	38.82
253.475	66.46
253.693	81.08
253.911	108.71
254.128	76.11
254.346	77.3
254.563	71.7
254.781	63.21
254.998	37.84
255.216	28.22
255.433	5.42
255.651	4.5
255.868	-16.58
256.086	-42.48
256.303	-41.63
256.521	-49.25
256.738	-95.61
256.956	-201
257.173	-23.91
257.39	43.06
257.608	13.32
257.825	19.57
258.043	29.32
258.26	13.21
258.477	-10.01
258.695	8.65
258.912	20.54
259.129	22.65
259.346	35.34
259.564	44.52
259.781	55.97
259.998	52.65
260.216	68.18
260.433	72.71
260.65	74.27
260.867	36.22
261.084	42.97
261.302	19.8
261.519	-2.71
261.736	24.47
261.953	33.07
262.17	27.52
262.387	53.67
262.604	75.61
262.822	91.83
263.039	103.66
263.256	126.54
263.473	63.52
263.69	71.62
263.907	57.32
264.124	53.26
264.341	17.48
264.558	45.13
264.775	31.7
264.992	46.77
265.209	39.48
265.426	47.01
265.643	25.53
265.86	11.77
266.077	-21.63
266.294	-3.41
266.51	-6.28
266.727	1.23
266.944	40.04
267.161	51.6
267.378	42.04
267.595	42.53
267.812	37.47
268.028	14.56
268.245	21.77
268.462	7.12
268.679	7.52
268.896	22.77
269.112	31.39
269.329	67.43
269.546	57.65
269.763	60.42
269.979	68.85
270.196	77.3
270.413	49.09
270.629	63.54
270.846	76.78
271.063	50.33
271.279	34.61
271.496	36.51
271.712	-28.19
271.929	-41.06
272.146	42.07
272.362	20.41
272.579	-4.28
272.795	3.53
273.012	9.54
273.228	-42.39
273.445	-21.49
273.661	-2.18
273.878	2.86
274.094	7.73
274.311	35.8
274.527	31.98
274.744	52.38
274.96	38.81
275.177	20.81
275.393	13
275.609	9.47
275.826	-0.3
276.042	6.11
276.259	15.74
276.475	14.7
276.691	21.28
276.908	22.55
277.124	43.91
277.34	44.61
277.557	17.58
277.773	13.8
277.989	22.12
278.205	5.8
278.422	7.25
278.638	56.19
278.854	75.21
279.07	60.46
279.286	48.4
279.503	62.11
279.719	48
279.935	47.28
280.151	62
280.367	53.32
280.583	34.88
280.799	36.67
281.016	18.55
281.232	26.7
281.448	39.47
281.664	51.39
281.88	105.67
282.096	80.42
282.312	63.81
282.528	58.27
282.744	57.17
282.96	53.56
283.176	54.28
283.392	52.45
283.608	57.16
283.824	62.1
284.04	67.45
284.256	50.27
284.471	32.84
284.687	44.82
284.903	44.39
285.119	31.44
285.335	32.3
285.551	12.42
285.767	-18.07
285.982	-57.61
286.198	-116.89
286.414	-42.09
286.63	25.22
286.846	55.38
287.061	61.21
287.277	58.79
287.493	67.72
287.709	38.51
287.924	37.22
288.14	44.07
288.356	48.67
288.571	53.44
288.787	72.35
289.003	89.34
289.218	70.21
289.434	39.98
289.65	-21.7
289.865	0.75
290.081	8.09
290.296	16.64
290.512	26.15
290.727	46.73
290.943	26.23
291.159	25.39
291.374	22.9
291.59	11.8
291.805	5.31
292.021	39.55
292.236	33.46
292.451	36.63
292.667	48.39
292.882	53.34
293.098	-5.08
293.313	11.25
293.529	39.23
293.744	37.83
293.959	8.16
294.175	33.42
294.39	41.82
294.605	22.06
294.821	42.55
295.036	41.93
295.251	36.63
295.467	29.29
295.682	29.12
295.897	18.97
296.112	30.77
296.328	26.14
296.543	19.88
296.758	-6.37
296.973	-7.37
297.188	7.61
297.404	9.88
297.619	5.63
297.834	5.92
298.049	-16.34
298.264	-10.85
298.479	-15.55
298.694	19.75
298.909	47.68
299.125	54.27
299.34	46.42
299.555	61.97
299.77	68.79
299.985	78.01
300.2	84.67
300.415	65.74
300.63	40.88
300.845	7.94
301.06	4.54
301.275	-17.65
301.49	-12.37
301.704	-21.85
301.919	28.54
302.134	19.64
302.349	39.82
302.564	33.83
302.779	37.72
302.994	33.47
303.209	53.35
303.423	39.45
303.638	61.52
303.853	54.21
304.068	48.68
304.283	39.76
304.497	32.39
304.712	16.1
304.927	-9.96
305.142	7.57
305.356	-8.41
305.571	39.72
305.786	45.63
306	66.89
306.215	74.98
306.43	104.07
306.644	91.91
306.859	82.23
307.074	71.82
307.288	66.49
307.503	55.38
307.717	46.19
307.932	23.65
308.147	36.43
308.361	32.21
308.576	25.03
308.79	25.7
309.005	69.35
309.219	49.47
309.434	60.49
309.648	54.44
309.863	53.89
310.077	-14.81
310.292	-16.66
310.506	-14.3
310.72	7.14
310.935	17.53
311.149	41.31
311.364	51.09
311.578	50.92
311.792	71.04
312.007	71.85
312.221	57.11
312.435	66.79
312.649	72.89
312.864	39.1
313.078	23.51
313.292	58.99
313.507	61.45
313.721	48.85
313.935	49.76
314.149	58.21
314.363	38.12
314.578	29.17
314.792	34.19
315.006	37.22
315.22	29.09
315.434	1.23
315.648	-4.35
315.862	-4.99
316.077	1.99
316.291	21.65
316.505	49.61
316.719	42.7
316.933	47.62
317.147	25.3
317.361	10.02
317.575	-12.08
317.789	-0.54
318.003	-15.67
318.217	34.9
318.431	78.09
318.645	97.21
318.859	79.38
319.073	58.99
319.287	46.93
319.5	31.76
319.714	17.1
319.928	54.69
320.142	63.76
320.356	53.47
320.57	47.05
320.784	36.89
320.997	18.86
321.211	34.21
321.425	15.51
321.639	-21.86
321.853	-9.53
322.066	-24.07
322.28	-39.66
322.494	-23.86
322.707	-0.06
322.921	1.25
323.135	12.6
323.349	19.43
323.562	11.18
323.776	17.9
323.989	0.12
324.203	4.96
324.417	13
324.63	27.46
324.844	20.6
325.057	31.62
325.271	8.01
325.485	18.61
325.698	22.87
325.912	35.83
326.125	50.39
326.339	75.88
326.552	64.38
326.766	65.92
326.979	71.4
327.193	52.83
327.406	43.21
327.619	75.36
327.833	31.92
328.046	40.41
328.26	28.83
328.473	15.06
328.686	4.61
328.9	14.71
329.113	-3.76
329.326	7.21
329.54	26.44
329.753	33.98
329.966	57.02
330.179	70.73
330.393	87.8
330.606	79.99
330.819	80.76
331.032	89.62
331.246	118.27
331.459	89.73
331.672	93.79
331.885	82.94
332.098	77.13
332.311	49.96
332.525	47.25
332.738	39.02
332.951	27.93
333.164	30.97
333.377	42.11
333.59	44.13
333.803	27.01
334.016	23.83
334.229	1.7
334.442	-3.55
334.655	31.39
334.868	51.57
335.081	52.48
335.294	75.39
335.507	67.91
335.72	57.91
335.933	57.51
336.146	57.35
336.359	56.7
336.572	67.89
336.785	44.28
336.997	39.84
337.21	57.53
337.423	39.81
337.636	36.81
337.849	80.69
338.062	57.9
338.274	18.37
338.487	33.42
338.7	19.97
338.913	-8.65
339.125	22.52
339.338	25.66
339.551	11.91
339.763	35.07
339.976	47.32
340.189	45.68
340.402	47.24
340.614	50.04
340.827	49.04
341.039	28.15
341.252	11.14
341.465	15.74
341.677	27.9
341.89	3.27
342.102	24.7
342.315	26.03
342.527	39.52
342.74	8.34
342.952	16.09
343.165	-0.12
343.377	26.07
343.59	-37.45
343.802	-9.01
344.015	-11.7
344.227	-8.79
344.44	1.76
344.652	30.15
344.864	35.32
345.077	54.04
345.289	44.41
345.502	35.89
345.714	35.78
345.926	34.62
346.139	24.89
346.351	41.02
346.563	25.1
346.775	29.92
346.988	-1.7
347.2	7.92
347.412	-0.14
347.624	25.13
347.837	17.95
348.049	33.92
348.261	15.17
348.473	20.62
348.685	25.8
348.897	38.91
349.11	41.08
349.322	33.73
349.534	7.21
349.746	21.18
349.958	18.35
350.17	35.22
350.382	45.1
350.594	70.1
350.806	61.64
351.018	47.76
351.23	37.12
351.442	41.51
351.654	38.12
351.866	35.03
352.078	34.37
352.29	26.36
352.502	38.03
352.714	23.05
352.926	35.22
353.138	17.37
353.35	33.93
353.561	20.89
353.773	23.54
353.985	17.7
354.197	41.98
354.409	50.13
354.621	62.14
354.832	81.82
355.044	58.32
355.256	69.4
355.468	49.75
355.679	37.7
355.891	36.56
356.103	49.19
356.314	39.77
356.526	30.77
356.738	42.98
356.949	25.33
357.161	31.9
357.373	26.32
357.584	42.99
357.796	35.25
358.008	47.01
358.219	32.56
358.431	52.95
358.642	44.69
358.854	55.34
359.065	70.03
359.277	72.08
359.488	58.16
359.7	59.84
359.911	51.51
360.123	41.52
360.334	41.64
360.546	43.07
360.757	37.68
360.969	38.11
361.18	39.18
361.391	34.13
361.603	54.79
361.814	66.07
362.025	72.72
362.237	59.22
362.448	53.63
362.659	35.25
362.871	14.75
363.082	3.02
363.293	-21.7
363.504	-15.37
363.716	-4.03
363.927	33.93
364.138	31.32
364.349	34.13
364.56	40.71
364.772	39.18
364.983	19.21
365.194	34.98
365.405	43.96
365.616	46.14
365.827	46.56
366.038	52.88
366.25	46.51
366.461	43.21
366.672	40.18
366.883	42.09
367.094	31.51
367.305	43.67
367.516	54.53
367.727	51.56
367.938	50.39
368.149	46.22
368.36	34.5
368.571	5.16
368.781	-8.67
368.992	-12.24
369.203	4.86
369.414	-7.33
369.625	10.15
369.836	11.16
370.047	9.97
370.258	13.69
370.468	27.64
370.679	21.86
370.89	21.9
371.101	12.15
371.312	21.07
371.522	20.83
371.733	32.26
371.944	31.33
372.155	48.57
372.365	23.62
372.576	26.63
372.787	31.5
372.997	34.11
373.208	35.19
373.419	68.81
373.629	54.24
373.84	42.47
374.05	39.7
374.261	47.39
374.472	30.99
374.682	31.45
374.893	38.99
375.103	42.21
375.314	30.34
375.524	37.93
375.735	27.25
375.945	26.45
376.156	30.04
376.366	37.57
376.577	41.96
376.787	61.26
376.997	51.81
377.208	41.47
377.418	36.14
377.629	37.6
377.839	33.9
378.049	38.98
378.26	33.79
378.47	41.72
378.68	31.77
378.89	9.23
379.101	6.89
379.311	14.26
379.521	10.63
379.732	18.04
379.942	25.74
380.152	31.1
380.362	31.38
380.572	30.88
380.783	28.53
380.993	41.66
381.203	45.99
381.413	40.04
381.623	34.97
381.833	40.31
382.043	28.53
382.253	19.7
382.463	27.36
382.674	27.42
382.884	20.59
383.094	21.68
383.304	25.2
383.514	20.25
383.724	11.95
383.934	14.68
384.144	15.38
384.353	15.7
384.563	16.01
384.773	22.36
384.983	13.46
385.193	15.35
385.403	11.67
385.613	13.24
385.823	14.07
386.033	18.06
386.242	16.44
386.452	16.47
386.662	14.14
386.872	7.52
387.082	10.64
387.291	0.85
387.501	2.01
387.711	2.18
387.921	4.97
388.13	2.38
388.34	9.91
388.55	7.78
388.759	6.29
388.969	6.77
389.179	7.39
389.388	10.61
389.598	11.99
389.807	12.72
390.017	12.55
390.227	8
390.436	4
390.646	2.54
390.855	-0.7
391.065	-0.6
391.274	3.72
391.484	4.64
391.693	4.1
391.903	5.6
392.112	6.89
392.322	4.55
392.531	5.3
392.74	5.37
392.95	4.34
393.159	2.01
393.369	3.75
393.578	3.97
393.787	4.15
393.997	5.44
394.206	6.11
394.415	6.02
394.625	6.57
394.834	6.98
395.043	5.75
395.252	6.44
395.462	5.94
395.671	5.98
395.88	6.66
396.089	7.11
396.298	6.91
396.508	6.87
396.717	5.75
396.926	4.75
397.135	4.79
397.344	4.42
397.553	4.69
397.762	4.7
397.971	5.07
398.181	4.62
398.39	4.1
398.599	4.15
398.808	4.22
399.017	3.55
399.226	3.71
399.435	4.05
399.644	3.79
399.853	4.07
400.062	4.17
400.27	4.04
400.479	3.72
400.688	3.66
400.897	3.54
401.106	3.51
401.315	3.52
401.524	3.68
401.733	3.56
401.941	3.66
402.15	3.81
402.359	3.64
402.568	3.72
402.777	3.9
402.985	3.6
403.194	3.61
403.403	3.84
403.612	3.7
403.82	3.72
404.029	3.68
404.238	3.78
404.446	3.66
404.655	3.84
404.864	3.69
405.072	3.79
405.281	3.56
405.489	3.72
405.698	3.78
405.906	3.81
406.115	3.52
406.324	3.7
406.532	3.54
406.741	3.3
406.949	3.22
407.158	3.51
407.366	3.4
407.574	3.41
407.783	3.44
407.991	3.46
408.2	3.26
408.408	3.18
408.617	3.23
408.825	3.19
409.033	3.22
409.242	3.29
409.45	3.24
409.658	3.1
409.867	3.22
410.075	3.23
410.283	3.25
410.491	3.26
410.7	3.38
410.908	3.3
411.116	3.22
411.324	3.28
411.533	3.18
411.741	3.05
411.949	3.03
412.157	3.06
412.365	3.12
412.573	3.2
412.781	3.27
412.99	3.34
413.198	3.57
413.406	3.51
413.614	3.56
413.822	3.55
414.03	3.52
414.238	3.31
414.446	3.31
414.654	3.27
414.862	3.3
415.07	3.37
415.278	3.45
415.486	3.28
415.694	3.45
415.902	3.34
416.109	3.24
416.317	3.16
416.525	3.13
416.733	3.09
416.941	3.4
417.149	3.37
417.357	3.29
417.564	3.26
417.772	3.14
417.98	2.94
418.188	2.86
418.395	2.86
418.603	3.02
418.811	2.87
419.019	2.96
419.226	3.11
419.434	3.26
419.642	3.21
419.849	3.4
420.057	3.19
420.265	3.07
420.472	2.87
420.68	2.84
420.887	2.86
421.095	3.04
421.302	3.05
421.51	3.11
421.717	3.19
421.925	3.15
422.132	3.23
422.34	3.3
422.547	3.26
422.755	3.22
422.962	3.27
423.17	3.25
423.377	3.19
423.585	3.27
423.792	3.23
423.999	3.06
424.207	2.81
424.414	2.54
424.621	2.61
424.829	2.53
425.036	2.66
425.243	2.73
425.451	3.01
425.658	2.87
425.865	3.04
426.072	2.9
426.28	2.79
426.487	2.76
426.694	2.65
426.901	2.6
427.108	2.73
427.315	2.9
427.523	2.86
427.73	3.01
427.937	2.88
428.144	2.82
428.351	2.87
428.558	2.89
428.765	2.71
428.972	2.82
429.179	2.91
429.386	2.84
429.593	2.85
429.8	2.98
430.007	3
430.214	2.9
430.421	3.09
430.628	2.99
430.835	2.98
431.042	2.91
431.249	3.01
431.456	2.76
431.662	3.03
431.869	3.12
432.076	3.17
432.283	3.17
432.49	3.21
432.697	3.02
432.903	2.79
433.11	2.74
433.317	2.55
433.524	2.53
433.73	2.57
433.937	2.59
434.144	2.6
434.35	2.59
434.557	2.54
434.764	2.47
434.97	2.53
435.177	2.76
435.384	2.65
435.59	2.67
435.797	2.78
436.003	2.74
436.21	2.39
436.416	2.45
436.623	2.39
436.829	2.32
437.036	2.33
437.242	2.35
437.449	2.44
437.655	2.51
437.862	2.56
438.068	2.69
438.275	2.87
438.481	2.87
438.687	2.76
438.894	2.74
439.1	2.72
439.307	2.66
439.513	2.71
439.719	2.77
439.926	2.75
440.132	2.65
440.338	2.69
440.544	2.7
440.751	2.73
440.957	2.78
441.163	2.85
441.369	2.84
441.575	2.67
441.782	2.72
441.988	2.63
442.194	2.56
442.4	2.57
442.606	2.78
442.812	2.76
443.018	2.74
443.224	2.85
443.431	2.83
443.637	2.61
443.843	2.51
444.049	2.45
444.255	2.37
444.461	2.35
444.667	2.44
444.873	2.49
445.079	2.57
445.284	2.62
445.49	2.56
445.696	2.62
445.902	2.62
446.108	2.57
446.314	2.49
446.52	2.62
446.726	2.67
446.931	2.76
447.137	2.78
447.343	2.86
447.549	2.74
447.755	2.76
447.96	2.75
448.166	2.84
448.372	2.84
448.578	2.83
448.783	2.78
448.989	2.64
449.195	2.56
449.4	2.51
449.606	2.6
449.812	2.61
450.017	2.81
450.223	2.79
450.428	2.85
450.634	2.78
450.84	2.73
451.045	2.57
451.251	2.63
451.456	2.7
451.662	2.73
451.867	2.7
452.073	2.8
452.278	2.71
452.483	2.63
452.689	2.67
452.894	2.79
453.1	2.73
453.305	2.77
453.51	2.81
453.716	2.86
453.921	2.83
454.127	2.93
454.332	2.98
454.537	2.94
454.742	2.9
454.948	2.77
455.153	2.7
455.358	2.75
455.563	2.75
455.769	2.57
455.974	2.65
456.179	2.6
456.384	2.43
456.589	2.42
456.795	2.55
457	2.53
457.205	2.53
457.41	2.62
457.615	2.54
457.82	2.52
458.025	2.45
458.23	2.49
458.435	2.43
458.64	2.43
458.845	2.5
459.05	2.43
459.255	2.32
459.46	2.43
459.665	2.55
459.87	2.46
460.075	2.58
460.28	2.66
460.485	2.64
460.69	2.61
460.895	2.53
461.099	2.45
461.304	2.49
461.509	2.52
461.714	2.44
461.919	2.57
462.123	2.64
462.328	2.6
462.533	2.54
462.738	2.71
462.942	2.73
463.147	2.74
463.352	2.76
463.556	2.8
463.761	2.6
463.966	2.55
464.17	2.55
464.375	2.56
464.58	2.49
464.784	2.67
464.989	2.71
465.193	2.61
465.398	2.69
465.602	2.9
465.807	2.9
466.011	3
466.216	3.09
466.42	3.07
466.625	2.97
466.829	2.94
467.034	2.88
467.238	2.94
467.443	2.85
467.647	2.66
467.851	2.63
468.056	2.58
468.26	2.53
468.464	2.47
468.669	2.66
468.873	2.64
469.077	2.67
469.282	2.67
469.486	2.67
469.69	2.62
469.894	2.61
470.099	2.59
470.303	2.56
470.507	2.65
470.711	2.68
470.915	2.77
471.119	2.8
471.324	2.87
471.528	2.71
471.732	2.68
471.936	2.59
472.14	2.59
472.344	2.56
472.548	2.75
472.752	2.74
472.956	2.74
473.16	2.73
473.364	2.74
473.568	2.64
473.772	2.67
473.976	2.59
474.18	2.49
474.384	2.49
474.588	2.58
474.792	2.54
474.995	2.62
475.199	2.63
475.403	2.59
475.607	2.56
475.811	2.56
476.015	2.6
476.218	2.69
476.422	2.64
476.626	2.61
476.83	2.63
477.033	2.69
477.237	2.74
477.441	2.82
477.644	2.88
477.848	2.91
478.052	2.79
478.255	2.72
478.459	2.79
478.663	2.74
478.866	2.66
479.07	2.74
479.273	2.7
479.477	2.66
479.681	2.67
479.884	2.73
480.088	2.65
480.291	2.66
480.495	2.63
480.698	2.68
480.901	2.69
481.105	2.79
481.308	2.77
481.512	2.77
481.715	2.74
481.919	2.76
482.122	2.77
482.325	2.81
482.529	2.86
482.732	2.89
482.935	2.82
483.138	2.87
483.342	2.83
483.545	2.81
483.748	2.77
483.952	2.79
484.155	2.72
484.358	2.74
484.561	2.7
484.764	2.72
484.967	2.77
485.171	2.72
485.374	2.71
485.577	2.69
485.78	2.67
485.983	2.68
486.186	2.74
486.389	2.73
486.592	2.74
486.795	2.73
486.998	2.66
487.201	2.66
487.404	2.67
487.607	2.72
487.81	2.7
488.013	2.7
488.216	2.69
488.419	2.68
488.622	2.64
488.825	2.63
489.028	2.62
489.231	2.66
489.433	2.65
489.636	2.69
489.839	2.66
490.042	2.69
490.245	2.63
490.447	2.69
490.65	2.66
490.853	2.73
491.056	2.71
491.258	2.7
491.461	2.67
491.664	2.62
491.866	2.59
492.069	2.65
492.272	2.61
492.474	2.58
492.677	2.65
492.879	2.65
493.082	2.58
493.285	2.57
493.487	2.56
493.69	2.53
493.892	2.5
494.095	2.59
494.297	2.64
494.5	2.75
494.702	2.77
494.905	2.84
495.107	2.79
495.309	2.8
495.512	2.61
495.714	2.63
495.917	2.61
496.119	2.65
496.321	2.63
496.524	2.77
496.726	2.75
496.928	2.69
497.13	2.67
497.333	2.67
497.535	2.75
497.737	2.73
497.939	2.82
498.142	2.79
498.344	2.85
498.546	2.78
498.748	2.81
498.95	2.81
499.152	2.78
499.355	2.8
499.557	2.81
499.759	2.86
499.961	2.78
500.163	2.81
500.365	2.9
500.567	2.91
500.769	2.88
500.971	2.98
501.173	3.01
501.375	2.89
501.577	2.92
501.779	2.94
501.981	2.99
502.183	3.03
502.385	3.05
502.587	2.93
502.788	2.91
502.99	2.74
503.192	2.64
503.394	2.63
503.596	2.66
503.798	2.61
503.999	2.66
504.201	2.71
504.403	2.72
504.605	2.8
504.806	2.88
505.008	2.94
505.21	2.92
505.411	2.88
505.613	2.79
505.815	2.74
506.016	2.7
506.218	2.72
506.42	2.75
506.621	2.81
506.823	2.82
507.024	2.82
507.226	2.88
507.427	2.84
507.629	2.86
507.83	2.85
508.032	2.81
508.233	2.8
508.435	2.81
508.636	2.83
508.838	2.83
509.039	2.85
509.24	2.83
509.442	2.84
509.643	2.81
509.845	2.88
510.046	2.9
510.247	2.96
510.448	3
510.65	2.95
510.851	2.9
511.052	2.93
511.254	2.92
511.455	2.89
511.656	2.89
511.857	2.87
512.058	2.82
512.26	2.78
512.461	2.77
512.662	2.8
512.863	2.77
513.064	2.78
513.265	2.75
513.466	2.77
513.667	2.82
513.868	2.86
514.069	2.85
514.27	2.84
514.471	2.77
514.672	2.73
514.873	2.63
515.074	2.69
515.275	2.72
515.476	2.77
515.677	2.74
515.878	2.84
516.079	2.79
516.28	2.77
516.481	2.71
516.682	2.74
516.882	2.75
517.083	2.73
517.284	2.73
517.485	2.8
517.686	2.83
517.886	2.83
518.087	2.85
518.288	2.86
518.488	2.82
518.689	2.76
518.89	2.74
519.091	2.75
519.291	2.76
519.492	2.77
519.692	2.8
519.893	2.82
520.094	2.74
520.294	2.75
520.495	2.74
520.695	2.74
520.896	2.71
521.096	2.81
521.297	2.8
521.497	2.84
521.698	2.84
521.898	2.87
522.099	2.83
522.299	2.8
522.499	2.81
522.7	2.79
522.9	2.78
523.101	2.8
523.301	2.84
523.501	2.87
523.702	2.93
523.902	2.93
524.102	2.94
524.302	2.9
524.503	2.85
524.703	2.82
524.903	2.81
525.103	2.89
525.304	2.89
525.504	2.98
525.704	2.9
525.904	2.88
526.104	2.78
526.304	2.82
526.504	2.74
526.705	2.82
526.905	2.83
527.105	2.86
527.305	2.9
527.505	2.88
527.705	2.88
527.905	2.89
528.105	2.9
528.305	2.87
528.505	2.94
528.705	2.97
528.905	2.92
529.105	2.91
529.304	2.88
529.504	2.84
529.704	2.83
529.904	2.89
530.104	2.9
530.304	2.92
530.503	2.87
530.703	2.83
530.903	2.82
531.103	2.81
531.303	2.82
531.502	2.9
531.702	2.93
531.902	2.97
532.101	2.98
532.301	2.95
532.501	2.96
532.7	2.97
532.9	2.91
533.1	2.94
533.299	2.98
533.499	2.98
533.698	2.95
533.898	2.99
534.097	2.97
534.297	2.93
534.496	2.89
534.696	2.92
534.895	2.97
535.095	2.96
535.294	3.05
535.494	3.06
535.693	3.03
535.892	2.98
536.092	3.03
536.291	2.97
536.491	2.95
536.69	2.98
536.889	2.97
537.088	2.91
537.288	2.93
537.487	2.98
537.686	2.98
537.886	2.99
538.085	3.07
538.284	3.05
538.483	3.03
538.682	3.1
538.882	3.15
539.081	3.11
539.28	3.14
539.479	3.18
539.678	3.11
539.877	3.07
540.076	3.14
540.275	3.18
540.474	3.14
540.673	3.21
540.872	3.25
541.071	3.24
541.27	3.23
541.469	3.22
541.668	3.2
541.867	3.24
542.066	3.2
542.265	3.28
542.464	3.27
542.663	3.32
542.862	3.33
543.06	3.4
543.259	3.36
543.458	3.41
543.657	3.43
543.856	3.47
544.054	3.46
544.253	3.45
544.452	3.45
544.651	3.43
544.849	3.36
545.048	3.38
545.247	3.42
545.445	3.48
545.644	3.43
545.843	3.49
546.041	3.49
546.24	3.5
546.438	3.5
546.637	3.58
546.836	3.59
547.034	3.67
547.233	3.71
547.431	3.75
547.63	3.82
547.828	3.9
548.027	3.91
548.225	3.84
548.423	3.81
548.622	3.74
548.82	3.65
549.019	3.62
549.217	3.64
549.415	3.69
549.614	3.78
549.812	3.85
550.01	3.94
550.209	4.05
550.407	4.08
550.605	4.04
550.803	4.08
551.002	4.12
551.2	4.13
551.398	4.22
551.596	4.27
551.794	4.33
551.993	4.34
552.191	4.37
552.389	4.32
552.587	4.35
552.785	4.33
552.983	4.41
553.181	4.45
553.379	4.49
553.577	4.57
553.775	4.62
553.973	4.59
554.171	4.58
554.369	4.6
554.567	4.62
554.765	4.59
554.963	4.65
555.161	4.69
555.359	4.77
555.557	4.8
555.755	4.85
555.952	4.91
556.15	4.96
556.348	4.94
556.546	4.98
556.744	5.01
556.941	4.96
557.139	5.02
557.337	5.1
557.535	5.12
557.732	5.15
557.93	5.27
558.128	5.32
558.325	5.29
558.523	5.27
558.721	5.3
558.918	5.23
559.116	5.19
559.313	5.25
559.511	5.43
559.708	5.52
559.906	5.66
560.104	5.72
560.301	5.84
560.498	5.81
560.696	5.84
560.893	5.85
561.091	5.89
561.288	5.9
561.486	5.92
561.683	5.91
561.88	5.92
562.078	5.97
562.275	5.93
562.473	5.95
562.67	6.03
562.867	6.06
563.064	6.04
563.262	6.07
563.459	6.19
563.656	6.18
563.853	6.2
564.051	6.29
564.248	6.35
564.445	6.37
564.642	6.42
564.839	6.51
565.036	6.58
565.234	6.57
565.431	6.62
565.628	6.63
565.825	6.63
566.022	6.7
566.219	6.84
566.416	6.77
566.613	6.85
566.81	6.95
567.007	6.87
567.204	6.81
567.401	6.96
567.598	6.97
567.795	6.99
567.991	7.02
568.188	7.07
568.385	6.99
568.582	7.02
568.779	7
568.976	7.17
569.172	7.24
569.369	7.32
569.566	7.4
569.763	7.43
569.96	7.37
570.156	7.34
570.353	7.36
570.55	7.35
570.746	7.42
570.943	7.47
571.14	7.52
571.336	7.54
571.533	7.51
571.729	7.56
571.926	7.58
572.123	7.56
572.319	7.62
572.516	7.7
572.712	7.73
572.909	7.72
573.105	7.85
573.302	7.88
573.498	7.79
573.695	7.68
573.891	7.74
574.087	7.69
574.284	7.63
574.48	7.74
574.677	7.89
574.873	7.9
575.069	7.99
575.266	8.03
575.462	8.05
575.658	8.05
575.854	8.09
576.051	8.01
576.247	8.05
576.443	8.11
576.639	8.15
576.835	8.1
577.032	8.09
577.228	8.07
577.424	8
577.62	7.97
577.816	7.99
578.012	8.13
578.208	8.18
578.404	8.23
578.6	8.21
578.796	8.24
578.993	8.28
579.189	8.25
579.384	8.26
579.58	8.33
579.776	8.34
579.972	8.21
580.168	8.14
580.364	8.17
580.56	8.07
580.756	8.01
580.952	8.05
581.148	8.11
581.343	8.07
581.539	8.12
581.735	8.1
581.931	8.13
582.127	8.14
582.322	8.16
582.518	8.13
582.714	8.14
582.909	8.07
583.105	8.03
583.301	8.01
583.496	7.99
583.692	7.98
583.888	7.98
584.083	7.98
584.279	7.98
584.474	8
584.67	7.98
584.866	8.04
585.061	8.06
585.257	7.93
585.452	7.95
585.648	8
585.843	7.95
586.039	7.97
586.234	8.03
586.429	8.01
586.625	8.01
586.82	8.03
587.015	7.99
587.211	7.89
587.406	7.85
587.601	7.92
587.797	7.94
587.992	7.85
588.187	7.95
588.383	8.05
588.578	8.08
588.773	8
588.968	8.13
589.163	8.15
589.359	8.04
589.554	7.95
589.749	7.97
589.944	7.92
590.139	7.89
590.334	7.91
590.529	7.99
590.724	8.07
590.919	8.1
591.114	8.13
591.309	8.14
591.504	8.06
591.699	8.02
591.894	7.96
592.089	8
592.284	8.04
592.479	8.14
592.674	8.18
592.869	8.22
593.064	8.29
593.259	8.29
593.454	8.22
593.648	8.3
593.843	8.34
594.038	8.34
594.233	8.39
594.428	8.47
594.622	8.5
594.817	8.61
595.012	8.62
595.206	8.73
595.401	8.79
595.596	8.69
595.79	8.62
595.985	8.67
596.18	8.7
596.374	8.71
596.569	8.86
596.763	8.97
596.958	9.12
597.153	9.04
597.347	9.05
597.542	9.06
597.736	9.15
597.931	9.13
598.125	9.22
598.319	9.36
598.514	9.41
598.708	9.39
598.903	9.38
599.097	9.47
599.291	9.44
599.486	9.49
599.68	9.51
599.874	9.56
600.069	9.61
600.263	9.64
600.457	9.75
600.651	9.71
600.846	9.75
601.04	9.69
601.234	9.64
601.428	9.58
601.622	9.71
601.817	9.64
602.011	9.65
602.205	9.74
602.399	9.78
602.593	9.73
602.787	9.77
602.981	9.82
603.175	9.86
603.369	9.78
603.563	9.72
603.757	9.76
603.951	9.71
604.145	9.61
604.339	9.67
604.533	9.67
604.727	9.65
604.921	9.75
605.115	9.76
605.309	9.65
605.502	9.77
605.696	9.69
605.89	9.55
606.084	9.6
606.278	9.55
606.471	9.34
606.665	9.3
606.859	9.23
607.053	9.16
607.246	9.15
607.44	9.18
607.634	9.2
607.827	9.27
608.021	9.12
608.214	9.17
608.408	9.2
608.602	9.17
608.795	9.11
608.989	9.14
609.182	9.06
609.376	8.99
609.569	8.92
609.763	8.8
609.956	8.87
610.15	8.72
610.343	8.69
610.537	8.63
610.73	8.64
610.923	8.52
611.117	8.56
611.31	8.45
611.504	8.41
611.697	8.45
611.89	8.36
612.083	8.32
612.277	8.31
612.47	8.31
612.663	8.14
612.856	8.1
613.05	8.12
613.243	7.99
613.436	7.89
613.629	7.85
613.822	7.78
614.015	7.65
614.209	7.6
614.402	7.62
614.595	7.62
614.788	7.63
614.981	7.56
615.174	7.52
615.367	7.42
615.56	7.35
615.753	7.24
615.946	7.28
616.139	7.28
616.332	7.29
616.525	7.26
616.718	7.27
616.911	7.21
617.103	7.19
617.296	7.17
617.489	7.17
617.682	7.14
617.875	7.07
618.067	7.01
618.26	6.9
618.453	6.79
618.646	6.77
618.838	6.73
619.031	6.66
619.224	6.69
619.417	6.78
619.609	6.82
619.802	6.91
619.994	6.91
620.187	6.92
620.38	6.83
620.572	6.68
620.765	6.67
620.957	6.67
621.15	6.64
621.342	6.66
621.535	6.7
621.727	6.64
621.92	6.65
622.112	6.53
622.305	6.47
622.497	6.45
622.69	6.31
622.882	6.3
623.074	6.43
623.267	6.42
623.459	6.43
623.651	6.51
623.844	6.47
624.036	6.44
624.228	6.47
624.42	6.4
624.613	6.46
624.805	6.47
624.997	6.45
625.189	6.35
625.381	6.38
625.574	6.29
625.766	6.3
625.958	6.28
626.15	6.37
626.342	6.29
626.534	6.34
626.726	6.25
626.918	6.19
627.11	6.08
627.302	6.06
627.494	5.97
627.686	5.99
627.878	6.01
628.07	6.05
628.262	6.08
628.454	6.06
628.646	6.05
628.838	6.07
629.029	6
629.221	6
629.413	5.96
629.605	5.96
629.797	5.89
629.989	5.91
630.18	5.85
630.372	5.82
630.564	5.82
630.755	5.76
630.947	5.79
631.139	5.84
631.33	5.84
631.522	5.85
631.714	5.91
631.905	5.81
632.097	5.79
632.289	5.85
632.48	5.8
632.672	5.78
632.863	5.78
633.055	5.72
633.246	5.74
633.438	5.69
633.629	5.65
633.821	5.67
634.012	5.72
634.203	5.56
634.395	5.57
634.586	5.69
634.777	5.65
634.969	5.59
635.16	5.68
635.351	5.72
635.543	5.6
635.734	5.6
635.925	5.58
636.117	5.66
636.308	5.69
636.499	5.71
636.69	5.73
636.881	5.76
637.073	5.69
637.264	5.63
637.455	5.61
637.646	5.57
637.837	5.56
638.028	5.5
638.219	5.47
638.41	5.57
638.601	5.67
638.792	5.7
638.983	5.72
639.174	5.64
639.365	5.55
639.556	5.47
639.747	5.5
639.938	5.61
640.129	5.74
640.32	5.72
640.511	5.72
640.701	5.67
640.892	5.62
641.083	5.55
641.274	5.51
641.465	5.48
641.655	5.47
641.846	5.44
642.037	5.44
642.228	5.43
642.418	5.47
642.609	5.42
642.8	5.36
642.99	5.33
643.181	5.38
643.372	5.4
643.562	5.4
643.753	5.42
643.943	5.43
644.134	5.37
644.324	5.34
644.515	5.46
644.705	5.44
644.896	5.46
645.086	5.45
645.277	5.45
645.467	5.4
645.658	5.41
645.848	5.27
646.038	5.31
646.229	5.33
646.419	5.26
646.61	5.32
646.8	5.44
646.99	5.5
647.18	5.42
647.371	5.4
647.561	5.36
647.751	5.36
647.941	5.32
648.132	5.31
648.322	5.36
648.512	5.38
648.702	5.4
648.892	5.26
649.082	5.3
649.272	5.26
649.462	5.14
649.653	5.15
649.843	5.3
650.033	5.29
650.223	5.24
650.413	5.35
650.603	5.31
650.793	5.26
650.983	5.28
651.172	5.31
651.362	5.19
651.552	5.15
651.742	5.05
651.932	5.01
652.122	4.99
652.312	5
652.502	5
652.691	5.11
652.881	5.15
653.071	5.18
653.261	5.1
653.45	4.97
653.64	4.87
653.83	4.79
654.019	4.69
654.209	4.69
654.399	4.69
654.588	4.62
654.778	4.57
654.968	4.49
655.157	4.5
655.347	4.52
655.536	4.49
655.726	4.43
655.915	4.43
656.105	4.31
656.294	4.12
656.484	4.06
656.673	3.95
656.863	3.95
657.052	3.98
657.241	4.1
657.431	4.1
657.62	4.08
657.809	3.94
657.999	3.93
658.188	3.79
658.377	3.71
658.567	3.64
658.756	3.67
658.945	3.64
659.134	3.59
659.324	3.56
659.513	3.52
659.702	3.38
659.891	3.28
660.08	3.23
660.269	3.14
660.458	3.09
660.648	3.2
660.837	3.05
661.026	2.98
661.215	2.97
661.404	2.91
661.593	2.76
661.782	2.74
661.971	2.83
662.16	2.82
662.349	2.88
662.538	2.92
662.726	2.95
662.915	2.9
663.104	2.78
663.293	2.72
663.482	2.66
663.671	2.79
663.86	2.74
664.048	2.8
664.237	2.85
664.426	2.8
664.615	2.72
664.803	2.74
664.992	2.72
665.181	2.71
665.369	2.8
665.558	2.73
665.747	2.78
665.935	2.89
666.124	2.87
666.312	2.93
666.501	3.05
666.69	3.09
666.878	2.95
667.067	2.97
667.255	2.96
667.444	3.02
667.632	3.1
667.82	3.25
668.009	3.28
668.197	3.28
668.386	3.12
668.574	3.03
668.762	3.12
668.951	3.2
669.139	3.17
669.327	3.32
669.516	3.2
669.704	3.09
669.892	3.01
670.08	3.06
670.269	3.03
670.457	3.18
670.645	3.16
670.833	3.28
671.021	3.36
671.21	3.43
671.398	3.47
671.586	3.48
671.774	3.59
671.962	3.6
672.15	3.68
672.338	3.68
672.526	3.85
672.714	3.83
672.902	3.82
673.09	3.68
673.278	3.8
673.466	3.96
673.654	4.07
673.842	4.19
674.03	4.44
674.218	4.39
674.405	4.34
674.593	4.35
674.781	4.32
674.969	4.3
675.157	4.43
675.344	4.28
675.532	4.32
675.72	4.45
675.908	4.47
676.095	4.48
676.283	4.72
676.471	4.68
676.658	4.62
676.846	4.64
677.033	4.79
677.221	4.77
677.409	4.79
677.596	4.88
677.784	4.96
677.971	4.86
678.159	4.97
678.346	5.06
678.534	5.14
678.721	5.2
678.909	5.27
679.096	5.26
679.283	5.22
679.471	5.13
679.658	5.19
679.846	5.14
680.033	5.32
680.22	5.46
680.408	5.51
680.595	5.44
680.782	5.37
680.969	5.27
681.157	5.22
681.344	5.33
681.531	5.38
681.718	5.52
681.905	5.56
682.093	5.56
682.28	5.65
682.467	5.78
682.654	5.87
682.841	5.66
683.028	5.81
683.215	5.79
683.402	5.69
683.589	5.64
683.776	5.87
683.963	5.83
684.15	5.94
684.337	6.03
684.524	6.2
684.711	6.35
684.898	6.37
685.085	6.3
685.271	6.45
685.458	6.53
685.645	6.38
685.832	6.39
686.019	6.37
686.205	6.29
686.392	6.45
686.579	6.74
686.766	6.94
686.952	7.18
687.139	7.31
687.326	7.18
687.512	7.17
687.699	7.2
687.886	7.24
688.072	7.26
688.259	7.48
688.445	7.73
688.632	7.82
688.818	7.95
689.005	8.13
689.191	8.47
689.378	8.61
689.564	8.97
689.751	9.2
689.937	9.57
690.124	9.57
690.31	9.66
690.496	9.92
690.683	10.23
690.869	10.43
691.055	10.66
691.242	10.96
691.428	11.13
691.614	11.33
691.8	11.43
691.987	11.85
692.173	12.27
692.359	12.66
692.545	13.08
692.731	13.68
692.918	13.98
693.104	14.34
693.29	14.63
693.476	15.03
693.662	15.42
693.848	16.03
694.034	16.38
694.22	16.94
694.406	17.42
694.592	17.8
694.778	18.08
694.964	18.81
695.15	19.25
695.336	19.72
695.522	20.4
695.708	20.95
695.894	21.36
696.08	22.08
696.265	22.6
696.451	23.22
696.637	23.73
696.823	24.26
697.009	24.66
697.194	25.24
697.38	25.6
697.566	26.09
697.751	26.82
697.937	27.47
698.123	28.29
698.308	28.79
698.494	29.35
698.68	29.82
698.865	30.43
699.051	30.82
699.236	31.54
699.422	32.42
699.607	32.87
699.793	33.71
699.978	34.35
700.164	35.1
700.349	35.83
700.535	36.42
700.72	36.53
700.906	36.98
701.091	37.16
701.276	37.6
701.462	38.22
701.647	39.44
701.832	40.12
702.018	41
702.203	41.74
702.388	42.76
702.573	43.39
702.759	44.18
702.944	44.6
703.129	45.16
703.314	45.5
703.499	45.62
703.684	46.19
703.87	46.79
704.055	47.37
704.24	48.32
704.425	48.91
704.61	49.63
704.795	50.48
704.98	50.87
705.165	50.85
705.35	51.46
705.535	51.87
705.72	52.32
705.905	52.8
706.09	53.5
706.275	53.74
706.459	53.72
706.644	54.32
706.829	55.18
707.014	55.97
707.199	56.84
707.384	57.22
707.568	57.61
707.753	57.76
707.938	57.66
708.123	57.91
708.307	58.75
708.492	59.21
708.677	59.29
708.861	59.75
709.046	59.9
709.231	60.13
709.415	60.21
709.6	60.84
709.784	61.3
709.969	61.94
710.153	62.47
710.338	63.04
710.522	63.24
710.707	63.4
710.891	63.35
711.076	63.63
711.26	64.01
711.445	64.94
711.629	65.6
711.813	66.72
711.998	67.02
712.182	67.08
712.366	67.2
712.551	67.2
712.735	67.02
712.919	67.07
713.103	67.61
713.288	67.57
713.472	67.71
713.656	68.21
713.84	68.82
714.024	69.2
714.208	69.69
714.393	69.89
714.577	69.8
714.761	69.66
714.945	70.1
715.129	70.24
715.313	71.11
715.497	71.57
715.681	72.1
715.865	71.82
716.049	71.91
716.233	71.54
716.417	71.41
716.601	71.35
716.785	71.97
716.968	71.81
717.152	72.3
717.336	73.08
717.52	73.71
717.704	73.54
717.888	74.59
718.071	75.17
718.255	74.86
718.439	75.03
718.622	74.76
718.806	74.34
718.99	73.71
719.174	74.16
719.357	74.19
719.541	74.77
719.724	74.55
719.908	75.29
720.092	75.26
720.275	75.35
720.459	75.84
720.642	76.38
720.826	76.45
721.009	76.66
721.193	77.12
721.376	76.89
721.559	77.24
721.743	77.51
721.926	77.42
722.11	77.36
722.293	77.73
722.476	78.25
722.66	78.89
722.843	79.47
723.026	79.96
723.21	80.24
723.393	79.4
723.576	78.76
723.759	79.03
723.942	78.85
724.126	78.85
724.309	79.72
724.492	80.25
724.675	80.27
724.858	80.44
725.041	80.79
725.224	80.61
725.407	80.86
725.59	81.09
725.774	81.26
725.957	81.21
726.14	81.8
726.322	81.71
726.505	81.53
726.688	81.56
726.871	81.89
727.054	81.55
727.237	81.88
727.42	82.54
727.603	82.33
727.786	82.5
727.968	82.96
728.151	82.86
728.334	82.24
728.517	82.95
728.699	83.09
728.882	83.54
729.065	83.32
729.248	83.39
729.43	83.9
729.613	83.72
729.796	84.42
729.978	85.14
730.161	85.82
730.343	86.23
730.526	86.94
730.708	85.91
730.891	85.34
731.073	85.36
731.256	84.72
731.438	84.18
731.621	83.6
731.803	84.57
731.986	85.68
732.168	86.07
732.35	86.71
732.533	87.92
732.715	87.36
732.898	86.05
733.08	86.44
733.262	85.69
733.444	85.38
733.627	86.31
733.809	86.66
733.991	86.39
734.173	87.49
734.355	88
734.538	87.17
734.72	87.81
734.902	88.81
735.084	88.96
735.266	88.51
735.448	89.94
735.63	89.71
735.812	88.57
735.994	87.18
736.176	87.61
736.358	87.14
736.54	87.6
736.722	87.97
736.904	89.65
737.086	89.94
737.268	89.3
737.45	89.56
737.632	89.52
737.814	89.44
737.995	89.82
738.177	90.6
738.359	89.52
738.541	89.99
738.723	90.24
738.904	90.04
739.086	91
739.268	91.86
739.449	92.47
739.631	91.89
739.813	92.32
739.994	91.31
740.176	91.7
740.358	90.86
740.539	91.24
740.721	91.01
740.902	91.09
741.084	90.74
741.265	90.1
741.447	90.13
741.628	89.41
741.81	89.16
741.991	89.69
742.172	91.38
742.354	91.79
742.535	92.56
742.717	93.56
742.898	93.23
743.079	92.79
743.261	93.22
743.442	93.62
743.623	93.88
743.804	93.86
743.986	93.32
744.167	91.61
744.348	91.07
744.529	90.5
744.71	90.66
744.891	92.3
745.073	93.02
745.254	94.37
745.435	95.08
745.616	94.09
745.797	93.59
745.978	93.97
746.159	93.85
746.34	93.58
746.521	95.44
746.702	95.08
746.883	94.24
747.064	92.17
747.245	90.5
747.426	89.57
747.606	89.19
747.787	89.09
747.968	90.37
748.149	90.72
748.33	90.36
748.51	89.73
748.691	89.96
748.872	89.5
749.053	90
749.233	91.35
749.414	91.52
749.595	91.67
749.775	92.08
749.956	92.38
750.137	90.34
750.317	89.92
750.498	90.52
750.678	90.1
750.859	91.05
751.04	92.92
751.22	92.84
751.4	93.18
751.581	92.89
751.761	92.58
751.942	91.86
752.122	92.86
752.303	92.68
752.483	93.81
752.663	94.66
752.844	94.93
753.024	95.28
753.204	95.38
753.385	94.53
753.565	93.33
753.745	92.15
753.925	93.82
754.106	93.73
754.286	94.08
754.466	93.98
754.646	94.04
754.826	91.91
755.006	91.46
755.187	92.05
755.367	92.41
755.547	91.95
755.727	91.03
755.907	91.43
756.087	90.96
756.267	89.8
756.447	91.19
756.627	91.57
756.807	92.06
756.987	92.75
757.167	94.67
757.346	94.82
757.526	96.94
757.706	95.85
757.886	95.32
758.066	94.1
758.246	93.33
758.425	90.46
758.605	90.7
758.785	91.81
758.965	92.27
759.144	93.11
759.324	95.13
759.504	96.09
759.683	95.15
759.863	93.01
760.043	92.85
760.222	93.07
760.402	92.79
760.581	93.52
760.761	95.56
760.94	95.06
761.12	93.39
761.299	92.7
761.479	89.76
761.658	88.08
761.838	87.78
762.017	87.79
762.197	88.62
762.376	90.3
762.555	89.3
762.735	90.33
762.914	87.75
763.093	88.35
763.273	87.68
763.452	90.42
763.631	89.95
763.81	92.55
763.99	91.03
764.169	92.37
764.348	90.02
764.527	89.33
764.706	89.78
764.885	89.17
765.064	87.45
765.243	89.2
765.423	88.1
765.602	86.28
765.781	88.23
765.96	87.11
766.139	85.47
766.318	87.25
766.497	88.97
766.676	87.46
766.854	90.37
767.033	92.11
767.212	90.57
767.391	90.71
767.57	89
767.749	88.66
767.928	88.92
768.106	89.63
768.285	88.03
768.464	89.22
768.643	88.46
768.821	87.88
769	86.61
769.179	87.34
769.357	86.13
769.536	87.56
769.715	86.49
769.893	88.04
770.072	88.92
770.25	89.79
770.429	89.08
770.607	88.59
770.786	89.47
770.964	87.95
771.143	88.62
771.321	88.69
771.5	94.24
771.678	92.99
771.857	94.22
772.035	95
772.213	92.82
772.392	87.4
772.57	88.64
772.748	89.3
772.927	88.9
773.105	88.33
773.283	90.66
773.461	91.71
773.64	91.28
773.818	90.92
773.996	92.75
774.174	90.26
774.352	87.81
774.531	85.92
774.709	85.15
774.887	86.1
775.065	86.4
775.243	85.89
775.421	85.55
775.599	88.53
775.777	86.06
775.955	84.61
776.133	85.8
776.311	88.79
776.489	86.11
776.667	85.62
776.844	86.05
777.022	85.63
777.2	86.47
777.378	87.47
777.556	88.84
777.734	89.25
777.911	89.56
778.089	89.71
778.267	88.35
778.445	86.98
778.622	86.04
778.8	86.08
778.978	83.06
779.155	83.6
779.333	82.89
779.511	80.81
779.688	81.97
779.866	80.38
780.043	79.86
780.221	82.41
780.398	87.08
780.576	82.56
780.753	86.38
780.931	85.21
781.108	84.49
781.286	85.35
781.463	87.3
781.64	84.05
781.818	84.33
781.995	83.78
782.172	84.09
782.35	85.95
782.527	85.45
782.704	89.46
782.882	89.18
783.059	87.25
783.236	83.11
783.413	88.74
783.59	86.93
783.768	83.84
783.945	83.91
784.122	86.29
784.299	82.95
784.476	81.75
784.653	84.6
784.83	86.79
785.007	86.28
785.184	88.08
785.361	88.28
785.538	88.4
785.715	85
785.892	88.15
786.069	88.33
786.246	86.28
786.423	91.29
786.6	96.94
786.776	92.74
786.953	89.85
787.13	89.59
787.307	85.1
787.484	81.29
787.66	83.51
787.837	85.27
788.014	86.16
788.191	89.35
788.367	83.97
788.544	91.6
788.721	91.47
788.897	92.59
789.074	88.11
789.25	89.32
789.427	83.95
789.603	87.09
789.78	88.99
789.956	89.63
790.133	92.37
790.309	90.72
790.486	88.33
790.662	88.38
790.839	93.32
791.015	92.67
791.192	92.37
791.368	92.11
791.544	94.22
791.721	92.14
791.897	91.92
792.073	91.05
792.249	88.58
792.426	86.55
792.602	84.09
792.778	85.58
792.954	86.04
793.13	89.62
793.307	89.41
793.483	89.32
793.659	92.14
793.835	94.87
794.011	91.87
794.187	85.19
794.363	87.9
794.539	84.97
794.715	78.88
794.891	79.06
795.067	79.66
795.243	80.35
795.419	81.29
795.595	83.54
795.771	80.55
795.947	90.28
796.122	81.2
796.298	78.56
796.474	80.59
796.65	83.1
796.826	75.2
797.001	79.52
797.177	81.46
797.353	81.38
797.529	78.23
797.704	78.89
797.88	80.66
798.056	76.37
798.231	75.52
798.407	76.65
798.582	77.36
798.758	82.3
798.934	88.55
799.109	92.51
799.285	96.94
799.46	101.29
799.636	97.05
799.811	96.68
799.986	92.7
800.162	93.82
800.337	95.65
800.513	94.4
800.688	93.59
800.863	91.72
801.039	89.81
801.214	78.81
801.389	80.4
801.565	83.49
801.74	79.45
801.915	78.66
802.09	84.18
802.265	81.6
802.441	79.7
802.616	77.77
802.791	78.47
802.966	82.37
803.141	87.42
803.316	83.71
803.491	85.49
803.666	83.64
803.841	82.93
804.016	83.96
804.191	87.38
804.366	95.67
804.541	98.78
804.716	96.64
804.891	91.07
805.066	87.02
805.241	87.47
805.416	78
805.591	79.62
805.765	77.55
805.94	72.88
806.115	68.41
806.29	71.66
806.464	81.12
806.639	80.9
806.814	83.33
806.989	83.88
807.163	95.05
807.338	80.08
807.512	83.38
807.687	79.36
807.862	75.59
808.036	69.2
808.211	74.45
808.385	68.17
808.56	73.24
808.734	73.08
808.909	75.35
809.083	70.83
809.258	79.7
809.432	82.4
809.606	79.93
809.781	81.54
809.955	90.72
810.13	88.77
810.304	87.79
810.478	91.68
810.652	96.1
810.827	84.72
811.001	86.7
811.175	88.37
811.349	91.82
811.524	87.72
811.698	94.98
811.872	86.81
812.046	91.74
812.22	87.03
812.394	74.95
812.568	77.99
812.742	85.28
812.916	76.86
813.09	92.84
813.264	106.99
813.438	94.12
813.612	97.53
813.786	84.12
813.96	72.28
814.134	78.47
814.308	98.45
814.482	97.24
814.656	116.87
814.83	113.19
815.003	109.85
815.177	107.22
815.351	96.7
815.525	91.11
815.698	96.71
815.872	88
816.046	80.05
816.219	84.69
816.393	94.09
816.567	103.88
816.74	113.09
816.914	128.21
817.088	149.41
817.261	148.94
817.435	143.81
817.608	159.82
817.782	138.14
817.955	133.81
818.129	141.38
818.302	120.4
818.475	120.43
818.649	131.47
818.822	115.34
818.996	102.92
819.169	104.5
819.342	94.65
819.516	85.72
819.689	89.89
819.862	92.7
820.035	97.46
820.209	90.92
820.382	99.02
820.555	101.68
820.728	105.75
820.901	98.9
821.075	113.1
821.248	116.94
821.421	103.93
821.594	98.3
821.767	97.52
821.94	92.68
822.113	68.03
822.286	68.17
822.459	60.59
822.632	78.41
822.805	80.22
822.978	103.02
823.151	111.27
823.324	121.91
823.496	86.27
823.669	67.41
823.842	69.19
824.015	46.03
824.188	37.06
824.361	34.16
824.533	57.02
824.706	36.09
824.879	59.37
825.051	63.6
825.224	81.23
825.397	80.86
825.569	90.67
825.742	86.09
825.915	91.14
826.087	87.36
826.26	81.77
826.432	90.4
826.605	84.73
826.777	77.47
826.95	91.98
827.122	89.37
827.295	73.62
827.467	91.78
827.64	71.72
827.812	55.1
827.984	61.42
828.157	69.26
828.329	68.79
828.501	103.81
828.674	114.6
828.846	98.14
829.018	103.08
829.19	109.91
829.363	95.01
829.535	97.96
829.707	106.69
829.879	88.07
830.051	60.74
830.223	69.98
830.395	62.7
830.568	66.25
830.74	90.95
830.912	99.85
831.084	88.33
831.256	82.2
831.428	62.25
831.6	58.19
831.772	63.27
831.943	65.63
832.115	77.98
832.287	110.48
832.459	96.8
832.631	98.62
832.803	98.38
832.975	94.7
833.146	79.71
833.318	65.03
833.49	80.14
833.662	82.59
833.833	82.34
834.005	78.67
834.177	90.81
834.348	86.74
834.52	85.8
834.692	101.42
834.863	116.17
835.035	113.94
835.206	100.17
835.378	120.66
835.549	109.83
835.721	111.08
835.892	110.5
836.064	139.37
836.235	115.73
836.407	131.14
836.578	103.81
836.749	126.45
836.921	112.96
837.092	122.85
837.264	101.72
837.435	119.07
837.606	108.41
837.777	95.51
837.949	94.36
838.12	55.94
838.291	46.33
838.462	46.95
838.633	53.05
838.805	56.63
838.976	75.84
839.147	83.07
839.318	116.69
839.489	135.17
839.66	141.04
839.831	133.72
840.002	181.94
840.173	123.9
840.344	88.56
840.515	56.25
840.686	49.06
840.857	53.55
841.028	51.45
841.199	68.55
841.369	77.83
841.54	92.58
841.711	118.06
841.882	114.47
842.053	100.76
842.223	98.21
842.394	89.58
842.565	83.68
842.736	87.97
842.906	78.95
843.077	82.77
843.248	76.96
843.418	81.37
843.589	86.81
843.759	96.2
843.93	153.4
844.101	369.79
844.271	80.38
844.442	79.41
844.612	68.85
844.783	100.96
844.953	35.07
845.123	59.58
845.294	78.08
845.464	70.2
845.635	75.58
845.805	145.74
845.975	166.23
846.146	212.54
846.316	521.7
846.486	203.88
846.656	175.8
846.827	108.14
846.997	70.16
847.167	90.27
847.337	69.34
847.507	108.86
847.677	113.46
847.848	146.33
848.018	126.1
848.188	160.87
848.358	91.59
848.528	102.99
848.698	67.29
848.868	55.03
849.038	19.43
849.208	46.63
849.378	70.29
849.548	64.66
849.718	356.46
849.887	-362.96
850.057	1919.35
850.227	419.31
850.397	671.81
850.567	11.49
850.737	32.26
850.906	26.28
851.076	24.78
851.246	45.14
851.415	34.14
851.585	61.03
851.755	78.27
851.924	102.51
852.094	133.43
852.264	110.18
852.433	88.22
852.603	96.66
852.772	50.78
852.942	18.86
853.111	5.77
853.281	44.57
853.45	63.89
853.62	85.26
853.789	92.33
853.959	211.98
854.128	-175.53
854.297	17.93
854.467	92.91
854.636	65.86
854.805	126.43
854.975	54.82
855.144	62.45
855.313	72.18
855.482	122.08
855.652	104.83
855.821	143.7
855.99	201.11
856.159	679.31
856.328	200.2
856.497	282.76
856.667	236.7
856.836	252.91
857.005	216.6
857.174	200.17
857.343	181.24
857.512	117.2
857.681	69.57
857.85	54.58
858.019	107.12
858.188	78.23
858.356	74.5
858.525	65.19
858.694	70.17
858.863	52.72
859.032	26.64
859.201	83.54
859.369	111.9
859.538	112.65
859.707	60.07
859.876	68.1
860.044	57.33
860.213	68.28
860.382	51.92
860.55	114.16
860.719	143.12
860.888	132.98
861.056	150.88
861.225	152.68
861.393	191.56
861.562	221.13
861.73	229.38
861.899	171.92
862.067	281.32
862.236	198.62
862.404	55.41
862.572	47.18
862.741	-108.06
862.909	10.72
863.078	41.19
863.246	80.11
863.414	83.53
863.582	72.85
863.751	95.21
863.919	80.24
864.087	68.75
864.255	97.9
864.424	135.87
864.592	73.14
864.76	66.12
864.928	3.38
865.096	17.38
865.264	20.29
865.432	53.25
865.6	69.6
865.768	117.5
865.936	63.67
866.104	230.78
866.272	119.66
866.44	68.53
866.608	61.46
866.776	68.79
866.944	51.73
867.112	54.47
867.28	10.36
867.448	2.78
867.615	30.13
867.783	31.81
867.951	-27.3
868.119	54.3
868.286	150.42
868.454	80.15
868.622	55.06
868.789	524.01
868.957	-757.92
869.125	-2.49
869.292	276.3
869.46	-457.87
869.627	-112.57
869.795	4.26
869.963	70.16
870.13	104.41
870.298	74.82
870.465	58.98
870.632	64.45
870.8	4.62
870.967	-3.33
871.135	-173.1
871.302	592.11
871.469	0.76
871.637	50.33
871.804	15.94
871.971	13.06
872.139	87.84
872.306	58.83
872.473	160.3
872.64	67.28
872.807	76.62
872.975	-3.76
873.142	28.98
873.309	52.49
873.476	43.86
873.643	66.21
873.81	102.41
873.977	86.18
874.144	141.46
874.311	223.19
874.478	172.65
874.645	69.82
874.812	486.73
874.979	60.03
875.146	39.6
875.313	29.26
875.48	-63.17
875.647	237.76
875.813	-355.7
875.98	548.07
876.147	39.82
876.314	49.71
876.481	38.85
876.647	66.19
876.814	178.9
876.981	216.65
877.147	214.77
877.314	159.37
877.481	211.03
877.647	121.87
877.814	167.58
877.98	13.86
878.147	-122.6
878.314	-75.04
878.48	984.21
878.647	341.48
878.813	2076.98
878.979	104.99
879.146	83.13
879.312	28.11
879.479	76.08
879.645	67.88
879.811	39.15
879.978	79.58
880.144	232.85
880.31	656.88
880.477	-520.13
880.643	-762.7
880.809	-836.59
880.975	-346.23
881.142	-391.85
881.308	-385.77
881.474	27.59
881.64	79.2
881.806	68.98
881.972	103.14
882.138	89.37
882.304	68.53
882.47	34.65
882.636	40.69
882.802	45.68
882.968	55.5
883.134	58.33
883.3	85.34
883.466	103.94
883.632	116.96
883.798	106.76
883.964	94.52
884.129	68.94
884.295	73.68
884.461	-337.32
884.627	314.13
884.793	53.39
884.958	15.09
885.124	-66.34
885.29	157.49
885.455	89.72
885.621	67.45
885.787	75.54
885.952	46.61
886.118	106.06
886.283	97.67
886.449	200.66
886.614	105.99
886.78	159.24
886.945	107.99
887.111	97.91
887.276	118.93
887.442	162.5
887.607	151.46
887.773	322.13
887.938	241.77
888.103	145.81
888.269	217.71
888.434	8641.18
888.599	-82.51
888.764	1416.5
888.93	114.91
889.095	85.12
889.26	135.19
889.425	124.76
889.59	47.45
889.756	81.07
889.921	29.34
890.086	41.51
890.251	38.73
890.416	63.41
890.581	18.96
890.746	76.67
890.911	111.66
891.076	215.54
891.241	49.08
891.406	7128.57
891.571	315.12
891.736	123.69
891.901	169.75
892.065	52.66
892.23	102.69
892.395	206.8
892.56	1453.02
892.725	-45.73
892.889	23.46
893.054	-11.26
893.219	-953.24
893.384	-157.02
893.548	-493.34
893.713	-395.87
893.878	-685.34
