Data from Ofav_SP_Phys_0AZ4_Reflection_3.txt Node
Date: Thu Aug 05 17:43:20 EDT 2021
User: Adam
Spectrometer: FLMT01687
Trigger mode: 0
Integration Time (sec): 8.000000E-1
Scans to average: 2
Electric dark correction enabled: true
Nonlinearity correction enabled: false
Boxcar width: 2
XAxis mode: Wavelengths
Number of Pixels in Spectrum: 3648
>>>>>Begin Spectral Data<<<<<
179.494	318.64
179.716	343.13
179.937	282.73
180.158	325.05
180.38	636.84
180.601	-175.93
180.823	-78.49
181.044	-65.59
181.265	-8.28
181.486	23.8
181.708	555.03
181.929	-80.81
182.15	-563.67
182.372	5.04
182.593	42.37
182.814	-202.88
183.035	87.42
183.257	858.01
183.478	-1114.24
183.699	1403.95
183.92	462.75
184.141	-1457.85
184.363	1809.19
184.584	-141.57
184.805	2.35
185.026	13.6
185.247	6.3
185.468	29.08
185.689	23.06
185.91	15.22
186.132	-56.71
186.353	-1.79
186.574	-65.07
186.795	-49.44
187.016	-33.97
187.237	12.07
187.458	-164
187.679	-17.34
187.9	-2.61
188.121	-56.15
188.342	-37.93
188.563	-20.2
188.784	-26.08
189.005	-134.09
189.226	-51.17
189.447	-46.17
189.667	-31.19
189.888	-99
190.109	41.19
190.33	43.04
190.551	44.94
190.772	27.69
190.993	20.45
191.214	21.09
191.434	15.89
191.655	-4.32
191.876	-5.18
192.097	12.46
192.318	0.54
192.538	-32.75
192.759	65.75
192.98	54.68
193.201	-90.16
193.421	-153.15
193.642	-67.1
193.863	-139.24
194.083	-63.21
194.304	-22.25
194.525	-28.7
194.745	-35
194.966	-21.82
195.187	-35.78
195.407	-75.85
195.628	-82.49
195.848	-63.11
196.069	-27.04
196.29	-39.96
196.51	-27.82
196.731	11.22
196.951	21.01
197.172	17.55
197.392	35.06
197.613	26.67
197.833	34.02
198.054	25.17
198.274	25.74
198.495	15.11
198.715	34.01
198.936	18.34
199.156	20.06
199.377	39.64
199.597	22.59
199.817	4.69
200.038	4.32
200.258	14.17
200.479	7.21
200.699	15.21
200.919	11.49
201.14	-5.37
201.36	-24.64
201.58	-39.19
201.801	-104.58
202.021	-87.79
202.241	-24.19
202.461	-61.73
202.682	-57.87
202.902	-124.15
203.122	-226.66
203.342	-185.85
203.563	-95.37
203.783	-101.99
204.003	-7.59
204.223	19.68
204.443	-8.25
204.663	-14.32
204.884	0.69
205.104	-8.95
205.324	-20.27
205.544	-4.94
205.764	4.82
205.984	-20.74
206.204	-33.98
206.424	-23.16
206.644	-37.6
206.864	-39.06
207.084	-58.57
207.304	-42.89
207.525	-98.15
207.745	-40.2
207.964	-64.03
208.184	-30.96
208.404	-23.7
208.624	-21.11
208.844	-54.85
209.064	-20.09
209.284	6.15
209.504	-42.27
209.724	-24.93
209.944	-17.87
210.164	-35.79
210.384	-34.87
210.604	-24.43
210.823	0.8
211.043	-5.64
211.263	-4.37
211.483	0.4
211.703	25.8
211.922	-21.71
212.142	-19.46
212.362	-17.88
212.582	-47.48
212.801	-84.16
213.021	-20.66
213.241	-39.14
213.461	-36.12
213.68	-36.75
213.9	-51.41
214.12	-87.94
214.339	-69.22
214.559	-41.43
214.779	-36.29
214.998	-2.62
215.218	7.77
215.438	29.37
215.657	-15.99
215.877	-30.16
216.096	-92.99
216.316	-115.15
216.535	-170.08
216.755	-229.36
216.974	-545.64
217.194	-58.56
217.413	-7.02
217.633	21.28
217.852	50.28
218.072	26.45
218.291	-5.26
218.511	-2.23
218.73	-21.21
218.95	-65.26
219.169	-80.11
219.389	-9.9
219.608	-53.36
219.827	-36.92
220.047	-33.25
220.266	6.46
220.485	-46.81
220.705	-36.51
220.924	-82.81
221.143	-60.64
221.363	-81.61
221.582	-57.05
221.801	-58.87
222.021	1.14
222.24	6.87
222.459	-2.3
222.678	3.21
222.897	8.15
223.117	-19.66
223.336	-20.68
223.555	-17.8
223.774	-51.44
223.993	-68.28
224.213	9.7
224.432	-17.95
224.651	-10.04
224.87	9.37
225.089	21.53
225.308	-32.53
225.527	-11
225.746	-5.53
225.965	-23.15
226.184	-2.61
226.404	-6.82
226.623	-31.08
226.842	3.4
227.061	21.73
227.28	8.45
227.499	0.02
227.718	8.34
227.936	-19.1
228.155	-46.08
228.374	-24.33
228.593	-15.01
228.812	-20.49
229.031	-10.21
229.25	-8.64
229.469	-2.81
229.688	16.03
229.907	24.36
230.125	1.38
230.344	-4.9
230.563	-12.35
230.782	-111.95
231.001	-143.4
231.22	-20.51
231.438	35.31
231.657	28.4
231.876	-1.41
232.095	9.85
232.313	-23.53
232.532	-67.65
232.751	-80.07
232.969	-22.27
233.188	-47.13
233.407	-57.88
233.625	-26.55
233.844	-52.18
234.063	-52.5
234.281	-24.23
234.5	6.8
234.719	0.03
234.937	-14.22
235.156	-21.39
235.374	-28.43
235.593	-30.8
235.811	-57.24
236.03	-26.01
236.249	-28.2
236.467	-8.51
236.686	-41.81
236.904	-25.48
237.123	-67.25
237.341	-22.73
237.559	-50.52
237.778	-38.73
237.996	-16.61
238.215	-18.68
238.433	-20.46
238.652	-23.06
238.87	-12.49
239.088	-13.5
239.307	-8.51
239.525	-21.57
239.743	-9.12
239.962	17.22
240.18	-16.28
240.398	-13.22
240.617	-7.32
240.835	-16.42
241.053	-33.65
241.271	-26.13
241.49	-16.33
241.708	-56.81
241.926	-35.63
242.144	-67.73
242.363	-111.61
242.581	-84.55
242.799	-45.87
243.017	-18.55
243.235	-89.83
243.453	-31.71
243.672	-37.25
243.89	-69.97
244.108	-122.44
244.326	-21.46
244.544	-27.91
244.762	-45.63
244.98	-46.8
245.198	-52.89
245.416	-51.08
245.634	-62.95
245.852	-89.5
246.07	-22.94
246.288	-21.85
246.506	-69.67
246.724	-35.89
246.942	-22.26
247.16	-56.21
247.378	-143.19
247.596	-71.9
247.814	-73.34
248.032	-65.11
248.25	-81.27
248.468	-38.21
248.685	-21.66
248.903	-23.95
249.121	-38.08
249.339	-13.41
249.557	-19.79
249.775	-26.69
249.992	-21.41
250.21	19.91
250.428	-1.35
250.646	12.93
250.863	5.26
251.081	23.7
251.299	4.86
251.517	50.24
251.734	35.63
251.952	19.81
252.17	-13.49
252.387	-37.49
252.605	-40.36
252.823	-35.92
253.04	-16.44
253.258	-10.93
253.475	3.54
253.693	-24.58
253.911	-6.06
254.128	2.27
254.346	14.4
254.563	22.76
254.781	35.13
254.998	-10.1
255.216	-23.08
255.433	-57.59
255.651	-158.92
255.868	-130.03
256.086	-112.55
256.303	-93.72
256.521	-170.13
256.738	-208.53
256.956	-388.43
257.173	-90.72
257.39	-35.48
257.608	-31.26
257.825	-6.96
258.043	-8.25
258.26	-32.61
258.477	-48.34
258.695	-14.15
258.912	-3.45
259.129	6.03
259.346	12.62
259.564	21.46
259.781	16.19
259.998	5.93
260.216	-8.08
260.433	5.77
260.65	-19.16
260.867	-82.13
261.084	-42.4
261.302	-5.36
261.519	-12.46
261.736	19.21
261.953	35.12
262.17	34.42
262.387	14.64
262.604	1.3
262.822	-11.55
263.039	-45.98
263.256	-3.9
263.473	-1.11
263.69	34.18
263.907	22.77
264.124	1.62
264.341	-18.67
264.558	-17.1
264.775	-40.91
264.992	-47.07
265.209	-10.82
265.426	-32.95
265.643	-14.08
265.86	-26.22
266.077	-32.74
266.294	-65.28
266.51	-42.29
266.727	-53.44
266.944	-33.68
267.161	-23.24
267.378	5.36
267.595	-8.59
267.812	-1.17
268.028	-5.8
268.245	2.55
268.462	-35.6
268.679	-40.07
268.896	-32.1
269.112	-29.65
269.329	-14.39
269.546	25.12
269.763	40.87
269.979	39.46
270.196	36.65
270.413	25.94
270.629	3.69
270.846	-23.44
271.063	-12.46
271.279	-38.86
271.496	-87.58
271.712	-102.71
271.929	-104.54
272.146	-88.47
272.362	-113.73
272.579	-89.92
272.795	-72.26
273.012	-28.65
273.228	-42.8
273.445	-14.47
273.661	22.49
273.878	13.86
274.094	3.45
274.311	11.29
274.527	7.21
274.744	-28.35
274.96	-14.74
275.177	-19.95
275.393	-55.12
275.609	-55.14
275.826	-43.25
276.042	-48.48
276.259	-52.79
276.475	-22.06
276.691	-20.36
276.908	-9.1
277.124	7.73
277.34	7.51
277.557	-7.9
277.773	4.57
277.989	-25.23
278.205	-27.52
278.422	-21.48
278.638	11.87
278.854	2.55
279.07	7.72
279.286	7.22
279.503	1.05
279.719	-36.14
279.935	-13.57
280.151	13.29
280.367	12.47
280.583	20.39
280.799	53.16
281.016	57.86
281.232	31.84
281.448	-20.26
281.664	-27.52
281.88	-109.14
282.096	-68.33
282.312	-38.01
282.528	-8.43
282.744	-6.64
282.96	12.18
283.176	7.51
283.392	19.89
283.608	9.79
283.824	-0.38
284.04	-2.43
284.256	-11.47
284.471	-46.13
284.687	-43.42
284.903	-23.82
285.119	-26.59
285.335	-33.83
285.551	-33.27
285.767	-24.11
285.982	-43.68
286.198	-72.44
286.414	-53.15
286.63	-23.42
286.846	-24.86
287.061	-16.03
287.277	4.61
287.493	7.53
287.709	-5.43
287.924	7.95
288.14	8.94
288.356	7.96
288.571	16.15
288.787	20.79
289.003	17.13
289.218	-10.33
289.434	-46.59
289.65	-34.32
289.865	5.25
290.081	-11.01
290.296	7.2
290.512	8.47
290.727	1.25
290.943	-9.65
291.159	-1.73
291.374	3.86
291.59	4.27
291.805	4.18
292.021	10.79
292.236	-1.86
292.451	-19.59
292.667	-48.56
292.882	-31.56
293.098	-31.42
293.313	-13.71
293.529	-4.69
293.744	0.01
293.959	-4.78
294.175	-6.77
294.39	-12.1
294.605	-36.69
294.821	-38.02
295.036	-45.5
295.251	-38.7
295.467	-24.15
295.682	-15.23
295.897	-7.3
296.112	-12.68
296.328	-10.89
296.543	-1.5
296.758	-6.78
296.973	-12.99
297.188	22.04
297.404	17.76
297.619	14.71
297.834	8.05
298.049	-5.11
298.264	-51.78
298.479	-49.87
298.694	-75.42
298.909	-29.11
299.125	-6.81
299.34	23.81
299.555	23.21
299.77	44.3
299.985	59.57
300.2	65.18
300.415	28.91
300.63	3.15
300.845	-23.65
301.06	-39.37
301.275	-52.42
301.49	-38.77
301.704	-60.89
301.919	-7.2
302.134	-14.78
302.349	-3.5
302.564	-8.6
302.779	3.1
302.994	-0.18
303.209	9.11
303.423	13.96
303.638	33.45
303.853	11.52
304.068	-7.29
304.283	-0.49
304.497	-15.26
304.712	-64.8
304.927	-38.79
305.142	-12.59
305.356	-44.41
305.571	-36.46
305.786	-2.33
306	14.35
306.215	13.7
306.43	23.04
306.644	42.47
306.859	41.08
307.074	32.14
307.288	23.89
307.503	31.32
307.717	20.87
307.932	11.27
308.147	-4
308.361	2.95
308.576	-8.05
308.79	-26.72
309.005	-11.71
309.219	-20.71
309.434	-42.5
309.648	-92.67
309.863	-87.51
310.077	-144.92
310.292	-140.98
310.506	-107.34
310.72	-61.21
310.935	-67.05
311.149	-82.87
311.364	-38.95
311.578	-20.47
311.792	10.51
312.007	1.81
312.221	16.5
312.435	17.54
312.649	21.1
312.864	-6.51
313.078	13.19
313.292	20.43
313.507	17.93
313.721	17.62
313.935	2.41
314.149	-9.77
314.363	-14.75
314.578	3.9
314.792	-7.09
315.006	-11.84
315.22	-1.91
315.434	-32.9
315.648	-102.46
315.862	-107.32
316.077	-74.99
316.291	-64.07
316.505	-37.12
316.719	1.95
316.933	11.04
317.147	4.69
317.361	-1.35
317.575	0.02
317.789	-11.72
318.003	-52.02
318.217	-8.17
318.431	6.25
318.645	17.76
318.859	5.3
319.073	9.28
319.287	-4.4
319.5	-12.82
319.714	-7.75
319.928	10.73
320.142	19.01
320.356	27.5
320.57	15.15
320.784	-12.41
320.997	-48.91
321.211	-28.88
321.425	-69.44
321.639	-34.54
321.853	-32.2
322.066	-13.67
322.28	-22.58
322.494	-22.68
322.707	-27.53
322.921	-13.26
323.135	-18.29
323.349	-4.23
323.562	-9.08
323.776	2.22
323.989	-13.76
324.203	-7.74
324.417	-17.42
324.63	-7.08
324.844	-22.44
325.057	-25.53
325.271	-66.64
325.485	-46.42
325.698	-54.75
325.912	-44.73
326.125	-13.19
326.339	10.28
326.552	-4.35
326.766	-2.98
326.979	16.55
327.193	3.53
327.406	-1.65
327.619	-1.28
327.833	-2.43
328.046	-24.58
328.26	-61.59
328.473	-27.07
328.686	-11.77
328.9	-21.94
329.113	-20.47
329.326	-15.59
329.54	-20
329.753	-35.73
329.966	-7.97
330.179	-7.47
330.393	4.52
330.606	15.41
330.819	0.76
331.032	-34.06
331.246	-1.27
331.459	-5.47
331.672	-23.72
331.885	23.02
332.098	45.1
332.311	23.88
332.525	-1.48
332.738	-7.98
332.951	-30.85
333.164	-32.07
333.377	-13.75
333.59	-7.02
333.803	-23.15
334.016	-25.86
334.229	-55.19
334.442	-42.78
334.655	-26
334.868	10.87
335.081	9.19
335.294	26.25
335.507	13.02
335.72	27.08
335.933	16.3
336.146	25.6
336.359	11.92
336.572	13.05
336.785	-9.3
336.997	-2.23
337.21	-3.27
337.423	25.81
337.636	32.08
337.849	43.52
338.062	15.17
338.274	-8.79
338.487	-32.58
338.7	-27.05
338.913	-49.91
339.125	-20.77
339.338	-16.25
339.551	-17.77
339.763	-4.35
339.976	11.86
340.189	11.45
340.402	-5.44
340.614	2.2
340.827	-8.69
341.039	-10.71
341.252	-10.27
341.465	7.84
341.677	4.34
341.89	-0.34
342.102	8.87
342.315	-6.67
342.527	10.24
342.74	6.18
342.952	0.25
343.165	-26.18
343.377	-2.62
343.59	-87.66
343.802	-71.71
344.015	-66.23
344.227	-39.63
344.44	-37.21
344.652	1.05
344.864	17.58
345.077	23.37
345.289	16.76
345.502	6.75
345.714	0.5
345.926	-1.32
346.139	4.37
346.351	9.53
346.563	-1.17
346.775	2.54
346.988	-21.28
347.2	-28.41
347.412	-77.48
347.624	-31.85
347.837	-18.03
348.049	-8.38
348.261	-9.75
348.473	11.21
348.685	27.14
348.897	26.27
349.11	12.3
349.322	4.86
349.534	-0.25
349.746	-36.21
349.958	-42.34
350.17	-27.64
350.382	-18.34
350.594	-29.03
350.806	-22.77
351.018	-2.84
351.23	8.27
351.442	14.5
351.654	8.92
351.866	14.39
352.078	4.47
352.29	-3.27
352.502	0.67
352.714	-9.38
352.926	-5.51
353.138	-7.72
353.35	6.68
353.561	-6.22
353.773	4.82
353.985	-0.53
354.197	10.23
354.409	-4.68
354.621	-10.68
354.832	-6.1
355.044	-14.08
355.256	-15.07
355.468	-26.22
355.679	-14.3
355.891	-8.09
356.103	-15.27
356.314	-23.17
356.526	-27.31
356.738	-21.99
356.949	-48.76
357.161	-35.54
357.373	-39.78
357.584	-29.14
357.796	-25.97
358.008	-13.12
358.219	-44.15
358.431	-49.32
358.642	-34.77
358.854	-8.79
359.065	-2.56
359.277	21.39
359.488	15.7
359.7	16.17
359.911	-4.24
360.123	-6.7
360.334	1.02
360.546	2.93
360.757	-5.92
360.969	-5.05
361.18	-6.53
361.391	-12.47
361.603	10.68
361.814	3.62
362.025	8.29
362.237	9.8
362.448	3.15
362.659	-8.29
362.871	-5.64
363.082	-8.47
363.293	-14.14
363.504	-25.17
363.716	-40.94
363.927	-20.57
364.138	-48.4
364.349	-45.53
364.56	-49.27
364.772	-42.56
364.983	-70.03
365.194	-32.86
365.405	-35.27
365.616	-2.12
365.827	7.87
366.038	12.96
366.25	14.78
366.461	9.28
366.672	9.66
366.883	12.68
367.094	11.58
367.305	15.91
367.516	26.84
367.727	34.25
367.938	9.19
368.149	-6.15
368.36	-27.84
368.571	-60.46
368.781	-95.5
368.992	-44.15
369.203	4.03
369.414	14.71
369.625	9.52
369.836	-9.62
370.047	-19.63
370.258	-26.37
370.468	-27.97
370.679	-18.9
370.89	-6.23
371.101	-6.92
371.312	-6.98
371.522	-1.84
371.733	-11.28
371.944	-8.24
372.155	-3.68
372.365	-4.19
372.576	2.55
372.787	-1.25
372.997	-5.66
373.208	6.85
373.419	0.53
373.629	-9.01
373.84	7.8
374.05	14.92
374.261	8.25
374.472	8.37
374.682	6.4
374.893	12.52
375.103	4.58
375.314	-5.37
375.524	-5.21
375.735	-9.79
375.945	-9.5
376.156	-14.78
376.366	-1.35
376.577	5.68
376.787	11.85
376.997	8.81
377.208	6.91
377.418	15.69
377.629	14.67
377.839	21.13
378.049	14.16
378.26	24.77
378.47	17.24
378.68	23.56
378.89	11.51
379.101	14.52
379.311	15.75
379.521	23.81
379.732	11.82
379.942	22.47
380.152	17.6
380.362	8.83
380.572	9.56
380.783	2.62
380.993	-2.13
381.203	-1.34
381.413	4.52
381.623	6.05
381.833	15.53
382.043	16.35
382.253	21.92
382.463	27.73
382.674	23.73
382.884	16.15
383.094	7.38
383.304	0.56
383.514	-4.07
383.724	-7.92
383.934	-1.89
384.144	-0.32
384.353	7.65
384.563	2.86
384.773	4.52
384.983	-1.44
385.193	1.49
385.403	-2.64
385.613	-0.66
385.823	-6.02
386.033	-5.1
386.242	-0.06
386.452	1.29
386.662	3.01
386.872	2.99
387.082	7.43
387.291	-0.91
387.501	0.73
387.711	-1.11
387.921	0.66
388.13	-5.36
388.34	-1.6
388.55	-6.23
388.759	-8.95
388.969	-6.11
389.179	-2.61
389.388	1.79
389.598	3.14
389.807	5.96
390.017	7.55
390.227	5.59
390.436	2.67
390.646	0.03
390.855	-0.3
391.065	-1.98
391.274	0.7
391.484	2.64
391.693	5.67
391.903	6.64
392.112	6.9
392.322	8.01
392.531	8.59
392.74	9.2
392.95	6.71
393.159	5.95
393.369	4.68
393.578	3.31
393.787	3.45
393.997	4.89
394.206	5.28
394.415	6.21
394.625	7.21
394.834	7.2
395.043	7.01
395.252	7.11
395.462	6.64
395.671	6.18
395.88	6.08
396.089	6.19
396.298	6.58
396.508	6.74
396.717	6.6
396.926	6.37
397.135	6.12
397.344	5.75
397.553	6.24
397.762	5.98
397.971	5.8
398.181	5.91
398.39	5.59
398.599	5.4
398.808	5.58
399.017	5.56
399.226	5.93
399.435	6.19
399.644	6.13
399.853	6.29
400.062	6.32
400.27	6.09
400.479	5.89
400.688	5.59
400.897	5.7
401.106	5.84
401.315	5.54
401.524	5.83
401.733	5.98
401.941	5.91
402.15	5.71
402.359	5.9
402.568	5.66
402.777	5.83
402.985	5.63
403.194	5.52
403.403	5.5
403.612	5.63
403.82	5.49
404.029	5.56
404.238	5.9
404.446	5.93
404.655	6.05
404.864	5.9
405.072	5.81
405.281	5.6
405.489	5.75
405.698	5.62
405.906	5.57
406.115	5.56
406.324	5.7
406.532	5.55
406.741	5.54
406.949	5.52
407.158	5.73
407.366	5.71
407.574	5.7
407.783	5.58
407.991	5.61
408.2	5.42
408.408	5.31
408.617	5.29
408.825	5.4
409.033	5.45
409.242	5.52
409.45	5.47
409.658	5.36
409.867	5.37
410.075	5.36
410.283	5.37
410.491	5.42
410.7	5.57
410.908	5.56
411.116	5.58
411.324	5.54
411.533	5.53
411.741	5.42
411.949	5.42
412.157	5.39
412.365	5.43
412.573	5.41
412.781	5.5
412.99	5.42
413.198	5.56
413.406	5.62
413.614	5.55
413.822	5.47
414.03	5.54
414.238	5.42
414.446	5.3
414.654	5.37
414.862	5.3
415.07	5.19
415.278	5.13
415.486	4.97
415.694	4.86
415.902	4.89
416.109	4.78
416.317	4.85
416.525	5.03
416.733	5.2
416.941	5.27
417.149	5.35
417.357	5.33
417.564	5.25
417.772	5.02
417.98	4.89
418.188	4.97
418.395	4.86
418.603	4.82
418.811	4.8
419.019	4.98
419.226	4.91
419.434	5.11
419.642	5.03
419.849	5.25
420.057	5.07
420.265	5.13
420.472	4.93
420.68	5.01
420.887	4.81
421.095	4.8
421.302	4.64
421.51	4.63
421.717	4.72
421.925	4.71
422.132	4.95
422.34	5.04
422.547	5.07
422.755	4.88
422.962	5.12
423.17	5
423.377	4.92
423.585	4.9
423.792	4.9
423.999	4.76
424.207	4.64
424.414	4.49
424.621	4.58
424.829	4.73
425.036	4.53
425.243	4.68
425.451	4.94
425.658	4.81
425.865	4.63
426.072	4.7
426.28	4.57
426.487	4.57
426.694	4.6
426.901	4.65
427.108	4.81
427.315	4.84
427.523	4.77
427.73	4.64
427.937	4.71
428.144	4.69
428.351	4.81
428.558	4.81
428.765	4.83
428.972	4.72
429.179	4.67
429.386	4.52
429.593	4.45
429.8	4.62
430.007	4.67
430.214	4.73
430.421	4.82
430.628	4.73
430.835	4.74
431.042	4.77
431.249	4.82
431.456	4.73
431.662	5.05
431.869	5.03
432.076	4.99
432.283	5.01
432.49	5.12
432.697	4.97
432.903	4.93
433.11	4.84
433.317	4.67
433.524	4.73
433.73	4.77
433.937	4.85
434.144	4.97
434.35	5.01
434.557	4.84
434.764	4.82
434.97	4.74
435.177	4.87
435.384	4.76
435.59	4.81
435.797	4.87
436.003	4.9
436.21	4.68
436.416	4.8
436.623	4.81
436.829	4.77
437.036	4.65
437.242	4.68
437.449	4.8
437.655	4.85
437.862	4.9
438.068	5.08
438.275	5.27
438.481	5.16
438.687	5.24
438.894	5.25
439.1	5.12
439.307	5.12
439.513	5.17
439.719	5.11
439.926	5.1
440.132	5.18
440.338	5.12
440.544	5.13
440.751	5.16
440.957	5.25
441.163	5.19
441.369	5.21
441.575	5.12
441.782	5.13
441.988	4.94
442.194	4.9
442.4	4.84
442.606	4.94
442.812	4.9
443.018	5.04
443.224	5.12
443.431	5.16
443.637	5.1
443.843	5.06
444.049	4.93
444.255	4.95
444.461	4.98
444.667	4.93
444.873	4.92
445.079	5.02
445.284	5.05
445.49	5.05
445.696	5.12
445.902	5.19
446.108	5.13
446.314	5.04
446.52	5.13
446.726	5.1
446.931	5.06
447.137	5.05
447.343	5.13
447.549	5.02
447.755	5.14
447.96	5.13
448.166	5.18
448.372	5.1
448.578	5.27
448.783	5.22
448.989	5.21
449.195	5.3
449.4	5.41
449.606	5.3
449.812	5.35
450.017	5.42
450.223	5.38
450.428	5.4
450.634	5.51
450.84	5.42
451.045	5.38
451.251	5.38
451.456	5.42
451.662	5.31
451.867	5.36
452.073	5.53
452.278	5.57
452.483	5.41
452.689	5.44
452.894	5.52
453.1	5.45
453.305	5.45
453.51	5.51
453.716	5.49
453.921	5.45
454.127	5.46
454.332	5.43
454.537	5.52
454.742	5.63
454.948	5.62
455.153	5.55
455.358	5.51
455.563	5.47
455.769	5.41
455.974	5.43
456.179	5.49
456.384	5.5
456.589	5.6
456.795	5.55
457	5.51
457.205	5.5
457.41	5.5
457.615	5.44
457.82	5.47
458.025	5.47
458.23	5.55
458.435	5.55
458.64	5.49
458.845	5.56
459.05	5.55
459.255	5.51
459.46	5.56
459.665	5.66
459.87	5.57
460.075	5.64
460.28	5.66
460.485	5.63
460.69	5.52
460.895	5.55
461.099	5.61
461.304	5.63
461.509	5.7
461.714	5.79
461.919	5.76
462.123	5.74
462.328	5.72
462.533	5.78
462.738	5.89
462.942	6.03
463.147	6.01
463.352	6.04
463.556	5.94
463.761	5.79
463.966	5.76
464.17	5.77
464.375	5.78
464.58	5.86
464.784	5.89
464.989	5.99
465.193	5.99
465.398	6.04
465.602	6.15
465.807	6.23
466.011	6.24
466.216	6.3
466.42	6.33
466.625	6.32
466.829	6.44
467.034	6.3
467.238	6.2
467.443	6.08
467.647	5.97
467.851	5.83
468.056	5.82
468.26	5.96
468.464	6.04
468.669	6.16
468.873	6.14
469.077	6.14
469.282	6.15
469.486	6.15
469.69	6.03
469.894	6.08
470.099	6.14
470.303	6.02
470.507	5.94
470.711	6.09
470.915	6.09
471.119	6.09
471.324	6.1
471.528	6.16
471.732	6.14
471.936	6.16
472.14	6.15
472.344	6.24
472.548	6.25
472.752	6.19
472.956	6.12
473.16	6.16
473.364	6.13
473.568	6.06
473.772	6.08
473.976	6.09
474.18	5.99
474.384	6.04
474.588	6.14
474.792	6.07
474.995	6.16
475.199	6.21
475.403	6.14
475.607	6.1
475.811	6.18
476.015	6.11
476.218	6.15
476.422	6.18
476.626	6.26
476.83	6.25
477.033	6.32
477.237	6.37
477.441	6.38
477.644	6.36
477.848	6.35
478.052	6.29
478.255	6.23
478.459	6.32
478.663	6.26
478.866	6.29
479.07	6.34
479.273	6.33
479.477	6.26
479.681	6.36
479.884	6.31
480.088	6.26
480.291	6.37
480.495	6.34
480.698	6.23
480.901	6.28
481.105	6.37
481.308	6.19
481.512	6.22
481.715	6.29
481.919	6.24
482.122	6.15
482.325	6.17
482.529	6.18
482.732	6.18
482.935	6.23
483.138	6.37
483.342	6.39
483.545	6.35
483.748	6.29
483.952	6.25
484.155	6.15
484.358	6.16
484.561	6.2
484.764	6.21
484.967	6.24
485.171	6.2
485.374	6.18
485.577	6.17
485.78	6.2
485.983	6.2
486.186	6.27
486.389	6.28
486.592	6.24
486.795	6.23
486.998	6.16
487.201	6.09
487.404	6.04
487.607	6.14
487.81	6.08
488.013	6.07
488.216	6.07
488.419	6.08
488.622	6.01
488.825	6.01
489.028	6.01
489.231	6.11
489.433	6.15
489.636	6.18
489.839	6.15
490.042	6.22
490.245	6.17
490.447	6.16
490.65	6.12
490.853	6.24
491.056	6.2
491.258	6.18
491.461	6.22
491.664	6.13
491.866	6.02
492.069	6.04
492.272	5.93
492.474	5.89
492.677	5.92
492.879	5.87
493.082	5.85
493.285	5.95
493.487	5.88
493.69	5.87
493.892	5.97
494.095	6.03
494.297	6.01
494.5	6.16
494.702	6.21
494.905	6.14
495.107	6.08
495.309	6.05
495.512	5.94
495.714	5.97
495.917	6.02
496.119	6.09
496.321	6.09
496.524	6.06
496.726	6
496.928	5.99
497.13	5.92
497.333	5.91
497.535	5.98
497.737	6
497.939	6.04
498.142	6.05
498.344	6.01
498.546	5.96
498.748	5.87
498.95	5.76
499.152	5.71
499.355	5.77
499.557	5.8
499.759	5.86
499.961	5.91
500.163	5.93
500.365	6.02
500.567	5.97
500.769	6
500.971	5.94
501.173	5.96
501.375	5.87
501.577	5.93
501.779	5.92
501.981	6.05
502.183	6.01
502.385	6
502.587	5.94
502.788	5.95
502.99	5.89
503.192	5.88
503.394	5.88
503.596	5.9
503.798	5.87
503.999	5.85
504.201	5.9
504.403	5.9
504.605	5.88
504.806	5.86
505.008	5.87
505.21	5.83
505.411	5.82
505.613	5.85
505.815	5.88
506.016	5.88
506.218	5.9
506.42	5.92
506.621	5.91
506.823	5.94
507.024	5.92
507.226	5.99
507.427	5.93
507.629	5.94
507.83	5.91
508.032	5.99
508.233	5.99
508.435	5.93
508.636	5.97
508.838	5.98
509.039	5.88
509.24	5.84
509.442	5.96
509.643	5.86
509.845	5.85
510.046	5.84
510.247	5.83
510.448	5.83
510.65	5.88
510.851	5.87
511.052	5.92
511.254	5.91
511.455	5.88
511.656	5.88
511.857	5.89
512.058	5.87
512.26	5.9
512.461	5.87
512.662	5.89
512.863	5.86
513.064	5.9
513.265	5.89
513.466	5.91
513.667	5.95
513.868	5.96
514.069	6
514.27	5.93
514.471	5.96
514.672	5.91
514.873	5.79
515.074	5.72
515.275	5.74
515.476	5.73
515.677	5.73
515.878	5.88
516.079	5.86
516.28	5.86
516.481	5.84
516.682	5.77
516.882	5.8
517.083	5.77
517.284	5.87
517.485	5.87
517.686	5.96
517.886	5.88
518.087	5.87
518.288	5.8
518.488	5.76
518.689	5.72
518.89	5.7
519.091	5.75
519.291	5.74
519.492	5.74
519.692	5.76
519.893	5.81
520.094	5.75
520.294	5.73
520.495	5.79
520.695	5.77
520.896	5.76
521.096	5.86
521.297	5.96
521.497	5.96
521.698	6.01
521.898	5.98
522.099	5.91
522.299	5.85
522.499	5.85
522.7	5.77
522.9	5.78
523.101	5.76
523.301	5.78
523.501	5.7
523.702	5.76
523.902	5.82
524.102	5.86
524.302	5.84
524.503	5.81
524.703	5.83
524.903	5.82
525.103	5.89
525.304	5.86
525.504	5.97
525.704	5.93
525.904	5.93
526.104	5.85
526.304	5.9
526.504	5.89
526.705	5.97
526.905	5.96
527.105	6.01
527.305	6.05
527.505	6.05
527.705	5.98
527.905	6
528.105	5.98
528.305	5.98
528.505	5.98
528.705	6.04
528.905	6.03
529.105	5.99
529.304	5.94
529.504	5.96
529.704	5.94
529.904	5.95
530.104	6.01
530.304	6.09
530.503	6.08
530.703	6.04
530.903	6.05
531.103	6.03
531.303	6.01
531.502	6.01
531.702	6.04
531.902	6.04
532.101	6.03
532.301	6.02
532.501	6.08
532.7	6.08
532.9	6.11
533.1	6.14
533.299	6.13
533.499	6.12
533.698	6.11
533.898	6.08
534.097	6.08
534.297	6.06
534.496	6.01
534.696	6.03
534.895	6.1
535.095	6.12
535.294	6.18
535.494	6.23
535.693	6.23
535.892	6.19
536.092	6.22
536.291	6.24
536.491	6.25
536.69	6.27
536.889	6.27
537.088	6.25
537.288	6.2
537.487	6.17
537.686	6.19
537.886	6.22
538.085	6.28
538.284	6.29
538.483	6.3
538.682	6.37
538.882	6.43
539.081	6.37
539.28	6.41
539.479	6.44
539.678	6.4
539.877	6.35
540.076	6.39
540.275	6.42
540.474	6.39
540.673	6.4
540.872	6.41
541.071	6.45
541.27	6.43
541.469	6.47
541.668	6.52
541.867	6.58
542.066	6.56
542.265	6.7
542.464	6.76
542.663	6.75
542.862	6.76
543.06	6.77
543.259	6.72
543.458	6.75
543.657	6.8
543.856	6.82
544.054	6.87
544.253	6.86
544.452	6.89
544.651	6.87
544.849	6.88
545.048	6.88
545.247	6.96
545.445	6.93
545.644	6.97
545.843	7.02
546.041	7.1
546.24	7.16
546.438	7.22
546.637	7.28
546.836	7.29
547.034	7.35
547.233	7.36
547.431	7.37
547.63	7.42
547.828	7.45
548.027	7.46
548.225	7.46
548.423	7.51
548.622	7.47
548.82	7.49
549.019	7.47
549.217	7.49
549.415	7.5
549.614	7.59
549.812	7.59
550.01	7.67
550.209	7.7
550.407	7.77
550.605	7.79
550.803	7.91
551.002	7.98
551.2	8.1
551.398	8.19
551.596	8.27
551.794	8.31
551.993	8.31
552.191	8.3
552.389	8.35
552.587	8.34
552.785	8.35
552.983	8.45
553.181	8.49
553.379	8.57
553.577	8.72
553.775	8.78
553.973	8.78
554.171	8.87
554.369	8.86
554.567	8.91
554.765	8.98
554.963	9.07
555.161	9.09
555.359	9.17
555.557	9.14
555.755	9.14
555.952	9.21
556.15	9.22
556.348	9.32
556.546	9.42
556.744	9.5
556.941	9.52
557.139	9.64
557.337	9.69
557.535	9.78
557.732	9.84
557.93	9.94
558.128	9.99
558.325	9.98
558.523	9.98
558.721	10.02
558.918	10.04
559.116	10.16
559.313	10.24
559.511	10.35
559.708	10.5
559.906	10.64
560.104	10.67
560.301	10.74
560.498	10.8
560.696	10.81
560.893	10.83
561.091	10.92
561.288	10.97
561.486	11.04
561.683	11.04
561.88	11.06
562.078	11.06
562.275	11.09
562.473	11.14
562.67	11.29
562.867	11.38
563.064	11.42
563.262	11.49
563.459	11.59
563.656	11.54
563.853	11.58
564.051	11.72
564.248	11.76
564.445	11.76
564.642	11.84
564.839	11.88
565.036	11.91
565.234	12.01
565.431	12.08
565.628	12.19
565.825	12.26
566.022	12.35
566.219	12.38
566.416	12.38
566.613	12.42
566.81	12.44
567.007	12.45
567.204	12.52
567.401	12.53
567.598	12.53
567.795	12.63
567.991	12.63
568.188	12.59
568.385	12.64
568.582	12.75
568.779	12.7
568.976	12.76
569.172	12.79
569.369	12.86
569.566	12.84
569.763	12.87
569.96	12.86
570.156	12.9
570.353	12.94
570.55	12.99
570.746	13.02
570.943	13.07
571.14	13.08
571.336	13.12
571.533	13.14
571.729	13.2
571.926	13.26
572.123	13.31
572.319	13.29
572.516	13.22
572.712	13.22
572.909	13.16
573.105	13.17
573.302	13.16
573.498	13.18
573.695	13.17
573.891	13.16
574.087	13.19
574.284	13.32
574.48	13.32
574.677	13.33
574.873	13.36
575.069	13.38
575.266	13.28
575.462	13.28
575.658	13.28
575.854	13.31
576.051	13.3
576.247	13.31
576.443	13.36
576.639	13.31
576.835	13.2
577.032	13.14
577.228	13.18
577.424	13.14
577.62	13.13
577.816	13.07
578.012	13.07
578.208	12.96
578.404	12.95
578.6	13.01
578.796	13.12
578.993	13.13
579.189	13.1
579.384	13.11
579.58	13.05
579.776	12.99
579.972	12.89
580.168	12.86
580.364	12.81
580.56	12.83
580.756	12.81
580.952	12.88
581.148	12.88
581.343	12.87
581.539	12.91
581.735	12.89
581.931	12.8
582.127	12.76
582.322	12.75
582.518	12.63
582.714	12.57
582.909	12.63
583.105	12.66
583.301	12.63
583.496	12.63
583.692	12.7
583.888	12.65
584.083	12.62
584.279	12.59
584.474	12.54
584.67	12.41
584.866	12.36
585.061	12.39
585.257	12.34
585.452	12.28
585.648	12.33
585.843	12.3
586.039	12.16
586.234	12.16
586.429	12.16
586.625	12.17
586.82	12.1
587.015	12.17
587.211	12.13
587.406	12.08
587.601	12.06
587.797	12.17
587.992	12.12
588.187	12.17
588.383	12.26
588.578	12.31
588.773	12.25
588.968	12.31
589.163	12.33
589.359	12.26
589.554	12.15
589.749	12.19
589.944	12.17
590.139	12.09
590.334	12.12
590.529	12.13
590.724	12.16
590.919	12.17
591.114	12.23
591.309	12.22
591.504	12.26
591.699	12.24
591.894	12.23
592.089	12.24
592.284	12.34
592.479	12.32
592.674	12.36
592.869	12.37
593.064	12.43
593.259	12.44
593.454	12.53
593.648	12.57
593.843	12.65
594.038	12.67
594.233	12.68
594.428	12.69
594.622	12.73
594.817	12.82
595.012	12.75
595.206	12.81
595.401	12.89
595.596	12.82
595.79	12.86
595.985	12.96
596.18	13.01
596.374	13.05
596.569	13.15
596.763	13.21
596.958	13.39
597.153	13.33
597.347	13.35
597.542	13.49
597.736	13.55
597.931	13.49
598.125	13.61
598.319	13.61
598.514	13.58
598.708	13.57
598.903	13.57
599.097	13.67
599.291	13.76
599.486	13.87
599.68	13.88
599.874	13.98
600.069	13.94
600.263	13.94
600.457	13.94
600.651	13.9
600.846	13.99
601.04	13.93
601.234	13.99
601.428	14.04
601.622	14.12
601.817	14.01
602.011	14.16
602.205	14.19
602.399	14.18
602.593	14.2
602.787	14.28
602.981	14.28
603.175	14.25
603.369	14.25
603.563	14.33
603.757	14.24
603.951	14.2
604.145	14.19
604.339	14.15
604.533	14.07
604.727	14.17
604.921	14.25
605.115	14.27
605.309	14.26
605.502	14.25
605.696	14.16
605.89	14.07
606.084	14.01
606.278	14.02
606.471	13.95
606.665	13.92
606.859	13.83
607.053	13.79
607.246	13.74
607.44	13.73
607.634	13.64
607.827	13.69
608.021	13.56
608.214	13.46
608.408	13.43
608.602	13.46
608.795	13.36
608.989	13.32
609.182	13.32
609.376	13.27
609.569	13.21
609.763	13.16
609.956	13.17
610.15	13.11
610.343	12.99
610.537	12.94
610.73	12.86
610.923	12.83
611.117	12.8
611.31	12.76
611.504	12.68
611.697	12.7
611.89	12.58
612.083	12.5
612.277	12.43
612.47	12.42
612.663	12.31
612.856	12.27
613.05	12.22
613.243	12.2
613.436	12.11
613.629	12.01
613.822	12.05
614.015	11.99
614.209	11.93
614.402	11.92
614.595	11.94
614.788	11.78
614.981	11.67
615.174	11.69
615.367	11.57
615.56	11.49
615.753	11.5
615.946	11.53
616.139	11.41
616.332	11.43
616.525	11.33
616.718	11.25
616.911	11.16
617.103	11.09
617.296	11.02
617.489	11.1
617.682	11.16
617.875	11.1
618.067	11.12
618.26	11.03
618.453	10.89
618.646	10.82
618.838	10.86
619.031	10.78
619.224	10.79
619.417	10.84
619.609	10.76
619.802	10.73
619.994	10.73
620.187	10.76
620.38	10.71
620.572	10.67
620.765	10.68
620.957	10.69
621.15	10.61
621.342	10.5
621.535	10.56
621.727	10.49
621.92	10.45
622.112	10.38
622.305	10.49
622.497	10.45
622.69	10.27
622.882	10.27
623.074	10.39
623.267	10.27
623.459	10.25
623.651	10.4
623.844	10.38
624.036	10.25
624.228	10.21
624.42	10.1
624.613	10.11
624.805	10.06
624.997	10.12
625.189	10.13
625.381	10.12
625.574	10.03
625.766	10.05
625.958	9.95
626.15	10
626.342	9.98
626.534	9.97
626.726	9.9
626.918	9.91
627.11	9.85
627.302	9.86
627.494	9.84
627.686	9.87
627.878	9.85
628.07	9.82
628.262	9.82
628.454	9.75
628.646	9.71
628.838	9.65
629.029	9.63
629.221	9.58
629.413	9.61
629.605	9.53
629.797	9.55
629.989	9.56
630.18	9.52
630.372	9.44
630.564	9.5
630.755	9.45
630.947	9.34
631.139	9.33
631.33	9.31
631.522	9.34
631.714	9.36
631.905	9.37
632.097	9.34
632.289	9.44
632.48	9.34
632.672	9.26
632.863	9.24
633.055	9.24
633.246	9.15
633.438	9.08
633.629	9.06
633.821	8.97
634.012	8.91
634.203	8.86
634.395	8.91
634.586	9.01
634.777	9.08
634.969	9.07
635.16	9.17
635.351	9.16
635.543	9.04
635.734	9.03
635.925	9.07
636.117	9.07
636.308	9.13
636.499	9.15
636.69	9.07
636.881	9.07
637.073	9.02
637.264	8.98
637.455	8.97
637.646	9.05
637.837	9
638.028	9
638.219	8.98
638.41	8.99
638.601	8.98
638.792	8.96
638.983	8.92
639.174	8.83
639.365	8.79
639.556	8.75
639.747	8.77
639.938	8.77
640.129	8.83
640.32	8.87
640.511	8.88
640.701	8.84
640.892	8.87
641.083	8.86
641.274	8.82
641.465	8.86
641.655	8.88
641.846	8.85
642.037	8.84
642.228	8.78
642.418	8.73
642.609	8.71
642.8	8.7
642.99	8.62
643.181	8.67
643.372	8.63
643.562	8.59
643.753	8.61
643.943	8.6
644.134	8.56
644.324	8.58
644.515	8.62
644.705	8.51
644.896	8.5
645.086	8.49
645.277	8.53
645.467	8.55
645.658	8.55
645.848	8.53
646.038	8.55
646.229	8.52
646.419	8.41
646.61	8.51
646.8	8.53
646.99	8.5
647.18	8.48
647.371	8.48
647.561	8.48
647.751	8.44
647.941	8.44
648.132	8.36
648.322	8.46
648.512	8.41
648.702	8.5
648.892	8.47
649.082	8.46
649.272	8.36
649.462	8.29
649.653	8.27
649.843	8.31
650.033	8.39
650.223	8.35
650.413	8.39
650.603	8.4
650.793	8.36
650.983	8.31
651.172	8.31
651.362	8.24
651.552	8.12
651.742	8.12
651.932	8.09
652.122	8.12
652.312	8.11
652.502	8.1
652.691	8.12
652.881	8.18
653.071	8.23
653.261	8.2
653.45	8.15
653.64	8.11
653.83	8.02
654.019	7.82
654.209	7.8
654.399	7.74
654.588	7.55
654.778	7.49
654.968	7.48
655.157	7.45
655.347	7.45
655.536	7.47
655.726	7.43
655.915	7.38
656.105	7.27
656.294	7.19
656.484	7.09
656.673	6.98
656.863	6.95
657.052	6.95
657.241	6.85
657.431	6.82
657.62	6.81
657.809	6.66
657.999	6.58
658.188	6.48
658.377	6.42
658.567	6.26
658.756	6.18
658.945	6.07
659.134	6.01
659.324	5.95
659.513	5.91
659.702	5.87
659.891	5.86
660.08	5.82
660.269	5.77
660.458	5.72
660.648	5.69
660.837	5.6
661.026	5.51
661.215	5.38
661.404	5.4
661.593	5.34
661.782	5.28
661.971	5.25
662.16	5.24
662.349	5.16
662.538	5.1
662.726	5.06
662.915	5
663.104	4.93
663.293	4.77
663.482	4.75
663.671	4.72
663.86	4.72
664.048	4.7
664.237	4.81
664.426	4.74
664.615	4.69
664.803	4.67
664.992	4.54
665.181	4.42
665.369	4.44
665.558	4.4
665.747	4.41
665.935	4.55
666.124	4.55
666.312	4.6
666.501	4.7
666.69	4.72
666.878	4.6
667.067	4.67
667.255	4.71
667.444	4.72
667.632	4.72
667.82	4.75
668.009	4.66
668.197	4.54
668.386	4.49
668.574	4.46
668.762	4.54
668.951	4.66
669.139	4.67
669.327	4.7
669.516	4.67
669.704	4.73
669.892	4.64
670.08	4.64
670.269	4.53
670.457	4.5
670.645	4.32
670.833	4.36
671.021	4.39
671.21	4.48
671.398	4.64
671.586	4.69
671.774	4.7
671.962	4.77
672.15	4.89
672.338	4.8
672.526	4.94
672.714	5.08
672.902	5.03
673.09	4.88
673.278	4.93
673.466	4.92
673.654	4.92
673.842	4.98
674.03	5.2
674.218	5.29
674.405	5.31
674.593	5.37
674.781	5.43
674.969	5.3
675.157	5.43
675.344	5.43
675.532	5.48
675.72	5.59
675.908	5.64
676.095	5.59
676.283	5.59
676.471	5.51
676.658	5.34
676.846	5.3
677.033	5.26
677.221	5.38
677.409	5.36
677.596	5.49
677.784	5.55
677.971	5.63
678.159	5.74
678.346	5.79
678.534	5.79
678.721	5.92
678.909	5.99
679.096	5.98
679.283	6.04
679.471	6.14
679.658	6.07
679.846	5.95
680.033	6.01
680.22	6.17
680.408	6.2
680.595	6.41
680.782	6.34
680.969	6.31
681.157	6.13
681.344	6.1
681.531	6.03
681.718	6.19
681.905	6.21
682.093	6.26
682.28	6.3
682.467	6.38
682.654	6.41
682.841	6.3
683.028	6.27
683.215	6.46
683.402	6.55
683.589	6.61
683.776	6.74
683.963	6.95
684.15	7.09
684.337	7.14
684.524	7.34
684.711	7.44
684.898	7.48
685.085	7.31
685.271	7.38
685.458	7.42
685.645	7.46
685.832	7.38
686.019	7.49
686.205	7.57
686.392	7.68
686.579	7.91
686.766	8.12
686.952	8.38
687.139	8.49
687.326	8.53
687.512	8.54
687.699	8.76
687.886	8.92
688.072	8.94
688.259	9.08
688.445	9.33
688.632	9.41
688.818	9.38
689.005	9.66
689.191	10.06
689.378	10.28
689.564	10.69
689.751	10.98
689.937	11.09
690.124	11.12
690.31	11.39
690.496	11.6
690.683	11.88
690.869	12.32
691.055	12.72
691.242	13.04
691.428	13.17
691.614	13.32
691.8	13.62
691.987	14.01
692.173	14.42
692.359	14.95
692.545	15.58
692.731	15.91
692.918	16.24
693.104	16.44
693.29	16.64
693.476	17.04
693.662	17.55
693.848	18.18
694.034	18.77
694.22	19.67
694.406	19.92
694.592	20.26
694.778	20.56
694.964	20.88
695.15	21.17
695.336	21.51
695.522	22.18
695.708	22.74
695.894	23.39
696.08	23.97
696.265	24.95
696.451	25.45
696.637	25.74
696.823	26.12
697.009	26.58
697.194	26.89
697.38	27.42
697.566	28.24
697.751	28.88
697.937	29.45
698.123	30.17
698.308	30.71
698.494	30.83
698.68	31.22
698.865	31.47
699.051	32
699.236	32.35
699.422	33.22
699.607	33.86
699.793	34.42
699.978	34.73
700.164	35.49
700.349	35.91
700.535	36.3
700.72	37.05
700.906	37.71
701.091	38
701.276	38.65
701.462	39.02
701.647	39.41
701.832	39.85
702.018	40.41
702.203	40.85
702.388	41.7
702.573	42.18
702.759	42.86
702.944	43.41
703.129	43.8
703.314	43.97
703.499	44.48
703.684	44.66
703.87	44.96
704.055	45.21
704.24	45.91
704.425	46.35
704.61	46.81
704.795	47.28
704.98	47.9
705.165	48.27
705.35	48.44
705.535	48.69
705.72	49.19
705.905	49.24
706.09	49.69
706.275	50.21
706.459	50.87
706.644	51.15
706.829	51.88
707.014	52.31
707.199	52.7
707.384	52.85
707.568	52.83
707.753	53.1
707.938	53.13
708.123	53.42
708.307	53.51
708.492	54.25
708.677	54.49
708.861	54.92
709.046	55.08
709.231	55.41
709.415	55.31
709.6	55.4
709.784	55.9
709.969	56
710.153	56.65
710.338	57.11
710.522	57.61
710.707	57.49
710.891	57.97
711.076	57.82
711.26	58.01
711.445	58.27
711.629	58.43
711.813	58.91
711.998	59.27
712.182	59.45
712.366	59.54
712.551	59.46
712.735	59.21
712.919	59.19
713.103	59.7
713.288	59.74
713.472	59.82
713.656	60.18
713.84	60.53
714.024	60.37
714.208	60.41
714.393	60.89
714.577	61.38
714.761	61.44
714.945	61.81
715.129	62.59
715.313	62.99
715.497	62.67
715.681	62.91
715.865	62.93
716.049	62.56
716.233	62.39
716.417	62.7
716.601	62.39
716.785	62.63
716.968	62.83
717.152	63.41
717.336	63.39
717.52	63.93
717.704	63.87
717.888	64.11
718.071	64.46
718.255	64.6
718.439	64.5
718.622	64.83
718.806	64.74
718.99	64.16
719.174	64.13
719.357	64.37
719.541	64.48
719.724	64.11
719.908	64.01
720.092	64.46
720.275	64.74
720.459	64.86
720.642	65.72
720.826	66.26
721.009	65.98
721.193	65.94
721.376	66.01
721.559	65.77
721.743	66.4
721.926	66.7
722.11	66.86
722.293	66.96
722.476	67.42
722.66	67.25
722.843	67.34
723.026	67.71
723.21	67.83
723.393	67.52
723.576	68.08
723.759	68.29
723.942	67.74
724.126	67.89
724.309	68.26
724.492	68.13
724.675	68.49
724.858	69.3
725.041	69.61
725.224	69.44
725.407	69.51
725.59	69.55
725.774	69.67
725.957	69.9
726.14	70.67
726.322	70.35
726.505	70.25
726.688	70.34
726.871	70.23
727.054	69.81
727.237	70.35
727.42	70.83
727.603	71.28
727.786	70.91
727.968	71.19
728.151	70.99
728.334	70.45
728.517	70.62
728.699	71.19
728.882	71.87
729.065	72.17
729.248	72.67
729.43	72.38
729.613	72.3
729.796	72.54
729.978	73.16
730.161	73.47
730.343	73.75
730.526	73.96
730.708	73.81
730.891	73.34
731.073	72.96
731.256	73.13
731.438	73.5
731.621	72.8
731.803	73.64
731.986	75.06
732.168	75.09
732.35	75.56
732.533	77.15
732.715	76.57
732.898	75.94
733.08	76.98
733.262	76.53
733.444	76.12
733.627	76.52
733.809	77.08
733.991	76.18
734.173	76.56
734.355	76.75
734.538	76.77
734.72	76.33
734.902	76.38
735.084	76.67
735.266	77.06
735.448	77.82
735.63	78.54
735.812	79.15
735.994	78.3
736.176	77.79
736.358	77.86
736.54	77.99
736.722	77.98
736.904	79.38
737.086	79.82
737.268	79.4
737.45	79.25
737.632	79.54
737.814	80.14
737.995	80.49
738.177	80
738.359	79.95
738.541	79.37
738.723	78.76
738.904	78.29
739.086	79.15
739.268	78.93
739.449	80.04
739.631	79.85
739.813	80.57
739.994	80.49
740.176	80.7
740.358	79.97
740.539	80.85
740.721	80.12
740.902	80.21
741.084	80.93
741.265	80.99
741.447	80.14
741.628	80.68
741.81	80.65
741.991	80.87
742.172	81.83
742.354	82.22
742.535	81.77
742.717	82.86
742.898	82.45
743.079	82.63
743.261	83.8
743.442	84.41
743.623	83.46
743.804	84.11
743.986	83.55
744.167	81.92
744.348	82.82
744.529	83.18
744.71	82.38
744.891	82.34
745.073	83.01
745.254	82.78
745.435	82.79
745.616	83.29
745.797	83.87
745.978	83.57
746.159	83.62
746.34	83.67
746.521	84.21
746.702	84.21
746.883	85.27
747.064	84.5
747.245	84.49
747.426	84.02
747.606	82.91
747.787	82.75
747.968	83.56
748.149	82.65
748.33	82.39
748.51	82.5
748.691	81.53
748.872	80.27
749.053	81.71
749.233	82.66
749.414	83.66
749.595	84.87
749.775	86.04
749.956	85.87
750.137	85.3
750.317	85.01
750.498	84.33
750.678	85.28
750.859	86.39
751.04	87
751.22	87.47
751.4	87.53
751.581	86.25
751.761	84.46
751.942	83.6
752.122	82.11
752.303	82.84
752.483	83.67
752.663	83.4
752.844	83.59
753.024	83.91
753.204	82.28
753.385	81.46
753.565	83.02
753.745	81.7
753.925	83.76
754.106	84.7
754.286	83.45
754.466	82.17
754.646	83.77
754.826	82.57
755.006	83.13
755.187	85.79
755.367	87.26
755.547	84.82
755.727	85.27
755.907	84.68
756.087	83.67
756.267	82.31
756.447	84.77
756.627	82.85
756.807	84.22
756.987	85.17
757.167	85.73
757.346	85.54
757.526	85.55
757.706	85.36
757.886	84.42
758.066	85.28
758.246	85.69
758.425	86.68
758.605	84.5
758.785	84.87
758.965	84.57
759.144	84.82
759.324	85.17
759.504	86.17
759.683	85.45
759.863	84.06
760.043	83.45
760.222	85.24
760.402	84.49
760.581	84.97
760.761	87.15
760.94	86.5
761.12	85.71
761.299	86.32
761.479	84.82
761.658	83.42
761.838	83.54
762.017	82.56
762.197	83.05
762.376	83.73
762.555	83.41
762.735	84.75
762.914	83.5
763.093	84.16
763.273	83.31
763.452	85.42
763.631	84.51
763.81	85.08
763.99	84.19
764.169	84.77
764.348	82.35
764.527	81.92
764.706	82.34
764.885	81.24
765.064	82.13
765.243	81.83
765.423	80.52
765.602	78.12
765.781	78.12
765.96	77.22
766.139	77.66
766.318	78.24
766.497	79.48
766.676	80.22
766.854	80.24
767.033	80.02
767.212	80.97
767.391	82.33
767.57	83.56
767.749	84.46
767.928	85.95
768.106	85.19
768.285	84.33
768.464	82.24
768.643	80.75
768.821	78.54
769	77.13
769.179	76.62
769.357	77.53
769.536	79.22
769.715	78.92
769.893	78.74
770.072	79.92
770.25	79.83
770.429	80.38
770.607	80.83
770.786	83.55
770.964	83.17
771.143	83.02
771.321	81.38
771.5	84.95
771.678	84.09
771.857	85.18
772.035	83.69
772.213	83.35
772.392	79.87
772.57	80.69
772.748	77.78
772.927	77.51
773.105	77.42
773.283	78.15
773.461	76.73
773.64	79.33
773.818	80.84
773.996	79.9
774.174	80.01
774.352	81.33
774.531	78.89
774.709	78.96
774.887	79.45
775.065	77.51
775.243	77.31
775.421	77.13
775.599	76.51
775.777	76.87
775.955	75.88
776.133	74.98
776.311	77.26
776.489	79.07
776.667	79.08
776.844	81.96
777.022	80.67
777.2	81.94
777.378	80.49
777.556	82.31
777.734	81.38
777.911	83.42
778.089	80.41
778.267	82.43
778.445	80.52
778.622	79.48
778.8	76.56
778.978	75.57
779.155	72.43
779.333	70.21
779.511	68.95
779.688	71.4
779.866	72.49
780.043	74.13
780.221	74.94
780.398	80.4
780.576	77.37
780.753	79.53
780.931	81.27
781.108	82.88
781.286	78.71
781.463	81.26
781.64	80.16
781.818	77.15
781.995	76.57
782.172	79.43
782.35	80.72
782.527	74.51
782.704	74.34
782.882	75.76
783.059	74.25
783.236	70.23
783.413	76.13
783.59	76.99
783.768	76.56
783.945	76.25
784.122	80.13
784.299	80.24
784.476	81.62
784.653	80.05
784.83	82.57
785.007	82.57
785.184	80.99
785.361	79.12
785.538	79.15
785.715	76.08
785.892	72.02
786.069	75.07
786.246	77.27
786.423	80.08
786.6	80.38
786.776	79.65
786.953	78.13
787.13	73.93
787.307	74.19
787.484	76.19
787.66	79.16
787.837	79.01
788.014	81.61
788.191	78.42
788.367	73.36
788.544	78.02
788.721	77.7
788.897	77.33
789.074	77.99
789.25	79.82
789.427	74.63
789.603	78.77
789.78	74.49
789.956	72.85
790.133	73.93
790.309	76.06
790.486	72.3
790.662	75.29
790.839	77.01
791.015	74.62
791.192	72.11
791.368	70.77
791.544	72.34
791.721	72.9
791.897	75.44
792.073	77.4
792.249	81.28
792.426	82.65
792.602	80.11
792.778	81.29
792.954	83.18
793.13	82.65
793.307	83.72
793.483	85.76
793.659	85.5
793.835	86.17
794.011	84.39
794.187	81.36
794.363	80.23
794.539	78.05
794.715	72.31
794.891	69.86
795.067	69.81
795.243	72.17
795.419	71.28
795.595	73.13
795.771	75.67
795.947	77.05
796.122	72.86
796.298	73.34
796.474	73.04
796.65	66.76
796.826	61.75
797.001	67.27
797.177	68.06
797.353	68.53
797.529	73.83
797.704	79.56
797.88	71.47
798.056	66.5
798.231	67.27
798.407	62.87
798.582	63.61
798.758	67.88
798.934	72.92
799.109	73.68
799.285	72.81
799.46	67.24
799.636	69.25
799.811	67.85
799.986	70.92
800.162	79.05
800.337	80.69
800.513	78.45
800.688	80.8
800.863	73.16
801.039	74
801.214	75.32
801.389	74.82
801.565	75.87
801.74	74.44
801.915	68.28
802.09	71.38
802.265	66.12
802.441	68.7
802.616	68.87
802.791	71.16
802.966	74.4
803.141	80.34
803.316	71.05
803.491	63.65
803.666	66.45
803.841	61.92
804.016	66.65
804.191	74.48
804.366	87.71
804.541	83.23
804.716	85.93
804.891	78.64
805.066	71.26
805.241	71.46
805.416	65.86
805.591	63.43
805.765	60.42
805.94	64.15
806.115	60.55
806.29	64.41
806.464	61.21
806.639	64.36
806.814	63.36
806.989	62.59
807.163	68.04
807.338	70.94
807.512	68.36
807.687	67.42
807.862	65.97
808.036	65.98
808.211	69.9
808.385	63.45
808.56	62.7
808.734	66.67
808.909	60.51
809.083	53.44
809.258	62.28
809.432	58.78
809.606	56.39
809.781	65
809.955	73.12
810.13	75.5
810.304	79.85
810.478	81.43
810.652	71.76
810.827	62.04
811.001	61.38
811.175	61.28
811.349	63.41
811.524	73.5
811.698	81.91
811.872	72
812.046	75.38
812.22	70.35
812.394	61.98
812.568	60.33
812.742	65.74
812.916	58.83
813.09	72.31
813.264	75.38
813.438	70.82
813.612	74.01
813.786	80.03
813.96	62.55
814.134	67.87
814.308	70.11
814.482	75.24
814.656	81.82
814.83	82.66
815.003	79.48
815.177	82.21
815.351	69.01
815.525	57.26
815.698	62.15
815.872	56.47
816.046	56.17
816.219	57.77
816.393	69.52
816.567	71.41
816.74	85.81
816.914	94.09
817.088	110.01
817.261	95.69
817.435	72.6
817.608	80.91
817.782	72.12
817.955	63.77
818.129	81.66
818.302	90.01
818.475	84.82
818.649	87.48
818.822	93.01
818.996	66.67
819.169	59.25
819.342	57.49
819.516	50.16
819.689	47
819.862	58.11
820.035	71.11
820.209	64.97
820.382	71.16
820.555	67.03
820.728	74.78
820.901	65.12
821.075	69.4
821.248	76.76
821.421	77.47
821.594	74.16
821.767	77.95
821.94	65.39
822.113	51.45
822.286	48.86
822.459	33.93
822.632	28.46
822.805	56.9
822.978	54.73
823.151	52.93
823.324	72.12
823.496	58.2
823.669	52.09
823.842	73.48
824.015	80.6
824.188	59.29
824.361	70.75
824.533	77.79
824.706	52.79
824.879	56.5
825.051	65.97
825.224	70.09
825.397	66.56
825.569	74.62
825.742	75.86
825.915	64.85
826.087	60.68
826.26	55.77
826.432	58.32
826.605	47.36
826.777	52.07
826.95	46.4
827.122	46.94
827.295	41.02
827.467	50.37
827.64	38.48
827.812	35.07
827.984	44.21
828.157	40.32
828.329	58.63
828.501	67.28
828.674	77.54
828.846	76.74
829.018	83.32
829.19	67
829.363	62.85
829.535	64.18
829.707	39.93
829.879	39.91
830.051	43.07
830.223	48.93
830.395	39.26
830.568	49.75
830.74	50.57
830.912	41.58
831.084	33.86
831.256	37.61
831.428	25.73
831.6	31.23
831.772	27.22
831.943	22.07
832.115	24.72
832.287	41.56
832.459	38.58
832.631	43.13
832.803	42.16
832.975	38.1
833.146	34.96
833.318	18.85
833.49	22.38
833.662	41.77
833.833	58.58
834.005	63.24
834.177	79.15
834.348	83.82
834.52	78.7
834.692	80.49
834.863	54.87
835.035	62.49
835.206	57.83
835.378	62.54
835.549	53.51
835.721	54.01
835.892	20.09
836.064	26.74
836.235	35.97
836.407	19.16
836.578	28.01
836.749	50.78
836.921	46.91
837.092	27.09
837.264	51.67
837.435	37.32
837.606	34.71
837.777	13.5
837.949	10.46
838.12	-21.54
838.291	14.48
838.462	24.93
838.633	17.16
838.805	41.49
838.976	63.18
839.147	63.77
839.318	86.91
839.489	57.7
839.66	19.4
839.831	16.75
840.002	-57.08
840.173	-77.36
840.344	-31.73
840.515	-19.3
840.686	-71.28
840.857	-18.1
841.028	-1.69
841.199	6.26
841.369	2.03
841.54	22.1
841.711	34.57
841.882	44.58
842.053	51.72
842.223	72.55
842.394	91.15
842.565	76.83
842.736	74.63
842.906	62.42
843.077	58.33
843.248	40.67
843.418	40.75
843.589	12.02
843.759	-13.07
843.93	-573.07
844.101	-601.17
844.271	-83.53
844.442	-44.92
844.612	12.65
844.783	55.2
844.953	84.07
845.123	86.37
845.294	95.38
845.464	78.48
845.635	63.78
845.805	56.13
845.975	44.18
846.146	23.83
846.316	-26.51
846.486	41.72
846.656	63.02
846.827	70.24
846.997	55.03
847.167	48.68
847.337	38.28
847.507	30.08
847.677	19.93
847.848	34.4
848.018	40.66
848.188	74.64
848.358	77.14
848.528	116.8
848.698	100.43
848.868	102.25
849.038	56.73
849.208	60.91
849.378	-24.13
849.548	-22.64
849.718	-433.51
849.887	419
850.057	-10912.9
850.227	1410.73
850.397	1851.68
850.567	-84.76
850.737	-35.68
850.906	1.07
851.076	30.12
851.246	22.5
851.415	-14.57
851.585	40.01
851.755	50.06
851.924	43.86
852.094	47.27
852.264	37.11
852.433	10.05
852.603	13.63
852.772	11.43
852.942	2.9
853.111	10.63
853.281	24.11
853.45	-11.79
853.62	1.17
853.789	-17.64
853.959	-216.33
854.128	85.7
854.297	59.59
854.467	131.02
854.636	-30.58
854.805	54.26
854.975	20.78
855.144	36.41
855.313	24.86
855.482	58.79
855.652	62.15
855.821	72.5
855.99	52.19
856.159	214.24
856.328	93.98
856.497	167.27
856.667	80.63
856.836	108.31
857.005	96.16
857.174	37.15
857.343	37.15
857.512	48.2
857.681	13.52
857.85	-33.2
858.019	10.28
858.188	-38.49
858.356	-83.76
858.525	-24.33
858.694	-0.86
858.863	-35.23
859.032	32.45
859.201	48.96
859.369	8.62
859.538	-2.02
859.707	0.02
859.876	5.71
860.044	15.19
860.213	44.22
860.382	63.74
860.55	49.06
860.719	24.04
860.888	10.82
861.056	-26.01
861.225	5.57
861.393	43.76
861.562	32.2
861.73	40.85
861.899	64.42
862.067	42.97
862.236	-4.29
862.404	-10.99
862.572	-25.13
862.741	-296.15
862.909	-4.16
863.078	44.32
863.246	70.35
863.414	77.44
863.582	52.71
863.751	15.5
863.919	-99.49
864.087	-70
864.255	-84.1
864.424	-170.03
864.592	-65.56
864.76	-29.01
864.928	-33.09
865.096	-39.67
865.264	-3.93
865.432	-7.9
865.6	-17.41
865.768	41.94
865.936	130.45
866.104	43.79
866.272	91.81
866.44	70.66
866.608	64.8
866.776	33.71
866.944	68.52
867.112	89.44
867.28	69.71
867.448	40.19
867.615	37.11
867.783	21.11
867.951	-43.17
868.119	-47.95
868.286	-53.34
868.454	-61.44
868.622	-199.76
868.789	-125.39
868.957	298.19
869.125	358.36
869.292	-232.7
869.46	174.09
869.627	-1329.71
869.795	-175.6
869.963	-41.74
870.13	-16.73
870.298	25.51
870.465	55.2
870.632	68.75
870.8	52.55
870.967	95.39
871.135	132.51
871.302	-333.44
871.469	81.07
871.637	66.96
871.804	30.67
871.971	9.37
872.139	-14.07
872.306	-87.42
872.473	-916.08
872.64	-265.14
872.807	-72.46
872.975	-149.8
873.142	-86.65
873.309	-35.15
873.476	-33.79
873.643	-0.36
873.81	59.86
873.977	70.83
874.144	10.57
874.311	44.79
874.478	-38.65
874.645	-137.84
874.812	-721.8
874.979	-77.9
875.146	-17.38
875.313	-358.53
875.48	344.75
875.647	-362.24
875.813	-2140.51
875.98	1096.57
876.147	-75.88
876.314	-26.33
876.481	-42.03
876.647	-19.17
876.814	-15.95
876.981	-3.54
877.147	-2.99
877.314	-26.69
877.481	25.83
877.647	-78.61
877.814	-88.49
877.98	-27.42
878.147	50.42
878.314	134.8
878.48	588.26
878.647	120.94
878.813	-491.37
878.979	-2.68
879.146	-55.18
879.312	-33.49
879.479	-13.5
879.645	21.73
879.811	5.07
879.978	11.91
880.144	-195.41
880.31	-495.07
880.477	2270.47
880.643	1608.11
880.809	5207.32
880.975	-692.96
881.142	-156.95
881.308	-168.14
881.474	-13.44
881.64	0.51
881.806	12.17
881.972	20.56
882.138	9.1
882.304	2.15
882.47	-16.23
882.636	14.71
882.802	21.32
882.968	24.27
883.134	14.71
883.3	24.86
883.466	25.62
883.632	31.58
883.798	51.31
883.964	95.89
884.129	86.07
884.295	31.1
884.461	-475.51
884.627	740.15
884.793	227.49
884.958	376.37
885.124	2327.72
885.29	-272.93
885.455	-117.51
885.621	-13.92
885.787	-31.48
885.952	-93.67
886.118	-47.51
886.283	-68.72
886.449	-201.18
886.614	-17.9
886.78	34.01
886.945	42.89
887.111	40.25
887.276	18.61
887.442	24.04
887.607	14.16
887.773	-30.92
887.938	4.56
888.103	38.28
888.269	-277.66
888.434	11147.06
888.599	-255.69
888.764	-1385.44
888.93	-108.36
889.095	-61.52
889.26	-74.26
889.425	-76.04
889.59	-83.72
889.756	-30.9
889.921	-34.98
890.086	-36.58
890.251	-74.73
890.416	-28.06
890.581	-96
890.746	-93.26
890.911	-12.19
891.076	82.67
891.241	-69.1
891.406	3785.71
891.571	272.35
891.736	18.85
891.901	179.44
892.065	47.29
892.23	92.61
892.395	197.16
892.56	506.71
892.725	21.74
892.889	-387.93
893.054	-1739.74
893.219	-1812.23
893.384	-374.96
893.548	-336.45
893.713	-68.6
893.878	2.62
