Data from Ofav_SP_Phys_2AZ2_Reflection_1.txt Node
Date: Thu Aug 05 17:53:14 EDT 2021
User: Adam
Spectrometer: FLMT01687
Trigger mode: 0
Integration Time (sec): 8.000000E-1
Scans to average: 2
Electric dark correction enabled: true
Nonlinearity correction enabled: false
Boxcar width: 2
XAxis mode: Wavelengths
Number of Pixels in Spectrum: 3648
>>>>>Begin Spectral Data<<<<<
179.494	606.99
179.716	689.94
179.937	567.45
180.158	673.23
180.38	1633.87
180.601	-854.79
180.823	-153.28
181.044	-61.68
181.265	-62.21
181.486	-71.02
181.708	-241.61
181.929	-20.73
182.15	-372.24
182.372	-16.18
182.593	-40.31
182.814	-211.9
183.035	-90.79
183.257	-106.76
183.478	577.63
183.699	-375.68
183.92	-176.88
184.141	1006.28
184.363	-985.95
184.584	112.61
184.805	95.63
185.026	46.29
185.247	61.87
185.468	58.11
185.689	106.85
185.91	73.55
186.132	72.6
186.353	72.28
186.574	55.4
186.795	-18.64
187.016	20.66
187.237	37.58
187.458	-123.87
187.679	44.99
187.9	71.06
188.121	125.17
188.342	171.87
188.563	161.13
188.784	181.52
189.005	181.29
189.226	150.95
189.447	92.41
189.667	166.96
189.888	345.43
190.109	277.09
190.33	158.7
190.551	165.68
190.772	137.53
190.993	101.64
191.214	71.91
191.434	68.97
191.655	47.68
191.876	58.36
192.097	63.74
192.318	90.05
192.538	112.64
192.759	186.54
192.98	151.28
193.201	298.7
193.421	142.88
193.642	134.28
193.863	44.48
194.083	50.53
194.304	34.69
194.525	41.53
194.745	18.04
194.966	43.67
195.187	46.87
195.407	45.8
195.628	38.79
195.848	63.14
196.069	43.62
196.29	25.95
196.51	57.55
196.731	47.86
196.951	57.48
197.172	94.56
197.392	119.6
197.613	94.27
197.833	114.04
198.054	104.48
198.274	68.38
198.495	53.2
198.715	80.48
198.936	88.91
199.156	111.19
199.377	106.27
199.597	96.67
199.817	80.52
200.038	60.47
200.258	57.44
200.479	43.17
200.699	50.98
200.919	55.43
201.14	25.1
201.36	18.04
201.58	78.45
201.801	29.96
202.021	54.28
202.241	159.29
202.461	173.17
202.682	85.8
202.902	187.92
203.122	361.95
203.342	356.88
203.563	133.47
203.783	176.63
204.003	109.42
204.223	83.81
204.443	34.51
204.663	34.43
204.884	28.79
205.104	23.51
205.324	63.57
205.544	71.24
205.764	73.92
205.984	91.45
206.204	74.74
206.424	34.13
206.644	20.41
206.864	43.93
207.084	24.86
207.304	71.53
207.525	74.53
207.745	100.59
207.964	84.3
208.184	110.52
208.404	51.09
208.624	27.08
208.844	36.76
209.064	39.81
209.284	10.45
209.504	11.97
209.724	49.29
209.944	21.34
210.164	0.7
210.384	60.64
210.604	65.72
210.823	57.72
211.043	62.68
211.263	80.64
211.483	61.16
211.703	66.99
211.922	89.29
212.142	127.36
212.362	114.04
212.582	141.54
212.801	158.07
213.021	86.02
213.241	33.17
213.461	-5.12
213.68	2.95
213.9	-34.1
214.12	-34.27
214.339	-1.86
214.559	38.59
214.779	24.33
214.998	93.09
215.218	98.54
215.438	132.95
215.657	210.21
215.877	262.24
216.096	147.85
216.316	141.98
216.535	76.56
216.755	13.05
216.974	-117.91
217.194	108.77
217.413	86.96
217.633	91.2
217.852	85.42
218.072	108.36
218.291	97.34
218.511	99.6
218.73	77.37
218.95	80.3
219.169	29.84
219.389	62.17
219.608	47.6
219.827	80.46
220.047	72.2
220.266	61.64
220.485	57.82
220.705	74.18
220.924	80.18
221.143	77.3
221.363	45.92
221.582	37.12
221.801	-28.38
222.021	6.67
222.24	30.79
222.459	94.38
222.678	66.53
222.897	103.06
223.117	96.33
223.336	73.42
223.555	64.77
223.774	38.52
223.993	24.94
224.213	30.42
224.432	49.72
224.651	57.33
224.87	67.81
225.089	61.96
225.308	61.01
225.527	57.87
225.746	46.9
225.965	47.19
226.184	57.32
226.404	83.98
226.623	49.58
226.842	46.8
227.061	54.47
227.28	64.14
227.499	70.45
227.718	56.94
227.936	63.27
228.155	63.07
228.374	54.33
228.593	54.2
228.812	71.37
229.031	67.57
229.25	79.14
229.469	73.74
229.688	53.17
229.907	52.57
230.125	60.74
230.344	57.31
230.563	73.71
230.782	137.54
231.001	158.43
231.22	114.09
231.438	95.1
231.657	61.57
231.876	58.36
232.095	69.04
232.313	77.74
232.532	48.91
232.751	57.69
232.969	57.37
233.188	55.85
233.407	18.89
233.625	46.5
233.844	0.33
234.063	-28.89
234.281	-34.97
234.5	7.68
234.719	6.78
234.937	13.88
235.156	28.02
235.374	30.33
235.593	25.54
235.811	-3.61
236.03	24.01
236.249	22.62
236.467	27.35
236.686	36.56
236.904	67.07
237.123	30.32
237.341	51.49
237.559	34.26
237.778	19.67
237.996	28.69
238.215	60.71
238.433	52
238.652	60.4
238.87	46.67
239.088	10.77
239.307	8.69
239.525	1.21
239.743	-2.64
239.962	32.6
240.18	79.29
240.398	87.3
240.617	64.58
240.835	96.5
241.053	75.61
241.271	52.59
241.49	67.69
241.708	83.9
241.926	81.7
242.144	67.02
242.363	160.88
242.581	118.01
242.799	53.2
243.017	12.91
243.235	12.53
243.453	6.78
243.672	8.66
243.89	44.15
244.108	84.52
244.326	87.04
244.544	100.61
244.762	95.73
244.98	99.46
245.198	114.56
245.416	90.67
245.634	101.86
245.852	113.24
246.07	95.98
246.288	51.02
246.506	45.91
246.724	25.57
246.942	23.69
247.16	44.34
247.378	67.72
247.596	70.55
247.814	78.93
248.032	34.97
248.25	17.73
248.468	24.25
248.685	19.85
248.903	11.14
249.121	15.02
249.339	21.43
249.557	14.53
249.775	17.81
249.992	1.97
250.21	20.72
250.428	-5.46
250.646	6.67
250.863	17.65
251.081	46.02
251.299	49.49
251.517	113.91
251.734	94.95
251.952	106.33
252.17	116.94
252.387	95.79
252.605	66.82
252.823	68.25
253.04	44.78
253.258	38.12
253.475	55.23
253.693	54.25
253.911	66.86
254.128	75.31
254.346	82.16
254.563	69.07
254.781	68.42
254.998	63
255.216	52.37
255.433	28.96
255.651	58.13
255.868	0.48
256.086	-1.16
256.303	2.04
256.521	6.84
256.738	1.73
256.956	36.92
257.173	41.62
257.39	83.5
257.608	59.45
257.825	41.32
258.043	45.43
258.26	39.47
258.477	27.36
258.695	45.29
258.912	55.89
259.129	50.45
259.346	47.85
259.564	37.27
259.781	36.53
259.998	44.48
260.216	57.85
260.433	69.63
260.65	76.94
260.867	52.04
261.084	39.38
261.302	50.59
261.519	37.18
261.736	63.15
261.953	64.63
262.17	66.41
262.387	108.53
262.604	123.72
262.822	165.2
263.039	182.42
263.256	166.17
263.473	87.39
263.69	88.55
263.907	55.46
264.124	52.84
264.341	27.14
264.558	21.29
264.775	-3.94
264.992	11.6
265.209	18.23
265.426	41.22
265.643	41.5
265.86	44.11
266.077	46.04
266.294	55.9
266.51	33.02
266.727	39.6
266.944	88.21
267.161	72.37
267.378	50.15
267.595	46.49
267.812	42.8
268.028	-1.81
268.245	15.24
268.462	25.93
268.679	14.51
268.896	37.83
269.112	42.17
269.329	78.75
269.546	63.36
269.763	62.08
269.979	70.59
270.196	97.04
270.413	60.45
270.629	69.24
270.846	69.9
271.063	49.67
271.279	30.63
271.496	51.95
271.712	-2.03
271.929	0.97
272.146	1.61
272.362	-14.05
272.579	-6.78
272.795	11.18
273.012	39.55
273.228	36.43
273.445	42.36
273.661	77.85
273.878	64.76
274.094	58.74
274.311	77.55
274.527	88.3
274.744	86.76
274.96	75.69
275.177	50.4
275.393	40.69
275.609	14.01
275.826	-1.51
276.042	13.73
276.259	28.09
276.475	29.37
276.691	39.28
276.908	41.17
277.124	57.61
277.34	63.47
277.557	49.74
277.773	45.5
277.989	76.07
278.205	52.5
278.422	19.49
278.638	66.92
278.854	86.14
279.07	67.1
279.286	57.24
279.503	98.83
279.719	55.29
279.935	57.36
280.151	69.97
280.367	87.4
280.583	71.52
280.799	90.09
281.016	74.13
281.232	81.1
281.448	44.11
281.664	42.78
281.88	60.02
282.096	80.56
282.312	49.66
282.528	67.59
282.744	66.8
282.96	72.98
283.176	64.16
283.392	73.81
283.608	74.48
283.824	70.47
284.04	63.09
284.256	58.09
284.471	45.06
284.687	62.74
284.903	56.8
285.119	50.67
285.335	42.13
285.551	45.8
285.767	28.57
285.982	24.78
286.198	30.01
286.414	49.69
286.63	74.47
286.846	67.51
287.061	56.62
287.277	60.89
287.493	99.1
287.709	57.13
287.924	59.06
288.14	58.46
288.356	54.84
288.571	38.64
288.787	44.92
289.003	58.05
289.218	63.48
289.434	40.63
289.65	43.88
289.865	49.92
290.081	35.54
290.296	42.1
290.512	45.03
290.727	54.51
290.943	52.45
291.159	51.05
291.374	52.91
291.59	56.42
291.805	45.87
292.021	83.7
292.236	99.19
292.451	105.49
292.667	147.81
292.882	109.48
293.098	38.89
293.313	54.15
293.529	60.77
293.744	35.07
293.959	24.54
294.175	50.68
294.39	34.35
294.605	8.82
294.821	10.01
295.036	14.83
295.251	27.94
295.467	34.55
295.682	44.42
295.897	57.88
296.112	72.6
296.328	63.15
296.543	79.68
296.758	73.72
296.973	55.78
297.188	65.92
297.404	59.21
297.619	40.31
297.834	50.9
298.049	47.48
298.264	19.59
298.479	6.36
298.694	46.3
298.909	50.62
299.125	58.92
299.34	69.23
299.555	78.36
299.77	80.18
299.985	82.46
300.2	71.34
300.415	57.99
300.63	35.17
300.845	21.06
301.06	26.65
301.275	15.28
301.49	22.27
301.704	64.54
301.919	43.06
302.134	30.01
302.349	40.94
302.564	27.68
302.779	25.46
302.994	50.33
303.209	66.98
303.423	65.96
303.638	77.38
303.853	85.61
304.068	55.88
304.283	49.2
304.497	58.83
304.712	52.01
304.927	64.12
305.142	78.45
305.356	74.68
305.571	73.85
305.786	76.95
306	65.94
306.215	76.81
306.43	89.98
306.644	95.02
306.859	103.7
307.074	122.88
307.288	107.32
307.503	92.41
307.717	89.36
307.932	54.19
308.147	60.78
308.361	63.31
308.576	46.92
308.79	29.99
309.005	71.04
309.219	34.35
309.434	26.24
309.648	29.07
309.863	42.51
310.077	-41.67
310.292	-22.78
310.506	-33.78
310.72	16.95
310.935	27.32
311.149	73.61
311.364	73.87
311.578	83.87
311.792	79.52
312.007	75.52
312.221	48.06
312.435	62.1
312.649	78.55
312.864	75.36
313.078	65.67
313.292	105.54
313.507	103.78
313.721	107.86
313.935	93.7
314.149	113.33
314.363	82.94
314.578	70.66
314.792	45.03
315.006	79.59
315.22	58.85
315.434	45.77
315.648	64.64
315.862	139.99
316.077	75.03
316.291	59.36
316.505	68.8
316.719	69.64
316.933	68.49
317.147	55.8
317.361	57.31
317.575	58.52
317.789	60.01
318.003	44.69
318.217	61.56
318.431	83.17
318.645	77.16
318.859	80.74
319.073	74.96
319.287	83.39
319.5	73.94
319.714	67.83
319.928	74.14
320.142	74.95
320.356	67.2
320.57	81.7
320.784	106.19
320.997	61.5
321.211	63.21
321.425	32.23
321.639	-17.06
321.853	-23.7
322.066	7.68
322.28	0.34
322.494	0.16
322.707	17.12
322.921	26.41
323.135	34.27
323.349	49.43
323.562	70.96
323.776	82.26
323.989	65.85
324.203	36.08
324.417	32.22
324.63	16.62
324.844	-2.56
325.057	24.97
325.271	8.31
325.485	7.4
325.698	22.18
325.912	31.59
326.125	26.58
326.339	57.53
326.552	44.58
326.766	21.86
326.979	50.49
327.193	47.73
327.406	31.45
327.619	49.94
327.833	49.33
328.046	54.29
328.26	57.3
328.473	47.92
328.686	29.88
328.9	43.16
329.113	18.55
329.326	12.31
329.54	44.99
329.753	70.23
329.966	65.92
330.179	71.65
330.393	97.83
330.606	64.15
330.819	56.79
331.032	86.27
331.246	106.8
331.459	63.79
331.672	97.95
331.885	95.48
332.098	82.39
332.311	76.56
332.525	83.43
332.738	63.24
332.951	43.7
333.164	58.1
333.377	41.65
333.59	56.87
333.803	66.96
334.016	54.45
334.229	11.87
334.442	34.06
334.655	31.68
334.868	45.42
335.081	43.38
335.294	65.22
335.507	51.68
335.72	46.63
335.933	44.8
336.146	48.01
336.359	46.67
336.572	39.93
336.785	40.44
336.997	35.98
337.21	64.71
337.423	69.67
337.636	93.64
337.849	104.98
338.062	94.97
338.274	69.97
338.487	37.19
338.7	21.22
338.913	32.13
339.125	57.51
339.338	53.61
339.551	71.16
339.763	95.12
339.976	74.37
340.189	65.93
340.402	64.02
340.614	45.01
340.827	50.03
341.039	46.43
341.252	41.9
341.465	42.56
341.677	52.78
341.89	23.74
342.102	41.18
342.315	24.66
342.527	53.88
342.74	46.06
342.952	51.53
343.165	54.48
343.377	69.85
343.59	25.18
343.802	34.46
344.015	28.33
344.227	8.09
344.44	10.92
344.652	38.96
344.864	54.3
345.077	66.66
345.289	72.49
345.502	60.82
345.714	47.03
345.926	36.6
346.139	18.95
346.351	22.67
346.563	17.76
346.775	26.2
346.988	-5.73
347.2	24.3
347.412	28.47
347.624	70.36
347.837	66.39
348.049	82.01
348.261	65.3
348.473	75.31
348.685	77.62
348.897	88.82
349.11	84.84
349.322	69.68
349.534	54.53
349.746	46.19
349.958	50.27
350.17	56.04
350.382	68.58
350.594	73.58
350.806	75.77
351.018	64.37
351.23	65.28
351.442	71.62
351.654	66.46
351.866	57.53
352.078	32.74
352.29	20.23
352.502	29.1
352.714	7.59
352.926	28.86
353.138	37.38
353.35	48.45
353.561	43.17
353.773	42.54
353.985	45.64
354.197	59.06
354.409	50.52
354.621	45.22
354.832	70.38
355.044	53.16
355.256	51.43
355.468	49.43
355.679	43.42
355.891	48.77
356.103	54.35
356.314	62.72
356.526	39.56
356.738	63.53
356.949	33.98
357.161	34.24
357.373	23.05
357.584	68.76
357.796	68.4
358.008	80.39
358.219	91.29
358.431	108.73
358.642	77.58
358.854	64.86
359.065	76.86
359.277	79.55
359.488	56.98
359.7	71.77
359.911	57.14
360.123	37.96
360.334	29.81
360.546	30.65
360.757	19.64
360.969	31.67
361.18	50.62
361.391	52.09
361.603	65.36
361.814	78.88
362.025	85.59
362.237	64.57
362.448	59.56
362.659	59.46
362.871	51.94
363.082	37.47
363.293	32.72
363.504	48.22
363.716	35.48
363.927	49.32
364.138	42.55
364.349	42.42
364.56	42.49
364.772	55.66
364.983	62.27
365.194	90.53
365.405	92.95
365.616	76.61
365.827	79.99
366.038	70.83
366.25	59.21
366.461	53.44
366.672	56.96
366.883	47.96
367.094	45.36
367.305	44.82
367.516	46.27
367.727	53.74
367.938	59.63
368.149	46.29
368.36	56.67
368.571	73.99
368.781	54.69
368.992	12.11
369.203	34.94
369.414	25.13
369.625	27.08
369.836	22.48
370.047	22.79
370.258	22.31
370.468	19.36
370.679	30.05
370.89	37.92
371.101	41.74
371.312	33.12
371.522	33.57
371.733	30.16
371.944	10.02
372.155	24.24
372.365	10.57
372.576	17.34
372.787	17.22
372.997	29.14
373.208	17.43
373.419	45.24
373.629	34.2
373.84	37.2
374.05	42.17
374.261	62.24
374.472	48.71
374.682	54.07
374.893	61.42
375.103	52.52
375.314	35.34
375.524	25.81
375.735	27.95
375.945	35.76
376.156	41.15
376.366	51.44
376.577	75.72
376.787	83.89
376.997	66.97
377.208	75.65
377.418	65.58
377.629	56.3
377.839	75.14
378.049	75.06
378.26	56.33
378.47	68.55
378.68	74.34
378.89	44.9
379.101	45.67
379.311	48.27
379.521	44.62
379.732	23.51
379.942	31.37
380.152	31.64
380.362	32.07
380.572	24.29
380.783	26.22
380.993	18.77
381.203	19.99
381.413	18.25
381.623	23.41
381.833	32.54
382.043	38.24
382.253	44.25
382.463	49.56
382.674	46.73
382.884	41.34
383.094	32.94
383.304	29.31
383.514	27.79
383.724	21.05
383.934	22.4
384.144	24.03
384.353	29.3
384.563	33.17
384.773	40.91
384.983	35.05
385.193	37.08
385.403	25.12
385.613	25.94
385.823	23.87
386.033	25.75
386.242	24.23
386.452	29.9
386.662	29.7
386.872	25.67
387.082	30.69
387.291	17.93
387.501	14.55
387.711	12.63
387.921	12.37
388.13	9.7
388.34	18.26
388.55	21.9
388.759	18.88
388.969	15.67
389.179	13.66
389.388	14.91
389.598	10.87
389.807	13.2
390.017	16.61
390.227	15.67
390.436	15.14
390.646	15.05
390.855	13.46
391.065	14.58
391.274	15.76
391.484	16.04
391.693	16.58
391.903	17.22
392.112	17.71
392.322	15.38
392.531	15.25
392.74	12.79
392.95	10.96
393.159	8.81
393.369	10.2
393.578	10.11
393.787	11.08
393.997	12.08
394.206	12.35
394.415	12.66
394.625	13.35
394.834	12.83
395.043	11.75
395.252	11.74
395.462	11.4
395.671	10.97
395.88	12.47
396.089	13.08
396.298	13.56
396.508	13.38
396.717	13.03
396.926	12.79
397.135	12.42
397.344	12.03
397.553	12.37
397.762	11.88
397.971	11.26
398.181	11.26
398.39	10.83
398.599	10.82
398.808	11.02
399.017	10.9
399.226	10.66
399.435	11.12
399.644	10.91
399.853	11.08
400.062	11.34
400.27	11.75
400.479	11.5
400.688	11.39
400.897	11.79
401.106	11.42
401.315	11.24
401.524	11.05
401.733	11.13
401.941	10.46
402.15	10.36
402.359	10.14
402.568	10.22
402.777	10.34
402.985	10.24
403.194	10.38
403.403	10.52
403.612	10.51
403.82	10.33
404.029	10.63
404.238	10.71
404.446	10.76
404.655	10.81
404.864	10.73
405.072	10.7
405.281	10.57
405.489	10.33
405.698	10.46
405.906	10.41
406.115	10.13
406.324	10.25
406.532	10.18
406.741	10.1
406.949	10.09
407.158	10.35
407.366	10.27
407.574	10.4
407.783	10.36
407.991	10.35
408.2	10.09
408.408	10.04
408.617	10.03
408.825	9.96
409.033	10
409.242	10.07
409.45	9.91
409.658	9.88
409.867	9.76
410.075	9.73
410.283	9.8
410.491	9.92
410.7	10.07
410.908	10.15
411.116	10.12
411.324	10.11
411.533	9.9
411.741	9.72
411.949	9.71
412.157	9.71
412.365	9.69
412.573	9.75
412.781	9.66
412.99	9.65
413.198	9.79
413.406	9.96
413.614	9.94
413.822	10
414.03	10.03
414.238	9.89
414.446	9.69
414.654	9.81
414.862	9.9
415.07	9.9
415.278	10.02
415.486	9.87
415.694	10.01
415.902	9.73
416.109	9.48
416.317	9.27
416.525	9.16
416.733	8.84
416.941	9.08
417.149	9.43
417.357	9.45
417.564	9.41
417.772	9.46
417.98	9.35
418.188	8.96
418.395	8.69
418.603	8.89
418.811	8.84
419.019	9
419.226	9.18
419.434	9.38
419.642	9.41
419.849	9.4
420.057	9.08
420.265	8.98
420.472	8.75
420.68	8.82
420.887	8.99
421.095	9.05
421.302	8.96
421.51	9.19
421.717	9.1
421.925	8.81
422.132	8.9
422.34	9.06
422.547	9.04
422.755	8.88
422.962	9.13
423.17	9.19
423.377	9.18
423.585	9.18
423.792	9.14
423.999	9.17
424.207	8.98
424.414	8.63
424.621	8.7
424.829	8.77
425.036	8.65
425.243	8.81
425.451	9.13
425.658	9.01
425.865	8.93
426.072	8.93
426.28	8.95
426.487	8.91
426.694	8.85
426.901	8.89
427.108	8.99
427.315	9.02
427.523	8.98
427.73	8.94
427.937	8.97
428.144	8.95
428.351	8.91
428.558	8.93
428.765	8.84
428.972	8.74
429.179	8.57
429.386	8.48
429.593	8.59
429.8	8.67
430.007	8.73
430.214	8.84
430.421	8.93
430.628	8.85
430.835	8.96
431.042	9.03
431.249	8.96
431.456	8.88
431.662	9.07
431.869	9.25
432.076	9.27
432.283	9.44
432.49	9.44
432.697	9.38
432.903	9.2
433.11	9.11
433.317	8.89
433.524	8.97
433.73	8.89
433.937	8.78
434.144	8.91
434.35	9
434.557	8.98
434.764	8.92
434.97	8.87
435.177	9
435.384	8.83
435.59	8.84
435.797	8.94
436.003	9.09
436.21	8.76
436.416	8.74
436.623	8.64
436.829	8.54
437.036	8.36
437.242	8.41
437.449	8.58
437.655	8.66
437.862	8.72
438.068	8.91
438.275	9.14
438.481	9.1
438.687	9.13
438.894	9.18
439.1	8.98
439.307	8.84
439.513	8.89
439.719	8.84
439.926	8.8
440.132	8.93
440.338	8.86
440.544	8.89
440.751	8.91
440.957	8.92
441.163	8.84
441.369	8.87
441.575	8.75
441.782	8.83
441.988	8.7
442.194	8.79
442.4	8.89
442.606	9
442.812	8.93
443.018	8.96
443.224	8.86
443.431	8.73
443.637	8.6
443.843	8.46
444.049	8.44
444.255	8.55
444.461	8.55
444.667	8.61
444.873	8.63
445.079	8.61
445.284	8.64
445.49	8.72
445.696	8.81
445.902	8.82
446.108	8.94
446.314	8.85
446.52	8.81
446.726	8.66
446.931	8.75
447.137	8.68
447.343	8.73
447.549	8.63
447.755	8.7
447.96	8.75
448.166	8.79
448.372	8.82
448.578	8.88
448.783	9.04
448.989	8.86
449.195	8.79
449.4	8.75
449.606	8.87
449.812	8.7
450.017	8.91
450.223	8.91
450.428	8.92
450.634	8.81
450.84	8.84
451.045	8.63
451.251	8.7
451.456	8.73
451.662	8.81
451.867	8.84
452.073	9.07
452.278	8.97
452.483	8.88
452.689	8.77
452.894	8.78
453.1	8.66
453.305	8.69
453.51	8.65
453.716	8.78
453.921	8.7
454.127	8.79
454.332	8.79
454.537	9.01
454.742	8.97
454.948	8.97
455.153	8.78
455.358	8.73
455.563	8.67
455.769	8.58
455.974	8.61
456.179	8.58
456.384	8.47
456.589	8.37
456.795	8.39
457	8.4
457.205	8.45
457.41	8.59
457.615	8.66
457.82	8.68
458.025	8.64
458.23	8.71
458.435	8.73
458.64	8.57
458.845	8.6
459.05	8.53
459.255	8.43
459.46	8.43
459.665	8.63
459.87	8.5
460.075	8.53
460.28	8.59
460.485	8.62
460.69	8.52
460.895	8.55
461.099	8.5
461.304	8.47
461.509	8.49
461.714	8.41
461.919	8.41
462.123	8.44
462.328	8.41
462.533	8.42
462.738	8.48
462.942	8.52
463.147	8.56
463.352	8.63
463.556	8.62
463.761	8.59
463.966	8.64
464.17	8.68
464.375	8.74
464.58	8.6
464.784	8.62
464.989	8.67
465.193	8.61
465.398	8.66
465.602	8.88
465.807	8.95
466.011	9.02
466.216	9.14
466.42	9.07
466.625	9.04
466.829	9.08
467.034	9.03
467.238	8.99
467.443	8.91
467.647	8.74
467.851	8.62
468.056	8.52
468.26	8.47
468.464	8.47
468.669	8.69
468.873	8.71
469.077	8.66
469.282	8.74
469.486	8.66
469.69	8.49
469.894	8.53
470.099	8.57
470.303	8.49
470.507	8.54
470.711	8.62
470.915	8.57
471.119	8.54
471.324	8.55
471.528	8.37
471.732	8.4
471.936	8.39
472.14	8.4
472.344	8.33
472.548	8.49
472.752	8.47
472.956	8.46
473.16	8.56
473.364	8.56
473.568	8.59
473.772	8.54
473.976	8.5
474.18	8.45
474.384	8.56
474.588	8.58
474.792	8.54
474.995	8.61
475.199	8.55
475.403	8.4
475.607	8.36
475.811	8.42
476.015	8.37
476.218	8.45
476.422	8.49
476.626	8.56
476.83	8.61
477.033	8.67
477.237	8.71
477.441	8.75
477.644	8.68
477.848	8.7
478.052	8.51
478.255	8.4
478.459	8.42
478.663	8.44
478.866	8.31
479.07	8.42
479.273	8.42
479.477	8.48
479.681	8.49
479.884	8.52
480.088	8.44
480.291	8.55
480.495	8.38
480.698	8.33
480.901	8.36
481.105	8.48
481.308	8.44
481.512	8.51
481.715	8.56
481.919	8.54
482.122	8.59
482.325	8.55
482.529	8.59
482.732	8.57
482.935	8.49
483.138	8.48
483.342	8.43
483.545	8.48
483.748	8.49
483.952	8.51
484.155	8.45
484.358	8.46
484.561	8.4
484.764	8.35
484.967	8.4
485.171	8.39
485.374	8.34
485.577	8.38
485.78	8.42
485.983	8.47
486.186	8.5
486.389	8.48
486.592	8.43
486.795	8.36
486.998	8.31
487.201	8.28
487.404	8.31
487.607	8.37
487.81	8.32
488.013	8.29
488.216	8.25
488.419	8.24
488.622	8.1
488.825	8.13
489.028	8.11
489.231	8.17
489.433	8.16
489.636	8.21
489.839	8.18
490.042	8.14
490.245	8.15
490.447	8.19
490.65	8.16
490.853	8.29
491.056	8.31
491.258	8.24
491.461	8.23
491.664	8.2
491.866	8.13
492.069	8.18
492.272	8.13
492.474	8.1
492.677	8.1
492.879	8.1
493.082	8.1
493.285	8.16
493.487	8.09
493.69	8.09
493.892	8.09
494.095	8.08
494.297	8.09
494.5	8.27
494.702	8.25
494.905	8.18
495.107	8.17
495.309	8.08
495.512	7.9
495.714	7.96
495.917	8.04
496.119	8.1
496.321	8.18
496.524	8.16
496.726	8.15
496.928	8.08
497.13	7.99
497.333	7.96
497.535	8.17
497.737	8.12
497.939	8.14
498.142	8.13
498.344	8.09
498.546	8.01
498.748	8.05
498.95	8.08
499.152	8.04
499.355	8.03
499.557	7.97
499.759	8.05
499.961	8.1
500.163	8.17
500.365	8.3
500.567	8.36
500.769	8.35
500.971	8.28
501.173	8.27
501.375	8.13
501.577	8.13
501.779	8.11
501.981	8.2
502.183	8.17
502.385	8.21
502.587	8.16
502.788	8.08
502.99	7.99
503.192	8.04
503.394	8.06
503.596	8.06
503.798	8.12
503.999	8.11
504.201	7.99
504.403	7.99
504.605	8.01
504.806	7.96
505.008	7.96
505.21	8
505.411	7.92
505.613	7.88
505.815	7.91
506.016	7.96
506.218	7.98
506.42	8.09
506.621	8.1
506.823	8.14
507.024	8.13
507.226	8.11
507.427	8.01
507.629	8.01
507.83	7.94
508.032	7.95
508.233	8.02
508.435	8.07
508.636	8.12
508.838	8.1
509.039	8.1
509.24	8.03
509.442	8.1
509.643	8.05
509.845	8.04
510.046	8
510.247	8.06
510.448	8.01
510.65	8.01
510.851	8
511.052	8.04
511.254	8.01
511.455	8.03
511.656	7.98
511.857	7.99
512.058	7.97
512.26	7.88
512.461	7.83
512.662	7.86
512.863	7.84
513.064	7.87
513.265	7.95
513.466	7.96
513.667	7.99
513.868	8.01
514.069	8
514.27	8.02
514.471	7.93
514.672	7.96
514.873	7.88
515.074	7.87
515.275	7.81
515.476	7.91
515.677	7.87
515.878	7.95
516.079	7.89
516.28	7.87
516.481	7.89
516.682	7.84
516.882	7.85
517.083	7.89
517.284	7.92
517.485	7.88
517.686	7.93
517.886	7.91
518.087	7.86
518.288	7.9
518.488	7.93
518.689	7.88
518.89	7.89
519.091	7.96
519.291	7.87
519.492	7.89
519.692	7.94
519.893	8.01
520.094	7.98
520.294	8
520.495	8
520.695	8.02
520.896	7.96
521.096	7.98
521.297	8.08
521.497	8.08
521.698	8.07
521.898	8.06
522.099	8.08
522.299	8.05
522.499	8.05
522.7	8.07
522.9	8.11
523.101	8.07
523.301	8.07
523.501	8.03
523.702	8.01
523.902	7.95
524.102	8.02
524.302	8.05
524.503	8.03
524.703	8.02
524.903	8.1
525.103	8.09
525.304	8.01
525.504	8.06
525.704	8.05
525.904	7.98
526.104	7.96
526.304	8.04
526.504	8.06
526.705	8.04
526.905	8.12
527.105	8.13
527.305	8.15
527.505	8.15
527.705	8.18
527.905	8.13
528.105	8.11
528.305	8.03
528.505	8.04
528.705	8.03
528.905	7.97
529.105	7.94
529.304	7.95
529.504	7.92
529.704	7.94
529.904	7.99
530.104	8.02
530.304	8.06
530.503	8.03
530.703	7.96
530.903	7.95
531.103	7.95
531.303	7.94
531.502	7.93
531.702	7.94
531.902	7.98
532.101	8.01
532.301	7.96
532.501	8.01
532.7	8.04
532.9	8.04
533.1	8.01
533.299	8.01
533.499	8.03
533.698	7.98
533.898	7.97
534.097	8.01
534.297	8.03
534.496	8
534.696	8.05
534.895	8.1
535.095	8.06
535.294	8.11
535.494	8.09
535.693	8.1
535.892	8.03
536.092	8.06
536.291	8.03
536.491	8.11
536.69	8.09
536.889	8.08
537.088	8.04
537.288	8.04
537.487	8
537.686	8
537.886	8.07
538.085	8.12
538.284	8.13
538.483	8.09
538.682	8.18
538.882	8.18
539.081	8.15
539.28	8.25
539.479	8.28
539.678	8.28
539.877	8.26
540.076	8.3
540.275	8.27
540.474	8.3
540.673	8.3
540.872	8.29
541.071	8.31
541.27	8.26
541.469	8.25
541.668	8.2
541.867	8.25
542.066	8.22
542.265	8.34
542.464	8.36
542.663	8.46
542.862	8.57
543.06	8.63
543.259	8.61
543.458	8.71
543.657	8.7
543.856	8.64
544.054	8.68
544.253	8.61
544.452	8.51
544.651	8.5
544.849	8.46
545.048	8.43
545.247	8.51
545.445	8.59
545.644	8.56
545.843	8.53
546.041	8.56
546.24	8.57
546.438	8.61
546.637	8.67
546.836	8.73
547.034	8.79
547.233	8.83
547.431	8.82
547.63	8.86
547.828	8.93
548.027	8.89
548.225	8.83
548.423	8.89
548.622	8.9
548.82	8.79
549.019	8.78
549.217	8.8
549.415	8.78
549.614	8.8
549.812	8.86
550.01	8.93
550.209	9.03
550.407	9.06
550.605	9.04
550.803	9.18
551.002	9.19
551.2	9.23
551.398	9.34
551.596	9.41
551.794	9.4
551.993	9.47
552.191	9.42
552.389	9.39
552.587	9.41
552.785	9.39
552.983	9.46
553.181	9.54
553.379	9.59
553.577	9.63
553.775	9.71
553.973	9.7
554.171	9.8
554.369	9.81
554.567	9.88
554.765	9.91
554.963	9.92
555.161	9.83
555.359	9.81
555.557	9.84
555.755	9.88
555.952	10.01
556.15	10.08
556.348	10.21
556.546	10.22
556.744	10.23
556.941	10.19
557.139	10.26
557.337	10.25
557.535	10.29
557.732	10.37
557.93	10.46
558.128	10.49
558.325	10.49
558.523	10.55
558.721	10.58
558.918	10.52
559.116	10.53
559.313	10.57
559.511	10.65
559.708	10.69
559.906	10.83
560.104	10.81
560.301	10.93
560.498	10.9
560.696	10.95
560.893	10.94
561.091	11.08
561.288	11.08
561.486	11.09
561.683	11.09
561.88	11.04
562.078	11.05
562.275	11
562.473	11.05
562.67	11.1
562.867	11.22
563.064	11.22
563.262	11.28
563.459	11.37
563.656	11.37
563.853	11.29
564.051	11.31
564.248	11.38
564.445	11.36
564.642	11.3
564.839	11.39
565.036	11.48
565.234	11.52
565.431	11.58
565.628	11.62
565.825	11.65
566.022	11.7
566.219	11.71
566.416	11.65
566.613	11.69
566.81	11.75
567.007	11.63
567.204	11.59
567.401	11.66
567.598	11.67
567.795	11.68
567.991	11.78
568.188	11.86
568.385	11.78
568.582	11.82
568.779	11.78
568.976	11.89
569.172	11.96
569.369	12.06
569.566	12.11
569.763	12.12
569.96	12.07
570.156	12.04
570.353	12.04
570.55	12.05
570.746	12.08
570.943	12.03
571.14	11.99
571.336	11.99
571.533	12
571.729	12.01
571.926	12.07
572.123	12.06
572.319	12.1
572.516	12.07
572.712	12.11
572.909	12.09
573.105	12.17
573.302	12.12
573.498	12.1
573.695	11.99
573.891	12
574.087	11.89
574.284	11.84
574.48	11.89
574.677	12
574.873	11.98
575.069	12.07
575.266	12.08
575.462	12.05
575.658	11.99
575.854	12.03
576.051	11.95
576.247	11.99
576.443	12.03
576.639	12.12
576.835	12.01
577.032	11.97
577.228	12.01
577.424	11.93
577.62	11.82
577.816	11.82
578.012	11.9
578.208	11.86
578.404	11.93
578.6	12
578.796	11.96
578.993	11.96
579.189	11.93
579.384	11.86
579.58	11.8
579.776	11.84
579.972	11.73
580.168	11.68
580.364	11.69
580.56	11.64
580.756	11.56
580.952	11.54
581.148	11.54
581.343	11.51
581.539	11.56
581.735	11.56
581.931	11.58
582.127	11.53
582.322	11.45
582.518	11.42
582.714	11.45
582.909	11.47
583.105	11.5
583.301	11.53
583.496	11.51
583.692	11.49
583.888	11.45
584.083	11.39
584.279	11.42
584.474	11.38
584.67	11.32
584.866	11.32
585.061	11.37
585.257	11.25
585.452	11.2
585.648	11.23
585.843	11.22
586.039	11.2
586.234	11.3
586.429	11.37
586.625	11.35
586.82	11.37
587.015	11.32
587.211	11.11
587.406	10.99
587.601	11.01
587.797	10.92
587.992	10.84
588.187	10.97
588.383	11.04
588.578	11.03
588.773	11.03
588.968	11.22
589.163	11.23
589.359	11.13
589.554	11.08
589.749	11.14
589.944	11.03
590.139	10.95
590.334	10.99
590.529	10.98
590.724	10.99
590.919	10.99
591.114	11.13
591.309	11.18
591.504	11.21
591.699	11.13
591.894	11.11
592.089	11.03
592.284	11.02
592.479	11.05
592.674	11.08
592.869	11.15
593.064	11.28
593.259	11.29
593.454	11.23
593.648	11.32
593.843	11.22
594.038	11.15
594.233	11.11
594.428	11.11
594.622	11.11
594.817	11.24
595.012	11.22
595.206	11.36
595.401	11.5
595.596	11.46
595.79	11.44
595.985	11.49
596.18	11.45
596.374	11.44
596.569	11.44
596.763	11.56
596.958	11.64
597.153	11.61
597.347	11.65
597.542	11.73
597.736	11.66
597.931	11.6
598.125	11.69
598.319	11.71
598.514	11.68
598.708	11.7
598.903	11.71
599.097	11.73
599.291	11.71
599.486	11.71
599.68	11.68
599.874	11.75
600.069	11.67
600.263	11.65
600.457	11.76
600.651	11.84
600.846	11.81
601.04	11.83
601.234	11.81
601.428	11.78
601.622	11.79
601.817	11.81
602.011	11.89
602.205	11.89
602.399	11.87
602.593	11.83
602.787	11.76
602.981	11.77
603.175	11.89
603.369	11.88
603.563	11.95
603.757	11.99
603.951	11.92
604.145	11.8
604.339	11.78
604.533	11.64
604.727	11.64
604.921	11.65
605.115	11.59
605.309	11.49
605.502	11.59
605.696	11.54
605.89	11.55
606.084	11.61
606.278	11.62
606.471	11.52
606.665	11.48
606.859	11.38
607.053	11.39
607.246	11.4
607.44	11.4
607.634	11.42
607.827	11.47
608.021	11.27
608.214	11.24
608.408	11.25
608.602	11.29
608.795	11.21
608.989	11.32
609.182	11.33
609.376	11.35
609.569	11.19
609.763	11.13
609.956	11.17
610.15	11.08
610.343	11.02
610.537	11
610.73	11
610.923	10.91
611.117	10.89
611.31	10.84
611.504	10.86
611.697	10.85
611.89	10.8
612.083	10.78
612.277	10.67
612.47	10.68
612.663	10.59
612.856	10.52
613.05	10.54
613.243	10.52
613.436	10.33
613.629	10.27
613.822	10.33
614.015	10.21
614.209	10.14
614.402	10.3
614.595	10.34
614.788	10.25
614.981	10.29
615.174	10.24
615.367	10.08
615.56	9.97
615.753	9.95
615.946	9.87
616.139	9.96
616.332	9.97
616.525	9.94
616.718	9.93
616.911	9.99
617.103	9.91
617.296	9.86
617.489	9.93
617.682	9.92
617.875	9.86
618.067	9.83
618.26	9.76
618.453	9.63
618.646	9.62
618.838	9.54
619.031	9.45
619.224	9.47
619.417	9.56
619.609	9.52
619.802	9.51
619.994	9.51
620.187	9.52
620.38	9.44
620.572	9.43
620.765	9.53
620.957	9.59
621.15	9.64
621.342	9.61
621.535	9.52
621.727	9.4
621.92	9.32
622.112	9.2
622.305	9.21
622.497	9.25
622.69	9.16
622.882	9.24
623.074	9.34
623.267	9.27
623.459	9.22
623.651	9.32
623.844	9.26
624.036	9.2
624.228	9.31
624.42	9.3
624.613	9.35
624.805	9.35
624.997	9.37
625.189	9.27
625.381	9.34
625.574	9.25
625.766	9.3
625.958	9.24
626.15	9.31
626.342	9.26
626.534	9.31
626.726	9.14
626.918	9.08
627.11	9.02
627.302	8.97
627.494	8.84
627.686	8.98
627.878	9.04
628.07	8.98
628.262	8.96
628.454	8.98
628.646	8.88
628.838	8.91
629.029	8.88
629.221	8.91
629.413	8.92
629.605	8.89
629.797	8.85
629.989	8.91
630.18	8.87
630.372	8.75
630.564	8.8
630.755	8.69
630.947	8.57
631.139	8.58
631.33	8.63
631.522	8.65
631.714	8.73
631.905	8.76
632.097	8.76
632.289	8.76
632.48	8.65
632.672	8.57
632.863	8.58
633.055	8.5
633.246	8.46
633.438	8.49
633.629	8.52
633.821	8.45
634.012	8.49
634.203	8.45
634.395	8.41
634.586	8.43
634.777	8.55
634.969	8.54
635.16	8.63
635.351	8.65
635.543	8.57
635.734	8.49
635.925	8.41
636.117	8.43
636.308	8.41
636.499	8.4
636.69	8.35
636.881	8.41
637.073	8.4
637.264	8.36
637.455	8.38
637.646	8.45
637.837	8.43
638.028	8.33
638.219	8.34
638.41	8.37
638.601	8.29
638.792	8.25
638.983	8.22
639.174	8.18
639.365	8.08
639.556	8.04
639.747	8.13
639.938	8.24
640.129	8.29
640.32	8.32
640.511	8.38
640.701	8.22
640.892	8.23
641.083	8.18
641.274	8.15
641.465	8.15
641.655	8.27
641.846	8.22
642.037	8.23
642.228	8.24
642.418	8.19
642.609	8.12
642.8	8.04
642.99	7.97
643.181	7.95
643.372	7.91
643.562	7.87
643.753	7.91
643.943	7.97
644.134	7.92
644.324	7.92
644.515	8.04
644.705	7.98
644.896	8
645.086	7.96
645.277	7.95
645.467	7.94
645.658	7.95
645.848	7.76
646.038	7.84
646.229	7.94
646.419	7.79
646.61	7.88
646.8	7.98
646.99	8.01
647.18	7.92
647.371	7.97
647.561	7.88
647.751	7.93
647.941	7.86
648.132	7.84
648.322	7.86
648.512	7.88
648.702	7.9
648.892	7.85
649.082	7.85
649.272	7.74
649.462	7.68
649.653	7.65
649.843	7.67
650.033	7.72
650.223	7.65
650.413	7.65
650.603	7.77
650.793	7.81
650.983	7.74
651.172	7.87
651.362	7.84
651.552	7.7
651.742	7.59
651.932	7.71
652.122	7.74
652.312	7.8
652.502	7.78
652.691	7.89
652.881	7.89
653.071	7.9
653.261	7.77
653.45	7.72
653.64	7.69
653.83	7.66
654.019	7.63
654.209	7.65
654.399	7.7
654.588	7.6
654.778	7.49
654.968	7.38
655.157	7.45
655.347	7.39
655.536	7.4
655.726	7.29
655.915	7.36
656.105	7.27
656.294	7.28
656.484	7.21
656.673	7.25
656.863	7.26
657.052	7.33
657.241	7.17
657.431	7.25
657.62	7.16
657.809	7.07
657.999	7.06
658.188	7.08
658.377	7.05
658.567	7.13
658.756	7.09
658.945	7.02
659.134	7.03
659.324	7.01
659.513	6.9
659.702	6.72
659.891	6.65
660.08	6.53
660.269	6.38
660.458	6.46
660.648	6.57
660.837	6.5
661.026	6.48
661.215	6.54
661.404	6.4
661.593	6.42
661.782	6.42
661.971	6.44
662.16	6.42
662.349	6.44
662.538	6.5
662.726	6.51
662.915	6.66
663.104	6.65
663.293	6.6
663.482	6.55
663.671	6.72
663.86	6.58
664.048	6.61
664.237	6.8
664.426	6.75
664.615	6.67
664.803	6.75
664.992	6.69
665.181	6.63
665.369	6.68
665.558	6.65
665.747	6.7
665.935	6.82
666.124	6.84
666.312	6.83
666.501	6.97
666.69	7
666.878	7
667.067	6.99
667.255	7.13
667.444	7.11
667.632	7.15
667.82	7.07
668.009	7.07
668.197	6.92
668.386	6.79
668.574	6.73
668.762	7.04
668.951	7.12
669.139	7.16
669.327	7.29
669.516	7.38
669.704	7.22
669.892	7.18
670.08	7.35
670.269	7.37
670.457	7.23
670.645	7.21
670.833	7.28
671.021	7.25
671.21	7.36
671.398	7.44
671.586	7.44
671.774	7.48
671.962	7.55
672.15	7.51
672.338	7.57
672.526	7.75
672.714	7.97
672.902	7.95
673.09	7.91
673.278	7.98
673.466	8.04
673.654	8.14
673.842	8.22
674.03	8.51
674.218	8.55
674.405	8.63
674.593	8.59
674.781	8.71
674.969	8.6
675.157	8.71
675.344	8.63
675.532	8.73
675.72	8.85
675.908	8.93
676.095	8.94
676.283	9.1
676.471	8.96
676.658	8.85
676.846	8.93
677.033	9.19
677.221	9.17
677.409	9.22
677.596	9.32
677.784	9.38
677.971	9.27
678.159	9.4
678.346	9.61
678.534	9.54
678.721	9.53
678.909	9.52
679.096	9.55
679.283	9.39
679.471	9.53
679.658	9.57
679.846	9.55
680.033	9.78
680.22	10.02
680.408	10.04
680.595	10.1
680.782	10.13
680.969	9.89
681.157	9.79
681.344	9.87
681.531	10.03
681.718	10.21
681.905	10.27
682.093	10.25
682.28	10.41
682.467	10.5
682.654	10.38
682.841	10.34
683.028	10.41
683.215	10.41
683.402	10.37
683.589	10.5
683.776	10.66
683.963	10.69
684.15	10.72
684.337	10.61
684.524	10.7
684.711	10.7
684.898	10.73
685.085	10.63
685.271	10.74
685.458	10.76
685.645	10.67
685.832	10.54
686.019	10.45
686.205	10.53
686.392	10.5
686.579	10.82
686.766	11.06
686.952	11.2
687.139	11.19
687.326	11.14
687.512	11.09
687.699	11.12
687.886	11.23
688.072	11.19
688.259	11.39
688.445	11.52
688.632	11.48
688.818	11.71
689.005	11.8
689.191	12.07
689.378	12.11
689.564	12.46
689.751	12.3
689.937	12.64
690.124	12.53
690.31	12.61
690.496	12.83
690.683	13.28
690.869	13.33
691.055	13.61
691.242	13.87
691.428	13.96
691.614	13.98
691.8	14.31
691.987	14.49
692.173	14.8
692.359	15.04
692.545	15.29
692.731	15.36
692.918	15.5
693.104	15.89
693.29	16.02
693.476	16.37
693.662	16.75
693.848	17.33
694.034	17.36
694.22	17.85
694.406	18.19
694.592	18.45
694.778	18.37
694.964	18.62
695.15	18.77
695.336	18.99
695.522	19.32
695.708	19.9
695.894	20.42
696.08	21.01
696.265	21.31
696.451	21.76
696.637	22.17
696.823	22.58
697.009	22.84
697.194	23.25
697.38	23.82
697.566	24.13
697.751	24.43
697.937	24.81
698.123	25.53
698.308	25.46
698.494	25.81
698.68	26.38
698.865	26.56
699.051	26.69
699.236	27.3
699.422	27.81
699.607	27.97
699.793	28.64
699.978	28.92
700.164	29.22
700.349	29.69
700.535	29.99
700.72	30.17
700.906	30.87
701.091	31.49
701.276	31.74
701.462	32.19
701.647	33.1
701.832	33.19
702.018	33.71
702.203	34.25
702.388	34.9
702.573	35.11
702.759	35.74
702.944	35.86
703.129	36.34
703.314	36.68
703.499	36.79
703.684	37.36
703.87	37.88
704.055	38
704.24	38.53
704.425	39.28
704.61	39.7
704.795	40.17
704.98	41.01
705.165	41.09
705.35	41.48
705.535	41.64
705.72	41.92
705.905	41.77
706.09	42.37
706.275	42.54
706.459	42.7
706.644	43.01
706.829	43.66
707.014	44.05
707.199	44.73
707.384	44.91
707.568	45.13
707.753	45.61
707.938	45.51
708.123	45.46
708.307	46
708.492	46.42
708.677	46.24
708.861	46.81
709.046	46.87
709.231	46.94
709.415	47.04
709.6	47.48
709.784	47.67
709.969	48.3
710.153	48.83
710.338	49.22
710.522	49.79
710.707	49.82
710.891	49.58
711.076	49.9
711.26	50.03
711.445	50.23
711.629	50.75
711.813	51.61
711.998	51.88
712.182	51.95
712.366	52.15
712.551	52.18
712.735	52.02
712.919	51.96
713.103	52.43
713.288	52.37
713.472	52.45
713.656	52.69
713.84	52.87
714.024	53.48
714.208	53.6
714.393	53.67
714.577	54.06
714.761	54.23
714.945	54.37
715.129	54.8
715.313	55.71
715.497	55.73
715.681	55.42
715.865	55.1
716.049	55.13
716.233	54.67
716.417	54.76
716.601	55.51
716.785	55.77
716.968	55.99
717.152	56.66
717.336	56.95
717.52	57.11
717.704	56.86
717.888	57.28
718.071	57.61
718.255	57.86
718.439	58.16
718.622	58.63
718.806	58.08
718.99	57.44
719.174	56.93
719.357	57.52
719.541	57.99
719.724	58.12
719.908	58.75
720.092	59.52
720.275	59.1
720.459	59.13
720.642	59.6
720.826	59.51
721.009	59.4
721.193	59.54
721.376	60.12
721.559	60.94
721.743	61.52
721.926	62.06
722.11	62.35
722.293	61.83
722.476	61.21
722.66	61.71
722.843	62.06
723.026	62.35
723.21	62.99
723.393	63.11
723.576	62.66
723.759	62.31
723.942	62.05
724.126	62.23
724.309	62.99
724.492	63.45
724.675	63.73
724.858	64.29
725.041	64.03
725.224	63.39
725.407	63.32
725.59	63.61
725.774	63.45
725.957	63.49
726.14	64.17
726.322	64.33
726.505	64.01
726.688	64.24
726.871	64.84
727.054	64.87
727.237	65.03
727.42	65.83
727.603	66.84
727.786	67.08
727.968	67.4
728.151	67.56
728.334	67.21
728.517	66.89
728.699	66.91
728.882	67.51
729.065	67.73
729.248	68.02
729.43	68.46
729.613	69.05
729.796	69.07
729.978	69.33
730.161	69.46
730.343	69.35
730.526	69.28
730.708	69.34
730.891	68.84
731.073	68.95
731.256	68.79
731.438	68.66
731.621	67.98
731.803	69.02
731.986	69.87
732.168	70.25
732.35	70.89
732.533	72.08
732.715	71.84
732.898	71.49
733.08	71.57
733.262	71.59
733.444	71.06
733.627	71.59
733.809	71.99
733.991	71.76
734.173	71.57
734.355	71.63
734.538	71.51
734.72	71.72
734.902	72.83
735.084	73.06
735.266	73.51
735.448	74.33
735.63	73.97
735.812	73.95
735.994	73.74
736.176	73.99
736.358	73.66
736.54	75.07
736.722	74.55
736.904	75.53
737.086	75.85
737.268	75.75
737.45	75.18
737.632	75.55
737.814	75.61
737.995	76.36
738.177	76.7
738.359	76.3
738.541	76.18
738.723	76.02
738.904	75.23
739.086	76.31
739.268	76.93
739.449	78.16
739.631	78.36
739.813	79.51
739.994	78.39
740.176	78.74
740.358	78.5
740.539	79.14
740.721	78.22
740.902	78.5
741.084	79.28
741.265	79.59
741.447	79.66
741.628	79.14
741.81	78.8
741.991	79.1
742.172	78.32
742.354	78
742.535	78.79
742.717	79.48
742.898	78.17
743.079	79.41
743.261	79.8
743.442	81.06
743.623	81.74
743.804	81.94
743.986	81.3
744.167	80.18
744.348	79.93
744.529	79.47
744.71	79.06
744.891	79.66
745.073	79.79
745.254	80
745.435	81.02
745.616	81.11
745.797	81.2
745.978	82
746.159	82.23
746.34	81.21
746.521	81.23
746.702	81.37
746.883	81.54
747.064	80.51
747.245	80.3
747.426	81.35
747.606	80.24
747.787	80.42
747.968	80.79
748.149	80.66
748.33	80.14
748.51	80.65
748.691	79.05
748.872	78.57
749.053	79.67
749.233	79.99
749.414	80.64
749.595	82.75
749.775	82.58
749.956	81.03
750.137	80.49
750.317	78.79
750.498	78.5
750.678	79.55
750.859	81.5
751.04	81.88
751.22	82.41
751.4	82.7
751.581	82.2
751.761	81.41
751.942	81.92
752.122	83.22
752.303	83.58
752.483	84.2
752.663	85.34
752.844	85.31
753.024	84.88
753.204	83.89
753.385	83.5
753.565	82.36
753.745	81.1
753.925	82.17
754.106	82.98
754.286	83.51
754.466	83.25
754.646	84.6
754.826	82.91
755.006	81.86
755.187	80.83
755.367	82.01
755.547	80
755.727	79.65
755.907	79.13
756.087	79.9
756.267	79.09
756.447	80.4
756.627	80.16
756.807	83.2
756.987	82.85
757.167	83.39
757.346	83.57
757.526	85.46
757.706	83.3
757.886	83.78
758.066	83.85
758.246	83.81
758.425	81.9
758.605	81.54
758.785	81.66
758.965	82.59
759.144	83.41
759.324	84.57
759.504	84.68
759.683	84.9
759.863	83.09
760.043	82.72
760.222	85.26
760.402	84.64
760.581	83.8
760.761	84.4
760.94	83.99
761.12	80.42
761.299	80.97
761.479	81.07
761.658	79.79
761.838	80.04
762.017	80.44
762.197	80.68
762.376	82.03
762.555	81.39
762.735	80.44
762.914	78.72
763.093	78.68
763.273	76.57
763.452	77.99
763.631	77.61
763.81	78.97
763.99	79.68
764.169	79.58
764.348	78.49
764.527	79.74
764.706	80.12
764.885	79.43
765.064	78.95
765.243	80.15
765.423	78.12
765.602	77.61
765.781	77.43
765.96	76.61
766.139	76.34
766.318	77.8
766.497	77.74
766.676	75.6
766.854	78.36
767.033	77.36
767.212	77.83
767.391	77.9
767.57	80.53
767.749	79.32
767.928	80.78
768.106	79.35
768.285	78.27
768.464	77.19
768.643	77.06
768.821	75.12
769	74.9
769.179	76.57
769.357	76.53
769.536	76.62
769.715	77.25
769.893	77.41
770.072	77.72
770.25	78.44
770.429	79.12
770.607	78.23
770.786	81.02
770.964	78.5
771.143	78.94
771.321	78.18
771.5	83.51
771.678	80.16
771.857	81.92
772.035	81.29
772.213	82.5
772.392	78.49
772.57	79.11
772.748	79.59
772.927	79.65
773.105	77.44
773.283	78.91
773.461	80.22
773.64	81.17
773.818	80.44
773.996	80.95
774.174	80.63
774.352	78.46
774.531	74.45
774.709	73.43
774.887	74.67
775.065	72.47
775.243	74.34
775.421	75.85
775.599	77.94
775.777	74.8
775.955	72.45
776.133	71.31
776.311	73.74
776.489	73.63
776.667	75.25
776.844	77.81
777.022	78.27
777.2	77.2
777.378	75.46
777.556	77.82
777.734	77.03
777.911	77.36
778.089	77.32
778.267	78.45
778.445	76.38
778.622	75.89
778.8	76.54
778.978	76.82
779.155	76.98
779.333	77.4
779.511	74.28
779.688	74.74
779.866	70.33
780.043	70.66
780.221	70.79
780.398	76.58
780.576	73.45
780.753	77.48
780.931	76.65
781.108	76
781.286	76.06
781.463	75.75
781.64	76.01
781.818	75.22
781.995	75.02
782.172	75.38
782.35	79.62
782.527	76.32
782.704	79.28
782.882	79.55
783.059	79.13
783.236	74.63
783.413	79.37
783.59	76.84
783.768	72.43
783.945	73.64
784.122	76.44
784.299	75.92
784.476	78.44
784.653	83.52
784.83	81.11
785.007	79.06
785.184	77.97
785.361	75.27
785.538	76.53
785.715	74.98
785.892	78.25
786.069	79.02
786.246	83.32
786.423	82.39
786.6	86.57
786.776	83.85
786.953	84.74
787.13	82.04
787.307	81.79
787.484	80.12
787.66	81.87
787.837	77.92
788.014	75.94
788.191	78.19
788.367	78.27
788.544	83.57
788.721	86.4
788.897	86.98
789.074	85.11
789.25	82.36
789.427	77.98
789.603	80.31
789.78	80.12
789.956	81.12
790.133	82.5
790.309	82.23
790.486	76.56
790.662	75.89
790.839	73.27
791.015	75.55
791.192	76.39
791.368	81.7
791.544	84.74
791.721	86.46
791.897	88.85
792.073	88.33
792.249	83.57
792.426	82.99
792.602	81.8
792.778	80.35
792.954	76.98
793.13	81.7
793.307	82.64
793.483	79.46
793.659	78.24
793.835	83.58
794.011	81.58
794.187	71.7
794.363	72.16
794.539	72.46
794.715	63.22
794.891	60.37
795.067	62.95
795.243	64.88
795.419	63.42
795.595	68.03
795.771	67.85
795.947	75.96
796.122	70.96
796.298	70.41
796.474	68.94
796.65	70.05
796.826	65.93
797.001	72.34
797.177	75.56
797.353	74.42
797.529	76.45
797.704	73
797.88	68.31
798.056	66.33
798.231	69
798.407	69.18
798.582	72.77
798.758	80.5
798.934	82.87
799.109	85.68
799.285	83.22
799.46	86.9
799.636	83.75
799.811	82.9
799.986	80.81
800.162	85.28
800.337	79.87
800.513	75.82
800.688	79
800.863	81.55
801.039	80.13
801.214	77.54
801.389	75.56
801.565	77.67
801.74	76.34
801.915	72.42
802.09	69.75
802.265	73.09
802.441	73.99
802.616	73.18
802.791	80.52
802.966	91.05
803.141	92.85
803.316	75.19
803.491	68.23
803.666	68.02
803.841	73.08
804.016	76.97
804.191	92.11
804.366	104.03
804.541	101.76
804.716	89.82
804.891	81.77
805.066	75.04
805.241	69.76
805.416	66.39
805.591	75.14
805.765	80.26
805.94	83.02
806.115	85.55
806.29	86.84
806.464	87.16
806.639	85.17
806.814	80.6
806.989	70.17
807.163	72.24
807.338	73.74
807.512	74.67
807.687	74.6
807.862	79.87
808.036	79.49
808.211	74.26
808.385	71.42
808.56	69.94
808.734	68.11
808.909	64.27
809.083	67.01
809.258	72.22
809.432	76.37
809.606	75.67
809.781	79.46
809.955	83.81
810.13	80.41
810.304	82.24
810.478	72.54
810.652	65.13
810.827	54.68
811.001	57.29
811.175	57.98
811.349	79.76
811.524	89.84
811.698	97.28
811.872	96.1
812.046	104.23
812.22	97.35
812.394	88.08
812.568	94.11
812.742	101.19
812.916	98.14
813.09	105.62
813.264	114.32
813.438	105.44
813.612	106.63
813.786	94.63
813.96	84.57
814.134	90.26
814.308	96.94
814.482	95.96
814.656	111.35
814.83	110.88
815.003	116.03
815.177	110.77
815.351	101.64
815.525	90.54
815.698	83.65
815.872	67.57
816.046	63.2
816.219	63.28
816.393	79.56
816.567	98.87
816.74	113.27
816.914	127.99
817.088	149.66
817.261	139.8
817.435	122.44
817.608	120.02
817.782	111.52
817.955	112.89
818.129	113.62
818.302	109.7
818.475	122.59
818.649	117.36
818.822	94.22
818.996	82.62
819.169	83.68
819.342	70.48
819.516	74.18
819.689	89.31
819.862	100.62
820.035	105.26
820.209	92.6
820.382	98.42
820.555	95.01
820.728	97.65
820.901	86.62
821.075	108.55
821.248	112.51
821.421	104.84
821.594	98.46
821.767	101.99
821.94	85.64
822.113	55.81
822.286	63.66
822.459	57.75
822.632	60.83
822.805	85.77
822.978	108.38
823.151	101.54
823.324	105.63
823.496	89.09
823.669	65.84
823.842	88.04
824.015	75.9
824.188	71.1
824.361	81.49
824.533	109.5
824.706	70.85
824.879	85.41
825.051	85.79
825.224	83.49
825.397	81.78
825.569	90.24
825.742	81.25
825.915	68
826.087	74.76
826.26	61.23
826.432	60.92
826.605	61.31
826.777	83.63
826.95	94.81
827.122	98.88
827.295	95.96
827.467	86.8
827.64	52.61
827.812	38.57
827.984	50.53
828.157	49.69
828.329	57.8
828.501	89.96
828.674	88.88
828.846	91.47
829.018	98.53
829.19	123.27
829.363	97.24
829.535	101.94
829.707	87.3
829.879	73.82
830.051	58.82
830.223	87.27
830.395	83.88
830.568	73.12
830.74	88.88
830.912	90.99
831.084	75.09
831.256	64
831.428	59.84
831.6	66.21
831.772	72.68
831.943	53.18
832.115	80.2
832.287	111.28
832.459	95
832.631	99.49
832.803	107.99
832.975	88.76
833.146	80.26
833.318	68.69
833.49	85.62
833.662	87.9
833.833	102.86
834.005	92.08
834.177	106.71
834.348	97.54
834.52	96.56
834.692	105.14
834.863	107.3
835.035	97.96
835.206	80.29
835.378	84.26
835.549	84.61
835.721	100.07
835.892	105
836.064	131.05
836.235	135.01
836.407	141.84
836.578	135.03
836.749	157.54
836.921	134.39
837.092	143.72
837.264	126.91
837.435	109.37
837.606	80.93
837.777	86.33
837.949	74.74
838.12	-1.54
838.291	22.8
838.462	56.04
838.633	49.93
838.805	52.65
838.976	117.88
839.147	126
839.318	132.79
839.489	110.91
839.66	145.44
839.831	114.75
840.002	96.45
840.173	93.71
840.344	109.56
840.515	95.01
840.686	124.8
840.857	96.38
841.028	104.15
841.199	107.78
841.369	102.11
841.54	83.51
841.711	128.18
841.882	87.96
842.053	75.02
842.223	71.5
842.394	96.95
842.565	68.54
842.736	101.49
842.906	90.29
843.077	100.57
843.248	92.72
843.418	102.47
843.589	99.83
843.759	131.88
843.93	129.27
844.101	303.51
844.271	113.39
844.442	124.06
844.612	146.7
844.783	161.68
844.953	124.7
845.123	160.14
845.294	111.2
845.464	110.04
845.635	103.91
845.805	150.18
845.975	97.95
846.146	170.64
846.316	238.22
846.486	148.57
846.656	159.55
846.827	225.86
846.997	175.2
847.167	168.24
847.337	121
847.507	114.07
847.677	92.26
847.848	109.69
848.018	95.81
848.188	173.11
848.358	130.12
848.528	170
848.698	157
848.868	140
849.038	85.55
849.208	146.55
849.378	128.91
849.548	107.08
849.718	845.38
849.887	-686.37
850.057	8864.52
850.227	-736.48
850.397	-1143.62
850.567	126.12
850.737	91.55
850.906	55.98
851.076	36.42
851.246	33.05
851.415	19.35
851.585	33.88
851.755	47.19
851.924	77.31
852.094	104.63
852.264	90.24
852.433	62.15
852.603	95.23
852.772	98.73
852.942	69.85
853.111	79.21
853.281	152.94
853.45	161.53
853.62	131.53
853.789	113.22
853.959	242.61
854.128	-9.03
854.297	47.25
854.467	170.16
854.636	124.61
854.805	84.7
854.975	49.76
855.144	25.03
855.313	77.25
855.482	130.53
855.652	101.03
855.821	123.1
855.99	183.91
856.159	462.37
856.328	130.07
856.497	234.87
856.667	187.9
856.836	175.7
857.005	149.86
857.174	144.86
857.343	150.92
857.512	114.3
857.681	73.19
857.85	55.25
858.019	51.65
858.188	20.76
858.356	29.6
858.525	43.7
858.694	84.76
858.863	109.38
859.032	134.49
859.201	109.13
859.369	135.17
859.538	88.52
859.707	57.58
859.876	66.96
860.044	61.36
860.213	80.55
860.382	102.17
860.55	102.22
860.719	138.9
860.888	162
861.056	179.9
861.225	183.31
861.393	255.25
861.562	289.95
861.73	244.2
861.899	188.26
862.067	268.07
862.236	198.11
862.404	65.68
862.572	48.38
862.741	-107.18
862.909	79.22
863.078	82.59
863.246	128.91
863.414	146.58
863.582	130.01
863.751	125.56
863.919	113.24
864.087	84.6
864.255	92.58
864.424	4.1
864.592	8.27
864.76	47.29
864.928	84.78
865.096	85.13
865.264	104.09
865.432	133.57
865.6	186.95
865.768	92.27
865.936	19.23
866.104	-176.67
866.272	7.21
866.44	-54.43
866.608	-70.92
866.776	36.47
866.944	55.45
867.112	87.75
867.28	36.07
867.448	93.84
867.615	59.54
867.783	69.83
867.951	14.14
868.119	65.88
868.286	147.7
868.454	112.79
868.622	163.51
868.789	576.33
868.957	-1145.7
869.125	-243.42
869.292	563.03
869.46	-133.66
869.627	-411.43
869.795	-27.89
869.963	8.1
870.13	38.84
870.298	56.13
870.465	70.07
870.632	68.72
870.8	111.76
870.967	133.47
871.135	59.11
871.302	15.14
871.469	168.44
871.637	67.77
871.804	21.6
871.971	13.26
872.139	53.51
872.306	53.18
872.473	343.72
872.64	-21.03
872.807	64.7
872.975	-28.18
873.142	-12.75
873.309	18.34
873.476	52.86
873.643	53.66
873.81	96.22
873.977	106.88
874.144	134.91
874.311	248.21
874.478	233.7
874.645	5.75
874.812	-22.75
874.979	-38.99
875.146	-34.87
875.313	-265.26
875.48	47.5
875.647	87.01
875.813	-288.61
875.98	324.46
876.147	64.48
876.314	74.62
876.481	33.83
876.647	33.39
876.814	103.95
876.981	109.42
877.147	18.45
877.314	48.5
877.481	119.91
877.647	-8.75
877.814	-106.63
877.98	-59.82
878.147	129.51
878.314	202.46
878.48	204.05
878.647	66.53
878.813	707.91
878.979	50.32
879.146	63.91
879.312	22.62
879.479	103.8
879.645	89.12
879.811	95.16
879.978	89.75
880.144	271.11
880.31	551.95
880.477	-201.34
880.643	-486.49
880.809	-3629.27
880.975	367.84
881.142	-146.04
881.308	105.81
881.474	205.63
881.64	125.25
881.806	78.22
881.972	110.96
882.138	126.04
882.304	84.48
882.47	52.67
882.636	81.33
882.802	74.02
882.968	19.97
883.134	51.26
883.3	72.28
883.466	65.81
883.632	78.48
883.798	136.34
883.964	147.88
884.129	141.74
884.295	238.45
884.461	-97.96
884.627	686.99
884.793	92.31
884.958	-48.06
885.124	-403.96
885.29	119.28
885.455	196.38
885.621	82.98
885.787	59.74
885.952	74.15
886.118	199.86
886.283	169.6
886.449	290.96
886.614	187.15
886.78	169
886.945	109.96
887.111	94.16
887.276	95.67
887.442	143.22
887.607	91.08
887.773	197.31
887.938	150.7
888.103	183.24
888.269	392.37
888.434	-8117.65
888.599	255.81
888.764	2912.62
888.93	182.95
889.095	123.9
889.26	139.8
889.425	149.77
889.59	147.38
889.756	186.99
889.921	118.37
890.086	83.56
890.251	53.48
890.416	-7.95
890.581	-49.22
890.746	24.89
890.911	149.2
891.076	354.88
891.241	109.68
891.406	24857.14
891.571	603.89
891.736	-130.31
891.901	-117.55
892.065	-121.2
892.23	-96.75
892.395	-8.9
892.56	1844.3
892.725	-262.67
892.889	-776.31
893.054	-2876.82
893.219	-3876.26
893.384	-545.3
893.548	-764.5
893.713	-352.07
893.878	-339.27
