Data from Ofav_SP_Phys_9AZ81_Reflection_1.txt Node
Date: Thu Aug 05 17:50:34 EDT 2021
User: Adam
Spectrometer: FLMT01687
Trigger mode: 0
Integration Time (sec): 8.000000E-1
Scans to average: 2
Electric dark correction enabled: true
Nonlinearity correction enabled: false
Boxcar width: 2
XAxis mode: Wavelengths
Number of Pixels in Spectrum: 3648
>>>>>Begin Spectral Data<<<<<
179.494	552.08
179.716	644.68
179.937	523.01
180.158	634.5
180.38	1643.48
180.601	-926.42
180.823	-115.97
181.044	-75.75
181.265	-29.31
181.486	-9.62
181.708	-712.75
181.929	-49.52
182.15	-320.82
182.372	-38.75
182.593	-40.66
182.814	-337.43
183.035	-212.76
183.257	-365.12
183.478	266.44
183.699	-67.48
183.92	37.6
184.141	-686.1
184.363	723.24
184.584	29.67
184.805	94.19
185.026	93.18
185.247	108.64
185.468	113.71
185.689	113.09
185.91	73.38
186.132	37.07
186.353	12.58
186.574	-64.75
186.795	-101.23
187.016	-99.34
187.237	-47.35
187.458	-212.9
187.679	-1.28
187.9	65.49
188.121	162.53
188.342	140.43
188.563	108.45
188.784	155.62
189.005	131.16
189.226	81.26
189.447	98.67
189.667	211.79
189.888	503.88
190.109	299.82
190.33	240.04
190.551	183.14
190.772	168.73
190.993	105.34
191.214	93.61
191.434	78.98
191.655	64.55
191.876	62.93
192.097	42.13
192.318	30.06
192.538	3.4
192.759	60.42
192.98	36.32
193.201	63.39
193.421	92.67
193.642	81.92
193.863	47.85
194.083	75.17
194.304	93.18
194.525	99.12
194.745	72.53
194.966	80.84
195.187	78.31
195.407	52.46
195.628	34.03
195.848	65.01
196.069	54.78
196.29	42.28
196.51	63.31
196.731	52.7
196.951	71.65
197.172	88.22
197.392	98.66
197.613	88.56
197.833	124.39
198.054	74.44
198.274	30.27
198.495	42.33
198.715	58.84
198.936	45.09
199.156	92.03
199.377	92.22
199.597	66.92
199.817	71.29
200.038	55.75
200.258	55.03
200.479	48.14
200.699	58.16
200.919	43.84
201.14	29.82
201.36	8.65
201.58	58.46
201.801	-44.45
202.021	-7.72
202.241	40.03
202.461	57.15
202.682	17.12
202.902	109.49
203.122	224.53
203.342	311.26
203.563	151.89
203.783	131.58
204.003	107.59
204.223	80.84
204.443	36.65
204.663	39.73
204.884	60.39
205.104	40.11
205.324	53.54
205.544	60.76
205.764	36.96
205.984	20.92
206.204	37.56
206.424	23.34
206.644	27.27
206.864	58.63
207.084	47.77
207.304	56.06
207.525	69.74
207.745	117.57
207.964	105.26
208.184	115.69
208.404	63.76
208.624	48.78
208.844	-26.94
209.064	34.66
209.284	10.27
209.504	18.96
209.724	40.08
209.944	9.89
210.164	-30.77
210.384	31.9
210.604	25.09
210.823	22.95
211.043	44.79
211.263	54.04
211.483	32.31
211.703	55.12
211.922	53.77
212.142	77.79
212.362	47.33
212.582	71.55
212.801	47.78
213.021	64.19
213.241	30.48
213.461	8.8
213.68	5.23
213.9	-8.94
214.12	-22.28
214.339	2.05
214.559	54.05
214.779	59.07
214.998	125.23
215.218	93.45
215.438	136.62
215.657	207.06
215.877	224
216.096	124.87
216.316	148.52
216.535	99.95
216.755	18.89
216.974	105.55
217.194	140.2
217.413	90.18
217.633	82.43
217.852	73.02
218.072	69.11
218.291	49.93
218.511	47.56
218.73	19.27
218.95	18.05
219.169	-13.43
219.389	48.02
219.608	23.39
219.827	73.73
220.047	88.09
220.266	85.59
220.485	85.76
220.705	99.7
220.924	73.36
221.143	53.33
221.363	59.47
221.582	66.71
221.801	76.32
222.021	117.5
222.24	119.25
222.459	176.16
222.678	125.45
222.897	137.36
223.117	126.94
223.336	153.06
223.555	127.01
223.774	68.46
223.993	31.66
224.213	20.33
224.432	-0.53
224.651	20.55
224.87	69.01
225.089	71.3
225.308	76.06
225.527	67.82
225.746	40.74
225.965	10.97
226.184	3.13
226.404	5.61
226.623	-28.36
226.842	-7.15
227.061	25.25
227.28	42.94
227.499	61.58
227.718	70.85
227.936	82.27
228.155	65.19
228.374	52.19
228.593	47.4
228.812	66.96
229.031	60.36
229.25	72.39
229.469	80.8
229.688	76.21
229.907	38.29
230.125	32.64
230.344	38.25
230.563	27.09
230.782	32.66
231.001	94.77
231.22	91.9
231.438	66.7
231.657	44.84
231.876	17.11
232.095	19.52
232.313	23.71
232.532	25.47
232.751	31.48
232.969	48.74
233.188	50.41
233.407	29.32
233.625	46.84
233.844	54.99
234.063	75.02
234.281	75.44
234.5	56.83
234.719	95.45
234.937	34.7
235.156	25.98
235.374	38.78
235.593	57.99
235.811	18.37
236.03	68.64
236.249	69.98
236.467	86.18
236.686	84.82
236.904	96.2
237.123	45.96
237.341	42.91
237.559	17.13
237.778	37.87
237.996	42.08
238.215	72.7
238.433	70.07
238.652	65.47
238.87	38.82
239.088	7.34
239.307	-6.39
239.525	-16.24
239.743	-20.4
239.962	9.11
240.18	31.68
240.398	24.75
240.617	7.54
240.835	49.16
241.053	30.57
241.271	40.07
241.49	76
241.708	91.18
241.926	52.44
242.144	60.5
242.363	118.56
242.581	101.03
242.799	98.27
243.017	79.81
243.235	75.44
243.453	26.34
243.672	19.39
243.89	33.56
244.108	104.01
244.326	72.29
244.544	75.03
244.762	61.68
244.98	77.41
245.198	64.5
245.416	57.26
245.634	86.34
245.852	85.11
246.07	61.28
246.288	42.15
246.506	36.94
246.724	14.28
246.942	1.55
247.16	-5.54
247.378	-21.16
247.596	6.71
247.814	4.69
248.032	8.49
248.25	-10.23
248.468	12.64
248.685	26.24
248.903	48.05
249.121	36.57
249.339	63.47
249.557	65.64
249.775	62.2
249.992	20.45
250.21	50.46
250.428	31.9
250.646	29.81
250.863	44.54
251.081	60.96
251.299	50.2
251.517	70.27
251.734	59.47
251.952	36.77
252.17	53.92
252.387	57.34
252.605	44.42
252.823	63.36
253.04	57.69
253.258	61.48
253.475	74.22
253.693	82.53
253.911	81.55
254.128	97.04
254.346	91.83
254.563	78.42
254.781	64.11
254.998	60.16
255.216	44.83
255.433	13.71
255.651	-21.06
255.868	-37.82
256.086	-42.51
256.303	-46.74
256.521	-34.39
256.738	-35.19
256.956	-6.02
257.173	43.96
257.39	122.05
257.608	79.95
257.825	58.3
258.043	53.61
258.26	37.56
258.477	20.52
258.695	37.74
258.912	55.14
259.129	66.91
259.346	75.9
259.564	57.1
259.781	72.3
259.998	65.73
260.216	63.15
260.433	65.64
260.65	97.41
260.867	87.84
261.084	110.83
261.302	104.28
261.519	106.74
261.736	96.68
261.953	80.14
262.17	74.23
262.387	112.86
262.604	96.9
262.822	103.04
263.039	130.1
263.256	130.43
263.473	68.3
263.69	76.33
263.907	62.72
264.124	57.23
264.341	43.04
264.558	43.35
264.775	48.7
264.992	58.35
265.209	47.54
265.426	60.41
265.643	48.75
265.86	35.27
266.077	30.12
266.294	25.53
266.51	14.14
266.727	30.69
266.944	61.82
267.161	54.87
267.378	41
267.595	32.61
267.812	9.15
268.028	-2.91
268.245	8.04
268.462	21.08
268.679	43.16
268.896	54.87
269.112	47.92
269.329	98.91
269.546	83.08
269.763	88.97
269.979	104.22
270.196	130.01
270.413	104.6
270.629	119.83
270.846	105.22
271.063	89.54
271.279	51.45
271.496	30.7
271.712	-16.53
271.929	-55.7
272.146	-7.04
272.362	-3.51
272.579	-17.86
272.795	-8.71
273.012	25.33
273.228	7.09
273.445	21.96
273.661	43.91
273.878	55.98
274.094	33.16
274.311	27.27
274.527	26.31
274.744	20.06
274.96	12.75
275.177	17.3
275.393	20.48
275.609	38.81
275.826	42.73
276.042	56.36
276.259	81.5
276.475	67.81
276.691	39.52
276.908	43.69
277.124	44.03
277.34	35.04
277.557	7.82
277.773	8.22
277.989	-1.05
278.205	0.93
278.422	9.91
278.638	57.38
278.854	64.7
279.07	58.97
279.286	34.76
279.503	26.75
279.719	-4.33
279.935	6.13
280.151	22.77
280.367	49.67
280.583	62.03
280.799	86.04
281.016	84.87
281.232	70.65
281.448	47.17
281.664	34.84
281.88	48.92
282.096	64.35
282.312	86.77
282.528	97.67
282.744	80.45
282.96	53.17
283.176	49.46
283.392	49.59
283.608	44.7
283.824	45.5
284.04	63.64
284.256	57.98
284.471	52.1
284.687	85.71
284.903	86.12
285.119	84
285.335	74.05
285.551	67.75
285.767	25.07
285.982	16.69
286.198	-32.56
286.414	-35.52
286.63	9.98
286.846	47.06
287.061	37.79
287.277	41.3
287.493	87.22
287.709	70.76
287.924	64.21
288.14	88.53
288.356	96.47
288.571	88.24
288.787	89.6
289.003	115.12
289.218	78.81
289.434	54.25
289.65	26.7
289.865	24.52
290.081	36.87
290.296	31.49
290.512	28.38
290.727	44.86
290.943	45.98
291.159	31.78
291.374	47.49
291.59	43.57
291.805	43.35
292.021	64.49
292.236	94.95
292.451	90.56
292.667	104.47
292.882	42.9
293.098	18.06
293.313	9.38
293.529	30.03
293.744	47.73
293.959	48.6
294.175	68.17
294.39	56.1
294.605	41.94
294.821	29.92
295.036	29.35
295.251	23.47
295.467	39.65
295.682	39.61
295.897	47.59
296.112	56.14
296.328	60.76
296.543	57.64
296.758	38.22
296.973	35.83
297.188	59.85
297.404	55.62
297.619	61.89
297.834	63.43
298.049	59.35
298.264	33.95
298.479	32.32
298.694	38.58
298.909	51.05
299.125	69.04
299.34	62.48
299.555	56.94
299.77	59.01
299.985	75.24
300.2	59.52
300.415	70.06
300.63	55.24
300.845	45.92
301.06	51.55
301.275	42.75
301.49	43.42
301.704	62.05
301.919	47.37
302.134	40.18
302.349	39.6
302.564	28.32
302.779	34.14
302.994	45.55
303.209	51.2
303.423	41.93
303.638	43.84
303.853	30.98
304.068	27.67
304.283	30.54
304.497	17.09
304.712	1.96
304.927	-2.95
305.142	-1.78
305.356	-28.78
305.571	17.91
305.786	44.35
306	57.27
306.215	71
306.43	97.68
306.644	81.96
306.859	76.69
307.074	88.38
307.288	85.31
307.503	78.84
307.717	91.44
307.932	62.42
308.147	56.15
308.361	40.38
308.576	3.94
308.79	1.62
309.005	30.38
309.219	11.55
309.434	-2.26
309.648	8.45
309.863	16.75
310.077	-25.93
310.292	-9.62
310.506	11.61
310.72	51.85
310.935	20.49
311.149	30.01
311.364	24.84
311.578	22.73
311.792	14.16
312.007	50.38
312.221	37.63
312.435	67
312.649	84.22
312.864	71.98
313.078	55.35
313.292	86.68
313.507	86.74
313.721	82.19
313.935	66.49
314.149	67.78
314.363	44.18
314.578	42.34
314.792	28.35
315.006	52.52
315.22	49.81
315.434	12.45
315.648	-40.86
315.862	-43.6
316.077	-61.37
316.291	-87.14
316.505	4.36
316.719	40.26
316.933	45.7
317.147	50.67
317.361	59.27
317.575	38.36
317.789	33.11
318.003	34.08
318.217	74.74
318.431	95.25
318.645	113.34
318.859	110.04
319.073	83.45
319.287	81.97
319.5	64.08
319.714	42.75
319.928	61.47
320.142	74.34
320.356	53.09
320.57	59.63
320.784	60.23
320.997	55.86
321.211	52.05
321.425	42.09
321.639	-11.78
321.853	6.56
322.066	4.22
322.28	-7.39
322.494	-12.53
322.707	4.54
322.921	12.82
323.135	17.27
323.349	35.32
323.562	50.7
323.776	70.36
323.989	51.76
324.203	50.14
324.417	55.63
324.63	52.2
324.844	33.2
325.057	43.89
325.271	34.57
325.485	28.4
325.698	16.29
325.912	35.22
326.125	30.22
326.339	47.02
326.552	44.47
326.766	61.83
326.979	73.62
327.193	93.7
327.406	89.63
327.619	109.93
327.833	78.17
328.046	81.53
328.26	79.02
328.473	36.85
328.686	16.12
328.9	44.05
329.113	36.13
329.326	29.57
329.54	51.75
329.753	78.54
329.966	81.47
330.179	78.2
330.393	104.87
330.606	107.34
330.819	120.15
331.032	150.3
331.246	159.17
331.459	118.14
331.672	109.96
331.885	89.25
332.098	81.82
332.311	80.54
332.525	74.36
332.738	56.03
332.951	38.26
333.164	33.39
333.377	29.21
333.59	21.81
333.803	15.87
334.016	1.83
334.229	-9.68
334.442	13.46
334.655	45.64
334.868	52.96
335.081	56.07
335.294	61.9
335.507	45.51
335.72	45.71
335.933	49.35
336.146	41.62
336.359	28.8
336.572	11
336.785	-6.62
336.997	-16.02
337.21	5.69
337.423	39.35
337.636	47.86
337.849	56.26
338.062	63.53
338.274	25.17
338.487	16.19
338.7	25.8
338.913	32.02
339.125	51.76
339.338	50.13
339.551	54.33
339.763	68.61
339.976	71
340.189	53.74
340.402	49.51
340.614	50.03
340.827	58.03
341.039	36.37
341.252	32.61
341.465	40.07
341.677	47.87
341.89	10.82
342.102	37.16
342.315	31.24
342.527	42.91
342.74	22.69
342.952	46.4
343.165	46.97
343.377	98.3
343.59	62.35
343.802	70.44
344.015	58.81
344.227	51.62
344.44	30.16
344.652	48.35
344.864	58.69
345.077	69.9
345.289	51.37
345.502	46.21
345.714	37.71
345.926	31.51
346.139	14.52
346.351	24.61
346.563	22.13
346.775	23.6
346.988	-5.38
347.2	19.07
347.412	33.44
347.624	42.25
347.837	55.37
348.049	56.5
348.261	46.28
348.473	40.96
348.685	59.56
348.897	86.24
349.11	94.79
349.322	77.22
349.534	79.63
349.746	54.62
349.958	31.06
350.17	31.75
350.382	46.53
350.594	63.51
350.806	68.08
351.018	72.01
351.23	69.61
351.442	77.38
351.654	60.26
351.866	58.7
352.078	43.12
352.29	36.91
352.502	41.61
352.714	26.64
352.926	42.78
353.138	53.89
353.35	57.83
353.561	42.81
353.773	35.68
353.985	17.32
354.197	17.54
354.409	14.33
354.621	23.92
354.832	53.19
355.044	69.58
355.256	76.61
355.468	88.79
355.679	79.38
355.891	89.65
356.103	76.07
356.314	82.56
356.526	75.68
356.738	74.92
356.949	49.12
357.161	46.18
357.373	40.49
357.584	50.81
357.796	64.18
358.008	57.63
358.219	61.69
358.431	83.62
358.642	67.95
358.854	57.12
359.065	80.01
359.277	69.59
359.488	53.61
359.7	55.55
359.911	46.66
360.123	39.44
360.334	43.65
360.546	31.78
360.757	30.46
360.969	33.91
361.18	27.04
361.391	29.81
361.603	55.28
361.814	46.33
362.025	74.21
362.237	67.63
362.448	72.43
362.659	63.01
362.871	50.18
363.082	33.38
363.293	33.58
363.504	28.3
363.716	38
363.927	64.72
364.138	58.65
364.349	33.91
364.56	24.26
364.772	28.11
364.983	4.43
365.194	12.14
365.405	21.33
365.616	29.77
365.827	30.3
366.038	43.56
366.25	50.36
366.461	47.71
366.672	48.19
366.883	45.18
367.094	37.43
367.305	33.38
367.516	34.8
367.727	38.02
367.938	30.33
368.149	23.89
368.36	22.19
368.571	16.59
368.781	5.15
368.992	1.47
369.203	15.94
369.414	13.95
369.625	11.39
369.836	10.61
370.047	14.41
370.258	23.79
370.468	26.36
370.679	23.48
370.89	18.65
371.101	11.75
371.312	2.5
371.522	12.62
371.733	31.63
371.944	46.49
372.155	68.06
372.365	52.76
372.576	52.5
372.787	39.03
372.997	42.74
373.208	29.76
373.419	51.66
373.629	30.32
373.84	42.6
374.05	29.75
374.261	38.45
374.472	30.39
374.682	26.9
374.893	25.92
375.103	23.49
375.314	26.4
375.524	20.03
375.735	37.55
375.945	58.65
376.156	57.94
376.366	47.53
376.577	49.8
376.787	46.82
376.997	32.63
377.208	45.9
377.418	55.15
377.629	61.24
377.839	69.52
378.049	64.95
378.26	47.07
378.47	40.76
378.68	53.78
378.89	33.05
379.101	33.25
379.311	48.47
379.521	53.75
379.732	34.89
379.942	49.01
380.152	43.31
380.362	45.04
380.572	48.51
380.783	39.59
380.993	39.51
381.203	41.83
381.413	32.95
381.623	34.12
381.833	45.42
382.043	43.95
382.253	42.45
382.463	51.26
382.674	45.09
382.884	35.34
383.094	29.86
383.304	27.14
383.514	18.94
383.724	12.5
383.934	20.05
384.144	17.53
384.353	19.97
384.563	16.88
384.773	20.13
384.983	19.29
385.193	22.79
385.403	19.34
385.613	28.71
385.823	35.07
386.033	25.36
386.242	25.39
386.452	30.19
386.662	23.55
386.872	16.31
387.082	20.34
387.291	6.85
387.501	7.34
387.711	6.03
387.921	8.11
388.13	5.27
388.34	13.16
388.55	12.21
388.759	10.34
388.969	9.84
389.179	9.1
389.388	12.42
389.598	9.87
389.807	13.88
390.017	13.69
390.227	14.27
390.436	9.81
390.646	8.67
390.855	6.35
391.065	5.23
391.274	5.73
391.484	8.72
391.693	8.66
391.903	7.36
392.112	9.93
392.322	8.64
392.531	7.35
392.74	6.8
392.95	5.68
393.159	3.27
393.369	4.12
393.578	4.48
393.787	5.14
393.997	6.75
394.206	7.73
394.415	7.74
394.625	8.48
394.834	7.66
395.043	5.85
395.252	5.56
395.462	5.03
395.671	4.16
395.88	5.54
396.089	6.04
396.298	6.71
396.508	7.23
396.717	6.82
396.926	5.66
397.135	5.39
397.344	4.08
397.553	4.21
397.762	4.19
397.971	4.39
398.181	4.44
398.39	4.73
398.599	4.44
398.808	4.45
399.017	4.4
399.226	4.34
399.435	4.14
399.644	4.21
399.853	4.66
400.062	4.54
400.27	4.73
400.479	4.62
400.688	4.28
400.897	3.96
401.106	3.89
401.315	3.6
401.524	3.52
401.733	3.56
401.941	3.49
402.15	3.33
402.359	3.33
402.568	3.6
402.777	3.85
402.985	3.77
403.194	3.89
403.403	4.09
403.612	3.9
403.82	3.75
404.029	3.65
404.238	3.69
404.446	3.54
404.655	3.61
404.864	3.43
405.072	3.45
405.281	3.32
405.489	3.39
405.698	3.49
405.906	3.58
406.115	3.47
406.324	3.6
406.532	3.48
406.741	3.44
406.949	3.08
407.158	3.15
407.366	3.19
407.574	3.28
407.783	3.15
407.991	3.33
408.2	3.18
408.408	3.06
408.617	3.01
408.825	3.03
409.033	2.97
409.242	2.97
409.45	2.79
409.658	2.71
409.867	2.69
410.075	2.79
410.283	2.99
410.491	3.14
410.7	3.3
410.908	3.31
411.116	3.4
411.324	3.34
411.533	3.24
411.741	3.01
411.949	2.94
412.157	2.87
412.365	2.89
412.573	2.9
412.781	3
412.99	3.12
413.198	3.18
413.406	3.19
413.614	3.33
413.822	3.37
414.03	3.43
414.238	3.33
414.446	3.41
414.654	3.3
414.862	3.12
415.07	2.99
415.278	3.06
415.486	2.88
415.694	2.97
415.902	3.02
416.109	2.97
416.317	2.84
416.525	2.85
416.733	2.75
416.941	2.94
417.149	3.07
417.357	3.11
417.564	3.05
417.772	2.94
417.98	2.75
418.188	2.73
418.395	2.66
418.603	2.79
418.811	2.85
419.019	2.93
419.226	2.98
419.434	3.15
419.642	3.11
419.849	3.16
420.057	3.08
420.265	3.02
420.472	2.85
420.68	2.78
420.887	2.84
421.095	2.88
421.302	2.75
421.51	2.79
421.717	2.91
421.925	2.8
422.132	2.86
422.34	2.85
422.547	2.93
422.755	2.89
422.962	3.04
423.17	3.05
423.377	2.98
423.585	2.99
423.792	2.91
423.999	2.81
424.207	2.59
424.414	2.46
424.621	2.61
424.829	2.63
425.036	2.76
425.243	2.97
425.451	3.29
425.658	3.07
425.865	3.15
426.072	2.93
426.28	2.76
426.487	2.53
426.694	2.54
426.901	2.56
427.108	2.68
427.315	2.88
427.523	2.98
427.73	2.94
427.937	2.73
428.144	2.77
428.351	2.83
428.558	2.77
428.765	2.65
428.972	2.75
429.179	2.7
429.386	2.54
429.593	2.69
429.8	2.76
430.007	2.77
430.214	2.63
430.421	2.7
430.628	2.5
430.835	2.63
431.042	2.63
431.249	2.84
431.456	2.81
431.662	3.13
431.869	3.14
432.076	3.06
432.283	2.95
432.49	2.96
432.697	2.82
432.903	2.52
433.11	2.49
433.317	2.41
433.524	2.42
433.73	2.45
433.937	2.53
434.144	2.69
434.35	2.71
434.557	2.68
434.764	2.5
434.97	2.65
435.177	2.78
435.384	2.67
435.59	2.64
435.797	2.83
436.003	2.76
436.21	2.44
436.416	2.49
436.623	2.48
436.829	2.44
437.036	2.31
437.242	2.4
437.449	2.56
437.655	2.67
437.862	2.72
438.068	2.98
438.275	3.04
438.481	3.04
438.687	2.9
438.894	2.93
439.1	2.74
439.307	2.65
439.513	2.57
439.719	2.63
439.926	2.54
440.132	2.65
440.338	2.79
440.544	2.82
440.751	2.92
440.957	2.91
441.163	2.78
441.369	2.82
441.575	2.74
441.782	2.78
441.988	2.72
442.194	2.7
442.4	2.66
442.606	2.72
442.812	2.57
443.018	2.54
443.224	2.61
443.431	2.54
443.637	2.43
443.843	2.45
444.049	2.38
444.255	2.41
444.461	2.36
444.667	2.42
444.873	2.4
445.079	2.49
445.284	2.54
445.49	2.62
445.696	2.63
445.902	2.63
446.108	2.61
446.314	2.42
446.52	2.35
446.726	2.37
446.931	2.39
447.137	2.37
447.343	2.43
447.549	2.44
447.755	2.55
447.96	2.59
448.166	2.68
448.372	2.7
448.578	2.73
448.783	2.74
448.989	2.61
449.195	2.61
449.4	2.62
449.606	2.69
449.812	2.66
450.017	2.77
450.223	2.73
450.428	2.76
450.634	2.72
450.84	2.62
451.045	2.58
451.251	2.67
451.456	2.65
451.662	2.67
451.867	2.74
452.073	2.78
452.278	2.67
452.483	2.6
452.689	2.6
452.894	2.53
453.1	2.54
453.305	2.58
453.51	2.73
453.716	2.72
453.921	2.8
454.127	2.85
454.332	2.79
454.537	2.75
454.742	2.69
454.948	2.63
455.153	2.5
455.358	2.56
455.563	2.58
455.769	2.49
455.974	2.49
456.179	2.44
456.384	2.27
456.589	2.16
456.795	2.25
457	2.23
457.205	2.28
457.41	2.43
457.615	2.53
457.82	2.53
458.025	2.52
458.23	2.47
458.435	2.43
458.64	2.26
458.845	2.35
459.05	2.31
459.255	2.31
459.46	2.38
459.665	2.55
459.87	2.48
460.075	2.54
460.28	2.7
460.485	2.65
460.69	2.59
460.895	2.4
461.099	2.43
461.304	2.37
461.509	2.41
461.714	2.48
461.919	2.7
462.123	2.63
462.328	2.65
462.533	2.58
462.738	2.62
462.942	2.56
463.147	2.64
463.352	2.63
463.556	2.7
463.761	2.62
463.966	2.64
464.17	2.7
464.375	2.76
464.58	2.7
464.784	2.75
464.989	2.73
465.193	2.53
465.398	2.53
465.602	2.76
465.807	2.8
466.011	2.9
466.216	2.99
466.42	2.92
466.625	2.86
466.829	2.84
467.034	2.78
467.238	2.82
467.443	2.85
467.647	2.69
467.851	2.7
468.056	2.65
468.26	2.66
468.464	2.59
468.669	2.74
468.873	2.73
469.077	2.74
469.282	2.82
469.486	2.72
469.69	2.54
469.894	2.46
470.099	2.5
470.303	2.41
470.507	2.55
470.711	2.65
470.915	2.67
471.119	2.69
471.324	2.67
471.528	2.49
471.732	2.52
471.936	2.51
472.14	2.48
472.344	2.52
472.548	2.72
472.752	2.62
472.956	2.59
473.16	2.69
473.364	2.62
473.568	2.59
473.772	2.7
473.976	2.74
474.18	2.6
474.384	2.72
474.588	2.73
474.792	2.67
474.995	2.69
475.199	2.68
475.403	2.57
475.607	2.56
475.811	2.55
476.015	2.5
476.218	2.57
476.422	2.57
476.626	2.6
476.83	2.63
477.033	2.72
477.237	2.78
477.441	2.84
477.644	2.75
477.848	2.75
478.052	2.57
478.255	2.47
478.459	2.46
478.663	2.49
478.866	2.41
479.07	2.57
479.273	2.61
479.477	2.64
479.681	2.68
479.884	2.75
480.088	2.6
480.291	2.64
480.495	2.59
480.698	2.59
480.901	2.6
481.105	2.79
481.308	2.72
481.512	2.71
481.715	2.76
481.919	2.79
482.122	2.75
482.325	2.78
482.529	2.76
482.732	2.74
482.935	2.67
483.138	2.78
483.342	2.73
483.545	2.74
483.748	2.7
483.952	2.75
484.155	2.62
484.358	2.59
484.561	2.63
484.764	2.62
484.967	2.64
485.171	2.61
485.374	2.67
485.577	2.66
485.78	2.65
485.983	2.66
486.186	2.73
486.389	2.74
486.592	2.7
486.795	2.72
486.998	2.65
487.201	2.64
487.404	2.66
487.607	2.73
487.81	2.67
488.013	2.66
488.216	2.61
488.419	2.57
488.622	2.49
488.825	2.51
489.028	2.48
489.231	2.48
489.433	2.45
489.636	2.46
489.839	2.46
490.042	2.55
490.245	2.57
490.447	2.65
490.65	2.65
490.853	2.74
491.056	2.67
491.258	2.7
491.461	2.7
491.664	2.66
491.866	2.64
492.069	2.72
492.272	2.6
492.474	2.55
492.677	2.52
492.879	2.42
493.082	2.42
493.285	2.44
493.487	2.38
493.69	2.43
493.892	2.48
494.095	2.57
494.297	2.64
494.5	2.76
494.702	2.76
494.905	2.75
495.107	2.6
495.309	2.56
495.512	2.42
495.714	2.47
495.917	2.52
496.119	2.59
496.321	2.6
496.524	2.67
496.726	2.69
496.928	2.66
497.13	2.63
497.333	2.62
497.535	2.76
497.737	2.75
497.939	2.77
498.142	2.78
498.344	2.79
498.546	2.73
498.748	2.67
498.95	2.68
499.152	2.63
499.355	2.67
499.557	2.65
499.759	2.75
499.961	2.77
500.163	2.84
500.365	2.95
500.567	2.88
500.769	2.88
500.971	2.85
501.173	2.82
501.375	2.67
501.577	2.73
501.779	2.7
501.981	2.74
502.183	2.81
502.385	2.8
502.587	2.81
502.788	2.77
502.99	2.76
503.192	2.74
503.394	2.74
503.596	2.69
503.798	2.72
503.999	2.72
504.201	2.65
504.403	2.71
504.605	2.76
504.806	2.75
505.008	2.81
505.21	2.83
505.411	2.78
505.613	2.72
505.815	2.73
506.016	2.62
506.218	2.56
506.42	2.59
506.621	2.65
506.823	2.65
507.024	2.64
507.226	2.77
507.427	2.8
507.629	2.77
507.83	2.75
508.032	2.79
508.233	2.72
508.435	2.67
508.636	2.69
508.838	2.71
509.039	2.67
509.24	2.69
509.442	2.75
509.643	2.77
509.845	2.8
510.046	2.87
510.247	2.93
510.448	2.92
510.65	2.91
510.851	2.89
511.052	2.91
511.254	2.85
511.455	2.83
511.656	2.77
511.857	2.78
512.058	2.76
512.26	2.75
512.461	2.72
512.662	2.77
512.863	2.71
513.064	2.72
513.265	2.73
513.466	2.76
513.667	2.82
513.868	2.9
514.069	2.9
514.27	2.88
514.471	2.79
514.672	2.7
514.873	2.59
515.074	2.53
515.275	2.55
515.476	2.62
515.677	2.63
515.878	2.68
516.079	2.75
516.28	2.69
516.481	2.66
516.682	2.68
516.882	2.73
517.083	2.73
517.284	2.75
517.485	2.78
517.686	2.79
517.886	2.74
518.087	2.62
518.288	2.67
518.488	2.64
518.689	2.62
518.89	2.64
519.091	2.7
519.291	2.67
519.492	2.69
519.692	2.76
519.893	2.75
520.094	2.7
520.294	2.66
520.495	2.68
520.695	2.65
520.896	2.71
521.096	2.73
521.297	2.82
521.497	2.84
521.698	2.79
521.898	2.73
522.099	2.72
522.299	2.7
522.499	2.71
522.7	2.71
522.9	2.77
523.101	2.85
523.301	2.82
523.501	2.82
523.702	2.88
523.902	2.88
524.102	2.88
524.302	2.87
524.503	2.81
524.703	2.76
524.903	2.76
525.103	2.8
525.304	2.77
525.504	2.86
525.704	2.87
525.904	2.87
526.104	2.82
526.304	2.9
526.504	2.89
526.705	2.91
526.905	2.92
527.105	2.96
527.305	2.95
527.505	2.96
527.705	2.96
527.905	2.93
528.105	2.86
528.305	2.8
528.505	2.77
528.705	2.81
528.905	2.74
529.105	2.77
529.304	2.82
529.504	2.85
529.704	2.82
529.904	2.93
530.104	2.97
530.304	2.94
530.503	2.89
530.703	2.86
530.903	2.83
531.103	2.83
531.303	2.89
531.502	2.93
531.702	2.9
531.902	2.93
532.101	2.91
532.301	2.88
532.501	2.91
532.7	3.01
532.9	3
533.1	3.01
533.299	3
533.499	3.01
533.698	2.94
533.898	2.94
534.097	2.97
534.297	2.97
534.496	2.94
534.696	2.98
534.895	3.05
535.095	3.01
535.294	3.06
535.494	3.06
535.693	2.99
535.892	2.94
536.092	2.99
536.291	2.91
536.491	2.94
536.69	3.02
536.889	3.02
537.088	2.97
537.288	3.01
537.487	3
537.686	2.99
537.886	3.01
538.085	3.08
538.284	3.11
538.483	3.11
538.682	3.21
538.882	3.23
539.081	3.21
539.28	3.23
539.479	3.22
539.678	3.17
539.877	3.13
540.076	3.13
540.275	3.13
540.474	3.13
540.673	3.17
540.872	3.17
541.071	3.19
541.27	3.19
541.469	3.17
541.668	3.14
541.867	3.21
542.066	3.23
542.265	3.31
542.464	3.36
542.663	3.41
542.862	3.48
543.06	3.48
543.259	3.45
543.458	3.53
543.657	3.58
543.856	3.58
544.054	3.63
544.253	3.64
544.452	3.59
544.651	3.53
544.849	3.47
545.048	3.44
545.247	3.46
545.445	3.5
545.644	3.46
545.843	3.53
546.041	3.51
546.24	3.55
546.438	3.6
546.637	3.68
546.836	3.69
547.034	3.79
547.233	3.77
547.431	3.79
547.63	3.83
547.828	3.89
548.027	3.88
548.225	3.88
548.423	3.92
548.622	3.91
548.82	3.85
549.019	3.88
549.217	3.88
549.415	3.86
549.614	3.91
549.812	3.92
550.01	3.99
550.209	4.06
550.407	4.12
550.605	4.1
550.803	4.19
551.002	4.17
551.2	4.16
551.398	4.21
551.596	4.3
551.794	4.36
551.993	4.39
552.191	4.46
552.389	4.42
552.587	4.39
552.785	4.38
552.983	4.49
553.181	4.53
553.379	4.62
553.577	4.76
553.775	4.78
553.973	4.79
554.171	4.78
554.369	4.77
554.567	4.77
554.765	4.83
554.963	4.85
555.161	4.87
555.359	4.95
555.557	4.92
555.755	4.91
555.952	5.01
556.15	5.08
556.348	5.11
556.546	5.21
556.744	5.29
556.941	5.24
557.139	5.26
557.337	5.29
557.535	5.3
557.732	5.32
557.93	5.43
558.128	5.52
558.325	5.54
558.523	5.63
558.721	5.61
558.918	5.58
559.116	5.57
559.313	5.59
559.511	5.64
559.708	5.83
559.906	5.88
560.104	5.91
560.301	6.05
560.498	6.04
560.696	5.99
560.893	6.03
561.091	6.1
561.288	6.09
561.486	6.16
561.683	6.17
561.88	6.19
562.078	6.2
562.275	6.18
562.473	6.17
562.67	6.28
562.867	6.33
563.064	6.38
563.262	6.43
563.459	6.6
563.656	6.57
563.853	6.6
564.051	6.61
564.248	6.65
564.445	6.61
564.642	6.63
564.839	6.73
565.036	6.87
565.234	6.87
565.431	6.95
565.628	7.02
565.825	7.02
566.022	7.07
566.219	7.15
566.416	7.06
566.613	7.08
566.81	7.16
567.007	7.12
567.204	7.18
567.401	7.26
567.598	7.29
567.795	7.28
567.991	7.33
568.188	7.37
568.385	7.4
568.582	7.47
568.779	7.45
568.976	7.53
569.172	7.51
569.369	7.59
569.566	7.67
569.763	7.7
569.96	7.68
570.156	7.72
570.353	7.74
570.55	7.75
570.746	7.81
570.943	7.81
571.14	7.88
571.336	7.92
571.533	7.91
571.729	7.88
571.926	7.97
572.123	8.03
572.319	8.08
572.516	8.08
572.712	8.29
572.909	8.29
573.105	8.34
573.302	8.29
573.498	8.31
573.695	8.13
573.891	8.12
574.087	8.05
574.284	8.07
574.48	8.05
574.677	8.15
574.873	8.23
575.069	8.31
575.266	8.32
575.462	8.37
575.658	8.35
575.854	8.44
576.051	8.34
576.247	8.37
576.443	8.44
576.639	8.53
576.835	8.37
577.032	8.4
577.228	8.42
577.424	8.39
577.62	8.33
577.816	8.36
578.012	8.49
578.208	8.41
578.404	8.44
578.6	8.47
578.796	8.54
578.993	8.49
579.189	8.54
579.384	8.55
579.58	8.58
579.776	8.55
579.972	8.43
580.168	8.4
580.364	8.39
580.56	8.34
580.756	8.3
580.952	8.35
581.148	8.48
581.343	8.43
581.539	8.49
581.735	8.45
581.931	8.43
582.127	8.29
582.322	8.3
582.518	8.22
582.714	8.3
582.909	8.33
583.105	8.41
583.301	8.45
583.496	8.49
583.692	8.48
583.888	8.45
584.083	8.37
584.279	8.37
584.474	8.33
584.67	8.28
584.866	8.31
585.061	8.34
585.257	8.24
585.452	8.24
585.648	8.25
585.843	8.23
586.039	8.22
586.234	8.28
586.429	8.29
586.625	8.37
586.82	8.37
587.015	8.37
587.211	8.25
587.406	8.22
587.601	8.18
587.797	8.18
587.992	8.1
588.187	8.16
588.383	8.24
588.578	8.24
588.773	8.2
588.968	8.35
589.163	8.37
589.359	8.31
589.554	8.32
589.749	8.36
589.944	8.29
590.139	8.27
590.334	8.27
590.529	8.31
590.724	8.38
590.919	8.39
591.114	8.46
591.309	8.48
591.504	8.48
591.699	8.44
591.894	8.44
592.089	8.43
592.284	8.46
592.479	8.46
592.674	8.47
592.869	8.52
593.064	8.64
593.259	8.63
593.454	8.61
593.648	8.71
593.843	8.69
594.038	8.67
594.233	8.74
594.428	8.81
594.622	8.8
594.817	8.95
595.012	8.92
595.206	9.06
595.401	9.12
595.596	9.11
595.79	9.12
595.985	9.2
596.18	9.2
596.374	9.16
596.569	9.21
596.763	9.23
596.958	9.34
597.153	9.25
597.347	9.35
597.542	9.39
597.736	9.42
597.931	9.35
598.125	9.43
598.319	9.53
598.514	9.55
598.708	9.57
598.903	9.61
599.097	9.73
599.291	9.76
599.486	9.9
599.68	9.87
599.874	9.89
600.069	9.9
600.263	9.9
600.457	9.84
600.651	9.88
600.846	9.99
601.04	9.91
601.234	9.81
601.428	9.83
601.622	9.95
601.817	9.9
602.011	9.95
602.205	10.09
602.399	10.12
602.593	10.07
602.787	10.07
602.981	10.14
603.175	10.12
603.369	10.04
603.563	10.11
603.757	10.11
603.951	10.02
604.145	9.96
604.339	10.05
604.533	9.95
604.727	10
604.921	10.07
605.115	10.06
605.309	10
605.502	10.03
605.696	9.93
605.89	9.84
606.084	9.9
606.278	9.89
606.471	9.79
606.665	9.76
606.859	9.63
607.053	9.56
607.246	9.53
607.44	9.59
607.634	9.57
607.827	9.67
608.021	9.47
608.214	9.42
608.408	9.37
608.602	9.32
608.795	9.25
608.989	9.35
609.182	9.34
609.376	9.27
609.569	9.25
609.763	9.18
609.956	9.19
610.15	9.06
610.343	9.02
610.537	8.99
610.73	8.96
610.923	8.82
611.117	8.79
611.31	8.72
611.504	8.62
611.697	8.66
611.89	8.62
612.083	8.61
612.277	8.55
612.47	8.56
612.663	8.36
612.856	8.31
613.05	8.29
613.243	8.23
613.436	8.14
613.629	8.15
613.822	8.13
614.015	8.03
614.209	7.92
614.402	7.96
614.595	7.98
614.788	7.94
614.981	7.9
615.174	7.91
615.367	7.78
615.56	7.61
615.753	7.59
615.946	7.57
616.139	7.56
616.332	7.52
616.525	7.56
616.718	7.41
616.911	7.39
617.103	7.32
617.296	7.32
617.489	7.35
617.682	7.43
617.875	7.35
618.067	7.26
618.26	7.12
618.453	7.01
618.646	6.95
618.838	6.94
619.031	6.94
619.224	7.02
619.417	7.09
619.609	7.14
619.802	7.16
619.994	7.2
620.187	7.21
620.38	7.13
620.572	7.03
620.765	7.06
620.957	7.02
621.15	7.05
621.342	7.01
621.535	7.05
621.727	6.92
621.92	6.9
622.112	6.73
622.305	6.72
622.497	6.63
622.69	6.58
622.882	6.6
623.074	6.71
623.267	6.67
623.459	6.64
623.651	6.73
623.844	6.68
624.036	6.65
624.228	6.69
624.42	6.71
624.613	6.69
624.805	6.68
624.997	6.67
625.189	6.58
625.381	6.67
625.574	6.63
625.766	6.66
625.958	6.58
626.15	6.66
626.342	6.54
626.534	6.58
626.726	6.48
626.918	6.52
627.11	6.46
627.302	6.48
627.494	6.34
627.686	6.41
627.878	6.34
628.07	6.39
628.262	6.32
628.454	6.38
628.646	6.32
628.838	6.31
629.029	6.22
629.221	6.18
629.413	6.17
629.605	6.12
629.797	6.08
629.989	6.1
630.18	6.09
630.372	5.99
630.564	6.07
630.755	6.05
630.947	5.99
631.139	5.98
631.33	5.95
631.522	5.9
631.714	5.89
631.905	5.88
632.097	5.85
632.289	5.91
632.48	5.88
632.672	5.83
632.863	5.84
633.055	5.86
633.246	5.87
633.438	5.82
633.629	5.86
633.821	5.82
634.012	5.8
634.203	5.74
634.395	5.76
634.586	5.86
634.777	5.9
634.969	5.93
635.16	6.02
635.351	6.02
635.543	5.94
635.734	5.89
635.925	5.86
636.117	5.87
636.308	5.84
636.499	5.75
636.69	5.74
636.881	5.77
637.073	5.7
637.264	5.72
637.455	5.76
637.646	5.77
637.837	5.67
638.028	5.65
638.219	5.61
638.41	5.69
638.601	5.67
638.792	5.73
638.983	5.75
639.174	5.74
639.365	5.64
639.556	5.63
639.747	5.63
639.938	5.72
640.129	5.76
640.32	5.79
640.511	5.83
640.701	5.79
640.892	5.73
641.083	5.71
641.274	5.69
641.465	5.68
641.655	5.74
641.846	5.72
642.037	5.71
642.228	5.71
642.418	5.74
642.609	5.68
642.8	5.67
642.99	5.66
643.181	5.64
643.372	5.59
643.562	5.58
643.753	5.56
643.943	5.57
644.134	5.51
644.324	5.52
644.515	5.61
644.705	5.55
644.896	5.56
645.086	5.63
645.277	5.64
645.467	5.59
645.658	5.6
645.848	5.46
646.038	5.49
646.229	5.53
646.419	5.52
646.61	5.67
646.8	5.77
646.99	5.79
647.18	5.67
647.371	5.58
647.561	5.43
647.751	5.38
647.941	5.29
648.132	5.31
648.322	5.36
648.512	5.43
648.702	5.54
648.892	5.45
649.082	5.45
649.272	5.39
649.462	5.3
649.653	5.25
649.843	5.33
650.033	5.34
650.223	5.31
650.413	5.33
650.603	5.35
650.793	5.33
650.983	5.28
651.172	5.32
651.362	5.27
651.552	5.18
651.742	5.08
651.932	5.14
652.122	5.18
652.312	5.19
652.502	5.2
652.691	5.24
652.881	5.21
653.071	5.23
653.261	5.1
653.45	5.06
653.64	4.99
653.83	4.94
654.019	4.83
654.209	4.8
654.399	4.77
654.588	4.76
654.778	4.65
654.968	4.58
655.157	4.65
655.347	4.54
655.536	4.44
655.726	4.41
655.915	4.33
656.105	4.27
656.294	4.17
656.484	4.17
656.673	4.12
656.863	4.18
657.052	4.12
657.241	4.16
657.431	4.24
657.62	4.12
657.809	3.99
657.999	3.98
658.188	3.82
658.377	3.66
658.567	3.61
658.756	3.55
658.945	3.45
659.134	3.46
659.324	3.46
659.513	3.45
659.702	3.35
659.891	3.35
660.08	3.29
660.269	3.26
660.458	3.22
660.648	3.39
660.837	3.28
661.026	3.24
661.215	3.21
661.404	3.17
661.593	3.06
661.782	3.03
661.971	3.07
662.16	3.02
662.349	2.99
662.538	2.97
662.726	2.95
662.915	2.89
663.104	2.86
663.293	2.85
663.482	2.8
663.671	2.87
663.86	2.84
664.048	2.82
664.237	2.92
664.426	2.87
664.615	2.82
664.803	2.89
664.992	2.84
665.181	2.77
665.369	2.75
665.558	2.8
665.747	2.81
665.935	2.99
666.124	2.97
666.312	3.08
666.501	3.21
666.69	3.24
666.878	3.13
667.067	3.14
667.255	3.27
667.444	3.26
667.632	3.35
667.82	3.37
668.009	3.41
668.197	3.32
668.386	3.16
668.574	3.13
668.762	3.28
668.951	3.43
669.139	3.36
669.327	3.48
669.516	3.47
669.704	3.39
669.892	3.25
670.08	3.37
670.269	3.37
670.457	3.34
670.645	3.32
670.833	3.44
671.021	3.51
671.21	3.55
671.398	3.62
671.586	3.63
671.774	3.66
671.962	3.68
672.15	3.73
672.338	3.77
672.526	3.93
672.714	4.05
672.902	4.02
673.09	3.97
673.278	4.01
673.466	4.12
673.654	4.15
673.842	4.25
674.03	4.46
674.218	4.47
674.405	4.46
674.593	4.5
674.781	4.59
674.969	4.53
675.157	4.68
675.344	4.58
675.532	4.63
675.72	4.64
675.908	4.68
676.095	4.64
676.283	4.79
676.471	4.79
676.658	4.83
676.846	4.82
677.033	4.94
677.221	4.98
677.409	4.92
677.596	4.94
677.784	5.03
677.971	5.06
678.159	5.09
678.346	5.26
678.534	5.3
678.721	5.47
678.909	5.42
679.096	5.39
679.283	5.31
679.471	5.33
679.658	5.19
679.846	5.21
680.033	5.46
680.22	5.6
680.408	5.56
680.595	5.69
680.782	5.7
680.969	5.6
681.157	5.5
681.344	5.73
681.531	5.75
681.718	5.77
681.905	5.77
682.093	5.81
682.28	5.73
682.467	5.89
682.654	5.93
682.841	5.97
683.028	6.03
683.215	6.14
683.402	5.98
683.589	6.2
683.776	6.37
683.963	6.53
684.15	6.73
684.337	6.86
684.524	6.99
684.711	6.91
684.898	6.81
685.085	6.64
685.271	6.76
685.458	6.73
685.645	6.86
685.832	6.9
686.019	6.88
686.205	6.94
686.392	6.92
686.579	7.08
686.766	7.31
686.952	7.51
687.139	7.57
687.326	7.65
687.512	7.74
687.699	7.86
687.886	7.96
688.072	7.86
688.259	8.07
688.445	8.09
688.632	8.02
688.818	8.19
689.005	8.56
689.191	8.88
689.378	9.14
689.564	9.51
689.751	9.7
689.937	9.93
690.124	9.93
690.31	10.09
690.496	10.44
690.683	10.74
690.869	10.99
691.055	11.26
691.242	11.52
691.428	11.58
691.614	11.84
691.8	12.08
691.987	12.56
692.173	13.19
692.359	13.69
692.545	14.19
692.731	14.58
692.918	14.91
693.104	15.23
693.29	15.52
693.476	15.88
693.662	16.45
693.848	16.81
694.034	17.28
694.22	17.89
694.406	18.44
694.592	18.79
694.778	19.04
694.964	19.42
695.15	19.91
695.336	20.2
695.522	20.92
695.708	21.93
695.894	22.59
696.08	23.22
696.265	23.81
696.451	24.27
696.637	24.8
696.823	25.3
697.009	25.81
697.194	26.42
697.38	26.92
697.566	27.42
697.751	27.9
697.937	28.46
698.123	29.2
698.308	29.68
698.494	30.19
698.68	30.82
698.865	31.54
699.051	32.15
699.236	33.04
699.422	33.73
699.607	34.38
699.793	34.98
699.978	35.38
700.164	35.89
700.349	36.4
700.535	36.88
700.72	37.57
700.906	38.49
701.091	39.08
701.276	39.84
701.462	40.48
701.647	41.17
701.832	41.5
702.018	42.22
702.203	42.85
702.388	43.58
702.573	44.1
702.759	44.93
702.944	45.3
703.129	45.83
703.314	46.41
703.499	46.82
703.684	47.47
703.87	48.14
704.055	48.87
704.24	49.69
704.425	50.41
704.61	50.97
704.795	51.79
704.98	52.17
705.165	52.38
705.35	52.77
705.535	53.22
705.72	53.62
705.905	54.04
706.09	54.51
706.275	54.94
706.459	55.21
706.644	55.38
706.829	56.16
707.014	57.05
707.199	57.87
707.384	58.19
707.568	58.81
707.753	59.32
707.938	59.26
708.123	59.33
708.307	60.04
708.492	60.37
708.677	60.27
708.861	60.82
709.046	61.23
709.231	61.27
709.415	61.71
709.6	62.06
709.784	62.4
709.969	63.15
710.153	63.82
710.338	64.3
710.522	65.05
710.707	65.41
710.891	65.17
711.076	65.46
711.26	65.94
711.445	66.47
711.629	66.87
711.813	67.54
711.998	67.92
712.182	67.97
712.366	67.89
712.551	68.18
712.735	68.57
712.919	68.67
713.103	69.01
713.288	69.35
713.472	69.49
713.656	69.78
713.84	70.41
714.024	70.81
714.208	70.97
714.393	71.09
714.577	71.16
714.761	70.69
714.945	71.07
715.129	71.66
715.313	72.3
715.497	72.81
715.681	73.16
715.865	73.17
716.049	73.3
716.233	73.15
716.417	73.15
716.601	73.73
716.785	73.86
716.968	73.64
717.152	73.92
717.336	74.25
717.52	74.47
717.704	74.4
717.888	74.95
718.071	75.49
718.255	75.39
718.439	75.45
718.622	75.62
718.806	75.51
718.99	75.07
719.174	74.86
719.357	75.19
719.541	75.79
719.724	75.89
719.908	75.91
720.092	76.84
720.275	76.92
720.459	77.13
720.642	77.38
720.826	77.97
721.009	78.05
721.193	78.1
721.376	78.22
721.559	78.64
721.743	79.13
721.926	79.2
722.11	79.57
722.293	79.57
722.476	79.6
722.66	80.34
722.843	80.43
723.026	80.68
723.21	80.91
723.393	80.57
723.576	80.28
723.759	80.14
723.942	79.69
724.126	79.59
724.309	80.56
724.492	80.78
724.675	80.82
724.858	82
725.041	82.2
725.224	81.43
725.407	81.26
725.59	82.23
725.774	81.73
725.957	82.19
726.14	83.09
726.322	82.94
726.505	82.51
726.688	82.81
726.871	83.03
727.054	83
727.237	83.58
727.42	83.82
727.603	83.58
727.786	83.37
727.968	83.45
728.151	83.36
728.334	83.46
728.517	84.32
728.699	84.19
728.882	85.08
729.065	85.41
729.248	85.87
729.43	86.21
729.613	86.78
729.796	86.74
729.978	86.78
730.161	86.6
730.343	87.13
730.526	87.13
730.708	86.36
730.891	86.19
731.073	86.55
731.256	85.97
731.438	85.97
731.621	85.87
731.803	86.15
731.986	86.78
732.168	86.7
732.35	87.15
732.533	88.64
732.715	88.83
732.898	88.01
733.08	88.7
733.262	89.39
733.444	88.65
733.627	89.02
733.809	89.58
733.991	89.34
734.173	89.57
734.355	90
734.538	89.92
734.72	90.24
734.902	90.82
735.084	90.76
735.266	90.92
735.448	91.45
735.63	91.07
735.812	90.55
735.994	89.32
736.176	89.37
736.358	89.59
736.54	90.12
736.722	89.91
736.904	91.89
737.086	92.07
737.268	91.38
737.45	91.85
737.632	92.52
737.814	91.59
737.995	92.02
738.177	92.68
738.359	92.03
738.541	91.77
738.723	92.09
738.904	91.74
739.086	92.15
739.268	91.93
739.449	92.08
739.631	92.61
739.813	92.69
739.994	92.67
740.176	93.29
740.358	93.62
740.539	93.46
740.721	93.31
740.902	93.54
741.084	93.86
741.265	93.74
741.447	93.25
741.628	92.56
741.81	92.27
741.991	92.79
742.172	93.08
742.354	93.82
742.535	94.28
742.717	94.27
742.898	94.47
743.079	94.73
743.261	95.23
743.442	96.14
743.623	96.07
743.804	95.4
743.986	94.6
744.167	92.78
744.348	92.06
744.529	91.96
744.71	91.34
744.891	92.12
745.073	92.59
745.254	93.8
745.435	93.86
745.616	94.73
745.797	94.66
745.978	95.15
746.159	95.98
746.34	96.83
746.521	96.41
746.702	96.94
746.883	97.57
747.064	95.38
747.245	94.05
747.426	95.04
747.606	94.28
747.787	94.12
747.968	95.14
748.149	95.92
748.33	95.57
748.51	95.51
748.691	93.98
748.872	92.72
749.053	93.4
749.233	92.6
749.414	92.83
749.595	95.28
749.775	96.71
749.956	95.62
750.137	95.18
750.317	94.19
750.498	91.59
750.678	91.44
750.859	92.64
751.04	94.21
751.22	95.19
751.4	96.4
751.581	95.49
751.761	94.34
751.942	92.84
752.122	91.98
752.303	92.94
752.483	93.92
752.663	94.89
752.844	96.19
753.024	96.2
753.204	95.2
753.385	94.01
753.565	93.38
753.745	92.09
753.925	94.84
754.106	95.38
754.286	95.88
754.466	95.78
754.646	96.51
754.826	94.5
755.006	94
755.187	94.3
755.367	95.21
755.547	93.52
755.727	93.19
755.907	92.66
756.087	92.88
756.267	90.72
756.447	92.42
756.627	91.23
756.807	93.6
756.987	93.8
757.167	96.26
757.346	96.66
757.526	98.95
757.706	97.13
757.886	97.02
758.066	96.14
758.246	94.36
758.425	92.8
758.605	92.17
758.785	92.37
758.965	93.38
759.144	94.69
759.324	95.13
759.504	96.89
759.683	96.34
759.863	94.37
760.043	94.19
760.222	95.54
760.402	93.99
760.581	94.21
760.761	95.27
760.94	94.47
761.12	92.07
761.299	92.51
761.479	91.3
761.658	91.44
761.838	91.01
762.017	90.38
762.197	89.96
762.376	92.24
762.555	90.35
762.735	92.54
762.914	92.13
763.093	92.6
763.273	90.64
763.452	91.45
763.631	90.64
763.81	92.13
763.99	91.32
764.169	92.84
764.348	90.77
764.527	89.92
764.706	91.27
764.885	90.01
765.064	87.72
765.243	89.97
765.423	89.15
765.602	86.88
765.781	87.76
765.96	89.93
766.139	89.93
766.318	90.8
766.497	91.14
766.676	91.62
766.854	89.97
767.033	89.41
767.212	89.8
767.391	91.57
767.57	90.93
767.749	92.3
767.928	93.18
768.106	92.05
768.285	89.44
768.464	91.42
768.643	91.26
768.821	90.69
769	90.03
769.179	91.17
769.357	88.95
769.536	87.78
769.715	86.55
769.893	86.66
770.072	85.86
770.25	86.24
770.429	87.74
770.607	86.48
770.786	89.47
770.964	88.58
771.143	88.38
771.321	87.09
771.5	91.96
771.678	90.45
771.857	92.36
772.035	93.48
772.213	92.78
772.392	89.84
772.57	89.13
772.748	88.4
772.927	87.59
773.105	87.32
773.283	88.96
773.461	89.8
773.64	91.8
773.818	90.37
773.996	91.13
774.174	88.41
774.352	86.08
774.531	84.76
774.709	87.23
774.887	88.14
775.065	87.71
775.243	89.4
775.421	88.99
775.599	88.55
775.777	86.04
775.955	84.54
776.133	87.56
776.311	89.96
776.489	90.96
776.667	90.67
776.844	94.45
777.022	89.22
777.2	88.99
777.378	87.45
777.556	90.55
777.734	90.8
777.911	93.25
778.089	90.36
778.267	88.85
778.445	87.1
778.622	85.83
778.8	84.88
778.978	85.88
779.155	85.99
779.333	84
779.511	79.28
779.688	79.01
779.866	75.22
780.043	77.01
780.221	78.87
780.398	84.38
780.576	82.46
780.753	87.31
780.931	86.06
781.108	85.53
781.286	85.47
781.463	86.55
781.64	86.06
781.818	86.18
781.995	84.88
782.172	84.67
782.35	87.88
782.527	82.9
782.704	86.8
782.882	87.9
783.059	87.31
783.236	81.97
783.413	88.15
783.59	85.66
783.768	82.96
783.945	83.7
784.122	87.14
784.299	86.48
784.476	86.82
784.653	90.79
784.83	90.29
785.007	90.31
785.184	88.39
785.361	86.95
785.538	89.14
785.715	86.81
785.892	88.09
786.069	87.69
786.246	86.24
786.423	87.01
786.6	90.97
786.776	88.69
786.953	89.18
787.13	90.86
787.307	86.96
787.484	85.31
787.66	85.96
787.837	87.23
788.014	86.61
788.191	89.79
788.367	88.56
788.544	93.29
788.721	91.19
788.897	89.47
789.074	84.28
789.25	82.48
789.427	77.17
789.603	81.69
789.78	84.31
789.956	91.32
790.133	92.63
790.309	94.4
790.486	88.22
790.662	87.49
790.839	79.93
791.015	84.89
791.192	82.47
791.368	82.66
791.544	83.97
791.721	87.83
791.897	85.9
792.073	88.43
792.249	88.06
792.426	85.59
792.602	83.9
792.778	81.6
792.954	81.65
793.13	83.22
793.307	86.14
793.483	83.94
793.659	85
793.835	84.03
794.011	83.83
794.187	74.46
794.363	78.65
794.539	76.8
794.715	72.97
794.891	70.28
795.067	73.35
795.243	75.71
795.419	75.88
795.595	76.6
795.771	73.83
795.947	82.68
796.122	75.19
796.298	75.72
796.474	80.03
796.65	84.53
796.826	74.9
797.001	78.67
797.177	82.06
797.353	85.92
797.529	87.99
797.704	92.86
797.88	92.8
798.056	88.86
798.231	82.69
798.407	80.9
798.582	76.97
798.758	80.04
798.934	83.62
799.109	83
799.285	86.04
799.46	87.51
799.636	90.7
799.811	84.61
799.986	92
800.162	94.79
800.337	97.98
800.513	92.6
800.688	94.25
800.863	89.5
801.039	86.82
801.214	85.15
801.389	88.05
801.565	93.19
801.74	89.72
801.915	89.7
802.09	90.03
802.265	79.59
802.441	85.36
802.616	88.13
802.791	89.26
802.966	90.76
803.141	99.07
803.316	82.63
803.491	75.18
803.666	62.73
803.841	68.04
804.016	67.91
804.191	80.97
804.366	88.39
804.541	97.37
804.716	93.01
804.891	88.97
805.066	78.07
805.241	77.54
805.416	74.01
805.591	75.66
805.765	79.5
805.94	79.01
806.115	76.72
806.29	78.21
806.464	80.05
806.639	75.32
806.814	78.68
806.989	79.77
807.163	89.02
807.338	91.73
807.512	91.8
807.687	85.77
807.862	77.89
808.036	72.17
808.211	66.87
808.385	66.55
808.56	67.54
808.734	70.81
808.909	66.74
809.083	64.72
809.258	60.93
809.432	69.53
809.606	71.26
809.781	74.55
809.955	81.08
810.13	84.88
810.304	84.68
810.478	87.59
810.652	91.35
810.827	80.13
811.001	82.34
811.175	76.9
811.349	84.79
811.524	86
811.698	90.05
811.872	87.21
812.046	99.89
812.22	81.35
812.394	72.24
812.568	82.99
812.742	89.2
812.916	85.33
813.09	101.91
813.264	114.56
813.438	110.12
813.612	113.06
813.786	96.97
813.96	71.19
814.134	75.09
814.308	76.59
814.482	75.39
814.656	96.87
814.83	109.47
815.003	108.28
815.177	107.01
815.351	101.99
815.525	95.72
815.698	90.47
815.872	79.53
816.046	71.73
816.219	69.2
816.393	69.07
816.567	79.56
816.74	100.9
816.914	119.17
817.088	145.79
817.261	147.92
817.435	130.04
817.608	118.21
817.782	104.53
817.955	103.58
818.129	110.09
818.302	108.23
818.475	120
818.649	120.71
818.822	103.79
818.996	88.29
819.169	95.03
819.342	93.62
819.516	88.76
819.689	102.26
819.862	118.51
820.035	106.77
820.209	89.59
820.382	92.71
820.555	91.46
820.728	95.44
820.901	101.36
821.075	119.64
821.248	133
821.421	114.48
821.594	109.53
821.767	107.75
821.94	95.6
822.113	67.43
822.286	69.96
822.459	62.25
822.632	72.05
822.805	89.16
822.978	109.51
823.151	111.55
823.324	112.74
823.496	82.65
823.669	59.04
823.842	71.91
824.015	65.88
824.188	49.54
824.361	71.14
824.533	82.79
824.706	62.54
824.879	75.47
825.051	98.37
825.224	103.72
825.397	105.86
825.569	113.56
825.742	112.48
825.915	92.7
826.087	80.58
826.26	64.39
826.432	63.17
826.605	51.55
826.777	44.49
826.95	55.5
827.122	70.91
827.295	51.6
827.467	61.03
827.64	45.34
827.812	27.85
827.984	40.24
828.157	69.76
828.329	70.26
828.501	99.65
828.674	105.5
828.846	94.26
829.018	82.37
829.19	86.31
829.363	76.05
829.535	83.82
829.707	69.7
829.879	67.77
830.051	53.69
830.223	76.5
830.395	68.68
830.568	57.95
830.74	74.98
830.912	90.77
831.084	83.55
831.256	86.94
831.428	90.59
831.6	87.69
831.772	87.74
831.943	64.31
832.115	59.35
832.287	96.91
832.459	89.64
832.631	95.63
832.803	122.07
832.975	131.5
833.146	116.21
833.318	92.81
833.49	103.26
833.662	89
833.833	95.57
834.005	81.72
834.177	104.75
834.348	102.04
834.52	97.81
834.692	113.33
834.863	108.29
835.035	109.69
835.206	90.52
835.378	100.52
835.549	89.8
835.721	121.44
835.892	120.05
836.064	140.47
836.235	139.2
836.407	165.71
836.578	127.3
836.749	147.65
836.921	160.22
837.092	175.44
837.264	139.33
837.435	129.42
837.606	102.08
837.777	50.24
837.949	63.6
838.12	14.63
838.291	54.37
838.462	64.92
838.633	74.39
838.805	75.43
838.976	125.59
839.147	106.7
839.318	133.73
839.489	107.58
839.66	119.34
839.831	122.98
840.002	167.38
840.173	82.9
840.344	64.51
840.515	52.2
840.686	24.83
840.857	32.86
841.028	72.61
841.199	106.94
841.369	89.9
841.54	82.39
841.711	116.48
841.882	93.68
842.053	86.29
842.223	107.9
842.394	102.4
842.565	92.15
842.736	106.8
842.906	83
843.077	84.25
843.248	86.05
843.418	83.08
843.589	102.07
843.759	154.07
843.93	386.42
844.101	380.8
844.271	187.16
844.442	141.13
844.612	135.85
844.783	161.2
844.953	121.82
845.123	126.31
845.294	118.47
845.464	102.78
845.635	92.92
845.805	161.54
845.975	141.95
846.146	158.98
846.316	179.78
846.486	160.95
846.656	165.97
846.827	173.72
846.997	128.1
847.167	155.22
847.337	124.94
847.507	110.18
847.677	99.98
847.848	149.29
848.018	146.8
848.188	175.89
848.358	153.54
848.528	172.5
848.698	124.44
848.868	94.88
849.038	36.97
849.208	53.61
849.378	59.67
849.548	45.1
849.718	403.69
849.887	-496.35
850.057	5438.71
850.227	-270.39
850.397	-535.57
850.567	57.9
850.737	72.46
850.906	38.77
851.076	33.06
851.246	43.79
851.415	39.55
851.585	48.78
851.755	63.11
851.924	90.95
852.094	114.84
852.264	102.4
852.433	75.12
852.603	95.87
852.772	74.95
852.942	59.89
853.111	52.56
853.281	100.56
853.45	101.61
853.62	127.56
853.789	108.21
853.959	249.14
854.128	-59.47
854.297	69.02
854.467	307.53
854.636	-72.55
854.805	11.86
854.975	37.4
855.144	41.18
855.313	69.68
855.482	107.85
855.652	102.99
855.821	105.43
855.99	170.42
856.159	466.87
856.328	148.13
856.497	243.03
856.667	225.08
856.836	180.21
857.005	165.76
857.174	140.67
857.343	153.9
857.512	81.62
857.681	67.22
857.85	61.1
858.019	102.19
858.188	48.06
858.356	75.83
858.525	84.11
858.694	79.3
858.863	90.75
859.032	103.62
859.201	107.96
859.369	111.21
859.538	83.22
859.707	46.15
859.876	71.55
860.044	36.14
860.213	65.04
860.382	84.34
860.55	105.84
860.719	128.33
860.888	178.5
861.056	194.12
861.225	172.68
861.393	229.65
861.562	254.85
861.73	221.76
861.899	161.72
862.067	290.98
862.236	176.73
862.404	60.17
862.572	11.11
862.741	-87.22
862.909	60.15
863.078	66.19
863.246	91.8
863.414	140.49
863.582	107.8
863.751	112.49
863.919	131.86
864.087	161.92
864.255	200.94
864.424	224.94
864.592	110.29
864.76	120.82
864.928	99.18
865.096	70.64
865.264	69.67
865.432	101.22
865.6	139.41
865.768	61.25
865.936	-67.85
866.104	-53.92
866.272	55.38
866.44	-11.48
866.608	-8.99
866.776	61.34
866.944	48.44
867.112	37.05
867.28	1.58
867.448	31.07
867.615	2.13
867.783	45.62
867.951	17.39
868.119	119.01
868.286	204.94
868.454	180.31
868.622	229.96
868.789	610.29
868.957	-833.48
869.125	-348.04
869.292	82.46
869.46	-146.73
869.627	-92.57
869.795	-11.62
869.963	44.97
870.13	103.49
870.298	97.24
870.465	96.32
870.632	91.98
870.8	81.65
870.967	108.56
871.135	34.88
871.302	13.25
871.469	86.83
871.637	48.19
871.804	14.73
871.971	1.72
872.139	30.89
872.306	60.47
872.473	515.58
872.64	69.52
872.807	109.71
872.975	29.74
873.142	48.62
873.309	76.82
873.476	91.11
873.643	90.43
873.81	118.62
873.977	100.31
874.144	125.94
874.311	204.87
874.478	35.72
874.645	-174.61
874.812	-696.68
874.979	-125.26
875.146	-103.06
875.313	-380.21
875.48	58.86
875.647	382.48
875.813	630.38
875.98	-121.03
876.147	146.51
876.314	113.75
876.481	62.23
876.647	89.11
876.814	121.81
876.981	141.52
877.147	87.62
877.314	95.75
877.481	168.32
877.647	330.26
877.814	331.16
877.98	249.45
878.147	-579.76
878.314	-391.21
878.48	1202.43
878.647	651.75
878.813	2387.05
878.979	145.3
879.146	170
879.312	116.93
879.479	145.54
879.645	145.99
879.811	126.95
879.978	102.33
880.144	194.96
880.31	368.38
880.477	318.12
880.643	-450.81
880.809	-3878.05
880.975	895.48
881.142	46.15
881.308	316.23
881.474	307.48
881.64	191.65
881.806	143.8
881.972	171
882.138	127.99
882.304	88.62
882.47	51.21
882.636	43.31
882.802	16.11
882.968	36.37
883.134	30.73
883.3	66.69
883.466	82.82
883.632	107.07
883.798	92.41
883.964	108.72
884.129	138.16
884.295	104.52
884.461	-15.74
884.627	158.36
884.793	-29.7
884.958	-111.35
885.124	-1621.78
885.29	161.68
885.455	248.33
885.621	59.2
885.787	26.58
885.952	21.65
886.118	133.67
886.283	62.07
886.449	104.59
886.614	82.72
886.78	120.87
886.945	90.66
887.111	88.06
887.276	108.57
887.442	190.62
887.607	125.92
887.773	156.98
887.938	115.53
888.103	187.7
888.269	148.77
888.434	-5894.12
888.599	273.77
888.764	2941.75
888.93	181.93
889.095	115.25
889.26	122.93
889.425	158.53
889.59	110.64
889.756	138.28
889.921	75.19
890.086	63.31
890.251	36.61
890.416	51.7
890.581	-23.71
890.746	150.49
890.911	172.8
891.076	344.15
891.241	255.28
891.406	47228.57
891.571	553.35
891.736	-58.64
891.901	-61.36
892.065	-19.25
892.23	16.8
892.395	-14.09
892.56	438.93
892.725	-53.07
892.889	-105.24
893.054	-965.56
893.219	-2007.19
893.384	-228.36
893.548	-232.96
893.713	-198.35
893.878	-166.49
