Data from Ofav_SP_Phys_9AZ10_Reflection_3.txt Node
Date: Thu Aug 05 17:49:59 EDT 2021
User: Adam
Spectrometer: FLMT01687
Trigger mode: 0
Integration Time (sec): 8.000000E-1
Scans to average: 2
Electric dark correction enabled: true
Nonlinearity correction enabled: false
Boxcar width: 2
XAxis mode: Wavelengths
Number of Pixels in Spectrum: 3648
>>>>>Begin Spectral Data<<<<<
179.494	649.08
179.716	686.65
179.937	570.5
180.158	692.72
180.38	1643.25
180.601	-592.76
180.823	-121.85
181.044	-62.23
181.265	48.55
181.486	61.53
181.708	-85.23
181.929	-153.36
182.15	-424.08
182.372	2.91
182.593	-4.66
182.814	-84.26
183.035	47.49
183.257	223.84
183.478	-347.46
183.699	625.23
183.92	96.82
184.141	-298.21
184.363	696.76
184.584	20.08
184.805	60.25
185.026	39.34
185.247	45.31
185.468	59.85
185.689	36.98
185.91	20.92
186.132	-45.21
186.353	-23.52
186.574	-147.04
186.795	-80.61
187.016	-91.39
187.237	-82.88
187.458	-438.84
187.679	-90.71
187.9	-103.62
188.121	-101.17
188.342	-64.4
188.563	9.98
188.784	37.5
189.005	12.34
189.226	22.52
189.447	48.61
189.667	61.34
189.888	27.91
190.109	102.16
190.33	121.72
190.551	71.06
190.772	66.37
190.993	78.04
191.214	52.71
191.434	44.26
191.655	52.69
191.876	49.69
192.097	40.63
192.318	51.24
192.538	70.29
192.759	111.69
192.98	53.78
193.201	11.43
193.421	-26.32
193.642	-6.72
193.863	-70.72
194.083	-20.9
194.304	-2.91
194.525	5.85
194.745	6.43
194.966	32.77
195.187	43
195.407	17.63
195.628	-7.55
195.848	-13.04
196.069	-8.25
196.29	-32.79
196.51	8.72
196.731	14.16
196.951	53.52
197.172	59.87
197.392	81.82
197.613	74.24
197.833	125.34
198.054	87.82
198.274	55.14
198.495	50.35
198.715	44.56
198.936	-37.47
199.156	28.86
199.377	42.45
199.597	41.63
199.817	29.49
200.038	33.56
200.258	27.9
200.479	26.57
200.699	25.72
200.919	22.83
201.14	-32.76
201.36	-74.53
201.58	-65.28
201.801	-166.72
202.021	-140.53
202.241	-12.08
202.461	-11.88
202.682	-33.57
202.902	-5.11
203.122	38.42
203.342	-24.74
203.563	-14.75
203.783	5.12
204.003	18.78
204.223	17.22
204.443	16.71
204.663	14.22
204.884	32.07
205.104	27.05
205.324	42.29
205.544	44.09
205.764	45.48
205.984	1.11
206.204	-8.75
206.424	-12.37
206.644	-22.77
206.864	-1.75
207.084	3.76
207.304	53.76
207.525	64.25
207.745	48.45
207.964	15.7
208.184	48.78
208.404	-6.2
208.624	-20.19
208.844	-15.82
209.064	-11.82
209.284	21.83
209.504	40.54
209.724	45.72
209.944	23.72
210.164	7.85
210.384	10.18
210.604	8.05
210.823	16.66
211.043	25.8
211.263	34.23
211.483	19.09
211.703	35.44
211.922	32.45
212.142	67.74
212.362	61.25
212.582	130.99
212.801	107.23
213.021	74.72
213.241	49.14
213.461	52.33
213.68	34.51
213.9	18.59
214.12	35.64
214.339	62.4
214.559	52.17
214.779	40.76
214.998	86.7
215.218	85.34
215.438	100.98
215.657	151.55
215.877	218.91
216.096	158.7
216.316	133
216.535	54.43
216.755	-22.95
216.974	-234.71
217.194	-3.12
217.413	24.67
217.633	34.75
217.852	47.15
218.072	48.55
218.291	19.88
218.511	27.86
218.73	-1.04
218.95	-15.99
219.169	-56.45
219.389	22.35
219.608	-2.24
219.827	33.35
220.047	85.74
220.266	96.56
220.485	62.53
220.705	60.12
220.924	28.81
221.143	-37.32
221.363	-65.19
221.582	-33.41
221.801	-69.83
222.021	-12.07
222.24	16.35
222.459	16.76
222.678	19.67
222.897	61.96
223.117	65.32
223.336	39.76
223.555	48.3
223.774	28.92
223.993	14.04
224.213	22.29
224.432	50.98
224.651	54.14
224.87	57.82
225.089	64.41
225.308	70.73
225.527	21.31
225.746	-1.76
225.965	-35.36
226.184	-20.23
226.404	-1.48
226.623	-10.18
226.842	-20.39
227.061	16.03
227.28	-4.53
227.499	0.42
227.718	-0.31
227.936	21.39
228.155	4.12
228.374	-1.22
228.593	13.92
228.812	42.98
229.031	32.25
229.25	32.74
229.469	42.81
229.688	35.76
229.907	7.03
230.125	4.68
230.344	14.16
230.563	35.92
230.782	44.99
231.001	106.91
231.22	74.69
231.438	53.96
231.657	21.84
231.876	-16.36
232.095	14.23
232.313	23.73
232.532	28.03
232.751	47.31
232.969	45.97
233.188	33.51
233.407	24.68
233.625	32.89
233.844	10.04
234.063	20.55
234.281	31.19
234.5	30.41
234.719	41.26
234.937	-2.41
235.156	-3.28
235.374	-10.85
235.593	-2.47
235.811	-21.06
236.03	14.59
236.249	19.16
236.467	21.72
236.686	12.38
236.904	15.61
237.123	2.4
237.341	37.34
237.559	22.98
237.778	23.67
237.996	44.54
238.215	48.74
238.433	26.83
238.652	19.11
238.87	-14.58
239.088	-29.07
239.307	-20.02
239.525	-38.83
239.743	-41.09
239.962	-11.4
240.18	-39.23
240.398	-61.35
240.617	-45.02
240.835	-4.9
241.053	-7.51
241.271	-7.71
241.49	32.88
241.708	27.26
241.926	36.72
242.144	20.7
242.363	42.97
242.581	26.18
242.799	-51.19
243.017	-79.77
243.235	-96.1
243.453	-42.95
243.672	-55.88
243.89	-32.46
244.108	18.52
244.326	27.53
244.544	57.86
244.762	40.35
244.98	73
245.198	53.4
245.416	84.54
245.634	60.53
245.852	41.96
246.07	39.11
246.288	20.06
246.506	-44
246.724	-10.45
246.942	14.55
247.16	-3.46
247.378	-43.24
247.596	11.56
247.814	32.89
248.032	-1.63
248.25	-33.67
248.468	-15.91
248.685	-5.15
248.903	-14.18
249.121	-18.75
249.339	16.39
249.557	3.59
249.775	-2.54
249.992	-46.37
250.21	-14.18
250.428	-21.93
250.646	-3.96
250.863	1.54
251.081	36.22
251.299	5.29
251.517	41.21
251.734	29.31
251.952	-10.76
252.17	9.54
252.387	33.62
252.605	16.54
252.823	40.63
253.04	38.57
253.258	38.43
253.475	56.26
253.693	37.13
253.911	35.78
254.128	47.37
254.346	42.45
254.563	29.07
254.781	36.72
254.998	22.46
255.216	-6.29
255.433	-37.41
255.651	-87.44
255.868	-70.53
256.086	-52.96
256.303	-43.41
256.521	-18.67
256.738	-27.82
256.956	-66.96
257.173	-2.01
257.39	70.57
257.608	22.09
257.825	8.37
258.043	13.28
258.26	-3.31
258.477	-13.95
258.695	15.03
258.912	32.08
259.129	44.03
259.346	49.24
259.564	45.54
259.781	43.63
259.998	38.31
260.216	42.54
260.433	43.56
260.65	19.78
260.867	-45.55
261.084	-32.05
261.302	-39.13
261.519	-13.37
261.736	27.98
261.953	37.17
262.17	39.29
262.387	78.44
262.604	60.73
262.822	66.62
263.039	78.01
263.256	73.16
263.473	39.48
263.69	55.59
263.907	48.22
264.124	24.05
264.341	12.81
264.558	7.15
264.775	-8.98
264.992	1.27
265.209	18.5
265.426	33.35
265.643	14.61
265.86	-6.69
266.077	-18.19
266.294	-16.37
266.51	-23.4
266.727	-3.39
266.944	31.12
267.161	22.46
267.378	26.01
267.595	24.66
267.812	9.89
268.028	-13.12
268.245	-13.45
268.462	-39.09
268.679	-58.39
268.896	-30.42
269.112	-34.19
269.329	-9.99
269.546	20.76
269.763	38.08
269.979	37.15
270.196	61.58
270.413	49.09
270.629	44.99
270.846	27.36
271.063	30.21
271.279	0.54
271.496	-60.56
271.712	-124.84
271.929	-117.92
272.146	-95.51
272.362	-122.86
272.579	-66.59
272.795	-54.45
273.012	-15.67
273.228	-30.71
273.445	-10.12
273.661	14.27
273.878	30.3
274.094	27.55
274.311	43.39
274.527	34.55
274.744	18.13
274.96	31.56
275.177	1.99
275.393	-9.75
275.609	13.7
275.826	22.94
276.042	14.08
276.259	28.23
276.475	35.28
276.691	18.02
276.908	22.22
277.124	37.98
277.34	42.55
277.557	9.86
277.773	10.01
277.989	-5.54
278.205	-25.85
278.422	-40.46
278.638	15.99
278.854	36.3
279.07	28.15
279.286	-10.01
279.503	-4.2
279.719	-28.82
279.935	-18.38
280.151	29.73
280.367	81.59
280.583	64.04
280.799	89.07
281.016	77.1
281.232	66.31
281.448	45.59
281.664	41.34
281.88	2.64
282.096	19.76
282.312	14.95
282.528	25.75
282.744	48.96
282.96	53.92
283.176	63.5
283.392	77.11
283.608	70.14
283.824	42.36
284.04	29.78
284.256	12.87
284.471	-10.27
284.687	5.16
284.903	12.78
285.119	16.4
285.335	1.58
285.551	-1.57
285.767	-22.31
285.982	-24.58
286.198	-59.13
286.414	-22.68
286.63	19.51
286.846	19.05
287.061	5.7
287.277	16.11
287.493	26.92
287.709	-4.67
287.924	12.59
288.14	27.39
288.356	26.06
288.571	34.33
288.787	35.74
289.003	10.54
289.218	-28.25
289.434	-32.51
289.65	-40.32
289.865	-9.41
290.081	10.74
290.296	11.29
290.512	19.6
290.727	26.34
290.943	24.96
291.159	34.55
291.374	40.63
291.59	37.95
291.805	27.55
292.021	58.39
292.236	63.27
292.451	31.72
292.667	24.84
292.882	19.95
293.098	-2.05
293.313	13.36
293.529	46.06
293.744	37.48
293.959	14.68
294.175	20.48
294.39	7.86
294.605	-8.29
294.821	-9.69
295.036	5.27
295.251	-2.82
295.467	4.31
295.682	1.52
295.897	14.71
296.112	21.78
296.328	27.67
296.543	29.87
296.758	43.41
296.973	30.55
297.188	33.4
297.404	21.36
297.619	10.53
297.834	-1.64
298.049	-28.32
298.264	-54.6
298.479	-63.77
298.694	-30.67
298.909	6.1
299.125	27.43
299.34	38.06
299.555	42.12
299.77	45.37
299.985	34.72
300.2	46.76
300.415	55.63
300.63	45.01
300.845	22.92
301.06	62.7
301.275	30.91
301.49	21.17
301.704	6.58
301.919	34.59
302.134	6.7
302.349	3.84
302.564	9.27
302.779	26.04
302.994	21.57
303.209	26.05
303.423	19.06
303.638	7.48
303.853	5.87
304.068	15.63
304.283	21.85
304.497	21.12
304.712	15.84
304.927	-21.77
305.142	-39.06
305.356	-62.75
305.571	-12.33
305.786	11.85
306	32.05
306.215	39.96
306.43	60.68
306.644	56.87
306.859	37.37
307.074	36.18
307.288	41.74
307.503	34.4
307.717	33.48
307.932	35.07
308.147	32.41
308.361	33.6
308.576	16.79
308.79	-5.62
309.005	11.47
309.219	-11.14
309.434	-27.87
309.648	-50.05
309.863	-54.19
310.077	-87.07
310.292	-57.12
310.506	-46.87
310.72	-3.94
310.935	8.34
311.149	3.18
311.364	32.24
311.578	23.81
311.792	37.89
312.007	33.87
312.221	26.73
312.435	31.98
312.649	32.57
312.864	10.17
313.078	27.84
313.292	65.55
313.507	53.66
313.721	57.93
313.935	47.96
314.149	45.17
314.363	23.36
314.578	38.3
314.792	22.35
315.006	25.36
315.22	-3.48
315.434	-30.63
315.648	-85.15
315.862	-48.89
316.077	-42.25
316.291	-43.41
316.505	-16.93
316.719	4.74
316.933	-0.09
317.147	11.26
317.361	25.25
317.575	20.59
317.789	22.05
318.003	28.16
318.217	49.73
318.431	83.57
318.645	77.27
318.859	61.01
319.073	42.68
319.287	15.35
319.5	-17.69
319.714	-10.93
319.928	20.92
320.142	-7.01
320.356	15.02
320.57	28.39
320.784	27.79
320.997	-6.57
321.211	32.09
321.425	26.78
321.639	-13.56
321.853	-18.04
322.066	-12.63
322.28	-9.42
322.494	-8.26
322.707	-4.38
322.921	4.11
323.135	16.6
323.349	18.9
323.562	10.35
323.776	28.46
323.989	-4.54
324.203	-9.78
324.417	0.49
324.63	8.93
324.844	0.9
325.057	14.71
325.271	-4.65
325.485	-9.88
325.698	-21.1
325.912	-13.62
326.125	9.92
326.339	23.24
326.552	18.27
326.766	31.2
326.979	41.02
327.193	35.26
327.406	31.93
327.619	50.93
327.833	22.75
328.046	33.2
328.26	26.98
328.473	-17.65
328.686	-35.75
328.9	-17.47
329.113	-31.37
329.326	-21.75
329.54	21.82
329.753	50.59
329.966	56.85
330.179	67.83
330.393	77.09
330.606	73.14
330.819	50.42
331.032	59.26
331.246	80.18
331.459	63.45
331.672	46.84
331.885	46.7
332.098	48.91
332.311	46.07
332.525	32.47
332.738	28.25
332.951	34.71
333.164	40.16
333.377	30.28
333.59	43.53
333.803	30.26
334.016	16.99
334.229	-26.68
334.442	-20.12
334.655	8.1
334.868	34.08
335.081	31.42
335.294	67.48
335.507	65.27
335.72	58.76
335.933	50.85
336.146	54.54
336.359	40.86
336.572	26.17
336.785	-0.64
336.997	-0.45
337.21	-9.46
337.423	13.58
337.636	17.2
337.849	57.39
338.062	23.51
338.274	4.15
338.487	3.58
338.7	-3.78
338.913	-35
339.125	-1.9
339.338	5.64
339.551	-31.38
339.763	11.24
339.976	22.53
340.189	31.21
340.402	22.61
340.614	43.93
340.827	41.27
341.039	39.9
341.252	31.4
341.465	34.1
341.677	38.39
341.89	20.86
342.102	21.26
342.315	1.17
342.527	13.75
342.74	13.36
342.952	5.15
343.165	-6.6
343.377	39.27
343.59	9.06
343.802	-17.91
344.015	-16.39
344.227	-5.78
344.44	-19.51
344.652	11.36
344.864	21.97
345.077	26.99
345.289	11.35
345.502	8.78
345.714	-1.69
345.926	16.17
346.139	20.25
346.351	24.49
346.563	16.96
346.775	12.09
346.988	-30.79
347.2	-6.66
347.412	0.54
347.624	46.18
347.837	48.22
348.049	55.44
348.261	26.16
348.473	33.34
348.685	34.96
348.897	27.87
349.11	33.71
349.322	33.44
349.534	4.77
349.746	0.71
349.958	-19.63
350.17	-18.09
350.382	-13.39
350.594	2.03
350.806	11.13
351.018	48.9
351.23	42.31
351.442	45.57
351.654	30.41
351.866	20.41
352.078	-10.52
352.29	2.29
352.502	14.32
352.714	14.92
352.926	18.42
353.138	24.68
353.35	26.88
353.561	15.79
353.773	13.79
353.985	12.02
354.197	27.03
354.409	6.09
354.621	0.28
354.832	11.44
355.044	9.58
355.256	14.79
355.468	33.89
355.679	40.84
355.891	50.67
356.103	60.37
356.314	51.76
356.526	51.22
356.738	52.73
356.949	25.1
357.161	30.4
357.373	25.14
357.584	24.71
357.796	29.32
358.008	33.87
358.219	15.48
358.431	46.07
358.642	29.68
358.854	36.76
359.065	50.69
359.277	50.41
359.488	26.09
359.7	34.05
359.911	22.35
360.123	10.27
360.334	7.91
360.546	7.38
360.757	2.34
360.969	6.01
361.18	24.55
361.391	36.93
361.603	45.48
361.814	53.56
362.025	63.69
362.237	49.16
362.448	34.69
362.659	41.14
362.871	17.05
363.082	-2.07
363.293	-13.09
363.504	-11.28
363.716	-17.39
363.927	17.65
364.138	26.86
364.349	9.89
364.56	10.31
364.772	9.69
364.983	9.82
365.194	1.37
365.405	15.13
365.616	13.79
365.827	20.01
366.038	29.9
366.25	28.42
366.461	22.35
366.672	34.75
366.883	40.8
367.094	30.18
367.305	36.81
367.516	39.78
367.727	32.32
367.938	10.12
368.149	-1.57
368.36	-4.5
368.571	-29.48
368.781	-40.63
368.992	-31.88
369.203	-4.11
369.414	-6.26
369.625	6.2
369.836	6.35
370.047	9.4
370.258	10.33
370.468	9.83
370.679	13.85
370.89	12.55
371.101	1.74
371.312	8.08
371.522	9.33
371.733	0.71
371.944	-7.43
372.155	19.45
372.365	-1.45
372.576	7.15
372.787	2.34
372.997	22.12
373.208	15.57
373.419	24.6
373.629	6.43
373.84	34.54
374.05	30.3
374.261	28.83
374.472	33.14
374.682	32.3
374.893	27.46
375.103	11.72
375.314	11.57
375.524	16.72
375.735	14.44
375.945	19.86
376.156	22.97
376.366	30.54
376.577	33.12
376.787	38.19
376.997	24.5
377.208	24.22
377.418	18.39
377.629	19.94
377.839	32.32
378.049	35.33
378.26	35.84
378.47	43.13
378.68	36.23
378.89	13.11
379.101	15.97
379.311	15.43
379.521	3.73
379.732	22.1
379.942	38.57
380.152	36.23
380.362	43.26
380.572	47.32
380.783	26.79
380.993	22.29
381.203	14.33
381.413	11.85
381.623	17.14
381.833	24.13
382.043	31.82
382.253	36.1
382.463	37.16
382.674	33.63
382.884	25.77
383.094	13.16
383.304	12.54
383.514	12.37
383.724	8.08
383.934	16.25
384.144	18.03
384.353	19
384.563	22.6
384.773	25.9
384.983	14.39
385.193	12.87
385.403	14.25
385.613	13.31
385.823	3.86
386.033	8.41
386.242	10.57
386.452	5.32
386.662	7.42
386.872	8.06
387.082	9.35
387.291	-0.55
387.501	3.05
387.711	1.64
387.921	4.64
388.13	5.68
388.34	15
388.55	9.89
388.759	5.49
388.969	4.75
389.179	4.24
389.388	7.22
389.598	10.73
389.807	11.62
390.017	12.16
390.227	10.1
390.436	5.7
390.646	5.46
390.855	6.2
391.065	6.78
391.274	9.3
391.484	11.83
391.693	9.43
391.903	9.75
392.112	9.53
392.322	8.14
392.531	7.83
392.74	8.53
392.95	7.98
393.159	6.78
393.369	6.97
393.578	7.25
393.787	8.41
393.997	7.53
394.206	8.26
394.415	8.95
394.625	9.09
394.834	8.13
395.043	7.81
395.252	8
395.462	8.47
395.671	7.38
395.88	8.32
396.089	8.27
396.298	8.84
396.508	8
396.717	8.03
396.926	7.57
397.135	7.56
397.344	6.48
397.553	6.81
397.762	6.94
397.971	6.75
398.181	6.91
398.39	6.65
398.599	6.51
398.808	6.4
399.017	6.27
399.226	6.47
399.435	7.19
399.644	7.24
399.853	7.67
400.062	7.89
400.27	7.94
400.479	7.42
400.688	7.2
400.897	7.3
401.106	7.24
401.315	6.83
401.524	6.89
401.733	6.8
401.941	6.69
402.15	6.54
402.359	6.46
402.568	6.57
402.777	6.97
402.985	6.72
403.194	6.72
403.403	6.8
403.612	6.62
403.82	6.37
404.029	6.35
404.238	6.49
404.446	6.71
404.655	7.04
404.864	6.98
405.072	7.01
405.281	6.74
405.489	6.78
405.698	6.63
405.906	6.53
406.115	6.3
406.324	6.54
406.532	6.31
406.741	6.21
406.949	6.16
407.158	6.28
407.366	6.22
407.574	6.22
407.783	6.18
407.991	6.19
408.2	6.17
408.408	6.15
408.617	6.3
408.825	6.35
409.033	6.4
409.242	6.36
409.45	6.18
409.658	6.02
409.867	5.92
410.075	5.97
410.283	5.96
410.491	6.01
410.7	6.05
410.908	5.97
411.116	5.86
411.324	5.97
411.533	5.88
411.741	5.77
411.949	5.86
412.157	5.88
412.365	5.86
412.573	5.89
412.781	5.96
412.99	5.97
413.198	6.13
413.406	6.21
413.614	6.27
413.822	6.18
414.03	6.21
414.238	6.11
414.446	5.94
414.654	5.95
414.862	6.03
415.07	6.14
415.278	6.04
415.486	5.97
415.694	5.92
415.902	5.82
416.109	5.61
416.317	5.78
416.525	5.64
416.733	5.54
416.941	5.7
417.149	5.72
417.357	5.48
417.564	5.51
417.772	5.57
417.98	5.33
418.188	5.23
418.395	5.18
418.603	5.38
418.811	5.35
419.019	5.37
419.226	5.51
419.434	5.62
419.642	5.6
419.849	5.62
420.057	5.6
420.265	5.62
420.472	5.49
420.68	5.3
420.887	5.22
421.095	5.31
421.302	5.16
421.51	5.14
421.717	5.23
421.925	5.19
422.132	5.21
422.34	5.17
422.547	5.2
422.755	5.15
422.962	5.33
423.17	5.29
423.377	5.42
423.585	5.55
423.792	5.51
423.999	5.51
424.207	5.35
424.414	5.12
424.621	5
424.829	5.22
425.036	5.21
425.243	5.42
425.451	5.62
425.658	5.84
425.865	5.74
426.072	5.67
426.28	5.57
426.487	5.48
426.694	5.37
426.901	5.3
427.108	5.29
427.315	5.3
427.523	5.46
427.73	5.37
427.937	5.24
428.144	5.34
428.351	5.43
428.558	5.27
428.765	5.13
428.972	5.3
429.179	5.12
429.386	5.09
429.593	5.2
429.8	5.38
430.007	5.3
430.214	5.36
430.421	5.4
430.628	5.22
430.835	5.3
431.042	5.21
431.249	5.26
431.456	5.25
431.662	5.59
431.869	5.6
432.076	5.73
432.283	5.89
432.49	5.76
432.697	5.73
432.903	5.59
433.11	5.6
433.317	5.47
433.524	5.67
433.73	5.6
433.937	5.69
434.144	5.7
434.35	5.6
434.557	5.63
434.764	5.47
434.97	5.42
435.177	5.46
435.384	5.3
435.59	5.15
435.797	5.36
436.003	5.44
436.21	5.11
436.416	5.3
436.623	5.36
436.829	5.26
437.036	5.17
437.242	5.45
437.449	5.48
437.655	5.59
437.862	5.72
438.068	5.84
438.275	5.91
438.481	5.95
438.687	5.81
438.894	5.79
439.1	5.71
439.307	5.67
439.513	5.66
439.719	5.73
439.926	5.67
440.132	5.8
440.338	5.81
440.544	5.86
440.751	5.88
440.957	5.89
441.163	5.79
441.369	5.8
441.575	5.7
441.782	5.75
441.988	5.62
442.194	5.66
442.4	5.74
442.606	5.77
442.812	5.74
443.018	5.84
443.224	5.72
443.431	5.64
443.637	5.63
443.843	5.52
444.049	5.5
444.255	5.49
444.461	5.47
444.667	5.49
444.873	5.52
445.079	5.57
445.284	5.69
445.49	5.77
445.696	5.77
445.902	5.81
446.108	5.76
446.314	5.71
446.52	5.67
446.726	5.74
446.931	5.74
447.137	5.74
447.343	5.73
447.549	5.72
447.755	5.7
447.96	5.7
448.166	5.69
448.372	5.77
448.578	5.68
448.783	5.79
448.989	5.8
449.195	5.84
449.4	5.86
449.606	5.95
449.812	5.9
450.017	5.99
450.223	5.93
450.428	5.93
450.634	5.99
450.84	5.82
451.045	5.77
451.251	5.89
451.456	6
451.662	5.98
451.867	6.15
452.073	6.15
452.278	6.02
452.483	5.98
452.689	5.97
452.894	5.99
453.1	6
453.305	6.09
453.51	6.05
453.716	6.08
453.921	6.05
454.127	6.12
454.332	6.14
454.537	6.25
454.742	6.22
454.948	6.17
455.153	6.11
455.358	6.13
455.563	6.09
455.769	6.04
455.974	6.09
456.179	6.05
456.384	5.85
456.589	5.79
456.795	5.81
457	5.77
457.205	5.77
457.41	5.96
457.615	5.9
457.82	5.89
458.025	5.87
458.23	5.88
458.435	5.8
458.64	5.71
458.845	5.83
459.05	5.81
459.255	5.88
459.46	5.93
459.665	6.11
459.87	6.05
460.075	6.18
460.28	6.09
460.485	6.19
460.69	6.14
460.895	6.02
461.099	6
461.304	6.03
461.509	6.02
461.714	6.07
461.919	6.2
462.123	6.16
462.328	6.15
462.533	6.13
462.738	6.12
462.942	6.12
463.147	6.16
463.352	6.27
463.556	6.23
463.761	6.2
463.966	6.27
464.17	6.28
464.375	6.23
464.58	6.3
464.784	6.32
464.989	6.35
465.193	6.21
465.398	6.39
465.602	6.53
465.807	6.65
466.011	6.68
466.216	6.82
466.42	6.71
466.625	6.65
466.829	6.71
467.034	6.67
467.238	6.74
467.443	6.78
467.647	6.55
467.851	6.44
468.056	6.38
468.26	6.34
468.464	6.32
468.669	6.59
468.873	6.59
469.077	6.65
469.282	6.72
469.486	6.6
469.69	6.47
469.894	6.47
470.099	6.42
470.303	6.3
470.507	6.37
470.711	6.49
470.915	6.5
471.119	6.68
471.324	6.71
471.528	6.59
471.732	6.52
471.936	6.54
472.14	6.49
472.344	6.57
472.548	6.76
472.752	6.69
472.956	6.72
473.16	6.77
473.364	6.69
473.568	6.6
473.772	6.61
473.976	6.53
474.18	6.45
474.384	6.47
474.588	6.51
474.792	6.6
474.995	6.69
475.199	6.64
475.403	6.62
475.607	6.67
475.811	6.6
476.015	6.48
476.218	6.53
476.422	6.57
476.626	6.61
476.83	6.66
477.033	6.79
477.237	6.78
477.441	6.81
477.644	6.73
477.848	6.72
478.052	6.57
478.255	6.5
478.459	6.52
478.663	6.56
478.866	6.51
479.07	6.64
479.273	6.67
479.477	6.64
479.681	6.68
479.884	6.7
480.088	6.64
480.291	6.69
480.495	6.7
480.698	6.69
480.901	6.67
481.105	6.75
481.308	6.66
481.512	6.63
481.715	6.63
481.919	6.65
482.122	6.61
482.325	6.66
482.529	6.69
482.732	6.71
482.935	6.7
483.138	6.76
483.342	6.76
483.545	6.78
483.748	6.78
483.952	6.8
484.155	6.76
484.358	6.75
484.561	6.72
484.764	6.63
484.967	6.64
485.171	6.57
485.374	6.59
485.577	6.64
485.78	6.65
485.983	6.63
486.186	6.74
486.389	6.68
486.592	6.69
486.795	6.72
486.998	6.76
487.201	6.68
487.404	6.67
487.607	6.76
487.81	6.7
488.013	6.67
488.216	6.71
488.419	6.78
488.622	6.6
488.825	6.68
489.028	6.67
489.231	6.7
489.433	6.67
489.636	6.72
489.839	6.69
490.042	6.73
490.245	6.75
490.447	6.8
490.65	6.8
490.853	6.87
491.056	6.85
491.258	6.84
491.461	6.85
491.664	6.74
491.866	6.68
492.069	6.67
492.272	6.6
492.474	6.5
492.677	6.57
492.879	6.56
493.082	6.62
493.285	6.69
493.487	6.74
493.69	6.75
493.892	6.79
494.095	6.83
494.297	6.85
494.5	6.92
494.702	6.95
494.905	6.91
495.107	6.85
495.309	6.82
495.512	6.78
495.714	6.8
495.917	6.94
496.119	6.99
496.321	6.99
496.524	6.96
496.726	7
496.928	6.9
497.13	6.86
497.333	6.85
497.535	7.02
497.737	7.04
497.939	7.13
498.142	7.19
498.344	7.25
498.546	7.23
498.748	7.24
498.95	7.23
499.152	7.2
499.355	7.21
499.557	7.18
499.759	7.29
499.961	7.25
500.163	7.31
500.365	7.44
500.567	7.45
500.769	7.39
500.971	7.47
501.173	7.54
501.375	7.42
501.577	7.41
501.779	7.37
501.981	7.41
502.183	7.3
502.385	7.28
502.587	7.26
502.788	7.3
502.99	7.21
503.192	7.27
503.394	7.33
503.596	7.31
503.798	7.32
503.999	7.39
504.201	7.34
504.403	7.37
504.605	7.36
504.806	7.32
505.008	7.27
505.21	7.27
505.411	7.19
505.613	7.22
505.815	7.26
506.016	7.31
506.218	7.28
506.42	7.25
506.621	7.22
506.823	7.19
507.024	7.12
507.226	7.2
507.427	7.21
507.629	7.18
507.83	7.14
508.032	7.03
508.233	7.01
508.435	7.06
508.636	7.13
508.838	7.07
509.039	7.1
509.24	7.09
509.442	7.04
509.643	7
509.845	7.06
510.046	7.11
510.247	7.17
510.448	7.12
510.65	7.13
510.851	7.1
511.052	7.15
511.254	7.01
511.455	7.05
511.656	6.97
511.857	6.96
512.058	6.87
512.26	6.91
512.461	6.85
512.662	6.91
512.863	6.87
513.064	6.84
513.265	6.8
513.466	6.82
513.667	6.83
513.868	6.78
514.069	6.73
514.27	6.72
514.471	6.67
514.672	6.61
514.873	6.59
515.074	6.62
515.275	6.67
515.476	6.72
515.677	6.69
515.878	6.77
516.079	6.8
516.28	6.73
516.481	6.68
516.682	6.67
516.882	6.64
517.083	6.59
517.284	6.53
517.485	6.52
517.686	6.55
517.886	6.55
518.087	6.5
518.288	6.51
518.488	6.48
518.689	6.48
518.89	6.44
519.091	6.5
519.291	6.49
519.492	6.52
519.692	6.54
519.893	6.59
520.094	6.53
520.294	6.53
520.495	6.6
520.695	6.59
520.896	6.58
521.096	6.62
521.297	6.69
521.497	6.63
521.698	6.6
521.898	6.55
522.099	6.56
522.299	6.5
522.499	6.49
522.7	6.45
522.9	6.5
523.101	6.41
523.301	6.38
523.501	6.39
523.702	6.41
523.902	6.38
524.102	6.47
524.302	6.47
524.503	6.4
524.703	6.4
524.903	6.34
525.103	6.37
525.304	6.34
525.504	6.42
525.704	6.4
525.904	6.43
526.104	6.41
526.304	6.48
526.504	6.46
526.705	6.43
526.905	6.46
527.105	6.44
527.305	6.46
527.505	6.45
527.705	6.53
527.905	6.58
528.105	6.48
528.305	6.46
528.505	6.45
528.705	6.39
528.905	6.28
529.105	6.36
529.304	6.35
529.504	6.39
529.704	6.45
529.904	6.49
530.104	6.47
530.304	6.43
530.503	6.35
530.703	6.29
530.903	6.28
531.103	6.26
531.303	6.24
531.502	6.31
531.702	6.32
531.902	6.37
532.101	6.36
532.301	6.36
532.501	6.35
532.7	6.35
532.9	6.36
533.1	6.38
533.299	6.44
533.499	6.43
533.698	6.46
533.898	6.44
534.097	6.43
534.297	6.42
534.496	6.4
534.696	6.4
534.895	6.44
535.095	6.44
535.294	6.47
535.494	6.47
535.693	6.49
535.892	6.47
536.092	6.49
536.291	6.48
536.491	6.52
536.69	6.45
536.889	6.38
537.088	6.32
537.288	6.32
537.487	6.31
537.686	6.38
537.886	6.45
538.085	6.54
538.284	6.57
538.483	6.58
538.682	6.61
538.882	6.59
539.081	6.56
539.28	6.54
539.479	6.54
539.678	6.49
539.877	6.51
540.076	6.52
540.275	6.56
540.474	6.53
540.673	6.58
540.872	6.58
541.071	6.58
541.27	6.57
541.469	6.57
541.668	6.54
541.867	6.55
542.066	6.59
542.265	6.63
542.464	6.66
542.663	6.72
542.862	6.79
543.06	6.79
543.259	6.76
543.458	6.77
543.657	6.81
543.856	6.79
544.054	6.81
544.253	6.82
544.452	6.83
544.651	6.82
544.849	6.8
545.048	6.78
545.247	6.81
545.445	6.79
545.644	6.78
545.843	6.82
546.041	6.81
546.24	6.84
546.438	6.89
546.637	6.93
546.836	6.94
547.034	6.97
547.233	7.04
547.431	7.09
547.63	7.09
547.828	7.17
548.027	7.16
548.225	7.11
548.423	7.15
548.622	7.15
548.82	7.05
549.019	7.14
549.217	7.13
549.415	7.1
549.614	7.2
549.812	7.2
550.01	7.22
550.209	7.31
550.407	7.34
550.605	7.33
550.803	7.43
551.002	7.43
551.2	7.45
551.398	7.59
551.596	7.6
551.794	7.62
551.993	7.64
552.191	7.62
552.389	7.55
552.587	7.6
552.785	7.63
552.983	7.73
553.181	7.83
553.379	7.87
553.577	7.93
553.775	8
553.973	7.96
554.171	8.01
554.369	8.08
554.567	8.14
554.765	8.18
554.963	8.21
555.161	8.19
555.359	8.22
555.557	8.2
555.755	8.22
555.952	8.25
556.15	8.34
556.348	8.41
556.546	8.49
556.744	8.52
556.941	8.59
557.139	8.58
557.337	8.65
557.535	8.69
557.732	8.77
557.93	8.89
558.128	8.95
558.325	8.94
558.523	8.98
558.721	9.03
558.918	8.95
559.116	9.01
559.313	9.05
559.511	9.15
559.708	9.19
559.906	9.35
560.104	9.35
560.301	9.51
560.498	9.52
560.696	9.55
560.893	9.58
561.091	9.68
561.288	9.67
561.486	9.67
561.683	9.74
561.88	9.73
562.078	9.73
562.275	9.7
562.473	9.75
562.67	9.79
562.867	9.88
563.064	9.99
563.262	10.04
563.459	10.14
563.656	10.09
563.853	10.02
564.051	9.97
564.248	10.06
564.445	10.07
564.642	10.15
564.839	10.27
565.036	10.36
565.234	10.4
565.431	10.47
565.628	10.58
565.825	10.59
566.022	10.74
566.219	10.81
566.416	10.83
566.613	10.85
566.81	11
567.007	10.9
567.204	10.88
567.401	10.92
567.598	10.94
567.795	10.92
567.991	10.99
568.188	11.05
568.385	11.01
568.582	11.02
568.779	11.03
568.976	11.19
569.172	11.2
569.369	11.28
569.566	11.35
569.763	11.33
569.96	11.26
570.156	11.33
570.353	11.33
570.55	11.34
570.746	11.38
570.943	11.36
571.14	11.36
571.336	11.44
571.533	11.4
571.729	11.4
571.926	11.45
572.123	11.43
572.319	11.45
572.516	11.5
572.712	11.62
572.909	11.61
573.105	11.6
573.302	11.58
573.498	11.56
573.695	11.43
573.891	11.44
574.087	11.54
574.284	11.52
574.48	11.49
574.677	11.64
574.873	11.65
575.069	11.67
575.266	11.73
575.462	11.76
575.658	11.65
575.854	11.68
576.051	11.54
576.247	11.45
576.443	11.54
576.639	11.62
576.835	11.51
577.032	11.53
577.228	11.59
577.424	11.52
577.62	11.38
577.816	11.39
578.012	11.42
578.208	11.32
578.404	11.29
578.6	11.43
578.796	11.4
578.993	11.43
579.189	11.47
579.384	11.44
579.58	11.42
579.776	11.49
579.972	11.41
580.168	11.34
580.364	11.33
580.56	11.23
580.756	11.13
580.952	11.12
581.148	11.18
581.343	11.18
581.539	11.26
581.735	11.27
581.931	11.23
582.127	11.2
582.322	11.24
582.518	11.15
582.714	11.15
582.909	11.21
583.105	11.2
583.301	11.13
583.496	11.13
583.692	11.14
583.888	11.13
584.083	11.07
584.279	11.16
584.474	11.11
584.67	11
584.866	10.94
585.061	10.93
585.257	10.8
585.452	10.85
585.648	10.91
585.843	10.96
586.039	11.05
586.234	11.06
586.429	11.09
586.625	11.05
586.82	11.01
587.015	10.91
587.211	10.86
587.406	10.79
587.601	10.82
587.797	10.84
587.992	10.8
588.187	10.88
588.383	10.9
588.578	10.91
588.773	10.81
588.968	10.86
589.163	10.77
589.359	10.75
589.554	10.75
589.749	10.83
589.944	10.82
590.139	10.8
590.334	10.79
590.529	10.84
590.724	10.94
590.919	11.01
591.114	11.11
591.309	11.09
591.504	11.09
591.699	11
591.894	10.93
592.089	10.92
592.284	11
592.479	11.04
592.674	11.06
592.869	11.17
593.064	11.25
593.259	11.28
593.454	11.2
593.648	11.26
593.843	11.22
594.038	11.23
594.233	11.25
594.428	11.38
594.622	11.46
594.817	11.59
595.012	11.54
595.206	11.68
595.401	11.69
595.596	11.62
595.79	11.54
595.985	11.62
596.18	11.6
596.374	11.61
596.569	11.74
596.763	11.86
596.958	12.06
597.153	12
597.347	12.05
597.542	12.11
597.736	12.11
597.931	12.11
598.125	12.28
598.319	12.33
598.514	12.35
598.708	12.42
598.903	12.38
599.097	12.44
599.291	12.48
599.486	12.54
599.68	12.53
599.874	12.48
600.069	12.41
600.263	12.5
600.457	12.55
600.651	12.58
600.846	12.67
601.04	12.73
601.234	12.64
601.428	12.59
601.622	12.68
601.817	12.76
602.011	12.75
602.205	12.9
602.399	12.95
602.593	12.87
602.787	12.8
602.981	12.87
603.175	12.81
603.369	12.74
603.563	12.83
603.757	12.83
603.951	12.72
604.145	12.69
604.339	12.74
604.533	12.67
604.727	12.8
604.921	12.86
605.115	12.88
605.309	12.84
605.502	12.91
605.696	12.73
605.89	12.69
606.084	12.79
606.278	12.75
606.471	12.63
606.665	12.55
606.859	12.48
607.053	12.29
607.246	12.24
607.44	12.22
607.634	12.25
607.827	12.29
608.021	12.15
608.214	12.06
608.408	12.05
608.602	12.05
608.795	11.95
608.989	12
609.182	12.09
609.376	12.07
609.569	11.97
609.763	11.92
609.956	11.99
610.15	11.82
610.343	11.71
610.537	11.67
610.73	11.67
610.923	11.56
611.117	11.54
611.31	11.56
611.504	11.55
611.697	11.53
611.89	11.41
612.083	11.41
612.277	11.32
612.47	11.28
612.663	11.16
612.856	11.08
613.05	10.99
613.243	11.02
613.436	10.89
613.629	10.81
613.822	10.85
614.015	10.74
614.209	10.58
614.402	10.61
614.595	10.65
614.788	10.58
614.981	10.57
615.174	10.5
615.367	10.47
615.56	10.35
615.753	10.29
615.946	10.3
616.139	10.34
616.332	10.3
616.525	10.31
616.718	10.28
616.911	10.28
617.103	10.22
617.296	10.16
617.489	10.15
617.682	10.16
617.875	10.14
618.067	10.07
618.26	10.02
618.453	9.94
618.646	9.93
618.838	9.86
619.031	9.76
619.224	9.74
619.417	9.85
619.609	9.85
619.802	9.79
619.994	9.77
620.187	9.81
620.38	9.66
620.572	9.59
620.765	9.63
620.957	9.73
621.15	9.68
621.342	9.63
621.535	9.63
621.727	9.55
621.92	9.47
622.112	9.35
622.305	9.4
622.497	9.39
622.69	9.31
622.882	9.36
623.074	9.47
623.267	9.4
623.459	9.36
623.651	9.47
623.844	9.4
624.036	9.29
624.228	9.22
624.42	9.21
624.613	9.23
624.805	9.26
624.997	9.35
625.189	9.36
625.381	9.38
625.574	9.32
625.766	9.29
625.958	9.21
626.15	9.29
626.342	9.23
626.534	9.22
626.726	9.18
626.918	9.14
627.11	9.08
627.302	9.06
627.494	9.03
627.686	9.03
627.878	9.08
628.07	9.06
628.262	9.06
628.454	9
628.646	8.98
628.838	8.94
629.029	8.9
629.221	8.85
629.413	8.9
629.605	8.82
629.797	8.82
629.989	8.83
630.18	8.79
630.372	8.59
630.564	8.68
630.755	8.59
630.947	8.54
631.139	8.54
631.33	8.63
631.522	8.6
631.714	8.6
631.905	8.59
632.097	8.64
632.289	8.67
632.48	8.58
632.672	8.58
632.863	8.51
633.055	8.43
633.246	8.39
633.438	8.4
633.629	8.43
633.821	8.43
634.012	8.46
634.203	8.4
634.395	8.42
634.586	8.54
634.777	8.63
634.969	8.59
635.16	8.68
635.351	8.67
635.543	8.55
635.734	8.51
635.925	8.5
636.117	8.5
636.308	8.53
636.499	8.46
636.69	8.4
636.881	8.47
637.073	8.48
637.264	8.46
637.455	8.48
637.646	8.49
637.837	8.44
638.028	8.34
638.219	8.31
638.41	8.31
638.601	8.36
638.792	8.34
638.983	8.35
639.174	8.29
639.365	8.3
639.556	8.27
639.747	8.32
639.938	8.38
640.129	8.46
640.32	8.48
640.511	8.5
640.701	8.45
640.892	8.49
641.083	8.49
641.274	8.45
641.465	8.38
641.655	8.39
641.846	8.29
642.037	8.28
642.228	8.25
642.418	8.27
642.609	8.18
642.8	8.13
642.99	8.07
643.181	8.09
643.372	8.1
643.562	8.11
643.753	8.27
643.943	8.26
644.134	8.28
644.324	8.32
644.515	8.36
644.705	8.17
644.896	8.22
645.086	8.22
645.277	8.22
645.467	8.26
645.658	8.31
645.848	8.29
646.038	8.27
646.229	8.27
646.419	8.26
646.61	8.35
646.8	8.34
646.99	8.38
647.18	8.3
647.371	8.28
647.561	8.2
647.751	8.16
647.941	8.09
648.132	8.14
648.322	8.12
648.512	8.11
648.702	8.14
648.892	8.09
649.082	8.06
649.272	7.97
649.462	8.01
649.653	8.03
649.843	8.09
650.033	8.17
650.223	8.12
650.413	8.1
650.603	8.12
650.793	8.11
650.983	8.02
651.172	8.12
651.362	8.07
651.552	7.95
651.742	7.87
651.932	7.86
652.122	7.92
652.312	7.94
652.502	7.94
652.691	7.92
652.881	7.97
653.071	7.89
653.261	7.8
653.45	7.75
653.64	7.78
653.83	7.74
654.019	7.57
654.209	7.55
654.399	7.47
654.588	7.42
654.778	7.29
654.968	7.27
655.157	7.23
655.347	7.25
655.536	7.17
655.726	7.12
655.915	7.07
656.105	6.93
656.294	6.82
656.484	6.75
656.673	6.73
656.863	6.87
657.052	6.91
657.241	6.8
657.431	6.76
657.62	6.66
657.809	6.43
657.999	6.43
658.188	6.47
658.377	6.44
658.567	6.35
658.756	6.24
658.945	6.18
659.134	6.09
659.324	6.07
659.513	6.05
659.702	6.05
659.891	5.93
660.08	5.76
660.269	5.66
660.458	5.63
660.648	5.64
660.837	5.52
661.026	5.55
661.215	5.54
661.404	5.46
661.593	5.29
661.782	5.22
661.971	5.31
662.16	5.23
662.349	5.2
662.538	5.33
662.726	5.39
662.915	5.28
663.104	5.27
663.293	5.18
663.482	5.11
663.671	5.07
663.86	5.06
664.048	5.14
664.237	5.27
664.426	5.21
664.615	5.16
664.803	5.2
664.992	4.88
665.181	4.82
665.369	4.85
665.558	4.89
665.747	4.88
665.935	5.13
666.124	5.13
666.312	5.08
666.501	5.16
666.69	5.16
666.878	5.03
667.067	4.89
667.255	4.97
667.444	5.06
667.632	5.09
667.82	5.18
668.009	5.32
668.197	5.31
668.386	5.13
668.574	5.12
668.762	5.18
668.951	5.29
669.139	5.22
669.327	5.26
669.516	5.2
669.704	5.1
669.892	4.97
670.08	5.06
670.269	5.01
670.457	5.04
670.645	5.08
670.833	5.11
671.021	5.14
671.21	5.21
671.398	5.16
671.586	5.19
671.774	5.32
671.962	5.3
672.15	5.35
672.338	5.41
672.526	5.55
672.714	5.57
672.902	5.49
673.09	5.36
673.278	5.39
673.466	5.34
673.654	5.41
673.842	5.53
674.03	5.71
674.218	5.8
674.405	5.78
674.593	5.71
674.781	5.76
674.969	5.81
675.157	5.73
675.344	5.68
675.532	5.73
675.72	5.8
675.908	5.7
676.095	5.76
676.283	5.9
676.471	5.82
676.658	5.76
676.846	5.79
677.033	5.92
677.221	5.91
677.409	5.89
677.596	6.01
677.784	6.06
677.971	6.03
678.159	6.14
678.346	6.24
678.534	6.19
678.721	6.28
678.909	6.19
679.096	6.17
679.283	6.16
679.471	6.22
679.658	6.17
679.846	6.22
680.033	6.39
680.22	6.54
680.408	6.58
680.595	6.62
680.782	6.6
680.969	6.46
681.157	6.27
681.344	6.29
681.531	6.39
681.718	6.49
681.905	6.54
682.093	6.58
682.28	6.61
682.467	6.67
682.654	6.79
682.841	6.74
683.028	6.91
683.215	6.92
683.402	6.87
683.589	6.73
683.776	6.85
683.963	6.89
684.15	7.06
684.337	7.05
684.524	7.31
684.711	7.4
684.898	7.47
685.085	7.26
685.271	7.39
685.458	7.52
685.645	7.42
685.832	7.33
686.019	7.46
686.205	7.56
686.392	7.53
686.579	7.79
686.766	8.11
686.952	8.32
687.139	8.42
687.326	8.45
687.512	8.49
687.699	8.48
687.886	8.42
688.072	8.44
688.259	8.82
688.445	8.99
688.632	9.07
688.818	9.32
689.005	9.57
689.191	9.58
689.378	9.79
689.564	10.21
689.751	10.4
689.937	10.66
690.124	10.89
690.31	11.03
690.496	11.28
690.683	11.58
690.869	11.76
691.055	11.97
691.242	12.3
691.428	12.35
691.614	12.61
691.8	12.9
691.987	13.34
692.173	13.78
692.359	14.14
692.545	14.54
692.731	14.87
692.918	15.18
693.104	15.5
693.29	15.9
693.476	16.33
693.662	16.74
693.848	17.26
694.034	17.48
694.22	18.05
694.406	18.45
694.592	18.79
694.778	18.99
694.964	19.6
695.15	19.88
695.336	20.21
695.522	20.99
695.708	21.62
695.894	22.03
696.08	22.6
696.265	23.22
696.451	23.51
696.637	24.05
696.823	24.6
697.009	25.1
697.194	25.5
697.38	26.05
697.566	26.47
697.751	26.89
697.937	27.49
698.123	28.11
698.308	28.65
698.494	29.3
698.68	30.03
698.865	30.45
699.051	30.99
699.236	31.9
699.422	32.54
699.607	32.9
699.793	33.44
699.978	34.05
700.164	34.3
700.349	34.82
700.535	35.45
700.72	36.18
700.906	36.86
701.091	37.2
701.276	37.7
701.462	38.16
701.647	38.87
701.832	39.24
702.018	39.9
702.203	40.35
702.388	40.86
702.573	40.99
702.759	41.58
702.944	42.02
703.129	42.4
703.314	42.97
703.499	43.29
703.684	43.53
703.87	44.05
704.055	44.7
704.24	45.22
704.425	45.79
704.61	46.41
704.795	46.82
704.98	47.14
705.165	47.58
705.35	48.1
705.535	48.4
705.72	48.89
705.905	49.04
706.09	49.39
706.275	49.74
706.459	50.02
706.644	50.33
706.829	51.09
707.014	51.4
707.199	51.83
707.384	52.01
707.568	52.4
707.753	52.54
707.938	52.44
708.123	52.61
708.307	53.17
708.492	53.28
708.677	53.32
708.861	53.83
709.046	53.98
709.231	54.31
709.415	54.55
709.6	54.69
709.784	55
709.969	55.58
710.153	55.9
710.338	56.25
710.522	56.78
710.707	57.06
710.891	56.74
711.076	56.57
711.26	56.66
711.445	56.81
711.629	57.12
711.813	57.5
711.998	57.88
712.182	58.1
712.366	58.07
712.551	57.61
712.735	58.05
712.919	58.01
713.103	58.06
713.288	58.65
713.472	59
713.656	59.01
713.84	59.64
714.024	60.21
714.208	60.11
714.393	60.42
714.577	60.43
714.761	60.06
714.945	60.19
715.129	60.34
715.313	60.56
715.497	60.86
715.681	60.94
715.865	60.49
716.049	60.61
716.233	60.6
716.417	60.58
716.601	60.94
716.785	61.37
716.968	60.92
717.152	61.26
717.336	62.01
717.52	62.22
717.704	62.22
717.888	63.05
718.071	63.35
718.255	63.34
718.439	63.32
718.622	63.35
718.806	63.01
718.99	62.49
719.174	62.07
719.357	62.31
719.541	62.81
719.724	63.04
719.908	63.3
720.092	63.78
720.275	63.91
720.459	63.74
720.642	64.12
720.826	64.83
721.009	64.17
721.193	63.69
721.376	63.78
721.559	64.13
721.743	63.93
721.926	64.54
722.11	65.05
722.293	65
722.476	64.83
722.66	65.08
722.843	65.25
723.026	65.68
723.21	66.24
723.393	65.56
723.576	65.5
723.759	65.79
723.942	65.82
724.126	66.05
724.309	66.69
724.492	67.13
724.675	66.91
724.858	67.02
725.041	66.8
725.224	66.89
725.407	66.56
725.59	67.22
725.774	66.7
725.957	66.62
726.14	67.01
726.322	67.23
726.505	66.92
726.688	67.67
726.871	67.81
727.054	67.69
727.237	67.76
727.42	68.19
727.603	67.73
727.786	68.28
727.968	68.68
728.151	68.79
728.334	68.66
728.517	69.25
728.699	68.95
728.882	69.21
729.065	69.35
729.248	69.07
729.43	69.64
729.613	69.64
729.796	69.68
729.978	70.26
730.161	70.28
730.343	70.19
730.526	70.99
730.708	70.8
730.891	70.14
731.073	71.01
731.256	71.28
731.438	70.78
731.621	70.42
731.803	71.75
731.986	72.61
732.168	72.48
732.35	72.93
732.533	74.19
732.715	73.88
732.898	72.45
733.08	72.76
733.262	72.99
733.444	72.3
733.627	71.99
733.809	72.81
733.991	72.91
734.173	73.57
734.355	74.11
734.538	74.11
734.72	74.47
734.902	74.76
735.084	74.58
735.266	74.88
735.448	75.88
735.63	75.62
735.812	75.02
735.994	73.62
736.176	73.65
736.358	73.44
736.54	74.75
736.722	74.79
736.904	76.4
737.086	76.51
737.268	76.03
737.45	75.36
737.632	75.76
737.814	75.79
737.995	76.32
738.177	76.76
738.359	75.73
738.541	75.5
738.723	75.61
738.904	74.7
739.086	74.8
739.268	75.68
739.449	76.96
739.631	76.22
739.813	76.92
739.994	77.29
740.176	77.46
740.358	77.05
740.539	78.04
740.721	77.62
740.902	77.82
741.084	78.19
741.265	78.45
741.447	77.9
741.628	78.14
741.81	77.36
741.991	77.51
742.172	77.08
742.354	78.31
742.535	78.88
742.717	79.8
742.898	80.14
743.079	81.25
743.261	81.35
743.442	82.03
743.623	81.65
743.804	80.5
743.986	79.16
744.167	78.51
744.348	78.95
744.529	78.92
744.71	79.49
744.891	80.06
745.073	79.92
745.254	79.52
745.435	79.87
745.616	79.97
745.797	80.12
745.978	80.98
746.159	80.61
746.34	81.49
746.521	81.52
746.702	82.46
746.883	82.28
747.064	80.83
747.245	79.92
747.426	80.16
747.606	79.94
747.787	79.1
747.968	80.31
748.149	80.9
748.33	80.67
748.51	79.71
748.691	79.87
748.872	78.9
749.053	78.59
749.233	78.72
749.414	79.44
749.595	80.97
749.775	82.46
749.956	81.5
750.137	81
750.317	79.97
750.498	78.87
750.678	78.67
750.859	80.02
751.04	80.18
751.22	80.6
751.4	79.74
751.581	79.58
751.761	79.67
751.942	80.34
752.122	80.58
752.303	81.78
752.483	81.67
752.663	81.87
752.844	81.29
753.024	82.19
753.204	82.84
753.385	83.35
753.565	83.08
753.745	83.69
753.925	84.34
754.106	82.73
754.286	80.93
754.466	80.59
754.646	80.15
754.826	79.06
755.006	80.01
755.187	82.51
755.367	82.71
755.547	81.2
755.727	80.2
755.907	80.05
756.087	79.96
756.267	80.1
756.447	82.15
756.627	82.42
756.807	82.44
756.987	82.16
757.167	81.13
757.346	82.35
757.526	82.55
757.706	83.22
757.886	82.5
758.066	83.42
758.246	82.19
758.425	82.38
758.605	81.28
758.785	81.98
758.965	81.83
759.144	80.93
759.324	80.59
759.504	81.42
759.683	81.2
759.863	79.88
760.043	81.05
760.222	82.31
760.402	82.25
760.581	81.95
760.761	83.16
760.94	81.76
761.12	79.8
761.299	79.81
761.479	79.39
761.658	78.95
761.838	79.41
762.017	79.84
762.197	80.77
762.376	80.91
762.555	81.23
762.735	82.71
762.914	80.47
763.093	79.77
763.273	79.56
763.452	80.45
763.631	78.7
763.81	79.67
763.99	79.52
764.169	80.37
764.348	77.63
764.527	78.57
764.706	80.01
764.885	79.46
765.064	78.1
765.243	80.02
765.423	78.33
765.602	77.5
765.781	76.88
765.96	76.32
766.139	75.33
766.318	75.55
766.497	76.78
766.676	76.42
766.854	77
767.033	77.27
767.212	79.1
767.391	80.5
767.57	81.43
767.749	82.46
767.928	81.88
768.106	79.22
768.285	75.82
768.464	75.77
768.643	73.92
768.821	73.36
769	74.38
769.179	75.44
769.357	74.48
769.536	76.19
769.715	77.8
769.893	78.87
770.072	79.5
770.25	80.09
770.429	80.57
770.607	79.02
770.786	80.05
770.964	78.65
771.143	78.68
771.321	77.45
771.5	81.25
771.678	79.69
771.857	81.6
772.035	80.78
772.213	81.37
772.392	78.72
772.57	80.58
772.748	79.51
772.927	80.57
773.105	79.43
773.283	78.98
773.461	77.09
773.64	78.23
773.818	76.23
773.996	77.14
774.174	77.17
774.352	77.67
774.531	74.52
774.709	75.1
774.887	75.18
775.065	75.04
775.243	74.92
775.421	76
775.599	79.42
775.777	78.85
775.955	77.29
776.133	78.32
776.311	79.51
776.489	78.3
776.667	76.4
776.844	79.22
777.022	77.82
777.2	79.2
777.378	77.39
777.556	78.75
777.734	78.25
777.911	77.85
778.089	78.33
778.267	78.12
778.445	79.68
778.622	77.35
778.8	76.39
778.978	73.32
779.155	73.13
779.333	72.49
779.511	71.81
779.688	72.66
779.866	69.24
780.043	71.33
780.221	70.65
780.398	73.32
780.576	71.89
780.753	76.43
780.931	75.99
781.108	75.08
781.286	76.54
781.463	78.29
781.64	77.7
781.818	75.79
781.995	76.9
782.172	74.35
782.35	73.27
782.527	69.77
782.704	71.82
782.882	69.87
783.059	73.24
783.236	72.72
783.413	78.32
783.59	78.5
783.768	79.23
783.945	79
784.122	80.41
784.299	79.44
784.476	78.08
784.653	79.71
784.83	77.9
785.007	78.23
785.184	76.44
785.361	76.78
785.538	76.18
785.715	77.16
785.892	75.42
786.069	78.92
786.246	79.46
786.423	81.99
786.6	83.79
786.776	82.59
786.953	79.86
787.13	79.91
787.307	78.84
787.484	77.41
787.66	79.76
787.837	80.51
788.014	78.97
788.191	77.44
788.367	76.87
788.544	81.64
788.721	80.54
788.897	80.87
789.074	79.33
789.25	78.09
789.427	74.25
789.603	77.98
789.78	81.45
789.956	83.93
790.133	83.35
790.309	82.17
790.486	75.9
790.662	71.18
790.839	68.57
791.015	70.86
791.192	69.53
791.368	70.4
791.544	71.65
791.721	73.36
791.897	73.72
792.073	75.33
792.249	74.7
792.426	75.14
792.602	76.23
792.778	73.02
792.954	73.2
793.13	75.53
793.307	72.7
793.483	68.64
793.659	72.03
793.835	74.72
794.011	72.9
794.187	70.16
794.363	74.98
794.539	75.07
794.715	70.86
794.891	68.23
795.067	71.55
795.243	70.01
795.419	67.06
795.595	66.69
795.771	69.94
795.947	76.08
796.122	72.47
796.298	72.52
796.474	70.94
796.65	69.49
796.826	62.41
797.001	67.03
797.177	72.06
797.353	76.89
797.529	78.88
797.704	84.46
797.88	83.52
798.056	76.6
798.231	70.14
798.407	72.39
798.582	64.07
798.758	66.13
798.934	67.75
799.109	70.09
799.285	67.89
799.46	80.07
799.636	79.26
799.811	79.4
799.986	86.83
800.162	89.91
800.337	83.87
800.513	76.16
800.688	77.24
800.863	72.95
801.039	73
801.214	68.41
801.389	73.94
801.565	77.34
801.74	75.27
801.915	68.31
802.09	73.56
802.265	71.05
802.441	75.52
802.616	76.15
802.791	87.64
802.966	84.11
803.141	85.51
803.316	67.15
803.491	60.1
803.666	42.89
803.841	54.38
804.016	57.07
804.191	69.04
804.366	77.39
804.541	89.16
804.716	77.83
804.891	71.44
805.066	67.05
805.241	73.25
805.416	75.09
805.591	81.35
805.765	93.55
805.94	91.01
806.115	77.9
806.29	72.31
806.464	72.97
806.639	67.52
806.814	69.19
806.989	65.55
807.163	69.32
807.338	70.49
807.512	69.49
807.687	68.07
807.862	67.45
808.036	65.16
808.211	64.76
808.385	59.17
808.56	62.22
808.734	64.29
808.909	60.56
809.083	56.77
809.258	56.01
809.432	56.67
809.606	59.16
809.781	62.05
809.955	65.15
810.13	69.29
810.304	69.79
810.478	66.45
810.652	67.82
810.827	63.06
811.001	62.13
811.175	59.21
811.349	75.72
811.524	82.03
811.698	80.01
811.872	81.2
812.046	93
812.22	77.32
812.394	62.92
812.568	70.07
812.742	75.03
812.916	69.68
813.09	82.59
813.264	93.4
813.438	83.7
813.612	83.12
813.786	71.02
813.96	66.04
814.134	62.16
814.308	78.04
814.482	75.91
814.656	85.57
814.83	75.09
815.003	80.6
815.177	75.33
815.351	73.56
815.525	68.72
815.698	78.95
815.872	71.07
816.046	74.81
816.219	71.52
816.393	79.72
816.567	80.04
816.74	89.11
816.914	85.55
817.088	97.48
817.261	101.2
817.435	92.49
817.608	95.82
817.782	100.54
817.955	103.04
818.129	94.74
818.302	70.65
818.475	75.65
818.649	75.48
818.822	58.86
818.996	62.34
819.169	79.83
819.342	73.49
819.516	65.23
819.689	69.43
819.862	68.85
820.035	78.68
820.209	72.26
820.382	79.69
820.555	74.78
820.728	71.24
820.901	52.3
821.075	69.92
821.248	70.03
821.421	65.14
821.594	65.82
821.767	74.02
821.94	69.39
822.113	50.57
822.286	59.04
822.459	59.21
822.632	49.45
822.805	51.34
822.978	62.82
823.151	62.5
823.324	69.91
823.496	58.98
823.669	31.21
823.842	36.38
824.015	35.53
824.188	23.91
824.361	30.57
824.533	56.2
824.706	46.35
824.879	56.32
825.051	65.57
825.224	77.61
825.397	71.62
825.569	66.57
825.742	73.22
825.915	63.33
826.087	61.07
826.26	57
826.432	65.78
826.605	43.38
826.777	53.03
826.95	61.78
827.122	62.66
827.295	55.85
827.467	67.27
827.64	37.87
827.812	23.81
827.984	29.02
828.157	32.55
828.329	52.11
828.501	83.76
828.674	82.48
828.846	95.28
829.018	109.75
829.19	97.82
829.363	87.53
829.535	86.73
829.707	60.48
829.879	35.39
830.051	25.27
830.223	32.74
830.395	43.38
830.568	43.16
830.74	63.54
830.912	86.4
831.084	81.27
831.256	71.61
831.428	70
831.6	70.11
831.772	57.64
831.943	48.12
832.115	43.61
832.287	58.99
832.459	54.29
832.631	59.85
832.803	81.97
832.975	106.81
833.146	81.51
833.318	64.67
833.49	65.68
833.662	56.39
833.833	52.77
834.005	54.11
834.177	69.54
834.348	67.96
834.52	73.94
834.692	91.1
834.863	94.32
835.035	81.11
835.206	81.41
835.378	70.18
835.549	59.79
835.721	79.6
835.892	84.37
836.064	95.22
836.235	110.42
836.407	129.98
836.578	90.15
836.749	96.66
836.921	100.57
837.092	89.18
837.264	58.93
837.435	69.15
837.606	73.72
837.777	48.55
837.949	54.59
838.12	24.21
838.291	40.76
838.462	62.41
838.633	54.54
838.805	50.08
838.976	94.18
839.147	98.51
839.318	96.21
839.489	71.48
839.66	98.36
839.831	69.68
840.002	45.22
840.173	7.81
840.344	58.52
840.515	31.02
840.686	29.96
840.857	51.69
841.028	73.69
841.199	68.55
841.369	89.25
841.54	84.47
841.711	97.55
841.882	70.13
842.053	72.63
842.223	57.1
842.394	55.16
842.565	55.18
842.736	71.72
842.906	54.02
843.077	73.66
843.248	74.83
843.418	75.95
843.589	65.23
843.759	100.42
843.93	66.28
844.101	333.26
844.271	158.15
844.442	119.5
844.612	98.82
844.783	105.1
844.953	51.45
845.123	32.02
845.294	62.23
845.464	63.32
845.635	52.79
845.805	86.19
845.975	105.91
846.146	160.85
846.316	179.9
846.486	125.97
846.656	92.66
846.827	46.59
846.997	-41.95
847.167	19.64
847.337	21.59
847.507	58.4
847.677	54.29
847.848	97.91
848.018	85.74
848.188	92.8
848.358	65.79
848.528	105.99
848.698	102.28
848.868	119.49
849.038	107.63
849.208	129.03
849.378	86.91
849.548	10.86
849.718	-124.8
849.887	263.53
850.057	-4003.23
850.227	707.73
850.397	397.99
850.567	-32.02
850.737	29.39
850.906	-4.32
851.076	7.36
851.246	28.61
851.415	22.94
851.585	44.98
851.755	55.66
851.924	63.02
852.094	72.97
852.264	69.46
852.433	45.05
852.603	77.67
852.772	75.25
852.942	52.95
853.111	68.49
853.281	113.93
853.45	105.58
853.62	113.23
853.789	89.98
853.959	53.34
854.128	33.75
854.297	160.93
854.467	341.06
854.636	-195.31
854.805	8.53
854.975	-17.83
855.144	19.38
855.313	43.86
855.482	82.65
855.652	62
855.821	75.6
855.99	80.33
856.159	137.78
856.328	95.18
856.497	115.55
856.667	140.96
856.836	101.9
857.005	111.33
857.174	69.27
857.343	88.79
857.512	65.98
857.681	49.15
857.85	6.83
858.019	23.41
858.188	-7.51
858.356	-10.66
858.525	-7.51
858.694	28.53
858.863	-8.98
859.032	-76.67
859.201	-35.48
859.369	32.91
859.538	10.79
859.707	25.05
859.876	73.15
860.044	44.64
860.213	68.99
860.382	115.63
860.55	112.43
860.719	133.28
860.888	146.41
861.056	168.91
861.225	144.98
861.393	222.2
861.562	278.47
861.73	254.44
861.899	189.24
862.067	209.18
862.236	175.05
862.404	27.61
862.572	9.67
862.741	-288.79
862.909	11.98
863.078	31.18
863.246	67.33
863.414	129.32
863.582	100
863.751	136.08
863.919	147.12
864.087	97.84
864.255	72.65
864.424	67.21
864.592	22.51
864.76	54.58
864.928	27.05
865.096	-15.89
865.264	1.51
865.432	2.75
865.6	-37.14
865.768	4.02
865.936	-22.89
866.104	-124.86
866.272	40.36
866.44	-60.74
866.608	-75.25
866.776	-8.78
866.944	-22.32
867.112	-70.96
867.28	-60.02
867.448	-13.28
867.615	9.47
867.783	44.66
867.951	36.92
868.119	103.81
868.286	180.67
868.454	118.88
868.622	121.99
868.789	639.28
868.957	-871.95
869.125	-79.36
869.292	213.74
869.46	-184.75
869.627	-448.57
869.795	1.47
869.963	24.97
870.13	41.74
870.298	39.62
870.465	16.26
870.632	-4.86
870.8	-49.34
870.967	-33.47
871.135	-87.98
871.302	-21.14
871.469	46.46
871.637	54.96
871.804	-20.59
871.971	-67.01
872.139	-48.84
872.306	-31.24
872.473	-406.53
872.64	1.85
872.807	48.16
872.975	-24.34
873.142	-38.76
873.309	-13.66
873.476	-9.66
873.643	-11.3
873.81	33.85
873.977	48.41
874.144	20.17
874.311	48.9
874.478	-31.99
874.645	-216.17
874.812	-1361.61
874.979	-120.31
875.146	-88.06
875.313	-592.21
875.48	366.44
875.647	-229.91
875.813	-1981.01
875.98	851.93
876.147	-30.39
876.314	4.29
876.481	3.72
876.647	0.66
876.814	20.57
876.981	50.26
877.147	87.7
877.314	-24.6
877.481	18.28
877.647	-99.76
877.814	-234.92
877.98	-321.14
878.147	435.92
878.314	507.03
878.48	-555.87
878.647	-143.94
878.813	203.6
878.979	48.77
879.146	11.55
879.312	2.66
879.479	54.42
879.645	44.73
879.811	4.38
879.978	60.59
880.144	67.6
880.31	-87.27
880.477	752.35
880.643	820
880.809	6714.63
880.975	-1311.06
881.142	-457.98
881.308	-715.23
881.474	-54.47
881.64	51.79
881.806	34.25
881.972	90.3
882.138	92.48
882.304	76.57
882.47	56.76
882.636	63
882.802	49.41
882.968	35.25
883.134	10.07
883.3	20.02
883.466	43.75
883.632	17.98
883.798	35.21
883.964	55.64
884.129	52.22
884.295	-34.71
884.461	-389.8
884.627	1059.11
884.793	154.84
884.958	242.59
885.124	1668.32
885.29	-211.86
885.455	-39.3
885.621	1.28
885.787	-13.37
885.952	-61.34
886.118	31.65
886.283	60.95
886.449	-52.56
886.614	32.63
886.78	97.39
886.945	83.49
887.111	47.26
887.276	68.34
887.442	108.69
887.607	71.31
887.773	-43.95
887.938	6.23
888.103	-38.71
888.269	-576.84
888.434	14147.06
888.599	-91.14
888.764	-331.07
888.93	24.79
889.095	68.22
889.26	84.36
889.425	103.62
889.59	72.9
889.756	72.76
889.921	-25.62
890.086	-43.33
890.251	-50.06
890.416	-90.37
890.581	-97.5
890.746	10.56
890.911	67.36
891.076	144.57
891.241	133.95
891.406	18957.14
891.571	315.12
891.736	83.42
891.901	183.96
892.065	22.36
892.23	140.31
892.395	206.8
892.56	1597.99
892.725	-151.87
892.889	-471.3
893.054	-1449.67
893.219	-2584.89
893.384	-403.62
893.548	-656.89
893.713	-410.74
893.878	-578.53
