Data from Ofav_SP_Phys_2AZ2_Reflection_2.txt Node
Date: Thu Aug 05 17:53:22 EDT 2021
User: Adam
Spectrometer: FLMT01687
Trigger mode: 0
Integration Time (sec): 8.000000E-1
Scans to average: 2
Electric dark correction enabled: true
Nonlinearity correction enabled: false
Boxcar width: 2
XAxis mode: Wavelengths
Number of Pixels in Spectrum: 3648
>>>>>Begin Spectral Data<<<<<
179.494	622.13
179.716	714.51
179.937	606.85
180.158	757.51
180.38	1954.92
180.601	-885.13
180.823	-179.33
181.044	-78.99
181.265	9.67
181.486	19.36
181.708	-137.58
181.929	-145.3
182.15	-558.78
182.372	15.26
182.593	-31.88
182.814	-228.21
183.035	-113.86
183.257	-248.04
183.478	472.2
183.699	-233.74
183.92	-121.89
184.141	344.84
184.363	-649.19
184.584	249.55
184.805	119.88
185.026	82.24
185.247	88.79
185.468	94.06
185.689	75.85
185.91	73.93
186.132	10.27
186.353	-51.66
186.574	-157.89
186.795	-52.65
187.016	-2.38
187.237	-3.97
187.458	100.77
187.679	82.87
187.9	32.39
188.121	29.43
188.342	115.88
188.563	107.34
188.784	141.31
189.005	149.47
189.226	125.16
189.447	97.63
189.667	99.59
189.888	190.86
190.109	177.57
190.33	137.02
190.551	139.76
190.772	172.69
190.993	107.53
191.214	89.46
191.434	61.21
191.655	36.77
191.876	20.78
192.097	20.87
192.318	20.66
192.538	55.13
192.759	186.03
192.98	141.72
193.201	324.89
193.421	110.87
193.642	63.67
193.863	-32.31
194.083	9.02
194.304	41.51
194.525	46.95
194.745	40.01
194.966	52.77
195.187	51.13
195.407	13.02
195.628	40.58
195.848	70.98
196.069	65.71
196.29	67.49
196.51	98.26
196.731	59.27
196.951	56.89
197.172	54.91
197.392	60.09
197.613	28.42
197.833	70.8
198.054	85.27
198.274	81.05
198.495	102.88
198.715	116.63
198.936	56.17
199.156	46.65
199.377	36.96
199.597	58.62
199.817	53.18
200.038	58.5
200.258	57.62
200.479	75.98
200.699	48.08
200.919	40.39
201.14	20.26
201.36	30.59
201.58	40.78
201.801	-32.87
202.021	-22.91
202.241	55.46
202.461	13.17
202.682	-15.18
202.902	-7.9
203.122	84.23
203.342	152.55
203.563	112.38
203.783	156.39
204.003	110.01
204.223	83.06
204.443	60.78
204.663	42.77
204.884	33.31
205.104	35.41
205.324	48.04
205.544	44.43
205.764	61.95
205.984	64.2
206.204	49.74
206.424	43.49
206.644	37.34
206.864	18.12
207.084	-4.59
207.304	45.61
207.525	22.7
207.745	45.3
207.964	56.88
208.184	94.83
208.404	41.47
208.624	42.69
208.844	48.89
209.064	49.24
209.284	37.5
209.504	47.92
209.724	44.94
209.944	26.39
210.164	24.02
210.384	55.52
210.604	45.62
210.823	49.86
211.043	39.04
211.263	37.76
211.483	17.08
211.703	24.38
211.922	7.41
212.142	68.92
212.362	84.1
212.582	107.49
212.801	163.28
213.021	121.83
213.241	92.26
213.461	58.89
213.68	62.56
213.9	4.97
214.12	-11.39
214.339	17.16
214.559	39.89
214.779	23.66
214.998	100.22
215.218	119.34
215.438	159.39
215.657	215.99
215.877	225.01
216.096	171.71
216.316	166.32
216.535	71.75
216.755	59.13
216.974	180.82
217.194	101.06
217.413	63.72
217.633	76.64
217.852	57.4
218.072	50.66
218.291	44.79
218.511	58.19
218.73	40.99
218.95	27.21
219.169	24.76
219.389	70.08
219.608	49.71
219.827	77.04
220.047	111.44
220.266	112.99
220.485	113.08
220.705	116.04
220.924	90.85
221.143	66.24
221.363	18.84
221.582	24.19
221.801	-19.31
222.021	53.42
222.24	83.05
222.459	219.3
222.678	133.8
222.897	153.48
223.117	117.34
223.336	82.11
223.555	34.79
223.774	29.09
223.993	22.29
224.213	33.76
224.432	40.23
224.651	65.46
224.87	69.43
225.089	83.23
225.308	106.39
225.527	100.46
225.746	89.07
225.965	67.09
226.184	16.5
226.404	7.41
226.623	-34
226.842	-25.46
227.061	15.76
227.28	23.99
227.499	49.02
227.718	37.69
227.936	47
228.155	38.77
228.374	37.44
228.593	46.3
228.812	72.41
229.031	84.75
229.25	67.28
229.469	61.91
229.688	40.47
229.907	28.75
230.125	6.16
230.344	37.16
230.563	56.68
230.782	102.7
231.001	93.95
231.22	84.41
231.438	71.94
231.657	53.83
231.876	42.9
232.095	76.5
232.313	81.89
232.532	62.37
232.751	65.88
232.969	52.56
233.188	40.4
233.407	27.01
233.625	56.14
233.844	41.72
234.063	74.56
234.281	55.58
234.5	59.22
234.719	69.69
234.937	60.43
235.156	18.6
235.374	35.72
235.593	35.55
235.811	16.48
236.03	43.46
236.249	61.82
236.467	59.98
236.686	62.61
236.904	75.28
237.123	54.36
237.341	67.02
237.559	73.64
237.778	70.89
237.996	62.3
238.215	58.75
238.433	49.49
238.652	41.65
238.87	27.82
239.088	21.76
239.307	27.97
239.525	22.41
239.743	20.12
239.962	34.93
240.18	44.42
240.398	39.4
240.617	23.62
240.835	36.95
241.053	39.01
241.271	18.3
241.49	47.97
241.708	50.78
241.926	64.79
242.144	34.66
242.363	96.7
242.581	82.49
242.799	48.76
243.017	19.16
243.235	17.48
243.453	-6.75
243.672	-23.31
243.89	-21.87
244.108	-11.09
244.326	65.58
244.544	96.78
244.762	90.98
244.98	117.94
245.198	111.58
245.416	79.17
245.634	75.77
245.852	75.76
246.07	67.36
246.288	38.89
246.506	32.17
246.724	27.23
246.942	22.59
247.16	1.68
247.378	-14.27
247.596	-4.45
247.814	25.41
248.032	-12.65
248.25	-32.17
248.468	-9.85
248.685	-1.6
248.903	-8.6
249.121	18.66
249.339	38.41
249.557	35.95
249.775	25.93
249.992	-9.85
250.21	12.04
250.428	6.06
250.646	2.6
250.863	36.98
251.081	65.69
251.299	55.2
251.517	83.92
251.734	65.3
251.952	15.97
252.17	33.39
252.387	17.29
252.605	6.87
252.823	18.9
253.04	35.61
253.258	37.94
253.475	48.76
253.693	42.91
253.911	65.66
254.128	69.96
254.346	62.04
254.563	71.11
254.781	67.38
254.998	73.56
255.216	37
255.433	32.68
255.651	45.72
255.868	56.88
256.086	-7.34
256.303	-9.4
256.521	12.91
256.738	-6.44
256.956	-52.91
257.173	42.58
257.39	128.31
257.608	103.6
257.825	58.59
258.043	56.72
258.26	56.2
258.477	45.56
258.695	48.41
258.912	67.94
259.129	79.03
259.346	73.57
259.564	70.13
259.781	83.41
259.998	71.93
260.216	76.76
260.433	80.04
260.65	69.48
260.867	11.77
261.084	52.64
261.302	52.5
261.519	73.09
261.736	101.96
261.953	91.39
262.17	101.01
262.387	160.09
262.604	160.19
262.822	178.85
263.039	188.56
263.256	169.82
263.473	97.6
263.69	90.41
263.907	80.83
264.124	104.38
264.341	63.86
264.558	64.99
264.775	36.76
264.992	28
265.209	36.12
265.426	29.46
265.643	19.28
265.86	21.59
266.077	31.4
266.294	17.3
266.51	27.67
266.727	61.39
266.944	120.19
267.161	108.81
267.378	90.85
267.595	89.78
267.812	53.28
268.028	3.63
268.245	4.92
268.462	10.84
268.679	-5.64
268.896	16.76
269.112	31.49
269.329	56.08
269.546	46.29
269.763	53.16
269.979	56.6
270.196	72.03
270.413	60.63
270.629	67.75
270.846	74.16
271.063	82.55
271.279	78.49
271.496	42.54
271.712	-41.67
271.929	-61.25
272.146	-42.61
272.362	-100.62
272.579	-39.6
272.795	-13.24
273.012	4.72
273.228	-15.27
273.445	12.06
273.661	54.47
273.878	58.6
274.094	62.68
274.311	62.84
274.527	57.52
274.744	26.77
274.96	35.18
275.177	19.3
275.393	34.82
275.609	43.84
275.826	44.36
276.042	49.84
276.259	53.07
276.475	35
276.691	32.12
276.908	33.53
277.124	55.14
277.34	69.51
277.557	57.67
277.773	55.38
277.989	66.17
278.205	29.07
278.422	46.07
278.638	83.82
278.854	96.83
279.07	89.42
279.286	80.24
279.503	68.38
279.719	36.79
279.935	35.84
280.151	53.41
280.367	70.3
280.583	47.96
280.799	73.52
281.016	66.36
281.232	49.31
281.448	46.71
281.664	84.28
281.88	86.06
282.096	90.21
282.312	82.17
282.528	74.27
282.744	63.05
282.96	62.86
283.176	55.15
283.392	66.73
283.608	71.12
283.824	82.73
284.04	86.51
284.256	80.05
284.471	57
284.687	61.5
284.903	50.56
285.119	62.55
285.335	49.87
285.551	42.85
285.767	39.16
285.982	26.53
286.198	-57.72
286.414	-16.27
286.63	42.17
286.846	27.2
287.061	13.84
287.277	38.1
287.493	62.59
287.709	51.26
287.924	53.68
288.14	89.81
288.356	75.18
288.571	79.69
288.787	85.21
289.003	125.1
289.218	79.92
289.434	39.75
289.65	-2.86
289.865	9.6
290.081	-7.95
290.296	20.73
290.512	24.34
290.727	37.23
290.943	31.99
291.159	57.9
291.374	57.05
291.59	56.28
291.805	47.44
292.021	63.9
292.236	42.09
292.451	18.02
292.667	46.14
292.882	25.87
293.098	-1.63
293.313	25.91
293.529	54.43
293.744	54.04
293.959	47.37
294.175	60.66
294.39	33.38
294.605	12.12
294.821	8.42
295.036	12.79
295.251	25.4
295.467	35.21
295.682	29.05
295.897	30.17
296.112	43.22
296.328	59.34
296.543	60.81
296.758	77.56
296.973	65.94
297.188	66.27
297.404	42.24
297.619	31.79
297.834	26.96
298.049	5.79
298.264	-22.52
298.479	-55.57
298.694	-15.75
298.909	9.64
299.125	26.86
299.34	57.24
299.555	73.36
299.77	69.27
299.985	75.38
300.2	73.27
300.415	49.34
300.63	31.72
300.845	15.87
301.06	28.52
301.275	9.37
301.49	20.79
301.704	18.09
301.919	48.21
302.134	34.13
302.349	63.5
302.564	40.71
302.779	55.48
302.994	71.81
303.209	83.26
303.423	85.33
303.638	84.76
303.853	72.21
304.068	55.9
304.283	53.9
304.497	53.11
304.712	88.11
304.927	93.39
305.142	94.65
305.356	94.24
305.571	95.66
305.786	78.96
306	81.44
306.215	91.1
306.43	105.93
306.644	104.3
306.859	111.47
307.074	125.59
307.288	125.3
307.503	99.08
307.717	90.17
307.932	64.94
308.147	79.13
308.361	59
308.576	44
308.79	34.59
309.005	59.16
309.219	19.36
309.434	7.87
309.648	-6.64
309.863	28.85
310.077	-54.93
310.292	-45.92
310.506	-3.9
310.72	19.68
310.935	26.85
311.149	62.37
311.364	69.82
311.578	75.14
311.792	97.59
312.007	91.17
312.221	71.5
312.435	101.25
312.649	101.51
312.864	88.45
313.078	64.71
313.292	84.96
313.507	68.36
313.721	64.69
313.935	48.06
314.149	71.77
314.363	77.31
314.578	66.78
314.792	63.27
315.006	87.27
315.22	69.01
315.434	17.15
315.648	26.82
315.862	16.66
316.077	16.52
316.291	31.86
316.505	89.18
316.719	81.5
316.933	76.14
317.147	42.67
317.361	42.95
317.575	27.73
317.789	20.61
318.003	3.13
318.217	64.46
318.431	62.52
318.645	63.81
318.859	52.84
319.073	63.51
319.287	26.88
319.5	18.57
319.714	18.39
319.928	51.91
320.142	25.17
320.356	42.42
320.57	63.82
320.784	61.62
320.997	15.48
321.211	29.86
321.425	-3.1
321.639	-39.7
321.853	-34.04
322.066	-9.17
322.28	-1.68
322.494	-2.98
322.707	13.56
322.921	22.39
323.135	26.3
323.349	35
323.562	44.67
323.776	59.58
323.989	42.16
324.203	39.78
324.417	40.77
324.63	31.87
324.844	23.46
325.057	30.56
325.271	5
325.485	4.09
325.698	9.85
325.912	19.84
326.125	35.57
326.339	75.31
326.552	77.82
326.766	86.6
326.979	93.86
327.193	79.93
327.406	55.33
327.619	92.76
327.833	65.86
328.046	67.03
328.26	70.58
328.473	41.01
328.686	-26.97
328.9	-9.17
329.113	-9.04
329.326	-7.44
329.54	13.53
329.753	38.92
329.966	52.85
330.179	61.62
330.393	82.82
330.606	79.04
330.819	65.32
331.032	63.92
331.246	66.42
331.459	36.57
331.672	46.17
331.885	65.39
332.098	71.7
332.311	56.59
332.525	59.5
332.738	31.98
332.951	23.38
333.164	15.97
333.377	24.72
333.59	29.76
333.803	38.71
334.016	23.7
334.229	21.18
334.442	23.95
334.655	37.16
334.868	55.48
335.081	80.83
335.294	88.41
335.507	83.62
335.72	81.93
335.933	68.03
336.146	58.63
336.359	62.23
336.572	59.01
336.785	33.56
336.997	49.49
337.21	73.84
337.423	62.85
337.636	45.22
337.849	54.84
338.062	21.33
338.274	-26.71
338.487	-21.56
338.7	8.58
338.913	25.22
339.125	53.69
339.338	51.66
339.551	49.53
339.763	69.12
339.976	67.46
340.189	62.41
340.402	66.14
340.614	65.26
340.827	69
341.039	55.99
341.252	49.12
341.465	55.52
341.677	59.79
341.89	30.44
342.102	36.76
342.315	28.23
342.527	16.2
342.74	25.33
342.952	29.43
343.165	53.62
343.377	78.28
343.59	65.79
343.802	69.64
344.015	62.39
344.227	47.43
344.44	48.01
344.652	66.86
344.864	64.24
345.077	81.91
345.289	60.64
345.502	43.45
345.714	42.18
345.926	37.06
346.139	26.32
346.351	40.21
346.563	28.14
346.775	24.48
346.988	-3.87
347.2	-2.41
347.412	-27.41
347.624	12.35
347.837	20.47
348.049	49.52
348.261	46.8
348.473	67.86
348.685	78.53
348.897	115.33
349.11	111.05
349.322	103.84
349.534	73.55
349.746	75.52
349.958	22.41
350.17	33.13
350.382	44.65
350.594	49
350.806	49.39
351.018	67.67
351.23	58.1
351.442	60.53
351.654	65.39
351.866	60.64
352.078	45.2
352.29	50.14
352.502	51.36
352.714	37.05
352.926	38.75
353.138	46.67
353.35	55.64
353.561	43.18
353.773	32.52
353.985	24.39
354.197	32.87
354.409	26.41
354.621	25.25
354.832	47.89
355.044	46.33
355.256	40.82
355.468	40.09
355.679	56.5
355.891	56.47
356.103	70.21
356.314	74.71
356.526	58.01
356.738	42.88
356.949	22.91
357.161	15.44
357.373	2.38
357.584	29.61
357.796	39.01
358.008	50.75
358.219	29.47
358.431	72.6
358.642	39.06
358.854	44.02
359.065	59.31
359.277	66.91
359.488	30.15
359.7	36.13
359.911	37.96
360.123	35.64
360.334	40.94
360.546	59.06
360.757	70.96
360.969	75.49
361.18	69.11
361.391	60.07
361.603	66.05
361.814	49.43
362.025	47.61
362.237	53.03
362.448	43.64
362.659	42.12
362.871	37.14
363.082	23.6
363.293	18.96
363.504	40.7
363.716	53.9
363.927	61.78
364.138	85.92
364.349	70.58
364.56	75.17
364.772	49.41
364.983	58.8
365.194	44.43
365.405	50.53
365.616	38.59
365.827	43.15
366.038	50.62
366.25	65.87
366.461	64.01
366.672	64.31
366.883	62.45
367.094	61.38
367.305	39.9
367.516	46.42
367.727	53.09
367.938	64.41
368.149	54.13
368.36	76.08
368.571	45.53
368.781	41.94
368.992	20.32
369.203	34.96
369.414	14.29
369.625	39.65
369.836	36.76
370.047	28.97
370.258	26.82
370.468	27.01
370.679	29.31
370.89	25.09
371.101	19.15
371.312	14.86
371.522	15.21
371.733	14.24
371.944	10.77
372.155	17.16
372.365	-0.37
372.576	0.14
372.787	6.04
372.997	15.1
373.208	16.15
373.419	41.14
373.629	32.79
373.84	43.55
374.05	46.21
374.261	56.11
374.472	52.66
374.682	53.66
374.893	36
375.103	35.77
375.314	37.1
375.524	35.64
375.735	38.02
375.945	56.44
376.156	46.95
376.366	46.92
376.577	51.5
376.787	61.2
376.997	51.75
377.208	60.26
377.418	55.68
377.629	54.09
377.839	57.49
378.049	61.58
378.26	47.59
378.47	60.65
378.68	72.95
378.89	68.75
379.101	49.47
379.311	65.72
379.521	58.69
379.732	47.02
379.942	42.31
380.152	53.4
380.362	52.4
380.572	50.88
380.783	44.63
380.993	43.97
381.203	43.8
381.413	38.34
381.623	32.57
381.833	38.68
382.043	43.45
382.253	39.82
382.463	44.92
382.674	46.83
382.884	39.8
383.094	29.83
383.304	26.91
383.514	20.02
383.724	11.8
383.934	15.63
384.144	23.96
384.353	29.3
384.563	24.03
384.773	30.12
384.983	27.77
385.193	25.1
385.403	20.17
385.613	21.28
385.823	18.95
386.033	14.34
386.242	13.18
386.452	17.21
386.662	24.07
386.872	22.36
387.082	26.65
387.291	11.35
387.501	11.21
387.711	8.7
387.921	8.54
388.13	6.53
388.34	17.05
388.55	15.71
388.759	13.18
388.969	13.99
389.179	13.23
389.388	16.73
389.598	16.25
389.807	19.22
390.017	19.31
390.227	18.4
390.436	15.69
390.646	13.08
390.855	9.41
391.065	9.17
391.274	8.81
391.484	9.14
391.693	9.42
391.903	12.33
392.112	11.41
392.322	10.02
392.531	9.48
392.74	10.98
392.95	8.49
393.159	8.36
393.369	9.8
393.578	11.06
393.787	10.16
393.997	10.59
394.206	9.57
394.415	11.04
394.625	12.4
394.834	12.15
395.043	11.49
395.252	13.7
395.462	12.15
395.671	11.03
395.88	12.28
396.089	12.87
396.298	12.84
396.508	13.45
396.717	12.26
396.926	11.52
397.135	10.96
397.344	10.04
397.553	9.54
397.762	10.06
397.971	10.11
398.181	10.31
398.39	9.58
398.599	9.89
398.808	9.46
399.017	8.96
399.226	8.93
399.435	9.22
399.644	9.13
399.853	9.55
400.062	9.74
400.27	9.73
400.479	9.58
400.688	9.33
400.897	9.4
401.106	8.94
401.315	8.72
401.524	8.92
401.733	9
401.941	8.82
402.15	8.89
402.359	8.87
402.568	8.9
402.777	8.89
402.985	8.63
403.194	8.71
403.403	8.8
403.612	8.6
403.82	8.52
404.029	8.6
404.238	8.59
404.446	8.53
404.655	8.59
404.864	8.59
405.072	8.67
405.281	8.6
405.489	8.75
405.698	8.91
405.906	8.78
406.115	8.5
406.324	8.61
406.532	8.38
406.741	8.18
406.949	8.12
407.158	8.34
407.366	8.34
407.574	8.4
407.783	8.33
407.991	8.3
408.2	8.08
408.408	7.93
408.617	7.92
408.825	7.95
409.033	7.86
409.242	7.96
409.45	7.8
409.658	7.7
409.867	7.61
410.075	7.68
410.283	7.62
410.491	7.71
410.7	7.8
410.908	7.78
411.116	7.7
411.324	7.75
411.533	7.71
411.741	7.35
411.949	7.4
412.157	7.65
412.365	7.72
412.573	7.69
412.781	8.04
412.99	8.06
413.198	8.11
413.406	8.17
413.614	8.11
413.822	8.08
414.03	8.09
414.238	7.84
414.446	7.75
414.654	7.87
414.862	7.8
415.07	7.71
415.278	7.88
415.486	7.61
415.694	7.61
415.902	7.58
416.109	7.44
416.317	7.31
416.525	7.35
416.733	7.41
416.941	7.49
417.149	7.56
417.357	7.58
417.564	7.39
417.772	7.23
417.98	7.17
418.188	7.17
418.395	6.88
418.603	7.14
418.811	7.04
419.019	7.07
419.226	7.21
419.434	7.51
419.642	7.54
419.849	7.75
420.057	7.61
420.265	7.62
420.472	7.27
420.68	7.23
420.887	7.16
421.095	7.05
421.302	6.86
421.51	7.03
421.717	7.01
421.925	7.07
422.132	7.3
422.34	7.36
422.547	7.3
422.755	7.29
422.962	7.12
423.17	7.1
423.377	7.09
423.585	7.19
423.792	7.03
423.999	7.06
424.207	6.88
424.414	6.69
424.621	6.75
424.829	6.76
425.036	6.83
425.243	6.97
425.451	7.12
425.658	7.18
425.865	7.21
426.072	7.12
426.28	6.94
426.487	6.89
426.694	6.66
426.901	6.83
427.108	6.88
427.315	6.97
427.523	7.09
427.73	7.14
427.937	7.03
428.144	7.11
428.351	7.27
428.558	7.23
428.765	7.03
428.972	6.94
429.179	6.92
429.386	6.77
429.593	6.69
429.8	6.84
430.007	6.84
430.214	6.75
430.421	6.96
430.628	6.86
430.835	6.97
431.042	6.94
431.249	7.03
431.456	6.88
431.662	7.08
431.869	7.16
432.076	7.35
432.283	7.37
432.49	7.2
432.697	7.2
432.903	6.93
433.11	6.73
433.317	6.53
433.524	6.72
433.73	6.78
433.937	6.83
434.144	6.95
434.35	7.06
434.557	6.93
434.764	6.67
434.97	6.68
435.177	6.83
435.384	6.58
435.59	6.46
435.797	6.64
436.003	6.66
436.21	6.34
436.416	6.49
436.623	6.65
436.829	6.67
437.036	6.59
437.242	6.71
437.449	6.84
437.655	7.05
437.862	7.05
438.068	7.21
438.275	7.3
438.481	7.28
438.687	7.19
438.894	7.26
439.1	7.09
439.307	6.99
439.513	6.94
439.719	6.89
439.926	6.78
440.132	6.96
440.338	7.07
440.544	7.04
440.751	6.99
440.957	7
441.163	6.83
441.369	6.84
441.575	6.89
441.782	7
441.988	6.87
442.194	6.93
442.4	6.85
442.606	6.83
442.812	6.77
443.018	6.8
443.224	6.83
443.431	6.78
443.637	6.7
443.843	6.57
444.049	6.64
444.255	6.7
444.461	6.71
444.667	6.72
444.873	6.66
445.079	6.67
445.284	6.61
445.49	6.62
445.696	6.75
445.902	6.91
446.108	6.86
446.314	6.76
446.52	6.79
446.726	6.75
446.931	6.75
447.137	6.7
447.343	6.65
447.549	6.59
447.755	6.67
447.96	6.7
448.166	6.73
448.372	6.91
448.578	7.02
448.783	7.01
448.989	6.97
449.195	6.91
449.4	6.9
449.606	6.92
449.812	6.82
450.017	6.92
450.223	6.96
450.428	6.85
450.634	6.73
450.84	6.81
451.045	6.69
451.251	6.75
451.456	6.88
451.662	6.95
451.867	6.87
452.073	6.91
452.278	6.84
452.483	6.75
452.689	6.72
452.894	6.77
453.1	6.71
453.305	6.71
453.51	6.78
453.716	6.86
453.921	6.86
454.127	6.9
454.332	6.89
454.537	6.91
454.742	6.72
454.948	6.68
455.153	6.63
455.358	6.74
455.563	6.73
455.769	6.72
455.974	6.76
456.179	6.7
456.384	6.52
456.589	6.43
456.795	6.56
457	6.54
457.205	6.52
457.41	6.67
457.615	6.63
457.82	6.59
458.025	6.56
458.23	6.57
458.435	6.44
458.64	6.43
458.845	6.48
459.05	6.35
459.255	6.46
459.46	6.61
459.665	6.79
459.87	6.78
460.075	6.88
460.28	6.92
460.485	6.82
460.69	6.74
460.895	6.56
461.099	6.6
461.304	6.48
461.509	6.54
461.714	6.42
461.919	6.52
462.123	6.57
462.328	6.6
462.533	6.58
462.738	6.82
462.942	6.91
463.147	6.86
463.352	6.88
463.556	6.85
463.761	6.62
463.966	6.5
464.17	6.51
464.375	6.56
464.58	6.51
464.784	6.61
464.989	6.62
465.193	6.5
465.398	6.62
465.602	6.81
465.807	6.83
466.011	6.97
466.216	7
466.42	6.89
466.625	6.84
466.829	6.89
467.034	6.95
467.238	7.08
467.443	7.03
467.647	6.81
467.851	6.74
468.056	6.6
468.26	6.54
468.464	6.56
468.669	6.75
468.873	6.71
469.077	6.7
469.282	6.7
469.486	6.54
469.69	6.51
469.894	6.48
470.099	6.49
470.303	6.41
470.507	6.46
470.711	6.42
470.915	6.48
471.119	6.51
471.324	6.64
471.528	6.59
471.732	6.63
471.936	6.6
472.14	6.6
472.344	6.49
472.548	6.63
472.752	6.55
472.956	6.54
473.16	6.55
473.364	6.56
473.568	6.55
473.772	6.6
473.976	6.62
474.18	6.63
474.384	6.73
474.588	6.79
474.792	6.76
474.995	6.72
475.199	6.62
475.403	6.44
475.607	6.41
475.811	6.36
476.015	6.36
476.218	6.46
476.422	6.55
476.626	6.59
476.83	6.71
477.033	6.79
477.237	6.86
477.441	6.88
477.644	6.84
477.848	6.81
478.052	6.72
478.255	6.6
478.459	6.61
478.663	6.57
478.866	6.44
479.07	6.49
479.273	6.41
479.477	6.45
479.681	6.49
479.884	6.6
480.088	6.48
480.291	6.67
480.495	6.58
480.698	6.57
480.901	6.49
481.105	6.63
481.308	6.55
481.512	6.55
481.715	6.57
481.919	6.6
482.122	6.65
482.325	6.65
482.529	6.67
482.732	6.72
482.935	6.71
483.138	6.75
483.342	6.67
483.545	6.72
483.748	6.61
483.952	6.64
484.155	6.58
484.358	6.54
484.561	6.48
484.764	6.47
484.967	6.45
485.171	6.34
485.374	6.42
485.577	6.47
485.78	6.56
485.983	6.54
486.186	6.68
486.389	6.69
486.592	6.65
486.795	6.59
486.998	6.6
487.201	6.56
487.404	6.58
487.607	6.65
487.81	6.53
488.013	6.55
488.216	6.52
488.419	6.52
488.622	6.41
488.825	6.54
489.028	6.48
489.231	6.52
489.433	6.47
489.636	6.57
489.839	6.51
490.042	6.6
490.245	6.53
490.447	6.55
490.65	6.5
490.853	6.61
491.056	6.56
491.258	6.55
491.461	6.58
491.664	6.44
491.866	6.38
492.069	6.44
492.272	6.38
492.474	6.38
492.677	6.5
492.879	6.42
493.082	6.42
493.285	6.39
493.487	6.34
493.69	6.33
493.892	6.35
494.095	6.38
494.297	6.47
494.5	6.52
494.702	6.5
494.905	6.56
495.107	6.41
495.309	6.36
495.512	6.22
495.714	6.27
495.917	6.27
496.119	6.37
496.321	6.47
496.524	6.56
496.726	6.56
496.928	6.47
497.13	6.48
497.333	6.4
497.535	6.49
497.737	6.47
497.939	6.61
498.142	6.56
498.344	6.64
498.546	6.65
498.748	6.7
498.95	6.65
499.152	6.62
499.355	6.51
499.557	6.49
499.759	6.49
499.961	6.5
500.163	6.5
500.365	6.7
500.567	6.72
500.769	6.69
500.971	6.66
501.173	6.68
501.375	6.54
501.577	6.48
501.779	6.6
501.981	6.66
502.183	6.73
502.385	6.72
502.587	6.69
502.788	6.59
502.99	6.52
503.192	6.51
503.394	6.48
503.596	6.46
503.798	6.48
503.999	6.56
504.201	6.5
504.403	6.64
504.605	6.72
504.806	6.71
505.008	6.68
505.21	6.66
505.411	6.53
505.613	6.47
505.815	6.4
506.016	6.43
506.218	6.45
506.42	6.51
506.621	6.52
506.823	6.61
507.024	6.56
507.226	6.63
507.427	6.61
507.629	6.61
507.83	6.59
508.032	6.56
508.233	6.54
508.435	6.52
508.636	6.58
508.838	6.54
509.039	6.57
509.24	6.58
509.442	6.61
509.643	6.6
509.845	6.66
510.046	6.67
510.247	6.77
510.448	6.79
510.65	6.76
510.851	6.74
511.052	6.82
511.254	6.75
511.455	6.74
511.656	6.73
511.857	6.75
512.058	6.67
512.26	6.61
512.461	6.65
512.662	6.7
512.863	6.62
513.064	6.7
513.265	6.7
513.466	6.68
513.667	6.64
513.868	6.7
514.069	6.67
514.27	6.63
514.471	6.59
514.672	6.6
514.873	6.53
515.074	6.51
515.275	6.57
515.476	6.6
515.677	6.6
515.878	6.74
516.079	6.73
516.28	6.74
516.481	6.75
516.682	6.72
516.882	6.71
517.083	6.71
517.284	6.66
517.485	6.68
517.686	6.75
517.886	6.76
518.087	6.67
518.288	6.74
518.488	6.77
518.689	6.75
518.89	6.68
519.091	6.79
519.291	6.7
519.492	6.68
519.692	6.73
519.893	6.81
520.094	6.75
520.294	6.8
520.495	6.89
520.695	6.78
520.896	6.73
521.096	6.86
521.297	6.94
521.497	6.96
521.698	7
521.898	7.04
522.099	7.01
522.299	6.96
522.499	6.91
522.7	6.93
522.9	6.91
523.101	6.84
523.301	6.89
523.501	6.85
523.702	6.85
523.902	6.86
524.102	6.93
524.302	6.87
524.503	6.87
524.703	6.9
524.903	6.93
525.103	6.95
525.304	6.96
525.504	7.06
525.704	7.03
525.904	7.01
526.104	7
526.304	7.04
526.504	6.95
526.705	6.98
526.905	7.02
527.105	7
527.305	7
527.505	7.05
527.705	7.05
527.905	7.01
528.105	7.03
528.305	6.97
528.505	7.02
528.705	7.03
528.905	7
529.105	7.04
529.304	7.1
529.504	7.07
529.704	7.1
529.904	7.16
530.104	7.15
530.304	7.2
530.503	7.16
530.703	7.09
530.903	7.11
531.103	7.1
531.303	7.1
531.502	7.21
531.702	7.26
531.902	7.29
532.101	7.3
532.301	7.27
532.501	7.3
532.7	7.29
532.9	7.23
533.1	7.23
533.299	7.17
533.499	7.12
533.698	7.11
533.898	7.18
534.097	7.22
534.297	7.29
534.496	7.27
534.696	7.3
534.895	7.37
535.095	7.31
535.294	7.37
535.494	7.36
535.693	7.37
535.892	7.31
536.092	7.4
536.291	7.36
536.491	7.39
536.69	7.46
536.889	7.43
537.088	7.41
537.288	7.46
537.487	7.46
537.686	7.41
537.886	7.47
538.085	7.52
538.284	7.48
538.483	7.54
538.682	7.65
538.882	7.69
539.081	7.7
539.28	7.74
539.479	7.72
539.678	7.71
539.877	7.67
540.076	7.66
540.275	7.68
540.474	7.75
540.673	7.73
540.872	7.74
541.071	7.86
541.27	7.91
541.469	7.88
541.668	7.93
541.867	7.97
542.066	7.95
542.265	7.97
542.464	7.97
542.663	8.04
542.862	8.11
543.06	8.14
543.259	8.18
543.458	8.24
543.657	8.26
543.856	8.31
544.054	8.32
544.253	8.28
544.452	8.31
544.651	8.28
544.849	8.23
545.048	8.22
545.247	8.27
545.445	8.31
545.644	8.32
545.843	8.41
546.041	8.48
546.24	8.56
546.438	8.59
546.637	8.68
546.836	8.75
547.034	8.85
547.233	8.88
547.431	8.94
547.63	9.01
547.828	9.09
548.027	9.09
548.225	9.06
548.423	9.12
548.622	9.12
548.82	8.98
549.019	9
549.217	9.02
549.415	9.08
549.614	9.17
549.812	9.24
550.01	9.3
550.209	9.43
550.407	9.48
550.605	9.46
550.803	9.52
551.002	9.55
551.2	9.56
551.398	9.66
551.596	9.72
551.794	9.81
551.993	9.89
552.191	9.97
552.389	9.96
552.587	9.98
552.785	9.99
552.983	10.11
553.181	10.17
553.379	10.23
553.577	10.38
553.775	10.48
553.973	10.5
554.171	10.6
554.369	10.68
554.567	10.68
554.765	10.77
554.963	10.8
555.161	10.86
555.359	10.89
555.557	10.95
555.755	10.94
555.952	11
556.15	11.04
556.348	11.13
556.546	11.3
556.744	11.41
556.941	11.44
557.139	11.52
557.337	11.57
557.535	11.51
557.732	11.55
557.93	11.68
558.128	11.66
558.325	11.67
558.523	11.8
558.721	11.87
558.918	11.83
559.116	11.87
559.313	11.94
559.511	12.06
559.708	12.17
559.906	12.29
560.104	12.36
560.301	12.58
560.498	12.56
560.696	12.59
560.893	12.65
561.091	12.75
561.288	12.76
561.486	12.83
561.683	12.91
561.88	12.94
562.078	13.03
562.275	12.98
562.473	13.02
562.67	13.08
562.867	13.16
563.064	13.17
563.262	13.26
563.459	13.4
563.656	13.34
563.853	13.41
564.051	13.41
564.248	13.47
564.445	13.41
564.642	13.46
564.839	13.51
565.036	13.64
565.234	13.65
565.431	13.76
565.628	13.91
565.825	13.99
566.022	14.14
566.219	14.21
566.416	14.2
566.613	14.24
566.81	14.28
567.007	14.17
567.204	14.18
567.401	14.21
567.598	14.24
567.795	14.29
567.991	14.33
568.188	14.44
568.385	14.47
568.582	14.44
568.779	14.36
568.976	14.44
569.172	14.43
569.369	14.49
569.566	14.56
569.763	14.54
569.96	14.53
570.156	14.56
570.353	14.54
570.55	14.58
570.746	14.67
570.943	14.66
571.14	14.65
571.336	14.62
571.533	14.63
571.729	14.66
571.926	14.7
572.123	14.74
572.319	14.84
572.516	14.81
572.712	14.85
572.909	14.84
573.105	14.9
573.302	14.85
573.498	14.83
573.695	14.61
573.891	14.6
574.087	14.52
574.284	14.52
574.48	14.47
574.677	14.68
574.873	14.67
575.069	14.73
575.266	14.77
575.462	14.78
575.658	14.73
575.854	14.81
576.051	14.69
576.247	14.68
576.443	14.77
576.639	14.74
576.835	14.64
577.032	14.65
577.228	14.67
577.424	14.65
577.62	14.59
577.816	14.52
578.012	14.56
578.208	14.45
578.404	14.42
578.6	14.51
578.796	14.48
578.993	14.52
579.189	14.52
579.384	14.47
579.58	14.43
579.776	14.47
579.972	14.42
580.168	14.34
580.364	14.34
580.56	14.28
580.756	14.16
580.952	14.13
581.148	14.18
581.343	14.16
581.539	14.23
581.735	14.24
581.931	14.25
582.127	14.17
582.322	14.09
582.518	14.01
582.714	14
582.909	13.86
583.105	13.9
583.301	13.92
583.496	13.89
583.692	13.86
583.888	13.92
584.083	13.75
584.279	13.76
584.474	13.7
584.67	13.69
584.866	13.67
585.061	13.7
585.257	13.65
585.452	13.68
585.648	13.71
585.843	13.65
586.039	13.78
586.234	13.76
586.429	13.68
586.625	13.63
586.82	13.62
587.015	13.49
587.211	13.41
587.406	13.42
587.601	13.52
587.797	13.52
587.992	13.49
588.187	13.48
588.383	13.55
588.578	13.5
588.773	13.46
588.968	13.5
589.163	13.56
589.359	13.47
589.554	13.37
589.749	13.37
589.944	13.38
590.139	13.28
590.334	13.28
590.529	13.38
590.724	13.46
590.919	13.45
591.114	13.57
591.309	13.51
591.504	13.46
591.699	13.34
591.894	13.3
592.089	13.27
592.284	13.3
592.479	13.39
592.674	13.48
592.869	13.55
593.064	13.62
593.259	13.71
593.454	13.67
593.648	13.76
593.843	13.74
594.038	13.72
594.233	13.7
594.428	13.77
594.622	13.69
594.817	13.77
595.012	13.75
595.206	13.91
595.401	13.95
595.596	14.01
595.79	14.03
595.985	14.11
596.18	14.06
596.374	14.11
596.569	14.18
596.763	14.26
596.958	14.4
597.153	14.4
597.347	14.44
597.542	14.52
597.736	14.58
597.931	14.49
598.125	14.63
598.319	14.58
598.514	14.5
598.708	14.52
598.903	14.64
599.097	14.66
599.291	14.77
599.486	14.83
599.68	14.83
599.874	14.84
600.069	14.85
600.263	14.9
600.457	14.97
600.651	14.97
600.846	14.91
601.04	14.8
601.234	14.76
601.428	14.77
601.622	14.83
601.817	14.84
602.011	14.92
602.205	14.98
602.399	14.95
602.593	14.93
602.787	15
602.981	15.08
603.175	15.05
603.369	14.97
603.563	15.01
603.757	14.97
603.951	14.78
604.145	14.73
604.339	14.83
604.533	14.73
604.727	14.77
604.921	14.91
605.115	14.9
605.309	14.72
605.502	14.79
605.696	14.71
605.89	14.66
606.084	14.71
606.278	14.83
606.471	14.71
606.665	14.63
606.859	14.48
607.053	14.45
607.246	14.34
607.44	14.26
607.634	14.29
607.827	14.29
608.021	14.05
608.214	14.05
608.408	14.15
608.602	14.11
608.795	14.07
608.989	14.13
609.182	14.02
609.376	13.94
609.569	13.84
609.763	13.79
609.956	13.82
610.15	13.69
610.343	13.62
610.537	13.67
610.73	13.63
610.923	13.64
611.117	13.67
611.31	13.58
611.504	13.5
611.697	13.49
611.89	13.24
612.083	13.27
612.277	13.17
612.47	13.16
612.663	13.03
612.856	13.04
613.05	12.93
613.243	12.87
613.436	12.71
613.629	12.72
613.822	12.7
614.015	12.62
614.209	12.56
614.402	12.61
614.595	12.56
614.788	12.49
614.981	12.42
615.174	12.44
615.367	12.31
615.56	12.17
615.753	12.08
615.946	12.07
616.139	12.01
616.332	12
616.525	11.98
616.718	12
616.911	11.98
617.103	11.91
617.296	11.91
617.489	11.96
617.682	11.9
617.875	11.77
618.067	11.77
618.26	11.67
618.453	11.6
618.646	11.57
618.838	11.58
619.031	11.53
619.224	11.53
619.417	11.53
619.609	11.5
619.802	11.49
619.994	11.45
620.187	11.4
620.38	11.37
620.572	11.35
620.765	11.38
620.957	11.38
621.15	11.38
621.342	11.32
621.535	11.36
621.727	11.34
621.92	11.3
622.112	11.23
622.305	11.24
622.497	11.22
622.69	11.13
622.882	11.06
623.074	11.1
623.267	11.08
623.459	10.97
623.651	11.01
623.844	11.05
624.036	11.02
624.228	10.94
624.42	10.94
624.613	10.98
624.805	10.94
624.997	10.98
625.189	10.96
625.381	10.98
625.574	10.87
625.766	10.91
625.958	10.81
626.15	10.88
626.342	10.85
626.534	10.93
626.726	10.89
626.918	10.83
627.11	10.72
627.302	10.68
627.494	10.59
627.686	10.66
627.878	10.7
628.07	10.67
628.262	10.59
628.454	10.49
628.646	10.45
628.838	10.47
629.029	10.51
629.221	10.53
629.413	10.56
629.605	10.53
629.797	10.49
629.989	10.52
630.18	10.45
630.372	10.37
630.564	10.35
630.755	10.21
630.947	10.13
631.139	10.16
631.33	10.19
631.522	10.19
631.714	10.25
631.905	10.23
632.097	10.19
632.289	10.19
632.48	10.11
632.672	10.02
632.863	9.9
633.055	9.9
633.246	9.92
633.438	9.87
633.629	9.88
633.821	9.9
634.012	9.86
634.203	9.75
634.395	9.8
634.586	9.87
634.777	9.94
634.969	9.92
635.16	10
635.351	9.95
635.543	9.92
635.734	9.84
635.925	9.87
636.117	9.96
636.308	9.98
636.499	9.94
636.69	9.92
636.881	9.95
637.073	9.84
637.264	9.85
637.455	9.81
637.646	9.79
637.837	9.72
638.028	9.65
638.219	9.58
638.41	9.63
638.601	9.66
638.792	9.7
638.983	9.76
639.174	9.7
639.365	9.62
639.556	9.55
639.747	9.6
639.938	9.64
640.129	9.72
640.32	9.77
640.511	9.85
640.701	9.71
640.892	9.62
641.083	9.6
641.274	9.64
641.465	9.63
641.655	9.68
641.846	9.64
642.037	9.67
642.228	9.53
642.418	9.47
642.609	9.4
642.8	9.38
642.99	9.26
643.181	9.2
643.372	9.18
643.562	9.19
643.753	9.23
643.943	9.22
644.134	9.28
644.324	9.31
644.515	9.31
644.705	9.24
644.896	9.25
645.086	9.17
645.277	9.15
645.467	9.23
645.658	9.21
645.848	9.13
646.038	9.21
646.229	9.23
646.419	9.1
646.61	9.21
646.8	9.24
646.99	9.25
647.18	9.2
647.371	9.14
647.561	9.07
647.751	9.07
647.941	8.95
648.132	8.94
648.322	9.07
648.512	9.18
648.702	9.23
648.892	9.21
649.082	9.22
649.272	9.1
649.462	8.96
649.653	8.95
649.843	9.02
650.033	9.04
650.223	8.99
650.413	8.98
650.603	8.96
650.793	8.95
650.983	8.9
651.172	8.94
651.362	8.88
651.552	8.77
651.742	8.68
651.932	8.7
652.122	8.71
652.312	8.71
652.502	8.83
652.691	8.84
652.881	8.81
653.071	8.89
653.261	8.78
653.45	8.61
653.64	8.66
653.83	8.63
654.019	8.43
654.209	8.42
654.399	8.45
654.588	8.24
654.778	8.14
654.968	8.01
655.157	8.05
655.347	7.97
655.536	8
655.726	7.93
655.915	8.01
656.105	7.91
656.294	7.81
656.484	7.84
656.673	7.84
656.863	7.83
657.052	7.88
657.241	7.8
657.431	7.7
657.62	7.57
657.809	7.41
657.999	7.3
658.188	7.33
658.377	7.31
658.567	7.28
658.756	7.24
658.945	7.16
659.134	7.03
659.324	7.01
659.513	6.91
659.702	6.79
659.891	6.69
660.08	6.65
660.269	6.43
660.458	6.43
660.648	6.51
660.837	6.44
661.026	6.3
661.215	6.34
661.404	6.27
661.593	6.18
661.782	6.09
661.971	6.19
662.16	6.11
662.349	6.04
662.538	6.02
662.726	6.08
662.915	5.95
663.104	5.91
663.293	5.82
663.482	5.72
663.671	5.75
663.86	5.84
664.048	5.8
664.237	5.97
664.426	5.96
664.615	5.84
664.803	5.79
664.992	5.71
665.181	5.58
665.369	5.6
665.558	5.59
665.747	5.6
665.935	5.77
666.124	5.81
666.312	5.85
666.501	6.01
666.69	6.02
666.878	5.97
667.067	5.96
667.255	6.03
667.444	6.01
667.632	6.13
667.82	6.12
668.009	6.1
668.197	6.09
668.386	5.94
668.574	5.86
668.762	5.92
668.951	6.06
669.139	5.88
669.327	5.95
669.516	5.88
669.704	5.81
669.892	5.7
670.08	5.8
670.269	5.84
670.457	5.92
670.645	5.89
670.833	5.91
671.021	6.01
671.21	6.05
671.398	6.04
671.586	6.02
671.774	6.11
671.962	6.08
672.15	6.17
672.338	6.27
672.526	6.53
672.714	6.65
672.902	6.63
673.09	6.49
673.278	6.38
673.466	6.34
673.654	6.47
673.842	6.61
674.03	6.84
674.218	7.05
674.405	7
674.593	6.94
674.781	7
674.969	6.89
675.157	6.91
675.344	6.94
675.532	7.06
675.72	7.18
675.908	7.23
676.095	7.32
676.283	7.46
676.471	7.36
676.658	7.35
676.846	7.43
677.033	7.43
677.221	7.41
677.409	7.41
677.596	7.39
677.784	7.45
677.971	7.53
678.159	7.65
678.346	7.7
678.534	7.74
678.721	7.9
678.909	7.88
679.096	7.93
679.283	7.95
679.471	8.01
679.658	7.92
679.846	7.91
680.033	8.12
680.22	8.33
680.408	8.26
680.595	8.29
680.782	8.32
680.969	8.23
681.157	8.13
681.344	8.43
681.531	8.51
681.718	8.68
681.905	8.73
682.093	8.73
682.28	8.82
682.467	9.02
682.654	8.97
682.841	8.87
683.028	8.94
683.215	9.01
683.402	8.88
683.589	9.01
683.776	9.21
683.963	9.42
684.15	9.37
684.337	9.49
684.524	9.61
684.711	9.55
684.898	9.5
685.085	9.4
685.271	9.49
685.458	9.52
685.645	9.61
685.832	9.61
686.019	9.69
686.205	9.74
686.392	9.77
686.579	9.99
686.766	10.27
686.952	10.53
687.139	10.67
687.326	10.64
687.512	10.61
687.699	10.71
687.886	10.87
688.072	10.99
688.259	11.46
688.445	11.78
688.632	11.76
688.818	11.81
689.005	11.9
689.191	12.08
689.378	12.26
689.564	12.83
689.751	13.04
689.937	13.33
690.124	13.41
690.31	13.54
690.496	13.65
690.683	14.08
690.869	14.39
691.055	14.8
691.242	15.31
691.428	15.4
691.614	15.51
691.8	15.87
691.987	16.09
692.173	16.49
692.359	17.02
692.545	17.56
692.731	17.79
692.918	18.11
693.104	18.18
693.29	18.4
693.476	18.78
693.662	19.28
693.848	19.76
694.034	20.28
694.22	21.02
694.406	21.38
694.592	21.79
694.778	21.99
694.964	22.33
695.15	22.34
695.336	22.59
695.522	23.08
695.708	23.71
695.894	24.05
696.08	24.75
696.265	25.41
696.451	25.71
696.637	26.2
696.823	26.83
697.009	27.16
697.194	27.31
697.38	27.83
697.566	28.41
697.751	28.88
697.937	29.4
698.123	30.26
698.308	30.74
698.494	31
698.68	31.62
698.865	32.19
699.051	32.5
699.236	33
699.422	33.56
699.607	33.76
699.793	34.17
699.978	34.57
700.164	35.02
700.349	35.53
700.535	36.09
700.72	36.45
700.906	36.98
701.091	37.41
701.276	37.69
701.462	37.5
701.647	38.24
701.832	38.54
702.018	38.97
702.203	39.69
702.388	40.64
702.573	40.86
702.759	41.4
702.944	41.53
703.129	41.71
703.314	42.17
703.499	42.31
703.684	42.57
703.87	43.31
704.055	43.44
704.24	44.01
704.425	44.68
704.61	45.38
704.795	45.58
704.98	46.4
705.165	46.38
705.35	46.68
705.535	46.74
705.72	47.21
705.905	47.29
706.09	47.8
706.275	48.08
706.459	48.31
706.644	48.52
706.829	48.94
707.014	49.76
707.199	50.07
707.384	50.29
707.568	50.57
707.753	50.98
707.938	50.38
708.123	50.75
708.307	50.95
708.492	51.17
708.677	50.97
708.861	51.63
709.046	51.37
709.231	51.45
709.415	51.72
709.6	52.08
709.784	52.23
709.969	52.75
710.153	53.3
710.338	53.6
710.522	53.75
710.707	53.78
710.891	53.73
711.076	54.22
711.26	54.18
711.445	54.77
711.629	55.05
711.813	55.56
711.998	55.58
712.182	55.62
712.366	56.03
712.551	56.03
712.735	56.25
712.919	56.01
713.103	56.37
713.288	56.21
713.472	56.6
713.656	56.45
713.84	56.91
714.024	57.23
714.208	57.16
714.393	57.2
714.577	57.44
714.761	57.54
714.945	57.73
715.129	58.25
715.313	58.54
715.497	58.8
715.681	59.02
715.865	59.19
716.049	58.97
716.233	59.13
716.417	59.37
716.601	59.24
716.785	59.52
716.968	59.3
717.152	59.84
717.336	59.97
717.52	60.54
717.704	60.38
717.888	61.01
718.071	60.91
718.255	60.91
718.439	60.75
718.622	60.92
718.806	60.76
718.99	60.44
719.174	60.45
719.357	60.68
719.541	61.11
719.724	61.37
719.908	61.71
720.092	61.89
720.275	62.07
720.459	61.82
720.642	61.73
720.826	61.65
721.009	62.05
721.193	61.89
721.376	62.24
721.559	62.94
721.743	63.5
721.926	63.6
722.11	63.9
722.293	63.58
722.476	63.21
722.66	63.17
722.843	62.97
723.026	63.55
723.21	64.23
723.393	64.01
723.576	64.24
723.759	64.73
723.942	64.84
724.126	64.49
724.309	65.12
724.492	65.13
724.675	65.26
724.858	65.24
725.041	65.81
725.224	65.88
725.407	66.47
725.59	67.02
725.774	66.96
725.957	67.1
726.14	67.36
726.322	67.14
726.505	66.7
726.688	67.42
726.871	67.58
727.054	67.89
727.237	68.07
727.42	68.64
727.603	68.69
727.786	68.82
727.968	68.95
728.151	68.87
728.334	68.61
728.517	68.46
728.699	68.87
728.882	69.5
729.065	70.23
729.248	70.5
729.43	70.02
729.613	70.01
729.796	69.85
729.978	69.79
730.161	69.55
730.343	70.87
730.526	70.83
730.708	71.03
730.891	70.85
731.073	71.6
731.256	70.99
731.438	70.74
731.621	69.98
731.803	70.87
731.986	71.67
732.168	72.14
732.35	72.99
732.533	74.35
732.715	74.43
732.898	73.45
733.08	74.24
733.262	75.25
733.444	74.23
733.627	73.54
733.809	73.91
733.991	73.72
734.173	72.7
734.355	73.88
734.538	74.37
734.72	74.81
734.902	74.63
735.084	75.05
735.266	74.65
735.448	75.78
735.63	76.1
735.812	76.3
735.994	75.17
736.176	75.66
736.358	75.59
736.54	76.06
736.722	76.5
736.904	78.2
737.086	78.23
737.268	77.39
737.45	77.56
737.632	77.37
737.814	77.73
737.995	78.84
738.177	79.39
738.359	78.72
738.541	78.76
738.723	78.7
738.904	77.82
739.086	77.65
739.268	78.76
739.449	79.63
739.631	79.28
739.813	79.37
739.994	79.86
740.176	79.91
740.358	79.42
740.539	79.68
740.721	79.49
740.902	79.29
741.084	79.28
741.265	79.47
741.447	79.65
741.628	80.31
741.81	80.7
741.991	81.43
742.172	81.38
742.354	81.45
742.535	81.48
742.717	81.6
742.898	80.59
743.079	81.32
743.261	81.57
743.442	81.62
743.623	81.93
743.804	82.29
743.986	81.95
744.167	81.1
744.348	81.05
744.529	81.6
744.71	81
744.891	81.72
745.073	82.01
745.254	83.71
745.435	84
745.616	84.08
745.797	83.43
745.978	84.58
746.159	83.84
746.34	83.92
746.521	84.77
746.702	85.14
746.883	84.93
747.064	83.23
747.245	82.57
747.426	82.77
747.606	82.83
747.787	82.73
747.968	83.62
748.149	82.98
748.33	82.41
748.51	82.55
748.691	80.85
748.872	80.81
749.053	82.06
749.233	82.39
749.414	82.73
749.595	84.54
749.775	84.67
749.956	82.64
750.137	82.3
750.317	81.21
750.498	80.35
750.678	80.53
750.859	83.07
751.04	84.42
751.22	83.37
751.4	84.44
751.581	85.16
751.761	83.32
751.942	81.85
752.122	84.15
752.303	83.96
752.483	82.8
752.663	84.77
752.844	84.91
753.024	83.85
753.204	84.08
753.385	83.5
753.565	82.43
753.745	82.58
753.925	84.06
754.106	83.41
754.286	84.86
754.466	84.18
754.646	84.83
754.826	83.78
755.006	84.4
755.187	85.06
755.367	86.4
755.547	85.04
755.727	84.45
755.907	83.77
756.087	83.52
756.267	83.51
756.447	84.93
756.627	84.62
756.807	86.4
756.987	85.21
757.167	86.38
757.346	86.95
757.526	88.38
757.706	86.81
757.886	88.36
758.066	85.68
758.246	83.64
758.425	81.63
758.605	81.38
758.785	82.31
758.965	83.99
759.144	84.58
759.324	86.28
759.504	87.81
759.683	85.58
759.863	84.03
760.043	84.84
760.222	86.81
760.402	85.17
760.581	86.57
760.761	87.16
760.94	86.58
761.12	83.45
761.299	84.39
761.479	83.64
761.658	83.33
761.838	82.53
762.017	82.95
762.197	82.79
762.376	83.1
762.555	82.48
762.735	84
762.914	81.31
763.093	81.47
763.273	80.18
763.452	81.68
763.631	80.59
763.81	83.28
763.99	83.76
764.169	84.26
764.348	82.4
764.527	81.98
764.706	82.64
764.885	81.38
765.064	81.42
765.243	81.76
765.423	81.61
765.602	80.82
765.781	80.53
765.96	78.95
766.139	78.84
766.318	78.9
766.497	78.89
766.676	78.13
766.854	79.92
767.033	81.55
767.212	82.37
767.391	82.44
767.57	83.56
767.749	84.93
767.928	84.64
768.106	82.32
768.285	82.23
768.464	83.55
768.643	80.99
768.821	81.36
769	82.56
769.179	81.94
769.357	79.87
769.536	80.59
769.715	78.73
769.893	78.32
770.072	78.88
770.25	80.52
770.429	80.97
770.607	80.68
770.786	82.45
770.964	81.59
771.143	81.14
771.321	79.02
771.5	83.7
771.678	81.86
771.857	83.68
772.035	83.9
772.213	85.33
772.392	80.71
772.57	82.77
772.748	81.14
772.927	81.8
773.105	81.67
773.283	83.62
773.461	81.87
773.64	83.7
773.818	81.14
773.996	81.83
774.174	80.81
774.352	80.42
774.531	78.51
774.709	79.63
774.887	80.46
775.065	78.49
775.243	80.92
775.421	80.11
775.599	81.3
775.777	80.1
775.955	78.71
776.133	77.86
776.311	79.08
776.489	77.62
776.667	77.52
776.844	81.47
777.022	82.33
777.2	84.29
777.378	84.94
777.556	83.72
777.734	82.33
777.911	80.94
778.089	79.86
778.267	79.11
778.445	79.22
778.622	79.11
778.8	79.03
778.978	76.64
779.155	76.5
779.333	76.11
779.511	71.77
779.688	71
779.866	68.47
780.043	68.45
780.221	68.46
780.398	73.88
780.576	71.45
780.753	77.38
780.931	77.02
781.108	78.62
781.286	77.78
781.463	80.7
781.64	80.19
781.818	81.65
781.995	80.12
782.172	81.6
782.35	82.26
782.527	77.06
782.704	78.75
782.882	79.19
783.059	77.53
783.236	76.88
783.413	82.25
783.59	80.54
783.768	80.01
783.945	79.33
784.122	80.04
784.299	80.18
784.476	80.17
784.653	82.39
784.83	84.31
785.007	82.48
785.184	80.59
785.361	77.32
785.538	77.74
785.715	72.84
785.892	75.35
786.069	75.98
786.246	78.13
786.423	78.82
786.6	86.01
786.776	84.47
786.953	88.25
787.13	87.66
787.307	84.78
787.484	83.97
787.66	86.08
787.837	83.33
788.014	83.48
788.191	84.88
788.367	79.04
788.544	81.05
788.721	78.16
788.897	78.65
789.074	79.86
789.25	81.71
789.427	76.04
789.603	81.36
789.78	80.83
789.956	80.2
790.133	81.04
790.309	84.57
790.486	80
790.662	80.06
790.839	75.61
791.015	77.73
791.192	76.91
791.368	80.02
791.544	83.03
791.721	88.26
791.897	90.19
792.073	89.18
792.249	87.76
792.426	86.49
792.602	85.96
792.778	81.18
792.954	80.64
793.13	81.47
793.307	82.15
793.483	78.17
793.659	81.72
793.835	85.44
794.011	83.19
794.187	74.22
794.363	74.32
794.539	71.14
794.715	64.05
794.891	65.3
795.067	71.06
795.243	75.09
795.419	74.15
795.595	76.03
795.771	73.22
795.947	79.03
796.122	73.27
796.298	78.3
796.474	78.34
796.65	79.99
796.826	72.18
797.001	79.49
797.177	77.03
797.353	81.73
797.529	77.22
797.704	77.88
797.88	73.67
798.056	69.93
798.231	67.37
798.407	69.34
798.582	69.92
798.758	74.65
798.934	78.87
799.109	81.17
799.285	83.49
799.46	87.65
799.636	83.86
799.811	80.73
799.986	81.68
800.162	91.96
800.337	89.95
800.513	83.94
800.688	90.69
800.863	85.86
801.039	83.33
801.214	79.76
801.389	82.42
801.565	86.95
801.74	90.13
801.915	81.39
802.09	84.34
802.265	87.91
802.441	87.82
802.616	86.17
802.791	87.03
802.966	91.64
803.141	90.09
803.316	80.6
803.491	72.01
803.666	68.95
803.841	69.88
804.016	73.21
804.191	81.13
804.366	92.23
804.541	100.29
804.716	90.7
804.891	85.3
805.066	78.63
805.241	77.3
805.416	71.95
805.591	81.25
805.765	84.03
805.94	88.05
806.115	83.41
806.29	85.98
806.464	88.38
806.639	94.02
806.814	85.97
806.989	85.11
807.163	96.82
807.338	88.14
807.512	80.22
807.687	79.86
807.862	79.8
808.036	69.96
808.211	74.92
808.385	68.94
808.56	69.72
808.734	71.42
808.909	75.13
809.083	66.13
809.258	75.05
809.432	77.05
809.606	73.18
809.781	63.32
809.955	70.07
810.13	74.39
810.304	75.54
810.478	74.59
810.652	83.44
810.827	79.28
811.001	77.7
811.175	76.28
811.349	83.95
811.524	89.93
811.698	97.49
811.872	88
812.046	101.72
812.22	97.93
812.394	74.01
812.568	76.65
812.742	86.71
812.916	70.85
813.09	84.38
813.264	104.42
813.438	90.59
813.612	94.49
813.786	83.93
813.96	68.89
814.134	69.17
814.308	77.21
814.482	75.24
814.656	100.93
814.83	95.46
815.003	103.27
815.177	109.7
815.351	100.65
815.525	92.64
815.698	92.45
815.872	76.4
816.046	66.37
816.219	67.29
816.393	67.75
816.567	72.93
816.74	83.22
816.914	108.96
817.088	126.78
817.261	132.59
817.435	133.08
817.608	126.87
817.782	105.9
817.955	101.45
818.129	102.56
818.302	88.75
818.475	94.05
818.649	93.12
818.822	89.75
818.996	85.19
819.169	99.48
819.342	109.5
819.516	96.4
819.689	100.32
819.862	117.75
820.035	111.33
820.209	85.57
820.382	99.84
820.555	101.02
820.728	99.58
820.901	89.24
821.075	112.88
821.248	127.87
821.421	105.34
821.594	96.65
821.767	99.62
821.94	97.69
822.113	69.74
822.286	70.31
822.459	52.57
822.632	68.04
822.805	76.83
822.978	87.08
823.151	90.88
823.324	113.82
823.496	75.88
823.669	59.14
823.842	70.74
824.015	70.86
824.188	65.45
824.361	84.27
824.533	91.51
824.706	69.27
824.879	82.25
825.051	84.06
825.224	94.23
825.397	99.84
825.569	98.61
825.742	100.32
825.915	86.83
826.087	87.08
826.26	72.17
826.432	76.27
826.605	64.49
826.777	72.44
826.95	78.05
827.122	94.02
827.295	89.82
827.467	93.18
827.64	71.11
827.812	52.74
827.984	56.02
828.157	67.3
828.329	76.96
828.501	105.88
828.674	123.6
828.846	118.97
829.018	134.81
829.19	140.53
829.363	119.03
829.535	126.29
829.707	122.71
829.879	80.82
830.051	71.64
830.223	85.2
830.395	60.08
830.568	53.15
830.74	81.31
830.912	88.44
831.084	83.32
831.256	79.36
831.428	69.09
831.6	64.53
831.772	63.17
831.943	38.07
832.115	70.19
832.287	100.63
832.459	103.67
832.631	104.85
832.803	117.93
832.975	113.99
833.146	101.47
833.318	71.57
833.49	89.88
833.662	97.89
833.833	86.24
834.005	74.6
834.177	104.85
834.348	90.77
834.52	82.38
834.692	116.68
834.863	105.57
835.035	82.79
835.206	75.57
835.378	82.84
835.549	66.43
835.721	102.37
835.892	104.55
836.064	143.73
836.235	144.22
836.407	161.7
836.578	137.06
836.749	149.69
836.921	124.11
837.092	114.28
837.264	93.73
837.435	86.4
837.606	73.07
837.777	77.73
837.949	99.86
838.12	42.54
838.291	76.22
838.462	112.11
838.633	106.58
838.805	89.22
838.976	151.66
839.147	133.74
839.318	156.72
839.489	138.82
839.66	185.85
839.831	145.09
840.002	207.45
840.173	138.89
840.344	77.26
840.515	50.75
840.686	42.91
840.857	34.62
841.028	62.47
841.199	95.08
841.369	86.23
841.54	91.98
841.711	120.62
841.882	93.12
842.053	112.04
842.223	122.86
842.394	109.09
842.565	91.41
842.736	113.94
842.906	85.87
843.077	79.04
843.248	89.06
843.418	117.44
843.589	107.04
843.759	162.35
843.93	576.35
844.101	567.92
844.271	138.89
844.442	177.74
844.612	168.02
844.783	181.8
844.953	131.1
845.123	113.01
845.294	78.21
845.464	68.8
845.635	45.33
845.805	101.29
845.975	144
846.146	198.59
846.316	386.31
846.486	209.01
846.656	154.1
846.827	97.71
846.997	62.7
847.167	54.02
847.337	37.73
847.507	83.49
847.677	81.91
847.848	109.41
848.018	121.13
848.188	180.67
848.358	135.48
848.528	188.33
848.698	180.64
848.868	173.89
849.038	154.88
849.208	149.4
849.378	113.34
849.548	45.93
849.718	145.91
849.887	-142.99
850.057	4725.81
850.227	9.87
850.397	71.81
850.567	122.5
850.737	86.25
850.906	51.14
851.076	26.16
851.246	69.1
851.415	34.31
851.585	50.46
851.755	69.38
851.924	108.95
852.094	108.15
852.264	91.29
852.433	77.65
852.603	101.16
852.772	86.23
852.942	85.24
853.111	83.66
853.281	96.08
853.45	90.64
853.62	83.18
853.789	119.16
853.959	222.24
854.128	-201.88
854.297	-88.39
854.467	-5.47
854.636	25.75
854.805	111.86
854.975	58.03
855.144	55.61
855.313	81.25
855.482	119.91
855.652	115.53
855.821	121.31
855.99	212.31
856.159	655.02
856.328	186.47
856.497	205.38
856.667	221.78
856.836	181.92
857.005	168.9
857.174	162.06
857.343	160.75
857.512	96.37
857.681	53.96
857.85	17.36
858.019	38.33
858.188	37.87
858.356	31.92
858.525	38.32
858.694	49.05
858.863	83.77
859.032	56.9
859.201	107.76
859.369	119.33
859.538	117.26
859.707	49.51
859.876	70.78
860.044	60.33
860.213	108.73
860.382	148.68
860.55	164.75
860.719	173.93
860.888	160.28
861.056	155.09
861.225	131.58
861.393	195.48
861.562	223.54
861.73	243.08
861.899	183.02
862.067	228.19
862.236	137.96
862.404	60.45
862.572	20.77
862.741	-107.01
862.909	62.07
863.078	80.86
863.246	87.75
863.414	133.43
863.582	106.79
863.751	96.13
863.919	57.06
864.087	132.6
864.255	127
864.424	-23.48
864.592	31.55
864.76	50.29
864.928	43.02
865.096	44.02
865.264	75.46
865.432	104.8
865.6	170.84
865.768	72.16
865.936	-51.2
866.104	-20.46
866.272	80.67
866.44	-16.94
866.608	-8.69
866.776	58.13
866.944	52.54
867.112	9.14
867.28	-19.58
867.448	15.67
867.615	1.87
867.783	28.03
867.951	8.82
868.119	78.1
868.286	108.01
868.454	57.64
868.622	81.35
868.789	487.99
868.957	-766.06
869.125	-397.51
869.292	682.94
869.46	-261.74
869.627	-397.14
869.795	-63.13
869.963	18.79
870.13	71.09
870.298	51.3
870.465	70.82
870.632	73.49
870.8	80.01
870.967	80.63
871.135	143.15
871.302	-129.02
871.469	175.08
871.637	93.9
871.804	49.13
871.971	37.37
872.139	92.95
872.306	127.88
872.473	567.34
872.64	113.44
872.807	79.93
872.975	15.24
873.142	34.99
873.309	51.14
873.476	53.54
873.643	81.52
873.81	88.42
873.977	91.06
874.144	103.4
874.311	204.49
874.478	67.91
874.645	-86.11
874.812	-227.01
874.979	92.69
875.146	33.68
875.313	-12.42
875.48	-153.01
875.647	293.96
875.813	-2110.13
875.98	488.84
876.147	81.01
876.314	98.58
876.481	127.11
876.647	159.9
876.814	212.22
876.981	282.22
877.147	217.34
877.314	71.99
877.481	167.95
877.647	262.58
877.814	371.09
877.98	226.22
878.147	-508.09
878.314	-464.15
878.48	1103.24
878.647	305.75
878.813	1666.91
878.979	106.12
879.146	30.72
879.312	23.46
879.479	73.6
879.645	77
879.811	46.24
879.978	97.39
880.144	299.28
880.31	835.52
880.477	-1853.02
880.643	-1803.78
880.809	-9251.22
880.975	1622.61
881.142	0.11
881.308	89.18
881.474	249.16
881.64	156.48
881.806	106.57
881.972	136.37
882.138	124.77
882.304	74.32
882.47	19.53
882.636	7.66
882.802	26.38
882.968	6.87
883.134	24.01
883.3	48.95
883.466	72.58
883.632	81.66
883.798	127.23
883.964	159.42
884.129	230.99
884.295	322.19
884.461	420.12
884.627	-36.06
884.793	-10.13
884.958	-115.49
885.124	-1165.35
885.29	54.73
885.455	89.15
885.621	34.01
885.787	20.27
885.952	46.91
886.118	161.86
886.283	131.76
886.449	204.59
886.614	137.06
886.78	149.44
886.945	94.54
887.111	54.56
887.276	85.37
887.442	138.29
887.607	50.13
887.773	99.38
887.938	235.63
888.103	226.62
888.269	-16.08
888.434	-2264.71
888.599	225.75
888.764	2482.52
888.93	191.13
889.095	150.08
889.26	165.25
889.425	222.29
889.59	133.05
889.756	127.01
889.921	103.93
890.086	65.61
890.251	-40.98
890.416	-38.14
890.581	-85.19
890.746	-48.93
890.911	22.2
891.076	-26.27
891.241	-164.42
891.406	-11471.43
891.571	134.99
891.736	50.84
891.901	103.23
892.065	-80.85
892.23	-126.43
892.395	22.13
892.56	1199.33
892.725	-98.8
892.889	-639.41
893.054	-1549.01
893.219	-2019.42
893.384	-130.1
893.548	-115.85
893.713	-38.84
893.878	-72.77
