Data from Ofav_SP_Phys_0EV1_Reflection_3.txt Node
Date: Thu Aug 05 17:54:55 EDT 2021
User: Adam
Spectrometer: FLMT01687
Trigger mode: 0
Integration Time (sec): 8.000000E-1
Scans to average: 2
Electric dark correction enabled: true
Nonlinearity correction enabled: false
Boxcar width: 2
XAxis mode: Wavelengths
Number of Pixels in Spectrum: 3648
>>>>>Begin Spectral Data<<<<<
179.494	727.45
179.716	807.35
179.937	650.46
180.158	728.95
180.38	1591.76
180.601	-443.05
180.823	47.06
181.044	99.66
181.265	14.76
181.486	-15.78
181.708	287.25
181.929	-58.35
182.15	-45.71
182.372	57.63
182.593	35.12
182.814	-267.95
183.035	-268.37
183.257	-911.03
183.478	1270.51
183.699	-898.48
183.92	-105.21
184.141	-364.13
184.363	160
184.584	11.3
184.805	80.84
185.026	77.95
185.247	91.86
185.468	70.88
185.689	89.68
185.91	51.91
186.132	0.68
186.353	-19.98
186.574	-155.46
186.795	-134.12
187.016	-99.44
187.237	-52.94
187.458	-224
187.679	44.65
187.9	52.67
188.121	31.51
188.342	91.13
188.563	79.37
188.784	90.9
189.005	61.32
189.226	97.66
189.447	69.23
189.667	145.03
189.888	204.76
190.109	180.64
190.33	158.85
190.551	115.55
190.772	113.36
190.993	85.64
191.214	68.07
191.434	60.92
191.655	63.77
191.876	68.81
192.097	66.99
192.318	81.62
192.538	92.42
192.759	170.02
192.98	105.85
193.201	182.92
193.421	85.25
193.642	78.83
193.863	3.74
194.083	25.52
194.304	46.02
194.525	48.45
194.745	49.49
194.966	40.81
195.187	51.42
195.407	32.58
195.628	30.8
195.848	22.86
196.069	40.81
196.29	20.55
196.51	37.83
196.731	27.03
196.951	53.07
197.172	70.65
197.392	104.68
197.613	100.51
197.833	113.83
198.054	86.55
198.274	40.65
198.495	33.39
198.715	45.54
198.936	30.48
199.156	57.78
199.377	74.5
199.597	66.88
199.817	63.24
200.038	60.69
200.258	54.34
200.479	50.22
200.699	41.48
200.919	37.35
201.14	-4.77
201.36	-24.18
201.58	36.31
201.801	-28.82
202.021	-41.78
202.241	58.02
202.461	80.42
202.682	-20.15
202.902	59.99
203.122	231.79
203.342	269.49
203.563	82.94
203.783	115.37
204.003	76.8
204.223	65.01
204.443	36.32
204.663	65.79
204.884	67.1
205.104	41.53
205.324	67.48
205.544	67.03
205.764	60.69
205.984	74.19
206.204	74.49
206.424	42.93
206.644	39.97
206.864	26.92
207.084	4.38
207.304	54.67
207.525	50.02
207.745	47.92
207.964	68.09
208.184	85.96
208.404	60.48
208.624	47.98
208.844	61.1
209.064	55.61
209.284	42.63
209.504	38.84
209.724	40.97
209.944	44.68
210.164	32.8
210.384	51.3
210.604	45.17
210.823	38.68
211.043	32.82
211.263	59.35
211.483	51.06
211.703	68.69
211.922	132.51
212.142	162.42
212.362	136.1
212.582	164.44
212.801	123.63
213.021	64.46
213.241	9.58
213.461	-10.77
213.68	-0.45
213.9	-10.91
214.12	-14.73
214.339	24.7
214.559	52.09
214.779	47.37
214.998	81.27
215.218	79.95
215.438	132.63
215.657	176.61
215.877	232.24
216.096	169.64
216.316	188.27
216.535	87.7
216.755	5.72
216.974	36.77
217.194	86.4
217.413	52.46
217.633	79.18
217.852	74.71
218.072	60.6
218.291	56.78
218.511	79.47
218.73	50.47
218.95	60.56
219.169	64.09
219.389	79.79
219.608	65.13
219.827	88.86
220.047	109.73
220.266	90.07
220.485	101.86
220.705	108.58
220.924	78.29
221.143	57.52
221.363	22.75
221.582	26.73
221.801	3.15
222.021	49.59
222.24	65.72
222.459	159.06
222.678	124.68
222.897	122.03
223.117	137.57
223.336	103.29
223.555	101.71
223.774	48.44
223.993	55.39
224.213	53.47
224.432	66.41
224.651	56.86
224.87	82.31
225.089	69.72
225.308	71.04
225.527	58.89
225.746	27.16
225.965	38.63
226.184	19.21
226.404	23.34
226.623	-18.36
226.842	9.19
227.061	27.39
227.28	39.58
227.499	64.18
227.718	80.67
227.936	78.93
228.155	74.76
228.374	58.91
228.593	43.31
228.812	47.65
229.031	45.9
229.25	37.93
229.469	43.14
229.688	34.9
229.907	24.74
230.125	8.95
230.344	19.27
230.563	18.79
230.782	67.46
231.001	42.82
231.22	41.58
231.438	16.24
231.657	13.21
231.876	-17.17
232.095	24.25
232.313	38.09
232.532	32.27
232.751	53.83
232.969	37.94
233.188	31.75
233.407	22.9
233.625	50.93
233.844	4.71
234.063	22.11
234.281	28.58
234.5	47.98
234.719	28.74
234.937	39.89
235.156	33.17
235.374	21.56
235.593	30.05
235.811	30.28
236.03	42.03
236.249	54.04
236.467	55.03
236.686	20.2
236.904	23.09
237.123	8.95
237.341	37.08
237.559	45.52
237.778	49.33
237.996	42.05
238.215	53.53
238.433	42.42
238.652	27.9
238.87	17.94
239.088	13.58
239.307	19.49
239.525	0.67
239.743	3.92
239.962	24.98
240.18	28.2
240.398	2.47
240.617	-28.1
240.835	25.34
241.053	32.88
241.271	39.18
241.49	67.78
241.708	81.31
241.926	69.92
242.144	64.91
242.363	114.26
242.581	83.7
242.799	107.14
243.017	50.8
243.235	36.68
243.453	33.68
243.672	48.7
243.89	39.25
244.108	116.07
244.326	84.98
244.544	78.39
244.762	67.51
244.98	86.59
245.198	76.77
245.416	99.67
245.634	96.74
245.852	123.62
246.07	99.16
246.288	61.06
246.506	38.96
246.724	67.56
246.942	54.81
247.16	78.14
247.378	77.05
247.596	45.88
247.814	40.45
248.032	1.1
248.25	-34.28
248.468	1.92
248.685	17.09
248.903	23.62
249.121	44.03
249.339	60.61
249.557	62.43
249.775	51.9
249.992	-4.7
250.21	16.85
250.428	3.19
250.646	0.93
250.863	32.08
251.081	69.52
251.299	64.94
251.517	114.62
251.734	109.22
251.952	57.1
252.17	67.39
252.387	52.71
252.605	35.33
252.823	61.5
253.04	75.65
253.258	62.81
253.475	99.77
253.693	87.96
253.911	75.23
254.128	71.56
254.346	77.42
254.563	60.7
254.781	71.5
254.998	64.34
255.216	57.41
255.433	48.47
255.651	63.67
255.868	15.58
256.086	0.13
256.303	2.12
256.521	-0.27
256.738	-43.47
256.956	-78.39
257.173	22.01
257.39	83.6
257.608	72.7
257.825	52.21
258.043	49.45
258.26	41.95
258.477	17.87
258.695	24.33
258.912	35.17
259.129	48.5
259.346	54.86
259.564	51.28
259.781	68.6
259.998	75.38
260.216	71.99
260.433	62.08
260.65	80.06
260.867	36.52
261.084	64.27
261.302	71.41
261.519	74.19
261.736	63.63
261.953	66.82
262.17	57.09
262.387	84.82
262.604	84.28
262.822	111.16
263.039	155.68
263.256	154.81
263.473	110.68
263.69	121.22
263.907	95.61
264.124	65.15
264.341	41.45
264.558	35.41
264.775	23.51
264.992	41.48
265.209	42.53
265.426	42.94
265.643	35.81
265.86	34.46
266.077	14.96
266.294	23.97
266.51	24.63
266.727	45.83
266.944	63.27
267.161	50.83
267.378	36.86
267.595	29.78
267.812	-6.1
268.028	-10.16
268.245	11.06
268.462	20.14
268.679	15.82
268.896	21.74
269.112	9.95
269.329	7.56
269.546	26.36
269.763	42.19
269.979	74.52
270.196	86.73
270.413	82.14
270.629	92.4
270.846	87.21
271.063	81.6
271.279	114.37
271.496	118.23
271.712	6.78
271.929	-24.65
272.146	-38.08
272.362	-128.6
272.579	-80.21
272.795	-28.52
273.012	-0.16
273.228	-11.87
273.445	29.72
273.661	70.75
273.878	51.49
274.094	33.86
274.311	38.73
274.527	26.01
274.744	7.94
274.96	26.12
275.177	33.52
275.393	28.46
275.609	43.67
275.826	44.41
276.042	72.26
276.259	82.18
276.475	61.98
276.691	57.59
276.908	58.31
277.124	48.01
277.34	53.68
277.557	60.36
277.773	46.6
277.989	80.38
278.205	104
278.422	90.84
278.638	98.74
278.854	109.18
279.07	99.3
279.286	72.3
279.503	88.16
279.719	77.51
279.935	93.95
280.151	61.02
280.367	86.45
280.583	70.38
280.799	69.04
281.016	54.85
281.232	63.43
281.448	67.4
281.664	50.66
281.88	80.98
282.096	87.4
282.312	92.27
282.528	90.21
282.744	110.6
282.96	92.21
283.176	92.27
283.392	81.68
283.608	81.82
283.824	59.48
284.04	57.59
284.256	51.26
284.471	38.2
284.687	41.62
284.903	46.71
285.119	48.82
285.335	37.04
285.551	40.78
285.767	33.29
285.982	57.59
286.198	69.84
286.414	73.12
286.63	109.11
286.846	101.64
287.061	55.14
287.277	36.67
287.493	47.13
287.709	21.22
287.924	34.48
288.14	53.29
288.356	72.46
288.571	64.16
288.787	72.31
289.003	88.43
289.218	81.76
289.434	80.49
289.65	98.24
289.865	44.79
290.081	28.05
290.296	30.79
290.512	18.86
290.727	26.3
290.943	43.68
291.159	45.86
291.374	60.38
291.59	57.84
291.805	57.91
292.021	84.03
292.236	109.02
292.451	77.82
292.667	95.87
292.882	30.99
293.098	0.37
293.313	13.03
293.529	32.58
293.744	41.33
293.959	41.48
294.175	53.93
294.39	29.46
294.605	21.6
294.821	19.88
295.036	27.05
295.251	35.31
295.467	52.44
295.682	41.6
295.897	53.97
296.112	44.22
296.328	35.08
296.543	34.38
296.758	45.25
296.973	45.27
297.188	77.76
297.404	62.78
297.619	53.96
297.834	42.13
298.049	12.9
298.264	-19.77
298.479	-13.28
298.694	14.18
298.909	83.24
299.125	85.38
299.34	101.02
299.555	103.5
299.77	106.39
299.985	87.12
300.2	86.1
300.415	72.3
300.63	58.02
300.845	39.59
301.06	69.13
301.275	64.83
301.49	83.92
301.704	92.22
301.919	77.59
302.134	61.72
302.349	62.52
302.564	32.69
302.779	48.71
302.994	47.86
303.209	53.69
303.423	42.31
303.638	58.1
303.853	50.12
304.068	40.97
304.283	39.72
304.497	48.19
304.712	51.58
304.927	51.56
305.142	57.97
305.356	61.92
305.571	75.25
305.786	64.01
306	60.69
306.215	81.72
306.43	87.2
306.644	88.5
306.859	86.15
307.074	110.31
307.288	96.66
307.503	75.65
307.717	68.18
307.932	59.44
308.147	69.74
308.361	65.37
308.576	57.61
308.79	49.15
309.005	67.32
309.219	24.35
309.434	2.21
309.648	-13.22
309.863	-44.91
310.077	-114.22
310.292	-62.32
310.506	-38.2
310.72	10.02
310.935	60.94
311.149	98.92
311.364	87.2
311.578	98.24
311.792	94.07
312.007	76.48
312.221	62.62
312.435	71.28
312.649	65.42
312.864	49.78
313.078	47.26
313.292	64.04
313.507	57.7
313.721	54.18
313.935	49.71
314.149	48.58
314.363	44.58
314.578	46.71
314.792	39.25
315.006	44.33
315.22	38.67
315.434	1.7
315.648	-26.63
315.862	-39.55
316.077	-15.47
316.291	-14.56
316.505	40.16
316.719	38.77
316.933	39.72
317.147	22.92
317.361	23.66
317.575	6.27
317.789	25.1
318.003	15.08
318.217	51.23
318.431	68.81
318.645	81.41
318.859	61.45
319.073	55.41
319.287	41.48
319.5	40.74
319.714	11.85
319.928	48.26
320.142	59.01
320.356	68.87
320.57	73.46
320.784	100.83
320.997	57.74
321.211	52.01
321.425	18.25
321.639	-21.02
321.853	-29.15
322.066	-12.68
322.28	-17.1
322.494	-14.76
322.707	16.88
322.921	24.11
323.135	29.64
323.349	44.44
323.562	50.5
323.776	64.82
323.989	52.95
324.203	40.21
324.417	29.44
324.63	25.51
324.844	-3.48
325.057	22.92
325.271	-3.05
325.485	20.97
325.698	24.36
325.912	27.93
326.125	29.18
326.339	69.97
326.552	45.09
326.766	51.51
326.979	92.79
327.193	86.08
327.406	73.13
327.619	98.22
327.833	69.58
328.046	50.54
328.26	35.84
328.473	-3.86
328.686	11.09
328.9	27.15
329.113	17.76
329.326	22.95
329.54	38.55
329.753	46.75
329.966	62.24
330.179	59.45
330.393	87.37
330.606	100.81
330.819	90.15
331.032	110.05
331.246	138.54
331.459	66.97
331.672	47.04
331.885	74.26
332.098	70.6
332.311	71.67
332.525	90.97
332.738	87.1
332.951	58.93
333.164	65.79
333.377	47.01
333.59	49.91
333.803	25.56
334.016	18.15
334.229	-12.56
334.442	1.46
334.655	24.83
334.868	53.93
335.081	49.92
335.294	69.59
335.507	80.7
335.72	71.19
335.933	62.36
336.146	64.75
336.359	67.73
336.572	56.93
336.785	41.99
336.997	59.47
337.21	122.18
337.423	100.17
337.636	89.33
337.849	111.26
338.062	87.61
338.274	33.66
338.487	15.92
338.7	20.31
338.913	28.51
339.125	42.44
339.338	32.23
339.551	45.29
339.763	74.93
339.976	67.69
340.189	73.38
340.402	68.83
340.614	62.68
340.827	67.02
341.039	51.62
341.252	39.34
341.465	49.29
341.677	59
341.89	23.63
342.102	35.98
342.315	31.83
342.527	48.2
342.74	31.77
342.952	57.76
343.165	75.48
343.377	97.3
343.59	59.05
343.802	80.48
344.015	47.77
344.227	30.18
344.44	32.65
344.652	53.41
344.864	41.45
345.077	58.19
345.289	44.67
345.502	25.66
345.714	34.11
345.926	50.82
346.139	39.99
346.351	51.01
346.563	45.34
346.775	35.56
346.988	10.15
347.2	9.31
347.412	11.09
347.624	63.54
347.837	58.51
348.049	68.95
348.261	47.26
348.473	56.88
348.685	59.89
348.897	78.35
349.11	75.38
349.322	91.96
349.534	61.68
349.746	43.51
349.958	29.49
350.17	43
350.382	51.54
350.594	63.47
350.806	79.44
351.018	82.41
351.23	71.72
351.442	70.18
351.654	66.14
351.866	55.34
352.078	33.41
352.29	29.77
352.502	48.78
352.714	38.72
352.926	35.06
353.138	44.31
353.35	53.78
353.561	52.84
353.773	49.09
353.985	62.75
354.197	68.14
354.409	52.03
354.621	41.24
354.832	68.64
355.044	75.58
355.256	92.51
355.468	103
355.679	99.02
355.891	88.23
356.103	79.87
356.314	62.61
356.526	65.09
356.738	54.22
356.949	46.31
357.161	53.49
357.373	51.88
357.584	55.34
357.796	58.22
358.008	47.86
358.219	18.36
358.431	34.52
358.642	3.34
358.854	37.38
359.065	56.77
359.277	65.64
359.488	51.11
359.7	63.73
359.911	52.2
360.123	45.1
360.334	44.51
360.546	31.1
360.757	32.27
360.969	27.67
361.18	37.59
361.391	52.81
361.603	86.75
361.814	93.8
362.025	102.02
362.237	75.63
362.448	59.21
362.659	51.67
362.871	52.6
363.082	33.2
363.293	27.24
363.504	33.87
363.716	33.36
363.927	42.82
364.138	52.74
364.349	27.43
364.56	26.69
364.772	21.07
364.983	1.7
365.194	40.81
365.405	74.11
365.616	62.45
365.827	69.74
366.038	65.93
366.25	57.39
366.461	51.42
366.672	64.62
366.883	55.63
367.094	59.49
367.305	57.34
367.516	63.35
367.727	57.37
367.938	72.43
368.149	55.17
368.36	67.87
368.571	84.07
368.781	83.58
368.992	60.32
369.203	56.03
369.414	32.44
369.625	29.47
369.836	19.5
370.047	17.97
370.258	22.92
370.468	27.04
370.679	23.08
370.89	28.73
371.101	42.94
371.312	55.14
371.522	53.84
371.733	69.96
371.944	71.23
372.155	73.95
372.365	38.1
372.576	42.73
372.787	42.65
372.997	57.42
373.208	56.07
373.419	95.67
373.629	84.44
373.84	71.99
374.05	56.32
374.261	44.14
374.472	40.63
374.682	33.97
374.893	30.76
375.103	33.31
375.314	40.04
375.524	37.58
375.735	26.82
375.945	45.95
376.156	48.78
376.366	54.42
376.577	56.88
376.787	74.19
376.997	63.2
377.208	63.5
377.418	51.33
377.629	54
377.839	70.65
378.049	75.98
378.26	58.41
378.47	63.63
378.68	74.51
378.89	44.25
379.101	34.99
379.311	44.28
379.521	44.53
379.732	35.48
379.942	38.3
380.152	45.49
380.362	44.38
380.572	46.08
380.783	34.59
380.993	36.99
381.203	36.53
381.413	32.63
381.623	33.16
381.833	45.22
382.043	50.78
382.253	48.79
382.463	56.06
382.674	57.96
382.884	43.88
383.094	30.91
383.304	28.32
383.514	15.87
383.724	6.64
383.934	13.01
384.144	16.77
384.353	18.08
384.563	24.92
384.773	29.81
384.983	26.49
385.193	31.43
385.403	29.38
385.613	34.7
385.823	29.55
386.033	28.12
386.242	28.07
386.452	25.09
386.662	23.06
386.872	25.2
387.082	29.28
387.291	13.19
387.501	15.69
387.711	14.34
387.921	15.37
388.13	12.69
388.34	23.28
388.55	21.71
388.759	22.55
388.969	22.77
389.179	21.07
389.388	23.83
389.598	23.14
389.807	23.47
390.017	21.67
390.227	21.29
390.436	18.32
390.646	17.74
390.855	14.51
391.065	15.52
391.274	16.9
391.484	16.66
391.693	17.56
391.903	19.25
392.112	20.58
392.322	19.02
392.531	21.02
392.74	20.58
392.95	18.45
393.159	16.54
393.369	18.65
393.578	18.56
393.787	19.16
393.997	20.11
394.206	20.2
394.415	20.38
394.625	20.13
394.834	18.36
395.043	16.97
395.252	17.58
395.462	16.57
395.671	16.2
395.88	17.9
396.089	18.51
396.298	18.07
396.508	18.14
396.717	18.04
396.926	17.35
397.135	16.62
397.344	16.18
397.553	16.18
397.762	16.39
397.971	16.2
398.181	16.56
398.39	16.41
398.599	16.64
398.808	15.91
399.017	15.61
399.226	15.69
399.435	15.75
399.644	15.43
399.853	15.94
400.062	16.28
400.27	16.37
400.479	16.3
400.688	15.99
400.897	15.64
401.106	15.27
401.315	14.9
401.524	15.01
401.733	14.97
401.941	14.9
402.15	14.73
402.359	14.69
402.568	14.47
402.777	14.69
402.985	14.55
403.194	14.52
403.403	14.52
403.612	14.46
403.82	14.58
404.029	14.51
404.238	14.59
404.446	14.76
404.655	14.86
404.864	14.72
405.072	14.79
405.281	14.68
405.489	14.49
405.698	14.5
405.906	14.16
406.115	13.92
406.324	14.05
406.532	14.09
406.741	14
406.949	13.92
407.158	14.31
407.366	14.22
407.574	14.28
407.783	14.29
407.991	14.33
408.2	13.97
408.408	13.89
408.617	13.8
408.825	13.69
409.033	13.86
409.242	13.73
409.45	13.47
409.658	13.35
409.867	13.4
410.075	13.36
410.283	13.64
410.491	13.84
410.7	13.96
410.908	13.78
411.116	13.6
411.324	13.35
411.533	13.3
411.741	13.18
411.949	13.14
412.157	13.17
412.365	13.38
412.573	13.33
412.781	13.38
412.99	13.45
413.198	13.57
413.406	13.64
413.614	13.55
413.822	13.44
414.03	13.54
414.238	13.35
414.446	13.2
414.654	13.32
414.862	13.26
415.07	13.06
415.278	13.1
415.486	12.93
415.694	12.98
415.902	13.04
416.109	12.94
416.317	12.99
416.525	12.96
416.733	12.91
416.941	12.97
417.149	13.1
417.357	13.04
417.564	12.97
417.772	12.72
417.98	12.7
418.188	12.56
418.395	12.4
418.603	12.51
418.811	12.6
419.019	12.49
419.226	12.64
419.434	12.76
419.642	12.65
419.849	12.69
420.057	12.58
420.265	12.53
420.472	12.34
420.68	12.43
420.887	12.59
421.095	12.47
421.302	12.35
421.51	12.41
421.717	12.32
421.925	12.03
422.132	12.24
422.34	12.29
422.547	12.37
422.755	12.43
422.962	12.69
423.17	12.78
423.377	12.81
423.585	12.86
423.792	12.69
423.999	12.54
424.207	12.15
424.414	11.89
424.621	11.87
424.829	12.05
425.036	12.07
425.243	12.34
425.451	12.74
425.658	12.77
425.865	12.6
426.072	12.44
426.28	12.31
426.487	12.12
426.694	11.92
426.901	12.05
427.108	12.27
427.315	12.39
427.523	12.5
427.73	12.51
427.937	12.38
428.144	12.4
428.351	12.48
428.558	12.23
428.765	12.14
428.972	12.17
429.179	12.03
429.386	11.78
429.593	12.07
429.8	12.15
430.007	12.18
430.214	12.24
430.421	12.48
430.628	12.29
430.835	12.46
431.042	12.55
431.249	12.6
431.456	12.56
431.662	12.8
431.869	12.9
432.076	12.79
432.283	12.87
432.49	12.66
432.697	12.52
432.903	12.2
433.11	12.21
433.317	12.03
433.524	12.16
433.73	12.19
433.937	12.33
434.144	12.55
434.35	12.53
434.557	12.55
434.764	12.44
434.97	12.4
435.177	12.35
435.384	12.26
435.59	12.22
435.797	12.28
436.003	12.34
436.21	12.04
436.416	12.1
436.623	12.13
436.829	12.14
437.036	12.09
437.242	12.33
437.449	12.42
437.655	12.57
437.862	12.67
438.068	12.81
438.275	12.84
438.481	12.84
438.687	12.74
438.894	12.79
439.1	12.55
439.307	12.56
439.513	12.63
439.719	12.63
439.926	12.57
440.132	12.83
440.338	12.82
440.544	12.74
440.751	12.79
440.957	12.73
441.163	12.55
441.369	12.46
441.575	12.37
441.782	12.42
441.988	12.37
442.194	12.35
442.4	12.45
442.606	12.6
442.812	12.51
443.018	12.56
443.224	12.58
443.431	12.55
443.637	12.33
443.843	12.41
444.049	12.36
444.255	12.41
444.461	12.47
444.667	12.62
444.873	12.44
445.079	12.52
445.284	12.58
445.49	12.54
445.696	12.55
445.902	12.67
446.108	12.64
446.314	12.5
446.52	12.49
446.726	12.5
446.931	12.44
447.137	12.42
447.343	12.61
447.549	12.58
447.755	12.61
447.96	12.67
448.166	12.69
448.372	12.6
448.578	12.61
448.783	12.7
448.989	12.62
449.195	12.66
449.4	12.76
449.606	12.87
449.812	12.83
450.017	12.98
450.223	12.95
450.428	12.89
450.634	12.82
450.84	12.84
451.045	12.75
451.251	12.77
451.456	12.83
451.662	12.87
451.867	12.86
452.073	12.95
452.278	13.1
452.483	13.11
452.689	13.22
452.894	13.25
453.1	13.35
453.305	13.2
453.51	13.21
453.716	13.26
453.921	13.17
454.127	13.09
454.332	13.08
454.537	13.15
454.742	13.16
454.948	13.29
455.153	13.28
455.358	13.44
455.563	13.5
455.769	13.37
455.974	13.38
456.179	13.36
456.384	13.22
456.589	13.17
456.795	13.24
457	13.28
457.205	13.42
457.41	13.52
457.615	13.6
457.82	13.68
458.025	13.61
458.23	13.67
458.435	13.64
458.64	13.57
458.845	13.7
459.05	13.73
459.255	13.74
459.46	13.93
459.665	14
459.87	13.9
460.075	13.93
460.28	13.93
460.485	13.87
460.69	13.85
460.895	13.74
461.099	13.76
461.304	13.71
461.509	13.76
461.714	13.72
461.919	13.88
462.123	13.9
462.328	14
462.533	14.01
462.738	14.16
462.942	14.22
463.147	14.26
463.352	14.22
463.556	14.21
463.761	14.06
463.966	14.06
464.17	14.19
464.375	14.3
464.58	14.35
464.784	14.5
464.989	14.47
465.193	14.4
465.398	14.42
465.602	14.55
465.807	14.66
466.011	14.68
466.216	14.64
466.42	14.75
466.625	14.73
466.829	14.7
467.034	14.84
467.238	14.93
467.443	14.84
467.647	14.62
467.851	14.51
468.056	14.38
468.26	14.37
468.464	14.31
468.669	14.55
468.873	14.56
469.077	14.53
469.282	14.64
469.486	14.56
469.69	14.49
469.894	14.49
470.099	14.65
470.303	14.64
470.507	14.75
470.711	14.79
470.915	14.88
471.119	14.81
471.324	14.8
471.528	14.64
471.732	14.65
471.936	14.69
472.14	14.76
472.344	14.68
472.548	14.86
472.752	14.83
472.956	14.81
473.16	14.83
473.364	14.78
473.568	14.7
473.772	14.8
473.976	14.71
474.18	14.67
474.384	14.77
474.588	14.92
474.792	14.79
474.995	14.79
475.199	14.71
475.403	14.55
475.607	14.45
475.811	14.47
476.015	14.39
476.218	14.48
476.422	14.58
476.626	14.56
476.83	14.66
477.033	14.77
477.237	14.74
477.441	14.59
477.644	14.57
477.848	14.45
478.052	14.33
478.255	14.32
478.459	14.44
478.663	14.48
478.866	14.47
479.07	14.54
479.273	14.43
479.477	14.48
479.681	14.43
479.884	14.55
480.088	14.44
480.291	14.55
480.495	14.44
480.698	14.56
480.901	14.4
481.105	14.51
481.308	14.49
481.512	14.54
481.715	14.51
481.919	14.55
482.122	14.5
482.325	14.49
482.529	14.4
482.732	14.42
482.935	14.38
483.138	14.44
483.342	14.35
483.545	14.49
483.748	14.4
483.952	14.43
484.155	14.41
484.358	14.38
484.561	14.25
484.764	14.21
484.967	14.22
485.171	14.11
485.374	14.23
485.577	14.25
485.78	14.24
485.983	14.26
486.186	14.35
486.389	14.3
486.592	14.29
486.795	14.34
486.998	14.33
487.201	14.21
487.404	14.15
487.607	14.27
487.81	14.14
488.013	14.03
488.216	14.08
488.419	14.14
488.622	13.89
488.825	13.91
489.028	13.89
489.231	13.98
489.433	13.93
489.636	14.03
489.839	14.02
490.042	14.14
490.245	14.07
490.447	14.05
490.65	14.05
490.853	14.15
491.056	14.02
491.258	13.97
491.461	13.99
491.664	13.83
491.866	13.67
492.069	13.76
492.272	13.74
492.474	13.68
492.677	13.72
492.879	13.83
493.082	13.8
493.285	13.73
493.487	13.71
493.69	13.72
493.892	13.57
494.095	13.6
494.297	13.74
494.5	13.87
494.702	13.92
494.905	13.97
495.107	13.84
495.309	13.79
495.512	13.54
495.714	13.51
495.917	13.54
496.119	13.56
496.321	13.49
496.524	13.62
496.726	13.6
496.928	13.54
497.13	13.55
497.333	13.51
497.535	13.58
497.737	13.52
497.939	13.55
498.142	13.46
498.344	13.45
498.546	13.4
498.748	13.45
498.95	13.41
499.152	13.29
499.355	13.35
499.557	13.32
499.759	13.3
499.961	13.32
500.163	13.45
500.365	13.54
500.567	13.45
500.769	13.44
500.971	13.37
501.173	13.38
501.375	13.28
501.577	13.29
501.779	13.3
501.981	13.4
502.183	13.48
502.385	13.36
502.587	13.33
502.788	13.33
502.99	13.24
503.192	13.11
503.394	13.12
503.596	13.07
503.798	13.01
503.999	13
504.201	12.96
504.403	12.99
504.605	13.07
504.806	13.04
505.008	13.01
505.21	12.99
505.411	12.9
505.613	12.82
505.815	12.86
506.016	12.9
506.218	12.92
506.42	12.97
506.621	12.94
506.823	12.96
507.024	12.88
507.226	12.87
507.427	12.8
507.629	12.86
507.83	12.78
508.032	12.75
508.233	12.84
508.435	12.85
508.636	12.84
508.838	12.85
509.039	12.8
509.24	12.62
509.442	12.64
509.643	12.7
509.845	12.73
510.046	12.81
510.247	12.99
510.448	12.97
510.65	12.9
510.851	12.84
511.052	12.85
511.254	12.8
511.455	12.76
511.656	12.69
511.857	12.67
512.058	12.62
512.26	12.52
512.461	12.53
512.662	12.63
512.863	12.59
513.064	12.67
513.265	12.69
513.466	12.76
513.667	12.69
513.868	12.7
514.069	12.63
514.27	12.62
514.471	12.55
514.672	12.56
514.873	12.42
515.074	12.34
515.275	12.34
515.476	12.3
515.677	12.28
515.878	12.44
516.079	12.45
516.28	12.4
516.481	12.45
516.682	12.47
516.882	12.4
517.083	12.42
517.284	12.46
517.485	12.48
517.686	12.47
517.886	12.46
518.087	12.4
518.288	12.41
518.488	12.34
518.689	12.3
518.89	12.25
519.091	12.28
519.291	12.27
519.492	12.32
519.692	12.36
519.893	12.47
520.094	12.43
520.294	12.35
520.495	12.32
520.695	12.28
520.896	12.18
521.096	12.24
521.297	12.3
521.497	12.29
521.698	12.24
521.898	12.21
522.099	12.16
522.299	12.17
522.499	12.14
522.7	12.11
522.9	12.2
523.101	12.16
523.301	12.14
523.501	12.15
523.702	12.19
523.902	12.18
524.102	12.25
524.302	12.19
524.503	12.13
524.703	12.18
524.903	12.15
525.103	12.19
525.304	12.15
525.504	12.25
525.704	12.14
525.904	12.16
526.104	12.04
526.304	12.15
526.504	12.09
526.705	12.07
526.905	12.07
527.105	12.08
527.305	12.05
527.505	12.07
527.705	12.12
527.905	12.06
528.105	12.05
528.305	12.02
528.505	11.95
528.705	11.94
528.905	11.93
529.105	11.91
529.304	11.91
529.504	11.97
529.704	11.99
529.904	11.98
530.104	12.03
530.304	11.99
530.503	11.92
530.703	11.77
530.903	11.81
531.103	11.78
531.303	11.84
531.502	11.91
531.702	11.96
531.902	11.96
532.101	11.96
532.301	11.92
532.501	11.88
532.7	11.9
532.9	11.84
533.1	11.84
533.299	11.82
533.499	11.85
533.698	11.86
533.898	11.88
534.097	11.87
534.297	11.86
534.496	11.82
534.696	11.85
534.895	11.88
535.095	11.85
535.294	11.85
535.494	11.81
535.693	11.77
535.892	11.77
536.092	11.78
536.291	11.87
536.491	11.95
536.69	11.96
536.889	11.9
537.088	11.9
537.288	11.79
537.487	11.8
537.686	11.78
537.886	11.85
538.085	11.92
538.284	11.98
538.483	11.96
538.682	12.07
538.882	12.04
539.081	12
539.28	12
539.479	11.96
539.678	11.88
539.877	11.86
540.076	11.88
540.275	11.85
540.474	11.88
540.673	11.91
540.872	11.9
541.071	11.94
541.27	11.97
541.469	11.92
541.668	11.87
541.867	11.93
542.066	11.94
542.265	12.05
542.464	12.12
542.663	12.23
542.862	12.33
543.06	12.28
543.259	12.26
543.458	12.34
543.657	12.37
543.856	12.36
544.054	12.39
544.253	12.34
544.452	12.26
544.651	12.14
544.849	12.04
545.048	12.07
545.247	12.12
545.445	12.13
545.644	12.11
545.843	12.17
546.041	12.16
546.24	12.14
546.438	12.24
546.637	12.35
546.836	12.4
547.034	12.43
547.233	12.47
547.431	12.49
547.63	12.48
547.828	12.54
548.027	12.57
548.225	12.5
548.423	12.51
548.622	12.54
548.82	12.42
549.019	12.4
549.217	12.46
549.415	12.51
549.614	12.6
549.812	12.62
550.01	12.73
550.209	12.79
550.407	12.72
550.605	12.66
550.803	12.79
551.002	12.8
551.2	12.8
551.398	12.95
551.596	13.01
551.794	13.04
551.993	13.05
552.191	13.1
552.389	13.05
552.587	13.05
552.785	13.08
552.983	13.19
553.181	13.3
553.379	13.4
553.577	13.49
553.775	13.55
553.973	13.53
554.171	13.54
554.369	13.52
554.567	13.58
554.765	13.66
554.963	13.7
555.161	13.71
555.359	13.83
555.557	13.81
555.755	13.83
555.952	13.88
556.15	13.95
556.348	13.92
556.546	14.03
556.744	14.06
556.941	14.06
557.139	14.15
557.337	14.18
557.535	14.2
557.732	14.2
557.93	14.3
558.128	14.32
558.325	14.43
558.523	14.44
558.721	14.51
558.918	14.49
559.116	14.47
559.313	14.45
559.511	14.66
559.708	14.78
559.906	14.94
560.104	15.01
560.301	15.12
560.498	15.06
560.696	15.03
560.893	15.04
561.091	15.16
561.288	15.23
561.486	15.27
561.683	15.39
561.88	15.4
562.078	15.36
562.275	15.41
562.473	15.5
562.67	15.53
562.867	15.61
563.064	15.7
563.262	15.68
563.459	15.77
563.656	15.77
563.853	15.81
564.051	15.84
564.248	15.96
564.445	15.91
564.642	15.96
564.839	16.02
565.036	16.11
565.234	16.06
565.431	16.21
565.628	16.27
565.825	16.24
566.022	16.37
566.219	16.49
566.416	16.43
566.613	16.51
566.81	16.61
567.007	16.56
567.204	16.55
567.401	16.65
567.598	16.75
567.795	16.81
567.991	16.8
568.188	16.91
568.385	16.91
568.582	16.84
568.779	16.77
568.976	16.9
569.172	16.91
569.369	16.94
569.566	17
569.763	17.07
569.96	17.1
570.156	17.07
570.353	17.11
570.55	17.2
570.746	17.28
570.943	17.26
571.14	17.33
571.336	17.36
571.533	17.32
571.729	17.36
571.926	17.37
572.123	17.33
572.319	17.36
572.516	17.34
572.712	17.4
572.909	17.39
573.105	17.5
573.302	17.44
573.498	17.44
573.695	17.23
573.891	17.3
574.087	17.26
574.284	17.32
574.48	17.31
574.677	17.49
574.873	17.43
575.069	17.43
575.266	17.46
575.462	17.46
575.658	17.41
575.854	17.48
576.051	17.49
576.247	17.42
576.443	17.43
576.639	17.58
576.835	17.47
577.032	17.35
577.228	17.4
577.424	17.4
577.62	17.23
577.816	17.25
578.012	17.31
578.208	17.23
578.404	17.29
578.6	17.32
578.796	17.36
578.993	17.41
579.189	17.46
579.384	17.43
579.58	17.4
579.776	17.37
579.972	17.27
580.168	17.16
580.364	17.13
580.56	17.06
580.756	16.97
580.952	17.02
581.148	17.04
581.343	17.06
581.539	17.08
581.735	17.03
581.931	16.89
582.127	16.88
582.322	16.83
582.518	16.76
582.714	16.79
582.909	16.87
583.105	16.88
583.301	16.81
583.496	16.79
583.692	16.72
583.888	16.65
584.083	16.56
584.279	16.57
584.474	16.57
584.67	16.59
584.866	16.57
585.061	16.54
585.257	16.51
585.452	16.57
585.648	16.51
585.843	16.62
586.039	16.73
586.234	16.68
586.429	16.62
586.625	16.73
586.82	16.6
587.015	16.48
587.211	16.45
587.406	16.41
587.601	16.38
587.797	16.4
587.992	16.3
588.187	16.34
588.383	16.42
588.578	16.41
588.773	16.37
588.968	16.49
589.163	16.49
589.359	16.33
589.554	16.25
589.749	16.27
589.944	16.28
590.139	16.27
590.334	16.32
590.529	16.41
590.724	16.48
590.919	16.51
591.114	16.61
591.309	16.62
591.504	16.56
591.699	16.43
591.894	16.36
592.089	16.22
592.284	16.21
592.479	16.25
592.674	16.3
592.869	16.39
593.064	16.57
593.259	16.7
593.454	16.66
593.648	16.83
593.843	16.8
594.038	16.76
594.233	16.7
594.428	16.78
594.622	16.68
594.817	16.77
595.012	16.74
595.206	16.91
595.401	17.04
595.596	17.12
595.79	17.11
595.985	17.21
596.18	17.25
596.374	17.23
596.569	17.31
596.763	17.42
596.958	17.47
597.153	17.3
597.347	17.33
597.542	17.35
597.736	17.34
597.931	17.35
598.125	17.51
598.319	17.62
598.514	17.65
598.708	17.69
598.903	17.77
599.097	17.89
599.291	17.87
599.486	17.84
599.68	17.87
599.874	17.84
600.069	17.8
600.263	17.81
600.457	17.91
600.651	17.88
600.846	17.87
601.04	17.77
601.234	17.7
601.428	17.67
601.622	17.73
601.817	17.72
602.011	17.85
602.205	17.96
602.399	18.05
602.593	18.16
602.787	18.22
602.981	18.29
603.175	18.37
603.369	18.3
603.563	18.32
603.757	18.33
603.951	18.22
604.145	18.13
604.339	18.09
604.533	17.97
604.727	18.02
604.921	18.06
605.115	17.99
605.309	17.89
605.502	17.91
605.696	17.85
605.89	17.78
606.084	17.83
606.278	17.92
606.471	17.88
606.665	17.87
606.859	17.84
607.053	17.79
607.246	17.77
607.44	17.72
607.634	17.64
607.827	17.6
608.021	17.47
608.214	17.43
608.408	17.46
608.602	17.39
608.795	17.32
608.989	17.37
609.182	17.39
609.376	17.28
609.569	17.22
609.763	17.15
609.956	17.1
610.15	16.86
610.343	16.8
610.537	16.75
610.73	16.77
610.923	16.71
611.117	16.7
611.31	16.63
611.504	16.61
611.697	16.61
611.89	16.58
612.083	16.6
612.277	16.48
612.47	16.5
612.663	16.29
612.856	16.2
613.05	16.02
613.243	16.04
613.436	15.91
613.629	15.94
613.822	15.9
614.015	15.94
614.209	15.78
614.402	15.72
614.595	15.64
614.788	15.56
614.981	15.49
615.174	15.53
615.367	15.43
615.56	15.27
615.753	15.29
615.946	15.25
616.139	15.31
616.332	15.31
616.525	15.28
616.718	15.23
616.911	15.23
617.103	15.06
617.296	15.08
617.489	15.16
617.682	15.16
617.875	15.15
618.067	15.14
618.26	15.06
618.453	14.98
618.646	14.94
618.838	14.85
619.031	14.77
619.224	14.78
619.417	14.92
619.609	14.85
619.802	14.86
619.994	14.89
620.187	14.84
620.38	14.64
620.572	14.5
620.765	14.48
620.957	14.47
621.15	14.42
621.342	14.41
621.535	14.51
621.727	14.48
621.92	14.5
622.112	14.52
622.305	14.57
622.497	14.5
622.69	14.45
622.882	14.35
623.074	14.39
623.267	14.36
623.459	14.39
623.651	14.36
623.844	14.35
624.036	14.28
624.228	14.25
624.42	14.22
624.613	14.35
624.805	14.34
624.997	14.35
625.189	14.29
625.381	14.34
625.574	14.18
625.766	14.15
625.958	14.05
626.15	14.12
626.342	14.02
626.534	14.06
626.726	14.11
626.918	14.03
627.11	13.95
627.302	13.95
627.494	13.87
627.686	13.87
627.878	13.95
628.07	13.88
628.262	13.84
628.454	13.84
628.646	13.74
628.838	13.75
629.029	13.76
629.221	13.72
629.413	13.61
629.605	13.56
629.797	13.5
629.989	13.52
630.18	13.55
630.372	13.49
630.564	13.54
630.755	13.49
630.947	13.38
631.139	13.34
631.33	13.3
631.522	13.25
631.714	13.23
631.905	13.24
632.097	13.22
632.289	13.28
632.48	13.23
632.672	13.11
632.863	13.08
633.055	13.02
633.246	13.09
633.438	13.04
633.629	13.12
633.821	13.06
634.012	13.08
634.203	12.94
634.395	12.96
634.586	13.07
634.777	13.15
634.969	13.16
635.16	13.25
635.351	13.26
635.543	13.23
635.734	13.19
635.925	13.14
636.117	13.25
636.308	13.28
636.499	13.17
636.69	13.02
636.881	13.08
637.073	13
637.264	13.02
637.455	13.09
637.646	13.23
637.837	13.21
638.028	13.07
638.219	12.98
638.41	12.99
638.601	12.91
638.792	12.89
638.983	12.93
639.174	12.82
639.365	12.72
639.556	12.75
639.747	12.73
639.938	12.76
640.129	12.89
640.32	12.95
640.511	12.92
640.701	12.85
640.892	12.79
641.083	12.81
641.274	12.76
641.465	12.72
641.655	12.81
641.846	12.78
642.037	12.74
642.228	12.71
642.418	12.8
642.609	12.72
642.8	12.73
642.99	12.66
643.181	12.64
643.372	12.56
643.562	12.56
643.753	12.59
643.943	12.5
644.134	12.47
644.324	12.51
644.515	12.57
644.705	12.47
644.896	12.59
645.086	12.63
645.277	12.6
645.467	12.65
645.658	12.69
645.848	12.55
646.038	12.54
646.229	12.48
646.419	12.29
646.61	12.31
646.8	12.49
646.99	12.5
647.18	12.47
647.371	12.53
647.561	12.45
647.751	12.34
647.941	12.3
648.132	12.32
648.322	12.28
648.512	12.3
648.702	12.28
648.892	12.21
649.082	12.19
649.272	12.22
649.462	12.21
649.653	12.26
649.843	12.33
650.033	12.45
650.223	12.38
650.413	12.34
650.603	12.41
650.793	12.37
650.983	12.24
651.172	12.29
651.362	12.26
651.552	12.14
651.742	12.02
651.932	12.04
652.122	12.06
652.312	12.11
652.502	12.02
652.691	12.14
652.881	12.11
653.071	12.16
653.261	12
653.45	11.97
653.64	11.93
653.83	11.88
654.019	11.72
654.209	11.64
654.399	11.63
654.588	11.54
654.778	11.51
654.968	11.41
655.157	11.54
655.347	11.55
655.536	11.51
655.726	11.36
655.915	11.36
656.105	11.16
656.294	11.03
656.484	10.88
656.673	10.92
656.863	10.97
657.052	10.98
657.241	10.95
657.431	11.02
657.62	10.91
657.809	10.71
657.999	10.76
658.188	10.66
658.377	10.57
658.567	10.53
658.756	10.48
658.945	10.38
659.134	10.37
659.324	10.18
659.513	10.06
659.702	10.02
659.891	9.9
660.08	9.84
660.269	10.01
660.458	9.97
660.648	10.01
660.837	9.93
661.026	9.79
661.215	9.66
661.404	9.59
661.593	9.43
661.782	9.36
661.971	9.48
662.16	9.42
662.349	9.4
662.538	9.4
662.726	9.57
662.915	9.53
663.104	9.48
663.293	9.44
663.482	9.49
663.671	9.45
663.86	9.37
664.048	9.4
664.237	9.55
664.426	9.43
664.615	9.26
664.803	9.27
664.992	9.09
665.181	9.03
665.369	9.05
665.558	9.09
665.747	9.16
665.935	9.4
666.124	9.35
666.312	9.37
666.501	9.42
666.69	9.42
666.878	9.27
667.067	9.26
667.255	9.39
667.444	9.47
667.632	9.5
667.82	9.6
668.009	9.55
668.197	9.53
668.386	9.35
668.574	9.26
668.762	9.35
668.951	9.48
669.139	9.37
669.327	9.43
669.516	9.41
669.704	9.29
669.892	9.13
670.08	9.16
670.269	9.2
670.457	9.22
670.645	9.13
670.833	9.25
671.021	9.33
671.21	9.39
671.398	9.42
671.586	9.5
671.774	9.64
671.962	9.68
672.15	9.62
672.338	9.65
672.526	9.76
672.714	9.78
672.902	9.63
673.09	9.53
673.278	9.51
673.466	9.58
673.654	9.64
673.842	9.72
674.03	10.15
674.218	10.18
674.405	10.13
674.593	10.04
674.781	10.23
674.969	10.02
675.157	10.02
675.344	10.05
675.532	10.06
675.72	9.92
675.908	9.86
676.095	9.93
676.283	9.93
676.471	9.95
676.658	10.01
676.846	10.02
677.033	10.16
677.221	10.16
677.409	10.15
677.596	10.28
677.784	10.38
677.971	10.25
678.159	10.29
678.346	10.41
678.534	10.29
678.721	10.35
678.909	10.51
679.096	10.59
679.283	10.45
679.471	10.52
679.658	10.55
679.846	10.52
680.033	10.7
680.22	10.87
680.408	10.92
680.595	10.85
680.782	10.81
680.969	10.64
681.157	10.54
681.344	10.6
681.531	10.79
681.718	10.87
681.905	10.96
682.093	11.02
682.28	11.06
682.467	11.09
682.654	11.11
682.841	11.07
683.028	10.99
683.215	11.12
683.402	11.01
683.589	11.14
683.776	11.22
683.963	11.33
684.15	11.36
684.337	11.44
684.524	11.58
684.711	11.77
684.898	11.87
685.085	11.79
685.271	11.95
685.458	11.95
685.645	11.76
685.832	11.76
686.019	11.85
686.205	11.93
686.392	11.92
686.579	12.43
686.766	12.71
686.952	12.87
687.139	12.96
687.326	12.97
687.512	12.81
687.699	12.81
687.886	12.9
688.072	12.94
688.259	13.27
688.445	13.54
688.632	13.65
688.818	13.91
689.005	14.13
689.191	14.38
689.378	14.72
689.564	15.21
689.751	15.33
689.937	15.79
690.124	16.08
690.31	16.1
690.496	16.4
690.683	16.86
690.869	17.01
691.055	17.32
691.242	17.76
691.428	18.01
691.614	18.06
691.8	18.49
691.987	18.72
692.173	19.15
692.359	19.64
692.545	20.32
692.731	20.58
692.918	21.09
693.104	21.53
693.29	21.75
693.476	22.2
693.662	22.78
693.848	23.28
694.034	23.64
694.22	24.57
694.406	25.03
694.592	25.34
694.778	25.71
694.964	26.39
695.15	26.52
695.336	26.8
695.522	27.78
695.708	28.56
695.894	29.05
696.08	29.61
696.265	30.35
696.451	30.67
696.637	31.18
696.823	31.7
697.009	32.37
697.194	32.87
697.38	33.62
697.566	34.15
697.751	34.85
697.937	35.29
698.123	36.26
698.308	36.5
698.494	36.98
698.68	37.36
698.865	38.07
699.051	38.41
699.236	39.31
699.422	40.09
699.607	40.82
699.793	41.57
699.978	42.22
700.164	42.82
700.349	43.46
700.535	43.83
700.72	44.05
700.906	44.65
701.091	44.97
701.276	45.4
701.462	45.94
701.647	46.68
701.832	47.21
702.018	48.05
702.203	48.61
702.388	49.31
702.573	49.86
702.759	50.52
702.944	50.94
703.129	51.41
703.314	52.08
703.499	52.53
703.684	52.83
703.87	52.87
704.055	53.29
704.24	53.72
704.425	54.51
704.61	55.32
704.795	56.1
704.98	56.7
705.165	56.66
705.35	56.88
705.535	57.15
705.72	57.64
705.905	57.85
706.09	58.71
706.275	58.69
706.459	58.84
706.644	59.02
706.829	59.53
707.014	60.13
707.199	61.01
707.384	60.96
707.568	61.47
707.753	61.96
707.938	61.59
708.123	61.86
708.307	62.3
708.492	62.59
708.677	62.61
708.861	63.3
709.046	63.27
709.231	63.85
709.415	64.15
709.6	64.43
709.784	64.58
709.969	64.92
710.153	64.98
710.338	65.02
710.522	65.45
710.707	65.74
710.891	65.85
711.076	66.24
711.26	66.79
711.445	67.03
711.629	67.36
711.813	67.79
711.998	68.23
712.182	68.08
712.366	68.17
712.551	68.13
712.735	68.35
712.919	68.22
713.103	68.58
713.288	68.64
713.472	68.8
713.656	68.91
713.84	69.22
714.024	69.84
714.208	70.39
714.393	70.64
714.577	70.78
714.761	70.44
714.945	70.53
715.129	70.32
715.313	70.63
715.497	71.04
715.681	71.78
715.865	71.89
716.049	72.03
716.233	71.9
716.417	72.35
716.601	72.24
716.785	72.09
716.968	72.29
717.152	72.66
717.336	72.62
717.52	73.05
717.704	72.67
717.888	73.16
718.071	73.54
718.255	73.35
718.439	73.3
718.622	74.06
718.806	73.85
718.99	73.58
719.174	74.29
719.357	74.69
719.541	74.6
719.724	74.79
719.908	74.85
720.092	74.18
720.275	74.21
720.459	74.8
720.642	74.74
720.826	75.04
721.009	75.11
721.193	74.9
721.376	74.96
721.559	75.49
721.743	75.89
721.926	76.45
722.11	76.73
722.293	76.56
722.476	76.57
722.66	76.81
722.843	76.42
723.026	76.78
723.21	76.98
723.393	77.05
723.576	77.25
723.759	77.72
723.942	77.42
724.126	77.95
724.309	78
724.492	78.33
724.675	78.5
724.858	78.96
725.041	78.38
725.224	78.59
725.407	78.55
725.59	79.39
725.774	79.94
725.957	80.16
726.14	80.05
726.322	79.72
726.505	79.23
726.688	78.96
726.871	78.96
727.054	79.34
727.237	79.29
727.42	79.72
727.603	79.84
727.786	80.45
727.968	80.66
728.151	80.93
728.334	80.37
728.517	80.52
728.699	80.61
728.882	81.19
729.065	81.68
729.248	82.28
729.43	82.05
729.613	82.59
729.796	82.65
729.978	82.56
730.161	82.67
730.343	83.42
730.526	83.07
730.708	82.69
730.891	82.94
731.073	83.68
731.256	83.51
731.438	83.39
731.621	83.16
731.803	83.12
731.986	83.44
732.168	83.38
732.35	83.72
732.533	84.66
732.715	84.39
732.898	83.04
733.08	84.19
733.262	84.91
733.444	84.15
733.627	84.69
733.809	85.43
733.991	84.69
734.173	84.77
734.355	86.03
734.538	86
734.72	86.12
734.902	86.93
735.084	87.04
735.266	87.01
735.448	87.45
735.63	87.98
735.812	87.73
735.994	87.09
736.176	87.3
736.358	87.77
736.54	87.78
736.722	88.25
736.904	88.89
737.086	88.55
737.268	87.73
737.45	88.01
737.632	87.55
737.814	86.85
737.995	87.46
738.177	88.07
738.359	87.81
738.541	87.6
738.723	88
738.904	87.3
739.086	87.83
739.268	88.34
739.449	88.89
739.631	90.25
739.813	91.22
739.994	92.14
740.176	92.26
740.358	92.32
740.539	92.5
740.721	91.87
740.902	90.84
741.084	90.09
741.265	90.45
741.447	88.99
741.628	88.65
741.81	89.02
741.991	90.4
742.172	89.56
742.354	89.83
742.535	90.08
742.717	90.17
742.898	89.76
743.079	91.18
743.261	91.77
743.442	92.72
743.623	92.47
743.804	92.22
743.986	91.21
744.167	90.31
744.348	90.17
744.529	89.37
744.71	88.59
744.891	89.92
745.073	89.51
745.254	89.98
745.435	91.21
745.616	91.57
745.797	90.05
745.978	91.04
746.159	90.93
746.34	90.99
746.521	91.57
746.702	93.65
746.883	94.38
747.064	92.4
747.245	91.65
747.426	92.36
747.606	89.99
747.787	89.1
747.968	90.29
748.149	90.79
748.33	90.06
748.51	90.28
748.691	89.58
748.872	89.55
749.053	89.97
749.233	88.86
749.414	90.62
749.595	92.37
749.775	93.35
749.956	92.21
750.137	93.02
750.317	91.46
750.498	91.46
750.678	90.8
750.859	92.39
751.04	91.94
751.22	92.23
751.4	90.99
751.581	90.4
751.761	89.68
751.942	91.3
752.122	90.94
752.303	91.75
752.483	93.53
752.663	93.25
752.844	91.95
753.024	92.93
753.204	92.73
753.385	91.25
753.565	92.31
753.745	91.93
753.925	94.1
754.106	94.37
754.286	93.02
754.466	92.07
754.646	94.05
754.826	91.38
755.006	91.69
755.187	93.12
755.367	93.97
755.547	90.77
755.727	90.2
755.907	90.08
756.087	91.07
756.267	91.11
756.447	93.65
756.627	93.01
756.807	94.57
756.987	94.04
757.167	94.12
757.346	94.53
757.526	96.88
757.706	94.81
757.886	95.51
758.066	93.42
758.246	90.61
758.425	88.94
758.605	88.86
758.785	88.79
758.965	90.54
759.144	92.9
759.324	93.36
759.504	93.26
759.683	92.7
759.863	90.43
760.043	91.04
760.222	92.91
760.402	92.81
760.581	92.66
760.761	95.43
760.94	94.33
761.12	93.04
761.299	94.2
761.479	93.22
761.658	92.34
761.838	92.69
762.017	90.73
762.197	91.09
762.376	92.53
762.555	91.32
762.735	91.21
762.914	90.52
763.093	90.34
763.273	89.37
763.452	89.63
763.631	87.81
763.81	88.14
763.99	87.96
764.169	86.95
764.348	84.57
764.527	85.21
764.706	87.44
764.885	87.19
765.064	87.99
765.243	91.31
765.423	90.26
765.602	89.14
765.781	87.41
765.96	86.18
766.139	85.15
766.318	86.66
766.497	87.38
766.676	87.46
766.854	89.6
767.033	90.35
767.212	90.9
767.391	90.52
767.57	90.62
767.749	90.17
767.928	90.06
768.106	88.26
768.285	87.82
768.464	90.19
768.643	88.82
768.821	88.74
769	88.19
769.179	87.91
769.357	87.2
769.536	87.55
769.715	87.23
769.893	88.03
770.072	89.32
770.25	88.62
770.429	89.59
770.607	87.44
770.786	90.42
770.964	89.82
771.143	90.26
771.321	89.87
771.5	94.6
771.678	89.84
771.857	89.54
772.035	87.52
772.213	88.61
772.392	85.41
772.57	89.41
772.748	88.36
772.927	90.62
773.105	91.18
773.283	93.08
773.461	91.35
773.64	93.34
773.818	90.77
773.996	89.99
774.174	88.65
774.352	88.7
774.531	86.1
774.709	87.65
774.887	87.62
775.065	86.33
775.243	86.58
775.421	87.89
775.599	89.29
775.777	87.69
775.955	85.64
776.133	86.85
776.311	87.67
776.489	87.74
776.667	88.75
776.844	91.95
777.022	89.87
777.2	90.97
777.378	88.25
777.556	88.17
777.734	87.72
777.911	89.02
778.089	84.87
778.267	86.71
778.445	84.27
778.622	83.41
778.8	83.11
778.978	84.45
779.155	81.92
779.333	81.55
779.511	76.7
779.688	76.79
779.866	74.23
780.043	76.96
780.221	78.25
780.398	84.08
780.576	80.93
780.753	86.34
780.931	82.74
781.108	84.32
781.286	85.42
781.463	87.5
781.64	85.52
781.818	88.66
781.995	88.02
782.172	87.94
782.35	92.28
782.527	88.98
782.704	91.15
782.882	91.09
783.059	89.49
783.236	80.04
783.413	84.9
783.59	80.49
783.768	79.39
783.945	82.39
784.122	89.07
784.299	87.93
784.476	90.39
784.653	94.1
784.83	90.1
785.007	87.12
785.184	86.19
785.361	85.36
785.538	86.04
785.715	84.25
785.892	87.14
786.069	87.39
786.246	88.9
786.423	88.06
786.6	93.17
786.776	91.51
786.953	90.19
787.13	87.99
787.307	86.28
787.484	87.01
787.66	88.55
787.837	90.26
788.014	92.59
788.191	94.54
788.367	91.29
788.544	97.86
788.721	95.15
788.897	93.56
789.074	92.35
789.25	92.82
789.427	85.16
789.603	93.99
789.78	95.35
789.956	94.84
790.133	95.44
790.309	97.31
790.486	89.69
790.662	90.94
790.839	88.26
791.015	91.87
791.192	91.84
791.368	92.69
791.544	91.85
791.721	92.69
791.897	91.42
792.073	88.1
792.249	87.46
792.426	85.89
792.602	86.61
792.778	83.67
792.954	83.65
793.13	85.23
793.307	90.02
793.483	89.1
793.659	90.62
793.835	98.39
794.011	99.54
794.187	88.55
794.363	92.25
794.539	91.72
794.715	84.26
794.891	80.75
795.067	83
795.243	88.49
795.419	89.38
795.595	88.67
795.771	90.35
795.947	99.94
796.122	85.76
796.298	85.25
796.474	87.3
796.65	85.53
796.826	74.9
797.001	84
797.177	87.59
797.353	91.43
797.529	96.6
797.704	102.19
797.88	101.95
798.056	91.38
798.231	86.06
798.407	80.49
798.582	82.15
798.758	86.7
798.934	94.65
799.109	101.1
799.285	103.69
799.46	104.59
799.636	96.33
799.811	94.55
799.986	95.15
800.162	103.53
800.337	100.11
800.513	104.52
800.688	102.98
800.863	97.6
801.039	87.84
801.214	86.55
801.389	83.52
801.565	89.02
801.74	91.68
801.915	94.9
802.09	96.6
802.265	93.89
802.441	97.93
802.616	94.55
802.791	96.6
802.966	97.34
803.141	94.58
803.316	82.49
803.491	77.18
803.666	79.28
803.841	79.2
804.016	88.68
804.191	98.48
804.366	106.67
804.541	107.04
804.716	105.56
804.891	96.2
805.066	91.5
805.241	91.46
805.416	82.52
805.591	87.57
805.765	93.1
805.94	90.54
806.115	91.81
806.29	88.47
806.464	97.62
806.639	98.72
806.814	91.14
806.989	79.99
807.163	93.71
807.338	81.3
807.512	78.68
807.687	78.18
807.862	79.75
808.036	73.68
808.211	75.23
808.385	74.66
808.56	81.42
808.734	88.86
808.909	91.91
809.083	91.95
809.258	90.44
809.432	86.95
809.606	80.61
809.781	78.17
809.955	75.97
810.13	80.5
810.304	85.23
810.478	86.24
810.652	94.68
810.827	97.85
811.001	97.94
811.175	97.11
811.349	104.42
811.524	105.94
811.698	109.1
811.872	114.73
812.046	114.61
812.22	108.53
812.394	91.47
812.568	84.75
812.742	89.35
812.916	85.09
813.09	95.81
813.264	104.54
813.438	112.13
813.612	106.15
813.786	97.7
813.96	80.52
814.134	84.86
814.308	80.89
814.482	84.56
814.656	99.1
814.83	101.93
815.003	101.34
815.177	97.83
815.351	91.46
815.525	94.66
815.698	89.91
815.872	77.04
816.046	81.92
816.219	82.89
816.393	80.28
816.567	98.91
816.74	118.5
816.914	131.65
817.088	136.92
817.261	148.29
817.435	129.28
817.608	129.01
817.782	117.21
817.955	128.81
818.129	127.37
818.302	119.25
818.475	128.23
818.649	126.46
818.822	115.58
818.996	103.5
819.169	106.77
819.342	101.37
819.516	98.26
819.689	108.94
819.862	127.05
820.035	123.71
820.209	103.85
820.382	113.99
820.555	109.7
820.728	107.4
820.901	98.32
821.075	122.6
821.248	129.79
821.421	112.49
821.594	99.29
821.767	106.55
821.94	106.39
822.113	70.83
822.286	60.25
822.459	52.91
822.632	49.75
822.805	49
822.978	61.72
823.151	76.84
823.324	94.89
823.496	65.28
823.669	48.21
823.842	60.22
824.015	68.66
824.188	52
824.361	70.13
824.533	88.9
824.706	81.02
824.879	82.03
825.051	88.84
825.224	105.33
825.397	106.5
825.569	104.21
825.742	101.38
825.915	92.32
826.087	85.33
826.26	70.49
826.432	69.3
826.605	65.5
826.777	71.84
826.95	74.73
827.122	84.02
827.295	94.09
827.467	101.56
827.64	71.55
827.812	51.02
827.984	55.91
828.157	39.33
828.329	44.97
828.501	77.92
828.674	110.66
828.846	116.28
829.018	124.76
829.19	119.97
829.363	94.81
829.535	89.24
829.707	71.83
829.879	73.19
830.051	66.47
830.223	100.1
830.395	88.88
830.568	93.15
830.74	109.15
830.912	130.19
831.084	119.02
831.256	110.86
831.428	97.49
831.6	101.09
831.772	93.34
831.943	80.92
832.115	79.9
832.287	105.55
832.459	87.73
832.631	77.2
832.803	95.49
832.975	98.17
833.146	83.94
833.318	69.47
833.49	85.3
833.662	72.91
833.833	93.34
834.005	99.96
834.177	118.51
834.348	123
834.52	128.69
834.692	123
834.863	128.79
835.035	122.9
835.206	112.97
835.378	116.84
835.549	121.97
835.721	131.79
835.892	134.47
836.064	157.02
836.235	149.99
836.407	155.53
836.578	102.86
836.749	127.11
836.921	112.15
837.092	93.31
837.264	68.21
837.435	70.48
837.606	38.19
837.777	-5.76
837.949	12.22
838.12	-26.7
838.291	19.28
838.462	69.73
838.633	64.17
838.805	87.93
838.976	163.67
839.147	139.28
839.318	153.4
839.489	145.55
839.66	143.91
839.831	102.55
840.002	113.93
840.173	63.1
840.344	32.99
840.515	10.02
840.686	-4.1
840.857	18.42
841.028	52.68
841.199	97.3
841.369	112.26
841.54	90.81
841.711	132.49
841.882	110.67
842.053	122.24
842.223	123.94
842.394	142.84
842.565	133.02
842.736	130.04
842.906	112.88
843.077	109.73
843.248	105.18
843.418	105.15
843.589	98.43
843.759	104.97
843.93	40.28
844.101	222.95
844.271	70.02
844.442	67.36
844.612	81.37
844.783	84.61
844.953	34.99
845.123	48.48
845.294	68.24
845.464	72.68
845.635	85.55
845.805	141.64
845.975	140.35
846.146	176.29
846.316	226.88
846.486	140.92
846.656	93.12
846.827	54.6
846.997	38.08
847.167	58.49
847.337	47.3
847.507	70.68
847.677	82.82
847.848	98.43
848.018	102.89
848.188	148.02
848.358	121.52
848.528	176.77
848.698	161.93
848.868	144.59
849.038	108.54
849.208	120.02
849.378	69.16
849.548	39.21
849.718	197.36
849.887	-166.6
850.057	1135.48
850.227	39.48
850.397	-91.28
850.567	99.08
850.737	95.38
850.906	85.66
851.076	55.96
851.246	73.48
851.415	57.48
851.585	98.15
851.755	104.34
851.924	124.72
852.094	130.49
852.264	106.86
852.433	65.27
852.603	98.91
852.772	92.42
852.942	95.86
853.111	86.38
853.281	94.41
853.45	78.25
853.62	98.02
853.789	92.78
853.959	280.56
854.128	-257.97
854.297	-128.5
854.467	166.03
854.636	-79.66
854.805	64.6
854.975	14.14
855.144	20.76
855.313	57.21
855.482	92.01
855.652	91.18
855.821	122.12
855.99	163.02
856.159	400
856.328	137.45
856.497	161.24
856.667	197.85
856.836	178.71
857.005	175.94
857.174	152.18
857.343	142.98
857.512	95.7
857.681	56.37
857.85	13.27
858.019	46.46
858.188	38.29
858.356	12.9
858.525	24.88
858.694	46.17
858.863	36.19
859.032	-30.97
859.201	-14.43
859.369	32.83
859.538	18.91
859.707	10.8
859.876	34.22
860.044	40.32
860.213	94.56
860.382	146.78
860.55	136.52
860.719	171.4
860.888	167.94
861.056	129.95
861.225	124.26
861.393	212.77
861.562	259.58
861.73	285.77
861.899	247.13
862.067	423.4
862.236	347.64
862.404	158.37
862.572	102.84
862.741	229.77
862.909	101.15
863.078	59.9
863.246	59.78
863.414	125.28
863.582	106.16
863.751	124.21
863.919	79.29
864.087	71.31
864.255	68.26
864.424	15.71
864.592	16.19
864.76	113.68
864.928	165.36
865.096	149.63
865.264	158.88
865.432	217.6
865.6	276.44
865.768	96.69
865.936	-27.43
866.104	-182.79
866.272	31.68
866.44	-41.39
866.608	11.99
866.776	51.71
866.944	20.01
867.112	6.35
867.28	-31.4
867.448	20.01
867.615	31.8
867.783	66.98
867.951	15.42
868.119	73.63
868.286	107.56
868.454	96.01
868.622	155.22
868.789	550.26
868.957	-1310.41
869.125	-599.29
869.292	701.42
869.46	-401.94
869.627	242.29
869.795	-61.97
869.963	28.28
870.13	57.96
870.298	58.05
870.465	61.85
870.632	74.15
870.8	92.65
870.967	128.75
871.135	113.89
871.302	-58.04
871.469	262.89
871.637	91.48
871.804	64.16
871.971	23.74
872.139	104.26
872.306	122.94
872.473	894.47
872.64	41.29
872.807	96.78
872.975	35.93
873.142	18.69
873.309	31.07
873.476	73
873.643	39.09
873.81	69.86
873.977	91.15
874.144	103.56
874.311	125.32
874.478	154.19
874.645	-57.01
874.812	92.89
874.979	20.8
875.146	-3.53
875.313	-193.68
875.48	-83.3
875.647	77.34
875.813	-587.34
875.98	276.39
876.147	66.15
876.314	44.34
876.481	37.87
876.647	45.22
876.814	75.88
876.981	80.78
877.147	20.84
877.314	-109.27
877.481	-60.99
877.647	-133.66
877.814	-166.21
877.98	-82.15
878.147	-286
878.314	-361.34
878.48	978.14
878.647	488.71
878.813	1366.91
878.979	61.35
879.146	15
879.312	14.27
879.479	90.41
879.645	85.75
879.811	71.06
879.978	60.94
880.144	217.46
880.31	385.22
880.477	-687.25
880.643	-962.16
880.809	-7502.44
880.975	1105.53
881.142	-29.85
881.308	212.42
881.474	245.53
881.64	173.14
881.806	159.6
881.972	193.49
882.138	150.51
882.304	119.58
882.47	47.25
882.636	31.81
882.802	32.84
882.968	29.47
883.134	24.38
883.3	78.82
883.466	96.84
883.632	98.72
883.798	128.52
883.964	142.04
884.129	185.8
884.295	104.26
884.461	-215.74
884.627	614.13
884.793	85.61
884.958	118.02
885.124	-443.56
885.29	78.08
885.455	79.16
885.621	53.06
885.787	47.2
885.952	0.2
886.118	73.83
886.283	113.26
886.449	142.07
886.614	129.01
886.78	177.42
886.945	142.27
887.111	113.63
887.276	123.66
887.442	159.92
887.607	91.69
887.773	56.26
887.938	38.33
888.103	95.86
888.269	-276.84
888.434	2588.24
888.599	78.08
888.764	2252.43
888.93	120.84
889.095	96.28
889.26	95.48
889.425	119.78
889.59	94.97
889.756	145.59
889.921	127.03
890.086	109.48
890.251	65.08
890.416	53.73
890.581	-8.2
890.746	89.7
890.911	149.39
891.076	330.67
891.241	136.24
891.406	20971.43
891.571	545.14
891.736	-114.12
891.901	-77.93
892.065	-123.3
892.23	-286.67
892.395	-190.36
892.56	118.12
892.725	283.06
892.889	-64.69
893.054	-315.23
893.219	-1171.22
893.384	-138.35
893.548	-465.29
893.713	-242.15
893.878	-423.04
