Data from Ofav_SP_Phys_2AZ7_Reflection_3.txt Node
Date: Thu Aug 05 17:44:42 EDT 2021
User: Adam
Spectrometer: FLMT01687
Trigger mode: 0
Integration Time (sec): 8.000000E-1
Scans to average: 2
Electric dark correction enabled: true
Nonlinearity correction enabled: false
Boxcar width: 2
XAxis mode: Wavelengths
Number of Pixels in Spectrum: 3648
>>>>>Begin Spectral Data<<<<<
179.494	327.29
179.716	343.91
179.937	267.37
180.158	254.25
180.38	482.15
180.601	87.87
180.823	41.18
181.044	-91.96
181.265	-59.32
181.486	-14.18
181.708	407.38
181.929	-104.61
182.15	-677.96
182.372	-4.61
182.593	35.06
182.814	45.11
183.035	33.45
183.257	570.46
183.478	-730.51
183.699	658.66
183.92	141.48
184.141	-853.36
184.363	594.05
184.584	13.82
184.805	67.64
185.026	35.68
185.247	49.14
185.468	61.13
185.689	82.67
185.91	46.76
186.132	26.29
186.353	49.6
186.574	-38.62
186.795	-38.94
187.016	-2.18
187.237	36.28
187.458	-25.68
187.679	56.46
187.9	46.88
188.121	23.26
188.342	-0.99
188.563	7.96
188.784	0.18
189.005	-36.25
189.226	-2.04
189.447	19.61
189.667	31.6
189.888	152.32
190.109	143.9
190.33	126.97
190.551	91.63
190.772	119.37
190.993	60.89
191.214	49.31
191.434	38.61
191.655	38.53
191.876	41.25
192.097	47.5
192.318	53.26
192.538	105.47
192.759	111.6
192.98	60.88
193.201	118.81
193.421	21.14
193.642	9.23
193.863	-11.04
194.083	9.74
194.304	25.65
194.525	25.43
194.745	23.11
194.966	45.74
195.187	64.16
195.407	42.52
195.628	36.12
195.848	43.59
196.069	25.07
196.29	-9.03
196.51	36.52
196.731	48.31
196.951	63.89
197.172	61.91
197.392	70.19
197.613	45.79
197.833	70.28
198.054	81.87
198.274	62.03
198.495	84.85
198.715	92.07
198.936	61.43
199.156	60.58
199.377	64.35
199.597	64.16
199.817	39.46
200.038	30.72
200.258	13.39
200.479	1.36
200.699	-16.14
200.919	-18.3
201.14	-25.25
201.36	-24.88
201.58	18.06
201.801	-68.07
202.021	-47.48
202.241	-4.76
202.461	-23.63
202.682	-50.97
202.902	-29.93
203.122	-14.39
203.342	16.65
203.563	-0.35
203.783	12.78
204.003	39.6
204.223	35.55
204.443	16.09
204.663	17.91
204.884	22.81
205.104	15.37
205.324	26.47
205.544	48.11
205.764	33.02
205.984	7.57
206.204	-14.79
206.424	-24.98
206.644	-16.13
206.864	7.24
207.084	16.84
207.304	83.98
207.525	132.65
207.745	92.39
207.964	100.88
208.184	94.08
208.404	45.63
208.624	33.17
208.844	2.22
209.064	7.34
209.284	16.36
209.504	-2.23
209.724	-3.61
209.944	-1.44
210.164	16.49
210.384	41.88
210.604	33.22
210.823	42.83
211.043	49.62
211.263	30.01
211.483	16.38
211.703	39.06
211.922	32.38
212.142	50.21
212.362	48.77
212.582	136.07
212.801	69.95
213.021	56.61
213.241	5.5
213.461	17.41
213.68	-1.77
213.9	-12.81
214.12	-3.65
214.339	5.37
214.559	2.68
214.779	-25.24
214.998	9.49
215.218	-24.26
215.438	39.8
215.657	82.72
215.877	98.61
216.096	76.1
216.316	104.88
216.535	107.8
216.755	37.38
216.974	259.43
217.194	97.06
217.413	69.94
217.633	45.58
217.852	56.39
218.072	40.84
218.291	51.75
218.511	63.76
218.73	62.02
218.95	73.98
219.169	83.3
219.389	109
219.608	92.07
219.827	102.71
220.047	107.68
220.266	75.91
220.485	61.83
220.705	55.61
220.924	32.74
221.143	-3.13
221.363	-10.71
221.582	-10.71
221.801	-53.14
222.021	-2.67
222.24	-17.91
222.459	-99.41
222.678	-52.93
222.897	7.29
223.117	-44.77
223.336	-13.4
223.555	10.82
223.774	3.3
223.993	-30.54
224.213	5.37
224.432	14.96
224.651	36.47
224.87	25.47
225.089	38.77
225.308	29.03
225.527	32.89
225.746	15.67
225.965	24.59
226.184	32.75
226.404	48.53
226.623	28.65
226.842	22.99
227.061	35
227.28	28.5
227.499	24.48
227.718	14.98
227.936	29.14
228.155	25.57
228.374	19.03
228.593	21.2
228.812	41.1
229.031	37.15
229.25	24.85
229.469	42.59
229.688	43.33
229.907	40.13
230.125	6.92
230.344	27.16
230.563	8.92
230.782	-74.95
231.001	-105.76
231.22	28.77
231.438	1.15
231.657	22.86
231.876	23.93
232.095	21.89
232.313	13.08
232.532	7.46
232.751	-3.84
232.969	7.88
233.188	-1.83
233.407	-6.03
233.625	41.32
233.844	19.51
234.063	30.01
234.281	39.6
234.5	22.91
234.719	-17.16
234.937	-14.85
235.156	0.13
235.374	-3.38
235.593	-24.83
235.811	-34.17
236.03	-12.75
236.249	5.02
236.467	-2.66
236.686	2.77
236.904	7.37
237.123	-21.03
237.341	-3.02
237.559	1.32
237.778	-3.42
237.996	2.35
238.215	9.77
238.433	17.12
238.652	18.43
238.87	29.87
239.088	30.24
239.307	33.83
239.525	16.02
239.743	23.23
239.962	42.97
240.18	22.54
240.398	-4.12
240.617	-23.04
240.835	11.48
241.053	14
241.271	16.15
241.49	54.83
241.708	66.11
241.926	8.44
242.144	-35.22
242.363	-60.98
242.581	-108.08
242.799	-167.76
243.017	-97.42
243.235	-106.54
243.453	-21.44
243.672	-17.92
243.89	11.64
244.108	10.84
244.326	49.32
244.544	7.06
244.762	7.89
244.98	19.97
245.198	17.26
245.416	41.25
245.634	69.77
245.852	99.23
246.07	91.7
246.288	58.17
246.506	46.09
246.724	36.3
246.942	33.11
247.16	24.39
247.378	98.59
247.596	17.01
247.814	29.01
248.032	14.04
248.25	-11.89
248.468	-10.81
248.685	15.89
248.903	9.97
249.121	-4.61
249.339	15.64
249.557	29.69
249.775	23.05
249.992	20.71
250.21	32.83
250.428	3.98
250.646	-6.15
250.863	-1.54
251.081	-2.85
251.299	-11.26
251.517	38.1
251.734	37.78
251.952	10.46
252.17	29.35
252.387	38.97
252.605	35.35
252.823	40.13
253.04	43.14
253.258	40.35
253.475	41.03
253.693	18.38
253.911	28.45
254.128	32.97
254.346	35.07
254.563	17.93
254.781	29.58
254.998	26.64
255.216	10.91
255.433	10.6
255.651	18.04
255.868	-7.03
256.086	-41.38
256.303	-33.52
256.521	-79.08
256.738	-97.84
256.956	-160.2
257.173	-14.26
257.39	25.41
257.608	30.17
257.825	39.56
258.043	48.99
258.26	39.35
258.477	34.56
258.695	32.75
258.912	41.78
259.129	28.14
259.346	17.85
259.564	19.3
259.781	29.26
259.998	17.47
260.216	26.11
260.433	52.07
260.65	37.98
260.867	2.12
261.084	34.09
261.302	42.63
261.519	26.11
261.736	58.69
261.953	63.88
262.17	63.36
262.387	87.82
262.604	99.96
262.822	97.22
263.039	105.63
263.256	83.66
263.473	49.33
263.69	52.13
263.907	26.52
264.124	-1.48
264.341	8.99
264.558	-5.84
264.775	-15.92
264.992	19.66
265.209	27.75
265.426	28.13
265.643	25.9
265.86	15.24
266.077	2.84
266.294	-18.95
266.51	-30.46
266.727	-24.33
266.944	-15.75
267.161	-23.87
267.378	-10.6
267.595	-3.57
267.812	-8.7
268.028	-10.35
268.245	7.69
268.462	17.9
268.679	10.19
268.896	34.76
269.112	15.82
269.329	34.02
269.546	32.35
269.763	41.88
269.979	41.73
270.196	87.28
270.413	63.7
270.629	75.37
270.846	61.76
271.063	72.7
271.279	24.23
271.496	37.47
271.712	-1.31
271.929	-8.55
272.146	-26.79
272.362	-55.52
272.579	-44.99
272.795	-36.81
273.012	-11.27
273.228	-23.8
273.445	1.65
273.661	23.96
273.878	26.55
274.094	15.28
274.311	9.99
274.527	-2.97
274.744	-17.15
274.96	-0.16
275.177	-9.19
275.393	-17.29
275.609	-16.59
275.826	-14.33
276.042	-9.87
276.259	15.46
276.475	33.37
276.691	43.42
276.908	41.07
277.124	42.23
277.34	39.88
277.557	16.12
277.773	22.1
277.989	23.28
278.205	-0.96
278.422	23.33
278.638	50.93
278.854	60.7
279.07	50.92
279.286	56.35
279.503	39.79
279.719	30.61
279.935	22.02
280.151	48.38
280.367	58.72
280.583	56.22
280.799	79.24
281.016	86.27
281.232	121.47
281.448	113.15
281.664	124.57
281.88	107.96
282.096	80.69
282.312	62.71
282.528	54.13
282.744	63.12
282.96	66.06
283.176	61.93
283.392	49.05
283.608	48.07
283.824	33.84
284.04	43.34
284.256	31.85
284.471	41.25
284.687	59.05
284.903	48.58
285.119	47.25
285.335	36.69
285.551	18.32
285.767	-15.36
285.982	-36.33
286.198	-121.52
286.414	-42.93
286.63	-27.44
286.846	1.84
287.061	8.79
287.277	13.87
287.493	21.88
287.709	29.53
287.924	42.43
288.14	46.9
288.356	51.7
288.571	61.06
288.787	66.56
289.003	74.71
289.218	51.57
289.434	22.82
289.65	-37.5
289.865	-35.86
290.081	-26.47
290.296	-4.78
290.512	-5.62
290.727	11.95
290.943	22.66
291.159	16.93
291.374	28.51
291.59	39.75
291.805	29.96
292.021	38.77
292.236	42.51
292.451	-5.55
292.667	-30.86
292.882	-28.21
293.098	-37.67
293.313	-17.85
293.529	5.75
293.744	-0.63
293.959	2.38
294.175	10.48
294.39	7.43
294.605	15.06
294.821	23.9
295.036	18.21
295.251	23.63
295.467	35.59
295.682	25.94
295.897	28.24
296.112	31.23
296.328	30.7
296.543	10.08
296.758	9.09
296.973	21.7
297.188	42.76
297.404	35.87
297.619	51.28
297.834	30.79
298.049	7.79
298.264	-42.03
298.479	-77.9
298.694	-102.74
298.909	-56.16
299.125	-15.15
299.34	3.3
299.555	23.07
299.77	35.39
299.985	32.16
300.2	13.29
300.415	13.71
300.63	1.72
300.845	-10.55
301.06	-5
301.275	-1.5
301.49	-0.15
301.704	-13.35
301.919	9.87
302.134	6.05
302.349	6.7
302.564	1.73
302.779	0.72
302.994	-2.06
303.209	0.47
303.423	-10.73
303.638	-7.9
303.853	-8.43
304.068	-23.12
304.283	-16.5
304.497	-28.19
304.712	-38.31
304.927	-34.76
305.142	-31.43
305.356	-37.9
305.571	2.98
305.786	-2.09
306	17.98
306.215	33.32
306.43	42.23
306.644	40.33
306.859	39.07
307.074	41.12
307.288	39.73
307.503	48.52
307.717	44.37
307.932	35.56
308.147	23.13
308.361	29.56
308.576	21.34
308.79	9.82
309.005	29.83
309.219	4.43
309.434	-52.35
309.648	-120.43
309.863	-103.24
310.077	-187.33
310.292	-138.49
310.506	-52.05
310.72	-8.72
310.935	-37.9
311.149	-13.13
311.364	21.5
311.578	13.32
311.792	12.68
312.007	47.46
312.221	47.94
312.435	61.29
312.649	60.8
312.864	78.73
313.078	64.57
313.292	76.45
313.507	63.75
313.721	61.61
313.935	33.98
314.149	22.71
314.363	13.99
314.578	14.1
314.792	-0.47
315.006	-6.82
315.22	10.71
315.434	-30.94
315.648	-64.45
315.862	-31.19
316.077	-20.2
316.291	-49.66
316.505	-1.16
316.719	-19.24
316.933	-20.9
317.147	-2.26
317.361	3.83
317.575	-9.01
317.789	16.7
318.003	4.93
318.217	27.11
318.431	32.97
318.645	34.97
318.859	-11.47
319.073	-15.34
319.287	-52.62
319.5	-38.42
319.714	-39
319.928	15.12
320.142	23.53
320.356	13.01
320.57	13.97
320.784	14.39
320.997	-2.12
321.211	5.03
321.425	-5.19
321.639	-2.15
321.853	-1.98
322.066	-16.41
322.28	-7.23
322.494	-6.87
322.707	-6.64
322.921	3.96
323.135	26.34
323.349	24.44
323.562	34.47
323.776	36.94
323.989	25.21
324.203	-1.47
324.417	9.18
324.63	6.31
324.844	-14.3
325.057	-11.83
325.271	-2.41
325.485	-9.91
325.698	-16.7
325.912	9.11
326.125	14.63
326.339	21.74
326.552	7.52
326.766	21.31
326.979	17.3
327.193	20.24
327.406	16.54
327.619	20.19
327.833	11.7
328.046	27.44
328.26	8.75
328.473	-25.97
328.686	-3.04
328.9	7.26
329.113	-14.15
329.326	-2.36
329.54	9.82
329.753	-1.17
329.966	0.75
330.179	6.03
330.393	9.28
330.606	25.39
330.819	30.78
331.032	18.75
331.246	48.49
331.459	31.4
331.672	10.91
331.885	17.91
332.098	34.77
332.311	3.96
332.525	6.81
332.738	11.54
332.951	9.53
333.164	3.89
333.377	24.25
333.59	21.39
333.803	33.23
334.016	22.08
334.229	18.94
334.442	-5.43
334.655	8.48
334.868	-8.36
335.081	3.85
335.294	10.14
335.507	27.88
335.72	34.78
335.933	39.16
336.146	43.31
336.359	44.62
336.572	20.44
336.785	-7.56
336.997	0.83
337.21	1.87
337.423	18.17
337.636	46.92
337.849	86.65
338.062	99.44
338.274	65.82
338.487	33.38
338.7	18.58
338.913	0.33
339.125	-0.92
339.338	0.79
339.551	-9.98
339.763	23.32
339.976	27.05
340.189	8.65
340.402	5.7
340.614	7.93
340.827	-11.12
341.039	-24.18
341.252	-20.04
341.465	-5.06
341.677	-3.26
341.89	-0.63
342.102	31.4
342.315	25.79
342.527	29.69
342.74	43.64
342.952	37.49
343.165	25.74
343.377	51.95
343.59	37.45
343.802	24.48
344.015	30.05
344.227	25.12
344.44	19.09
344.652	32.55
344.864	32.22
345.077	34.72
345.289	21.41
345.502	22.98
345.714	10.93
345.926	22.05
346.139	20.23
346.351	27.23
346.563	10.28
346.775	13.17
346.988	7.65
347.2	14.44
347.412	8.37
347.624	38.31
347.837	46.32
348.049	35.17
348.261	25.72
348.473	36.88
348.685	50.2
348.897	72.73
349.11	77.04
349.322	68.67
349.534	48.41
349.746	40.22
349.958	7.55
350.17	17
350.382	23.11
350.594	23.63
350.806	13.56
351.018	23.18
351.23	19.24
351.442	15.09
351.654	11.37
351.866	14.93
352.078	-2.55
352.29	3.36
352.502	18.87
352.714	14.35
352.926	23.27
353.138	33.08
353.35	41.58
353.561	30.63
353.773	36.66
353.985	30.14
354.197	32.33
354.409	8
354.621	11.46
354.832	17.89
355.044	11.16
355.256	17.73
355.468	29.78
355.679	42.86
355.891	42.4
356.103	40.25
356.314	36.79
356.526	17.84
356.738	-6.43
356.949	-25.33
357.161	-6.13
357.373	-15.68
357.584	1.61
357.796	27.46
358.008	42.89
358.219	60.49
358.431	87.9
358.642	64.67
358.854	46.35
359.065	54.85
359.277	49.36
359.488	40.38
359.7	44.49
359.911	40.5
360.123	25.49
360.334	28.22
360.546	18.9
360.757	24.37
360.969	29.27
361.18	30.3
361.391	17.31
361.603	37.66
361.814	7.51
362.025	23.4
362.237	34.45
362.448	33.1
362.659	18.63
362.871	32.76
363.082	21.34
363.293	1.04
363.504	-9.6
363.716	9.73
363.927	20.97
364.138	20.95
364.349	32.53
364.56	41.43
364.772	49.1
364.983	34.2
365.194	32.49
365.405	10.01
365.616	16.96
365.827	9.33
366.038	23.91
366.25	17.62
366.461	10.36
366.672	11.75
366.883	-3.18
367.094	-10.32
367.305	-2
367.516	20.84
367.727	21.42
367.938	24.54
368.149	19.55
368.36	23.9
368.571	4.23
368.781	-21.87
368.992	-15.57
369.203	-5.57
369.414	-23.98
369.625	-10.51
369.836	-21.15
370.047	-18.72
370.258	-14.26
370.468	-5.45
370.679	0.18
370.89	-3.57
371.101	4.04
371.312	2.06
371.522	9.44
371.733	2.54
371.944	24.67
372.155	28.14
372.365	26.66
372.576	26.87
372.787	27.96
372.997	24.42
373.208	20.45
373.419	28
373.629	23.82
373.84	33.51
374.05	34.03
374.261	37.6
374.472	25.24
374.682	21.63
374.893	12.43
375.103	14.19
375.314	-9.25
375.524	3.39
375.735	3.19
375.945	25.54
376.156	20.12
376.366	41.63
376.577	39.21
376.787	35.21
376.997	16.99
377.208	22.23
377.418	19.64
377.629	7.15
377.839	26.84
378.049	23.15
378.26	15.15
378.47	13.74
378.68	35.44
378.89	23.76
379.101	22.64
379.311	33.23
379.521	28.99
379.732	18.88
379.942	25
380.152	37.43
380.362	32.25
380.572	34.25
380.783	26.53
380.993	11.81
381.203	5.44
381.413	0.56
381.623	11.36
381.833	17.05
382.043	24.04
382.253	23.54
382.463	28.51
382.674	18.07
382.884	18.42
383.094	16.17
383.304	16.4
383.514	21.34
383.724	26.56
383.934	25.58
384.144	17.52
384.353	15.47
384.563	11.67
384.773	12.2
384.983	0.82
385.193	9.17
385.403	7.23
385.613	7.56
385.823	-1.07
386.033	3.72
386.242	4.7
386.452	5.89
386.662	7.71
386.872	13.86
387.082	16.01
387.291	10.59
387.501	13.21
387.711	12.69
387.921	11.45
388.13	9.31
388.34	11.28
388.55	8.01
388.759	3.51
388.969	2.08
389.179	2.52
389.388	3.96
389.598	3.97
389.807	7.75
390.017	10.52
390.227	10.48
390.436	8.5
390.646	8.47
390.855	6.98
391.065	6.09
391.274	6.38
391.484	8.96
391.693	9.12
391.903	9.33
392.112	10.02
392.322	8.57
392.531	7.59
392.74	8.02
392.95	6.76
393.159	5.28
393.369	5.88
393.578	6.58
393.787	6.56
393.997	7.8
394.206	7.55
394.415	8.76
394.625	8.96
394.834	8.58
395.043	7.82
395.252	8.54
395.462	8.91
395.671	8.14
395.88	9.33
396.089	9.28
396.298	9.59
396.508	8.84
396.717	8.51
396.926	7.56
397.135	7.47
397.344	6.69
397.553	6.63
397.762	7.39
397.971	7.3
398.181	7.42
398.39	8.03
398.599	8.34
398.808	7.9
399.017	7.57
399.226	7.73
399.435	7.87
399.644	7.61
399.853	7.55
400.062	7.73
400.27	7.72
400.479	7.47
400.688	7.72
400.897	7.9
401.106	8.09
401.315	7.98
401.524	7.78
401.733	7.68
401.941	7.55
402.15	7.33
402.359	7.32
402.568	7.54
402.777	7.57
402.985	7.73
403.194	7.89
403.403	7.94
403.612	7.97
403.82	7.83
404.029	7.62
404.238	7.72
404.446	7.81
404.655	7.79
404.864	7.81
405.072	7.87
405.281	7.75
405.489	7.69
405.698	7.64
405.906	7.6
406.115	7.37
406.324	7.43
406.532	7.35
406.741	7.23
406.949	7.06
407.158	7.33
407.366	7.21
407.574	7.28
407.783	7.3
407.991	7.38
408.2	7.17
408.408	7.17
408.617	7.11
408.825	7.07
409.033	7.17
409.242	7.36
409.45	7.23
409.658	7.21
409.867	7.24
410.075	7.16
410.283	7.16
410.491	7.34
410.7	7.48
410.908	7.44
411.116	7.49
411.324	7.46
411.533	7.28
411.741	7.11
411.949	7.13
412.157	7.15
412.365	7.08
412.573	7.09
412.781	7.08
412.99	7.11
413.198	7.19
413.406	7.29
413.614	7.37
413.822	7.43
414.03	7.41
414.238	7.26
414.446	7.24
414.654	7.16
414.862	7.1
415.07	7.01
415.278	7.03
415.486	6.93
415.694	7.09
415.902	7.15
416.109	7.2
416.317	7.27
416.525	7.24
416.733	7.04
416.941	7.07
417.149	6.96
417.357	6.87
417.564	6.8
417.772	6.76
417.98	6.6
418.188	6.59
418.395	6.55
418.603	6.64
418.811	6.67
419.019	6.76
419.226	6.9
419.434	6.95
419.642	6.93
419.849	7.02
420.057	6.95
420.265	6.9
420.472	6.76
420.68	6.73
420.887	6.63
421.095	6.62
421.302	6.58
421.51	6.55
421.717	6.6
421.925	6.67
422.132	6.65
422.34	6.78
422.547	6.92
422.755	6.78
422.962	6.89
423.17	6.9
423.377	6.74
423.585	6.62
423.792	6.59
423.999	6.46
424.207	6.39
424.414	6.25
424.621	6.18
424.829	6.3
425.036	6.37
425.243	6.44
425.451	6.68
425.658	6.8
425.865	6.76
426.072	6.66
426.28	6.53
426.487	6.38
426.694	6.28
426.901	6.2
427.108	6.21
427.315	6.34
427.523	6.31
427.73	6.35
427.937	6.29
428.144	6.25
428.351	6.14
428.558	6.23
428.765	6.17
428.972	6.21
429.179	6.26
429.386	6.38
429.593	6.42
429.8	6.61
430.007	6.55
430.214	6.45
430.421	6.53
430.628	6.45
430.835	6.47
431.042	6.67
431.249	6.81
431.456	6.63
431.662	6.81
431.869	6.79
432.076	6.77
432.283	6.85
432.49	6.84
432.697	6.71
432.903	6.55
433.11	6.34
433.317	6.14
433.524	6.33
433.73	6.3
433.937	6.44
434.144	6.59
434.35	6.54
434.557	6.43
434.764	6.38
434.97	6.29
435.177	6.36
435.384	6.32
435.59	6.34
435.797	6.34
436.003	6.37
436.21	6.06
436.416	6.09
436.623	6.09
436.829	6.17
437.036	5.94
437.242	6.08
437.449	6.17
437.655	6.13
437.862	6.17
438.068	6.48
438.275	6.62
438.481	6.66
438.687	6.59
438.894	6.5
439.1	6.26
439.307	6.12
439.513	6.11
439.719	6.13
439.926	6.16
440.132	6.28
440.338	6.36
440.544	6.45
440.751	6.5
440.957	6.37
441.163	6.37
441.369	6.37
441.575	6.16
441.782	6.23
441.988	6.3
442.194	6.18
442.4	6.12
442.606	6.19
442.812	6.07
443.018	6.09
443.224	6.13
443.431	6.15
443.637	6.1
443.843	6.1
444.049	6.02
444.255	6.08
444.461	6.13
444.667	6.14
444.873	6.14
445.079	6.13
445.284	6.11
445.49	6.07
445.696	6.11
445.902	6.16
446.108	6.19
446.314	6.08
446.52	6.12
446.726	6.15
446.931	6.15
447.137	6.26
447.343	6.39
447.549	6.35
447.755	6.26
447.96	6.3
448.166	6.26
448.372	6.24
448.578	6.26
448.783	6.41
448.989	6.24
449.195	6.43
449.4	6.61
449.606	6.64
449.812	6.54
450.017	6.73
450.223	6.47
450.428	6.38
450.634	6.34
450.84	6.37
451.045	6.29
451.251	6.3
451.456	6.24
451.662	6.21
451.867	6.2
452.073	6.31
452.278	6.46
452.483	6.43
452.689	6.5
452.894	6.47
453.1	6.47
453.305	6.37
453.51	6.38
453.716	6.52
453.921	6.54
454.127	6.52
454.332	6.6
454.537	6.73
454.742	6.63
454.948	6.62
455.153	6.6
455.358	6.52
455.563	6.4
455.769	6.3
455.974	6.41
456.179	6.36
456.384	6.35
456.589	6.38
456.795	6.39
457	6.37
457.205	6.39
457.41	6.48
457.615	6.48
457.82	6.54
458.025	6.45
458.23	6.46
458.435	6.36
458.64	6.35
458.845	6.41
459.05	6.36
459.255	6.34
459.46	6.49
459.665	6.54
459.87	6.46
460.075	6.68
460.28	6.74
460.485	6.63
460.69	6.5
460.895	6.48
461.099	6.4
461.304	6.4
461.509	6.47
461.714	6.61
461.919	6.72
462.123	6.63
462.328	6.58
462.533	6.6
462.738	6.57
462.942	6.5
463.147	6.62
463.352	6.69
463.556	6.65
463.761	6.56
463.966	6.59
464.17	6.57
464.375	6.57
464.58	6.56
464.784	6.68
464.989	6.76
465.193	6.73
465.398	6.88
465.602	6.99
465.807	7.11
466.011	7.1
466.216	7.1
466.42	6.99
466.625	7.08
466.829	7.06
467.034	6.93
467.238	7.04
467.443	7.01
467.647	6.85
467.851	6.82
468.056	6.91
468.26	6.81
468.464	6.74
468.669	6.84
468.873	6.77
469.077	6.66
469.282	6.79
469.486	6.85
469.69	6.71
469.894	6.68
470.099	6.73
470.303	6.57
470.507	6.55
470.711	6.65
470.915	6.71
471.119	6.74
471.324	6.86
471.528	6.86
471.732	6.82
471.936	6.86
472.14	6.92
472.344	6.85
472.548	6.85
472.752	6.85
472.956	6.76
473.16	6.79
473.364	6.79
473.568	6.77
473.772	6.8
473.976	6.84
474.18	6.8
474.384	6.87
474.588	6.97
474.792	6.95
474.995	6.89
475.199	6.85
475.403	6.84
475.607	6.82
475.811	6.81
476.015	6.8
476.218	6.85
476.422	6.78
476.626	6.79
476.83	6.84
477.033	6.93
477.237	6.99
477.441	7.01
477.644	7.03
477.848	6.97
478.052	6.93
478.255	6.82
478.459	6.89
478.663	6.86
478.866	6.92
479.07	6.9
479.273	6.87
479.477	6.85
479.681	6.86
479.884	6.85
480.088	6.82
480.291	6.9
480.495	6.85
480.698	6.84
480.901	6.74
481.105	6.81
481.308	6.73
481.512	6.78
481.715	6.8
481.919	6.93
482.122	6.95
482.325	7.06
482.529	7.02
482.732	6.96
482.935	6.85
483.138	6.9
483.342	6.78
483.545	6.82
483.748	6.8
483.952	6.81
484.155	6.78
484.358	6.81
484.561	6.85
484.764	6.87
484.967	6.95
485.171	6.85
485.374	6.83
485.577	6.8
485.78	6.87
485.983	6.9
486.186	6.97
486.389	6.96
486.592	6.96
486.795	6.92
486.998	6.83
487.201	6.93
487.404	7.03
487.607	7.09
487.81	7.09
488.013	7.06
488.216	7.02
488.419	7.03
488.622	7.04
488.825	7.07
489.028	7.17
489.231	7.21
489.433	7.23
489.636	7.29
489.839	7.27
490.042	7.33
490.245	7.33
490.447	7.31
490.65	7.34
490.853	7.5
491.056	7.51
491.258	7.53
491.461	7.68
491.664	7.68
491.866	7.65
492.069	7.79
492.272	7.85
492.474	7.88
492.677	8.01
492.879	8.07
493.082	8.15
493.285	8.31
493.487	8.42
493.69	8.49
493.892	8.61
494.095	8.7
494.297	8.8
494.5	8.88
494.702	8.97
494.905	9.06
495.107	9.12
495.309	9.17
495.512	9.27
495.714	9.38
495.917	9.55
496.119	9.71
496.321	9.8
496.524	9.85
496.726	9.98
496.928	10.01
497.13	10
497.333	10.08
497.535	10.32
497.737	10.37
497.939	10.6
498.142	10.75
498.344	10.91
498.546	10.98
498.748	11.12
498.95	11.09
499.152	11.2
499.355	11.28
499.557	11.41
499.759	11.52
499.961	11.61
500.163	11.64
500.365	11.85
500.567	11.92
500.769	11.99
500.971	12.1
501.173	12.3
501.375	12.29
501.577	12.35
501.779	12.38
501.981	12.5
502.183	12.47
502.385	12.46
502.587	12.46
502.788	12.55
502.99	12.48
503.192	12.57
503.394	12.69
503.596	12.69
503.798	12.62
503.999	12.72
504.201	12.65
504.403	12.61
504.605	12.59
504.806	12.6
505.008	12.58
505.21	12.58
505.411	12.55
505.613	12.57
505.815	12.59
506.016	12.54
506.218	12.52
506.42	12.53
506.621	12.42
506.823	12.44
507.024	12.42
507.226	12.39
507.427	12.38
507.629	12.35
507.83	12.29
508.032	12.24
508.233	12.2
508.435	12.1
508.636	12.01
508.838	11.9
509.039	11.76
509.24	11.68
509.442	11.69
509.643	11.74
509.845	11.78
510.046	11.79
510.247	11.75
510.448	11.61
510.65	11.54
510.851	11.46
511.052	11.44
511.254	11.36
511.455	11.32
511.656	11.18
511.857	11.05
512.058	10.94
512.26	10.85
512.461	10.81
512.662	10.78
512.863	10.76
513.064	10.79
513.265	10.76
513.466	10.75
513.667	10.76
513.868	10.68
514.069	10.62
514.27	10.56
514.471	10.38
514.672	10.33
514.873	10.19
515.074	10.1
515.275	10.07
515.476	10.16
515.677	10.11
515.878	10.19
516.079	10.16
516.28	10.14
516.481	10.08
516.682	10.04
516.882	9.98
517.083	9.97
517.284	9.92
517.485	9.9
517.686	9.85
517.886	9.85
518.087	9.77
518.288	9.79
518.488	9.75
518.689	9.73
518.89	9.73
519.091	9.72
519.291	9.6
519.492	9.49
519.692	9.53
519.893	9.49
520.094	9.46
520.294	9.54
520.495	9.62
520.695	9.55
520.896	9.44
521.096	9.43
521.297	9.4
521.497	9.38
521.698	9.39
521.898	9.4
522.099	9.4
522.299	9.37
522.499	9.31
522.7	9.24
522.9	9.25
523.101	9.17
523.301	9.19
523.501	9.16
523.702	9.13
523.902	9.1
524.102	9.13
524.302	9.09
524.503	9.04
524.703	9.03
524.903	9.05
525.103	9.08
525.304	9.02
525.504	9.09
525.704	9.03
525.904	8.95
526.104	8.88
526.304	8.96
526.504	8.92
526.705	9.02
526.905	9.07
527.105	9.09
527.305	9.03
527.505	9
527.705	8.96
527.905	8.94
528.105	8.94
528.305	8.96
528.505	8.96
528.705	8.92
528.905	8.89
529.105	8.9
529.304	8.88
529.504	8.88
529.704	8.91
529.904	8.93
530.104	8.85
530.304	8.84
530.503	8.82
530.703	8.73
530.903	8.76
531.103	8.8
531.303	8.74
531.502	8.76
531.702	8.74
531.902	8.78
532.101	8.78
532.301	8.82
532.501	8.82
532.7	8.88
532.9	8.85
533.1	8.8
533.299	8.81
533.499	8.81
533.698	8.77
533.898	8.74
534.097	8.74
534.297	8.75
534.496	8.71
534.696	8.79
534.895	8.85
535.095	8.85
535.294	8.87
535.494	8.89
535.693	8.8
535.892	8.78
536.092	8.79
536.291	8.76
536.491	8.78
536.69	8.84
536.889	8.82
537.088	8.8
537.288	8.83
537.487	8.81
537.686	8.77
537.886	8.77
538.085	8.85
538.284	8.86
538.483	8.86
538.682	8.91
538.882	8.93
539.081	8.88
539.28	8.86
539.479	8.88
539.678	8.84
539.877	8.84
540.076	8.8
540.275	8.78
540.474	8.71
540.673	8.7
540.872	8.63
541.071	8.67
541.27	8.73
541.469	8.78
541.668	8.77
541.867	8.89
542.066	8.88
542.265	8.89
542.464	8.89
542.663	8.91
542.862	8.86
543.06	8.84
543.259	8.81
543.458	8.79
543.657	8.84
543.856	8.89
544.054	8.89
544.253	8.89
544.452	8.89
544.651	8.82
544.849	8.74
545.048	8.72
545.247	8.78
545.445	8.79
545.644	8.81
545.843	8.86
546.041	8.87
546.24	8.87
546.438	8.87
546.637	8.87
546.836	8.84
547.034	8.9
547.233	8.87
547.431	8.92
547.63	8.97
547.828	9.01
548.027	8.99
548.225	8.98
548.423	9.04
548.622	9.04
548.82	9.06
549.019	9
549.217	8.97
549.415	8.88
549.614	8.95
549.812	8.93
550.01	9.02
550.209	9.11
550.407	9.18
550.605	9.11
550.803	9.16
551.002	9.13
551.2	9.12
551.398	9.22
551.596	9.29
551.794	9.34
551.993	9.35
552.191	9.43
552.389	9.36
552.587	9.4
552.785	9.34
552.983	9.47
553.181	9.4
553.379	9.49
553.577	9.51
553.775	9.6
553.973	9.59
554.171	9.7
554.369	9.77
554.567	9.8
554.765	9.82
554.963	9.86
555.161	9.88
555.359	9.8
555.557	9.8
555.755	9.78
555.952	9.83
556.15	9.89
556.348	10
556.546	10.08
556.744	10.18
556.941	10.21
557.139	10.2
557.337	10.22
557.535	10.23
557.732	10.33
557.93	10.38
558.128	10.46
558.325	10.49
558.523	10.59
558.721	10.58
558.918	10.59
559.116	10.67
559.313	10.71
559.511	10.81
559.708	10.94
559.906	11.04
560.104	11
560.301	11.11
560.498	11.09
560.696	11.07
560.893	11.07
561.091	11.13
561.288	11.15
561.486	11.17
561.683	11.17
561.88	11.19
562.078	11.21
562.275	11.26
562.473	11.39
562.67	11.56
562.867	11.64
563.064	11.68
563.262	11.73
563.459	11.74
563.656	11.67
563.853	11.78
564.051	11.87
564.248	11.97
564.445	11.99
564.642	12.07
564.839	12.12
565.036	12.16
565.234	12.16
565.431	12.3
565.628	12.29
565.825	12.28
566.022	12.44
566.219	12.57
566.416	12.54
566.613	12.65
566.81	12.73
567.007	12.72
567.204	12.71
567.401	12.8
567.598	12.83
567.795	12.84
567.991	12.9
568.188	12.94
568.385	12.93
568.582	13.04
568.779	13.09
568.976	13.17
569.172	13.21
569.369	13.29
569.566	13.28
569.763	13.3
569.96	13.25
570.156	13.35
570.353	13.41
570.55	13.53
570.746	13.54
570.943	13.61
571.14	13.55
571.336	13.6
571.533	13.59
571.729	13.68
571.926	13.75
572.123	13.76
572.319	13.83
572.516	13.8
572.712	13.8
572.909	13.81
573.105	13.88
573.302	13.79
573.498	13.79
573.695	13.73
573.891	13.73
574.087	13.7
574.284	13.79
574.48	13.85
574.677	13.98
574.873	13.98
575.069	14.09
575.266	14.07
575.462	14.09
575.658	14.09
575.854	14.1
576.051	14.01
576.247	13.99
576.443	14.01
576.639	14.03
576.835	13.98
577.032	14.02
577.228	14.07
577.424	14.08
577.62	14.05
577.816	14.05
578.012	14.05
578.208	13.97
578.404	14.04
578.6	13.98
578.796	13.97
578.993	14.02
579.189	14.05
579.384	14.04
579.58	14.08
579.776	14.15
579.972	14.1
580.168	14.03
580.364	13.94
580.56	13.95
580.756	13.92
580.952	13.89
581.148	13.94
581.343	13.92
581.539	13.94
581.735	13.8
581.931	13.75
582.127	13.68
582.322	13.66
582.518	13.63
582.714	13.69
582.909	13.76
583.105	13.88
583.301	13.89
583.496	13.88
583.692	13.91
583.888	13.82
584.083	13.64
584.279	13.66
584.474	13.61
584.67	13.55
584.866	13.52
585.061	13.57
585.257	13.47
585.452	13.44
585.648	13.5
585.843	13.53
586.039	13.5
586.234	13.49
586.429	13.49
586.625	13.43
586.82	13.43
587.015	13.45
587.211	13.43
587.406	13.4
587.601	13.46
587.797	13.41
587.992	13.35
588.187	13.41
588.383	13.45
588.578	13.37
588.773	13.37
588.968	13.47
589.163	13.38
589.359	13.35
589.554	13.29
589.749	13.34
589.944	13.3
590.139	13.31
590.334	13.4
590.529	13.52
590.724	13.54
590.919	13.62
591.114	13.75
591.309	13.7
591.504	13.76
591.699	13.72
591.894	13.68
592.089	13.66
592.284	13.62
592.479	13.52
592.674	13.49
592.869	13.56
593.064	13.58
593.259	13.71
593.454	13.76
593.648	13.81
593.843	13.82
594.038	13.84
594.233	13.84
594.428	13.84
594.622	13.82
594.817	13.79
595.012	13.76
595.206	13.86
595.401	13.93
595.596	14
595.79	14.06
595.985	14.14
596.18	14.14
596.374	14.21
596.569	14.27
596.763	14.39
596.958	14.49
597.153	14.5
597.347	14.54
597.542	14.66
597.736	14.71
597.931	14.71
598.125	14.78
598.319	14.87
598.514	14.75
598.708	14.77
598.903	14.79
599.097	14.85
599.291	14.82
599.486	14.98
599.68	14.99
599.874	14.98
600.069	15.04
600.263	15.11
600.457	15.11
600.651	15.07
600.846	15.16
601.04	15.08
601.234	14.95
601.428	14.97
601.622	15.12
601.817	15.15
602.011	15.16
602.205	15.26
602.399	15.31
602.593	15.28
602.787	15.21
602.981	15.2
603.175	15.13
603.369	15.11
603.563	15.08
603.757	15.03
603.951	15
604.145	15.05
604.339	15.07
604.533	15.04
604.727	15.09
604.921	15.11
605.115	15
605.309	14.9
605.502	14.94
605.696	14.89
605.89	14.93
606.084	15.02
606.278	15
606.471	14.88
606.665	14.8
606.859	14.63
607.053	14.57
607.246	14.61
607.44	14.58
607.634	14.56
607.827	14.59
608.021	14.42
608.214	14.31
608.408	14.25
608.602	14.2
608.795	14.1
608.989	14.12
609.182	14.09
609.376	14.06
609.569	14.01
609.763	14.02
609.956	13.98
610.15	13.78
610.343	13.72
610.537	13.72
610.73	13.67
610.923	13.6
611.117	13.74
611.31	13.75
611.504	13.72
611.697	13.63
611.89	13.55
612.083	13.48
612.277	13.36
612.47	13.26
612.663	13.1
612.856	13.09
613.05	12.94
613.243	12.84
613.436	12.77
613.629	12.86
613.822	12.84
614.015	12.81
614.209	12.81
614.402	12.79
614.595	12.7
614.788	12.63
614.981	12.63
615.174	12.63
615.367	12.5
615.56	12.46
615.753	12.42
615.946	12.35
616.139	12.3
616.332	12.32
616.525	12.3
616.718	12.27
616.911	12.23
617.103	12.11
617.296	12.12
617.489	12.1
617.682	12.07
617.875	12.02
618.067	11.99
618.26	11.88
618.453	11.72
618.646	11.72
618.838	11.7
619.031	11.66
619.224	11.62
619.417	11.7
619.609	11.65
619.802	11.7
619.994	11.65
620.187	11.72
620.38	11.61
620.572	11.56
620.765	11.51
620.957	11.55
621.15	11.47
621.342	11.54
621.535	11.49
621.727	11.34
621.92	11.33
622.112	11.28
622.305	11.16
622.497	11.22
622.69	11.19
622.882	11.18
623.074	11.23
623.267	11.19
623.459	11.06
623.651	11.12
623.844	11.05
624.036	11.03
624.228	11.1
624.42	11.18
624.613	11.19
624.805	11.27
624.997	11.31
625.189	11.29
625.381	11.24
625.574	11.15
625.766	11.11
625.958	11
626.15	11.02
626.342	10.94
626.534	11.01
626.726	10.9
626.918	10.87
627.11	10.82
627.302	10.9
627.494	10.82
627.686	10.85
627.878	10.84
628.07	10.83
628.262	10.79
628.454	10.81
628.646	10.8
628.838	10.81
629.029	10.71
629.221	10.62
629.413	10.52
629.605	10.47
629.797	10.39
629.989	10.38
630.18	10.37
630.372	10.32
630.564	10.33
630.755	10.29
630.947	10.21
631.139	10.18
631.33	10.14
631.522	10.12
631.714	10.14
631.905	10.11
632.097	10.12
632.289	10.15
632.48	10.1
632.672	10.03
632.863	10.05
633.055	10.09
633.246	10.08
633.438	10.09
633.629	10.07
633.821	10.03
634.012	9.97
634.203	9.92
634.395	9.97
634.586	10.09
634.777	10.19
634.969	10.2
635.16	10.29
635.351	10.2
635.543	10.16
635.734	10.09
635.925	10.05
636.117	10.05
636.308	10.15
636.499	10.07
636.69	10.04
636.881	10.07
637.073	10.03
637.264	10
637.455	10.01
637.646	9.99
637.837	9.87
638.028	9.84
638.219	9.75
638.41	9.76
638.601	9.76
638.792	9.82
638.983	9.8
639.174	9.75
639.365	9.7
639.556	9.72
639.747	9.77
639.938	9.8
640.129	9.79
640.32	9.83
640.511	9.8
640.701	9.7
640.892	9.75
641.083	9.81
641.274	9.72
641.465	9.63
641.655	9.74
641.846	9.6
642.037	9.58
642.228	9.57
642.418	9.65
642.609	9.61
642.8	9.58
642.99	9.53
643.181	9.5
643.372	9.43
643.562	9.35
643.753	9.41
643.943	9.39
644.134	9.45
644.324	9.57
644.515	9.56
644.705	9.52
644.896	9.53
645.086	9.47
645.277	9.48
645.467	9.58
645.658	9.58
645.848	9.53
646.038	9.6
646.229	9.59
646.419	9.44
646.61	9.44
646.8	9.54
646.99	9.48
647.18	9.41
647.371	9.43
647.561	9.38
647.751	9.27
647.941	9.19
648.132	9.18
648.322	9.21
648.512	9.19
648.702	9.26
648.892	9.24
649.082	9.25
649.272	9.27
649.462	9.33
649.653	9.35
649.843	9.46
650.033	9.44
650.223	9.34
650.413	9.3
650.603	9.27
650.793	9.22
650.983	9.23
651.172	9.24
651.362	9.21
651.552	9.13
651.742	9.04
651.932	9.03
652.122	8.98
652.312	8.99
652.502	8.9
652.691	8.89
652.881	8.86
653.071	8.91
653.261	8.83
653.45	8.87
653.64	8.83
653.83	8.81
654.019	8.72
654.209	8.69
654.399	8.68
654.588	8.59
654.778	8.5
654.968	8.46
655.157	8.42
655.347	8.31
655.536	8.36
655.726	8.31
655.915	8.28
656.105	8.11
656.294	8.01
656.484	7.91
656.673	7.82
656.863	7.7
657.052	7.71
657.241	7.72
657.431	7.73
657.62	7.66
657.809	7.6
657.999	7.66
658.188	7.58
658.377	7.54
658.567	7.47
658.756	7.43
658.945	7.3
659.134	7.23
659.324	7.15
659.513	7.06
659.702	6.95
659.891	6.88
660.08	6.77
660.269	6.65
660.458	6.63
660.648	6.68
660.837	6.58
661.026	6.5
661.215	6.38
661.404	6.32
661.593	6.19
661.782	6.17
661.971	6.31
662.16	6.36
662.349	6.28
662.538	6.32
662.726	6.25
662.915	6.07
663.104	5.98
663.293	6.01
663.482	5.91
663.671	6.04
663.86	6.12
664.048	6.15
664.237	6.19
664.426	6.22
664.615	6.05
664.803	5.94
664.992	5.81
665.181	5.7
665.369	5.73
665.558	5.72
665.747	5.85
665.935	6.06
666.124	6.09
666.312	6.06
666.501	6.18
666.69	6.19
666.878	6.11
667.067	6.08
667.255	6.15
667.444	6.14
667.632	6.13
667.82	6.1
668.009	6.13
668.197	6.09
668.386	6.05
668.574	6.06
668.762	6.2
668.951	6.4
669.139	6.36
669.327	6.44
669.516	6.41
669.704	6.33
669.892	6.17
670.08	6.19
670.269	6.17
670.457	6.21
670.645	6.11
670.833	6.13
671.021	6.19
671.21	6.25
671.398	6.32
671.586	6.42
671.774	6.49
671.962	6.56
672.15	6.64
672.338	6.61
672.526	6.76
672.714	6.85
672.902	6.8
673.09	6.68
673.278	6.7
673.466	6.61
673.654	6.77
673.842	6.91
674.03	7.19
674.218	7.29
674.405	7.47
674.593	7.4
674.781	7.39
674.969	7.29
675.157	7.36
675.344	7.29
675.532	7.34
675.72	7.41
675.908	7.54
676.095	7.54
676.283	7.74
676.471	7.68
676.658	7.81
676.846	7.87
677.033	7.95
677.221	7.93
677.409	7.95
677.596	7.93
677.784	7.87
677.971	7.87
678.159	7.98
678.346	8.12
678.534	8.16
678.721	8.15
678.909	8.3
679.096	8.27
679.283	8.28
679.471	8.4
679.658	8.46
679.846	8.44
680.033	8.62
680.22	8.7
680.408	8.62
680.595	8.71
680.782	8.75
680.969	8.58
681.157	8.63
681.344	8.78
681.531	8.89
681.718	8.88
681.905	9.04
682.093	9.04
682.28	9.12
682.467	9.32
682.654	9.4
682.841	9.39
683.028	9.38
683.215	9.45
683.402	9.31
683.589	9.37
683.776	9.5
683.963	9.55
684.15	9.62
684.337	9.77
684.524	10.01
684.711	10.26
684.898	10.5
685.085	10.5
685.271	10.62
685.458	10.66
685.645	10.56
685.832	10.59
686.019	10.68
686.205	10.81
686.392	10.95
686.579	11.26
686.766	11.5
686.952	11.75
687.139	11.8
687.326	11.76
687.512	11.85
687.699	11.96
687.886	12.1
688.072	12.37
688.259	12.73
688.445	12.98
688.632	13.16
688.818	13.41
689.005	13.54
689.191	13.9
689.378	14.17
689.564	14.62
689.751	14.88
689.937	15.23
690.124	15.34
690.31	15.57
690.496	15.88
690.683	16.31
690.869	16.63
691.055	17.09
691.242	17.57
691.428	17.71
691.614	17.95
691.8	18.36
691.987	18.76
692.173	19.19
692.359	19.83
692.545	20.39
692.731	20.85
692.918	21.17
693.104	21.61
693.29	21.79
693.476	22.31
693.662	22.97
693.848	23.8
694.034	24.26
694.22	25.34
694.406	25.83
694.592	26.19
694.778	26.55
694.964	27.2
695.15	27.33
695.336	27.77
695.522	28.62
695.708	29.06
695.894	29.53
696.08	30.4
696.265	31.06
696.451	31.56
696.637	32.24
696.823	32.91
697.009	33.33
697.194	33.95
697.38	34.54
697.566	34.99
697.751	35.43
697.937	35.85
698.123	36.76
698.308	37.28
698.494	38.03
698.68	38.81
698.865	39.58
699.051	39.98
699.236	40.69
699.422	41.22
699.607	41.8
699.793	42.63
699.978	43.34
700.164	43.81
700.349	44.25
700.535	44.8
700.72	45.26
700.906	45.64
701.091	46.24
701.276	47.05
701.462	47.4
701.647	48.22
701.832	48.69
702.018	49.26
702.203	49.74
702.388	50.61
702.573	50.62
702.759	51.44
702.944	51.74
703.129	52.31
703.314	52.57
703.499	53.04
703.684	53.23
703.87	53.63
704.055	54.03
704.24	54.75
704.425	55.42
704.61	56
704.795	56.85
704.98	57.41
705.165	57.72
705.35	57.99
705.535	58.48
705.72	58.75
705.905	59.19
706.09	59.65
706.275	60.2
706.459	60.32
706.644	60.64
706.829	61.22
707.014	61.81
707.199	62.39
707.384	62.66
707.568	63.05
707.753	63.33
707.938	63.07
708.123	63.03
708.307	63.49
708.492	63.8
708.677	63.73
708.861	64.24
709.046	64.67
709.231	64.95
709.415	65.04
709.6	65.3
709.784	65.79
709.969	66.6
710.153	67.05
710.338	67.38
710.522	68
710.707	67.95
710.891	67.85
711.076	68.09
711.26	68.81
711.445	69.07
711.629	69.65
711.813	70.26
711.998	70.22
712.182	69.77
712.366	69.71
712.551	69.62
712.735	69.43
712.919	69.52
713.103	69.87
713.288	70.39
713.472	70.67
713.656	70.8
713.84	71.58
714.024	72.46
714.208	72.17
714.393	72.15
714.577	72.04
714.761	71.68
714.945	71.79
715.129	72.21
715.313	72.74
715.497	73.21
715.681	73.48
715.865	73.36
716.049	73.68
716.233	73.9
716.417	73.73
716.601	73.97
716.785	74.07
716.968	74.21
717.152	74.42
717.336	75.28
717.52	75.79
717.704	75.52
717.888	75.52
718.071	75.89
718.255	75.78
718.439	75.62
718.622	76.09
718.806	76.71
718.99	76.41
719.174	76.13
719.357	76.13
719.541	76.67
719.724	75.98
719.908	75.98
720.092	76.36
720.275	76.85
720.459	76.8
720.642	77.3
720.826	77.55
721.009	78.15
721.193	77.68
721.376	77.65
721.559	77.89
721.743	78.27
721.926	78.63
722.11	79.09
722.293	79.34
722.476	80.27
722.66	80.5
722.843	79.75
723.026	79.61
723.21	79.87
723.393	79.13
723.576	79.21
723.759	79.68
723.942	79.65
724.126	79.81
724.309	80.07
724.492	80.07
724.675	79.94
724.858	81.05
725.041	80.74
725.224	80.58
725.407	80.99
725.59	81.08
725.774	81.23
725.957	81.67
726.14	82.12
726.322	82.22
726.505	82.45
726.688	82.13
726.871	82.28
727.054	82.23
727.237	82.04
727.42	82.74
727.603	83.01
727.786	83.25
727.968	83.65
728.151	83.42
728.334	82.94
728.517	82.89
728.699	83.13
728.882	83.72
729.065	83.74
729.248	84.03
729.43	84.41
729.613	84.48
729.796	84.39
729.978	85.76
730.161	85.27
730.343	85.5
730.526	85.7
730.708	84.88
730.891	83.53
731.073	83.95
731.256	83.73
731.438	83.56
731.621	83.84
731.803	84.7
731.986	85.81
732.168	87.04
732.35	87.27
732.533	87.99
732.715	88.61
732.898	87.28
733.08	86.93
733.262	87.08
733.444	87.54
733.627	86.81
733.809	87.68
733.991	87.3
734.173	87.19
734.355	86.7
734.538	87.35
734.72	87.74
734.902	87.86
735.084	88.55
735.266	89.03
735.448	89.7
735.63	89.33
735.812	89.21
735.994	88.27
736.176	87.96
736.358	88.28
736.54	89.07
736.722	88.66
736.904	89.3
737.086	89.39
737.268	88.91
737.45	89.02
737.632	90.29
737.814	90.73
737.995	91.48
738.177	91.33
738.359	91.17
738.541	90.49
738.723	90.5
738.904	89.45
739.086	89.74
739.268	89.89
739.449	90.07
739.631	90.71
739.813	91.62
739.994	92.06
740.176	92
740.358	92.56
740.539	92.33
740.721	92.83
740.902	92.2
741.084	92.14
741.265	92.22
741.447	91.75
741.628	90.87
741.81	90.94
741.991	92.77
742.172	92.31
742.354	91.51
742.535	91.31
742.717	92
742.898	90.62
743.079	90.94
743.261	92.03
743.442	93.22
743.623	92.45
743.804	92.68
743.986	92.54
744.167	91.51
744.348	90.61
744.529	91.1
744.71	90.75
744.891	91.62
745.073	92.18
745.254	93.88
745.435	94.31
745.616	94.29
745.797	92.89
745.978	93.46
746.159	93.07
746.34	92.51
746.521	93.24
746.702	94.58
746.883	94.56
747.064	92.87
747.245	91.71
747.426	90.88
747.606	90.27
747.787	90.38
747.968	91.52
748.149	91.69
748.33	92.54
748.51	92.34
748.691	90.95
748.872	90.16
749.053	92.11
749.233	91.22
749.414	90.95
749.595	92.31
749.775	93.93
749.956	92.47
750.137	92.68
750.317	92.59
750.498	92.08
750.678	91.85
750.859	93.02
751.04	92.57
751.22	92.17
751.4	92.28
751.581	90.91
751.761	89.62
751.942	90.52
752.122	91.37
752.303	91.96
752.483	94.13
752.663	95.39
752.844	95.01
753.024	95.7
753.204	95.33
753.385	92.56
753.565	92
753.745	91.19
753.925	92.27
754.106	92.72
754.286	92.67
754.466	92.08
754.646	92.84
754.826	92.75
755.006	92.74
755.187	93.78
755.367	94.15
755.547	91.46
755.727	89.83
755.907	89.37
756.087	89.74
756.267	90.05
756.447	93.84
756.627	94.04
756.807	95.56
756.987	95.39
757.167	96.01
757.346	95.38
757.526	95.08
757.706	93.88
757.886	94.54
758.066	93.8
758.246	93.58
758.425	92.78
758.605	91.87
758.785	90.78
758.965	91.5
759.144	90.9
759.324	92.12
759.504	91.72
759.683	92.8
759.863	91.81
760.043	91.53
760.222	91.5
760.402	92.38
760.581	92.03
760.761	92.11
760.94	91.91
761.12	91.6
761.299	91.56
761.479	89.55
761.658	88.05
761.838	87.97
762.017	87.33
762.197	87.73
762.376	89.41
762.555	89.86
762.735	92.05
762.914	92.06
763.093	91.87
763.273	91.6
763.452	92.96
763.631	91.17
763.81	91.87
763.99	90.47
764.169	89.79
764.348	89.26
764.527	88.33
764.706	87.66
764.885	86.88
765.064	86.87
765.243	86.97
765.423	86.29
765.602	84.48
765.781	86.04
765.96	85.22
766.139	85.57
766.318	87.03
766.497	88.78
766.676	87.89
766.854	89.28
767.033	87.58
767.212	87.69
767.391	88.65
767.57	89
767.749	89.23
767.928	90.04
768.106	89.99
768.285	90.08
768.464	91.39
768.643	89.58
768.821	89.15
769	87.78
769.179	85.74
769.357	84.28
769.536	86.71
769.715	86.01
769.893	87.34
770.072	88.51
770.25	89.17
770.429	89.71
770.607	89.13
770.786	88.99
770.964	87.52
771.143	87.58
771.321	84.97
771.5	90.68
771.678	90.7
771.857	90.41
772.035	90.6
772.213	90.57
772.392	86.5
772.57	86.8
772.748	88.7
772.927	87.64
773.105	87.99
773.283	88.21
773.461	87.45
773.64	88.79
773.818	89.72
773.996	91.25
774.174	89.74
774.352	89.82
774.531	85.99
774.709	84.39
774.887	84.47
775.065	84.82
775.243	86.6
775.421	86.71
775.599	88.13
775.777	86.85
775.955	86.37
776.133	84.71
776.311	87.26
776.489	88.13
776.667	87.45
776.844	89.52
777.022	88.88
777.2	89.07
777.378	88
777.556	89.01
777.734	88.64
777.911	89.37
778.089	88.75
778.267	91.13
778.445	89.38
778.622	87.49
778.8	87.46
778.978	85.86
779.155	80.99
779.333	80.23
779.511	79.28
779.688	79.29
779.866	77.89
780.043	81.6
780.221	82.82
780.398	87.67
780.576	84.49
780.753	85.75
780.931	86.43
781.108	85.8
781.286	85.2
781.463	89
781.64	91.31
781.818	89
781.995	88.5
782.172	82.13
782.35	82.47
782.527	78.91
782.704	80.07
782.882	81.12
783.059	83.56
783.236	79.44
783.413	86.33
783.59	84.08
783.768	82.19
783.945	85.88
784.122	91.03
784.299	87.27
784.476	89.82
784.653	91.38
784.83	89.55
785.007	86.13
785.184	83.57
785.361	83.28
785.538	84.84
785.715	82.83
785.892	84.82
786.069	87.33
786.246	88.14
786.423	89.93
786.6	93.93
786.776	89.65
786.953	89.78
787.13	88.34
787.307	88.24
787.484	88.04
787.66	91.98
787.837	89.93
788.014	91.69
788.191	92.46
788.367	89.69
788.544	91.95
788.721	92.2
788.897	88.65
789.074	85.51
789.25	86.44
789.427	82.86
789.603	86.88
789.78	89.8
789.956	93.04
790.133	93.9
790.309	94.24
790.486	85.97
790.662	85.47
790.839	84.98
791.015	85.07
791.192	83.66
791.368	89.88
791.544	88.79
791.721	86
791.897	86.1
792.073	85.36
792.249	83.67
792.426	84.2
792.602	86.35
792.778	86.39
792.954	87.46
793.13	86.89
793.307	89.32
793.483	83.52
793.659	78.94
793.835	80.32
794.011	81.69
794.187	76.93
794.363	86.02
794.539	87.41
794.715	82.75
794.891	81.33
795.067	80.3
795.243	74.98
795.419	77.2
795.595	80
795.771	75.43
795.947	78.86
796.122	79.11
796.298	79.64
796.474	81.49
796.65	91.86
796.826	87.54
797.001	93.16
797.177	92.82
797.353	93.23
797.529	88.31
797.704	95
797.88	86.84
798.056	83.23
798.231	81.47
798.407	82.13
798.582	78.27
798.758	82.24
798.934	84.95
799.109	86.55
799.285	86.94
799.46	90.19
799.636	89.46
799.811	89.45
799.986	90.21
800.162	88.49
800.337	86.13
800.513	78.83
800.688	78.31
800.863	74.52
801.039	75.11
801.214	67.26
801.389	70.78
801.565	73.36
801.74	77.97
801.915	73.26
802.09	77
802.265	81.47
802.441	83.92
802.616	81.94
802.791	94.98
802.966	97.6
803.141	90.97
803.316	87.03
803.491	78.82
803.666	79.55
803.841	86.45
804.016	93.62
804.191	97.48
804.366	110.54
804.541	104.86
804.716	97.1
804.891	92.43
805.066	88.9
805.241	88.58
805.416	87.6
805.591	91.67
805.765	89.49
805.94	85.98
806.115	76.92
806.29	78.86
806.464	82.26
806.639	89.58
806.814	87.45
806.989	93.67
807.163	95.45
807.338	98.83
807.512	94.53
807.687	89.09
807.862	87.82
808.036	82.57
808.211	74.94
808.385	81.4
808.56	90.15
808.734	86.36
808.909	92.46
809.083	92.35
809.258	84.7
809.432	81.72
809.606	83.2
809.781	78.18
809.955	80.65
810.13	80.37
810.304	82.27
810.478	81.31
810.652	82.93
810.827	76.12
811.001	79.32
811.175	81.7
811.349	87.89
811.524	90.6
811.698	105.42
811.872	95.93
812.046	100.09
812.22	99.7
812.394	88.36
812.568	86.52
812.742	99.83
812.916	86.38
813.09	95.82
813.264	109.89
813.438	102.49
813.612	99.26
813.786	114.97
813.96	96.54
814.134	93.13
814.308	90.22
814.482	80.79
814.656	87.02
814.83	87.87
815.003	91.4
815.177	93.94
815.351	87.87
815.525	78.9
815.698	79.21
815.872	68.14
816.046	68.02
816.219	66.08
816.393	68.67
816.567	70.51
816.74	85.2
816.914	87.33
817.088	108.99
817.261	121.23
817.435	115.18
817.608	102.06
817.782	111.23
817.955	107.15
818.129	108.14
818.302	93.55
818.475	100.82
818.649	90.8
818.822	93.73
818.996	73.54
819.169	80.27
819.342	76.53
819.516	84.48
819.689	82.29
819.862	98.85
820.035	98.04
820.209	89.07
820.382	87.27
820.555	88.57
820.728	91.95
820.901	91.62
821.075	111.29
821.248	117.64
821.421	98.87
821.594	86.35
821.767	88.88
821.94	73.87
822.113	61.05
822.286	67.32
822.459	67.13
822.632	69.81
822.805	92.32
822.978	103.45
823.151	101.75
823.324	119.92
823.496	101.17
823.669	75.41
823.842	86.3
824.015	84.04
824.188	74.16
824.361	69.5
824.533	75
824.706	40.98
824.879	54.96
825.051	57.2
825.224	69.43
825.397	71.06
825.569	77.33
825.742	73.58
825.915	57
826.087	49.96
826.26	55.91
826.432	51.16
826.605	43.14
826.777	56.44
826.95	67.89
827.122	56.73
827.295	66.62
827.467	84.34
827.64	69.93
827.812	55.21
827.984	65.57
828.157	71.28
828.329	67.44
828.501	83.57
828.674	102.57
828.846	92.39
829.018	98.95
829.19	97.79
829.363	83.02
829.535	90.95
829.707	92.89
829.879	85.31
830.051	69.3
830.223	78.85
830.395	70.02
830.568	66.37
830.74	70.71
830.912	80.93
831.084	79.93
831.256	80.02
831.428	78.21
831.6	84.83
831.772	76.84
831.943	59.11
832.115	52.53
832.287	69.26
832.459	72.88
832.631	87.31
832.803	107.46
832.975	119.37
833.146	122.73
833.318	78.27
833.49	80.88
833.662	81.72
833.833	91.29
834.005	72.35
834.177	99.63
834.348	100.76
834.52	99.97
834.692	104.41
834.863	108.49
835.035	103.5
835.206	92.2
835.378	92.42
835.549	69.95
835.721	87.84
835.892	88.99
836.064	86.17
836.235	106.3
836.407	151.85
836.578	130.19
836.749	140.71
836.921	142.86
837.092	124
837.264	83.23
837.435	88.46
837.606	79.99
837.777	51.94
837.949	82.47
838.12	53.12
838.291	52.68
838.462	56.14
838.633	59.72
838.805	67.77
838.976	99.37
839.147	96.22
839.318	125.36
839.489	121.18
839.66	114.72
839.831	115.12
840.002	120.52
840.173	46.06
840.344	40.45
840.515	23.73
840.686	25.22
840.857	45.85
841.028	74.51
841.199	79.32
841.369	84.29
841.54	75.64
841.711	102.42
841.882	99.96
842.053	124.03
842.223	128.05
842.394	107.72
842.565	87.78
842.736	80.31
842.906	57.69
843.077	53.42
843.248	52.93
843.418	57.93
843.589	65.48
843.759	90.21
843.93	119.2
844.101	374.94
844.271	165.29
844.442	128.08
844.612	142.13
844.783	161.49
844.953	123.62
845.123	121.69
845.294	107.35
845.464	92.06
845.635	92.9
845.805	127.57
845.975	125.76
846.146	196
846.316	352.77
846.486	131.3
846.656	105.4
846.827	103.48
846.997	55.17
847.167	53.18
847.337	44.61
847.507	35
847.677	4.32
847.848	26.72
848.018	39.94
848.188	62.97
848.358	69.95
848.528	150.18
848.698	105.07
848.868	123.93
849.038	101.6
849.208	120.05
849.378	81.28
849.548	104.13
849.718	295.78
849.887	-374.09
850.057	2609.68
850.227	260.52
850.397	109.4
850.567	43.82
850.737	12.49
850.906	29.01
851.076	48.07
851.246	34.18
851.415	16.44
851.585	53.34
851.755	67.26
851.924	76.21
852.094	99.14
852.264	84.79
852.433	69.65
852.603	81.73
852.772	43.22
852.942	40.19
853.111	31.93
853.281	77.61
853.45	54.97
853.62	101.83
853.789	80.44
853.959	168.74
854.128	-90.97
854.297	-90.05
854.467	8.12
854.636	169.7
854.805	157.48
854.975	41.95
855.144	41.16
855.313	53.26
855.482	74.7
855.652	51.09
855.821	77.72
855.99	93.06
856.159	97.9
856.328	37.78
856.497	71.87
856.667	119.52
856.836	132.21
857.005	136.86
857.174	131.86
857.343	124.45
857.512	87.7
857.681	75.28
857.85	92.43
858.019	111.5
858.188	89.56
858.356	68.05
858.525	67.45
858.694	45.02
858.863	15.39
859.032	-11.97
859.201	20.89
859.369	31.2
859.538	35.35
859.707	47
859.876	65.52
860.044	57.63
860.213	68.22
860.382	69.08
860.55	52.63
860.719	67.83
860.888	88.86
861.056	111.95
861.225	127.98
861.393	153.75
861.562	144.93
861.73	101.07
861.899	82.24
862.067	-7.39
862.236	21.31
862.404	-17.54
862.572	-22.01
862.741	-352.19
862.909	-1.5
863.078	37.64
863.246	59.46
863.414	85.12
863.582	67.98
863.751	92.21
863.919	99.87
864.087	144.1
864.255	111.81
864.424	112.13
864.592	36.38
864.76	42.97
864.928	50.25
865.096	49.15
865.264	58.44
865.432	90.33
865.6	104.42
865.768	32.04
865.936	-2.76
866.104	-184.89
866.272	29.77
866.44	3.76
866.608	11.01
866.776	57.92
866.944	65.7
867.112	31.63
867.28	30.61
867.448	25.96
867.615	30.03
867.783	67.33
867.951	44.89
868.119	57.28
868.286	101.68
868.454	79.59
868.622	11.87
868.789	175.81
868.957	-425.79
869.125	-458.72
869.292	639.34
869.46	-509.69
869.627	654.29
869.795	45
869.963	14.25
870.13	11.22
870.298	1.95
870.465	15.73
870.632	18.19
870.8	-19.55
870.967	28.55
871.135	7.59
871.302	40.06
871.469	93.25
871.637	84.36
871.804	24.91
871.971	46.87
872.139	72.68
872.306	48.39
872.473	496.98
872.64	98.64
872.807	60.57
872.975	30.15
873.142	42.76
873.309	38.01
873.476	65.8
873.643	75.69
873.81	76.5
873.977	81.06
874.144	65.24
874.311	46.01
874.478	6.56
874.645	-79.88
874.812	-94.31
874.979	84.24
875.146	55.68
875.313	61.68
875.48	-174.35
875.647	429.31
875.813	446.84
875.98	-27.9
876.147	41.13
876.314	62.22
876.481	9.29
876.647	6.43
876.814	26.34
876.981	64.58
877.147	11.7
877.314	58.05
877.481	147.82
877.647	201.82
877.814	278.47
877.98	105.78
878.147	-193.09
878.314	-146.4
878.48	628.74
878.647	126.69
878.813	771.94
878.979	76.8
879.146	38.05
879.312	14.3
879.479	49.38
879.645	62.33
879.811	39.99
879.978	65.73
880.144	175.43
880.31	326.28
880.477	-116.11
880.643	-755.14
880.809	-1709.76
880.975	-142.21
881.142	-168.89
881.308	61.12
881.474	29.36
881.64	105.12
881.806	108.37
881.972	124.48
882.138	70.39
882.304	58.79
882.47	30.7
882.636	37.12
882.802	32.86
882.968	31.5
883.134	40.89
883.3	53.01
883.466	66.49
883.632	101.51
883.798	135.71
883.964	149.75
884.129	129.33
884.295	136.9
884.461	-271.43
884.627	319.33
884.793	90.1
884.958	113.08
885.124	565.35
885.29	-12.34
885.455	-26.93
885.621	23.04
885.787	14.78
885.952	19.82
886.118	92.07
886.283	125.55
886.449	187.81
886.614	138.05
886.78	91.65
886.945	75.73
887.111	64.49
887.276	94.09
887.442	141.74
887.607	132.71
887.773	177.97
887.938	50.7
888.103	-5.83
888.269	-312.53
888.434	8511.76
888.599	119.88
888.764	1542.72
888.93	108.7
889.095	90.68
889.26	165.42
889.425	119.83
889.59	101.57
889.756	135.94
889.921	119.83
890.086	24.69
890.251	31.37
890.416	19.84
890.581	4.45
890.746	70.32
890.911	97.57
891.076	244.98
891.241	161.15
891.406	24414.29
891.571	340.6
891.736	-121.32
891.901	-12.16
892.065	-5.31
892.23	93.51
892.395	103.21
892.56	1486.58
892.725	-179.16
892.889	-315.95
893.054	209.93
893.219	262.59
893.384	261.22
893.548	324.09
893.713	212.4
893.878	145.03
