Data from Ofav_SP_Phys_2JQ31_Reflection_1.txt Node
Date: Thu Aug 05 17:46:12 EDT 2021
User: Adam
Spectrometer: FLMT01687
Trigger mode: 0
Integration Time (sec): 8.000000E-1
Scans to average: 2
Electric dark correction enabled: true
Nonlinearity correction enabled: false
Boxcar width: 2
XAxis mode: Wavelengths
Number of Pixels in Spectrum: 3648
>>>>>Begin Spectral Data<<<<<
179.494	424.46
179.716	475.44
179.937	444.79
180.158	576.55
180.38	1468.88
180.601	-798.24
180.823	-362.86
181.044	-10.61
181.265	79.06
181.486	173.24
181.708	-1007.38
181.929	-324.95
182.15	-803.67
182.372	-8.59
182.593	65.7
182.814	131.09
183.035	92.89
183.257	695.73
183.478	-353.56
183.699	473.86
183.92	163.02
184.141	-817.49
184.363	1296.76
184.584	-117.36
184.805	8.11
185.026	17.59
185.247	37.09
185.468	67.38
185.689	70.41
185.91	70.13
186.132	50.15
186.353	66.37
186.574	24.77
186.795	31.55
187.016	21.32
187.237	41.63
187.458	-61.81
187.679	43.5
187.9	9.06
188.121	-17.83
188.342	34.92
188.563	61.02
188.784	42.42
189.005	41.89
189.226	85.53
189.447	60.06
189.667	42.84
189.888	123.28
190.109	113.35
190.33	66.97
190.551	54.59
190.772	69.17
190.993	43.69
191.214	51.2
191.434	52.61
191.655	48.08
191.876	51.57
192.097	50.47
192.318	45.69
192.538	65.65
192.759	105.85
192.98	44.47
193.201	26.19
193.421	-55.82
193.642	-17.49
193.863	-20.18
194.083	27
194.304	36.12
194.525	51.51
194.745	44.46
194.966	29.46
195.187	19.57
195.407	-8.86
195.628	-34.53
195.848	-16.94
196.069	-19.68
196.29	-23.48
196.51	17.69
196.731	32.11
196.951	42.82
197.172	64.6
197.392	65.88
197.613	43.35
197.833	78.83
198.054	46.78
198.274	25.3
198.495	20.87
198.715	62.27
198.936	-8.15
199.156	42.5
199.377	63.19
199.597	70.47
199.817	59.63
200.038	54.69
200.258	60.62
200.479	68.15
200.699	56.41
200.919	23.19
201.14	-4.03
201.36	-34.58
201.58	-30.43
201.801	-86.9
202.021	-7.02
202.241	62.85
202.461	56.47
202.682	2.15
202.902	-5.51
203.122	-56.95
203.342	20.89
203.563	11.52
203.783	74.64
204.003	52.48
204.223	41.41
204.443	19.99
204.663	1.46
204.884	0.47
205.104	-1.68
205.324	4.53
205.544	0.24
205.764	9.39
205.984	-14.54
206.204	-31.73
206.424	-32.49
206.644	-6.99
206.864	-22.58
207.084	-28.74
207.304	25.64
207.525	15.65
207.745	21.83
207.964	51.1
208.184	63.38
208.404	0.03
208.624	-7.76
208.844	-49.31
209.064	-44.24
209.284	-24.11
209.504	-21.12
209.724	1.9
209.944	2.85
210.164	-2.41
210.384	31.2
210.604	36.19
210.823	51.83
211.043	49.76
211.263	50.34
211.483	24.36
211.703	18.49
211.922	-7.73
212.142	1.71
212.362	-12.03
212.582	-2.54
212.801	13.99
213.021	45.34
213.241	38.56
213.461	50.25
213.68	57.19
213.9	59.71
214.12	26.69
214.339	57.74
214.559	53.92
214.779	38.82
214.998	73.62
215.218	66.41
215.438	80.69
215.657	131.79
215.877	152.38
216.096	74.25
216.316	129.58
216.535	22.53
216.755	-101.6
216.974	-334.55
217.194	-29.61
217.413	-21.71
217.633	9.91
217.852	25.26
218.072	15.55
218.291	8.74
218.511	14.25
218.73	5.79
218.95	28.02
219.169	25.61
219.389	42.64
219.608	74.54
219.827	46.65
220.047	32.71
220.266	44.91
220.485	31.68
220.705	27.35
220.924	9.68
221.143	3.94
221.363	10.23
221.582	-12.58
221.801	-42.96
222.021	35.9
222.24	51.96
222.459	53.98
222.678	49.93
222.897	37.74
223.117	41.13
223.336	16.6
223.555	-1.76
223.774	-32.54
223.993	-39.49
224.213	-28.46
224.432	-33.47
224.651	-7.53
224.87	15.51
225.089	28.44
225.308	-20.99
225.527	-10.39
225.746	-21.43
225.965	-57.92
226.184	-28.3
226.404	-0.8
226.623	-9.69
226.842	1.32
227.061	23.72
227.28	11.56
227.499	33.39
227.718	14.69
227.936	25.04
228.155	14.45
228.374	31.58
228.593	7.53
228.812	28.94
229.031	19.92
229.25	29.42
229.469	27.1
229.688	30.89
229.907	16.92
230.125	-6.35
230.344	-7.36
230.563	-26.11
230.782	-47.61
231.001	5.81
231.22	79.64
231.438	94.12
231.657	90.77
231.876	80.01
232.095	64.82
232.313	54.5
232.532	33.47
232.751	33.22
232.969	41.42
233.188	34.11
233.407	-4.15
233.625	33.46
233.844	22.02
234.063	28.59
234.281	25.69
234.5	57.41
234.719	10.57
234.937	-12.72
235.156	-28
235.374	-24.94
235.593	-37.26
235.811	-20.72
236.03	16.88
236.249	14.13
236.467	19.34
236.686	11.56
236.904	9.47
237.123	-37.25
237.341	15.32
237.559	-2.9
237.778	10.53
237.996	24.68
238.215	38.08
238.433	30.16
238.652	39.28
238.87	23.45
239.088	0.21
239.307	6.66
239.525	-5.03
239.743	-11.55
239.962	14.14
240.18	39.87
240.398	10.56
240.617	2.74
240.835	30.37
241.053	11.84
241.271	-16.57
241.49	15.53
241.708	-3.69
241.926	-3.24
242.144	-25.66
242.363	37.27
242.581	15.13
242.799	-21.79
243.017	-62.46
243.235	-113.8
243.453	-78.54
243.672	-115.56
243.89	-82.53
244.108	-41.97
244.326	-16.36
244.544	-36.08
244.762	-32.37
244.98	0.71
245.198	-19.82
245.416	22.04
245.634	26.14
245.852	54.17
246.07	52.14
246.288	39.38
246.506	10.47
246.724	13.08
246.942	14.69
247.16	30.82
247.378	28.05
247.596	24.81
247.814	44.19
248.032	8.89
248.25	-35.44
248.468	-26.29
248.685	-9.1
248.903	-1.24
249.121	3.92
249.339	2.85
249.557	7.15
249.775	2.45
249.992	-34.95
250.21	-19.88
250.428	-24.57
250.646	-27.32
250.863	-33.07
251.081	-13.97
251.299	1.73
251.517	50.85
251.734	67.62
251.952	34.29
252.17	20.71
252.387	3.8
252.605	-30.33
252.823	-28.19
253.04	-9.17
253.258	14.68
253.475	38.19
253.693	57.63
253.911	77
254.128	78.44
254.346	66.99
254.563	61.5
254.781	57.84
254.998	28.88
255.216	0.95
255.433	-23.7
255.651	-74.69
255.868	-63.55
256.086	-19.77
256.303	-3.04
256.521	13.71
256.738	-24.15
256.956	-50.5
257.173	20.05
257.39	58.25
257.608	20.37
257.825	17.28
258.043	12.88
258.26	-14.48
258.477	-16.1
258.695	15.73
258.912	25.24
259.129	27.91
259.346	33.48
259.564	20.95
259.781	19.69
259.998	14.72
260.216	24.12
260.433	22.85
260.65	6.33
260.867	-64.92
261.084	-16.94
261.302	-2.67
261.519	3.92
261.736	46.45
261.953	56.12
262.17	50.05
262.387	94.67
262.604	103.21
262.822	118.22
263.039	110.38
263.256	115.83
263.473	36.22
263.69	37.6
263.907	16.27
264.124	23.39
264.341	-1.32
264.558	9.02
264.775	1.75
264.992	25.04
265.209	30.79
265.426	41.24
265.643	23.65
265.86	11.87
266.077	2.54
266.294	-9.89
266.51	5.59
266.727	33.46
266.944	68.16
267.161	61.82
267.378	37.83
267.595	28.22
267.812	15.95
268.028	-12.42
268.245	15.08
268.462	17.15
268.679	-12.03
268.896	-1.95
269.112	7.89
269.329	4.83
269.546	35.02
269.763	52.36
269.979	61.94
270.196	80.43
270.413	51.08
270.629	38.85
270.846	13
271.063	10.21
271.279	-52.28
271.496	-124.31
271.712	-131.2
271.929	-71.95
272.146	-49.85
272.362	-77.68
272.579	-20.83
272.795	10.42
273.012	30.18
273.228	-6.93
273.445	22.09
273.661	33.62
273.878	9.66
274.094	-17.85
274.311	12.67
274.527	7.98
274.744	-18.24
274.96	0.29
275.177	3.5
275.393	-12.29
275.609	0.91
275.826	3.68
276.042	-3.97
276.259	24.26
276.475	37.43
276.691	22.83
276.908	39.55
277.124	51.83
277.34	34.69
277.557	0.42
277.773	-20.71
277.989	-47.78
278.205	-74.81
278.422	-72.89
278.638	-3.6
278.854	23.9
279.07	31.18
279.286	31.56
279.503	38.68
279.719	40.67
279.935	88.89
280.151	74.21
280.367	51.11
280.583	50.76
280.799	47.51
281.016	18.67
281.232	-0.91
281.448	-17.36
281.664	-38.21
281.88	-61.4
282.096	-36.56
282.312	6.63
282.528	29.72
282.744	68.6
282.96	53.28
283.176	58.22
283.392	50.94
283.608	46.76
283.824	37.33
284.04	56.64
284.256	54.14
284.471	40.75
284.687	47.86
284.903	31.96
285.119	30.89
285.335	20.25
285.551	10.62
285.767	-6.75
285.982	-22.34
286.198	-121.14
286.414	-111.39
286.63	-57.33
286.846	-40.6
287.061	-18.04
287.277	30.92
287.493	61.33
287.709	41.89
287.924	66.33
288.14	71.11
288.356	52.57
288.571	57.47
288.787	56.12
289.003	46.02
289.218	22.92
289.434	22.2
289.65	1.69
289.865	31.66
290.081	4.1
290.296	14.55
290.512	6.74
290.727	22.4
290.943	10.25
291.159	33.32
291.374	38.5
291.59	45.33
291.805	28.51
292.021	57.05
292.236	51.19
292.451	16.8
292.667	-8.48
292.882	-3.92
293.098	-34.18
293.313	-26.13
293.529	-4.46
293.744	14.18
293.959	21.3
294.175	59.18
294.39	42.91
294.605	24.22
294.821	16.83
295.036	7.22
295.251	12.43
295.467	28.4
295.682	29.48
295.897	35.35
296.112	42.26
296.328	28.72
296.543	19.78
296.758	14.99
296.973	13.91
297.188	27.51
297.404	18.99
297.619	13.29
297.834	15.93
298.049	-17.95
298.264	-33.8
298.479	-43.51
298.694	-0.66
298.909	18.69
299.125	36.42
299.34	40.95
299.555	48.28
299.77	31.82
299.985	50.41
300.2	51.34
300.415	24.78
300.63	10.25
300.845	0.45
301.06	-20.14
301.275	-13.43
301.49	9.53
301.704	8.61
301.919	46.11
302.134	44.2
302.349	52.33
302.564	39.24
302.779	46.4
302.994	33.18
303.209	30.41
303.423	11.67
303.638	18.52
303.853	10.24
304.068	5.68
304.283	3.86
304.497	8.99
304.712	-16.97
304.927	-16.85
305.142	-15.06
305.356	6.45
305.571	17.59
305.786	40.3
306	47.46
306.215	59.46
306.43	58.46
306.644	55.78
306.859	45.74
307.074	46.85
307.288	52.14
307.503	54.13
307.717	28.02
307.932	14.04
308.147	11.19
308.361	2.79
308.576	-19.96
308.79	-3.23
309.005	18.59
309.219	-10.45
309.434	-50.64
309.648	-67.92
309.863	-74.9
310.077	-140.49
310.292	-74.21
310.506	-37.97
310.72	-6.99
310.935	8.22
311.149	36.83
311.364	31.1
311.578	48.89
311.792	61.71
312.007	50.29
312.221	39.73
312.435	63.49
312.649	56.79
312.864	21.72
313.078	34.82
313.292	48.5
313.507	28.64
313.721	32.82
313.935	39.09
314.149	47.92
314.363	23.9
314.578	29.26
314.792	25.72
315.006	33.14
315.22	8.7
315.434	-0.51
315.648	-51.67
315.862	-122.74
316.077	-85.4
316.291	-74.99
316.505	-16.45
316.719	6.55
316.933	26.52
317.147	14.23
317.361	7.54
317.575	-8.87
317.789	-2.64
318.003	-1.96
318.217	31.02
318.431	45.84
318.645	45.47
318.859	26.18
319.073	13.03
319.287	-4.08
319.5	14.29
319.714	34.88
319.928	62
320.142	62.89
320.356	49.24
320.57	38.6
320.784	30.06
320.997	10.97
321.211	31.51
321.425	27.56
321.639	2.04
321.853	11.06
322.066	-17.04
322.28	-36.34
322.494	-31.66
322.707	-9.96
322.921	-2.46
323.135	23.13
323.349	26.38
323.562	27.47
323.776	21.92
323.989	-3.83
324.203	-5.41
324.417	7.41
324.63	5.9
324.844	-9.24
325.057	-11.51
325.271	-28.22
325.485	-11.82
325.698	-18.11
325.912	-4.89
326.125	8.65
326.339	30.82
326.552	5.7
326.766	22.95
326.979	39.12
327.193	50.15
327.406	25.91
327.619	46.93
327.833	10.82
328.046	30.13
328.26	23.13
328.473	18.87
328.686	13.13
328.9	39.86
329.113	27.63
329.326	13.37
329.54	28.92
329.753	41.86
329.966	44.53
330.179	42.73
330.393	71.74
330.606	73.74
330.819	56.44
331.032	69.51
331.246	86.23
331.459	52.1
331.672	77.2
331.885	70.38
332.098	66.02
332.311	48.46
332.525	41.17
332.738	29.55
332.951	29.98
333.164	31.23
333.377	28.25
333.59	22.73
333.803	-2.99
334.016	-2.18
334.229	-15.72
334.442	-11.26
334.655	20.37
334.868	33.38
335.081	19.63
335.294	27.86
335.507	34.91
335.72	36.44
335.933	28.25
336.146	39.13
336.359	37.15
336.572	33.26
336.785	18.84
336.997	27.38
337.21	52.35
337.423	71.67
337.636	76.13
337.849	75.92
338.062	55.98
338.274	-5.38
338.487	-8.48
338.7	-18.09
338.913	-17.55
339.125	3.65
339.338	30.04
339.551	7.09
339.763	30.2
339.976	28.82
340.189	28.61
340.402	4.59
340.614	18.22
340.827	25.34
341.039	19.7
341.252	24.57
341.465	38.16
341.677	33.48
341.89	15.32
342.102	20.36
342.315	-8.76
342.527	10.45
342.74	17.58
342.952	5.72
343.165	12.1
343.377	38.67
343.59	-7.97
343.802	1.19
344.015	4.3
344.227	-0.46
344.44	13.17
344.652	31.13
344.864	39.14
345.077	49.78
345.289	47.89
345.502	22.03
345.714	7.15
345.926	10.2
346.139	6.15
346.351	5.14
346.563	14.67
346.775	19.58
346.988	-14.87
347.2	10.22
347.412	55.24
347.624	52.04
347.837	43.04
348.049	48.66
348.261	25.24
348.473	16.3
348.685	33.07
348.897	63.32
349.11	58.67
349.322	54.92
349.534	73.82
349.746	54.23
349.958	26.58
350.17	41.14
350.382	41.05
350.594	14.86
350.806	-3.4
351.018	8.72
351.23	3.21
351.442	1.23
351.654	9.4
351.866	10.55
352.078	-6.29
352.29	-11.29
352.502	5.57
352.714	-12.09
352.926	16.04
353.138	32.33
353.35	35
353.561	22.09
353.773	25.59
353.985	6.8
354.197	8.3
354.409	-5.65
354.621	2.47
354.832	31.33
355.044	45.53
355.256	57.61
355.468	79.76
355.679	69.71
355.891	57.03
356.103	38.08
356.314	23.51
356.526	0.85
356.738	-5.72
356.949	-27.72
357.161	19.02
357.373	4.35
357.584	18.51
357.796	15.98
358.008	20.63
358.219	-28.54
358.431	27.85
358.642	25.3
358.854	36.19
359.065	50.29
359.277	56.59
359.488	29.19
359.7	37.68
359.911	25.36
360.123	13.7
360.334	20.35
360.546	27.21
360.757	17.96
360.969	28.64
361.18	38.32
361.391	32.52
361.603	44.21
361.814	50.06
362.025	58.33
362.237	44.19
362.448	40.11
362.659	26.42
362.871	14.07
363.082	-0.14
363.293	-5.34
363.504	6.69
363.716	27.83
363.927	47.89
364.138	34.86
364.349	26.4
364.56	7.57
364.772	-6.62
364.983	-38.63
365.194	3.95
365.405	14.55
365.616	27.92
365.827	35.99
366.038	33.75
366.25	33.67
366.461	27.7
366.672	26.25
366.883	23.28
367.094	28.62
367.305	27.01
367.516	26.97
367.727	29.74
367.938	30.77
368.149	17.5
368.36	15.38
368.571	10.59
368.781	-9.56
368.992	-15.68
369.203	8.52
369.414	-1.69
369.625	-1.96
369.836	-14.26
370.047	-13.89
370.258	-17.25
370.468	-13.56
370.679	-0.62
370.89	9.74
371.101	20.95
371.312	24.71
371.522	21.03
371.733	17.33
371.944	26.83
372.155	14.64
372.365	6.76
372.576	20.02
372.787	4.79
372.997	-0.5
373.208	4.79
373.419	10.3
373.629	-4.1
373.84	15.58
374.05	20.29
374.261	24.99
374.472	23.65
374.682	16.33
374.893	34.48
375.103	18.03
375.314	13.68
375.524	12.52
375.735	11.37
375.945	3.31
376.156	13
376.366	14.4
376.577	14.74
376.787	25.42
376.997	19.58
377.208	34.51
377.418	27.79
377.629	32.1
377.839	45.72
378.049	51.52
378.26	18.86
378.47	40.24
378.68	49.78
378.89	26.2
379.101	28.78
379.311	53.1
379.521	39.36
379.732	35.7
379.942	35.3
380.152	34.58
380.362	34.64
380.572	39.89
380.783	26.61
380.993	18.78
381.203	5.74
381.413	11.8
381.623	15.49
381.833	20
382.043	34.78
382.253	39.32
382.463	35.95
382.674	29.24
382.884	30.48
383.094	21.47
383.304	13.97
383.514	13.44
383.724	8.97
383.934	6.7
384.144	7.3
384.353	12.59
384.563	15.31
384.773	19.78
384.983	12.77
385.193	17.09
385.403	18.45
385.613	16.08
385.823	15.94
386.033	22.64
386.242	17.65
386.452	15.47
386.662	18.49
386.872	14.33
387.082	13.14
387.291	6.06
387.501	8.18
387.711	7.42
387.921	9.97
388.13	9.67
388.34	15.68
388.55	12.71
388.759	4.54
388.969	1.54
389.179	1.72
389.388	2.13
389.598	4.03
389.807	11.63
390.017	14.45
390.227	13.14
390.436	11.37
390.646	8.13
390.855	5.57
391.065	5.22
391.274	7.88
391.484	10.32
391.693	10.63
391.903	10.75
392.112	10.65
392.322	7.43
392.531	7.38
392.74	8.94
392.95	7.19
393.159	7.45
393.369	9.44
393.578	10.07
393.787	10.79
393.997	11.93
394.206	10.86
394.415	11.31
394.625	10.12
394.834	10.05
395.043	9.65
395.252	9.94
395.462	10.48
395.671	10.63
395.88	10.55
396.089	11.48
396.298	11.95
396.508	11.28
396.717	10.91
396.926	10.76
397.135	9.52
397.344	8.96
397.553	9.29
397.762	9.43
397.971	9.31
398.181	9.65
398.39	9.91
398.599	9.29
398.808	9.43
399.017	8.64
399.226	8.68
399.435	8.78
399.644	9.29
399.853	9.12
400.062	9.88
400.27	9.75
400.479	9.32
400.688	9.09
400.897	9.53
401.106	9.38
401.315	9.01
401.524	9.05
401.733	8.82
401.941	8.34
402.15	8.22
402.359	8.52
402.568	8.76
402.777	8.93
402.985	9.05
403.194	9.11
403.403	9.19
403.612	9.04
403.82	8.78
404.029	8.69
404.238	8.94
404.446	8.83
404.655	8.98
404.864	9.15
405.072	9.06
405.281	8.55
405.489	8.61
405.698	8.66
405.906	8.64
406.115	8.5
406.324	8.85
406.532	8.77
406.741	8.62
406.949	8.58
407.158	8.83
407.366	8.78
407.574	8.82
407.783	8.74
407.991	8.74
408.2	8.47
408.408	8.25
408.617	8.2
408.825	8.2
409.033	8.13
409.242	8.31
409.45	8.21
409.658	8.17
409.867	8.22
410.075	8.34
410.283	8.29
410.491	8.49
410.7	8.54
410.908	8.48
411.116	8.42
411.324	8.42
411.533	8.3
411.741	8.19
411.949	8.29
412.157	8.13
412.365	8.34
412.573	8.34
412.781	8.46
412.99	8.27
413.198	8.46
413.406	8.31
413.614	8.4
413.822	8.37
414.03	8.63
414.238	8.57
414.446	8.52
414.654	8.62
414.862	8.55
415.07	8.34
415.278	8.36
415.486	8.28
415.694	8.29
415.902	8.17
416.109	7.98
416.317	7.93
416.525	7.89
416.733	7.63
416.941	7.79
417.149	7.97
417.357	7.97
417.564	7.93
417.772	7.96
417.98	7.88
418.188	7.87
418.395	7.76
418.603	7.94
418.811	7.9
419.019	8.05
419.226	8.11
419.434	8.25
419.642	7.98
419.849	8.03
420.057	7.77
420.265	7.62
420.472	7.29
420.68	7.45
420.887	7.45
421.095	7.61
421.302	7.29
421.51	7.57
421.717	7.5
421.925	7.44
422.132	7.64
422.34	8.03
422.547	8.01
422.755	7.92
422.962	8.08
423.17	7.92
423.377	7.88
423.585	7.75
423.792	7.68
423.999	7.64
424.207	7.46
424.414	7.3
424.621	7.42
424.829	7.54
425.036	7.55
425.243	7.6
425.451	7.83
425.658	7.78
425.865	7.71
426.072	7.48
426.28	7.35
426.487	7.21
426.694	7.09
426.901	7.21
427.108	7.36
427.315	7.55
427.523	7.63
427.73	7.65
427.937	7.69
428.144	7.69
428.351	7.67
428.558	7.69
428.765	7.58
428.972	7.53
429.179	7.39
429.386	7.4
429.593	7.5
429.8	7.63
430.007	7.53
430.214	7.76
430.421	7.76
430.628	7.68
430.835	7.86
431.042	7.98
431.249	7.82
431.456	7.71
431.662	7.86
431.869	7.85
432.076	7.77
432.283	7.9
432.49	7.93
432.697	7.88
432.903	7.59
433.11	7.6
433.317	7.35
433.524	7.54
433.73	7.51
433.937	7.62
434.144	7.85
434.35	7.96
434.557	7.79
434.764	7.6
434.97	7.61
435.177	7.47
435.384	7.35
435.59	7.39
435.797	7.56
436.003	7.71
436.21	7.43
436.416	7.63
436.623	7.62
436.829	7.58
437.036	7.37
437.242	7.55
437.449	7.66
437.655	7.81
437.862	7.91
438.068	8.07
438.275	8.26
438.481	8.18
438.687	7.96
438.894	8.05
439.1	7.97
439.307	7.83
439.513	7.78
439.719	7.95
439.926	7.95
440.132	8.11
440.338	8.17
440.544	8.15
440.751	8.16
440.957	8.04
441.163	8.01
441.369	8.04
441.575	8.03
441.782	8.16
441.988	8.15
442.194	8.03
442.4	8.07
442.606	8.1
442.812	7.84
443.018	7.79
443.224	7.77
443.431	7.76
443.637	7.81
443.843	7.85
444.049	7.88
444.255	7.94
444.461	7.84
444.667	7.82
444.873	7.76
445.079	7.65
445.284	7.77
445.49	7.83
445.696	7.88
445.902	7.94
446.108	8.07
446.314	7.95
446.52	7.94
446.726	8.02
446.931	8.05
447.137	7.99
447.343	8.13
447.549	8.19
447.755	8.15
447.96	8.11
448.166	8.24
448.372	8.18
448.578	8.12
448.783	8.22
448.989	8.17
449.195	8.09
449.4	8.13
449.606	8.22
449.812	8.1
450.017	8.36
450.223	8.37
450.428	8.4
450.634	8.4
450.84	8.45
451.045	8.28
451.251	8.36
451.456	8.39
451.662	8.42
451.867	8.43
452.073	8.55
452.278	8.56
452.483	8.55
452.689	8.53
452.894	8.53
453.1	8.52
453.305	8.47
453.51	8.44
453.716	8.46
453.921	8.44
454.127	8.45
454.332	8.44
454.537	8.5
454.742	8.51
454.948	8.52
455.153	8.53
455.358	8.59
455.563	8.6
455.769	8.51
455.974	8.52
456.179	8.44
456.384	8.4
456.589	8.31
456.795	8.43
457	8.51
457.205	8.59
457.41	8.73
457.615	8.79
457.82	8.76
458.025	8.67
458.23	8.7
458.435	8.53
458.64	8.58
458.845	8.66
459.05	8.63
459.255	8.6
459.46	8.83
459.665	8.9
459.87	8.83
460.075	9.01
460.28	9.02
460.485	8.98
460.69	8.82
460.895	8.8
461.099	8.74
461.304	8.78
461.509	8.79
461.714	8.91
461.919	9.03
462.123	9
462.328	9.04
462.533	9.09
462.738	9.15
462.942	9.22
463.147	9.4
463.352	9.49
463.556	9.47
463.761	9.48
463.966	9.28
464.17	9.22
464.375	9.14
464.58	9.15
464.784	9.15
464.989	9.31
465.193	9.26
465.398	9.42
465.602	9.65
465.807	9.77
466.011	9.76
466.216	9.86
466.42	9.72
466.625	9.62
466.829	9.67
467.034	9.68
467.238	9.72
467.443	9.67
467.647	9.42
467.851	9.29
468.056	9.28
468.26	9.3
468.464	9.36
468.669	9.58
468.873	9.59
469.077	9.59
469.282	9.56
469.486	9.56
469.69	9.56
469.894	9.59
470.099	9.58
470.303	9.54
470.507	9.61
470.711	9.63
470.915	9.62
471.119	9.65
471.324	9.76
471.528	9.68
471.732	9.64
471.936	9.63
472.14	9.69
472.344	9.59
472.548	9.68
472.752	9.7
472.956	9.59
473.16	9.63
473.364	9.65
473.568	9.62
473.772	9.59
473.976	9.68
474.18	9.58
474.384	9.68
474.588	9.75
474.792	9.73
474.995	9.66
475.199	9.73
475.403	9.61
475.607	9.54
475.811	9.51
476.015	9.51
476.218	9.48
476.422	9.43
476.626	9.46
476.83	9.5
477.033	9.59
477.237	9.63
477.441	9.64
477.644	9.68
477.848	9.74
478.052	9.71
478.255	9.67
478.459	9.76
478.663	9.72
478.866	9.61
479.07	9.62
479.273	9.59
479.477	9.59
479.681	9.58
479.884	9.6
480.088	9.5
480.291	9.58
480.495	9.5
480.698	9.46
480.901	9.43
481.105	9.62
481.308	9.56
481.512	9.63
481.715	9.72
481.919	9.79
482.122	9.69
482.325	9.65
482.529	9.63
482.732	9.56
482.935	9.49
483.138	9.59
483.342	9.64
483.545	9.66
483.748	9.65
483.952	9.69
484.155	9.54
484.358	9.55
484.561	9.56
484.764	9.64
484.967	9.69
485.171	9.62
485.374	9.58
485.577	9.58
485.78	9.6
485.983	9.64
486.186	9.73
486.389	9.73
486.592	9.71
486.795	9.57
486.998	9.42
487.201	9.44
487.404	9.39
487.607	9.38
487.81	9.32
488.013	9.24
488.216	9.26
488.419	9.22
488.622	9.14
488.825	9.24
489.028	9.3
489.231	9.3
489.433	9.36
489.636	9.52
489.839	9.49
490.042	9.55
490.245	9.55
490.447	9.58
490.65	9.47
490.853	9.5
491.056	9.51
491.258	9.49
491.461	9.4
491.664	9.32
491.866	9.39
492.069	9.39
492.272	9.3
492.474	9.41
492.677	9.47
492.879	9.38
493.082	9.41
493.285	9.48
493.487	9.41
493.69	9.34
493.892	9.39
494.095	9.35
494.297	9.42
494.5	9.5
494.702	9.57
494.905	9.54
495.107	9.44
495.309	9.41
495.512	9.32
495.714	9.41
495.917	9.46
496.119	9.56
496.321	9.58
496.524	9.59
496.726	9.58
496.928	9.49
497.13	9.42
497.333	9.37
497.535	9.52
497.737	9.57
497.939	9.71
498.142	9.75
498.344	9.83
498.546	9.75
498.748	9.65
498.95	9.6
499.152	9.56
499.355	9.55
499.557	9.55
499.759	9.7
499.961	9.75
500.163	9.84
500.365	9.96
500.567	9.96
500.769	9.88
500.971	9.85
501.173	9.86
501.375	9.79
501.577	9.84
501.779	9.85
501.981	9.89
502.183	9.9
502.385	9.84
502.587	9.71
502.788	9.72
502.99	9.6
503.192	9.57
503.394	9.58
503.596	9.59
503.798	9.53
503.999	9.65
504.201	9.57
504.403	9.62
504.605	9.64
504.806	9.67
505.008	9.58
505.21	9.61
505.411	9.5
505.613	9.53
505.815	9.53
506.016	9.54
506.218	9.55
506.42	9.61
506.621	9.53
506.823	9.51
507.024	9.44
507.226	9.43
507.427	9.41
507.629	9.44
507.83	9.45
508.032	9.47
508.233	9.52
508.435	9.42
508.636	9.39
508.838	9.38
509.039	9.35
509.24	9.33
509.442	9.36
509.643	9.37
509.845	9.3
510.046	9.31
510.247	9.31
510.448	9.32
510.65	9.25
510.851	9.25
511.052	9.23
511.254	9.22
511.455	9.17
511.656	9.18
511.857	9.18
512.058	9.1
512.26	9.01
512.461	9
512.662	9
512.863	8.93
513.064	9.05
513.265	9.07
513.466	9.06
513.667	9.03
513.868	9.07
514.069	9.08
514.27	9
514.471	8.94
514.672	9
514.873	8.92
515.074	8.86
515.275	8.93
515.476	8.99
515.677	8.9
515.878	8.99
516.079	8.93
516.28	8.88
516.481	8.82
516.682	8.82
516.882	8.77
517.083	8.77
517.284	8.78
517.485	8.83
517.686	8.82
517.886	8.81
518.087	8.82
518.288	8.77
518.488	8.7
518.689	8.71
518.89	8.7
519.091	8.64
519.291	8.6
519.492	8.57
519.692	8.58
519.893	8.58
520.094	8.58
520.294	8.64
520.495	8.74
520.695	8.67
520.896	8.61
521.096	8.65
521.297	8.69
521.497	8.6
521.698	8.67
521.898	8.7
522.099	8.66
522.299	8.55
522.499	8.56
522.7	8.49
522.9	8.53
523.101	8.53
523.301	8.54
523.501	8.49
523.702	8.55
523.902	8.5
524.102	8.47
524.302	8.5
524.503	8.5
524.703	8.44
524.903	8.4
525.103	8.46
525.304	8.37
525.504	8.48
525.704	8.48
525.904	8.56
526.104	8.46
526.304	8.52
526.504	8.42
526.705	8.42
526.905	8.37
527.105	8.41
527.305	8.47
527.505	8.47
527.705	8.47
527.905	8.49
528.105	8.51
528.305	8.46
528.505	8.46
528.705	8.49
528.905	8.43
529.105	8.41
529.304	8.47
529.504	8.4
529.704	8.38
529.904	8.42
530.104	8.41
530.304	8.3
530.503	8.32
530.703	8.23
530.903	8.27
531.103	8.3
531.303	8.37
531.502	8.38
531.702	8.38
531.902	8.37
532.101	8.34
532.301	8.29
532.501	8.35
532.7	8.41
532.9	8.45
533.1	8.46
533.299	8.49
533.499	8.48
533.698	8.48
533.898	8.4
534.097	8.35
534.297	8.34
534.496	8.3
534.696	8.32
534.895	8.39
535.095	8.36
535.294	8.39
535.494	8.41
535.693	8.39
535.892	8.33
536.092	8.38
536.291	8.31
536.491	8.31
536.69	8.32
536.889	8.26
537.088	8.3
537.288	8.3
537.487	8.32
537.686	8.31
537.886	8.38
538.085	8.39
538.284	8.35
538.483	8.34
538.682	8.38
538.882	8.37
539.081	8.33
539.28	8.39
539.479	8.39
539.678	8.35
539.877	8.38
540.076	8.43
540.275	8.4
540.474	8.37
540.673	8.36
540.872	8.29
541.071	8.28
541.27	8.33
541.469	8.35
541.668	8.39
541.867	8.46
542.066	8.52
542.265	8.6
542.464	8.65
542.663	8.67
542.862	8.74
543.06	8.69
543.259	8.61
543.458	8.61
543.657	8.62
543.856	8.56
544.054	8.6
544.253	8.64
544.452	8.64
544.651	8.65
544.849	8.68
545.048	8.63
545.247	8.67
545.445	8.65
545.644	8.63
545.843	8.65
546.041	8.66
546.24	8.68
546.438	8.76
546.637	8.78
546.836	8.83
547.034	8.86
547.233	8.85
547.431	8.87
547.63	8.94
547.828	8.92
548.027	8.94
548.225	8.91
548.423	8.88
548.622	8.82
548.82	8.83
549.019	8.81
549.217	8.79
549.415	8.8
549.614	8.9
549.812	8.93
550.01	9.06
550.209	9.13
550.407	9.13
550.605	9.08
550.803	9.11
551.002	9.06
551.2	9.17
551.398	9.25
551.596	9.29
551.794	9.33
551.993	9.35
552.191	9.31
552.389	9.28
552.587	9.33
552.785	9.32
552.983	9.43
553.181	9.43
553.379	9.49
553.577	9.57
553.775	9.6
553.973	9.59
554.171	9.65
554.369	9.69
554.567	9.7
554.765	9.7
554.963	9.77
555.161	9.77
555.359	9.83
555.557	9.78
555.755	9.77
555.952	9.82
556.15	9.88
556.348	9.9
556.546	10
556.744	10.14
556.941	10.13
557.139	10.19
557.337	10.23
557.535	10.28
557.732	10.27
557.93	10.38
558.128	10.4
558.325	10.37
558.523	10.4
558.721	10.41
558.918	10.31
559.116	10.36
559.313	10.42
559.511	10.48
559.708	10.55
559.906	10.72
560.104	10.72
560.301	10.82
560.498	10.77
560.696	10.91
560.893	10.93
561.091	10.99
561.288	11.02
561.486	11.1
561.683	11.01
561.88	10.95
562.078	10.99
562.275	10.96
562.473	11.07
562.67	11.21
562.867	11.28
563.064	11.27
563.262	11.37
563.459	11.38
563.656	11.33
563.853	11.33
564.051	11.44
564.248	11.45
564.445	11.47
564.642	11.46
564.839	11.52
565.036	11.56
565.234	11.6
565.431	11.72
565.628	11.81
565.825	11.86
566.022	11.96
566.219	12.01
566.416	11.89
566.613	11.94
566.81	12.03
567.007	11.97
567.204	11.99
567.401	12.12
567.598	12.21
567.795	12.21
567.991	12.25
568.188	12.26
568.385	12.23
568.582	12.15
568.779	12.14
568.976	12.22
569.172	12.23
569.369	12.3
569.566	12.4
569.763	12.43
569.96	12.37
570.156	12.44
570.353	12.42
570.55	12.41
570.746	12.4
570.943	12.43
571.14	12.44
571.336	12.46
571.533	12.46
571.729	12.51
571.926	12.51
572.123	12.49
572.319	12.53
572.516	12.51
572.712	12.55
572.909	12.58
573.105	12.59
573.302	12.57
573.498	12.58
573.695	12.46
573.891	12.41
574.087	12.38
574.284	12.41
574.48	12.43
574.677	12.52
574.873	12.54
575.069	12.56
575.266	12.59
575.462	12.61
575.658	12.63
575.854	12.72
576.051	12.7
576.247	12.68
576.443	12.75
576.639	12.76
576.835	12.61
577.032	12.57
577.228	12.46
577.424	12.37
577.62	12.3
577.816	12.32
578.012	12.42
578.208	12.43
578.404	12.46
578.6	12.5
578.796	12.58
578.993	12.57
579.189	12.69
579.384	12.7
579.58	12.68
579.776	12.62
579.972	12.58
580.168	12.45
580.364	12.41
580.56	12.39
580.756	12.4
580.952	12.38
581.148	12.45
581.343	12.45
581.539	12.48
581.735	12.43
581.931	12.34
582.127	12.3
582.322	12.21
582.518	12.14
582.714	12.21
582.909	12.32
583.105	12.36
583.301	12.4
583.496	12.38
583.692	12.38
583.888	12.3
584.083	12.21
584.279	12.2
584.474	12.2
584.67	12.12
584.866	12.08
585.061	12.11
585.257	12.03
585.452	12.04
585.648	12.09
585.843	12.1
586.039	12.03
586.234	12.06
586.429	12.06
586.625	12.11
586.82	12.06
587.015	12.1
587.211	12.02
587.406	11.96
587.601	11.95
587.797	12.01
587.992	11.85
588.187	11.92
588.383	12.02
588.578	11.97
588.773	11.97
588.968	12.16
589.163	12.19
589.359	12.11
589.554	12.03
589.749	12.02
589.944	11.96
590.139	11.95
590.334	11.92
590.529	12.07
590.724	12.08
590.919	12.13
591.114	12.21
591.309	12.24
591.504	12.16
591.699	12.1
591.894	12.04
592.089	11.99
592.284	11.99
592.479	12.08
592.674	12.14
592.869	12.21
593.064	12.29
593.259	12.33
593.454	12.27
593.648	12.29
593.843	12.2
594.038	12.18
594.233	12.2
594.428	12.27
594.622	12.33
594.817	12.49
595.012	12.49
595.206	12.6
595.401	12.67
595.596	12.67
595.79	12.68
595.985	12.71
596.18	12.68
596.374	12.64
596.569	12.74
596.763	12.83
596.958	12.96
597.153	12.98
597.347	13.07
597.542	13.11
597.736	13.1
597.931	13.05
598.125	13.09
598.319	13.17
598.514	13.07
598.708	13.12
598.903	13.11
599.097	13.15
599.291	13.09
599.486	13.26
599.68	13.22
599.874	13.27
600.069	13.26
600.263	13.28
600.457	13.24
600.651	13.26
600.846	13.32
601.04	13.32
601.234	13.31
601.428	13.3
601.622	13.38
601.817	13.31
602.011	13.37
602.205	13.45
602.399	13.48
602.593	13.43
602.787	13.45
602.981	13.44
603.175	13.44
603.369	13.37
603.563	13.41
603.757	13.37
603.951	13.26
604.145	13.2
604.339	13.21
604.533	13.1
604.727	13.17
604.921	13.3
605.115	13.25
605.309	13.22
605.502	13.22
605.696	13.18
605.89	13.1
606.084	13.15
606.278	13.12
606.471	13.12
606.665	13.05
606.859	12.94
607.053	12.92
607.246	12.92
607.44	12.98
607.634	12.91
607.827	13
608.021	12.91
608.214	12.82
608.408	12.73
608.602	12.85
608.795	12.74
608.989	12.7
609.182	12.68
609.376	12.64
609.569	12.45
609.763	12.43
609.956	12.51
610.15	12.41
610.343	12.32
610.537	12.34
610.73	12.31
610.923	12.25
611.117	12.27
611.31	12.17
611.504	12.05
611.697	12.08
611.89	11.95
612.083	11.9
612.277	11.89
612.47	11.95
612.663	11.77
612.856	11.71
613.05	11.73
613.243	11.68
613.436	11.51
613.629	11.5
613.822	11.56
614.015	11.48
614.209	11.46
614.402	11.51
614.595	11.45
614.788	11.39
614.981	11.31
615.174	11.31
615.367	11.24
615.56	11.2
615.753	11.13
615.946	11.19
616.139	11.11
616.332	11.12
616.525	11.08
616.718	10.98
616.911	10.85
617.103	10.81
617.296	10.78
617.489	10.83
617.682	10.91
617.875	10.95
618.067	10.88
618.26	10.89
618.453	10.86
618.646	10.8
618.838	10.76
619.031	10.77
619.224	10.69
619.417	10.69
619.609	10.67
619.802	10.61
619.994	10.55
620.187	10.6
620.38	10.57
620.572	10.47
620.765	10.47
620.957	10.55
621.15	10.44
621.342	10.36
621.535	10.41
621.727	10.38
621.92	10.31
622.112	10.32
622.305	10.33
622.497	10.27
622.69	10.22
622.882	10.17
623.074	10.17
623.267	10.16
623.459	10.15
623.651	10.21
623.844	10.24
624.036	10.24
624.228	10.27
624.42	10.28
624.613	10.32
624.805	10.32
624.997	10.35
625.189	10.31
625.381	10.29
625.574	10.26
625.766	10.25
625.958	10.15
626.15	10.2
626.342	10.15
626.534	10.11
626.726	10.06
626.918	10.01
627.11	9.87
627.302	9.92
627.494	9.87
627.686	9.9
627.878	9.98
628.07	9.94
628.262	9.92
628.454	9.83
628.646	9.81
628.838	9.8
629.029	9.85
629.221	9.81
629.413	9.88
629.605	9.81
629.797	9.75
629.989	9.72
630.18	9.73
630.372	9.63
630.564	9.73
630.755	9.67
630.947	9.65
631.139	9.56
631.33	9.56
631.522	9.54
631.714	9.59
631.905	9.58
632.097	9.59
632.289	9.63
632.48	9.5
632.672	9.46
632.863	9.47
633.055	9.46
633.246	9.45
633.438	9.53
633.629	9.52
633.821	9.48
634.012	9.51
634.203	9.52
634.395	9.53
634.586	9.66
634.777	9.71
634.969	9.69
635.16	9.64
635.351	9.58
635.543	9.49
635.734	9.5
635.925	9.46
636.117	9.55
636.308	9.63
636.499	9.6
636.69	9.5
636.881	9.55
637.073	9.48
637.264	9.46
637.455	9.45
637.646	9.51
637.837	9.47
638.028	9.47
638.219	9.44
638.41	9.42
638.601	9.45
638.792	9.46
638.983	9.52
639.174	9.5
639.365	9.55
639.556	9.53
639.747	9.61
639.938	9.56
640.129	9.57
640.32	9.53
640.511	9.51
640.701	9.47
640.892	9.5
641.083	9.54
641.274	9.55
641.465	9.57
641.655	9.53
641.846	9.5
642.037	9.47
642.228	9.43
642.418	9.41
642.609	9.43
642.8	9.41
642.99	9.32
643.181	9.31
643.372	9.25
643.562	9.2
643.753	9.18
643.943	9.2
644.134	9.21
644.324	9.27
644.515	9.32
644.705	9.37
644.896	9.42
645.086	9.43
645.277	9.45
645.467	9.48
645.658	9.41
645.848	9.3
646.038	9.35
646.229	9.38
646.419	9.32
646.61	9.38
646.8	9.51
646.99	9.45
647.18	9.42
647.371	9.38
647.561	9.4
647.751	9.39
647.941	9.36
648.132	9.26
648.322	9.27
648.512	9.31
648.702	9.34
648.892	9.34
649.082	9.41
649.272	9.39
649.462	9.37
649.653	9.38
649.843	9.43
650.033	9.44
650.223	9.39
650.413	9.33
650.603	9.31
650.793	9.3
650.983	9.24
651.172	9.28
651.362	9.23
651.552	9.2
651.742	9.1
651.932	9.12
652.122	9.21
652.312	9.27
652.502	9.3
652.691	9.27
652.881	9.31
653.071	9.31
653.261	9.2
653.45	9.09
653.64	9.13
653.83	9.01
654.019	8.88
654.209	8.79
654.399	8.8
654.588	8.71
654.778	8.7
654.968	8.62
655.157	8.63
655.347	8.54
655.536	8.52
655.726	8.42
655.915	8.41
656.105	8.38
656.294	8.31
656.484	8.18
656.673	8.1
656.863	8.09
657.052	8.1
657.241	8.03
657.431	8.07
657.62	8.05
657.809	7.91
657.999	7.92
658.188	7.87
658.377	7.86
658.567	7.85
658.756	7.82
658.945	7.72
659.134	7.64
659.324	7.63
659.513	7.49
659.702	7.42
659.891	7.33
660.08	7.32
660.269	7.22
660.458	7.22
660.648	7.2
660.837	7.18
661.026	7.08
661.215	7.03
661.404	7.08
661.593	7.11
661.782	7.07
661.971	7.2
662.16	7.17
662.349	7.07
662.538	7.03
662.726	7.06
662.915	7.01
663.104	6.92
663.293	6.9
663.482	6.92
663.671	6.94
663.86	6.86
664.048	6.97
664.237	7.09
664.426	7.04
664.615	6.95
664.803	7
664.992	6.88
665.181	6.77
665.369	6.83
665.558	6.82
665.747	6.9
665.935	7.07
666.124	7.1
666.312	7.1
666.501	7.26
666.69	7.32
666.878	7.25
667.067	7.32
667.255	7.44
667.444	7.38
667.632	7.36
667.82	7.49
668.009	7.55
668.197	7.55
668.386	7.56
668.574	7.6
668.762	7.67
668.951	7.73
669.139	7.66
669.327	7.66
669.516	7.63
669.704	7.53
669.892	7.5
670.08	7.53
670.269	7.58
670.457	7.61
670.645	7.52
670.833	7.57
671.021	7.59
671.21	7.67
671.398	7.66
671.586	7.75
671.774	7.75
671.962	7.86
672.15	7.96
672.338	8.12
672.526	8.36
672.714	8.59
672.902	8.61
673.09	8.52
673.278	8.52
673.466	8.59
673.654	8.6
673.842	8.76
674.03	9.04
674.218	9.18
674.405	9.28
674.593	9.33
674.781	9.4
674.969	9.26
675.157	9.31
675.344	9.13
675.532	9.14
675.72	9.17
675.908	9.27
676.095	9.38
676.283	9.56
676.471	9.54
676.658	9.49
676.846	9.58
677.033	9.54
677.221	9.5
677.409	9.47
677.596	9.56
677.784	9.53
677.971	9.55
678.159	9.72
678.346	9.89
678.534	9.99
678.721	9.99
678.909	10.01
679.096	10.06
679.283	10.06
679.471	10.06
679.658	10.22
679.846	10.22
680.033	10.32
680.22	10.33
680.408	10.33
680.595	10.3
680.782	10.44
680.969	10.28
681.157	10.38
681.344	10.45
681.531	10.54
681.718	10.59
681.905	10.63
682.093	10.56
682.28	10.68
682.467	10.75
682.654	10.64
682.841	10.71
683.028	10.79
683.215	10.77
683.402	10.81
683.589	10.95
683.776	11.04
683.963	11.03
684.15	11.09
684.337	11.11
684.524	11.13
684.711	11.18
684.898	11.29
685.085	11.38
685.271	11.41
685.458	11.43
685.645	11.43
685.832	11.28
686.019	11.21
686.205	11.21
686.392	11.22
686.579	11.41
686.766	11.76
686.952	11.87
687.139	12.15
687.326	12.36
687.512	12.46
687.699	12.42
687.886	12.62
688.072	12.59
688.259	12.78
688.445	12.91
688.632	13.04
688.818	13.17
689.005	13.36
689.191	13.45
689.378	13.55
689.564	14.04
689.751	14.11
689.937	14.28
690.124	14.45
690.31	14.73
690.496	14.83
690.683	15.12
690.869	15.3
691.055	15.61
691.242	15.89
691.428	16
691.614	16.15
691.8	16.57
691.987	16.86
692.173	17.17
692.359	17.65
692.545	18.26
692.731	18.43
692.918	18.67
693.104	19.04
693.29	19.15
693.476	19.47
693.662	19.91
693.848	20.51
694.034	20.62
694.22	21.57
694.406	21.93
694.592	22.41
694.778	22.74
694.964	23.47
695.15	23.5
695.336	23.52
695.522	23.89
695.708	24.32
695.894	24.64
696.08	25.01
696.265	25.99
696.451	26.35
696.637	26.69
696.823	26.95
697.009	27.42
697.194	27.47
697.38	27.97
697.566	28.75
697.751	29.61
697.937	30
698.123	30.84
698.308	31.22
698.494	31.2
698.68	31.39
698.865	32.06
699.051	32.31
699.236	32.96
699.422	33.45
699.607	33.94
699.793	34.2
699.978	34.62
700.164	35.05
700.349	35.69
700.535	35.96
700.72	36.61
700.906	37.2
701.091	37.53
701.276	37.81
701.462	38.27
701.647	38.77
701.832	39.21
702.018	39.57
702.203	40.18
702.388	40.86
702.573	41.07
702.759	41.32
702.944	41.65
703.129	41.97
703.314	42.21
703.499	42.47
703.684	42.69
703.87	43.01
704.055	43.18
704.24	43.63
704.425	44.19
704.61	44.56
704.795	44.97
704.98	45.27
705.165	45.44
705.35	45.62
705.535	45.97
705.72	46.39
705.905	46.82
706.09	47.1
706.275	47.14
706.459	47.33
706.644	47.35
706.829	47.61
707.014	48.05
707.199	48.61
707.384	48.72
707.568	49.05
707.753	49.3
707.938	48.89
708.123	48.74
708.307	49.03
708.492	49.52
708.677	49.59
708.861	49.98
709.046	50.17
709.231	50.4
709.415	50.39
709.6	50.5
709.784	51.1
709.969	51.59
710.153	52.11
710.338	52.22
710.522	52.55
710.707	52.43
710.891	52.45
711.076	52.54
711.26	52.55
711.445	53.09
711.629	53.31
711.813	53.53
711.998	53.61
712.182	53.91
712.366	53.59
712.551	53.69
712.735	53.73
712.919	53.57
713.103	53.69
713.288	54.1
713.472	54.36
713.656	54.56
713.84	54.78
714.024	55.15
714.208	55.31
714.393	54.95
714.577	55.55
714.761	55.83
714.945	55.93
715.129	55.75
715.313	55.98
715.497	55.67
715.681	55.57
715.865	55.82
716.049	55.92
716.233	56.06
716.417	56.31
716.601	56.57
716.785	56.72
716.968	56.87
717.152	57.27
717.336	57.14
717.52	57.68
717.704	57.26
717.888	58.02
718.071	58.42
718.255	58.84
718.439	58.39
718.622	58.69
718.806	57.99
718.99	57.82
719.174	57.6
719.357	57.82
719.541	58.04
719.724	57.94
719.908	57.91
720.092	58.19
720.275	58.55
720.459	59.28
720.642	59.99
720.826	59.96
721.009	59.95
721.193	60.03
721.376	59.78
721.559	59.84
721.743	60.75
721.926	61.26
722.11	61.36
722.293	61.2
722.476	61.75
722.66	61.48
722.843	61.24
723.026	61.39
723.21	61.51
723.393	60.75
723.576	60.59
723.759	61.08
723.942	61.25
724.126	61.89
724.309	62.57
724.492	63.3
724.675	63.18
724.858	63.51
725.041	63.32
725.224	63.04
725.407	63.17
725.59	63.75
725.774	63.36
725.957	63.69
726.14	64.4
726.322	64.47
726.505	64.35
726.688	64.61
726.871	64.56
727.054	64.77
727.237	65.13
727.42	65.74
727.603	66.67
727.786	67.26
727.968	67.33
728.151	67.13
728.334	66.47
728.517	66.35
728.699	65.97
728.882	66.61
729.065	66.83
729.248	67.07
729.43	67
729.613	67.73
729.796	67.88
729.978	68.33
730.161	68.57
730.343	69.83
730.526	69.64
730.708	69.61
730.891	69.46
731.073	70.18
731.256	69.27
731.438	69
731.621	69.21
731.803	69.87
731.986	70.54
732.168	71.02
732.35	72.01
732.533	72.3
732.715	72.39
732.898	71.62
733.08	72.46
733.262	72.53
733.444	72.4
733.627	72.26
733.809	72.48
733.991	72.27
734.173	72.94
734.355	73.3
734.538	73.64
734.72	74.21
734.902	74.8
735.084	74.78
735.266	74.74
735.448	75.07
735.63	74.91
735.812	74.46
735.994	74.02
736.176	74.39
736.358	75.46
736.54	76.07
736.722	76.13
736.904	76.87
737.086	77.12
737.268	76.26
737.45	76.84
737.632	76.72
737.814	77.14
737.995	77.81
738.177	77.7
738.359	77.18
738.541	77.24
738.723	77.37
738.904	76.6
739.086	77.57
739.268	78.05
739.449	78.6
739.631	78.24
739.813	78.66
739.994	78.09
740.176	78.1
740.358	78.35
740.539	78.9
740.721	78.81
740.902	79.69
741.084	81.02
741.265	81.12
741.447	80.26
741.628	79.52
741.81	79.44
741.991	78.76
742.172	78.63
742.354	79.36
742.535	80.75
742.717	81.78
742.898	82.34
743.079	82.97
743.261	83.56
743.442	84.07
743.623	82.34
743.804	82.21
743.986	82.29
744.167	81.1
744.348	81.26
744.529	82.32
744.71	82.01
744.891	82.42
745.073	82.94
745.254	83.17
745.435	83.35
745.616	83.44
745.797	83.05
745.978	83.73
746.159	84.38
746.34	85.32
746.521	86.31
746.702	86.33
746.883	86.95
747.064	85.29
747.245	83.8
747.426	83.1
747.606	83.64
747.787	83.35
747.968	83.82
748.149	83.84
748.33	83.18
748.51	82.49
748.691	81.39
748.872	81.94
749.053	83.46
749.233	83.99
749.414	85.75
749.595	87.32
749.775	87.77
749.956	85.97
750.137	86.05
750.317	83.75
750.498	83.79
750.678	83.54
750.859	85.3
751.04	84.57
751.22	85.56
751.4	85.28
751.581	85.24
751.761	85.29
751.942	86.12
752.122	86.58
752.303	87.2
752.483	87.88
752.663	86.47
752.844	86.04
753.024	87.21
753.204	86.86
753.385	84.95
753.565	85.03
753.745	83.85
753.925	83.22
754.106	82.68
754.286	83.24
754.466	84.16
754.646	84.43
754.826	83.58
755.006	84.55
755.187	84.93
755.367	85.81
755.547	85.98
755.727	87.27
755.907	85.67
756.087	86.76
756.267	85.45
756.447	87.21
756.627	85.1
756.807	87.13
756.987	86.45
757.167	86.48
757.346	86.03
757.526	86.82
757.706	84.58
757.886	84.71
758.066	85.5
758.246	84.25
758.425	82.87
758.605	82.79
758.785	83.26
758.965	82.54
759.144	84.1
759.324	86.67
759.504	88.96
759.683	88.15
759.863	88.24
760.043	88.33
760.222	89.11
760.402	87.31
760.581	88.09
760.761	88.38
760.94	87.94
761.12	86.35
761.299	86.62
761.479	85.52
761.658	84.37
761.838	84.81
762.017	83.19
762.197	84.25
762.376	85.42
762.555	86.09
762.735	85.35
762.914	84.59
763.093	84.41
763.273	82.71
763.452	82.48
763.631	82.76
763.81	85.61
763.99	84.73
764.169	84.82
764.348	84.01
764.527	82.47
764.706	81.65
764.885	82.31
765.064	83.91
765.243	85.58
765.423	85.29
765.602	83.26
765.781	82.03
765.96	79.48
766.139	78.27
766.318	79.63
766.497	82.04
766.676	81.93
766.854	82.63
767.033	82.73
767.212	83.06
767.391	81.27
767.57	82.18
767.749	84.04
767.928	84.38
768.106	84.18
768.285	83.8
768.464	83.22
768.643	81.46
768.821	80.86
769	80.92
769.179	81.35
769.357	81.46
769.536	82.24
769.715	82.73
769.893	82.85
770.072	84.08
770.25	84.84
770.429	84.25
770.607	81.65
770.786	82.93
770.964	83.24
771.143	82
771.321	82.46
771.5	86.47
771.678	85
771.857	84.39
772.035	85.2
772.213	85.25
772.392	82.72
772.57	83.23
772.748	82.4
772.927	82.01
773.105	80.85
773.283	82.03
773.461	81.17
773.64	82.35
773.818	81.32
773.996	81.53
774.174	81.84
774.352	79.73
774.531	76.9
774.709	77.55
774.887	79.27
775.065	78.47
775.243	78.96
775.421	78.97
775.599	80.25
775.777	78.24
775.955	74.68
776.133	77.9
776.311	80.93
776.489	82.39
776.667	82.48
776.844	86.85
777.022	84.77
777.2	86.44
777.378	83.61
777.556	83
777.734	81.52
777.911	81.74
778.089	80.02
778.267	78.67
778.445	79.95
778.622	79.41
778.8	80.05
778.978	79.74
779.155	78.56
779.333	78.05
779.511	77.74
779.688	76.83
779.866	72.37
780.043	73.43
780.221	72.92
780.398	76.61
780.576	75.43
780.753	79.35
780.931	79.37
781.108	79.43
781.286	77.49
781.463	80.03
781.64	77.92
781.818	78.83
781.995	78.72
782.172	77.06
782.35	75.78
782.527	74.71
782.704	75.65
782.882	75.12
783.059	76.56
783.236	73.95
783.413	78.18
783.59	78.84
783.768	78.99
783.945	78.52
784.122	82.92
784.299	82.59
784.476	80.49
784.653	80.17
784.83	80.01
785.007	76.46
785.184	75.87
785.361	76.17
785.538	79.19
785.715	75.58
785.892	76.08
786.069	77.09
786.246	79.81
786.423	81.56
786.6	87.53
786.776	88.39
786.953	86.31
787.13	84.27
787.307	81.3
787.484	81.18
787.66	78.25
787.837	76.64
788.014	78.43
788.191	79.01
788.367	77.22
788.544	81.59
788.721	83.34
788.897	80.85
789.074	79.31
789.25	78.57
789.427	77.32
789.603	79.12
789.78	80.62
789.956	80.68
790.133	77.96
790.309	79.89
790.486	78.12
790.662	77.9
790.839	73.53
791.015	76.49
791.192	71.81
791.368	69.64
791.544	67.52
791.721	72.74
791.897	76.26
792.073	77.93
792.249	76.18
792.426	81.65
792.602	80.9
792.778	77.61
792.954	78.52
793.13	82.53
793.307	77.56
793.483	71.41
793.659	72.18
793.835	75.04
794.011	77.25
794.187	71.57
794.363	78.17
794.539	76.36
794.715	68.3
794.891	63.6
795.067	66.85
795.243	68.06
795.419	69.04
795.595	73.52
795.771	71.44
795.947	74.83
796.122	72.4
796.298	72.16
796.474	68.64
796.65	70.42
796.826	64.5
797.001	66.05
797.177	68.55
797.353	71.12
797.529	72.63
797.704	78.75
797.88	77.6
798.056	76.01
798.231	79.08
798.407	75.96
798.582	70.89
798.758	71.24
798.934	72.3
799.109	69.01
799.285	74.58
799.46	78.54
799.636	75.32
799.811	74.8
799.986	81.05
800.162	79.17
800.337	78.11
800.513	80.72
800.688	85.24
800.863	82.19
801.039	84.79
801.214	80.79
801.389	81
801.565	75.39
801.74	72.35
801.915	66.15
802.09	68.19
802.265	58.15
802.441	61.23
802.616	63.32
802.791	68.55
802.966	74.59
803.141	81.53
803.316	74.39
803.491	65.91
803.666	61.85
803.841	55.63
804.016	63.66
804.191	69.58
804.366	81.48
804.541	77.91
804.716	87.2
804.891	77.73
805.066	71.26
805.241	69.34
805.416	73.98
805.591	70.23
805.765	75.7
805.94	80.33
806.115	73.3
806.29	72.5
806.464	75.44
806.639	78.19
806.814	75.54
806.989	76.65
807.163	79.01
807.338	77.39
807.512	67.03
807.687	65.64
807.862	62.59
808.036	61.81
808.211	59.7
808.385	61.69
808.56	61.52
808.734	64.41
808.909	64.28
809.083	62.44
809.258	59.12
809.432	62.19
809.606	60.76
809.781	55.76
809.955	58.03
810.13	62.53
810.304	60.08
810.478	54.29
810.652	56.96
810.827	53.37
811.001	51.44
811.175	54.45
811.349	57.9
811.524	65.83
811.698	66.53
811.872	67.95
812.046	79.56
812.22	80.73
812.394	69.83
812.568	70.26
812.742	71.06
812.916	61.63
813.09	75.47
813.264	85.09
813.438	86.74
813.612	96.35
813.786	87.46
813.96	72.44
814.134	65.69
814.308	67.34
814.482	59.73
814.656	77.23
814.83	80.51
815.003	82.21
815.177	80.35
815.351	88.43
815.525	80.79
815.698	74.42
815.872	63.7
816.046	60.77
816.219	48.87
816.393	50.82
816.567	53.32
816.74	68.44
816.914	86.87
817.088	103.16
817.261	106.32
817.435	100.09
817.608	95.35
817.782	76.12
817.955	83.65
818.129	83.19
818.302	69.19
818.475	81.18
818.649	79.61
818.822	63.28
818.996	58.51
819.169	70.2
819.342	64.5
819.516	68.22
819.689	73.41
819.862	77.48
820.035	79.47
820.209	71.8
820.382	70.29
820.555	76.28
820.728	83.76
820.901	66.62
821.075	78.63
821.248	81.83
821.421	72.93
821.594	64.4
821.767	76.77
821.94	66.29
822.113	43.19
822.286	33.5
822.459	22.01
822.632	21.43
822.805	47.66
822.978	56.85
823.151	67.02
823.324	83.89
823.496	62.49
823.669	31.79
823.842	46.5
824.015	23.82
824.188	18.16
824.361	18.43
824.533	37.47
824.706	32.26
824.879	49.18
825.051	59.37
825.224	66.48
825.397	55.36
825.569	61.66
825.742	62.46
825.915	49.43
826.087	57.46
826.26	56.73
826.432	59.16
826.605	61.98
826.777	61.37
826.95	60.54
827.122	57.72
827.295	55.23
827.467	50.64
827.64	47.86
827.812	47.07
827.984	55.15
828.157	49.54
828.329	60.12
828.501	78.21
828.674	74.62
828.846	84.61
829.018	92.22
829.19	99.9
829.363	75.32
829.535	83.24
829.707	52.71
829.879	40.76
830.051	29
830.223	41.98
830.395	27.27
830.568	34.5
830.74	51.37
830.912	59.72
831.084	65.41
831.256	62.17
831.428	66.12
831.6	60.74
831.772	54.62
831.943	16.45
832.115	30.27
832.287	34.16
832.459	39.9
832.631	47.29
832.803	84.5
832.975	98.87
833.146	101.47
833.318	83.23
833.49	86.41
833.662	71.35
833.833	75.79
834.005	69.38
834.177	100.6
834.348	98.34
834.52	102.92
834.692	111.83
834.863	124.37
835.035	106.09
835.206	103.13
835.378	97.57
835.549	89.17
835.721	87.78
835.892	76.55
836.064	87.77
836.235	93.97
836.407	96.89
836.578	88.24
836.749	69.14
836.921	57.01
837.092	45.43
837.264	55.11
837.435	35.36
837.606	39.17
837.777	44.92
837.949	59.53
838.12	8.04
838.291	37.29
838.462	74.28
838.633	65.1
838.805	40.12
838.976	89.96
839.147	74.23
839.318	61.11
839.489	41.54
839.66	58.14
839.831	39.23
840.002	14.55
840.173	-22.73
840.344	14.9
840.515	7.54
840.686	3.86
840.857	35.55
841.028	57.33
841.199	56.43
841.369	46.59
841.54	53.16
841.711	61.32
841.882	49.25
842.053	54.26
842.223	78.93
842.394	75.64
842.565	69.86
842.736	81.25
842.906	46.55
843.077	54.02
843.248	46.09
843.418	41.4
843.589	41.69
843.759	101.48
843.93	-216.16
844.101	17.1
844.271	26.95
844.442	-11.33
844.612	-13.77
844.783	28.73
844.953	3.06
845.123	18.7
845.294	42.28
845.464	53.51
845.635	64.87
845.805	88.06
845.975	78.39
846.146	82.84
846.316	87.42
846.486	66.48
846.656	48.96
846.827	100.25
846.997	53.32
847.167	47.42
847.337	47.5
847.507	46.72
847.677	19.09
847.848	33.8
848.018	46.04
848.188	75.95
848.358	65.93
848.528	98.84
848.698	93.6
848.868	100.75
849.038	70.32
849.208	113.34
849.378	54.43
849.548	86.55
849.718	342.22
849.887	-175.24
850.057	-1119.35
850.227	452.79
850.397	893.29
850.567	-32.39
850.737	16.87
850.906	37.24
851.076	57.84
851.246	65.13
851.415	30.92
851.585	35.68
851.755	38.87
851.924	54.9
852.094	46.24
852.264	40.73
852.433	23.79
852.603	42.37
852.772	29.78
852.942	32.43
853.111	36.54
853.281	55.74
853.45	38.11
853.62	56.72
853.789	78.48
853.959	235.3
854.128	-146.17
854.297	-6.32
854.467	111.52
854.636	-126.17
854.805	12.25
854.975	25.06
855.144	42.52
855.313	53.18
855.482	86.79
855.652	51.6
855.821	24.07
855.99	31.61
856.159	-12.44
856.328	17.86
856.497	52.17
856.667	119.37
856.836	126.83
857.005	112.98
857.174	123.35
857.343	99.47
857.512	46.29
857.681	20.06
857.85	-17.28
858.019	-14.21
858.188	4.38
858.356	1.4
858.525	8.93
858.694	32.81
858.863	14.46
859.032	-21.96
859.201	21.68
859.369	45.3
859.538	13.7
859.707	25.78
859.876	73.94
860.044	73.73
860.213	91.27
860.382	165.51
860.55	115.37
860.719	111.72
860.888	131.09
861.056	139.87
861.225	135.58
861.393	191
861.562	176.37
861.73	160.32
861.899	139.72
862.067	83.92
862.236	96.95
862.404	31.68
862.572	-16.25
862.741	-308.76
862.909	7.16
863.078	39.31
863.246	98.76
863.414	134.09
863.582	100.12
863.751	100.55
863.919	22.1
864.087	-19.89
864.255	-104.44
864.424	-90.09
864.592	5.21
864.76	45.08
864.928	56.03
865.096	83.01
865.264	51.41
865.432	46.37
865.6	40.16
865.768	-20.64
865.936	-209.35
866.104	-662.91
866.272	-98.91
866.44	-168.32
866.608	-67.28
866.776	0.64
866.944	14.05
867.112	3.35
867.28	20.34
867.448	51.18
867.615	58.38
867.783	83.69
867.951	70.37
868.119	68.2
868.286	110.97
868.454	52.32
868.622	13.47
868.789	111.32
868.957	-375.11
869.125	174.73
869.292	387.2
869.46	-72.88
869.627	-760.57
869.795	-166.31
869.963	-43.45
870.13	-46.75
870.298	-1.19
870.465	35.91
870.632	32.91
870.8	29.43
870.967	40.65
871.135	-54.29
871.302	272.24
871.469	44.5
871.637	28.24
871.804	-6.64
871.971	15.27
872.139	42.85
872.306	31.81
872.473	368.34
872.64	139.14
872.807	55.76
872.975	50.13
873.142	60.49
873.309	108.27
873.476	110.01
873.643	126.83
873.81	103.16
873.977	123.1
874.144	62.56
874.311	117.79
874.478	158.73
874.645	93.53
874.812	-96.21
874.979	49.8
875.146	51.12
875.313	-93.26
875.48	212.56
875.647	-39.58
875.813	-803.8
875.98	689.7
876.147	-32.9
876.314	19.09
876.481	11.31
876.647	2.12
876.814	-23.94
876.981	-60.51
877.147	-76.77
877.314	-89.41
877.481	-15.03
877.647	38.03
877.814	51.19
877.98	-42.97
878.147	44.35
878.314	96.84
878.48	291.9
878.647	74.13
878.813	406.47
878.979	58.07
879.146	54.24
879.312	39.21
879.479	103.84
879.645	104.49
879.811	115.78
879.978	130.15
880.144	229.07
880.31	347.64
880.477	-258.39
880.643	174.59
880.809	4270.73
880.975	-1157.29
881.142	-382.89
881.308	-661.12
881.474	-64.6
881.64	37.38
881.806	35.09
881.972	59.35
882.138	58.12
882.304	26.52
882.47	3.6
882.636	12.36
882.802	23.45
882.968	21.13
883.134	27.6
883.3	40.51
883.466	50.08
883.632	34.74
883.798	73.57
883.964	18.67
884.129	-1.53
884.295	14.06
884.461	-80.17
884.627	490.33
884.793	84.92
884.958	87.98
885.124	-393.07
885.29	113.65
885.455	83.44
885.621	67.63
885.787	70.13
885.952	-1.14
886.118	4.4
886.283	24.53
886.449	-3.01
886.614	-12.66
886.78	37.5
886.945	58.86
887.111	51.87
887.276	41.32
887.442	77.03
887.607	67.44
887.773	-54.5
887.938	-13.3
888.103	21.74
888.269	-222.07
888.434	6205.88
888.599	23.11
888.764	478.64
888.93	70.53
889.095	94.97
889.26	95.85
889.425	62.86
889.59	15.22
889.756	28.66
889.921	-34.37
890.086	-10.23
890.251	-2.03
890.416	17.01
890.581	-44.97
890.746	-31.82
890.911	1.21
891.076	-60.94
891.241	-185.31
891.406	-18500
891.571	-238.23
891.736	301.97
891.901	369.32
892.065	117.36
892.23	269.99
892.395	265.39
892.56	1255.7
892.725	-114.99
892.889	-374.26
893.054	-968.87
893.219	-1665.47
893.384	-284.66
893.548	-395.4
893.713	-186.36
893.878	-248.69
