Data from Ofav_SP_Phys_9AZ10_Reflection_2.txt Node
Date: Thu Aug 05 17:49:33 EDT 2021
User: Adam
Spectrometer: FLMT01687
Trigger mode: 0
Integration Time (sec): 8.000000E-1
Scans to average: 2
Electric dark correction enabled: true
Nonlinearity correction enabled: false
Boxcar width: 2
XAxis mode: Wavelengths
Number of Pixels in Spectrum: 3648
>>>>>Begin Spectral Data<<<<<
179.494	633.28
179.716	694.39
179.937	571.17
180.158	662.36
180.38	1416.48
180.601	-586.69
180.823	-112.61
181.044	-69.5
181.265	-53.64
181.486	-92.97
181.708	46.98
181.929	-76.39
182.15	-265.31
182.372	42.44
182.593	-7.9
182.814	-133.97
183.035	-41.75
183.257	268.33
183.478	155.25
183.699	232.83
183.92	28.42
184.141	-332.74
184.363	37.84
184.584	78.91
184.805	23.72
185.026	-17.49
185.247	22.17
185.468	40.19
185.689	34.28
185.91	42.19
186.132	38.43
186.353	50.86
186.574	-1.37
186.795	19.39
187.016	-0.51
187.237	13.11
187.458	-136
187.679	23.6
187.9	-17.94
188.121	10.32
188.342	10.07
188.563	31.37
188.784	51.44
189.005	65.19
189.226	74.88
189.447	90.75
189.667	149.01
189.888	216.52
190.109	189.9
190.33	147.69
190.551	122.15
190.772	133.1
190.993	80.49
191.214	70.52
191.434	56.26
191.655	43.95
191.876	44.79
192.097	54.52
192.318	48.03
192.538	27.95
192.759	66.91
192.98	58.93
193.201	21.13
193.421	-95.08
193.642	-0.92
193.863	2.77
194.083	18.03
194.304	34.26
194.525	69.73
194.745	61.21
194.966	50.83
195.187	63.63
195.407	50.98
195.628	12.4
195.848	50.3
196.069	37.62
196.29	7.38
196.51	39.13
196.731	49.03
196.951	66.89
197.172	82.38
197.392	118.33
197.613	107.78
197.833	144.68
198.054	89.23
198.274	39.27
198.495	10.71
198.715	-2.8
198.936	-132.32
199.156	-6.16
199.377	27.08
199.597	26.94
199.817	38.52
200.038	43.27
200.258	31.5
200.479	33.47
200.699	25.84
200.919	8.16
201.14	-32.61
201.36	-36.76
201.58	-11.74
201.801	-103.07
202.021	-66.57
202.241	16.08
202.461	-5.76
202.682	-27.4
202.902	16.06
203.122	102.38
203.342	141.1
203.563	84.05
203.783	68.13
204.003	69.99
204.223	58.76
204.443	31.99
204.663	48.53
204.884	49.52
205.104	15.79
205.324	12.89
205.544	18.3
205.764	-0.18
205.984	-2.12
206.204	28.46
206.424	5.53
206.644	2.29
206.864	-11.9
207.084	-48.95
207.304	8.04
207.525	-7.97
207.745	26.48
207.964	69.45
208.184	81.39
208.404	-21.25
208.624	8.22
208.844	-15.02
209.064	-27.66
209.284	-5.7
209.504	5.25
209.724	-8.37
209.944	-19.09
210.164	-20.11
210.384	14.06
210.604	11.25
210.823	38.65
211.043	44.72
211.263	50.74
211.483	21.51
211.703	44.9
211.922	58.69
212.142	56.17
212.362	28.94
212.582	115.28
212.801	94.1
213.021	85.09
213.241	65.75
213.461	71.71
213.68	36.82
213.9	10.77
214.12	-18.22
214.339	-15.95
214.559	7.39
214.779	9.58
214.998	54.6
215.218	53
215.438	106.15
215.657	149.02
215.877	145.37
216.096	90.91
216.316	82.3
216.535	24.41
216.755	-26.67
216.974	-191.76
217.194	58.03
217.413	61.9
217.633	59.61
217.852	54.4
218.072	65.21
218.291	31.72
218.511	18.51
218.73	10.06
218.95	5.75
219.169	-31.47
219.389	32.74
219.608	7.93
219.827	25.61
220.047	25.3
220.266	52.01
220.485	35.26
220.705	44.67
220.924	48.29
221.143	45.07
221.363	30.03
221.582	46.63
221.801	10.82
222.021	24.52
222.24	14.05
222.459	30.58
222.678	19.88
222.897	53.05
223.117	27.9
223.336	45.25
223.555	39.86
223.774	2.86
223.993	-0.7
224.213	23
224.432	14.52
224.651	33.05
224.87	57.98
225.089	64.31
225.308	47.48
225.527	44.45
225.746	16.36
225.965	-5.31
226.184	7.3
226.404	25.21
226.623	10.75
226.842	18.76
227.061	48.17
227.28	39.32
227.499	64.67
227.718	42.09
227.936	24.36
228.155	7.97
228.374	5.67
228.593	-7.48
228.812	11.52
229.031	16.65
229.25	13.53
229.469	19.6
229.688	14.89
229.907	14.23
230.125	14.37
230.344	-9.31
230.563	3.9
230.782	-21.53
231.001	-61.55
231.22	-23.05
231.438	5.43
231.657	-7.45
231.876	-17.95
232.095	22.35
232.313	24.2
232.532	31.47
232.751	29.55
232.969	42.74
233.188	35.1
233.407	15.74
233.625	23.86
233.844	4.65
234.063	-22.93
234.281	6.25
234.5	40.48
234.719	47.88
234.937	43.2
235.156	49.8
235.374	7.56
235.593	-22.56
235.811	-35.36
236.03	-9.32
236.249	2.28
236.467	22.87
236.686	13.56
236.904	23.98
237.123	10.79
237.341	11.61
237.559	0.04
237.778	24.18
237.996	38.34
238.215	40.51
238.433	51.58
238.652	38.22
238.87	17.91
239.088	8.26
239.307	11.79
239.525	10.32
239.743	21.76
239.962	51.64
240.18	66.46
240.398	61.64
240.617	-1.87
240.835	32.59
241.053	17.47
241.271	10.73
241.49	35.02
241.708	46.74
241.926	-12.73
242.144	-18.93
242.363	-62.33
242.581	-35.47
242.799	-41.9
243.017	64.14
243.235	-3.18
243.453	21.62
243.672	17.38
243.89	28.78
244.108	-0.93
244.326	55.78
244.544	36.62
244.762	28.78
244.98	25.35
245.198	38.84
245.416	32.02
245.634	31.97
245.852	10.32
246.07	14.75
246.288	-21.58
246.506	-82.16
246.724	-38.31
246.942	-35.77
247.16	-54.12
247.378	-85.19
247.596	-15.77
247.814	-20.11
248.032	-21.75
248.25	-47.15
248.468	-24.63
248.685	-6.45
248.903	3.82
249.121	-4.13
249.339	12.52
249.557	28.57
249.775	18.12
249.992	-5.03
250.21	41.06
250.428	36.32
250.646	28.88
250.863	52.72
251.081	68.13
251.299	35.32
251.517	77.21
251.734	73.83
251.952	35.2
252.17	51.34
252.387	26.22
252.605	15.22
252.823	24.83
253.04	36.96
253.258	21.53
253.475	38.58
253.693	17.49
253.911	23.74
254.128	15.09
254.346	15.69
254.563	23.28
254.781	30.76
254.998	15.21
255.216	-15.04
255.433	-25.21
255.651	-63.37
255.868	-62.06
256.086	-52.73
256.303	-38.93
256.521	-38.15
256.738	-78.09
256.956	-158.8
257.173	-19.66
257.39	53.48
257.608	22.27
257.825	20.96
258.043	27.03
258.26	-1.78
258.477	-4.47
258.695	27.57
258.912	45.03
259.129	61.67
259.346	78.11
259.564	68.44
259.781	65.74
259.998	54.37
260.216	34.93
260.433	32.52
260.65	15.47
260.867	-31.24
261.084	-2.66
261.302	7.58
261.519	-14.78
261.736	25.42
261.953	26.93
262.17	16.22
262.387	52.32
262.604	64.98
262.822	79.42
263.039	88.02
263.256	109.22
263.473	54.07
263.69	100.42
263.907	63.51
264.124	57.4
264.341	37.18
264.558	35.38
264.775	-12.29
264.992	15.28
265.209	15.68
265.426	7.34
265.643	24.86
265.86	20.44
266.077	-6.83
266.294	-3.26
266.51	-1.82
266.727	-15.36
266.944	15.65
267.161	22.6
267.378	15.45
267.595	10.58
267.812	-0.67
268.028	-20.63
268.245	-15.21
268.462	-17.1
268.679	-2.66
268.896	21.11
269.112	21.62
269.329	71.59
269.546	70.39
269.763	56.84
269.979	60.11
270.196	74.19
270.413	49.34
270.629	40.16
270.846	39.23
271.063	38.25
271.279	24.84
271.496	14.78
271.712	-40.61
271.929	-22.78
272.146	-21.25
272.362	-72.96
272.579	-42.97
272.795	-23.36
273.012	-20.97
273.228	-33.05
273.445	6.28
273.661	13.25
273.878	17.1
274.094	22.31
274.311	33.4
274.527	27.51
274.744	33.98
274.96	31.45
275.177	15.83
275.393	8.07
275.609	12.05
275.826	6.49
276.042	17.31
276.259	38.69
276.475	31.46
276.691	25.29
276.908	21.67
277.124	28.69
277.34	22.95
277.557	3.49
277.773	-6.28
277.989	-5.96
278.205	-34.94
278.422	-6.66
278.638	37.01
278.854	51.61
279.07	49.57
279.286	17.17
279.503	-20.18
279.719	-34.02
279.935	-24.81
280.151	0.65
280.367	66.7
280.583	51.97
280.799	50.54
281.016	32.38
281.232	16.27
281.448	-10.57
281.664	9.78
281.88	4.81
282.096	22.84
282.312	34.91
282.528	24.37
282.744	39.1
282.96	44.45
283.176	47.48
283.392	34.1
283.608	38.96
283.824	27.67
284.04	6.72
284.256	-0.8
284.471	-2.13
284.687	15.35
284.903	23.86
285.119	22.03
285.335	13.46
285.551	1.31
285.767	-26.63
285.982	-66.02
286.198	-104.67
286.414	-46.13
286.63	-10.09
286.846	8.06
287.061	-3.53
287.277	5.37
287.493	-4.21
287.709	-8.9
287.924	10.83
288.14	35.07
288.356	44.94
288.571	46.87
288.787	51.82
289.003	48
289.218	-5.97
289.434	-34.55
289.65	-38.43
289.865	1.5
290.081	4.12
290.296	27.26
290.512	31.95
290.727	42.8
290.943	29.16
291.159	32.46
291.374	36.03
291.59	42.76
291.805	27.31
292.021	51.19
292.236	73.82
292.451	51.99
292.667	-13.44
292.882	-9.63
293.098	-29.46
293.313	-23.46
293.529	10.4
293.744	29.61
293.959	14.03
294.175	12.97
294.39	4.8
294.605	-12.48
294.821	-14.18
295.036	2.09
295.251	22.68
295.467	17.38
295.682	10.09
295.897	24.09
296.112	29.1
296.328	22.61
296.543	42.16
296.758	73.23
296.973	43.25
297.188	58.43
297.404	48.99
297.619	45.55
297.834	22.72
298.049	28.27
298.264	-9.89
298.479	-19.37
298.694	-28.07
298.909	9.95
299.125	-0.64
299.34	2.18
299.555	21.77
299.77	20.32
299.985	27.3
300.2	35.39
300.415	53.28
300.63	27.11
300.845	5.68
301.06	7.45
301.275	-16.38
301.49	-21.98
301.704	-29.71
301.919	11.68
302.134	5.17
302.349	10.37
302.564	4.8
302.779	7.81
302.994	33.39
303.209	45.33
303.423	45.81
303.638	58.91
303.853	56.89
304.068	50.07
304.283	37.68
304.497	39.95
304.712	11.81
304.927	20.86
305.142	7.18
305.356	-1.29
305.571	17.39
305.786	35.8
306	38.16
306.215	45.05
306.43	61.67
306.644	67.08
306.859	64.39
307.074	75.46
307.288	67.93
307.503	62.47
307.717	42.73
307.932	23.58
308.147	15.4
308.361	13.15
308.576	-19.95
308.79	-5.32
309.005	18.24
309.219	-5.1
309.434	-55.74
309.648	-77.32
309.863	-101.17
310.077	-160.4
310.292	-120.13
310.506	-45.79
310.72	-12.39
310.935	-7.41
311.149	6.02
311.364	1.06
311.578	16.89
311.792	31.93
312.007	23.72
312.221	19.89
312.435	44.4
312.649	41.28
312.864	27.8
313.078	41.32
313.292	68.75
313.507	64.68
313.721	57.11
313.935	49.28
314.149	49.97
314.363	24.35
314.578	25.21
314.792	20.63
315.006	8.69
315.22	1.73
315.434	-28.6
315.648	-92.27
315.862	-133.96
316.077	-53.27
316.291	-74.48
316.505	-27.73
316.719	7.29
316.933	7.03
317.147	-12.03
317.361	-13.31
317.575	-26.23
317.789	-54.66
318.003	-53.97
318.217	-13.91
318.431	16.48
318.645	37.12
318.859	49.09
319.073	35.75
319.287	60.7
319.5	35.7
319.714	21.47
319.928	42.87
320.142	53.3
320.356	40.81
320.57	37.61
320.784	22.5
320.997	-16.37
321.211	-5.13
321.425	-19.66
321.639	-46.64
321.853	-25.96
322.066	-11.96
322.28	-23.08
322.494	-33.7
322.707	4.64
322.921	16.42
323.135	19.43
323.349	33.55
323.562	46.34
323.776	50.14
323.989	24.75
324.203	26.99
324.417	26.76
324.63	26.35
324.844	3.19
325.057	9.25
325.271	-18.45
325.485	-17.36
325.698	-27.35
325.912	-11.55
326.125	1.89
326.339	29.2
326.552	7.69
326.766	7.11
326.979	10.31
327.193	12.79
327.406	3.18
327.619	19.06
327.833	27.96
328.046	38.63
328.26	50.58
328.473	9.64
328.686	6.07
328.9	10.51
329.113	-3.2
329.326	-8.64
329.54	28.6
329.753	39.78
329.966	42.33
330.179	43.6
330.393	60.87
330.606	51
330.819	38.69
331.032	49.3
331.246	66.95
331.459	35.4
331.672	26.76
331.885	43.36
332.098	36.03
332.311	21.95
332.525	16.87
332.738	3.33
332.951	-6.04
333.164	9.74
333.377	12.21
333.59	16.31
333.803	32.48
334.016	20.31
334.229	-20.6
334.442	-3.64
334.655	19.13
334.868	37.21
335.081	39.45
335.294	53.03
335.507	32.78
335.72	32.2
335.933	21.47
336.146	24.52
336.359	16
336.572	4.92
336.785	-8.17
336.997	-13.65
337.21	12.18
337.423	36.41
337.636	51.7
337.849	57.74
338.062	46.25
338.274	2.61
338.487	-0.88
338.7	-9.7
338.913	-17.3
339.125	15.77
339.338	23.26
339.551	-1.04
339.763	40.74
339.976	50.71
340.189	49.14
340.402	31.34
340.614	47.07
340.827	43.84
341.039	30.15
341.252	18.75
341.465	29.2
341.677	23.5
341.89	1.44
342.102	27.42
342.315	24.9
342.527	37.94
342.74	31.73
342.952	32.64
343.165	20.66
343.377	42.29
343.59	5.38
343.802	15.98
344.015	17.16
344.227	10.18
344.44	14.44
344.652	32.52
344.864	34.13
345.077	43.83
345.289	31.9
345.502	26.09
345.714	24.84
345.926	37.07
346.139	21.42
346.351	25.57
346.563	7.72
346.775	-6.29
346.988	-45.31
347.2	-22.8
347.412	-29.44
347.624	12.68
347.837	27.13
348.049	24.36
348.261	7.97
348.473	23.77
348.685	32.01
348.897	45.19
349.11	64.15
349.322	70.59
349.534	60.55
349.746	25.49
349.958	15.62
350.17	10.04
350.382	-1.77
350.594	-11.42
350.806	5.92
351.018	17.3
351.23	15.61
351.442	28.05
351.654	27.95
351.866	28.78
352.078	13.86
352.29	27.74
352.502	38.62
352.714	22.97
352.926	24.27
353.138	32.35
353.35	29.09
353.561	10.35
353.773	11.47
353.985	-3.27
354.197	3.43
354.409	-9.2
354.621	-15.57
354.832	12.63
355.044	3.66
355.256	17.25
355.468	20.38
355.679	33.85
355.891	39.85
356.103	42.2
356.314	38.78
356.526	37.74
356.738	48.45
356.949	27.78
357.161	41.42
357.373	26.24
357.584	37.68
357.796	47.01
358.008	25.4
358.219	15.95
358.431	25.58
358.642	13.31
358.854	20.56
359.065	41.28
359.277	51.07
359.488	32.09
359.7	30.8
359.911	6.47
360.123	3.38
360.334	-8.19
360.546	1.88
360.757	4.26
360.969	13.62
361.18	16.58
361.391	12.74
361.603	24.92
361.814	28.24
362.025	36.53
362.237	24.36
362.448	18.57
362.659	4.1
362.871	-10.21
363.082	-16.78
363.293	-34.99
363.504	-28.81
363.716	-5.88
363.927	20.77
364.138	16.04
364.349	12.74
364.56	17.21
364.772	10.17
364.983	1.66
365.194	14.27
365.405	36.48
365.616	31.49
365.827	33.56
366.038	49.62
366.25	45.66
366.461	32.6
366.672	41.21
366.883	35.18
367.094	11.14
367.305	10.85
367.516	31.94
367.727	27.76
367.938	22.79
368.149	21.51
368.36	21.16
368.571	-14.34
368.781	-3.14
368.992	1.36
369.203	31.44
369.414	44.33
369.625	48.99
369.836	41.24
370.047	39.16
370.258	27.95
370.468	20.66
370.679	21.93
370.89	16.99
371.101	10.94
371.312	18.58
371.522	26.85
371.733	35.29
371.944	37.75
372.155	39.93
372.365	13.77
372.576	24.17
372.787	19.25
372.997	26.97
373.208	31.39
373.419	61.37
373.629	27.89
373.84	32.32
374.05	26.75
374.261	22.49
374.472	16.97
374.682	18.05
374.893	18.65
375.103	13.74
375.314	21.26
375.524	19.82
375.735	24.71
375.945	33.88
376.156	35.64
376.366	35.03
376.577	42.35
376.787	40.61
376.997	24.18
377.208	24.54
377.418	29.41
377.629	25.67
377.839	43.1
378.049	42.58
378.26	41.47
378.47	40.96
378.68	52.34
378.89	36.75
379.101	31.31
379.311	35.67
379.521	30.45
379.732	20.57
379.942	18.91
380.152	34.84
380.362	21.49
380.572	25.03
380.783	16.18
380.993	19.98
381.203	17.65
381.413	25.64
381.623	29.37
381.833	40.46
382.043	45.29
382.253	41.58
382.463	49.24
382.674	52.43
382.884	40.93
383.094	28.93
383.304	28.86
383.514	17.06
383.724	4.83
383.934	7.37
384.144	11.95
384.353	8.78
384.563	12.24
384.773	20.3
384.983	18.11
385.193	16.74
385.403	18.72
385.613	21.22
385.823	9.27
386.033	16.04
386.242	16.8
386.452	15.99
386.662	17.89
386.872	21.83
387.082	19.8
387.291	9.43
387.501	9.81
387.711	7.88
387.921	7.93
388.13	7.27
388.34	16.66
388.55	14.19
388.759	9.73
388.969	9.53
389.179	9.66
389.388	8.99
389.598	10.9
389.807	13.35
390.017	13.9
390.227	11.91
390.436	8.23
390.646	6.26
390.855	3.64
391.065	1.43
391.274	3.71
391.484	7.09
391.693	7.31
391.903	9.52
392.112	9.75
392.322	7.27
392.531	6.77
392.74	6.4
392.95	4.12
393.159	4.7
393.369	4.97
393.578	4.15
393.787	5.03
393.997	5.84
394.206	6
394.415	7.89
394.625	9.41
394.834	8.21
395.043	7.91
395.252	8.38
395.462	7.98
395.671	6.8
395.88	8.96
396.089	9.12
396.298	8.4
396.508	8.26
396.717	8.61
396.926	7.18
397.135	6.46
397.344	6.74
397.553	6.63
397.762	6.4
397.971	6.17
398.181	6.29
398.39	5.97
398.599	6.22
398.808	5.99
399.017	6.01
399.226	6.38
399.435	6.58
399.644	6.59
399.853	6.84
400.062	7.17
400.27	7.13
400.479	7.18
400.688	7.03
400.897	7.3
401.106	7.01
401.315	6.96
401.524	6.76
401.733	6.48
401.941	6.14
402.15	6.09
402.359	6.09
402.568	5.97
402.777	6.06
402.985	5.93
403.194	6.09
403.403	6.06
403.612	6.16
403.82	6.23
404.029	6.3
404.238	6.33
404.446	6.34
404.655	6.43
404.864	6.41
405.072	6.37
405.281	6.15
405.489	6.1
405.698	6.17
405.906	6.16
406.115	6.07
406.324	6.22
406.532	6.1
406.741	5.88
406.949	5.76
407.158	5.95
407.366	5.81
407.574	6.02
407.783	6.05
407.991	5.89
408.2	5.71
408.408	5.65
408.617	5.53
408.825	5.55
409.033	5.65
409.242	5.62
409.45	5.43
409.658	5.41
409.867	5.37
410.075	5.33
410.283	5.47
410.491	5.62
410.7	5.7
410.908	5.68
411.116	5.81
411.324	5.8
411.533	5.8
411.741	5.61
411.949	5.61
412.157	5.6
412.365	5.61
412.573	5.52
412.781	5.61
412.99	5.69
413.198	5.79
413.406	5.76
413.614	5.81
413.822	5.79
414.03	5.79
414.238	5.59
414.446	5.51
414.654	5.55
414.862	5.45
415.07	5.31
415.278	5.4
415.486	5.2
415.694	5.31
415.902	5.29
416.109	5.29
416.317	5.21
416.525	5.37
416.733	5.12
416.941	5.29
417.149	5.32
417.357	5.25
417.564	5.1
417.772	5.1
417.98	4.92
418.188	4.74
418.395	4.66
418.603	4.85
418.811	4.85
419.019	5.07
419.226	5.26
419.434	5.55
419.642	5.58
419.849	5.69
420.057	5.49
420.265	5.43
420.472	5.07
420.68	5.03
420.887	5.1
421.095	5.03
421.302	4.85
421.51	4.97
421.717	4.89
421.925	4.77
422.132	4.74
422.34	4.96
422.547	4.95
422.755	5.04
422.962	5.17
423.17	5.41
423.377	5.29
423.585	5.31
423.792	5.18
423.999	5
424.207	4.78
424.414	4.66
424.621	4.84
424.829	4.82
425.036	5.03
425.243	5.19
425.451	5.34
425.658	5.25
425.865	5.14
426.072	4.97
426.28	4.87
426.487	5
426.694	4.84
426.901	5.02
427.108	5.1
427.315	5.08
427.523	4.82
427.73	4.84
427.937	4.82
428.144	4.82
428.351	4.99
428.558	5.2
428.765	5.07
428.972	4.99
429.179	4.95
429.386	4.8
429.593	4.88
429.8	5.04
430.007	5.04
430.214	5.16
430.421	5.26
430.628	5.06
430.835	5.28
431.042	5.32
431.249	5.27
431.456	5.27
431.662	5.38
431.869	5.4
432.076	5.48
432.283	5.48
432.49	5.42
432.697	5.44
432.903	5.13
433.11	5.01
433.317	4.9
433.524	4.92
433.73	4.89
433.937	4.9
434.144	4.99
434.35	5.13
434.557	5.07
434.764	5.06
434.97	5.13
435.177	5.24
435.384	4.94
435.59	4.93
435.797	4.99
436.003	5.01
436.21	4.75
436.416	4.86
436.623	4.89
436.829	4.82
437.036	4.76
437.242	4.93
437.449	5.1
437.655	5.21
437.862	5.4
438.068	5.65
438.275	5.7
438.481	5.64
438.687	5.42
438.894	5.42
439.1	5.17
439.307	5.21
439.513	5.24
439.719	5.38
439.926	5.28
440.132	5.38
440.338	5.33
440.544	5.34
440.751	5.38
440.957	5.35
441.163	5.32
441.369	5.29
441.575	5.19
441.782	5.22
441.988	5.23
442.194	5.13
442.4	5.07
442.606	5.14
442.812	5.11
443.018	5.12
443.224	5.12
443.431	5.24
443.637	5.2
443.843	5.2
444.049	5.21
444.255	5.3
444.461	5.17
444.667	5.22
444.873	5.18
445.079	5.13
445.284	5.3
445.49	5.37
445.696	5.37
445.902	5.43
446.108	5.53
446.314	5.34
446.52	5.34
446.726	5.42
446.931	5.28
447.137	5.22
447.343	5.22
447.549	5.18
447.755	5.15
447.96	5.2
448.166	5.25
448.372	5.26
448.578	5.36
448.783	5.39
448.989	5.39
449.195	5.45
449.4	5.51
449.606	5.56
449.812	5.5
450.017	5.72
450.223	5.62
450.428	5.56
450.634	5.49
450.84	5.51
451.045	5.37
451.251	5.52
451.456	5.67
451.662	5.77
451.867	5.71
452.073	5.77
452.278	5.6
452.483	5.56
452.689	5.45
452.894	5.57
453.1	5.6
453.305	5.59
453.51	5.56
453.716	5.65
453.921	5.64
454.127	5.65
454.332	5.72
454.537	5.78
454.742	5.79
454.948	5.61
455.153	5.58
455.358	5.58
455.563	5.57
455.769	5.41
455.974	5.57
456.179	5.45
456.384	5.29
456.589	5.3
456.795	5.38
457	5.43
457.205	5.48
457.41	5.68
457.615	5.64
457.82	5.68
458.025	5.65
458.23	5.69
458.435	5.56
458.64	5.54
458.845	5.62
459.05	5.49
459.255	5.52
459.46	5.7
459.665	5.84
459.87	5.76
460.075	5.9
460.28	5.87
460.485	5.82
460.69	5.66
460.895	5.63
461.099	5.61
461.304	5.63
461.509	5.67
461.714	5.71
461.919	5.7
462.123	5.67
462.328	5.67
462.533	5.61
462.738	5.65
462.942	5.75
463.147	5.79
463.352	5.86
463.556	5.94
463.761	5.9
463.966	5.82
464.17	5.93
464.375	5.9
464.58	5.87
464.784	5.97
464.989	6.1
465.193	5.95
465.398	6.03
465.602	6.24
465.807	6.32
466.011	6.31
466.216	6.42
466.42	6.46
466.625	6.34
466.829	6.31
467.034	6.26
467.238	6.32
467.443	6.16
467.647	6.02
467.851	5.95
468.056	5.96
468.26	5.9
468.464	5.96
468.669	6.05
468.873	6
469.077	6
469.282	6.05
469.486	6.01
469.69	6.04
469.894	6.05
470.099	6.06
470.303	5.96
470.507	6.05
470.711	6.06
470.915	6.15
471.119	6.19
471.324	6.34
471.528	6.2
471.732	6.21
471.936	6.18
472.14	6.16
472.344	6.08
472.548	6.18
472.752	6.09
472.956	6.16
473.16	6.24
473.364	6.24
473.568	6.22
473.772	6.26
473.976	6.19
474.18	6.06
474.384	6.12
474.588	6.22
474.792	6.23
474.995	6.2
475.199	6.26
475.403	6.18
475.607	6.15
475.811	6.1
476.015	6.12
476.218	6.06
476.422	6.05
476.626	6.12
476.83	6.14
477.033	6.21
477.237	6.34
477.441	6.34
477.644	6.25
477.848	6.29
478.052	6.13
478.255	5.95
478.459	5.96
478.663	5.95
478.866	5.92
479.07	6.04
479.273	6.01
479.477	6.11
479.681	6.16
479.884	6.22
480.088	6.14
480.291	6.32
480.495	6.23
480.698	6.17
480.901	6.18
481.105	6.28
481.308	6.17
481.512	6.13
481.715	6.19
481.919	6.16
482.122	6.15
482.325	6.23
482.529	6.26
482.732	6.31
482.935	6.21
483.138	6.33
483.342	6.23
483.545	6.31
483.748	6.29
483.952	6.37
484.155	6.28
484.358	6.28
484.561	6.28
484.764	6.16
484.967	6.2
485.171	6.15
485.374	6.18
485.577	6.1
485.78	6.19
485.983	6.13
486.186	6.16
486.389	6.14
486.592	6.27
486.795	6.29
486.998	6.3
487.201	6.33
487.404	6.34
487.607	6.32
487.81	6.25
488.013	6.23
488.216	6.18
488.419	6.25
488.622	6.16
488.825	6.2
489.028	6.19
489.231	6.23
489.433	6.26
489.636	6.32
489.839	6.26
490.042	6.31
490.245	6.25
490.447	6.22
490.65	6.18
490.853	6.28
491.056	6.29
491.258	6.34
491.461	6.39
491.664	6.33
491.866	6.3
492.069	6.36
492.272	6.3
492.474	6.31
492.677	6.34
492.879	6.33
493.082	6.35
493.285	6.36
493.487	6.28
493.69	6.34
493.892	6.42
494.095	6.42
494.297	6.46
494.5	6.55
494.702	6.57
494.905	6.54
495.107	6.49
495.309	6.52
495.512	6.44
495.714	6.52
495.917	6.57
496.119	6.67
496.321	6.7
496.524	6.76
496.726	6.75
496.928	6.67
497.13	6.68
497.333	6.7
497.535	6.82
497.737	6.84
497.939	6.98
498.142	6.98
498.344	7.01
498.546	6.98
498.748	6.96
498.95	6.9
499.152	6.88
499.355	6.95
499.557	6.93
499.759	7.04
499.961	7.04
500.163	7.1
500.365	7.17
500.567	7.2
500.769	7.2
500.971	7.25
501.173	7.27
501.375	7.2
501.577	7.19
501.779	7.23
501.981	7.29
502.183	7.31
502.385	7.28
502.587	7.28
502.788	7.23
502.99	7.14
503.192	7.11
503.394	7.12
503.596	7.05
503.798	7.08
503.999	7.1
504.201	7.04
504.403	7.05
504.605	7.16
504.806	7.1
505.008	7.08
505.21	7.1
505.411	7.11
505.613	7.09
505.815	7.16
506.016	7.15
506.218	7.13
506.42	7.1
506.621	7.05
506.823	6.96
507.024	6.94
507.226	7.04
507.427	7.01
507.629	7.03
507.83	7.05
508.032	7.01
508.233	6.93
508.435	6.91
508.636	6.89
508.838	6.85
509.039	6.86
509.24	6.85
509.442	6.84
509.643	6.82
509.845	6.82
510.046	6.78
510.247	6.78
510.448	6.78
510.65	6.72
510.851	6.7
511.052	6.74
511.254	6.69
511.455	6.69
511.656	6.65
511.857	6.65
512.058	6.56
512.26	6.55
512.461	6.55
512.662	6.59
512.863	6.53
513.064	6.65
513.265	6.63
513.466	6.6
513.667	6.63
513.868	6.63
514.069	6.59
514.27	6.59
514.471	6.54
514.672	6.49
514.873	6.4
515.074	6.38
515.275	6.36
515.476	6.43
515.677	6.4
515.878	6.51
516.079	6.47
516.28	6.45
516.481	6.33
516.682	6.35
516.882	6.31
517.083	6.29
517.284	6.29
517.485	6.35
517.686	6.37
517.886	6.35
518.087	6.33
518.288	6.35
518.488	6.31
518.689	6.22
518.89	6.2
519.091	6.19
519.291	6.15
519.492	6.15
519.692	6.18
519.893	6.24
520.094	6.17
520.294	6.2
520.495	6.18
520.695	6.19
520.896	6.14
521.096	6.19
521.297	6.19
521.497	6.26
521.698	6.22
521.898	6.23
522.099	6.25
522.299	6.26
522.499	6.19
522.7	6.17
522.9	6.14
523.101	6.1
523.301	6.07
523.501	6.06
523.702	6.14
523.902	6.15
524.102	6.2
524.302	6.17
524.503	6.14
524.703	6.14
524.903	6.12
525.103	6.12
525.304	6.09
525.504	6.18
525.704	6.12
525.904	6.09
526.104	6.04
526.304	6.13
526.504	6.09
526.705	6.11
526.905	6.17
527.105	6.19
527.305	6.16
527.505	6.18
527.705	6.19
527.905	6.14
528.105	6.1
528.305	6.09
528.505	6.04
528.705	6.03
528.905	6.02
529.105	6.03
529.304	6.03
529.504	6.01
529.704	6.02
529.904	6.09
530.104	6.12
530.304	6.12
530.503	6.14
530.703	6.09
530.903	6.07
531.103	6.04
531.303	6.02
531.502	6.05
531.702	6.05
531.902	6.05
532.101	6.09
532.301	6.04
532.501	6.05
532.7	6.1
532.9	6.1
533.1	6.05
533.299	6.13
533.499	6.13
533.698	6.12
533.898	6.13
534.097	6.17
534.297	6.14
534.496	6.11
534.696	6.13
534.895	6.14
535.095	6.12
535.294	6.15
535.494	6.13
535.693	6.09
535.892	6.04
536.092	6.13
536.291	6.08
536.491	6.16
536.69	6.2
536.889	6.25
537.088	6.15
537.288	6.15
537.487	6.11
537.686	6.08
537.886	6.09
538.085	6.13
538.284	6.19
538.483	6.2
538.682	6.27
538.882	6.27
539.081	6.24
539.28	6.2
539.479	6.21
539.678	6.14
539.877	6.13
540.076	6.17
540.275	6.2
540.474	6.15
540.673	6.22
540.872	6.2
541.071	6.21
541.27	6.2
541.469	6.21
541.668	6.2
541.867	6.28
542.066	6.3
542.265	6.42
542.464	6.45
542.663	6.49
542.862	6.53
543.06	6.57
543.259	6.49
543.458	6.47
543.657	6.5
543.856	6.48
544.054	6.48
544.253	6.52
544.452	6.56
544.651	6.55
544.849	6.49
545.048	6.47
545.247	6.52
545.445	6.52
545.644	6.52
545.843	6.59
546.041	6.62
546.24	6.64
546.438	6.74
546.637	6.73
546.836	6.72
547.034	6.77
547.233	6.81
547.431	6.82
547.63	6.9
547.828	6.97
548.027	6.95
548.225	6.89
548.423	6.87
548.622	6.83
548.82	6.76
549.019	6.81
549.217	6.81
549.415	6.84
549.614	6.94
549.812	6.99
550.01	7.03
550.209	7.07
550.407	7.12
550.605	7.09
550.803	7.2
551.002	7.22
551.2	7.28
551.398	7.38
551.596	7.43
551.794	7.41
551.993	7.44
552.191	7.44
552.389	7.4
552.587	7.37
552.785	7.35
552.983	7.44
553.181	7.45
553.379	7.54
553.577	7.66
553.775	7.74
553.973	7.77
554.171	7.86
554.369	7.88
554.567	7.91
554.765	7.97
554.963	8.01
555.161	8.01
555.359	8.01
555.557	8.05
555.755	8.06
555.952	8.06
556.15	8.17
556.348	8.22
556.546	8.29
556.744	8.34
556.941	8.38
557.139	8.36
557.337	8.43
557.535	8.39
557.732	8.41
557.93	8.51
558.128	8.62
558.325	8.69
558.523	8.75
558.721	8.78
558.918	8.73
559.116	8.73
559.313	8.78
559.511	8.93
559.708	9.03
559.906	9.14
560.104	9.16
560.301	9.24
560.498	9.18
560.696	9.2
560.893	9.26
561.091	9.36
561.288	9.4
561.486	9.5
561.683	9.53
561.88	9.57
562.078	9.6
562.275	9.62
562.473	9.62
562.67	9.76
562.867	9.75
563.064	9.8
563.262	9.81
563.459	9.92
563.656	9.88
563.853	9.96
564.051	9.94
564.248	10.04
564.445	10.07
564.642	10.07
564.839	10.16
565.036	10.29
565.234	10.22
565.431	10.26
565.628	10.32
565.825	10.32
566.022	10.39
566.219	10.55
566.416	10.58
566.613	10.72
566.81	10.84
567.007	10.79
567.204	10.77
567.401	10.8
567.598	10.81
567.795	10.79
567.991	10.82
568.188	10.9
568.385	10.88
568.582	10.87
568.779	10.87
568.976	11.02
569.172	11.01
569.369	11.12
569.566	11.24
569.763	11.3
569.96	11.23
570.156	11.28
570.353	11.29
570.55	11.25
570.746	11.18
570.943	11.16
571.14	11.18
571.336	11.19
571.533	11.18
571.729	11.31
571.926	11.37
572.123	11.4
572.319	11.46
572.516	11.45
572.712	11.52
572.909	11.57
573.105	11.64
573.302	11.6
573.498	11.63
573.695	11.5
573.891	11.43
574.087	11.34
574.284	11.34
574.48	11.38
574.677	11.44
574.873	11.46
575.069	11.53
575.266	11.57
575.462	11.54
575.658	11.56
575.854	11.66
576.051	11.54
576.247	11.54
576.443	11.57
576.639	11.53
576.835	11.38
577.032	11.41
577.228	11.32
577.424	11.33
577.62	11.29
577.816	11.28
578.012	11.32
578.208	11.28
578.404	11.31
578.6	11.37
578.796	11.42
578.993	11.45
579.189	11.54
579.384	11.5
579.58	11.43
579.776	11.39
579.972	11.24
580.168	11.16
580.364	11.13
580.56	11.17
580.756	11.16
580.952	11.25
581.148	11.3
581.343	11.27
581.539	11.38
581.735	11.3
581.931	11.25
582.127	11.22
582.322	11.15
582.518	10.95
582.714	11.04
582.909	11.04
583.105	11
583.301	11.04
583.496	11.04
583.692	10.97
583.888	10.95
584.083	10.88
584.279	10.92
584.474	10.91
584.67	10.84
584.866	10.83
585.061	10.87
585.257	10.79
585.452	10.83
585.648	10.86
585.843	10.89
586.039	10.83
586.234	10.89
586.429	10.82
586.625	10.86
586.82	10.89
587.015	10.85
587.211	10.71
587.406	10.67
587.601	10.7
587.797	10.58
587.992	10.57
588.187	10.68
588.383	10.78
588.578	10.71
588.773	10.72
588.968	10.85
589.163	10.92
589.359	10.88
589.554	10.95
589.749	11
589.944	10.94
590.139	10.84
590.334	10.82
590.529	10.72
590.724	10.78
590.919	10.87
591.114	10.94
591.309	10.97
591.504	11.05
591.699	10.98
591.894	10.98
592.089	11.03
592.284	11.06
592.479	11.07
592.674	11.14
592.869	11.13
593.064	11.13
593.259	11.17
593.454	11.16
593.648	11.19
593.843	11.15
594.038	11.15
594.233	11.1
594.428	11.19
594.622	11.25
594.817	11.41
595.012	11.44
595.206	11.59
595.401	11.65
595.596	11.62
595.79	11.62
595.985	11.67
596.18	11.71
596.374	11.74
596.569	11.81
596.763	11.91
596.958	12.04
597.153	12.02
597.347	12.06
597.542	12.12
597.736	12.12
597.931	12.1
598.125	12.15
598.319	12.18
598.514	12.23
598.708	12.22
598.903	12.25
599.097	12.41
599.291	12.5
599.486	12.51
599.68	12.52
599.874	12.6
600.069	12.53
600.263	12.53
600.457	12.59
600.651	12.62
600.846	12.58
601.04	12.56
601.234	12.52
601.428	12.5
601.622	12.58
601.817	12.55
602.011	12.6
602.205	12.67
602.399	12.71
602.593	12.69
602.787	12.76
602.981	12.8
603.175	12.8
603.369	12.73
603.563	12.67
603.757	12.69
603.951	12.59
604.145	12.52
604.339	12.53
604.533	12.57
604.727	12.59
604.921	12.66
605.115	12.68
605.309	12.71
605.502	12.69
605.696	12.52
605.89	12.54
606.084	12.61
606.278	12.52
606.471	12.51
606.665	12.5
606.859	12.32
607.053	12.13
607.246	12.12
607.44	12.1
607.634	12.11
607.827	12.2
608.021	12.09
608.214	12.08
608.408	12.03
608.602	11.98
608.795	11.89
608.989	11.97
609.182	11.91
609.376	11.92
609.569	11.86
609.763	11.76
609.956	11.78
610.15	11.63
610.343	11.55
610.537	11.53
610.73	11.59
610.923	11.53
611.117	11.61
611.31	11.53
611.504	11.45
611.697	11.4
611.89	11.25
612.083	11.19
612.277	11.11
612.47	11.07
612.663	10.96
612.856	10.89
613.05	10.84
613.243	10.82
613.436	10.77
613.629	10.69
613.822	10.75
614.015	10.7
614.209	10.59
614.402	10.58
614.595	10.56
614.788	10.49
614.981	10.36
615.174	10.38
615.367	10.34
615.56	10.31
615.753	10.26
615.946	10.26
616.139	10.22
616.332	10.13
616.525	10.1
616.718	10.04
616.911	10
617.103	9.98
617.296	10.01
617.489	10
617.682	10.09
617.875	10.09
618.067	10
618.26	9.93
618.453	9.8
618.646	9.68
618.838	9.63
619.031	9.49
619.224	9.49
619.417	9.55
619.609	9.49
619.802	9.57
619.994	9.65
620.187	9.61
620.38	9.57
620.572	9.6
620.765	9.6
620.957	9.57
621.15	9.49
621.342	9.44
621.535	9.4
621.727	9.32
621.92	9.3
622.112	9.31
622.305	9.38
622.497	9.39
622.69	9.27
622.882	9.3
623.074	9.43
623.267	9.4
623.459	9.4
623.651	9.45
623.844	9.44
624.036	9.36
624.228	9.31
624.42	9.22
624.613	9.24
624.805	9.23
624.997	9.18
625.189	9.12
625.381	9.13
625.574	9.1
625.766	9.06
625.958	9.01
626.15	9.07
626.342	8.99
626.534	8.99
626.726	8.96
626.918	8.96
627.11	8.88
627.302	8.9
627.494	8.76
627.686	8.8
627.878	8.83
628.07	8.83
628.262	8.81
628.454	8.84
628.646	8.78
628.838	8.72
629.029	8.69
629.221	8.67
629.413	8.64
629.605	8.62
629.797	8.67
629.989	8.61
630.18	8.69
630.372	8.63
630.564	8.66
630.755	8.52
630.947	8.59
631.139	8.53
631.33	8.59
631.522	8.56
631.714	8.56
631.905	8.45
632.097	8.4
632.289	8.39
632.48	8.38
632.672	8.34
632.863	8.38
633.055	8.4
633.246	8.4
633.438	8.36
633.629	8.36
633.821	8.29
634.012	8.23
634.203	8.17
634.395	8.21
634.586	8.35
634.777	8.42
634.969	8.43
635.16	8.46
635.351	8.38
635.543	8.29
635.734	8.18
635.925	8.22
636.117	8.25
636.308	8.36
636.499	8.3
636.69	8.34
636.881	8.35
637.073	8.37
637.264	8.32
637.455	8.3
637.646	8.31
637.837	8.24
638.028	8.12
638.219	8.06
638.41	8.17
638.601	8.22
638.792	8.32
638.983	8.37
639.174	8.35
639.365	8.34
639.556	8.26
639.747	8.2
639.938	8.25
640.129	8.38
640.32	8.29
640.511	8.36
640.701	8.27
640.892	8.24
641.083	8.1
641.274	8.11
641.465	8.07
641.655	8.18
641.846	8.23
642.037	8.28
642.228	8.29
642.418	8.28
642.609	8.19
642.8	8.17
642.99	8.06
643.181	8.04
643.372	8.01
643.562	8.07
643.753	8.02
643.943	8.11
644.134	8.11
644.324	8.16
644.515	8.17
644.705	8.17
644.896	8.17
645.086	8.22
645.277	8.27
645.467	8.25
645.658	8.22
645.848	8.07
646.038	8.04
646.229	8
646.419	7.85
646.61	7.92
646.8	8.03
646.99	8.05
647.18	7.92
647.371	8.04
647.561	7.98
647.751	7.99
647.941	7.95
648.132	8.03
648.322	8.03
648.512	8.03
648.702	8.02
648.892	8
649.082	7.99
649.272	8.01
649.462	8.02
649.653	8.05
649.843	8.03
650.033	8.02
650.223	7.88
650.413	7.86
650.603	7.89
650.793	8
650.983	7.99
651.172	8.01
651.362	7.9
651.552	7.77
651.742	7.63
651.932	7.68
652.122	7.76
652.312	7.8
652.502	7.84
652.691	7.87
652.881	7.87
653.071	7.86
653.261	7.77
653.45	7.66
653.64	7.6
653.83	7.5
654.019	7.37
654.209	7.36
654.399	7.43
654.588	7.32
654.778	7.25
654.968	7.13
655.157	7.08
655.347	7
655.536	6.96
655.726	6.89
655.915	6.89
656.105	6.83
656.294	6.76
656.484	6.7
656.673	6.67
656.863	6.72
657.052	6.71
657.241	6.61
657.431	6.65
657.62	6.56
657.809	6.4
657.999	6.33
658.188	6.28
658.377	6.22
658.567	6.15
658.756	6.06
658.945	6.07
659.134	6
659.324	5.88
659.513	5.79
659.702	5.77
659.891	5.62
660.08	5.55
660.269	5.52
660.458	5.5
660.648	5.48
660.837	5.43
661.026	5.27
661.215	5.23
661.404	5.19
661.593	5.09
661.782	4.99
661.971	5.17
662.16	5.15
662.349	5.1
662.538	5.14
662.726	5.19
662.915	5.06
663.104	4.9
663.293	4.83
663.482	4.84
663.671	4.86
663.86	4.9
664.048	5.02
664.237	5.13
664.426	4.99
664.615	4.92
664.803	4.82
664.992	4.78
665.181	4.72
665.369	4.75
665.558	4.74
665.747	4.9
665.935	4.93
666.124	4.93
666.312	4.87
666.501	4.98
666.69	4.98
666.878	4.89
667.067	4.85
667.255	5.03
667.444	5.03
667.632	5.05
667.82	5.1
668.009	5.2
668.197	5.17
668.386	5.01
668.574	4.96
668.762	5.05
668.951	5.07
669.139	4.98
669.327	5.07
669.516	4.99
669.704	4.9
669.892	4.84
670.08	4.87
670.269	4.91
670.457	4.97
670.645	4.95
670.833	4.96
671.021	4.97
671.21	5.02
671.398	4.97
671.586	4.89
671.774	4.96
671.962	5.03
672.15	4.99
672.338	5.16
672.526	5.36
672.714	5.47
672.902	5.34
673.09	5.32
673.278	5.27
673.466	5.31
673.654	5.27
673.842	5.41
674.03	5.59
674.218	5.67
674.405	5.65
674.593	5.76
674.781	5.92
674.969	5.77
675.157	5.79
675.344	5.81
675.532	5.72
675.72	5.67
675.908	5.77
676.095	5.77
676.283	5.79
676.471	5.79
676.658	5.74
676.846	5.71
677.033	5.67
677.221	5.73
677.409	5.72
677.596	5.83
677.784	5.87
677.971	5.99
678.159	5.97
678.346	6.04
678.534	6.01
678.721	6.18
678.909	6.18
679.096	6.22
679.283	6.19
679.471	6.3
679.658	6.33
679.846	6.29
680.033	6.48
680.22	6.76
680.408	6.75
680.595	6.61
680.782	6.57
680.969	6.42
681.157	6.26
681.344	6.35
681.531	6.56
681.718	6.66
681.905	6.68
682.093	6.69
682.28	6.72
682.467	6.79
682.654	6.79
682.841	6.77
683.028	6.78
683.215	6.8
683.402	6.66
683.589	6.79
683.776	6.93
683.963	7.02
684.15	7.1
684.337	7.11
684.524	7.2
684.711	7.25
684.898	7.3
685.085	7.2
685.271	7.38
685.458	7.34
685.645	7.28
685.832	7.21
686.019	7.34
686.205	7.44
686.392	7.48
686.579	7.8
686.766	8.16
686.952	8.29
687.139	8.31
687.326	8.38
687.512	8.37
687.699	8.42
687.886	8.44
688.072	8.33
688.259	8.56
688.445	8.69
688.632	8.65
688.818	8.9
689.005	9.27
689.191	9.49
689.378	9.72
689.564	10.21
689.751	10.19
689.937	10.49
690.124	10.66
690.31	10.84
690.496	11.02
690.683	11.37
690.869	11.62
691.055	11.97
691.242	12.26
691.428	12.44
691.614	12.75
691.8	13.01
691.987	13.22
692.173	13.57
692.359	14.01
692.545	14.36
692.731	14.65
692.918	15.29
693.104	15.85
693.29	16.08
693.476	16.6
693.662	17.12
693.848	17.55
694.034	17.72
694.22	18.57
694.406	19.06
694.592	19.44
694.778	19.72
694.964	20.28
695.15	20.47
695.336	20.67
695.522	21.32
695.708	21.92
695.894	22.33
696.08	22.96
696.265	23.77
696.451	24.16
696.637	24.47
696.823	25.03
697.009	25.46
697.194	25.79
697.38	26.39
697.566	26.88
697.751	27.26
697.937	27.71
698.123	28.41
698.308	28.68
698.494	29.39
698.68	30.13
698.865	30.83
699.051	31.19
699.236	31.86
699.422	32.53
699.607	33.1
699.793	33.5
699.978	34.14
700.164	34.77
700.349	35.22
700.535	35.51
700.72	36.23
700.906	36.92
701.091	37.55
701.276	37.94
701.462	38.43
701.647	38.92
701.832	39.2
702.018	39.75
702.203	40.2
702.388	40.75
702.573	41.22
702.759	41.97
702.944	42.21
703.129	42.88
703.314	43.43
703.499	43.76
703.684	44.13
703.87	44.44
704.055	44.92
704.24	45.64
704.425	45.93
704.61	46.47
704.795	47.28
704.98	47.72
705.165	48.06
705.35	48.77
705.535	49.02
705.72	49.45
705.905	49.53
706.09	49.66
706.275	49.87
706.459	50.07
706.644	49.86
706.829	50.54
707.014	51.05
707.199	51.74
707.384	51.81
707.568	52.49
707.753	52.8
707.938	52.97
708.123	53.2
708.307	53.64
708.492	54.07
708.677	53.77
708.861	53.89
709.046	53.71
709.231	54.16
709.415	54.34
709.6	54.78
709.784	55.17
709.969	55.68
710.153	55.64
710.338	55.54
710.522	56.23
710.707	56.45
710.891	56.58
711.076	57.15
711.26	57.56
711.445	57.94
711.629	58.07
711.813	58.41
711.998	58.48
712.182	58.46
712.366	58.33
712.551	58.53
712.735	58.4
712.919	58.37
713.103	58.89
713.288	59.08
713.472	59.16
713.656	59.22
713.84	59.63
714.024	60.07
714.208	60.23
714.393	60.31
714.577	61.05
714.761	61
714.945	60.88
715.129	61
715.313	61.43
715.497	61.13
715.681	61.28
715.865	61.21
716.049	60.81
716.233	60.85
716.417	61.1
716.601	61.46
716.785	61.73
716.968	62.13
717.152	62.5
717.336	63.01
717.52	63.02
717.704	63.14
717.888	63.52
718.071	63.94
718.255	63.59
718.439	63.35
718.622	62.93
718.806	62.68
718.99	61.98
719.174	61.81
719.357	62.09
719.541	62.63
719.724	62.62
719.908	62.75
720.092	62.96
720.275	63.37
720.459	63.4
720.642	63.88
720.826	64.14
721.009	64.28
721.193	63.65
721.376	64.05
721.559	64.05
721.743	64.56
721.926	65.1
722.11	65.88
722.293	66.04
722.476	66.56
722.66	66.22
722.843	65.76
723.026	65.72
723.21	65.57
723.393	65.32
723.576	65.69
723.759	66.35
723.942	66.37
724.126	66.46
724.309	66.82
724.492	67.03
724.675	66.91
724.858	67.08
725.041	67.2
725.224	67.12
725.407	67.2
725.59	67.76
725.774	68.18
725.957	68.16
726.14	67.93
726.322	67.85
726.505	67.33
726.688	67.33
726.871	67.55
727.054	67.91
727.237	68.19
727.42	68.98
727.603	69.21
727.786	69.57
727.968	69.49
728.151	69.32
728.334	68.71
728.517	68.93
728.699	69.2
728.882	69.72
729.065	70.6
729.248	71.53
729.43	71.5
729.613	71.81
729.796	72.08
729.978	72.59
730.161	71.88
730.343	72.53
730.526	71.74
730.708	71.25
730.891	70.29
731.073	70.49
731.256	69.74
731.438	70.15
731.621	70.12
731.803	70.06
731.986	70.75
732.168	71.33
732.35	72.22
732.533	73.14
732.715	73.87
732.898	73.35
733.08	74.02
733.262	74.48
733.444	73.74
733.627	74.49
733.809	74.66
733.991	74.19
734.173	73.64
734.355	74.35
734.538	73.87
734.72	74.82
734.902	75.52
735.084	75.67
735.266	75.83
735.448	75.95
735.63	75.48
735.812	75.08
735.994	73.94
736.176	73.77
736.358	74.23
736.54	74.81
736.722	74.94
736.904	76.08
737.086	76.12
737.268	76.04
737.45	75.92
737.632	75.84
737.814	76.17
737.995	77.02
738.177	76.98
738.359	77.51
738.541	77.39
738.723	77.48
738.904	77.21
739.086	77.29
739.268	76.76
739.449	78
739.631	77.84
739.813	78.65
739.994	78.62
740.176	79.4
740.358	78.74
740.539	79.7
740.721	78.74
740.902	78.77
741.084	78.31
741.265	78.31
741.447	77.45
741.628	77.24
741.81	77.43
741.991	78.34
742.172	78.72
742.354	79.41
742.535	79.48
742.717	79.93
742.898	79.41
743.079	80.18
743.261	79.75
743.442	80.72
743.623	80.73
743.804	80.09
743.986	78.88
744.167	78.01
744.348	77.7
744.529	77.06
744.71	77.49
744.891	77.97
745.073	78.9
745.254	80.27
745.435	81.43
745.616	81.51
745.797	81.04
745.978	81.11
746.159	80.11
746.34	79.78
746.521	79.61
746.702	80.38
746.883	80.4
747.064	79.93
747.245	78.85
747.426	80.44
747.606	80.13
747.787	80.24
747.968	81.41
748.149	81.44
748.33	80.25
748.51	80.29
748.691	79.6
748.872	78.38
749.053	79.42
749.233	79.57
749.414	79.79
749.595	81.75
749.775	81.98
749.956	80.78
750.137	79.53
750.317	78.79
750.498	77.47
750.678	78.13
750.859	80.24
751.04	81.64
751.22	82.46
751.4	82.29
751.581	81.5
751.761	80.29
751.942	80.32
752.122	80.64
752.303	81.18
752.483	81.99
752.663	82.76
752.844	82.7
753.024	82.32
753.204	83.43
753.385	82.69
753.565	82.78
753.745	82.11
753.925	82.96
754.106	80.99
754.286	81.35
754.466	80.32
754.646	80.9
754.826	79.52
755.006	81.23
755.187	82.2
755.367	83.23
755.547	81.73
755.727	81.08
755.907	80.01
756.087	79.97
756.267	79.35
756.447	80.98
756.627	80.52
756.807	81.61
756.987	80.33
757.167	80.62
757.346	80.65
757.526	82.28
757.706	82.09
757.886	83
758.066	82.39
758.246	81.92
758.425	81.02
758.605	80.96
758.785	80.86
758.965	82.8
759.144	82.85
759.324	83.55
759.504	83.81
759.683	83.75
759.863	81.47
760.043	82.29
760.222	83.35
760.402	82.76
760.581	83.35
760.761	85.19
760.94	84.07
761.12	82.67
761.299	82.42
761.479	79.93
761.658	76.85
761.838	76.74
762.017	76.14
762.197	76.56
762.376	79.37
762.555	80.21
762.735	81.78
762.914	81.26
763.093	80.39
763.273	78.79
763.452	79.81
763.631	79.18
763.81	81.49
763.99	82.73
764.169	83.59
764.348	83.37
764.527	82.39
764.706	82
764.885	81.87
765.064	81.32
765.243	80.4
765.423	80.79
765.602	78.27
765.781	77.5
765.96	74.63
766.139	75.86
766.318	76.51
766.497	78.04
766.676	76.73
766.854	80.44
767.033	79.77
767.212	79.12
767.391	79.93
767.57	81.8
767.749	81.64
767.928	81.5
768.106	80.34
768.285	79.02
768.464	78.71
768.643	77.95
768.821	77.73
769	76.93
769.179	76.38
769.357	75.33
769.536	76.45
769.715	77.9
769.893	78.99
770.072	81.88
770.25	82.04
770.429	82.5
770.607	79.12
770.786	82.03
770.964	80.72
771.143	80.51
771.321	77.94
771.5	82.33
771.678	78.9
771.857	77.68
772.035	77.62
772.213	78.97
772.392	77.42
772.57	79.05
772.748	79.03
772.927	80.99
773.105	80.03
773.283	82.07
773.461	80.99
773.64	83.69
773.818	81.5
773.996	81.77
774.174	80.4
774.352	80.1
774.531	77.62
774.709	78.81
774.887	81.76
775.065	79.28
775.243	79.45
775.421	79.41
775.599	80.7
775.777	77.02
775.955	76.07
776.133	77.63
776.311	78.15
776.489	78.6
776.667	79.31
776.844	81.77
777.022	83.3
777.2	85.64
777.378	83.7
777.556	84.11
777.734	85.18
777.911	83.61
778.089	81.95
778.267	82.29
778.445	82.17
778.622	81.04
778.8	79.1
778.978	79.31
779.155	79.66
779.333	77.38
779.511	72.53
779.688	74.69
779.866	69.63
780.043	68.99
780.221	69.32
780.398	75.59
780.576	72.76
780.753	80.44
780.931	79.56
781.108	80.44
781.286	80.73
781.463	81.55
781.64	77.85
781.818	78.65
781.995	81.35
782.172	80.86
782.35	82.4
782.527	80.14
782.704	81.46
782.882	78.83
783.059	77.24
783.236	76.62
783.413	79.91
783.59	79.1
783.768	76.65
783.945	79.63
784.122	82.62
784.299	82.88
784.476	83.69
784.653	86.31
784.83	83.52
785.007	81.21
785.184	78.71
785.361	78.44
785.538	79.68
785.715	79.11
785.892	80.88
786.069	80.99
786.246	80.09
786.423	81.43
786.6	82.29
786.776	80.42
786.953	81.63
787.13	80.6
787.307	79.59
787.484	78.89
787.66	78.68
787.837	80.97
788.014	81.24
788.191	79.57
788.367	79.08
788.544	82.85
788.721	79.48
788.897	79.3
789.074	78.7
789.25	77.78
789.427	74
789.603	78.8
789.78	79.77
789.956	83.14
790.133	85.03
790.309	86.45
790.486	80.44
790.662	83
790.839	79.08
791.015	79.94
791.192	80.23
791.368	83.89
791.544	80.28
791.721	83.59
791.897	83.86
792.073	83.25
792.249	78.91
792.426	82.5
792.602	81.28
792.778	79.21
792.954	77.07
793.13	80.76
793.307	79.43
793.483	76
793.659	77.77
793.835	79.44
794.011	82.84
794.187	76.11
794.363	79.32
794.539	79.41
794.715	75.22
794.891	69.33
795.067	71.45
795.243	76.04
795.419	76.03
795.595	79.22
795.771	75.84
795.947	79.08
796.122	73.46
796.298	72.4
796.474	70.36
796.65	72.45
796.826	74.15
797.001	79.87
797.177	79.65
797.353	77.95
797.529	84.48
797.704	79.39
797.88	73.02
798.056	71.45
798.231	77.87
798.407	75.04
798.582	76.66
798.758	77.82
798.934	81.03
799.109	81.97
799.285	79.09
799.46	81.39
799.636	85.21
799.811	85.25
799.986	84.91
800.162	91.96
800.337	91.47
800.513	84.48
800.688	84.1
800.863	78.76
801.039	73.63
801.214	67.58
801.389	68.08
801.565	72.68
801.74	76.35
801.915	76.69
802.09	82.39
802.265	77.43
802.441	74.94
802.616	75.31
802.791	75.58
802.966	72.85
803.141	79.1
803.316	73.66
803.491	62.65
803.666	58.44
803.841	65.78
804.016	67.11
804.191	77.87
804.366	86.21
804.541	95.61
804.716	93.59
804.891	91.37
805.066	83.73
805.241	89.83
805.416	81.63
805.591	84.86
805.765	87.15
805.94	83.86
806.115	84.94
806.29	88.39
806.464	85.17
806.639	84.21
806.814	81.7
806.989	68.68
807.163	72.01
807.338	71.53
807.512	67.27
807.687	68.66
807.862	73.47
808.036	63.54
808.211	64.81
808.385	66.16
808.56	66.33
808.734	68.21
808.909	65.81
809.083	62.44
809.258	54.28
809.432	56.38
809.606	59.13
809.781	64.49
809.955	70
810.13	76.68
810.304	76.11
810.478	70.01
810.652	73.87
810.827	63.6
811.001	67.06
811.175	71.65
811.349	76.22
811.524	79.38
811.698	85.4
811.872	81.57
812.046	84.69
812.22	78.43
812.394	75.98
812.568	76.65
812.742	83.55
812.916	74.71
813.09	88.39
813.264	90.83
813.438	81.82
813.612	72.06
813.786	58.62
813.96	39.24
814.134	40.14
814.308	53.81
814.482	55.75
814.656	73.34
814.83	84.52
815.003	89.92
815.177	92.94
815.351	90.24
815.525	78.35
815.698	71.95
815.872	57.62
816.046	49.4
816.219	54.22
816.393	66.97
816.567	79.64
816.74	89.19
816.914	106.33
817.088	140.5
817.261	132.81
817.435	120.09
817.608	139.8
817.782	112.46
817.955	94.84
818.129	96.9
818.302	87.36
818.475	82.73
818.649	95.22
818.822	84.2
818.996	72.29
819.169	87.16
819.342	94.47
819.516	90.19
819.689	102.6
819.862	120.15
820.035	105.04
820.209	86.8
820.382	92.02
820.555	86.14
820.728	87.61
820.901	74.72
821.075	90.85
821.248	85.17
821.421	71.59
821.594	67.36
821.767	74.84
821.94	64.39
822.113	47.68
822.286	45.14
822.459	35.16
822.632	42.01
822.805	62.4
822.978	67.74
823.151	67.77
823.324	88.98
823.496	69.03
823.669	42.12
823.842	69.3
824.015	71.06
824.188	54.47
824.361	54.46
824.533	72.9
824.706	43.69
824.879	64.81
825.051	62.27
825.224	70.92
825.397	66.9
825.569	71.48
825.742	68.66
825.915	63.28
826.087	72.78
826.26	66.71
826.432	73.15
826.605	65.26
826.777	85.82
826.95	90.75
827.122	101.86
827.295	97.62
827.467	95.17
827.64	55.22
827.812	45.2
827.984	55.02
828.157	53.99
828.329	65.58
828.501	101.26
828.674	117.29
828.846	116.12
829.018	123.88
829.19	133.21
829.363	127.19
829.535	113.88
829.707	105.82
829.879	91.75
830.051	77.85
830.223	83.13
830.395	71.33
830.568	50.65
830.74	66.68
830.912	71.07
831.084	65.1
831.256	69.7
831.428	75.53
831.6	68.71
831.772	60.28
831.943	56.67
832.115	69.13
832.287	85.11
832.459	87.13
832.631	118.71
832.803	124.63
832.975	127.38
833.146	107.8
833.318	78.76
833.49	55.57
833.662	46.51
833.833	54.47
834.005	58.65
834.177	73.21
834.348	84.47
834.52	84.39
834.692	95.06
834.863	85.7
835.035	90.57
835.206	74.07
835.378	74.23
835.549	56.8
835.721	62.99
835.892	50.67
836.064	65.57
836.235	91.74
836.407	98.29
836.578	79.31
836.749	83.46
836.921	88.86
837.092	71.01
837.264	82.43
837.435	71
837.606	58.64
837.777	34.59
837.949	35.86
838.12	-21.21
838.291	22.02
838.462	45.24
838.633	61.89
838.805	49.69
838.976	82.71
839.147	87.45
839.318	124.88
839.489	70.4
839.66	91.98
839.831	72.97
840.002	52.05
840.173	-35.22
840.344	-4.24
840.515	-14.18
840.686	-12.66
840.857	0.97
841.028	38.32
841.199	53.09
841.369	49.97
841.54	50.93
841.711	94.11
841.882	70.5
842.053	71.76
842.223	88.66
842.394	100.38
842.565	79.89
842.736	102.32
842.906	89.03
843.077	86.01
843.248	82.5
843.418	85.18
843.589	75.59
843.759	82.49
843.93	110.07
844.101	225.29
844.271	148.39
844.442	141.49
844.612	136.12
844.783	144.19
844.953	98.05
845.123	68.33
845.294	77.7
845.464	79.26
845.635	71.94
845.805	113.98
845.975	104.22
846.146	104.38
846.316	15.04
846.486	42.98
846.656	18.44
846.827	66.21
846.997	37.58
847.167	70.05
847.337	58.92
847.507	63.12
847.677	30.33
847.848	54.45
848.018	47.14
848.188	61.58
848.358	48
848.528	103.19
848.698	88.22
848.868	90.58
849.038	50.46
849.208	74.05
849.378	54.47
849.548	26.46
849.718	-43.8
849.887	-90.21
850.057	-535.48
850.227	637.77
850.397	594.63
850.567	1.6
850.737	1.3
850.906	11.53
851.076	9.96
851.246	24.84
851.415	42.49
851.585	78.24
851.755	76.86
851.924	97.42
852.094	112.5
852.264	77.5
852.433	49.75
852.603	72.17
852.772	52.33
852.942	38.93
853.111	28.32
853.281	78.4
853.45	49.96
853.62	29.92
853.789	21.33
853.959	134.68
854.128	-43.91
854.297	4.77
854.467	15.66
854.636	90.75
854.805	65.84
854.975	28.14
855.144	21
855.313	57.67
855.482	85.64
855.652	58.26
855.821	79.45
855.99	93.86
856.159	165.82
856.328	55
856.497	154.89
856.667	127.42
856.836	186.7
857.005	154.31
857.174	140.54
857.343	97.75
857.512	37.53
857.681	-3.79
857.85	-93.56
858.019	-68.5
858.188	-36.45
858.356	-35.45
858.525	-26.62
858.694	25.15
858.863	36.53
859.032	11.72
859.201	15.6
859.369	59.87
859.538	65.68
859.707	67.18
859.876	97.66
860.044	131.24
860.213	149.03
860.382	199.6
860.55	159.94
860.719	141.55
860.888	125.57
861.056	104.24
861.225	70.91
861.393	106.2
861.562	137.83
861.73	166.78
861.899	157.83
862.067	290.66
862.236	184.29
862.404	86.38
862.572	20.32
862.741	-138.35
862.909	1.75
863.078	37.08
863.246	39.48
863.414	116.99
863.582	93.92
863.751	109.79
863.919	170.36
864.087	151.5
864.255	120.05
864.424	27.84
864.592	31.08
864.76	60.75
864.928	58.82
865.096	40.12
865.264	64.95
865.432	84.38
865.6	113.32
865.768	38.8
865.936	14.07
866.104	39.39
866.272	95.14
866.44	-34.73
866.608	-5.05
866.776	32.5
866.944	3.64
867.112	-13.59
867.28	-15.35
867.448	-10.5
867.615	-91.65
867.783	-22.67
867.951	-76.78
868.119	-47.54
868.286	-68.12
868.454	-55.1
868.622	-120.32
868.789	-114.92
868.957	639.82
869.125	328.11
869.292	-107.11
869.46	-58.6
869.627	-856
869.795	-139.27
869.963	-34.88
870.13	-21.99
870.298	7.64
870.465	51.8
870.632	61.07
870.8	34.28
870.967	64.68
871.135	-4.53
871.302	218.93
871.469	116.43
871.637	94.35
871.804	69.2
871.971	60.01
872.139	110.5
872.306	153.68
872.473	983.92
872.64	187.15
872.807	119.71
872.975	71.19
873.142	72.9
873.309	49.96
873.476	48.97
873.643	77.97
873.81	80.33
873.977	90.08
874.144	112.74
874.311	153.46
874.478	19.58
874.645	-35.69
874.812	-772.51
874.979	-90.5
875.146	-19.82
875.313	-338.11
875.48	206.2
875.647	-17.52
875.813	-346.84
875.98	519.31
876.147	38.09
876.314	32.92
876.481	33.03
876.647	36.8
876.814	90.72
876.981	145.74
877.147	153.89
877.314	97.14
877.481	187.56
877.647	119.81
877.814	12.27
877.98	-89.53
878.147	143.34
878.314	360.28
878.48	-271.26
878.647	-149.9
878.813	320.86
878.979	50.85
879.146	41.5
879.312	48.13
879.479	93.49
879.645	76.73
879.811	43.08
879.978	49.47
880.144	27.18
880.31	175.36
880.477	457.72
880.643	-280
880.809	-473.17
880.975	796.98
881.142	-98.97
881.308	-28.46
881.474	19.47
881.64	87.99
881.806	36.13
881.972	85.9
882.138	66.7
882.304	51.15
882.47	-11.65
882.636	-3.47
882.802	5.37
882.968	-13.07
883.134	-7.44
883.3	30.84
883.466	34.08
883.632	-4.27
883.798	19.94
883.964	-11.41
884.129	-54.81
884.295	-244.39
884.461	-709.62
884.627	646.1
884.793	86.67
884.958	25.37
885.124	-287.13
885.29	34.73
885.455	94.96
885.621	39.05
885.787	44.77
885.952	17.3
886.118	122.13
886.283	49.64
886.449	85.19
886.614	66
886.78	112.01
886.945	90.04
887.111	83.19
887.276	87.47
887.442	96.93
887.607	92.07
887.773	74.66
887.938	129.67
888.103	236.9
888.269	634.88
888.434	-11517.65
888.599	343.71
888.764	2739.81
888.93	130.89
889.095	87.36
889.26	94.42
889.425	110.62
889.59	129.8
889.756	144.13
889.921	99.14
890.086	98.45
890.251	74.34
890.416	-3.09
890.581	-5.9
890.746	117.56
890.911	145.22
891.076	313.89
891.241	139.93
891.406	38085.71
891.571	596.54
891.736	-28.63
891.901	35.95
892.065	-20.94
892.23	205.38
892.395	226.7
892.56	1706.04
892.725	-229.99
892.889	-535.31
893.054	-1476.82
893.219	-3270.5
893.384	-572.79
893.548	-849.76
893.713	-476.86
893.878	-667.02
