Data from Ofav_SP_Phys_9EV4_Reflection_2.txt Node
Date: Thu Aug 05 17:42:23 EDT 2021
User: Adam
Spectrometer: FLMT01687
Trigger mode: 0
Integration Time (sec): 8.000000E-1
Scans to average: 2
Electric dark correction enabled: true
Nonlinearity correction enabled: false
Boxcar width: 2
XAxis mode: Wavelengths
Number of Pixels in Spectrum: 3648
>>>>>Begin Spectral Data<<<<<
179.494	180.87
179.716	205.03
179.937	205.74
180.158	262.94
180.38	793.36
180.601	-328.57
180.823	-249.92
181.044	13.52
181.265	62.31
181.486	103.7
181.708	530.87
181.929	52.78
182.15	190.61
182.372	108.94
182.593	23.28
182.814	-48.56
183.035	50.23
183.257	392.53
183.478	-304.75
183.699	882.37
183.92	194.79
184.141	-666.82
184.363	1374.59
184.584	-226.34
184.805	-61.59
185.026	-19.12
185.247	4.21
185.468	29.34
185.689	20.18
185.91	2.1
186.132	-84.32
186.353	-65.38
186.574	-207.3
186.795	-140.06
187.016	-148.2
187.237	-122.71
187.458	-543.35
187.679	-124.2
187.9	-154.26
188.121	-173.66
188.342	-120.13
188.563	-39.44
188.784	-56.05
189.005	-80.96
189.226	-3.97
189.447	1.76
189.667	-44.35
189.888	7.63
190.109	-4.27
190.33	11.12
190.551	24.65
190.772	37.03
190.993	28.88
191.214	43.06
191.434	32.76
191.655	33.56
191.876	30.09
192.097	26.08
192.318	18.08
192.538	-38.32
192.759	-18.33
192.98	-13.16
193.201	-154.41
193.421	-185.25
193.642	-48.06
193.863	-95.21
194.083	-72.2
194.304	-31.86
194.525	-33.82
194.745	-32.65
194.966	1.25
195.187	27.34
195.407	19.17
195.628	30.36
195.848	64.19
196.069	41.54
196.29	25.67
196.51	59.98
196.731	50.15
196.951	50.16
197.172	51.45
197.392	61.93
197.613	23.74
197.833	26.29
198.054	-3.9
198.274	-1.27
198.495	3.14
198.715	25.07
198.936	8.25
199.156	33.53
199.377	38.03
199.597	18.03
199.817	-0.87
200.038	-0.32
200.258	3.34
200.479	-28.34
200.699	-18.71
200.919	-30.32
201.14	-31.01
201.36	-58.88
201.58	-28.53
201.801	-102.62
202.021	-60.87
202.241	-25.42
202.461	-16.5
202.682	-37.58
202.902	-58.86
203.122	-94.49
203.342	8.18
203.563	-16.26
203.783	10.19
204.003	32.46
204.223	26.67
204.443	-5.4
204.663	-9.73
204.884	-5.15
205.104	-20.82
205.324	-19.59
205.544	-16.44
205.764	-7.4
205.984	-7.41
206.204	-24.26
206.424	-9.31
206.644	-11.77
206.864	-15.15
207.084	-63.18
207.304	-16.61
207.525	-59.38
207.745	-7.93
207.964	-48.13
208.184	-47.14
208.404	-73.18
208.624	-78.98
208.844	-203.9
209.064	-134.59
209.284	-103.36
209.504	-114.1
209.724	-65.79
209.944	-39.52
210.164	-76.47
210.384	-11.13
210.604	-19.59
210.823	2.38
211.043	1.43
211.263	18.32
211.483	1.55
211.703	23.77
211.922	4.69
212.142	44.39
212.362	19.04
212.582	22.77
212.801	22.26
213.021	29.58
213.241	20.24
213.461	6.42
213.68	4.59
213.9	-12.63
214.12	-54.43
214.339	-75.92
214.559	-51.32
214.779	-35.94
214.998	-24.34
215.218	-3.63
215.438	16.66
215.657	57.9
215.877	21.26
216.096	7.8
216.316	67.93
216.535	20.1
216.755	-47.34
216.974	-5.55
217.194	29.72
217.413	8.91
217.633	34.62
217.852	51.57
218.072	32.91
218.291	29.41
218.511	31.97
218.73	-2.1
218.95	-7.27
219.169	-13.61
219.389	38.56
219.608	8.31
219.827	32.49
220.047	19.93
220.266	26.44
220.485	-24.2
220.705	9.23
220.924	-15.61
221.143	-19.87
221.363	-2.21
221.582	-6.97
221.801	-47.69
222.021	-13.88
222.24	2.2
222.459	-85.54
222.678	-17.66
222.897	-3.55
223.117	-20.09
223.336	-30.09
223.555	-12.16
223.774	-61.95
223.993	-70.96
224.213	-27.63
224.432	-56.74
224.651	-36.05
224.87	-1.58
225.089	-7.66
225.308	-37.07
225.527	-5.79
225.746	-6.72
225.965	-33.49
226.184	-31.92
226.404	-28.97
226.623	-50.2
226.842	-25.46
227.061	-4.33
227.28	-23.95
227.499	-53.74
227.718	-58.9
227.936	-81.19
228.155	-99.25
228.374	-48
228.593	-16.83
228.812	10.27
229.031	8.78
229.25	5.05
229.469	6.6
229.688	8.11
229.907	-2.01
230.125	-32.74
230.344	-35.4
230.563	-33.53
230.782	-98.2
231.001	-119.2
231.22	16.91
231.438	3.72
231.657	-5.33
231.876	-39.24
232.095	-12.72
232.313	-41.2
232.532	-30.39
232.751	-31.86
232.969	-9.08
233.188	-40.84
233.407	-50.03
233.625	-32.05
233.844	-78.11
234.063	-77.13
234.281	-53
234.5	-14.44
234.719	-40.63
234.937	-23.98
235.156	-37.13
235.374	-25.48
235.593	-51.95
235.811	-42.81
236.03	-29.13
236.249	-14.76
236.467	-19.05
236.686	-62.56
236.904	-48.46
237.123	-62.2
237.341	-35.14
237.559	-39.83
237.778	-9.72
237.996	-2.08
238.215	-7.9
238.433	12.91
238.652	20.73
238.87	15.11
239.088	11.18
239.307	37.01
239.525	32.3
239.743	10.37
239.962	42.89
240.18	44.8
240.398	-20.23
240.617	-50.63
240.835	-21.54
241.053	-23.6
241.271	-20.51
241.49	-3.92
241.708	-11.81
241.926	2.4
242.144	-37.57
242.363	-66.58
242.581	-33.36
242.799	-69.95
243.017	-76.93
243.235	-80.03
243.453	-36.64
243.672	-65.11
243.89	-30.12
244.108	-16.15
244.326	-17.81
244.544	-39.95
244.762	-8.44
244.98	1.74
245.198	-7.19
245.416	14.44
245.634	3.51
245.852	-22.26
246.07	3.89
246.288	-0.47
246.506	-16.66
246.724	4.38
246.942	2.84
247.16	-51.28
247.378	-163.37
247.596	-81.53
247.814	-76.82
248.032	-51.68
248.25	-52.08
248.468	-23.62
248.685	-28.75
248.903	-26.48
249.121	-51.98
249.339	-24.95
249.557	-18.47
249.775	-4.56
249.992	-7.87
250.21	34.21
250.428	17.96
250.646	26.71
250.863	43.32
251.081	62.73
251.299	15.38
251.517	50.85
251.734	52.91
251.952	24.83
252.17	9.4
252.387	28.63
252.605	15.44
252.823	22.31
253.04	22.4
253.258	19.37
253.475	35.41
253.693	35.34
253.911	27.77
254.128	35.85
254.346	31.82
254.563	15.01
254.781	26.5
254.998	-5.46
255.216	-6.14
255.433	-14.45
255.651	-89.52
255.868	-180.13
256.086	-124.59
256.303	-92.19
256.521	-123.47
256.738	-119.58
256.956	-182.14
257.173	-35.02
257.39	-26.85
257.608	-58.49
257.825	-24.59
258.043	-14.12
258.26	-30.59
258.477	-21.72
258.695	11.37
258.912	21.28
259.129	31.09
259.346	41.24
259.564	35.24
259.781	30.7
259.998	34.81
260.216	37.23
260.433	45.32
260.65	25.98
260.867	-17.57
261.084	10.21
261.302	11.33
261.519	-13.76
261.736	6.62
261.953	17.4
262.17	-4.03
262.387	-29.96
262.604	-52.6
262.822	-59.92
263.039	-57.79
263.256	5.15
263.473	2
263.69	32.6
263.907	25.8
264.124	0.82
264.341	-30.9
264.558	-15.57
264.775	-4.91
264.992	-6.12
265.209	-2.91
265.426	-4.69
265.643	-18.45
265.86	-40.99
266.077	-36.63
266.294	-46.98
266.51	-40.22
266.727	-38.04
266.944	-38.14
267.161	-44.16
267.378	-16.01
267.595	-3.21
267.812	-12.34
268.028	2.62
268.245	13.9
268.462	-2.46
268.679	-23.34
268.896	7.31
269.112	-10.48
269.329	-29.61
269.546	-1.69
269.763	2.09
269.979	0.2
270.196	10.92
270.413	15.44
270.629	23.53
270.846	16.25
271.063	19.13
271.279	-5.13
271.496	-16.75
271.712	-36.58
271.929	-18.44
272.146	-38.59
272.362	-43.04
272.579	-35.69
272.795	-56.66
273.012	-40.02
273.228	-55.04
273.445	-17.59
273.661	0.02
273.878	2.99
274.094	2.22
274.311	21.19
274.527	2.07
274.744	-15.96
274.96	0.02
275.177	-2.07
275.393	-38.79
275.609	-24.67
275.826	-28.61
276.042	-24.56
276.259	-37.91
276.475	-9.34
276.691	-9.44
276.908	-0.8
277.124	10.62
277.34	8.83
277.557	-10.74
277.773	-18.43
277.989	-17.41
278.205	-42.41
278.422	-5.01
278.638	19.51
278.854	37.48
279.07	30.03
279.286	18.9
279.503	16.15
279.719	-8.64
279.935	-18.54
280.151	-1.48
280.367	19.21
280.583	9.41
280.799	16.41
281.016	-5.17
281.232	-39.28
281.448	-85.62
281.664	-97.19
281.88	-120.95
282.096	-68.98
282.312	-46.2
282.528	-17.64
282.744	-6.86
282.96	-2.56
283.176	-4.02
283.392	1.08
283.608	-8.16
283.824	3.37
284.04	15.85
284.256	5.66
284.471	-9.3
284.687	5.89
284.903	8.97
285.119	0.65
285.335	-1.46
285.551	-12.07
285.767	-18.39
285.982	-68.11
286.198	-144.93
286.414	-85.77
286.63	-2.83
286.846	4.03
287.061	20.53
287.277	34.23
287.493	49.82
287.709	16.15
287.924	25.16
288.14	22.93
288.356	22.16
288.571	19.4
288.787	16.32
289.003	-5.02
289.218	-51.35
289.434	-53.52
289.65	-45.91
289.865	-8.68
290.081	6.35
290.296	14.88
290.512	10.37
290.727	16.54
290.943	-10.22
291.159	-20.2
291.374	-15.38
291.59	-15.65
291.805	-16.32
292.021	2.47
292.236	-20.06
292.451	-42.9
292.667	-82.13
292.882	-81.81
293.098	-55.69
293.313	-17.15
293.529	-8.69
293.744	-2.82
293.959	-4.39
294.175	-9.52
294.39	-31.76
294.605	-29.11
294.821	-22
295.036	-13.37
295.251	-10.03
295.467	-3.39
295.682	-0.28
295.897	4.58
296.112	-0.63
296.328	-3.81
296.543	4.36
296.758	-32.35
296.973	-32.17
297.188	-6.82
297.404	0.17
297.619	-2.99
297.834	13.57
298.049	-16.66
298.264	-63.32
298.479	-75.33
298.694	-68.22
298.909	-43.81
299.125	12.53
299.34	35.17
299.555	2.11
299.77	13.67
299.985	11.47
300.2	5.13
300.415	-2.05
300.63	21.81
300.845	-4.32
301.06	-16.43
301.275	-29.85
301.49	-23
301.704	-79.84
301.919	-5.8
302.134	-9.23
302.349	-2.88
302.564	-11.9
302.779	-3.88
302.994	-5.06
303.209	7.37
303.423	-2.9
303.638	-1.66
303.853	-6.16
304.068	-18.61
304.283	-18.39
304.497	-25.58
304.712	-58.79
304.927	-58.75
305.142	-60.05
305.356	-84.3
305.571	-44.24
305.786	-9.38
306	3.45
306.215	18.99
306.43	44.47
306.644	46.68
306.859	39.01
307.074	58.04
307.288	28.27
307.503	26.99
307.717	-8.13
307.932	5.21
308.147	-20.42
308.361	2.95
308.576	-16.85
308.79	-9.72
309.005	-1.25
309.219	-5.51
309.434	-42.8
309.648	-88.74
309.863	-105.88
310.077	-225.6
310.292	-169.26
310.506	-122.42
310.72	-53.76
310.935	-57.86
311.149	-60.32
311.364	-45.83
311.578	-10.65
311.792	-3.34
312.007	6.5
312.221	20.07
312.435	35.05
312.649	15.31
312.864	-2.78
313.078	3.75
313.292	10.41
313.507	-13.81
313.721	0.2
313.935	-6.96
314.149	-4.88
314.363	-23.43
314.578	-11.65
314.792	-27.33
315.006	-44.96
315.22	-41.23
315.434	-59.94
315.648	-74.3
315.862	-109.69
316.077	-107.08
316.291	-142.42
316.505	-52.62
316.719	-58.98
316.933	-42.39
317.147	-23.2
317.361	-4.78
317.575	-19.42
317.789	-15.93
318.003	-53.15
318.217	-6.62
318.431	-45.55
318.645	-42.45
318.859	-67.39
319.073	-32.61
319.287	-82.42
319.5	-18.29
319.714	-8.22
319.928	10.11
320.142	-0.23
320.356	6.48
320.57	-22.42
320.784	-40.63
320.997	-52.78
321.211	-24.65
321.425	-58.8
321.639	-34.77
321.853	-27.36
322.066	-15.91
322.28	-27.34
322.494	-14.17
322.707	-0.43
322.921	-0.64
323.135	4.97
323.349	18.03
323.562	22.01
323.776	19.55
323.989	4.27
324.203	4.28
324.417	17.45
324.63	-2.93
324.844	-25.4
325.057	-2.29
325.271	-34.66
325.485	-48.08
325.698	-34.12
325.912	-31.97
326.125	-26.23
326.339	-3.25
326.552	-5.88
326.766	-7.7
326.979	6.05
327.193	20.73
327.406	16.85
327.619	30.07
327.833	8.78
328.046	19.95
328.26	6.5
328.473	-20.13
328.686	-33
328.9	-12.24
329.113	-13.14
329.326	-4.32
329.54	16.78
329.753	21.25
329.966	48.78
330.179	43.24
330.393	39.07
330.606	27.9
330.819	44.41
331.032	9.07
331.246	27.56
331.459	26.3
331.672	24.31
331.885	16.5
332.098	10.39
332.311	-5.47
332.525	-11.96
332.738	-5.89
332.951	-27.28
333.164	-13.69
333.377	9.37
333.59	13.28
333.803	0.25
334.016	8.81
334.229	11.12
334.442	-25.52
334.655	-8.17
334.868	15.49
335.081	12.25
335.294	21.75
335.507	28.49
335.72	24.25
335.933	10.19
336.146	12.56
336.359	3.8
336.572	2.3
336.785	-0.54
336.997	14.26
337.21	36.68
337.423	25.81
337.636	23.77
337.849	24.43
338.062	-11.79
338.274	-35.81
338.487	-3.42
338.7	0.8
338.913	-11.54
339.125	15.96
339.338	9.31
339.551	-13.06
339.763	2
339.976	6.4
340.189	2.2
340.402	-8.43
340.614	1.32
340.827	-5.74
341.039	1.33
341.252	9.84
341.465	10.97
341.677	3.34
341.89	7.75
342.102	15.93
342.315	-2.07
342.527	24.72
342.74	18.26
342.952	-1.35
343.165	-24.71
343.377	1.22
343.59	-39.37
343.802	-16.16
344.015	-23.42
344.227	-25.36
344.44	-12.02
344.652	5.54
344.864	10.85
345.077	15.37
345.289	13.5
345.502	-0.14
345.714	-2.91
345.926	5.62
346.139	15.42
346.351	30.31
346.563	17.63
346.775	7.75
346.988	-14.87
347.2	-24.52
347.412	-69.93
347.624	-30.34
347.837	-10.87
348.049	-16.34
348.261	-5.68
348.473	2.05
348.685	9.9
348.897	4.44
349.11	16.94
349.322	-14.2
349.534	-12.46
349.746	-19.89
349.958	-12.27
350.17	-5.26
350.382	3.25
350.594	12.74
350.806	10.46
351.018	19.28
351.23	18.13
351.442	19.91
351.654	7.96
351.866	6.58
352.078	-5.52
352.29	4.57
352.502	18.16
352.714	15.37
352.926	22.84
353.138	32.9
353.35	23.92
353.561	7.8
353.773	-4.37
353.985	-15.38
354.197	-15.23
354.409	-17.64
354.621	-16.64
354.832	11.17
355.044	3.04
355.256	10.43
355.468	8.76
355.679	17.01
355.891	19.16
356.103	11.19
356.314	2.81
356.526	4.37
356.738	-6.49
356.949	-47.14
357.161	-14.09
357.373	-18.5
357.584	-25.22
357.796	-30.08
358.008	-2.25
358.219	-37.67
358.431	-45.88
358.642	-48.28
358.854	-11.56
359.065	-11.43
359.277	-2.02
359.488	-9.62
359.7	-0.35
359.911	-7.17
360.123	-3.86
360.334	1.27
360.546	3.59
360.757	8.92
360.969	9.41
361.18	13.87
361.391	11.64
361.603	36.42
361.814	22.5
362.025	34.06
362.237	23.53
362.448	19.87
362.659	4.69
362.871	1.69
363.082	-11.55
363.293	-24.86
363.504	-34.85
363.716	-21.88
363.927	14.38
364.138	17.04
364.349	4.9
364.56	9.08
364.772	6.1
364.983	-38.63
365.194	-38.99
365.405	-6.9
365.616	9.26
365.827	6.65
366.038	25.32
366.25	25.42
366.461	8.64
366.672	1.64
366.883	0.92
367.094	-4.29
367.305	2.89
367.516	18.39
367.727	30
367.938	29.24
368.149	21.99
368.36	27.29
368.571	35.55
368.781	-8.14
368.992	4.61
369.203	5.92
369.414	-8.5
369.625	-18.64
369.836	-8.9
370.047	-8.88
370.258	-4.9
370.468	0.86
370.679	11.66
370.89	13.48
371.101	16.71
371.312	25.28
371.522	31.86
371.733	25.84
371.944	25.36
372.155	22.03
372.365	9.18
372.576	7.48
372.787	0.51
372.997	-0.63
373.208	6.47
373.419	15.44
373.629	0.17
373.84	2.17
374.05	0.55
374.261	-4.31
374.472	-14.56
374.682	-19.72
374.893	-4.44
375.103	-1.51
375.314	-2.9
375.524	-7.27
375.735	-2.99
375.945	20.68
376.156	12.87
376.366	12.47
376.577	21.39
376.787	19.13
376.997	-5.5
377.208	7.28
377.418	9.92
377.629	8.23
377.839	22.6
378.049	20.46
378.26	4.67
378.47	3.79
378.68	10.58
378.89	-18.97
379.101	-10.59
379.311	-1.81
379.521	2.45
379.732	-1.47
379.942	12.13
380.152	5.02
380.362	3.21
380.572	9.19
380.783	-5.58
380.993	-7.12
381.203	-2.01
381.413	-3.89
381.623	-7.83
381.833	-5.01
382.043	0.19
382.253	1.76
382.463	7.06
382.674	1.96
382.884	12.61
383.094	14.92
383.304	8.79
383.514	13.62
383.724	5.76
383.934	7.94
384.144	1.17
384.353	3.53
384.563	-9.29
384.773	3.02
384.983	-10.96
385.193	-11.41
385.403	-5.75
385.613	7.74
385.823	-1.68
386.033	6.53
386.242	6.99
386.452	7.42
386.662	3.31
386.872	8.42
387.082	11.99
387.291	8.9
387.501	8.05
387.711	6.38
387.921	5.72
388.13	4.38
388.34	9.62
388.55	8.79
388.759	7.96
388.969	6.04
389.179	3.08
389.388	1.34
389.598	1.52
389.807	6.83
390.017	7.55
390.227	4.5
390.436	5.48
390.646	5.32
390.855	2.67
391.065	4.14
391.274	9.22
391.484	9.38
391.693	10.63
391.903	9.58
392.112	10.26
392.322	8.91
392.531	8.23
392.74	9.23
392.95	8.81
393.159	7.56
393.369	7.11
393.578	7.04
393.787	5.03
393.997	5.26
394.206	4.82
394.415	5.93
394.625	7.05
394.834	6.77
395.043	6.75
395.252	7.8
395.462	7.17
395.671	6.57
395.88	6.95
396.089	7.11
396.298	7.21
396.508	6.85
396.717	6.58
396.926	6.78
397.135	6.77
397.344	5.82
397.553	6.16
397.762	6.41
397.971	6.42
398.181	6.29
398.39	6.9
398.599	6.73
398.808	6.66
399.017	6.17
399.226	6.31
399.435	6.63
399.644	7.2
399.853	7.07
400.062	7.31
400.27	7.27
400.479	6.77
400.688	6.28
400.897	6.68
401.106	6.62
401.315	6.32
401.524	6.39
401.733	6.49
401.941	5.92
402.15	5.88
402.359	5.96
402.568	5.74
402.777	5.78
402.985	5.99
403.194	6.05
403.403	6.15
403.612	6.2
403.82	6.02
404.029	5.88
404.238	6.05
404.446	6.08
404.655	6.2
404.864	6.33
405.072	6.35
405.281	6.13
405.489	6.05
405.698	6.2
405.906	5.94
406.115	5.81
406.324	6.06
406.532	6.01
406.741	5.82
406.949	5.85
407.158	6.04
407.366	5.75
407.574	5.8
407.783	5.74
407.991	5.68
408.2	5.53
408.408	5.52
408.617	5.56
408.825	5.55
409.033	5.73
409.242	5.84
409.45	5.77
409.658	5.69
409.867	5.72
410.075	5.65
410.283	5.68
410.491	5.8
410.7	5.83
410.908	5.95
411.116	5.99
411.324	5.93
411.533	5.82
411.741	5.75
411.949	5.62
412.157	5.47
412.365	5.55
412.573	5.57
412.781	5.57
412.99	5.65
413.198	5.84
413.406	5.81
413.614	5.72
413.822	5.77
414.03	5.73
414.238	5.52
414.446	5.5
414.654	5.66
414.862	5.49
415.07	5.5
415.278	5.59
415.486	5.54
415.694	5.49
415.902	5.51
416.109	5.4
416.317	5.45
416.525	5.49
416.733	5.54
416.941	5.75
417.149	5.78
417.357	5.67
417.564	5.57
417.772	5.36
417.98	5.1
418.188	5.1
418.395	5
418.603	4.97
418.811	5.1
419.019	5.28
419.226	5.28
419.434	5.55
419.642	5.48
419.849	5.41
420.057	5.31
420.265	5.37
420.472	5.29
420.68	5.4
420.887	5.47
421.095	5.51
421.302	5.23
421.51	5.18
421.717	5.02
421.925	4.96
422.132	5.01
422.34	5.17
422.547	5.26
422.755	5.33
422.962	5.26
423.17	5.13
423.377	5.04
423.585	4.96
423.792	4.96
423.999	4.93
424.207	4.92
424.414	4.73
424.621	4.89
424.829	4.93
425.036	4.99
425.243	4.98
425.451	5.18
425.658	5.01
425.865	4.9
426.072	4.84
426.28	4.71
426.487	4.63
426.694	4.54
426.901	4.62
427.108	4.61
427.315	4.75
427.523	4.79
427.73	4.84
427.937	4.83
428.144	4.94
428.351	5.04
428.558	5.16
428.765	5.02
428.972	5.02
429.179	5.05
429.386	4.93
429.593	4.99
429.8	4.94
430.007	4.81
430.214	4.78
430.421	4.92
430.628	4.67
430.835	4.87
431.042	4.98
431.249	5.07
431.456	4.95
431.662	5.2
431.869	5.22
432.076	5.34
432.283	5.23
432.49	5.23
432.697	5.18
432.903	4.95
433.11	4.7
433.317	4.73
433.524	4.78
433.73	4.8
433.937	4.83
434.144	4.97
434.35	4.89
434.557	4.78
434.764	4.6
434.97	4.72
435.177	4.7
435.384	4.59
435.59	4.63
435.797	4.72
436.003	4.67
436.21	4.53
436.416	4.53
436.623	4.51
436.829	4.55
437.036	4.56
437.242	4.59
437.449	4.71
437.655	4.77
437.862	4.85
438.068	4.97
438.275	5.15
438.481	5.29
438.687	5.26
438.894	5.31
439.1	5.12
439.307	5.06
439.513	5.05
439.719	5.09
439.926	4.89
440.132	5.04
440.338	5.04
440.544	4.94
440.751	4.92
440.957	4.95
441.163	4.92
441.369	4.85
441.575	4.86
441.782	4.97
441.988	4.98
442.194	4.9
442.4	5
442.606	4.96
442.812	4.8
443.018	4.87
443.224	4.89
443.431	4.83
443.637	4.83
443.843	4.82
444.049	4.66
444.255	4.73
444.461	4.79
444.667	4.82
444.873	4.84
445.079	4.79
445.284	4.84
445.49	4.85
445.696	4.91
445.902	4.88
446.108	5.02
446.314	4.8
446.52	4.76
446.726	4.71
446.931	4.74
447.137	4.73
447.343	4.8
447.549	4.7
447.755	4.75
447.96	4.84
448.166	4.89
448.372	4.92
448.578	5
448.783	5.03
448.989	4.89
449.195	4.95
449.4	5
449.606	5.07
449.812	5.06
450.017	5.21
450.223	5.13
450.428	5.09
450.634	5.07
450.84	5
451.045	4.93
451.251	5.03
451.456	5.09
451.662	5.04
451.867	4.96
452.073	4.98
452.278	4.92
452.483	4.94
452.689	5.04
452.894	5.2
453.1	5.28
453.305	5.18
453.51	5.15
453.716	5.09
453.921	5.06
454.127	5
454.332	5.03
454.537	5.06
454.742	5
454.948	4.96
455.153	4.92
455.358	4.96
455.563	4.89
455.769	4.85
455.974	4.85
456.179	4.79
456.384	4.77
456.589	4.73
456.795	4.8
457	4.76
457.205	4.89
457.41	4.91
457.615	5.01
457.82	5.04
458.025	5.03
458.23	4.95
458.435	4.87
458.64	4.81
458.845	4.91
459.05	4.95
459.255	4.96
459.46	5.02
459.665	5.08
459.87	4.92
460.075	4.96
460.28	5.05
460.485	5.1
460.69	5.05
460.895	5.06
461.099	5.03
461.304	4.98
461.509	4.97
461.714	4.95
461.919	4.98
462.123	5.02
462.328	4.94
462.533	4.95
462.738	5.02
462.942	5.11
463.147	5.08
463.352	5.2
463.556	5.13
463.761	5.06
463.966	4.96
464.17	4.99
464.375	4.98
464.58	5.08
464.784	5.09
464.989	5.12
465.193	5.12
465.398	5.15
465.602	5.15
465.807	5.33
466.011	5.4
466.216	5.34
466.42	5.33
466.625	5.29
466.829	5.15
467.034	5.07
467.238	5.13
467.443	4.97
467.647	4.95
467.851	5.03
468.056	5.08
468.26	5.1
468.464	5.2
468.669	5.24
468.873	5.23
469.077	5.19
469.282	5.21
469.486	5.15
469.69	5.15
469.894	5.07
470.099	5.11
470.303	5.01
470.507	5.06
470.711	5.11
470.915	5.14
471.119	5.12
471.324	5.2
471.528	5.23
471.732	5.28
471.936	5.26
472.14	5.32
472.344	5.25
472.548	5.26
472.752	5.13
472.956	5.15
473.16	5.16
473.364	5.26
473.568	5.13
473.772	5.23
473.976	5.21
474.18	5.15
474.384	5.11
474.588	5.21
474.792	5.23
474.995	5.25
475.199	5.24
475.403	5.3
475.607	5.32
475.811	5.19
476.015	5.21
476.218	5.27
476.422	5.17
476.626	5.18
476.83	5.3
477.033	5.28
477.237	5.29
477.441	5.38
477.644	5.39
477.848	5.37
478.052	5.37
478.255	5.29
478.459	5.28
478.663	5.25
478.866	5.28
479.07	5.31
479.273	5.31
479.477	5.32
479.681	5.36
479.884	5.38
480.088	5.38
480.291	5.48
480.495	5.48
480.698	5.36
480.901	5.3
481.105	5.36
481.308	5.33
481.512	5.35
481.715	5.43
481.919	5.41
482.122	5.39
482.325	5.44
482.529	5.46
482.732	5.52
482.935	5.49
483.138	5.58
483.342	5.48
483.545	5.49
483.748	5.41
483.952	5.46
484.155	5.36
484.358	5.37
484.561	5.3
484.764	5.34
484.967	5.3
485.171	5.26
485.374	5.23
485.577	5.23
485.78	5.21
485.983	5.27
486.186	5.33
486.389	5.32
486.592	5.35
486.795	5.4
486.998	5.31
487.201	5.28
487.404	5.32
487.607	5.3
487.81	5.22
488.013	5.21
488.216	5.26
488.419	5.23
488.622	5.24
488.825	5.28
489.028	5.22
489.231	5.21
489.433	5.27
489.636	5.27
489.839	5.24
490.042	5.35
490.245	5.39
490.447	5.38
490.65	5.41
490.853	5.45
491.056	5.46
491.258	5.34
491.461	5.37
491.664	5.3
491.866	5.27
492.069	5.25
492.272	5.25
492.474	5.21
492.677	5.22
492.879	5.15
493.082	5.17
493.285	5.12
493.487	5.08
493.69	5.07
493.892	5.15
494.095	5.21
494.297	5.3
494.5	5.34
494.702	5.27
494.905	5.16
495.107	5.08
495.309	5.08
495.512	5
495.714	5.07
495.917	5.2
496.119	5.26
496.321	5.23
496.524	5.28
496.726	5.3
496.928	5.22
497.13	5.2
497.333	5.2
497.535	5.32
497.737	5.36
497.939	5.36
498.142	5.34
498.344	5.35
498.546	5.29
498.748	5.18
498.95	5.19
499.152	5.19
499.355	5.19
499.557	5.21
499.759	5.33
499.961	5.38
500.163	5.32
500.365	5.34
500.567	5.33
500.769	5.26
500.971	5.24
501.173	5.34
501.375	5.29
501.577	5.31
501.779	5.38
501.981	5.47
502.183	5.37
502.385	5.38
502.587	5.31
502.788	5.24
502.99	5.17
503.192	5.2
503.394	5.18
503.596	5.22
503.798	5.25
503.999	5.2
504.201	5.24
504.403	5.34
504.605	5.3
504.806	5.28
505.008	5.33
505.21	5.33
505.411	5.22
505.613	5.27
505.815	5.3
506.016	5.27
506.218	5.27
506.42	5.33
506.621	5.34
506.823	5.4
507.024	5.41
507.226	5.45
507.427	5.45
507.629	5.35
507.83	5.28
508.032	5.34
508.233	5.31
508.435	5.33
508.636	5.38
508.838	5.46
509.039	5.44
509.24	5.49
509.442	5.5
509.643	5.53
509.845	5.47
510.046	5.45
510.247	5.45
510.448	5.45
510.65	5.45
510.851	5.44
511.052	5.45
511.254	5.42
511.455	5.39
511.656	5.43
511.857	5.42
512.058	5.41
512.26	5.45
512.461	5.5
512.662	5.5
512.863	5.52
513.064	5.62
513.265	5.6
513.466	5.56
513.667	5.57
513.868	5.61
514.069	5.56
514.27	5.55
514.471	5.55
514.672	5.52
514.873	5.37
515.074	5.37
515.275	5.34
515.476	5.35
515.677	5.39
515.878	5.55
516.079	5.53
516.28	5.52
516.481	5.52
516.682	5.54
516.882	5.52
517.083	5.57
517.284	5.6
517.485	5.62
517.686	5.6
517.886	5.61
518.087	5.53
518.288	5.47
518.488	5.48
518.689	5.48
518.89	5.52
519.091	5.55
519.291	5.68
519.492	5.66
519.692	5.71
519.893	5.7
520.094	5.66
520.294	5.6
520.495	5.63
520.695	5.58
520.896	5.51
521.096	5.6
521.297	5.65
521.497	5.66
521.698	5.73
521.898	5.75
522.099	5.76
522.299	5.72
522.499	5.71
522.7	5.66
522.9	5.7
523.101	5.71
523.301	5.74
523.501	5.76
523.702	5.83
523.902	5.82
524.102	5.82
524.302	5.79
524.503	5.78
524.703	5.72
524.903	5.76
525.103	5.75
525.304	5.76
525.504	5.85
525.704	5.83
525.904	5.81
526.104	5.79
526.304	5.83
526.504	5.76
526.705	5.84
526.905	5.82
527.105	5.89
527.305	5.89
527.505	5.92
527.705	5.86
527.905	5.87
528.105	5.89
528.305	5.92
528.505	5.95
528.705	5.98
528.905	5.98
529.105	5.96
529.304	5.9
529.504	5.87
529.704	5.86
529.904	5.96
530.104	5.96
530.304	5.99
530.503	5.99
530.703	5.98
530.903	5.91
531.103	5.94
531.303	5.97
531.502	6.01
531.702	6
531.902	6.03
532.101	6.02
532.301	5.99
532.501	6.06
532.7	6.1
532.9	6.1
533.1	6.08
533.299	6.1
533.499	6.1
533.698	6.08
533.898	6.07
534.097	6.14
534.297	6.14
534.496	6.1
534.696	6.11
534.895	6.2
535.095	6.17
535.294	6.23
535.494	6.24
535.693	6.27
535.892	6.26
536.092	6.3
536.291	6.31
536.491	6.36
536.69	6.36
536.889	6.28
537.088	6.3
537.288	6.26
537.487	6.21
537.686	6.21
537.886	6.3
538.085	6.36
538.284	6.44
538.483	6.5
538.682	6.6
538.882	6.59
539.081	6.54
539.28	6.55
539.479	6.6
539.678	6.59
539.877	6.61
540.076	6.61
540.275	6.61
540.474	6.54
540.673	6.58
540.872	6.62
541.071	6.68
541.27	6.7
541.469	6.76
541.668	6.77
541.867	6.8
542.066	6.83
542.265	6.9
542.464	6.96
542.663	6.96
542.862	7.01
543.06	7.02
543.259	6.97
543.458	7
543.657	7.07
543.856	7.09
544.054	7.12
544.253	7.19
544.452	7.18
544.651	7.19
544.849	7.23
545.048	7.24
545.247	7.29
545.445	7.33
545.644	7.34
545.843	7.36
546.041	7.39
546.24	7.43
546.438	7.45
546.637	7.46
546.836	7.5
547.034	7.6
547.233	7.61
547.431	7.66
547.63	7.79
547.828	7.83
548.027	7.86
548.225	7.88
548.423	7.97
548.622	7.96
548.82	7.96
549.019	7.91
549.217	7.94
549.415	7.91
549.614	7.98
549.812	8
550.01	8.15
550.209	8.18
550.407	8.32
550.605	8.34
550.803	8.41
551.002	8.43
551.2	8.53
551.398	8.6
551.596	8.68
551.794	8.7
551.993	8.76
552.191	8.75
552.389	8.78
552.587	8.74
552.785	8.85
552.983	8.94
553.181	9.08
553.379	9.13
553.577	9.26
553.775	9.27
553.973	9.25
554.171	9.31
554.369	9.31
554.567	9.36
554.765	9.48
554.963	9.6
555.161	9.68
555.359	9.77
555.557	9.84
555.755	9.81
555.952	9.91
556.15	9.96
556.348	10.01
556.546	10.05
556.744	10.19
556.941	10.21
557.139	10.23
557.337	10.36
557.535	10.48
557.732	10.49
557.93	10.56
558.128	10.65
558.325	10.66
558.523	10.7
558.721	10.78
558.918	10.8
559.116	10.88
559.313	10.86
559.511	11.01
559.708	11.14
559.906	11.28
560.104	11.34
560.301	11.5
560.498	11.5
560.696	11.49
560.893	11.59
561.091	11.62
561.288	11.71
561.486	11.81
561.683	11.92
561.88	11.89
562.078	11.95
562.275	11.96
562.473	12.05
562.67	12.11
562.867	12.14
563.064	12.2
563.262	12.28
563.459	12.36
563.656	12.42
563.853	12.53
564.051	12.58
564.248	12.75
564.445	12.76
564.642	12.84
564.839	12.96
565.036	13.1
565.234	13.1
565.431	13.16
565.628	13.15
565.825	13.18
566.022	13.17
566.219	13.19
566.416	13.23
566.613	13.34
566.81	13.47
567.007	13.57
567.204	13.62
567.401	13.65
567.598	13.69
567.795	13.71
567.991	13.72
568.188	13.77
568.385	13.83
568.582	13.95
568.779	13.86
568.976	13.98
569.172	14.05
569.369	14.13
569.566	14.16
569.763	14.29
569.96	14.29
570.156	14.29
570.353	14.36
570.55	14.44
570.746	14.41
570.943	14.43
571.14	14.45
571.336	14.39
571.533	14.32
571.729	14.37
571.926	14.41
572.123	14.41
572.319	14.46
572.516	14.45
572.712	14.48
572.909	14.49
573.105	14.48
573.302	14.4
573.498	14.37
573.695	14.38
573.891	14.37
574.087	14.37
574.284	14.46
574.48	14.47
574.677	14.44
574.873	14.47
575.069	14.51
575.266	14.52
575.462	14.61
575.658	14.68
575.854	14.67
576.051	14.62
576.247	14.6
576.443	14.58
576.639	14.55
576.835	14.5
577.032	14.53
577.228	14.55
577.424	14.52
577.62	14.54
577.816	14.48
578.012	14.52
578.208	14.46
578.404	14.45
578.6	14.45
578.796	14.53
578.993	14.55
579.189	14.57
579.384	14.62
579.58	14.55
579.776	14.62
579.972	14.5
580.168	14.49
580.364	14.49
580.56	14.49
580.756	14.3
580.952	14.32
581.148	14.29
581.343	14.2
581.539	14.23
581.735	14.26
581.931	14.28
582.127	14.17
582.322	14.19
582.518	14.15
582.714	14.14
582.909	14.1
583.105	14.16
583.301	14.1
583.496	14.04
583.692	14.02
583.888	13.94
584.083	13.89
584.279	13.85
584.474	13.88
584.67	13.83
584.866	13.83
585.061	13.87
585.257	13.82
585.452	13.82
585.648	13.88
585.843	13.84
586.039	13.79
586.234	13.81
586.429	13.66
586.625	13.61
586.82	13.61
587.015	13.56
587.211	13.48
587.406	13.54
587.601	13.53
587.797	13.55
587.992	13.43
588.187	13.51
588.383	13.49
588.578	13.48
588.773	13.43
588.968	13.6
589.163	13.48
589.359	13.5
589.554	13.47
589.749	13.4
589.944	13.39
590.139	13.42
590.334	13.42
590.529	13.49
590.724	13.65
590.919	13.72
591.114	13.78
591.309	13.74
591.504	13.76
591.699	13.75
591.894	13.67
592.089	13.69
592.284	13.72
592.479	13.71
592.674	13.69
592.869	13.7
593.064	13.78
593.259	13.79
593.454	13.8
593.648	13.91
593.843	13.91
594.038	13.89
594.233	13.98
594.428	14.06
594.622	14.06
594.817	14.08
595.012	14.17
595.206	14.26
595.401	14.29
595.596	14.25
595.79	14.33
595.985	14.27
596.18	14.35
596.374	14.38
596.569	14.47
596.763	14.59
596.958	14.74
597.153	14.65
597.347	14.74
597.542	14.81
597.736	14.85
597.931	14.8
598.125	14.96
598.319	15.01
598.514	15.01
598.708	15.08
598.903	15.06
599.097	15.13
599.291	15.13
599.486	15.22
599.68	15.15
599.874	15.3
600.069	15.24
600.263	15.31
600.457	15.31
600.651	15.37
600.846	15.35
601.04	15.34
601.234	15.3
601.428	15.29
601.622	15.33
601.817	15.39
602.011	15.4
602.205	15.46
602.399	15.61
602.593	15.69
602.787	15.63
602.981	15.72
603.175	15.67
603.369	15.58
603.563	15.58
603.757	15.63
603.951	15.53
604.145	15.5
604.339	15.49
604.533	15.39
604.727	15.43
604.921	15.51
605.115	15.6
605.309	15.62
605.502	15.74
605.696	15.67
605.89	15.54
606.084	15.45
606.278	15.41
606.471	15.22
606.665	15.14
606.859	15.12
607.053	15.16
607.246	15.1
607.44	15.09
607.634	15.08
607.827	15.08
608.021	14.95
608.214	14.93
608.408	14.95
608.602	14.91
608.795	14.86
608.989	14.82
609.182	14.75
609.376	14.65
609.569	14.55
609.763	14.48
609.956	14.43
610.15	14.34
610.343	14.29
610.537	14.29
610.73	14.26
610.923	14.21
611.117	14.18
611.31	14.15
611.504	14.04
611.697	13.99
611.89	13.84
612.083	13.81
612.277	13.64
612.47	13.66
612.663	13.59
612.856	13.61
613.05	13.53
613.243	13.46
613.436	13.35
613.629	13.22
613.822	13.23
614.015	13.19
614.209	13.13
614.402	13.15
614.595	13.16
614.788	13.08
614.981	12.94
615.174	12.91
615.367	12.75
615.56	12.73
615.753	12.66
615.946	12.71
616.139	12.67
616.332	12.72
616.525	12.6
616.718	12.57
616.911	12.54
617.103	12.52
617.296	12.44
617.489	12.52
617.682	12.44
617.875	12.38
618.067	12.34
618.26	12.3
618.453	12.15
618.646	12.15
618.838	12.19
619.031	12.1
619.224	12.06
619.417	12.15
619.609	12.1
619.802	12.02
619.994	11.95
620.187	11.96
620.38	11.83
620.572	11.77
620.765	11.75
620.957	11.76
621.15	11.78
621.342	11.83
621.535	11.81
621.727	11.75
621.92	11.77
622.112	11.68
622.305	11.68
622.497	11.72
622.69	11.68
622.882	11.72
623.074	11.78
623.267	11.63
623.459	11.57
623.651	11.63
623.844	11.51
624.036	11.43
624.228	11.49
624.42	11.47
624.613	11.48
624.805	11.48
624.997	11.45
625.189	11.4
625.381	11.41
625.574	11.34
625.766	11.33
625.958	11.33
626.15	11.36
626.342	11.23
626.534	11.26
626.726	11.16
626.918	11.09
627.11	11.05
627.302	11.09
627.494	10.96
627.686	11.02
627.878	11.03
628.07	10.99
628.262	10.98
628.454	11.04
628.646	10.98
628.838	10.91
629.029	10.82
629.221	10.76
629.413	10.71
629.605	10.64
629.797	10.61
629.989	10.65
630.18	10.64
630.372	10.5
630.564	10.56
630.755	10.49
630.947	10.41
631.139	10.34
631.33	10.34
631.522	10.28
631.714	10.36
631.905	10.36
632.097	10.42
632.289	10.51
632.48	10.46
632.672	10.36
632.863	10.4
633.055	10.37
633.246	10.33
633.438	10.29
633.629	10.27
633.821	10.17
634.012	10.1
634.203	10.07
634.395	10.15
634.586	10.28
634.777	10.39
634.969	10.37
635.16	10.36
635.351	10.29
635.543	10.21
635.734	10.12
635.925	10.13
636.117	10.12
636.308	10.2
636.499	10.15
636.69	10.15
636.881	10.21
637.073	10.16
637.264	10.14
637.455	10.13
637.646	10.14
637.837	10.02
638.028	9.95
638.219	9.85
638.41	9.84
638.601	9.78
638.792	9.78
638.983	9.84
639.174	9.78
639.365	9.69
639.556	9.71
639.747	9.74
639.938	9.74
640.129	9.87
640.32	9.93
640.511	9.95
640.701	9.86
640.892	9.88
641.083	9.81
641.274	9.69
641.465	9.63
641.655	9.71
641.846	9.65
642.037	9.67
642.228	9.73
642.418	9.71
642.609	9.63
642.8	9.59
642.99	9.49
643.181	9.44
643.372	9.41
643.562	9.43
643.753	9.45
643.943	9.46
644.134	9.44
644.324	9.48
644.515	9.48
644.705	9.48
644.896	9.52
645.086	9.52
645.277	9.59
645.467	9.56
645.658	9.54
645.848	9.44
646.038	9.47
646.229	9.4
646.419	9.37
646.61	9.4
646.8	9.42
646.99	9.41
647.18	9.3
647.371	9.35
647.561	9.3
647.751	9.32
647.941	9.31
648.132	9.31
648.322	9.28
648.512	9.25
648.702	9.32
648.892	9.29
649.082	9.32
649.272	9.26
649.462	9.3
649.653	9.19
649.843	9.18
650.033	9.19
650.223	9.12
650.413	9.1
650.603	9.12
650.793	9.1
650.983	9.04
651.172	9.06
651.362	8.95
651.552	8.85
651.742	8.86
651.932	8.93
652.122	8.99
652.312	8.98
652.502	9.08
652.691	9.08
652.881	9.03
653.071	8.97
653.261	8.99
653.45	8.88
653.64	8.84
653.83	8.76
654.019	8.65
654.209	8.56
654.399	8.46
654.588	8.31
654.778	8.19
654.968	8.12
655.157	8.15
655.347	8.16
655.536	8.18
655.726	8.18
655.915	8.14
656.105	8.01
656.294	7.9
656.484	7.77
656.673	7.66
656.863	7.72
657.052	7.68
657.241	7.62
657.431	7.65
657.62	7.65
657.809	7.5
657.999	7.47
658.188	7.44
658.377	7.28
658.567	7.1
658.756	6.99
658.945	6.88
659.134	6.77
659.324	6.69
659.513	6.63
659.702	6.55
659.891	6.49
660.08	6.29
660.269	6.2
660.458	6.15
660.648	6.13
660.837	5.97
661.026	5.96
661.215	5.91
661.404	5.94
661.593	5.81
661.782	5.85
661.971	5.92
662.16	5.92
662.349	5.74
662.538	5.71
662.726	5.53
662.915	5.39
663.104	5.25
663.293	5.19
663.482	5.15
663.671	5.2
663.86	5.13
664.048	5.17
664.237	5.3
664.426	5.24
664.615	5.15
664.803	5.14
664.992	4.97
665.181	4.81
665.369	4.82
665.558	4.82
665.747	4.91
665.935	5
666.124	5.08
666.312	5.06
666.501	5.18
666.69	5.07
666.878	4.99
667.067	4.92
667.255	4.95
667.444	4.95
667.632	5.01
667.82	5.01
668.009	5.1
668.197	5.08
668.386	4.93
668.574	4.9
668.762	5.07
668.951	5.04
669.139	5.02
669.327	5.08
669.516	5.06
669.704	5.01
669.892	4.99
670.08	4.95
670.269	4.95
670.457	4.9
670.645	4.88
670.833	4.91
671.021	4.99
671.21	5.06
671.398	5.19
671.586	5.2
671.774	5.21
671.962	5.27
672.15	5.34
672.338	5.35
672.526	5.39
672.714	5.51
672.902	5.45
673.09	5.3
673.278	5.33
673.466	5.4
673.654	5.52
673.842	5.68
674.03	6
674.218	6.01
674.405	6.21
674.593	6.18
674.781	6.23
674.969	6.1
675.157	6.24
675.344	5.99
675.532	6.02
675.72	5.9
675.908	5.84
676.095	5.85
676.283	6.05
676.471	6.04
676.658	6.07
676.846	6.15
677.033	6.2
677.221	6.21
677.409	6.22
677.596	6.36
677.784	6.39
677.971	6.46
678.159	6.49
678.346	6.58
678.534	6.61
678.721	6.73
678.909	6.77
679.096	6.81
679.283	6.72
679.471	6.86
679.658	6.97
679.846	6.9
680.033	7.08
680.22	7.31
680.408	7.33
680.595	7.35
680.782	7.34
680.969	7.3
681.157	7.08
681.344	7.23
681.531	7.37
681.718	7.51
681.905	7.54
682.093	7.86
682.28	7.8
682.467	7.69
682.654	7.71
682.841	7.76
683.028	7.73
683.215	7.77
683.402	7.9
683.589	8.01
683.776	8.04
683.963	8.14
684.15	8.27
684.337	8.35
684.524	8.59
684.711	8.72
684.898	8.82
685.085	8.89
685.271	8.95
685.458	8.95
685.645	9.08
685.832	9.09
686.019	9.19
686.205	9.37
686.392	9.48
686.579	9.64
686.766	9.92
686.952	10.06
687.139	10.25
687.326	10.41
687.512	10.55
687.699	10.67
687.886	10.98
688.072	11.11
688.259	11.31
688.445	11.49
688.632	11.71
688.818	11.88
689.005	12.13
689.191	12.46
689.378	12.88
689.564	13.36
689.751	13.71
689.937	13.92
690.124	14.3
690.31	14.66
690.496	15.1
690.683	15.36
690.869	15.88
691.055	16.1
691.242	16.53
691.428	16.5
691.614	17.01
691.8	17.39
691.987	18
692.173	18.37
692.359	19.19
692.545	19.51
692.731	19.75
692.918	20.08
693.104	20.46
693.29	20.51
693.476	21.08
693.662	21.8
693.848	22.52
694.034	23.09
694.22	24.08
694.406	24.55
694.592	25.06
694.778	25.58
694.964	26.15
695.15	26.32
695.336	26.88
695.522	27.57
695.708	27.94
695.894	28.41
696.08	29.13
696.265	29.73
696.451	30.31
696.637	30.9
696.823	31.58
697.009	32.13
697.194	32.74
697.38	33.09
697.566	33.7
697.751	34.07
697.937	34.59
698.123	35.17
698.308	35.79
698.494	36.48
698.68	37.07
698.865	37.66
699.051	38.18
699.236	38.93
699.422	39.41
699.607	40.05
699.793	40.79
699.978	41.21
700.164	42
700.349	42.71
700.535	43.15
700.72	43.39
700.906	44.11
701.091	44.2
701.276	44.61
701.462	45.17
701.647	45.85
701.832	46.26
702.018	46.77
702.203	47.35
702.388	47.76
702.573	48.37
702.759	49.3
702.944	49.71
703.129	50.1
703.314	50.51
703.499	50.88
703.684	50.92
703.87	51.48
704.055	51.69
704.24	52.68
704.425	53.04
704.61	53.38
704.795	54.04
704.98	54.95
705.165	54.94
705.35	55.42
705.535	55.89
705.72	56.14
705.905	56.25
706.09	56.88
706.275	57.18
706.459	57.48
706.644	57.73
706.829	57.94
707.014	58.51
707.199	59.28
707.384	59.68
707.568	60.02
707.753	60.48
707.938	60.24
708.123	60.39
708.307	60.8
708.492	61.23
708.677	61.52
708.861	62.22
709.046	62.35
709.231	62.62
709.415	62.89
709.6	63.2
709.784	63.39
709.969	64.02
710.153	64.24
710.338	64.48
710.522	64.71
710.707	64.8
710.891	64.31
711.076	64.65
711.26	64.99
711.445	65.5
711.629	66.02
711.813	66.61
711.998	66.63
712.182	66.7
712.366	66.69
712.551	66.35
712.735	66.64
712.919	66.67
713.103	66.81
713.288	67.25
713.472	67.76
713.656	67.84
713.84	68.7
714.024	69.25
714.208	69.28
714.393	69.47
714.577	69.44
714.761	69.15
714.945	69.28
715.129	69.07
715.313	69.31
715.497	69.83
715.681	69.58
715.865	69.58
716.049	70.17
716.233	70.06
716.417	69.79
716.601	70.33
716.785	70.49
716.968	70.2
717.152	70.67
717.336	71.36
717.52	71.8
717.704	72
717.888	72.43
718.071	72.61
718.255	72.68
718.439	72.77
718.622	72.48
718.806	72.38
718.99	72.36
719.174	72.25
719.357	71.9
719.541	72.57
719.724	72.18
719.908	72.03
720.092	72.12
720.275	72.7
720.459	72.8
720.642	73.58
720.826	73.54
721.009	73.9
721.193	74.2
721.376	74.27
721.559	74.57
721.743	74.82
721.926	75.25
722.11	75.17
722.293	75.26
722.476	75.8
722.66	76.37
722.843	76.17
723.026	76.37
723.21	76.84
723.393	75.83
723.576	75.93
723.759	76.1
723.942	76.29
724.126	76.21
724.309	76.84
724.492	77.55
724.675	77.75
724.858	77.48
725.041	77.72
725.224	77.63
725.407	77.61
725.59	77.71
725.774	78.26
725.957	78.22
726.14	79.07
726.322	78.39
726.505	78.49
726.688	78.32
726.871	78.01
727.054	77.84
727.237	78.94
727.42	79.13
727.603	79.36
727.786	79.7
727.968	79.66
728.151	79.48
728.334	79
728.517	79.44
728.699	80.28
728.882	80.24
729.065	79.78
729.248	80.46
729.43	80.68
729.613	80.39
729.796	80.52
729.978	81.68
730.161	81.74
730.343	81.92
730.526	81.74
730.708	82.52
730.891	81.08
731.073	80.87
731.256	81.16
731.438	81.5
731.621	81.06
731.803	82.12
731.986	82.72
732.168	82.4
732.35	82.66
732.533	83.5
732.715	83.69
732.898	83.27
733.08	83.56
733.262	83.74
733.444	83.78
733.627	83.81
733.809	84.38
733.991	84.07
734.173	83.62
734.355	83.75
734.538	84.07
734.72	83.5
734.902	84.57
735.084	85.5
735.266	85.47
735.448	85.79
735.63	87.21
735.812	87.04
735.994	86.47
736.176	86.51
736.358	86.91
736.54	86.79
736.722	86.09
736.904	86.91
737.086	87.21
737.268	86.51
737.45	86.44
737.632	87.8
737.814	88.05
737.995	88.39
738.177	89.01
738.359	88.59
738.541	87.39
738.723	87.67
738.904	87.23
739.086	86.61
739.268	86.95
739.449	87.78
739.631	87.73
739.813	88.27
739.994	88.88
740.176	88.65
740.358	89.15
740.539	89.55
740.721	88.51
740.902	88.87
741.084	89.08
741.265	88.44
741.447	87.09
741.628	87.48
741.81	87.55
741.991	89.01
742.172	88.5
742.354	88.94
742.535	89.23
742.717	88.53
742.898	88.56
743.079	89.12
743.261	89.5
743.442	90.14
743.623	91.25
743.804	90.94
743.986	91.18
744.167	90.29
744.348	91.05
744.529	89.6
744.71	89.05
744.891	89.3
745.073	90.11
745.254	89.58
745.435	91.48
745.616	91.76
745.797	90.83
745.978	91.43
746.159	91.2
746.34	90.05
746.521	89.67
746.702	90.67
746.883	89.68
747.064	89.31
747.245	88.87
747.426	90.35
747.606	89.66
747.787	90.25
747.968	90.84
748.149	91.6
748.33	90.22
748.51	90.19
748.691	89.75
748.872	89.04
749.053	90.22
749.233	91.83
749.414	93.07
749.595	93.72
749.775	94.61
749.956	92.73
750.137	90.37
750.317	89.28
750.498	87.69
750.678	87.44
750.859	89.56
751.04	91.14
751.22	91.21
751.4	92.46
751.581	91.48
751.761	90.93
751.942	89.42
752.122	89.54
752.303	90.03
752.483	91.19
752.663	91.1
752.844	91.19
753.024	92.15
753.204	92.01
753.385	90.78
753.565	90.21
753.745	89.8
753.925	90.39
754.106	89.89
754.286	89.1
754.466	88.72
754.646	90.34
754.826	90.41
755.006	90.57
755.187	92.05
755.367	91.58
755.547	91.04
755.727	89.53
755.907	88.42
756.087	89.52
756.267	90.82
756.447	91.14
756.627	90.38
756.807	93.29
756.987	91.64
757.167	91.38
757.346	90.87
757.526	91.67
757.706	90.94
757.886	91.89
758.066	92.89
758.246	92.93
758.425	91.52
758.605	89.97
758.785	90.71
758.965	90.4
759.144	90.66
759.324	92.63
759.504	93.53
759.683	93.86
759.863	92.58
760.043	91.62
760.222	92.68
760.402	92.11
760.581	90.9
760.761	92.21
760.94	92.64
761.12	91.07
761.299	91.54
761.479	90.12
761.658	89.15
761.838	87.64
762.017	86.76
762.197	87.25
762.376	88.37
762.555	87.92
762.735	88.77
762.914	88.62
763.093	86.9
763.273	85.96
763.452	85.43
763.631	85.65
763.81	86.23
763.99	87.51
764.169	88.13
764.348	88.66
764.527	88.37
764.706	87.88
764.885	87.28
765.064	88.25
765.243	89.25
765.423	88.57
765.602	86.76
765.781	84.46
765.96	82.78
766.139	80.42
766.318	82.59
766.497	85.14
766.676	85.2
766.854	86.4
767.033	86.79
767.212	86.39
767.391	88.14
767.57	89.36
767.749	89.16
767.928	91.37
768.106	90.75
768.285	88.72
768.464	88.4
768.643	86.08
768.821	84.46
769	82.59
769.179	81.78
769.357	83.41
769.536	85.61
769.715	85.26
769.893	86.76
770.072	86.91
770.25	87.49
770.429	86.79
770.607	85.94
770.786	87
770.964	86.8
771.143	83.8
771.321	84.26
771.5	87.82
771.678	86.18
771.857	85.07
772.035	85.38
772.213	85.04
772.392	82.53
772.57	83.82
772.748	84.47
772.927	86.13
773.105	85.55
773.283	85.04
773.461	84.74
773.64	86.96
773.818	85.88
773.996	84.23
774.174	84.34
774.352	83.17
774.531	79.51
774.709	80.05
774.887	81.39
775.065	80.56
775.243	81.1
775.421	82.09
775.599	82.53
775.777	84.19
775.955	83.39
776.133	84.37
776.311	86.36
776.489	86.51
776.667	84.86
776.844	86.08
777.022	84.52
777.2	86.95
777.378	86.3
777.556	87.86
777.734	88.68
777.911	89.46
778.089	86.88
778.267	86.66
778.445	84.28
778.622	82.35
778.8	82.24
778.978	80.68
779.155	80.32
779.333	80.14
779.511	79.39
779.688	80.01
779.866	78.38
780.043	79.19
780.221	78.3
780.398	83.58
780.576	81.09
780.753	85.2
780.931	85.47
781.108	89.14
781.286	86.59
781.463	89.43
781.64	86.38
781.818	85.41
781.995	83.87
782.172	84.79
782.35	84.9
782.527	84.22
782.704	85.57
782.882	84.57
783.059	80.68
783.236	78.33
783.413	80.65
783.59	79.13
783.768	80.88
783.945	84.33
784.122	86.21
784.299	87.28
784.476	88.36
784.653	89.09
784.83	89.69
785.007	88.75
785.184	85.9
785.361	82.5
785.538	80.27
785.715	78.87
785.892	78.52
786.069	80.47
786.246	84.06
786.423	87.25
786.6	90
786.776	89.9
786.953	87.9
787.13	84.4
787.307	82.55
787.484	79.13
787.66	78.58
787.837	80.9
788.014	83.97
788.191	83.99
788.367	83.85
788.544	84.29
788.721	83.66
788.897	85.12
789.074	83.17
789.25	84.48
789.427	87.52
789.603	92.13
789.78	89.22
789.956	89.87
790.133	86.86
790.309	81.5
790.486	75.38
790.662	75.85
790.839	77.16
791.015	80.83
791.192	79.74
791.368	82.41
791.544	80.88
791.721	79.2
791.897	77.51
792.073	76.92
792.249	72.74
792.426	78.89
792.602	81.66
792.778	81.06
792.954	84.71
793.13	87.86
793.307	83.56
793.483	80.38
793.659	81.59
793.835	80.69
794.011	79.08
794.187	78.84
794.363	81.33
794.539	81.19
794.715	75.26
794.891	73.57
795.067	70.33
795.243	67.63
795.419	62.13
795.595	65.26
795.771	65.32
795.947	67.99
796.122	70.36
796.298	75.18
796.474	80.36
796.65	83.13
796.826	83.3
797.001	83.09
797.177	86.22
797.353	80.38
797.529	77.71
797.704	72.89
797.88	69.09
798.056	66.78
798.231	68.9
798.407	72.21
798.582	71.37
798.758	74.94
798.934	75.23
799.109	76.76
799.285	72.97
799.46	76.29
799.636	78.54
799.811	78.17
799.986	80.19
800.162	87.37
800.337	88.44
800.513	85.13
800.688	91.41
800.863	81.09
801.039	78.45
801.214	75.37
801.389	74.82
801.565	71.83
801.74	79.79
801.915	72.17
802.09	70.08
802.265	64.99
802.441	65.78
802.616	69.5
802.791	73.69
802.966	78.01
803.141	74.29
803.316	68.12
803.491	57.93
803.666	57.84
803.841	61.28
804.016	73.21
804.191	77.05
804.366	90.4
804.541	91.25
804.716	85.99
804.891	85.82
805.066	83.52
805.241	76.52
805.416	73.5
805.591	82.15
805.765	72.73
805.94	73.81
806.115	69.49
806.29	81.82
806.464	81.95
806.639	91.79
806.814	87.93
806.989	90.56
807.163	83.3
807.338	78.79
807.512	74.37
807.687	73.76
807.862	76.63
808.036	79.23
808.211	79.14
808.385	75.16
808.56	76.75
808.734	83.03
808.909	74.05
809.083	73.61
809.258	74.97
809.432	76.71
809.606	71.85
809.781	74.59
809.955	74.18
810.13	75.56
810.304	75.68
810.478	74.94
810.652	74.1
810.827	66.12
811.001	64.39
811.175	68.52
811.349	64.74
811.524	71.79
811.698	84.47
811.872	82.08
812.046	79.88
812.22	81.5
812.394	70.33
812.568	73.26
812.742	73.37
812.916	71.91
813.09	76.47
813.264	89.46
813.438	79.98
813.612	85.23
813.786	82.17
813.96	74.91
814.134	68.63
814.308	75.54
814.482	78.61
814.656	89.13
814.83	93.21
815.003	96.05
815.177	102.39
815.351	93.34
815.525	76.34
815.698	71.86
815.872	69.87
816.046	66.55
816.219	59.46
816.393	78.88
816.567	90.31
816.74	93.46
816.914	83.25
817.088	110.01
817.261	88.07
817.435	78.28
817.608	68
817.782	70.67
817.955	70.67
818.129	73.08
818.302	64.57
818.475	73.62
818.649	74.23
818.822	73.32
818.996	66.18
819.169	62.37
819.342	60.17
819.516	54.18
819.689	54.46
819.862	62.04
820.035	74.62
820.209	75.88
820.382	85.5
820.555	88.89
820.728	88.56
820.901	89.38
821.075	82.06
821.248	81.54
821.421	62.99
821.594	66.44
821.767	57.58
821.94	56.39
822.113	46.49
822.286	48.86
822.459	35.91
822.632	48.51
822.805	52.28
822.978	57.45
823.151	61.83
823.324	66.4
823.496	56.49
823.669	57.83
823.842	74.57
824.015	78.35
824.188	67.61
824.361	56.57
824.533	57.73
824.706	24.3
824.879	35.88
825.051	46.96
825.224	63.44
825.397	52.75
825.569	66.39
825.742	85.13
825.915	71.16
826.087	63.9
826.26	67.88
826.432	77.41
826.605	57.61
826.777	58.06
826.95	74.55
827.122	79.26
827.295	57.15
827.467	62.16
827.64	56.84
827.812	54.76
827.984	61.34
828.157	73.96
828.329	69.86
828.501	83.35
828.674	71.7
828.846	62.42
829.018	55.95
829.19	58.28
829.363	63.51
829.535	62.64
829.707	57.82
829.879	54.4
830.051	46.87
830.223	49.62
830.395	33.72
830.568	31.1
830.74	45.25
830.912	45.36
831.084	43.56
831.256	50.81
831.428	53.43
831.6	61.5
831.772	68.03
831.943	56.22
832.115	64.82
832.287	73.36
832.459	61.72
832.631	68.06
832.803	67.89
832.975	57.76
833.146	47.59
833.318	45.93
833.49	35.3
833.662	43.63
833.833	65.35
834.005	62.63
834.177	66.56
834.348	69.46
834.52	79.54
834.692	71.19
834.863	52.47
835.035	51.55
835.206	58.33
835.378	44.03
835.549	36.77
835.721	63.86
835.892	49.95
836.064	39.11
836.235	54.14
836.407	57.45
836.578	49.28
836.749	71.04
836.921	78.17
837.092	69.78
837.264	82.91
837.435	70.69
837.606	62.82
837.777	50.45
837.949	47.4
838.12	-13.84
838.291	6.98
838.462	25.85
838.633	14.18
838.805	27.03
838.976	70.46
839.147	77.22
839.318	89.95
839.489	76.39
839.66	84.08
839.831	81.05
840.002	92.27
840.173	67.56
840.344	70.39
840.515	45.11
840.686	7.68
840.857	3.04
841.028	16.27
841.199	9.38
841.369	10.77
841.54	29
841.711	51.51
841.882	31.52
842.053	39.05
842.223	55.44
842.394	47.28
842.565	35.49
842.736	61.19
842.906	47.28
843.077	41.93
843.248	44.54
843.418	40.1
843.589	6.62
843.759	-8
843.93	-609.6
844.101	-665.81
844.271	-116.23
844.442	-96.93
844.612	-46.5
844.783	12.46
844.953	37.65
845.123	51.47
845.294	76.36
845.464	83.32
845.635	80.87
845.805	60.15
845.975	43.25
846.146	54.48
846.316	35.64
846.486	81.58
846.656	68.52
846.827	62.61
846.997	9.41
847.167	11.33
847.337	-7.03
847.507	11.3
847.677	9.28
847.848	16.76
848.018	19.94
848.188	23.26
848.358	20.22
848.528	64.57
848.698	40.41
848.868	38.1
849.038	12.3
849.208	-0.9
849.378	-30.68
849.548	1.63
849.718	-173.88
849.887	64.3
850.057	-2009.68
850.227	1014.16
850.397	869.13
850.567	-8.79
850.737	-3.25
850.906	16.37
851.076	28.54
851.246	6.97
851.415	4.78
851.585	37.47
851.755	36.24
851.924	42.02
852.094	50.99
852.264	44.01
852.433	26.62
852.603	19.53
852.772	-7.76
852.942	-9.82
853.111	-16.76
853.281	-18.84
853.45	-36.09
853.62	-27.18
853.789	-94.3
853.959	-658.63
854.128	528.36
854.297	386.63
854.467	577.7
854.636	-436.84
854.805	-60.25
854.975	0.03
855.144	-8.71
855.313	37.78
855.482	29.61
855.652	34.41
855.821	20.06
855.99	35.26
856.159	-50.22
856.328	53.03
856.497	126.05
856.667	123.82
856.836	111.16
857.005	88.49
857.174	85.43
857.343	69.36
857.512	58.14
857.681	63.98
857.85	41.24
858.019	16.96
858.188	5.39
858.356	-8.16
858.525	6.61
858.694	26.9
858.863	34.09
859.032	69.74
859.201	54.61
859.369	52.58
859.538	30.11
859.707	32.14
859.876	18.66
860.044	25.42
860.213	34.96
860.382	77.36
860.55	41.12
860.719	51.82
860.888	21.33
861.056	2.04
861.225	23.13
861.393	59.45
861.562	54.18
861.73	147.5
861.899	129.93
862.067	129.73
862.236	55.93
862.404	-3.8
862.572	-81.9
862.741	-563.05
862.909	-64.51
863.078	3.27
863.246	1.81
863.414	44.83
863.582	36.15
863.751	25.44
863.919	-37.94
864.087	-3.73
864.255	-72.88
864.424	-122.89
864.592	-38.7
864.76	-0.34
864.928	-2.73
865.096	8.26
865.264	30.66
865.432	31.34
865.6	-4.47
865.768	4.82
865.936	47.11
866.104	-201.72
866.272	-32.71
866.44	-72.22
866.608	-7.67
866.776	-4.92
866.944	1.98
867.112	-1.21
867.28	70.41
867.448	69.78
867.615	101.52
867.783	97.86
867.951	94.07
868.119	53.73
868.286	76.57
868.454	26.18
868.622	-59.2
868.789	6.35
868.957	504.52
869.125	-13.17
869.292	449.76
869.46	-113.56
869.627	-342.29
869.795	-44.54
869.963	-44.3
870.13	-42.33
870.298	9.73
870.465	29.07
870.632	66.97
870.8	44.84
870.967	71.4
871.135	9.56
871.302	-117.67
871.469	-45.59
871.637	11.82
871.804	-25.5
871.971	-39.75
872.139	-12.12
872.306	-13.65
872.473	-222.61
872.64	-23.27
872.807	51.48
872.975	-29.93
873.142	-49.86
873.309	-36.06
873.476	-37.4
873.643	-44.48
873.81	2.73
873.977	32.73
874.144	70.6
874.311	174.37
874.478	58.22
874.645	46.11
874.812	-244.08
874.979	-41.84
875.146	-44.78
875.313	-325.68
875.48	377.8
875.647	-561.63
875.813	-3097.47
875.98	1534.33
876.147	-105.25
876.314	-34.03
876.481	-13.41
876.647	-0.38
876.814	43.76
876.981	53.43
877.147	-4.01
877.314	1.74
877.481	35.6
877.647	-34.87
877.814	28.66
877.98	10.87
878.147	105.06
878.314	136.91
878.48	-62.75
878.647	-354.62
878.813	-940.29
878.979	-21.27
879.146	-60.8
879.312	-29.86
879.479	-20.72
879.645	5.81
879.811	-2.25
879.978	32.81
880.144	-56.08
880.31	76.59
880.477	-105.37
880.643	602.7
880.809	4446.34
880.975	-632.66
881.142	-256.14
881.308	-420.64
881.474	29.04
881.64	50.14
881.806	46.22
881.972	65.91
882.138	60.97
882.304	32.91
882.47	21.81
882.636	38.49
882.802	34.64
882.968	18.28
883.134	14.41
883.3	29.83
883.466	10.15
883.632	-13.37
883.798	-5.13
883.964	22.5
884.129	-62.84
884.295	-86.58
884.461	-370.55
884.627	307.43
884.793	184.54
884.958	198.53
885.124	1614.85
885.29	-145.03
885.455	-179.16
885.621	-9.99
885.787	-2.78
885.952	-12.41
886.118	-7.71
886.283	8.79
886.449	6.42
886.614	-32.88
886.78	26.17
886.945	38.63
887.111	43.23
887.276	47.18
887.442	108.49
887.607	81.1
887.773	126.68
887.938	78.23
888.103	112.09
888.269	-16.08
888.434	-2052.94
888.599	70.54
888.764	1422.33
888.93	42.07
889.095	37.04
889.26	29.86
889.425	31.45
889.59	20.97
889.756	60.98
889.921	83.39
890.086	18.05
890.251	14.58
890.416	57.31
890.581	21.66
890.746	-82.37
890.911	57.16
891.076	185.01
891.241	-18.17
891.406	-2042.86
891.571	313.82
891.736	-51.04
891.901	64.48
892.065	37.82
892.23	147.7
892.395	106.67
892.56	1513.42
892.725	-446.03
892.889	-814.35
893.054	-2216.56
893.219	-2606.47
893.384	-331.55
893.548	-64.5
893.713	45.45
893.878	159.69
