Data from Ofav_SP_Phys_9AZ81_Reflection_3.txt Node
Date: Thu Aug 05 17:50:47 EDT 2021
User: Adam
Spectrometer: FLMT01687
Trigger mode: 0
Integration Time (sec): 8.000000E-1
Scans to average: 2
Electric dark correction enabled: true
Nonlinearity correction enabled: false
Boxcar width: 2
XAxis mode: Wavelengths
Number of Pixels in Spectrum: 3648
>>>>>Begin Spectral Data<<<<<
179.494	654.08
179.716	722.63
179.937	588.32
180.158	705.37
180.38	1707.78
180.601	-840.51
180.823	-92.61
181.044	-105.81
181.265	32.4
181.486	106.66
181.708	-1506.71
181.929	-205.18
182.15	-500
182.372	-12.85
182.593	23.28
182.814	-202.88
183.035	-106.2
183.257	-470.11
183.478	195.59
183.699	-76.9
183.92	159.84
184.141	-596.86
184.363	1296.76
184.584	-56.81
184.805	10.42
185.026	57.1
185.247	64.88
185.468	86.66
185.689	99.2
185.91	92.58
186.132	42.99
186.353	22.46
186.574	-6.67
186.795	-52.01
187.016	-73.47
187.237	-44.55
187.458	-116
187.679	17.94
187.9	27.09
188.121	35.82
188.342	62.95
188.563	46.67
188.784	45.42
189.005	-18.54
189.226	35.66
189.447	32.42
189.667	-13.09
189.888	54.19
190.109	184.06
190.33	161.84
190.551	157.06
190.772	162.97
190.993	107.53
191.214	74.41
191.434	52.28
191.655	23.01
191.876	34.57
192.097	32.14
192.318	23.5
192.538	37.8
192.759	106.4
192.98	62.48
193.201	60.93
193.421	-17.52
193.642	23.59
193.863	-16.14
194.083	10.57
194.304	15.96
194.525	50.94
194.745	25.9
194.966	38.05
195.187	48.54
195.407	57.11
195.628	3.56
195.848	25.49
196.069	33.39
196.29	21.09
196.51	38.03
196.731	33.44
196.951	46.9
197.172	66.9
197.392	67.2
197.613	74.09
197.833	117.46
198.054	122.19
198.274	48.38
198.495	78.06
198.715	68.7
198.936	40.41
199.156	48.37
199.377	76.58
199.597	60.67
199.817	29.38
200.038	27.18
200.258	22.49
200.479	-13.95
200.699	-10.39
200.919	-13.12
201.14	-33.98
201.36	-58.15
201.58	38.11
201.801	-49.08
202.021	-29.53
202.241	19.74
202.461	-0.93
202.682	-98.45
202.902	-161.58
203.122	-163.58
203.342	77.48
203.563	18.17
203.783	94.33
204.003	90.55
204.223	68.05
204.443	6.58
204.663	24.98
204.884	23.19
205.104	-1.92
205.324	2.95
205.544	16.02
205.764	32.95
205.984	7.78
206.204	28.81
206.424	15.48
206.644	9.91
206.864	-16.12
207.084	-55.02
207.304	-19.6
207.525	-38.73
207.745	25.18
207.964	-0.92
208.184	84.95
208.404	44.28
208.624	27.48
208.844	-7.51
209.064	6.3
209.284	-15.1
209.504	-47.46
209.724	-12.76
209.944	-27.6
210.164	-39.96
210.384	-1.98
210.604	8.17
210.823	8.49
211.043	3.05
211.263	22.89
211.483	16.31
211.703	36.56
211.922	66.03
212.142	94.46
212.362	46.82
212.582	38.27
212.801	19.67
213.021	19.4
213.241	-11.03
213.461	-4.13
213.68	9.95
213.9	-28.31
214.12	-69.66
214.339	-68.85
214.559	-31.23
214.779	-28.53
214.998	4.91
215.218	33.83
215.438	65.05
215.657	101.43
215.877	76.54
216.096	92.52
216.316	97.82
216.535	37.72
216.755	-56.95
216.974	-66.4
217.194	0.77
217.413	19.93
217.633	38.58
217.852	64.73
218.072	51.27
218.291	44.1
218.511	48.2
218.73	41.59
218.95	10.98
219.169	-15.74
219.389	23.38
219.608	-36.81
219.827	-14.13
220.047	-4.73
220.266	27.3
220.485	-0.94
220.705	20.94
220.924	11.67
221.143	30.36
221.363	-9.54
221.582	17.19
221.801	-7.27
222.021	28.39
222.24	33.3
222.459	98.53
222.678	38.96
222.897	81.31
223.117	92.08
223.336	88.89
223.555	60.04
223.774	37.85
223.993	24.21
224.213	4.45
224.432	-34.18
224.651	-10.32
224.87	27.52
225.089	4.37
225.308	-22.64
225.527	10.44
225.746	21.89
225.965	-21.9
226.184	5.96
226.404	24.37
226.623	3.59
226.842	-18.44
227.061	20.83
227.28	16
227.499	8.23
227.718	8.34
227.936	15.13
228.155	-3.09
228.374	15.57
228.593	35.75
228.812	50.06
229.031	53.52
229.25	55.6
229.469	47.23
229.688	26.76
229.907	-4.55
230.125	-28.42
230.344	-44.25
230.563	-62.96
230.782	-129.14
231.001	-53.53
231.22	6.27
231.438	7.08
231.657	26.25
231.876	39.3
232.095	17.02
232.313	3.26
232.532	7.12
232.751	7.14
232.969	15.43
233.188	23.72
233.407	-0.72
233.625	23.38
233.844	-0.96
234.063	-14.09
234.281	-1.67
234.5	29.39
234.719	9.82
234.937	7.91
235.156	19.86
235.374	12.1
235.593	-4.97
235.811	8.13
236.03	28.06
236.249	15.92
236.467	17.08
236.686	3.65
236.904	1.29
237.123	-38.51
237.341	3.33
237.559	-11.16
237.778	17.73
237.996	17.33
238.215	29.72
238.433	25.79
238.652	30.22
238.87	0.61
239.088	-2.53
239.307	2.06
239.525	3.65
239.743	3.67
239.962	36.47
240.18	30.38
240.398	44.85
240.617	27.1
240.835	34.75
241.053	18.63
241.271	31.24
241.49	35.28
241.708	-2.68
241.926	18.15
242.144	-2.2
242.363	-23.36
242.581	8.67
242.799	7.89
243.017	7.28
243.235	50.16
243.453	29.6
243.672	32.79
243.89	35.93
244.108	68.37
244.326	27.71
244.544	30.13
244.762	12.18
244.98	65.31
245.198	14.46
245.416	45.88
245.634	51.68
245.852	59.13
246.07	29.43
246.288	23.59
246.506	-21.67
246.724	-11.68
246.942	-38.33
247.16	-78.79
247.378	-102.82
247.596	-49.87
247.814	-39.61
248.032	-38.25
248.25	-22.07
248.468	-11.9
248.685	8.73
248.903	7.59
249.121	38.4
249.339	27.58
249.557	25.64
249.775	21.61
249.992	-3.64
250.21	11
250.428	14.06
250.646	12.5
250.863	28.71
251.081	63
251.299	52.93
251.517	77.8
251.734	75.36
251.952	43.44
252.17	36.43
252.387	34.56
252.605	11.03
252.823	21.86
253.04	23.55
253.258	39.31
253.475	38.38
253.693	47.54
253.911	60.19
254.128	72.56
254.346	55.64
254.563	63.19
254.781	54.06
254.998	40.26
255.216	0.95
255.433	-20.92
255.651	-77.06
255.868	-72.7
256.086	-28.31
256.303	-8.38
256.521	-15.66
256.738	-31.05
256.956	-76.19
257.173	-15.93
257.39	52.81
257.608	69.18
257.825	42.98
258.043	31.3
258.26	4.04
258.477	-9.35
258.695	15.11
258.912	37.77
259.129	60.66
259.346	74.22
259.564	58.73
259.781	55.72
259.998	32.84
260.216	35.88
260.433	31.95
260.65	36.27
260.867	-10.92
261.084	27.86
261.302	41.74
261.519	50.99
261.736	58.83
261.953	40.86
262.17	36.81
262.387	54.78
262.604	47.25
262.822	39.88
263.039	83.1
263.256	114.93
263.473	63.09
263.69	78.32
263.907	78.88
264.124	58.71
264.341	4.24
264.558	7.04
264.775	-9.1
264.992	11.85
265.209	26.32
265.426	47.83
265.643	33.18
265.86	30.14
266.077	2.08
266.294	-10.4
266.51	-18.14
266.727	8.16
266.944	25.05
267.161	15.29
267.378	18.92
267.595	29.29
267.812	-5.69
268.028	-24.05
268.245	6.28
268.462	-15.09
268.679	-26.05
268.896	-2.15
269.112	4.05
269.329	9.37
269.546	40.15
269.763	40.55
269.979	57.15
270.196	83.11
270.413	67.47
270.629	79.62
270.846	77.16
271.063	56.32
271.279	47.52
271.496	-15.17
271.712	-71.68
271.929	-111.84
272.146	-49.85
272.362	-103.9
272.579	-52.12
272.795	-27.28
273.012	20.29
273.228	-8.88
273.445	9.6
273.661	39.18
273.878	17.82
274.094	17.15
274.311	26.94
274.527	-2.8
274.744	1.98
274.96	6.2
275.177	-17.4
275.393	-32.1
275.609	-9.1
275.826	-16.77
276.042	3.12
276.259	27.63
276.475	26.77
276.691	11.91
276.908	15.63
277.124	23.99
277.34	28.37
277.557	25.19
277.773	52.85
277.989	49.64
278.205	77.1
278.422	51.11
278.638	54.08
278.854	64.08
279.07	46.11
279.286	13.26
279.503	12.57
279.719	5.7
279.935	10.97
280.151	43.15
280.367	68.23
280.583	45.16
280.799	56.37
281.016	42.28
281.232	60.54
281.448	38.02
281.664	51.23
281.88	35.96
282.096	47.21
282.312	23
282.528	34.33
282.744	48.18
282.96	44.25
283.176	37.67
283.392	30.71
283.608	22.77
283.824	-5.91
284.04	-5.33
284.256	12.97
284.471	17.13
284.687	25.2
284.903	43.46
285.119	37.85
285.335	1.12
285.551	-15.89
285.767	-42.09
285.982	-72.58
286.198	-120.01
286.414	-65.97
286.63	-20.57
286.846	7.46
287.061	0.46
287.277	6.45
287.493	34.81
287.709	26.62
287.924	47.77
288.14	59.48
288.356	65.55
288.571	57.9
288.787	62.04
289.003	60.88
289.218	25.08
289.434	2.35
289.65	-19.83
289.865	11.92
290.081	19.42
290.296	33.93
290.512	30.9
290.727	39.85
290.943	28.44
291.159	18.05
291.374	25.99
291.59	17.2
291.805	19.99
292.021	34.04
292.236	32.67
292.451	2.9
292.667	18.58
292.882	-19.71
293.098	-10.46
293.313	33.57
293.529	53.25
293.744	41.64
293.959	46.41
294.175	45.4
294.39	16.7
294.605	-3.67
294.821	-1.38
295.036	0.02
295.251	14.44
295.467	34.07
295.682	31.64
295.897	40.83
296.112	40.49
296.328	28.34
296.543	10.87
296.758	-19.29
296.973	-7.48
297.188	12.48
297.404	10.57
297.619	19.3
297.834	34.37
298.049	21.62
298.264	8.61
298.479	5.39
298.694	7.57
298.909	21.23
299.125	27.32
299.34	34.95
299.555	33.87
299.77	53.28
299.985	44.91
300.2	38.78
300.415	48.93
300.63	38.32
300.845	3.71
301.06	24.35
301.275	21.22
301.49	24.55
301.704	24.86
301.919	46.58
302.134	20.36
302.349	32.9
302.564	16.88
302.779	29.69
302.994	26.74
303.209	55.57
303.423	27.07
303.638	23.15
303.853	29.62
304.068	20.83
304.283	10.05
304.497	29.43
304.712	23.55
304.927	8.18
305.142	25.53
305.356	14.74
305.571	22.71
305.786	37.77
306	28.11
306.215	32.39
306.43	50.14
306.644	59.99
306.859	53.16
307.074	82.28
307.288	71.2
307.503	56.46
307.717	40.72
307.932	19.41
308.147	23.07
308.361	25.65
308.576	12.66
308.79	0.97
309.005	45.27
309.219	20.15
309.434	19.63
309.648	17.32
309.863	28.13
310.077	-41.63
310.292	-24.32
310.506	-17.77
310.72	5.44
310.935	13.19
311.149	43.47
311.364	50.2
311.578	47.61
311.792	65.27
312.007	48.28
312.221	30.2
312.435	39.83
312.649	63.04
312.864	28.49
313.078	38.55
313.292	62.36
313.507	45.19
313.721	26.33
313.935	24.34
314.149	16.53
314.363	-17.35
314.578	-4.21
314.792	-6.55
315.006	-23.95
315.22	-23.14
315.434	-23.27
315.648	-71.07
315.862	-95.45
316.077	-50.27
316.291	-56.47
316.505	-20.97
316.719	4.37
316.933	6.38
317.147	0.19
317.361	-0.16
317.575	-24.59
317.789	-12.83
318.003	-41.55
318.217	12.2
318.431	30.15
318.645	49.66
318.859	10.08
319.073	22.29
319.287	-0.61
319.5	10.01
319.714	1.43
319.928	48.62
320.142	55.25
320.356	40.26
320.57	45.41
320.784	58.89
320.997	10.33
321.211	11.53
321.425	3.47
321.639	-54.74
321.853	-54.98
322.066	-51.71
322.28	-53.33
322.494	-53.88
322.707	-20.39
322.921	-3.76
323.135	12.67
323.349	22.41
323.562	41.03
323.776	52.17
323.989	25.95
324.203	26.59
324.417	26.17
324.63	7.11
324.844	-18.31
325.057	-14.39
325.271	-38.81
325.485	-30.51
325.698	-22.16
325.912	-4.69
326.125	26.77
326.339	51.35
326.552	48.32
326.766	42.03
326.979	58.78
327.193	49.96
327.406	28.5
327.619	51.04
327.833	33.24
328.046	17.19
328.26	-3.06
328.473	-5.26
328.686	-26.18
328.9	-3.55
329.113	4.33
329.326	-4.15
329.54	25.16
329.753	52.16
329.966	49.79
330.179	52.94
330.393	80.94
330.606	61.94
330.819	51.07
331.032	53.01
331.246	58.7
331.459	33.7
331.672	51.56
331.885	67.89
332.098	86.13
332.311	74.98
332.525	68.11
332.738	32.33
332.951	13.39
333.164	-7.27
333.377	6.37
333.59	2.23
333.803	6.74
334.016	-0.22
334.229	9.83
334.442	32
334.655	51.63
334.868	61.71
335.081	57.25
335.294	63.62
335.507	30.63
335.72	37.57
335.933	39.52
336.146	43.64
336.359	26.22
336.572	31.14
336.785	7.66
336.997	-4.48
337.21	-9.33
337.423	18.1
337.636	15.7
337.849	39.74
338.062	33.65
338.274	2.58
338.487	25.73
338.7	26.89
338.913	18.05
339.125	31.29
339.338	33.61
339.551	-6.84
339.763	24.64
339.976	23.17
340.189	37.35
340.402	32.38
340.614	43.12
340.827	41.19
341.039	34.84
341.252	19.81
341.465	22.22
341.677	17.66
341.89	-20.21
342.102	1.33
342.315	-13.56
342.527	0.23
342.74	-5
342.952	17.35
343.165	12.98
343.377	38.91
343.59	18.39
343.802	9.4
344.015	-3.04
344.227	-2.68
344.44	4.21
344.652	22.6
344.864	40.05
345.077	49.4
345.289	25.21
345.502	9.3
345.714	-3.88
345.926	-8.55
346.139	-6.26
346.351	7.27
346.563	-0.14
346.775	0.17
346.988	-15.56
347.2	-12.37
347.412	-8.55
347.624	2.43
347.837	1.08
348.049	11.86
348.261	11.21
348.473	21.89
348.685	40.26
348.897	65.28
349.11	31.94
349.322	35.86
349.534	10.06
349.746	9.98
349.958	7.7
350.17	43.68
350.382	43.21
350.594	65.54
350.806	55.66
351.018	54.11
351.23	57.03
351.442	60.94
351.654	51.18
351.866	41.05
352.078	19.23
352.29	-0.9
352.502	2.3
352.714	-0.17
352.926	15.92
353.138	12.94
353.35	22.66
353.561	16.15
353.773	19.09
353.985	31.36
354.197	44.42
354.409	34.34
354.621	29.46
354.832	19.45
355.044	2.23
355.256	10.86
355.468	25.24
355.679	39.66
355.891	51.72
356.103	50.4
356.314	50.9
356.526	30.19
356.738	29.87
356.949	-2.06
357.161	15.44
357.373	7.31
357.584	30.05
357.796	32.62
358.008	34.44
358.219	19.17
358.431	36.74
358.642	14.04
358.854	24.62
359.065	48.36
359.277	46.26
359.488	21.34
359.7	27.1
359.911	4.7
360.123	5.05
360.334	13.15
360.546	18.59
360.757	22.77
360.969	30.67
361.18	25.61
361.391	-1.49
361.603	26.26
361.814	14.65
362.025	42.15
362.237	39.44
362.448	48.6
362.659	38.05
362.871	33.32
363.082	6.18
363.293	-17.01
363.504	-28.61
363.716	-9.84
363.927	23.47
364.138	26.96
364.349	33.83
364.56	28.53
364.772	16.79
364.983	-5.08
365.194	19.4
365.405	34.38
365.616	36.45
365.827	42.28
366.038	48.15
366.25	41.52
366.461	30.53
366.672	35.09
366.883	33.1
367.094	23.14
367.305	26.19
367.516	28.58
367.727	33.58
367.938	27.54
368.149	13
368.36	9.62
368.571	19.11
368.781	-1.75
368.992	2.97
369.203	20.56
369.414	24.93
369.625	5.22
369.836	5.9
370.047	-0.99
370.258	5.2
370.468	1.99
370.679	0.14
370.89	2.26
371.101	-1.53
371.312	-1.42
371.522	1.99
371.733	11.77
371.944	7.38
372.155	34.3
372.365	13.5
372.576	26.16
372.787	23.64
372.997	38.43
373.208	28.67
373.419	40.45
373.629	6.35
373.84	20.05
374.05	8.2
374.261	12.15
374.472	23.29
374.682	27.97
374.893	34.06
375.103	33.27
375.314	30.41
375.524	21.86
375.735	29.14
375.945	27.15
376.156	28.05
376.366	24.82
376.577	31.98
376.787	39.49
376.997	22.73
377.208	25.02
377.418	27.33
377.629	28.32
377.839	34.58
378.049	43.23
378.26	36.92
378.47	45.55
378.68	52.46
378.89	30.22
379.101	25.12
379.311	31.63
379.521	22.05
379.732	29.05
379.942	31.74
380.152	39.59
380.362	38.6
380.572	38.92
380.783	16.29
380.993	21.99
381.203	22.47
381.413	23.07
381.623	28.98
381.833	39.34
382.043	38.89
382.253	39.74
382.463	45.75
382.674	44.87
382.884	38.76
383.094	25.9
383.304	17.57
383.514	11.49
383.724	-1.88
383.934	-0.82
384.144	7.13
384.353	9.9
384.563	12.82
384.773	20.17
384.983	12.34
385.193	10.64
385.403	11.64
385.613	7.61
385.823	0.52
386.033	5.18
386.242	5.21
386.452	4.65
386.662	7.69
386.872	7.98
387.082	13.47
387.291	3.75
387.501	1.95
387.711	1.74
387.921	3.11
388.13	-3.38
388.34	3.33
388.55	3.72
388.759	-1.32
388.969	-0.18
389.179	2.29
389.388	6.48
389.598	8.43
389.807	10.93
390.017	11.68
390.227	10.9
390.436	7.07
390.646	3.68
390.855	2.14
391.065	0.88
391.274	1.31
391.484	4.52
391.693	6.06
391.903	7.01
392.112	8.77
392.322	8.45
392.531	7.78
392.74	7.44
392.95	7
393.159	6.89
393.369	7.15
393.578	6.6
393.787	6.66
393.997	5.97
394.206	4.67
394.415	4.95
394.625	5.12
394.834	4.58
395.043	4.04
395.252	4.83
395.462	4.77
395.671	4.78
395.88	6.08
396.089	7.03
396.298	6.82
396.508	6.68
396.717	6.31
396.926	5.46
397.135	4.68
397.344	4.29
397.553	4.2
397.762	4.24
397.971	4.02
398.181	4.04
398.39	3.82
398.599	3.83
398.808	3.73
399.017	3.69
399.226	3.91
399.435	3.97
399.644	4.1
399.853	4.17
400.062	4.28
400.27	4.37
400.479	4.51
400.688	4.49
400.897	4.65
401.106	4.44
401.315	4.15
401.524	3.95
401.733	3.67
401.941	3.42
402.15	3.42
402.359	3.36
402.568	3.66
402.777	3.96
402.985	3.66
403.194	3.55
403.403	3.71
403.612	3.44
403.82	3.17
404.029	3.41
404.238	3.62
404.446	3.71
404.655	3.88
404.864	3.98
405.072	3.96
405.281	3.79
405.489	3.82
405.698	3.8
405.906	3.69
406.115	3.4
406.324	3.62
406.532	3.59
406.741	3.47
406.949	3.44
407.158	3.7
407.366	3.61
407.574	3.56
407.783	3.55
407.991	3.56
408.2	3.39
408.408	3.37
408.617	3.37
408.825	3.39
409.033	3.39
409.242	3.51
409.45	3.41
409.658	3.33
409.867	3.35
410.075	3.3
410.283	3.36
410.491	3.26
410.7	3.35
410.908	3.3
411.116	3.36
411.324	3.3
411.533	3.32
411.741	3.19
411.949	3.21
412.157	3.33
412.365	3.37
412.573	3.34
412.781	3.39
412.99	3.42
413.198	3.47
413.406	3.63
413.614	3.75
413.822	3.68
414.03	3.68
414.238	3.57
414.446	3.48
414.654	3.52
414.862	3.56
415.07	3.47
415.278	3.43
415.486	3.2
415.694	3.18
415.902	3.1
416.109	3.12
416.317	3.18
416.525	3.2
416.733	3.19
416.941	3.38
417.149	3.44
417.357	3.29
417.564	3.4
417.772	3.21
417.98	3.16
418.188	3.12
418.395	2.94
418.603	2.87
418.811	2.99
419.019	3.13
419.226	3.12
419.434	3.33
419.642	3.46
419.849	3.6
420.057	3.31
420.265	3.36
420.472	3.19
420.68	3.07
420.887	2.9
421.095	3.13
421.302	3.05
421.51	3.18
421.717	3.13
421.925	3.15
422.132	3.11
422.34	3.18
422.547	3.27
422.755	3.4
422.962	3.52
423.17	3.41
423.377	3.36
423.585	3.44
423.792	3.33
423.999	3.18
424.207	3.01
424.414	2.64
424.621	2.46
424.829	2.45
425.036	2.5
425.243	2.62
425.451	2.93
425.658	3.04
425.865	2.89
426.072	2.87
426.28	2.83
426.487	2.75
426.694	2.56
426.901	2.74
427.108	2.82
427.315	2.96
427.523	3.07
427.73	3.14
427.937	3.03
428.144	2.9
428.351	2.89
428.558	2.9
428.765	2.85
428.972	2.71
429.179	2.79
429.386	2.62
429.593	2.66
429.8	2.71
430.007	2.92
430.214	2.89
430.421	3.11
430.628	3.08
430.835	3.17
431.042	3.11
431.249	3.02
431.456	2.82
431.662	2.94
431.869	2.98
432.076	2.96
432.283	3.18
432.49	3.21
432.697	3.11
432.903	2.83
433.11	2.78
433.317	2.73
433.524	2.93
433.73	2.89
433.937	2.97
434.144	3.02
434.35	2.89
434.557	2.71
434.764	2.73
434.97	2.82
435.177	3.04
435.384	2.82
435.59	2.69
435.797	2.69
436.003	2.66
436.21	2.28
436.416	2.38
436.623	2.51
436.829	2.49
437.036	2.32
437.242	2.45
437.449	2.66
437.655	2.77
437.862	2.89
438.068	3.18
438.275	3.33
438.481	3.26
438.687	3.06
438.894	2.97
439.1	2.8
439.307	2.7
439.513	2.73
439.719	2.86
439.926	2.87
440.132	2.92
440.338	2.93
440.544	2.95
440.751	3.01
440.957	3.02
441.163	3
441.369	3.04
441.575	2.91
441.782	2.89
441.988	2.76
442.194	2.63
442.4	2.58
442.606	2.68
442.812	2.55
443.018	2.56
443.224	2.53
443.431	2.6
443.637	2.52
443.843	2.44
444.049	2.43
444.255	2.57
444.461	2.52
444.667	2.49
444.873	2.56
445.079	2.56
445.284	2.56
445.49	2.54
445.696	2.66
445.902	2.68
446.108	2.72
446.314	2.67
446.52	2.73
446.726	2.75
446.931	2.73
447.137	2.78
447.343	2.79
447.549	2.78
447.755	2.75
447.96	2.78
448.166	2.74
448.372	2.71
448.578	2.68
448.783	2.81
448.989	2.75
449.195	2.78
449.4	2.79
449.606	2.9
449.812	2.81
450.017	2.93
450.223	2.83
450.428	2.9
450.634	2.79
450.84	2.77
451.045	2.7
451.251	2.76
451.456	2.77
451.662	2.75
451.867	2.7
452.073	2.79
452.278	2.71
452.483	2.66
452.689	2.75
452.894	2.8
453.1	2.84
453.305	2.93
453.51	2.91
453.716	2.95
453.921	2.87
454.127	2.83
454.332	2.8
454.537	2.93
454.742	2.86
454.948	2.85
455.153	2.8
455.358	2.86
455.563	2.81
455.769	2.73
455.974	2.81
456.179	2.81
456.384	2.66
456.589	2.6
456.795	2.58
457	2.57
457.205	2.54
457.41	2.67
457.615	2.74
457.82	2.76
458.025	2.71
458.23	2.72
458.435	2.69
458.64	2.52
458.845	2.53
459.05	2.5
459.255	2.47
459.46	2.49
459.665	2.63
459.87	2.62
460.075	2.6
460.28	2.65
460.485	2.66
460.69	2.59
460.895	2.48
461.099	2.58
461.304	2.53
461.509	2.49
461.714	2.56
461.919	2.69
462.123	2.63
462.328	2.66
462.533	2.67
462.738	2.67
462.942	2.71
463.147	2.69
463.352	2.71
463.556	2.77
463.761	2.65
463.966	2.61
464.17	2.7
464.375	2.72
464.58	2.67
464.784	2.76
464.989	2.79
465.193	2.76
465.398	2.84
465.602	3.09
465.807	3.18
466.011	3.18
466.216	3.21
466.42	3.22
466.625	3.06
466.829	3.09
467.034	3.07
467.238	3.05
467.443	2.96
467.647	2.77
467.851	2.71
468.056	2.68
468.26	2.73
468.464	2.76
468.669	3.01
468.873	2.89
469.077	2.9
469.282	2.87
469.486	2.81
469.69	2.68
469.894	2.73
470.099	2.73
470.303	2.58
470.507	2.59
470.711	2.68
470.915	2.7
471.119	2.8
471.324	2.96
471.528	2.84
471.732	2.8
471.936	2.75
472.14	2.65
472.344	2.64
472.548	2.81
472.752	2.74
472.956	2.85
473.16	2.92
473.364	2.86
473.568	2.79
473.772	2.78
473.976	2.64
474.18	2.51
474.384	2.61
474.588	2.65
474.792	2.7
474.995	2.78
475.199	2.75
475.403	2.67
475.607	2.64
475.811	2.64
476.015	2.62
476.218	2.77
476.422	2.72
476.626	2.85
476.83	2.9
477.033	2.92
477.237	2.98
477.441	3.04
477.644	2.98
477.848	2.97
478.052	2.88
478.255	2.74
478.459	2.7
478.663	2.64
478.866	2.6
479.07	2.68
479.273	2.71
479.477	2.77
479.681	2.83
479.884	2.79
480.088	2.75
480.291	2.81
480.495	2.81
480.698	2.82
480.901	2.88
481.105	2.98
481.308	2.95
481.512	2.93
481.715	2.96
481.919	2.97
482.122	2.93
482.325	2.95
482.529	2.98
482.732	2.94
482.935	2.8
483.138	2.88
483.342	2.84
483.545	2.85
483.748	2.82
483.952	2.88
484.155	2.81
484.358	2.75
484.561	2.74
484.764	2.73
484.967	2.73
485.171	2.68
485.374	2.75
485.577	2.77
485.78	2.87
485.983	2.88
486.186	2.95
486.389	2.93
486.592	2.91
486.795	2.89
486.998	2.93
487.201	2.93
487.404	2.95
487.607	3.06
487.81	2.97
488.013	2.98
488.216	2.98
488.419	2.96
488.622	2.78
488.825	2.8
489.028	2.72
489.231	2.75
489.433	2.78
489.636	2.84
489.839	2.78
490.042	2.86
490.245	2.89
490.447	2.92
490.65	2.87
490.853	3.02
491.056	2.99
491.258	2.96
491.461	2.97
491.664	2.97
491.866	2.94
492.069	3.01
492.272	2.91
492.474	2.87
492.677	2.94
492.879	2.91
493.082	2.9
493.285	2.97
493.487	2.94
493.69	2.93
493.892	2.97
494.095	3.03
494.297	3.08
494.5	3.16
494.702	3.15
494.905	3.15
495.107	3.04
495.309	2.98
495.512	2.92
495.714	2.98
495.917	3.02
496.119	3.12
496.321	3.2
496.524	3.27
496.726	3.28
496.928	3.2
497.13	3.19
497.333	3.18
497.535	3.31
497.737	3.32
497.939	3.46
498.142	3.44
498.344	3.52
498.546	3.47
498.748	3.47
498.95	3.43
499.152	3.41
499.355	3.39
499.557	3.4
499.759	3.51
499.961	3.55
500.163	3.57
500.365	3.68
500.567	3.68
500.769	3.58
500.971	3.57
501.173	3.63
501.375	3.52
501.577	3.51
501.779	3.59
501.981	3.72
502.183	3.75
502.385	3.76
502.587	3.67
502.788	3.62
502.99	3.52
503.192	3.47
503.394	3.51
503.596	3.56
503.798	3.55
503.999	3.58
504.201	3.57
504.403	3.58
504.605	3.62
504.806	3.62
505.008	3.64
505.21	3.64
505.411	3.57
505.613	3.58
505.815	3.62
506.016	3.61
506.218	3.65
506.42	3.71
506.621	3.69
506.823	3.68
507.024	3.65
507.226	3.68
507.427	3.66
507.629	3.67
507.83	3.64
508.032	3.59
508.233	3.59
508.435	3.59
508.636	3.63
508.838	3.64
509.039	3.62
509.24	3.57
509.442	3.55
509.643	3.53
509.845	3.53
510.046	3.54
510.247	3.59
510.448	3.66
510.65	3.69
510.851	3.66
511.052	3.73
511.254	3.65
511.455	3.6
511.656	3.49
511.857	3.49
512.058	3.38
512.26	3.38
512.461	3.35
512.662	3.39
512.863	3.33
513.064	3.42
513.265	3.44
513.466	3.42
513.667	3.42
513.868	3.41
514.069	3.36
514.27	3.27
514.471	3.26
514.672	3.29
514.873	3.26
515.074	3.22
515.275	3.2
515.476	3.22
515.677	3.14
515.878	3.23
516.079	3.23
516.28	3.3
516.481	3.28
516.682	3.28
516.882	3.29
517.083	3.24
517.284	3.24
517.485	3.2
517.686	3.24
517.886	3.22
518.087	3.27
518.288	3.25
518.488	3.27
518.689	3.25
518.89	3.22
519.091	3.25
519.291	3.21
519.492	3.24
519.692	3.27
519.893	3.29
520.094	3.25
520.294	3.28
520.495	3.3
520.695	3.27
520.896	3.25
521.096	3.26
521.297	3.32
521.497	3.34
521.698	3.34
521.898	3.33
522.099	3.32
522.299	3.26
522.499	3.26
522.7	3.23
522.9	3.25
523.101	3.26
523.301	3.3
523.501	3.25
523.702	3.33
523.902	3.32
524.102	3.29
524.302	3.27
524.503	3.22
524.703	3.19
524.903	3.2
525.103	3.3
525.304	3.26
525.504	3.35
525.704	3.3
525.904	3.28
526.104	3.27
526.304	3.33
526.504	3.28
526.705	3.33
526.905	3.37
527.105	3.34
527.305	3.3
527.505	3.3
527.705	3.29
527.905	3.26
528.105	3.27
528.305	3.25
528.505	3.26
528.705	3.3
528.905	3.26
529.105	3.21
529.304	3.21
529.504	3.26
529.704	3.22
529.904	3.25
530.104	3.24
530.304	3.27
530.503	3.21
530.703	3.17
530.903	3.2
531.103	3.2
531.303	3.22
531.502	3.24
531.702	3.23
531.902	3.2
532.101	3.25
532.301	3.21
532.501	3.21
532.7	3.23
532.9	3.25
533.1	3.24
533.299	3.26
533.499	3.3
533.698	3.29
533.898	3.26
534.097	3.26
534.297	3.25
534.496	3.19
534.696	3.23
534.895	3.27
535.095	3.28
535.294	3.34
535.494	3.33
535.693	3.35
535.892	3.33
536.092	3.36
536.291	3.27
536.491	3.34
536.69	3.35
536.889	3.31
537.088	3.26
537.288	3.26
537.487	3.22
537.686	3.2
537.886	3.27
538.085	3.33
538.284	3.4
538.483	3.4
538.682	3.48
538.882	3.53
539.081	3.46
539.28	3.44
539.479	3.47
539.678	3.44
539.877	3.37
540.076	3.44
540.275	3.45
540.474	3.42
540.673	3.4
540.872	3.39
541.071	3.41
541.27	3.4
541.469	3.36
541.668	3.42
541.867	3.46
542.066	3.51
542.265	3.59
542.464	3.65
542.663	3.63
542.862	3.72
543.06	3.67
543.259	3.61
543.458	3.62
543.657	3.66
543.856	3.67
544.054	3.69
544.253	3.69
544.452	3.7
544.651	3.71
544.849	3.65
545.048	3.64
545.247	3.71
545.445	3.75
545.644	3.69
545.843	3.74
546.041	3.69
546.24	3.7
546.438	3.76
546.637	3.82
546.836	3.88
547.034	4.02
547.233	4
547.431	4
547.63	4.04
547.828	4.06
548.027	4.01
548.225	4.02
548.423	4.03
548.622	3.99
548.82	3.92
549.019	3.96
549.217	3.96
549.415	4
549.614	4.09
549.812	4.17
550.01	4.19
550.209	4.25
550.407	4.24
550.605	4.16
550.803	4.15
551.002	4.19
551.2	4.23
551.398	4.33
551.596	4.47
551.794	4.53
551.993	4.54
552.191	4.53
552.389	4.48
552.587	4.41
552.785	4.39
552.983	4.49
553.181	4.52
553.379	4.6
553.577	4.7
553.775	4.76
553.973	4.72
554.171	4.82
554.369	4.84
554.567	4.85
554.765	4.91
554.963	4.98
555.161	4.96
555.359	4.99
555.557	4.99
555.755	4.98
555.952	4.98
556.15	5
556.348	5.02
556.546	5.09
556.744	5.13
556.941	5.18
557.139	5.22
557.337	5.29
557.535	5.29
557.732	5.34
557.93	5.37
558.128	5.44
558.325	5.41
558.523	5.47
558.721	5.46
558.918	5.43
559.116	5.44
559.313	5.49
559.511	5.61
559.708	5.71
559.906	5.8
560.104	5.8
560.301	5.88
560.498	5.81
560.696	5.81
560.893	5.86
561.091	5.93
561.288	6
561.486	6.02
561.683	6.04
561.88	5.97
562.078	5.94
562.275	5.86
562.473	5.88
562.67	5.96
562.867	6.01
563.064	6.07
563.262	6.1
563.459	6.19
563.656	6.15
563.853	6.19
564.051	6.25
564.248	6.37
564.445	6.36
564.642	6.38
564.839	6.51
565.036	6.57
565.234	6.56
565.431	6.65
565.628	6.71
565.825	6.69
566.022	6.76
566.219	6.81
566.416	6.8
566.613	6.83
566.81	6.9
567.007	6.84
567.204	6.85
567.401	6.89
567.598	6.91
567.795	6.87
567.991	6.95
568.188	6.96
568.385	6.92
568.582	6.96
568.779	6.97
568.976	7.03
569.172	7.13
569.369	7.21
569.566	7.27
569.763	7.29
569.96	7.31
570.156	7.32
570.353	7.37
570.55	7.41
570.746	7.44
570.943	7.38
571.14	7.37
571.336	7.39
571.533	7.41
571.729	7.47
571.926	7.56
572.123	7.64
572.319	7.68
572.516	7.67
572.712	7.73
572.909	7.74
573.105	7.82
573.302	7.84
573.498	7.84
573.695	7.77
573.891	7.77
574.087	7.66
574.284	7.69
574.48	7.7
574.677	7.78
574.873	7.85
575.069	7.89
575.266	7.88
575.462	7.87
575.658	7.88
575.854	7.86
576.051	7.86
576.247	7.83
576.443	7.92
576.639	8
576.835	7.92
577.032	7.88
577.228	7.93
577.424	7.91
577.62	7.84
577.816	7.86
578.012	7.95
578.208	7.93
578.404	7.93
578.6	7.93
578.796	8.02
578.993	8
579.189	8.09
579.384	8.13
579.58	8.22
579.776	8.17
579.972	8.11
580.168	7.96
580.364	8.01
580.56	7.95
580.756	7.95
580.952	7.95
581.148	7.99
581.343	7.95
581.539	7.94
581.735	7.92
581.931	7.9
582.127	7.89
582.322	7.77
582.518	7.74
582.714	7.79
582.909	7.84
583.105	7.83
583.301	7.84
583.496	7.87
583.692	7.84
583.888	7.79
584.083	7.75
584.279	7.85
584.474	7.86
584.67	7.84
584.866	7.83
585.061	7.9
585.257	7.78
585.452	7.81
585.648	7.83
585.843	7.87
586.039	7.9
586.234	7.92
586.429	7.75
586.625	7.81
586.82	7.73
587.015	7.64
587.211	7.6
587.406	7.58
587.601	7.56
587.797	7.63
587.992	7.64
588.187	7.73
588.383	7.89
588.578	7.91
588.773	7.83
588.968	7.88
589.163	7.85
589.359	7.76
589.554	7.69
589.749	7.82
589.944	7.8
590.139	7.78
590.334	7.8
590.529	7.83
590.724	7.83
590.919	7.93
591.114	8.01
591.309	8.01
591.504	8.02
591.699	7.97
591.894	7.89
592.089	7.86
592.284	7.91
592.479	7.97
592.674	8.02
592.869	8.03
593.064	8.15
593.259	8.13
593.454	8.08
593.648	8.14
593.843	8.16
594.038	8.11
594.233	8.11
594.428	8.19
594.622	8.18
594.817	8.33
595.012	8.32
595.206	8.46
595.401	8.52
595.596	8.47
595.79	8.38
595.985	8.46
596.18	8.42
596.374	8.42
596.569	8.53
596.763	8.65
596.958	8.79
597.153	8.76
597.347	8.84
597.542	8.9
597.736	8.92
597.931	8.85
598.125	8.93
598.319	8.96
598.514	8.91
598.708	8.88
598.903	8.89
599.097	9.01
599.291	9.03
599.486	9.12
599.68	9.12
599.874	9.21
600.069	9.2
600.263	9.23
600.457	9.29
600.651	9.37
600.846	9.34
601.04	9.29
601.234	9.21
601.428	9.17
601.622	9.16
601.817	9.14
602.011	9.23
602.205	9.29
602.399	9.38
602.593	9.42
602.787	9.42
602.981	9.42
603.175	9.43
603.369	9.33
603.563	9.37
603.757	9.45
603.951	9.47
604.145	9.45
604.339	9.46
604.533	9.37
604.727	9.31
604.921	9.33
605.115	9.36
605.309	9.31
605.502	9.43
605.696	9.42
605.89	9.35
606.084	9.35
606.278	9.3
606.471	9.16
606.665	9.06
606.859	8.94
607.053	8.82
607.246	8.83
607.44	8.81
607.634	8.81
607.827	8.83
608.021	8.72
608.214	8.63
608.408	8.65
608.602	8.67
608.795	8.62
608.989	8.71
609.182	8.8
609.376	8.73
609.569	8.63
609.763	8.62
609.956	8.57
610.15	8.36
610.343	8.3
610.537	8.31
610.73	8.28
610.923	8.27
611.117	8.32
611.31	8.32
611.504	8.26
611.697	8.28
611.89	8.16
612.083	8.15
612.277	7.99
612.47	7.95
612.663	7.76
612.856	7.71
613.05	7.66
613.243	7.7
613.436	7.62
613.629	7.6
613.822	7.65
614.015	7.47
614.209	7.38
614.402	7.41
614.595	7.42
614.788	7.38
614.981	7.39
615.174	7.34
615.367	7.19
615.56	7.07
615.753	7
615.946	6.97
616.139	6.98
616.332	7
616.525	6.97
616.718	6.96
616.911	6.92
617.103	6.85
617.296	6.8
617.489	6.83
617.682	6.78
617.875	6.82
618.067	6.78
618.26	6.72
618.453	6.62
618.646	6.59
618.838	6.54
619.031	6.5
619.224	6.53
619.417	6.69
619.609	6.7
619.802	6.68
619.994	6.66
620.187	6.64
620.38	6.56
620.572	6.49
620.765	6.48
620.957	6.47
621.15	6.49
621.342	6.37
621.535	6.39
621.727	6.4
621.92	6.38
622.112	6.34
622.305	6.36
622.497	6.32
622.69	6.19
622.882	6.2
623.074	6.25
623.267	6.21
623.459	6.2
623.651	6.25
623.844	6.19
624.036	6.12
624.228	6.1
624.42	6.07
624.613	6.12
624.805	6.15
624.997	6.17
625.189	6.16
625.381	6.24
625.574	6.25
625.766	6.23
625.958	6.16
626.15	6.25
626.342	6.13
626.534	6.1
626.726	6.07
626.918	6.07
627.11	5.96
627.302	5.97
627.494	5.88
627.686	5.91
627.878	5.92
628.07	5.9
628.262	5.9
628.454	5.82
628.646	5.79
628.838	5.76
629.029	5.71
629.221	5.69
629.413	5.76
629.605	5.71
629.797	5.71
629.989	5.75
630.18	5.76
630.372	5.66
630.564	5.7
630.755	5.62
630.947	5.57
631.139	5.53
631.33	5.57
631.522	5.54
631.714	5.59
631.905	5.57
632.097	5.62
632.289	5.59
632.48	5.56
632.672	5.51
632.863	5.49
633.055	5.35
633.246	5.38
633.438	5.38
633.629	5.38
633.821	5.36
634.012	5.41
634.203	5.37
634.395	5.38
634.586	5.52
634.777	5.56
634.969	5.57
635.16	5.57
635.351	5.55
635.543	5.45
635.734	5.47
635.925	5.42
636.117	5.47
636.308	5.52
636.499	5.46
636.69	5.42
636.881	5.43
637.073	5.4
637.264	5.35
637.455	5.37
637.646	5.35
637.837	5.34
638.028	5.32
638.219	5.31
638.41	5.38
638.601	5.41
638.792	5.47
638.983	5.45
639.174	5.41
639.365	5.32
639.556	5.26
639.747	5.28
639.938	5.37
640.129	5.43
640.32	5.43
640.511	5.49
640.701	5.4
640.892	5.44
641.083	5.4
641.274	5.41
641.465	5.32
641.655	5.41
641.846	5.33
642.037	5.35
642.228	5.37
642.418	5.43
642.609	5.31
642.8	5.28
642.99	5.22
643.181	5.16
643.372	5.18
643.562	5.2
643.753	5.22
643.943	5.2
644.134	5.24
644.324	5.26
644.515	5.33
644.705	5.24
644.896	5.28
645.086	5.22
645.277	5.26
645.467	5.23
645.658	5.3
645.848	5.22
646.038	5.22
646.229	5.2
646.419	5.1
646.61	5.19
646.8	5.25
646.99	5.34
647.18	5.25
647.371	5.21
647.561	5.11
647.751	5.1
647.941	5
648.132	4.98
648.322	5.07
648.512	5.11
648.702	5.15
648.892	5.11
649.082	5.17
649.272	5.1
649.462	4.99
649.653	4.96
649.843	5.02
650.033	5.02
650.223	5.02
650.413	5.1
650.603	5.13
650.793	5.07
650.983	5.01
651.172	4.95
651.362	4.88
651.552	4.81
651.742	4.76
651.932	4.79
652.122	4.89
652.312	4.91
652.502	4.88
652.691	4.93
652.881	4.97
653.071	5.05
653.261	4.89
653.45	4.82
653.64	4.85
653.83	4.78
654.019	4.58
654.209	4.64
654.399	4.67
654.588	4.48
654.778	4.38
654.968	4.24
655.157	4.36
655.347	4.32
655.536	4.31
655.726	4.28
655.915	4.37
656.105	4.2
656.294	4.11
656.484	4.11
656.673	3.98
656.863	4
657.052	3.98
657.241	3.93
657.431	3.98
657.62	3.96
657.809	3.81
657.999	3.83
658.188	3.77
658.377	3.69
658.567	3.7
658.756	3.7
658.945	3.66
659.134	3.6
659.324	3.58
659.513	3.41
659.702	3.27
659.891	3.18
660.08	3.17
660.269	3.04
660.458	3.13
660.648	3.24
660.837	3.08
661.026	2.97
661.215	3
661.404	2.89
661.593	2.71
661.782	2.73
661.971	2.79
662.16	2.73
662.349	2.76
662.538	2.86
662.726	2.93
662.915	2.94
663.104	2.91
663.293	2.84
663.482	2.78
663.671	2.78
663.86	2.73
664.048	2.73
664.237	2.87
664.426	2.87
664.615	2.78
664.803	2.75
664.992	2.7
665.181	2.58
665.369	2.58
665.558	2.62
665.747	2.72
665.935	2.82
666.124	2.88
666.312	2.9
666.501	3.02
666.69	3.03
666.878	3.01
667.067	2.99
667.255	3.1
667.444	3.22
667.632	3.26
667.82	3.3
668.009	3.37
668.197	3.28
668.386	3.06
668.574	3.02
668.762	3.17
668.951	3.25
669.139	3.27
669.327	3.3
669.516	3.25
669.704	3.17
669.892	3.09
670.08	3.13
670.269	3.14
670.457	3.19
670.645	3.16
670.833	3.28
671.021	3.28
671.21	3.31
671.398	3.37
671.586	3.41
671.774	3.32
671.962	3.45
672.15	3.58
672.338	3.61
672.526	3.74
672.714	3.98
672.902	3.92
673.09	3.78
673.278	3.9
673.466	3.96
673.654	3.96
673.842	4.05
674.03	4.28
674.218	4.24
674.405	4.31
674.593	4.39
674.781	4.5
674.969	4.46
675.157	4.58
675.344	4.44
675.532	4.4
675.72	4.43
675.908	4.47
676.095	4.53
676.283	4.64
676.471	4.66
676.658	4.62
676.846	4.72
677.033	4.69
677.221	4.77
677.409	4.71
677.596	4.79
677.784	4.81
677.971	4.83
678.159	4.86
678.346	5.02
678.534	5.01
678.721	4.98
678.909	5.15
679.096	5.19
679.283	5.16
679.471	5.18
679.658	5.2
679.846	5.02
680.033	5.17
680.22	5.22
680.408	5.35
680.595	5.44
680.782	5.5
680.969	5.58
681.157	5.48
681.344	5.52
681.531	5.61
681.718	5.65
681.905	5.57
682.093	5.55
682.28	5.58
682.467	5.69
682.654	5.65
682.841	5.56
683.028	5.75
683.215	5.78
683.402	5.75
683.589	5.96
683.776	6.1
683.963	6.14
684.15	6.24
684.337	6.17
684.524	6.39
684.711	6.44
684.898	6.43
685.085	6.42
685.271	6.54
685.458	6.37
685.645	6.32
685.832	6.38
686.019	6.42
686.205	6.55
686.392	6.61
686.579	6.87
686.766	7
686.952	7.09
687.139	7.2
687.326	7.18
687.512	7.08
687.699	7.2
687.886	7.3
688.072	7.23
688.259	7.58
688.445	7.83
688.632	7.81
688.818	7.95
689.005	8.05
689.191	8.17
689.378	8.42
689.564	8.94
689.751	9.03
689.937	9.42
690.124	9.39
690.31	9.49
690.496	9.5
690.683	9.91
690.869	10.12
691.055	10.48
691.242	10.78
691.428	10.92
691.614	10.92
691.8	11.22
691.987	11.61
692.173	11.92
692.359	12.41
692.545	12.99
692.731	13.22
692.918	13.54
693.104	13.9
693.29	14.06
693.476	14.45
693.662	14.94
693.848	15.35
694.034	15.83
694.22	16.53
694.406	16.89
694.592	16.96
694.778	17.19
694.964	17.56
695.15	17.86
695.336	18.11
695.522	18.97
695.708	19.8
695.894	20.26
696.08	21.08
696.265	21.86
696.451	22.31
696.637	22.68
696.823	23.26
697.009	23.64
697.194	23.98
697.38	24.63
697.566	25.3
697.751	25.76
697.937	26.2
698.123	27.05
698.308	27.52
698.494	27.94
698.68	28.65
698.865	29.31
699.051	29.77
699.236	30.35
699.422	31.07
699.607	31.59
699.793	32.17
699.978	32.86
700.164	33.48
700.349	34.09
700.535	34.58
700.72	34.99
700.906	35.7
701.091	36.29
701.276	36.73
701.462	37.37
701.647	38.65
701.832	38.82
702.018	39.28
702.203	40.07
702.388	40.58
702.573	40.82
702.759	41.73
702.944	42.22
703.129	42.71
703.314	43.58
703.499	43.95
703.684	44.43
703.87	45.33
704.055	45.69
704.24	46.19
704.425	46.62
704.61	47.21
704.795	47.82
704.98	48.48
705.165	49.03
705.35	49.54
705.535	49.99
705.72	50.18
705.905	50.76
706.09	51.31
706.275	51.66
706.459	52.06
706.644	52.85
706.829	53.33
707.014	54.02
707.199	54.87
707.384	55.23
707.568	55.33
707.753	55.74
707.938	55.5
708.123	55.62
708.307	56.11
708.492	56.74
708.677	56.73
708.861	57.18
709.046	57.59
709.231	57.72
709.415	57.91
709.6	58.6
709.784	59.26
709.969	59.77
710.153	60.67
710.338	61.13
710.522	61.33
710.707	61.31
710.891	61.65
711.076	61.59
711.26	61.82
711.445	62.53
711.629	63.05
711.813	63.61
711.998	64.13
712.182	64.32
712.366	64.19
712.551	64.04
712.735	64.2
712.919	63.92
713.103	64.37
713.288	64.78
713.472	65.48
713.656	65.55
713.84	66.43
714.024	67.04
714.208	67.36
714.393	67.52
714.577	67.68
714.761	67.43
714.945	67.67
715.129	68.2
715.313	68.7
715.497	69.16
715.681	69.64
715.865	69.39
716.049	69.12
716.233	69.01
716.417	69.07
716.601	69.09
716.785	69.57
716.968	69.69
717.152	70.32
717.336	70.92
717.52	71.31
717.704	71.01
717.888	71.82
718.071	72.08
718.255	72.06
718.439	72.31
718.622	72.87
718.806	72.19
718.99	71.85
719.174	71.63
719.357	71.74
719.541	72.08
719.724	72.21
719.908	72.22
720.092	72.51
720.275	72.58
720.459	72.69
720.642	73.05
720.826	73.44
721.009	73.79
721.193	74.11
721.376	74.35
721.559	74.61
721.743	75.4
721.926	75.39
722.11	75.63
722.293	75.49
722.476	76
722.66	75.66
722.843	75.72
723.026	76.22
723.21	76.21
723.393	75.57
723.576	75.71
723.759	75.95
723.942	75.94
724.126	76.35
724.309	77.16
724.492	77.68
724.675	77.55
724.858	77.83
725.041	78.3
725.224	78.13
725.407	78.46
725.59	79.19
725.774	78.52
725.957	78.32
726.14	78.52
726.322	78.04
726.505	78.28
726.688	78.91
726.871	79.13
727.054	79.95
727.237	80.26
727.42	80.05
727.603	80.08
727.786	80.36
727.968	80.05
728.151	80.12
728.334	79.59
728.517	79.86
728.699	79.95
728.882	80.36
729.065	80.46
729.248	80.49
729.43	80.76
729.613	80.7
729.796	81.04
729.978	81.65
730.161	82.39
730.343	83.05
730.526	83.49
730.708	82.97
730.891	82.42
731.073	82.49
731.256	81.86
731.438	81.36
731.621	81.31
731.803	81.98
731.986	83.02
732.168	83.29
732.35	83.49
732.533	84.61
732.715	84.1
732.898	83.09
733.08	83.53
733.262	84.89
733.444	84.33
733.627	84.89
733.809	85.69
733.991	85.51
734.173	84.65
734.355	84.54
734.538	84.38
734.72	83.81
734.902	84.08
735.084	84.72
735.266	84.68
735.448	85.58
735.63	86.14
735.812	86.22
735.994	84.99
736.176	85.35
736.358	85.61
736.54	86.24
736.722	85.54
736.904	86.88
737.086	87.06
737.268	86.32
737.45	86.33
737.632	87.14
737.814	86.88
737.995	87.71
738.177	88.28
738.359	87.92
738.541	87.35
738.723	87.4
738.904	86.26
739.086	86.52
739.268	86.36
739.449	86.52
739.631	86.86
739.813	88.47
739.994	88.38
740.176	89.68
740.358	90.52
740.539	90.69
740.721	88.84
740.902	88.49
741.084	88.75
741.265	88.6
741.447	88.37
741.628	89.01
741.81	89.48
741.991	89.33
742.172	88.99
742.354	88.79
742.535	88.32
742.717	88.35
742.898	87.66
743.079	88.63
743.261	89.72
743.442	92.16
743.623	91.41
743.804	91.44
743.986	90.39
744.167	88.98
744.348	87.09
744.529	87.56
744.71	87.6
744.891	88.68
745.073	88.96
745.254	89.42
745.435	89.8
745.616	89.75
745.797	88.9
745.978	90.18
746.159	90.89
746.34	92.25
746.521	92.93
746.702	94.18
746.883	92.99
747.064	91.88
747.245	90.04
747.426	89.45
747.606	89.46
747.787	89.99
747.968	91.08
748.149	91.05
748.33	91.3
748.51	90.66
748.691	88.68
748.872	88.06
749.053	87.64
749.233	87.62
749.414	86.95
749.595	89.85
749.775	89.84
749.956	89.49
750.137	88.61
750.317	88.48
750.498	87.43
750.678	87.01
750.859	89.57
751.04	90.01
751.22	89.93
751.4	89.65
751.581	90.18
751.761	88.91
751.942	89
752.122	88.54
752.303	88.46
752.483	88.48
752.663	89.07
752.844	90.03
753.024	91.6
753.204	91.68
753.385	91.4
753.565	90.88
753.745	88.96
753.925	88.79
754.106	87.97
754.286	88.09
754.466	88
754.646	89.44
754.826	89.23
755.006	89.94
755.187	90.12
755.367	90.93
755.547	89.05
755.727	87.68
755.907	87.86
756.087	87.25
756.267	86.35
756.447	88.67
756.627	88.66
756.807	90.95
756.987	91.08
757.167	91.44
757.346	90.98
757.526	92.22
757.706	89.88
757.886	91.15
758.066	90.9
758.246	90.05
758.425	87.75
758.605	87.36
758.785	86.41
758.965	86.97
759.144	87.85
759.324	90.06
759.504	90.29
759.683	89.88
759.863	88.21
760.043	87.65
760.222	88.34
760.402	87.08
760.581	88.58
760.761	89.75
760.94	89.84
761.12	88.73
761.299	90.66
761.479	89.65
761.658	88.73
761.838	87.16
762.017	86.07
762.197	86.75
762.376	88.25
762.555	87.33
762.735	90.12
762.914	88.31
763.093	86.83
763.273	85.35
763.452	86.84
763.631	85.09
763.81	87.49
763.99	88.32
764.169	88.49
764.348	87.11
764.527	87.3
764.706	86.99
764.885	86.75
765.064	85.96
765.243	86.33
765.423	84.09
765.602	84.6
765.781	84.43
765.96	83.33
766.139	84.35
766.318	85.43
766.497	86.23
766.676	83.62
766.854	84.22
767.033	83.46
767.212	83.31
767.391	83.14
767.57	85.04
767.749	86.53
767.928	86.75
768.106	87.24
768.285	86.06
768.464	87.13
768.643	86.06
768.821	86.06
769	86.17
769.179	86.05
769.357	83.79
769.536	83.94
769.715	83.38
769.893	83.84
770.072	83.75
770.25	83.9
770.429	84.59
770.607	83.28
770.786	84.68
770.964	85.3
771.143	85.6
771.321	85.14
771.5	90.31
771.678	88.5
771.857	87.43
772.035	88.82
772.213	87.6
772.392	84
772.57	84.91
772.748	84.91
772.927	85.35
773.105	85.88
773.283	85.76
773.461	84.52
773.64	86.57
773.818	84.29
773.996	85.47
774.174	85.65
774.352	86.61
774.531	83.33
774.709	84.21
774.887	83.04
775.065	82.27
775.243	80.92
775.421	81.81
775.599	83.9
775.777	82.62
775.955	79.92
776.133	81.78
776.311	84.06
776.489	84.16
776.667	84.37
776.844	87.33
777.022	86.96
777.2	88.34
777.378	85.8
777.556	87.75
777.734	88.18
777.911	87.21
778.089	86.35
778.267	85.78
778.445	83.66
778.622	81.66
778.8	79.8
778.978	78.46
779.155	76.59
779.333	75.4
779.511	71.25
779.688	72.36
779.866	68.54
780.043	72.53
780.221	72.31
780.398	79.16
780.576	75.96
780.753	77.97
780.931	77
781.108	78.12
781.286	76.46
781.463	78.94
781.64	80.27
781.818	80.38
781.995	81.19
782.172	83.2
782.35	84.45
782.527	83.68
782.704	86.76
782.882	86
783.059	86.39
783.236	83.63
783.413	86.35
783.59	82.13
783.768	81
783.945	81.63
784.122	85.65
784.299	84.99
784.476	85.28
784.653	87.99
784.83	84.37
785.007	82.03
785.184	82.08
785.361	83
785.538	80.54
785.715	79.14
785.892	79.59
786.069	77.09
786.246	76.36
786.423	80.66
786.6	85.39
786.776	84.21
786.953	85.61
787.13	85.01
787.307	82.4
787.484	83.01
787.66	83.59
787.837	82.35
788.014	81.37
788.191	82.98
788.367	75.54
788.544	83.28
788.721	85.12
788.897	84.61
789.074	82.49
789.25	85.57
789.427	77.22
789.603	81.01
789.78	85.43
789.956	87.04
790.133	88.93
790.309	91.47
790.486	83.69
790.662	80.58
790.839	74.1
791.015	71.97
791.192	71.63
791.368	75.73
791.544	76.65
791.721	80.48
791.897	84.01
792.073	84.5
792.249	82.74
792.426	85.46
792.602	86.98
792.778	82.88
792.954	84.37
793.13	85.3
793.307	85.05
793.483	86.55
793.659	85.97
793.835	87.34
794.011	89.26
794.187	80.86
794.363	81.1
794.539	83.17
794.715	77.7
794.891	73.71
795.067	77.75
795.243	75.69
795.419	79.06
795.595	81.35
795.771	77.7
795.947	80.63
796.122	73.46
796.298	69.56
796.474	64.95
796.65	70.9
796.826	64.21
797.001	73.57
797.177	73.66
797.353	71.88
797.529	71.65
797.704	77.65
797.88	74.32
798.056	75.05
798.231	79.72
798.407	76.73
798.582	75.54
798.758	81.46
798.934	85.96
799.109	86.8
799.285	85.1
799.46	85.78
799.636	80.42
799.811	77.25
799.986	80.82
800.162	89.45
800.337	85.48
800.513	83.4
800.688	83.68
800.863	76.6
801.039	69.29
801.214	72.18
801.389	67.79
801.565	69.24
801.74	70.75
801.915	72.8
802.09	75.74
802.265	77.43
802.441	79.04
802.616	82.42
802.791	92.49
802.966	89.57
803.141	96.54
803.316	88.28
803.491	80.05
803.666	71.58
803.841	78.86
804.016	79.51
804.191	87.35
804.366	93.41
804.541	98.88
804.716	91.77
804.891	88.43
805.066	84.31
805.241	88.77
805.416	81.9
805.591	82.84
805.765	79.75
805.94	83.25
806.115	73.16
806.29	75.63
806.464	78.8
806.639	81.9
806.814	74.88
806.989	77.2
807.163	83.22
807.338	83.18
807.512	76.79
807.687	75.61
807.862	70.22
808.036	60.22
808.211	55.99
808.385	64.18
808.56	66.55
808.734	73.68
808.909	85.43
809.083	81.8
809.258	76.27
809.432	74.72
809.606	73.96
809.781	76.19
809.955	82.61
810.13	84.99
810.304	90.22
810.478	86.5
810.652	85.7
810.827	79.77
811.001	86.03
811.175	80.07
811.349	86.44
811.524	85.78
811.698	95.54
811.872	89.77
812.046	98.48
812.22	91.21
812.394	74.99
812.568	68.95
812.742	76.38
812.916	69.19
813.09	85.13
813.264	100.05
813.438	101.5
813.612	94.49
813.786	89.86
813.96	79.1
814.134	88.42
814.308	98.72
814.482	100.36
814.656	108.92
814.83	100.83
815.003	86.69
815.177	81.43
815.351	78.62
815.525	76.95
815.698	83.94
815.872	75.78
816.046	75.31
816.219	65.6
816.393	71.99
816.567	74.34
816.74	83.99
816.914	92.43
817.088	116.5
817.261	116.35
817.435	112.74
817.608	129.15
817.782	118.25
817.955	115.94
818.129	111
818.302	92.24
818.475	90.83
818.649	96.92
818.822	78.62
818.996	73.49
819.169	83.69
819.342	87.57
819.516	74.07
819.689	86.29
819.862	102.46
820.035	92.67
820.209	78.84
820.382	88.21
820.555	86.01
820.728	83.05
820.901	81.98
821.075	106.48
821.248	98.05
821.421	80.91
821.594	70.42
821.767	69.65
821.94	52.56
822.113	40.36
822.286	45.4
822.459	40.65
822.632	54.16
822.805	61.95
822.978	74.68
823.151	74.87
823.324	94.69
823.496	81.72
823.669	73.39
823.842	85.14
824.015	80.79
824.188	62.45
824.361	60.32
824.533	59.99
824.706	51.92
824.879	69.8
825.051	69.22
825.224	90.03
825.397	92.44
825.569	87.95
825.742	85.38
825.915	86.1
826.087	68
826.26	57.48
826.432	71.68
826.605	55.43
826.777	58.69
826.95	72.65
827.122	73.95
827.295	61.93
827.467	75.28
827.64	54.53
827.812	45.86
827.984	73.15
828.157	65.25
828.329	71.52
828.501	96.6
828.674	100.41
828.846	87.19
829.018	101.63
829.19	100.5
829.363	94.1
829.535	90.55
829.707	81.03
829.879	65.14
830.051	59.4
830.223	71.58
830.395	56.04
830.568	48.56
830.74	79.04
830.912	77.4
831.084	65.25
831.256	71.68
831.428	75.35
831.6	63.96
831.772	85.33
831.943	61.84
832.115	71.62
832.287	100.45
832.459	93.7
832.631	80.91
832.803	111.45
832.975	109.2
833.146	69
833.318	50.77
833.49	57.87
833.662	61.37
833.833	71.38
834.005	81.35
834.177	106.38
834.348	110.34
834.52	98.58
834.692	110.21
834.863	98.8
835.035	101.32
835.206	89.27
835.378	87.69
835.549	85.72
835.721	97.1
835.892	78.18
836.064	93.39
836.235	125.63
836.407	136.56
836.578	110.41
836.749	127.77
836.921	114.77
837.092	105.26
837.264	70.36
837.435	77.42
837.606	46
837.777	30.07
837.949	39.79
838.12	12.04
838.291	44.8
838.462	82.36
838.633	74.54
838.805	60.85
838.976	121.1
839.147	111.33
839.318	138.89
839.489	114.42
839.66	145.8
839.831	95.69
840.002	85.25
840.173	9.14
840.344	48.08
840.515	33.84
840.686	43.76
840.857	40.89
841.028	60.11
841.199	73.23
841.369	59.13
841.54	57.3
841.711	91.86
841.882	60.92
842.053	33.73
842.223	36.54
842.394	29.59
842.565	15.9
842.736	59.79
842.906	47.65
843.077	60.98
843.248	60.8
843.418	74.98
843.589	65.68
843.759	90.49
843.93	76.11
844.101	284.07
844.271	88.01
844.442	74.81
844.612	102.17
844.783	109.73
844.953	75.58
845.123	78.72
845.294	62.89
845.464	53
845.635	70.56
845.805	104.17
845.975	99.53
846.146	163.82
846.316	188.04
846.486	77.35
846.656	78.91
846.827	81.43
846.997	20.92
847.167	50.56
847.337	45.06
847.507	41.09
847.677	41.53
847.848	74.45
848.018	90.45
848.188	106.71
848.358	102.94
848.528	101.83
848.698	72.84
848.868	59.68
849.038	30.2
849.208	11.28
849.378	33.28
849.548	40.66
849.718	332.72
849.887	-195.97
850.057	3951.61
850.227	-5.58
850.397	-355.03
850.567	75.29
850.737	56.69
850.906	23.33
851.076	20.22
851.246	23.49
851.415	8.85
851.585	57.59
851.755	56.21
851.924	77.16
852.094	97.63
852.264	76.1
852.433	42.1
852.603	72.15
852.772	61.76
852.942	40.59
853.111	31.24
853.281	59.52
853.45	38.11
853.62	29.51
853.789	-47.13
853.959	-192.07
854.128	138.39
854.297	145.39
854.467	294.09
854.636	-68.14
854.805	40.71
854.975	14.07
855.144	18.65
855.313	39.27
855.482	52.09
855.652	55.52
855.821	49.56
855.99	108.01
856.159	185.46
856.328	117.1
856.497	115.17
856.667	184.82
856.836	146.3
857.005	167.44
857.174	160.46
857.343	176.86
857.512	120.83
857.681	71.69
857.85	36.09
858.019	16.07
858.188	-22.75
858.356	-55.07
858.525	-22.4
858.694	12.72
858.863	27.68
859.032	55.68
859.201	61.66
859.369	90.25
859.538	60.52
859.707	13.05
859.876	29.09
860.044	33.18
860.213	46.01
860.382	74.96
860.55	103.63
860.719	118.37
860.888	129.04
861.056	153.89
861.225	136.51
861.393	186.52
861.562	198.88
861.73	185.96
861.899	131.44
862.067	155.08
862.236	74.25
862.404	40.31
862.572	-17.24
862.741	-285.64
862.909	33.15
863.078	68.34
863.246	70.7
863.414	134.75
863.582	106.79
863.751	100.18
863.919	95.06
864.087	115.36
864.255	94.74
864.424	134.33
864.592	94.06
864.76	94.97
864.928	28.82
865.096	-3.55
865.264	-5.24
865.432	-39.62
865.6	-101.51
865.768	-48.21
865.936	-133.48
866.104	-426.58
866.272	0.71
866.44	-108.79
866.608	-57.52
866.776	-10.17
866.944	-1.93
867.112	-30.18
867.28	-30.08
867.448	17.79
867.615	66.28
867.783	50.43
867.951	16.85
868.119	37.73
868.286	67.08
868.454	11.17
868.622	-44.86
868.789	228.64
868.957	-597.74
869.125	225.98
869.292	-454.5
869.46	57.87
869.627	-1007.43
869.795	-152.36
869.963	-35.35
870.13	-17.62
870.298	14.29
870.465	21.26
870.632	12.76
870.8	1.97
870.967	40.65
871.135	-88.57
871.302	192.74
871.469	88.9
871.637	42.55
871.804	2.78
871.971	-16.17
872.139	-1.91
872.306	14.65
872.473	-210.55
872.64	-58.33
872.807	49.53
872.975	-11.59
873.142	-28.74
873.309	20.77
873.476	37.13
873.643	20.7
873.81	57.75
873.977	98.48
874.144	147.96
874.311	231.86
874.478	244.7
874.645	28.86
874.812	-585.31
874.979	-107.15
875.146	-45.41
875.313	-234.74
875.48	150.6
875.647	-50.45
875.813	-575.95
875.98	334.33
876.147	26.57
876.314	59.65
876.481	36.03
876.647	34.26
876.814	55.49
876.981	4.6
877.147	-40.91
877.314	-70.17
877.481	-88.75
877.647	-271.08
877.814	-186.11
877.98	-202.09
878.147	26.14
878.314	-0.18
878.48	641.7
878.647	22.38
878.813	1157.55
878.979	66.68
879.146	58.33
879.312	35.58
879.479	120.99
879.645	76.71
879.811	42.13
879.978	51.33
880.144	104.86
880.31	69.2
880.477	273.15
880.643	-318.38
880.809	-558.54
880.975	-114.07
881.142	-134.9
881.308	-117.64
881.474	47.39
881.64	107.8
881.806	60.04
881.972	84.17
882.138	103.24
882.304	98.23
882.47	39.37
882.636	70.49
882.802	42.09
882.968	10.58
883.134	-0.57
883.3	34.3
883.466	24.49
883.632	62.73
883.798	77.54
883.964	25.79
884.129	62.97
884.295	97.68
884.461	-118.66
884.627	517.1
884.793	12.72
884.958	107.21
885.124	1080.2
885.29	-196.77
885.455	-38.73
885.621	0.39
885.787	-22.07
885.952	-40.29
886.118	25.16
886.283	21.61
886.449	-3.01
886.614	71.18
886.78	100.65
886.945	75.9
887.111	39.06
887.276	40.64
887.442	82.82
887.607	73.36
887.773	147.78
887.938	121.77
888.103	94.27
888.269	-287.47
888.434	11570.59
888.599	-169.46
888.764	513.59
888.93	123.38
889.095	115.89
889.26	172.59
889.425	214.44
889.59	135.92
889.756	132.55
889.921	73.13
890.086	17.41
890.251	-24.36
890.416	-15.33
890.581	-65.98
890.746	95.72
890.911	152.74
891.076	353.37
891.241	111.1
891.406	19557.14
891.571	166.09
891.736	165.75
891.901	237.57
892.065	34.03
892.23	218.92
892.395	277.26
892.56	1988.59
892.725	-372.26
892.889	-677.68
893.054	-2001.99
893.219	-3124.46
893.384	-475.69
893.548	-543.74
893.713	-387.19
893.878	-462.3
