Data from Ofav_SP_Phys_4JQ12_Reflection_2.txt Node
Date: Thu Aug 05 17:52:29 EDT 2021
User: Adam
Spectrometer: FLMT01687
Trigger mode: 0
Integration Time (sec): 8.000000E-1
Scans to average: 2
Electric dark correction enabled: true
Nonlinearity correction enabled: false
Boxcar width: 2
XAxis mode: Wavelengths
Number of Pixels in Spectrum: 3648
>>>>>Begin Spectral Data<<<<<
179.494	687.85
179.716	794.97
179.937	700.75
180.158	820.06
180.38	2022.43
180.601	-945.21
180.823	-156.3
181.044	-22.12
181.265	-32.9
181.486	-150.18
181.708	-310.07
181.929	-8.06
182.15	-115.1
182.372	10.65
182.593	-37.12
182.814	-97.89
183.035	-127.44
183.257	-548.75
183.478	473.9
183.699	-260.79
183.92	-6.88
184.141	-174.89
184.363	567.57
184.584	10.29
184.805	70.57
185.026	57.67
185.247	49.17
185.468	64.58
185.689	51.35
185.91	15.71
186.132	-37.58
186.353	-3.89
186.574	-93.95
186.795	-44.67
187.016	-36.15
187.237	-13.78
187.458	-250.06
187.679	-7.93
187.9	-26.25
188.121	-0.32
188.342	14.63
188.563	50.39
188.784	53.73
189.005	26.9
189.226	65.23
189.447	55.92
189.667	51.41
189.888	266.58
190.109	211.79
190.33	145.18
190.551	145.55
190.772	163.87
190.993	94.87
191.214	72
191.434	60.62
191.655	31.19
191.876	41.62
192.097	41.63
192.318	36.51
192.538	21.97
192.759	85.48
192.98	48.32
193.201	-113.75
193.421	-29.51
193.642	-15.28
193.863	-58.18
194.083	-12.55
194.304	22.39
194.525	-4.69
194.745	-2.48
194.966	15.09
195.187	10.48
195.407	-9.74
195.628	-1.23
195.848	42.6
196.069	51.63
196.29	58.46
196.51	65.18
196.731	58.4
196.951	62.88
197.172	68.61
197.392	63.36
197.613	62.5
197.833	89.16
198.054	48.9
198.274	20.69
198.495	24.16
198.715	8.41
198.936	-86.07
199.156	8.12
199.377	14.59
199.597	30.21
199.817	37.26
200.038	28.58
200.258	28.39
200.479	18.73
200.699	2.6
200.919	-7.05
201.14	-39.26
201.36	-57.63
201.58	-8.95
201.801	-96.03
202.021	-84.96
202.241	10.88
202.461	-48.4
202.682	-80.1
202.902	-48.18
203.122	-90.86
203.342	20.21
203.563	-0.91
203.783	12.83
204.003	10.29
204.223	23.41
204.443	-38.08
204.663	-30.55
204.884	-0.56
205.104	-21.45
205.324	-22.88
205.544	2.14
205.764	-0.98
205.984	-41.07
206.204	-52.13
206.424	-26.56
206.644	-41.62
206.864	-23.42
207.084	-48.48
207.304	31.11
207.525	-5.79
207.745	66.43
207.964	70.57
208.184	99.96
208.404	17.9
208.624	13.17
208.844	-52.12
209.064	-38.69
209.284	-24.32
209.504	-33.32
209.724	2.65
209.944	-22.44
210.164	-29.73
210.384	-5.86
210.604	-2.67
210.823	2.07
211.043	23.56
211.263	24.69
211.483	31.73
211.703	51.26
211.922	52.6
212.142	63.68
212.362	64.51
212.582	10.59
212.801	50.88
213.021	51.05
213.241	18.16
213.461	-16.48
213.68	-7.11
213.9	-39.47
214.12	-89.69
214.339	-67.2
214.559	-13.23
214.779	-3
214.998	-18.84
215.218	14.86
215.438	28.59
215.657	66.16
215.877	105.73
216.096	88.32
216.316	58.85
216.535	27.65
216.755	-107.5
216.974	-430.74
217.194	-92.17
217.413	-4.75
217.633	22.37
217.852	35.05
218.072	38.44
218.291	20.09
218.511	28.33
218.73	-14.41
218.95	-35.89
219.169	-41.99
219.389	17.37
219.608	-34.56
219.827	-2.94
220.047	37.29
220.266	42.63
220.485	29.56
220.705	44.48
220.924	16.8
221.143	-16.15
221.363	-50.23
221.582	-71.61
221.801	-100.39
222.021	-17.38
222.24	18.81
222.459	31.95
222.678	44.06
222.897	41.45
223.117	49.88
223.336	16.76
223.555	13.52
223.774	-9.98
223.993	-40.1
224.213	-21.43
224.432	-53.42
224.651	-27.55
224.87	-17.75
225.089	-11.91
225.308	-94.19
225.527	-21.59
225.746	-40.74
225.965	-40.36
226.184	7.41
226.404	35.15
226.623	-19.61
226.842	0.65
227.061	12.03
227.28	9.21
227.499	12.84
227.718	28.14
227.936	28.68
228.155	23.62
228.374	20.18
228.593	4.16
228.812	10.36
229.031	16.16
229.25	15.81
229.469	10.44
229.688	12.63
229.907	4.48
230.125	-9.21
230.344	-9.96
230.563	-3.99
230.782	-22.35
231.001	-28.52
231.22	-8.62
231.438	-9.24
231.657	-15.12
231.876	-37.65
232.095	-3.85
232.313	3.98
232.532	2.91
232.751	23.58
232.969	23.12
233.188	6.89
233.407	-8.71
233.625	8.82
233.844	-41.86
234.063	-31.03
234.281	-5.5
234.5	6.21
234.719	1.32
234.937	8.82
235.156	29.76
235.374	10.33
235.593	-3.96
235.811	-16.57
236.03	-6.51
236.249	-12.2
236.467	-10.91
236.686	-29.48
236.904	-26.29
237.123	-34.27
237.341	0.72
237.559	-28.31
237.778	4.77
237.996	26.68
238.215	36.19
238.433	21.98
238.652	52.09
238.87	16.38
239.088	-23.21
239.307	-18.33
239.525	-17.05
239.743	-44.97
239.962	-21.43
240.18	-11.19
240.398	-2.14
240.617	-28.04
240.835	40.02
241.053	35
241.271	22.36
241.49	41.03
241.708	23.85
241.926	9.06
242.144	-31.83
242.363	-54.93
242.581	-85.95
242.799	-93.79
243.017	-133.02
243.235	-145.71
243.453	-54.07
243.672	-38.59
243.89	-14.54
244.108	43.78
244.326	49.71
244.544	50.95
244.762	38.85
244.98	31.61
245.198	-1.95
245.416	25.81
245.634	14.07
245.852	-16.46
246.07	6.06
246.288	-4.01
246.506	-86.19
246.724	-52.1
246.942	-55.14
247.16	-71.64
247.378	-181.33
247.596	-94.47
247.814	-46.77
248.032	-35.1
248.25	-92.34
248.468	-30.31
248.685	6.58
248.903	-3.05
249.121	-5.42
249.339	31.68
249.557	23.9
249.775	-3.91
249.992	-31.45
250.21	-9.84
250.428	-18.44
250.646	-34.55
250.863	-14.2
251.081	-5.79
251.299	-14.93
251.517	8.73
251.734	41.93
251.952	10.48
252.17	12.82
252.387	3.91
252.605	-20.68
252.823	-6.48
253.04	1.44
253.258	11.83
253.475	21.59
253.693	39.43
253.911	37.58
254.128	38.7
254.346	38.76
254.563	48.6
254.781	31.41
254.998	22.23
255.216	-11.25
255.433	-14.63
255.651	-64.36
255.868	-44.08
256.086	-67.75
256.303	-43.43
256.521	-58.13
256.738	-95.21
256.956	-170.57
257.173	-2.03
257.39	49.75
257.608	27.69
257.825	27.64
258.043	25.49
258.26	0.91
258.477	5.15
258.695	19.06
258.912	27.78
259.129	40.85
259.346	43.41
259.564	19.66
259.781	17.1
259.998	16.59
260.216	17.84
260.433	40.38
260.65	52.5
260.867	69.06
261.084	72.48
261.302	51.27
261.519	34.19
261.736	49.84
261.953	42.9
262.17	35.97
262.387	73.96
262.604	73.54
262.822	92.82
263.039	85.31
263.256	121.39
263.473	77.92
263.69	92.88
263.907	54.27
264.124	49.79
264.341	7.23
264.558	6.04
264.775	-34.64
264.992	9.21
265.209	10.4
265.426	17.78
265.643	2.68
265.86	6.9
266.077	-26.68
266.294	-27.31
266.51	-31.88
266.727	-3.41
266.944	29.11
267.161	49.46
267.378	37.51
267.595	31.1
267.812	2.02
268.028	-20.16
268.245	-20.57
268.462	-22.21
268.679	-9.96
268.896	1.08
269.112	-9.99
269.329	11.88
269.546	23.48
269.763	24.18
269.979	36.22
270.196	59.24
270.413	32.85
270.629	21.25
270.846	23.34
271.063	24.07
271.279	-20.13
271.496	-63.75
271.712	-116.74
271.929	-128.17
272.146	-86.29
272.362	-98.09
272.579	-39.24
272.795	6.37
273.012	31.51
273.228	7.37
273.445	29.76
273.661	46.46
273.878	9.52
274.094	-16.03
274.311	-1.96
274.527	-39.91
274.744	-73.23
274.96	-25.36
275.177	-13.82
275.393	-32.79
275.609	-12.12
275.826	-15.61
276.042	-12.29
276.259	-20.52
276.475	-13.94
276.691	-0.24
276.908	5.61
277.124	24.74
277.34	33.57
277.557	8.63
277.773	2.65
277.989	-2.86
278.205	-32.58
278.422	-40.16
278.638	22.01
278.854	39.9
279.07	37.81
279.286	2.24
279.503	0.64
279.719	-28.84
279.935	-18.73
280.151	-2.56
280.367	38.25
280.583	22.47
280.799	43.44
281.016	29.39
281.232	24.17
281.448	-4.02
281.664	21.23
281.88	19.61
282.096	21.02
282.312	21.53
282.528	21.12
282.744	34.07
282.96	31.98
283.176	34.86
283.392	40.54
283.608	53.24
283.824	45.3
284.04	53.39
284.256	46.7
284.471	38.24
284.687	33.47
284.903	31.53
285.119	26.2
285.335	4.14
285.551	-16.01
285.767	-35.44
285.982	-58.33
286.198	-129.97
286.414	-82.89
286.63	-52.13
286.846	-11.01
287.061	-9.47
287.277	-1.01
287.493	40.42
287.709	46.99
287.924	45.65
288.14	41.19
288.356	56.14
288.571	41.82
288.787	41.64
289.003	20.05
289.218	-8.42
289.434	-63.95
289.65	-75.96
289.865	-56.15
290.081	-29.31
290.296	-17.79
290.512	-13.03
290.727	7.33
290.943	11.3
291.159	21.74
291.374	47.35
291.59	41.14
291.805	31.01
292.021	64.74
292.236	54.46
292.451	-4.29
292.667	0.75
292.882	-12.74
293.098	-35.99
293.313	-14.66
293.529	13.54
293.744	22.58
293.959	26.55
294.175	40.82
294.39	28.3
294.605	9.33
294.821	23.72
295.036	14.11
295.251	15.25
295.467	27.65
295.682	32.99
295.897	31.15
296.112	38.31
296.328	35.31
296.543	37.89
296.758	10.75
296.973	17.75
297.188	23.65
297.404	20.27
297.619	18.73
297.834	22.93
298.049	-17.86
298.264	-29.93
298.479	-44.38
298.694	-41.33
298.909	-17.39
299.125	6.48
299.34	18.54
299.555	8.25
299.77	14.73
299.985	19.13
300.2	34.39
300.415	14.14
300.63	12.96
300.845	0.33
301.06	-1.27
301.275	-18.81
301.49	0.63
301.704	-6.54
301.919	9.66
302.134	0.92
302.349	7.75
302.564	-6.14
302.779	-0.08
302.994	-4
303.209	10.74
303.423	-1.56
303.638	4.1
303.853	0.96
304.068	0.09
304.283	0.75
304.497	-5.63
304.712	-30.71
304.927	-36.7
305.142	-30.03
305.356	-38.95
305.571	7.01
305.786	35.32
306	41.07
306.215	60.4
306.43	68.46
306.644	63.93
306.859	46.84
307.074	47.14
307.288	25.52
307.503	39.71
307.717	22.14
307.932	2.16
308.147	17.9
308.361	21.54
308.576	4.12
308.79	-6.21
309.005	23.53
309.219	-23.79
309.434	-69.51
309.648	-115.29
309.863	-130.59
310.077	-203.25
310.292	-131.39
310.506	-86.71
310.72	-29.94
310.935	-10.81
311.149	2.82
311.364	28.66
311.578	50.47
311.792	54.66
312.007	60.44
312.221	54.51
312.435	69.95
312.649	51.79
312.864	19.48
313.078	24.28
313.292	40.38
313.507	37.09
313.721	47.91
313.935	61.51
314.149	39.85
314.363	33.33
314.578	12.76
314.792	-2.64
315.006	-8.77
315.22	16.52
315.434	2.54
315.648	-26.55
315.862	-0.3
316.077	11.49
316.291	5.46
316.505	50.23
316.719	53.56
316.933	32.13
317.147	23.85
317.361	16.85
317.575	-22.64
317.789	-8.53
318.003	-27.29
318.217	18.27
318.431	55.41
318.645	77.06
318.859	51.44
319.073	56.55
319.287	10.27
319.5	-7.25
319.714	-29.09
319.928	19.05
320.142	17.14
320.356	29.02
320.57	26.85
320.784	25.64
320.997	-12.72
321.211	6.46
321.425	-10.48
321.639	-45.89
321.853	-44.53
322.066	-35.89
322.28	-45.11
322.494	-43.41
322.707	-23.75
322.921	-16.46
323.135	-12.04
323.349	-9.21
323.562	-22.58
323.776	1.81
323.989	-18.34
324.203	-21.24
324.417	1.8
324.63	0.61
324.844	-33.2
325.057	-27.18
325.271	-37.48
325.485	-25.07
325.698	-16.49
325.912	4.02
326.125	15.15
326.339	42.13
326.552	15.84
326.766	25.61
326.979	26.03
327.193	31.36
327.406	11.01
327.619	31.67
327.833	1.53
328.046	5.41
328.26	-20.49
328.473	-42.14
328.686	-33.41
328.9	-2.43
329.113	2.91
329.326	12.4
329.54	30.53
329.753	41.74
329.966	41.37
330.179	43.65
330.393	53.23
330.606	44.22
330.819	34.5
331.032	45.66
331.246	58.55
331.459	42.88
331.672	71.64
331.885	59.15
332.098	54.74
332.311	51.54
332.525	37.32
332.738	16.24
332.951	14.72
333.164	29.22
333.377	15.27
333.59	28.24
333.803	18.19
334.016	1.1
334.229	-33.67
334.442	-2.65
334.655	13.74
334.868	32.86
335.081	45.45
335.294	55.07
335.507	60.16
335.72	67.96
335.933	64.15
336.146	59.53
336.359	55.7
336.572	39.2
336.785	11.83
336.997	5.15
337.21	30.97
337.423	28.11
337.636	43.01
337.849	68.47
338.062	61.73
338.274	35.13
338.487	21.01
338.7	8.86
338.913	-7.28
339.125	11.2
339.338	-4.2
339.551	-0.96
339.763	16.18
339.976	8.84
340.189	5.63
340.402	5.01
340.614	15.95
340.827	30.22
341.039	35.48
341.252	33.38
341.465	27.97
341.677	29.55
341.89	-10.64
342.102	-0.74
342.315	-3.24
342.527	13.95
342.74	9.69
342.952	15.62
343.165	26.06
343.377	38.53
343.59	27.99
343.802	26.14
344.015	25.79
344.227	2.93
344.44	8.61
344.652	22.3
344.864	29.83
345.077	27.24
345.289	16.97
345.502	3.67
345.714	-2.84
345.926	-3.32
346.139	4.57
346.351	0.94
346.563	-18.43
346.775	-19.81
346.988	-63.56
347.2	-48.23
347.412	-37.55
347.624	15.48
347.837	5.44
348.049	16.68
348.261	-7.02
348.473	10.6
348.685	12.85
348.897	17.54
349.11	15.14
349.322	8.11
349.534	-8
349.746	-4.29
349.958	0.99
350.17	17.19
350.382	17.91
350.594	10.28
350.806	5.79
351.018	17.49
351.23	17.25
351.442	29.85
351.654	32.09
351.866	27.21
352.078	12.53
352.29	-1
352.502	8.26
352.714	-12.19
352.926	3.01
353.138	1.62
353.35	15.04
353.561	7.57
353.773	12.79
353.985	14.02
354.197	29.68
354.409	33.11
354.621	31.46
354.832	42.39
355.044	40.38
355.256	47.07
355.468	34.48
355.679	47.91
355.891	50.66
356.103	44.93
356.314	43.19
356.526	44.84
356.738	24.97
356.949	5.43
357.161	30.95
357.373	4.43
357.584	-1.2
357.796	-0.34
358.008	16.42
358.219	-20.17
358.431	24.24
358.642	25.65
358.854	25.83
359.065	36.98
359.277	30.32
359.488	8.6
359.7	23.47
359.911	10.77
360.123	3.81
360.334	11.56
360.546	6.17
360.757	-6.57
360.969	16.85
361.18	37.43
361.391	44.88
361.603	64.94
361.814	64.99
362.025	70.64
362.237	44.66
362.448	37.29
362.659	40.98
362.871	33.07
363.082	16.57
363.293	19.42
363.504	13.88
363.716	10.18
363.927	36.31
364.138	23
364.349	-1.27
364.56	10.29
364.772	0.09
364.983	-11.94
365.194	-8.22
365.405	20.18
365.616	10.75
365.827	27.86
366.038	26.83
366.25	38.39
366.461	21.83
366.672	22.64
366.883	6.01
367.094	0.37
367.305	3.22
367.516	15.22
367.727	21.17
367.938	34.91
368.149	32.22
368.36	39.67
368.571	55.05
368.781	37.82
368.992	-0.49
369.203	-0.35
369.414	-24.17
369.625	-24.12
369.836	-26.13
370.047	-15.12
370.258	-4.42
370.468	-2.19
370.679	0.31
370.89	6.18
371.101	9.95
371.312	-5.78
371.522	5.22
371.733	13.69
371.944	15.69
372.155	27.27
372.365	24.76
372.576	22.61
372.787	17.53
372.997	33.85
373.208	25.76
373.419	39.84
373.629	41.09
373.84	44.19
374.05	22.76
374.261	21.28
374.472	13.43
374.682	-3.76
374.893	0.9
375.103	1.18
375.314	7.78
375.524	21.3
375.735	32.2
375.945	32.78
376.156	36.72
376.366	32.69
376.577	36.28
376.787	29.67
376.997	32.5
377.208	38.01
377.418	37.17
377.629	32.37
377.839	48.29
378.049	39.63
378.26	29.58
378.47	33.33
378.68	33.41
378.89	16.15
379.101	17.1
379.311	16.59
379.521	11.56
379.732	16.92
379.942	23.71
380.152	22.66
380.362	27.03
380.572	29.79
380.783	14.48
380.993	10.16
381.203	10.5
381.413	5.38
381.623	2.31
381.833	4.6
382.043	4.34
382.253	7.32
382.463	13.49
382.674	15.41
382.884	13.34
383.094	6.76
383.304	-3
383.514	-10.79
383.724	-16
383.934	-9.05
384.144	-4.1
384.353	-0.64
384.563	-2.09
384.773	2.19
384.983	-9.12
385.193	-2.94
385.403	2.15
385.613	7.44
385.823	1.65
386.033	3.37
386.242	0.43
386.452	-0.81
386.662	3.03
386.872	7.63
387.082	12.97
387.291	-1.66
387.501	-0.7
387.711	-2.75
387.921	-4.59
388.13	-5.6
388.34	5.45
388.55	3.54
388.759	1.79
388.969	5.04
389.179	4.17
389.388	4.88
389.598	6.19
389.807	10.02
390.017	7
390.227	8.11
390.436	8.21
390.646	4.82
390.855	1.39
391.065	0.89
391.274	1.05
391.484	0.72
391.693	1.71
391.903	3.17
392.112	5.5
392.322	4.77
392.531	4.52
392.74	4.37
392.95	1.91
393.159	1.11
393.369	1.58
393.578	1.69
393.787	3.34
393.997	5.78
394.206	5.11
394.415	5.04
394.625	6.08
394.834	5.17
395.043	4.2
395.252	5.28
395.462	4.71
395.671	3.88
395.88	4.49
396.089	4.72
396.298	4.58
396.508	5.19
396.717	4.45
396.926	3.82
397.135	3.29
397.344	2.75
397.553	2.64
397.762	2.92
397.971	2.78
398.181	2.61
398.39	2.33
398.599	2.27
398.808	2.32
399.017	2.32
399.226	2.73
399.435	3.07
399.644	3.28
399.853	3.56
400.062	3.75
400.27	3.36
400.479	3.09
400.688	2.75
400.897	2.86
401.106	2.65
401.315	2.61
401.524	2.9
401.733	3.13
401.941	2.93
402.15	2.81
402.359	2.84
402.568	2.64
402.777	2.59
402.985	2.54
403.194	2.5
403.403	2.5
403.612	2.5
403.82	2.51
404.029	2.37
404.238	2.49
404.446	2.62
404.655	2.66
404.864	2.57
405.072	2.57
405.281	2.55
405.489	2.6
405.698	2.81
405.906	2.73
406.115	2.78
406.324	2.91
406.532	2.75
406.741	2.55
406.949	2.37
407.158	2.37
407.366	2.2
407.574	2.33
407.783	2.27
407.991	2.46
408.2	2.44
408.408	2.31
408.617	2.35
408.825	2.35
409.033	2.34
409.242	2.29
409.45	2.29
409.658	2.06
409.867	2.08
410.075	1.98
410.283	2.08
410.491	2.21
410.7	2.26
410.908	2.19
411.116	2.21
411.324	2.13
411.533	2.1
411.741	1.97
411.949	2.01
412.157	2.05
412.365	2.12
412.573	2.05
412.781	2.23
412.99	2.13
413.198	2.36
413.406	2.37
413.614	2.4
413.822	2.44
414.03	2.51
414.238	2.29
414.446	2.32
414.654	2.34
414.862	2.22
415.07	2.26
415.278	2.19
415.486	2.01
415.694	1.97
415.902	1.95
416.109	1.77
416.317	1.89
416.525	1.87
416.733	1.9
416.941	2.07
417.149	2.27
417.357	2.15
417.564	2.04
417.772	1.99
417.98	1.79
418.188	1.63
418.395	1.48
418.603	1.7
418.811	1.67
419.019	1.9
419.226	2.03
419.434	2.13
419.642	2.02
419.849	2.11
420.057	1.89
420.265	1.85
420.472	1.76
420.68	1.75
420.887	1.74
421.095	1.77
421.302	1.67
421.51	1.78
421.717	1.88
421.925	1.76
422.132	1.8
422.34	1.81
422.547	1.78
422.755	1.69
422.962	1.84
423.17	1.79
423.377	1.72
423.585	1.87
423.792	1.83
423.999	1.76
424.207	1.64
424.414	1.59
424.621	1.58
424.829	1.63
425.036	1.7
425.243	1.88
425.451	2.07
425.658	2.07
425.865	1.98
426.072	1.8
426.28	1.67
426.487	1.44
426.694	1.44
426.901	1.6
427.108	1.86
427.315	1.94
427.523	2.03
427.73	1.94
427.937	1.72
428.144	1.6
428.351	1.77
428.558	1.8
428.765	1.66
428.972	1.68
429.179	1.6
429.386	1.48
429.593	1.64
429.8	1.74
430.007	1.86
430.214	1.85
430.421	1.97
430.628	1.81
430.835	1.92
431.042	1.89
431.249	1.89
431.456	1.6
431.662	1.82
431.869	1.77
432.076	1.81
432.283	1.92
432.49	2
432.697	1.96
432.903	1.83
433.11	1.83
433.317	1.8
433.524	1.93
433.73	1.77
433.937	1.78
434.144	1.78
434.35	1.73
434.557	1.59
434.764	1.53
434.97	1.51
435.177	1.58
435.384	1.33
435.59	1.35
435.797	1.56
436.003	1.58
436.21	1.4
436.416	1.54
436.623	1.48
436.829	1.33
437.036	1.34
437.242	1.39
437.449	1.48
437.655	1.59
437.862	1.69
438.068	1.83
438.275	1.86
438.481	1.91
438.687	1.8
438.894	1.91
439.1	1.82
439.307	1.85
439.513	1.84
439.719	1.99
439.926	1.87
440.132	1.85
440.338	1.85
440.544	1.85
440.751	1.76
440.957	1.69
441.163	1.76
441.369	1.76
441.575	1.67
441.782	1.67
441.988	1.69
442.194	1.56
442.4	1.5
442.606	1.53
442.812	1.53
443.018	1.51
443.224	1.52
443.431	1.58
443.637	1.48
443.843	1.42
444.049	1.36
444.255	1.39
444.461	1.32
444.667	1.35
444.873	1.34
445.079	1.31
445.284	1.44
445.49	1.41
445.696	1.57
445.902	1.61
446.108	1.69
446.314	1.48
446.52	1.6
446.726	1.62
446.931	1.71
447.137	1.72
447.343	1.79
447.549	1.66
447.755	1.63
447.96	1.6
448.166	1.61
448.372	1.62
448.578	1.63
448.783	1.63
448.989	1.55
449.195	1.55
449.4	1.55
449.606	1.59
449.812	1.53
450.017	1.61
450.223	1.55
450.428	1.57
450.634	1.56
450.84	1.62
451.045	1.57
451.251	1.65
451.456	1.74
451.662	1.69
451.867	1.68
452.073	1.76
452.278	1.78
452.483	1.73
452.689	1.81
452.894	1.82
453.1	1.83
453.305	1.83
453.51	1.73
453.716	1.75
453.921	1.66
454.127	1.61
454.332	1.54
454.537	1.66
454.742	1.63
454.948	1.59
455.153	1.54
455.358	1.57
455.563	1.55
455.769	1.4
455.974	1.48
456.179	1.41
456.384	1.23
456.589	1.18
456.795	1.32
457	1.31
457.205	1.38
457.41	1.56
457.615	1.58
457.82	1.58
458.025	1.52
458.23	1.49
458.435	1.38
458.64	1.2
458.845	1.28
459.05	1.28
459.255	1.32
459.46	1.38
459.665	1.55
459.87	1.49
460.075	1.54
460.28	1.56
460.485	1.58
460.69	1.49
460.895	1.26
461.099	1.27
461.304	1.29
461.509	1.39
461.714	1.48
461.919	1.66
462.123	1.58
462.328	1.5
462.533	1.43
462.738	1.47
462.942	1.47
463.147	1.57
463.352	1.64
463.556	1.61
463.761	1.42
463.966	1.36
464.17	1.36
464.375	1.35
464.58	1.29
464.784	1.42
464.989	1.54
465.193	1.48
465.398	1.55
465.602	1.77
465.807	1.81
466.011	1.79
466.216	1.85
466.42	1.76
466.625	1.7
466.829	1.77
467.034	1.85
467.238	1.83
467.443	1.82
467.647	1.62
467.851	1.55
468.056	1.4
468.26	1.38
468.464	1.34
468.669	1.6
468.873	1.55
469.077	1.54
469.282	1.61
469.486	1.56
469.69	1.47
469.894	1.45
470.099	1.51
470.303	1.48
470.507	1.5
470.711	1.5
470.915	1.57
471.119	1.6
471.324	1.63
471.528	1.52
471.732	1.51
471.936	1.47
472.14	1.49
472.344	1.43
472.548	1.64
472.752	1.65
472.956	1.68
473.16	1.69
473.364	1.72
473.568	1.67
473.772	1.69
473.976	1.74
474.18	1.65
474.384	1.67
474.588	1.68
474.792	1.62
474.995	1.56
475.199	1.56
475.403	1.49
475.607	1.52
475.811	1.49
476.015	1.46
476.218	1.49
476.422	1.45
476.626	1.45
476.83	1.5
477.033	1.53
477.237	1.56
477.441	1.65
477.644	1.65
477.848	1.62
478.052	1.49
478.255	1.49
478.459	1.45
478.663	1.45
478.866	1.48
479.07	1.62
479.273	1.57
479.477	1.65
479.681	1.69
479.884	1.77
480.088	1.66
480.291	1.76
480.495	1.68
480.698	1.64
480.901	1.6
481.105	1.72
481.308	1.59
481.512	1.61
481.715	1.67
481.919	1.7
482.122	1.78
482.325	1.84
482.529	1.88
482.732	1.87
482.935	1.79
483.138	1.8
483.342	1.78
483.545	1.79
483.748	1.76
483.952	1.84
484.155	1.8
484.358	1.8
484.561	1.76
484.764	1.75
484.967	1.73
485.171	1.61
485.374	1.68
485.577	1.74
485.78	1.83
485.983	1.85
486.186	1.97
486.389	1.91
486.592	1.89
486.795	1.9
486.998	1.87
487.201	1.89
487.404	1.91
487.607	1.98
487.81	1.89
488.013	1.94
488.216	1.91
488.419	1.92
488.622	1.75
488.825	1.84
489.028	1.82
489.231	1.92
489.433	1.93
489.636	2.06
489.839	1.98
490.042	2.01
490.245	1.95
490.447	2.03
490.65	2.03
490.853	2.17
491.056	2.18
491.258	2.17
491.461	2.15
491.664	2.11
491.866	2.06
492.069	2.1
492.272	2.07
492.474	2.05
492.677	2.13
492.879	2.1
493.082	2.11
493.285	2.14
493.487	2.15
493.69	2.14
493.892	2.17
494.095	2.27
494.297	2.36
494.5	2.44
494.702	2.39
494.905	2.42
495.107	2.32
495.309	2.35
495.512	2.33
495.714	2.47
495.917	2.52
496.119	2.6
496.321	2.62
496.524	2.69
496.726	2.68
496.928	2.62
497.13	2.6
497.333	2.59
497.535	2.73
497.737	2.71
497.939	2.85
498.142	2.87
498.344	2.93
498.546	2.88
498.748	2.96
498.95	2.97
499.152	2.96
499.355	3.01
499.557	3.01
499.759	3.11
499.961	3.14
500.163	3.18
500.365	3.31
500.567	3.33
500.769	3.23
500.971	3.23
501.173	3.31
501.375	3.15
501.577	3.17
501.779	3.3
501.981	3.41
502.183	3.43
502.385	3.43
502.587	3.35
502.788	3.24
502.99	3.18
503.192	3.2
503.394	3.2
503.596	3.25
503.798	3.3
503.999	3.32
504.201	3.3
504.403	3.39
504.605	3.47
504.806	3.49
505.008	3.45
505.21	3.4
505.411	3.29
505.613	3.23
505.815	3.23
506.016	3.2
506.218	3.23
506.42	3.3
506.621	3.32
506.823	3.29
507.024	3.29
507.226	3.35
507.427	3.29
507.629	3.24
507.83	3.26
508.032	3.23
508.233	3.18
508.435	3.23
508.636	3.28
508.838	3.26
509.039	3.3
509.24	3.29
509.442	3.3
509.643	3.28
509.845	3.31
510.046	3.29
510.247	3.38
510.448	3.34
510.65	3.35
510.851	3.28
511.052	3.34
511.254	3.26
511.455	3.24
511.656	3.17
511.857	3.13
512.058	3.04
512.26	2.94
512.461	2.93
512.662	2.96
512.863	2.92
513.064	3.04
513.265	3.1
513.466	3.1
513.667	3.14
513.868	3.17
514.069	3.14
514.27	3.11
514.471	3.06
514.672	3.04
514.873	2.99
515.074	2.96
515.275	2.96
515.476	2.96
515.677	2.92
515.878	3.03
516.079	3
516.28	3.01
516.481	3.02
516.682	3.02
516.882	2.97
517.083	2.96
517.284	2.96
517.485	2.95
517.686	3.03
517.886	3.02
518.087	3.01
518.288	3.02
518.488	3.03
518.689	2.94
518.89	2.93
519.091	2.94
519.291	2.9
519.492	2.92
519.692	2.98
519.893	3.06
520.094	2.97
520.294	2.99
520.495	3.04
520.695	3.01
520.896	2.93
521.096	3.01
521.297	3.1
521.497	3.09
521.698	3.07
521.898	3.07
522.099	3.07
522.299	3.02
522.499	3.02
522.7	2.99
522.9	3.03
523.101	3.03
523.301	3.02
523.501	2.95
523.702	3.02
523.902	3.01
524.102	3.03
524.302	3.05
524.503	3.08
524.703	3.09
524.903	3.13
525.103	3.2
525.304	3.18
525.504	3.26
525.704	3.19
525.904	3.17
526.104	3.06
526.304	3.13
526.504	3.1
526.705	3.12
526.905	3.1
527.105	3.12
527.305	3.12
527.505	3.08
527.705	3.13
527.905	3.17
528.105	3.18
528.305	3.13
528.505	3.18
528.705	3.2
528.905	3.15
529.105	3.15
529.304	3.2
529.504	3.18
529.704	3.22
529.904	3.29
530.104	3.34
530.304	3.35
530.503	3.29
530.703	3.2
530.903	3.21
531.103	3.19
531.303	3.16
531.502	3.26
531.702	3.26
531.902	3.27
532.101	3.3
532.301	3.31
532.501	3.28
532.7	3.33
532.9	3.31
533.1	3.32
533.299	3.32
533.499	3.36
533.698	3.36
533.898	3.32
534.097	3.3
534.297	3.31
534.496	3.26
534.696	3.26
534.895	3.37
535.095	3.41
535.294	3.46
535.494	3.5
535.693	3.5
535.892	3.45
536.092	3.43
536.291	3.43
536.491	3.49
536.69	3.55
536.889	3.53
537.088	3.52
537.288	3.48
537.487	3.44
537.686	3.41
537.886	3.48
538.085	3.55
538.284	3.61
538.483	3.62
538.682	3.72
538.882	3.73
539.081	3.77
539.28	3.84
539.479	3.84
539.678	3.85
539.877	3.82
540.076	3.78
540.275	3.74
540.474	3.75
540.673	3.72
540.872	3.76
541.071	3.8
541.27	3.88
541.469	3.86
541.668	3.92
541.867	3.98
542.066	4.01
542.265	4.07
542.464	4.15
542.663	4.14
542.862	4.16
543.06	4.17
543.259	4.14
543.458	4.17
543.657	4.25
543.856	4.3
544.054	4.35
544.253	4.39
544.452	4.38
544.651	4.36
544.849	4.3
545.048	4.29
545.247	4.27
545.445	4.29
545.644	4.27
545.843	4.31
546.041	4.37
546.24	4.45
546.438	4.52
546.637	4.59
546.836	4.69
547.034	4.77
547.233	4.83
547.431	4.85
547.63	4.9
547.828	4.94
548.027	4.93
548.225	4.87
548.423	4.91
548.622	4.94
548.82	4.91
549.019	4.93
549.217	4.94
549.415	4.95
549.614	5.04
549.812	5.06
550.01	5.08
550.209	5.18
550.407	5.27
550.605	5.2
550.803	5.28
551.002	5.41
551.2	5.45
551.398	5.51
551.596	5.59
551.794	5.73
551.993	5.71
552.191	5.74
552.389	5.7
552.587	5.74
552.785	5.66
552.983	5.83
553.181	5.93
553.379	6.07
553.577	6.16
553.775	6.22
553.973	6.14
554.171	6.24
554.369	6.21
554.567	6.29
554.765	6.4
554.963	6.46
555.161	6.41
555.359	6.48
555.557	6.48
555.755	6.48
555.952	6.58
556.15	6.67
556.348	6.73
556.546	6.81
556.744	6.88
556.941	6.91
557.139	6.96
557.337	7.03
557.535	7.04
557.732	7.08
557.93	7.17
558.128	7.23
558.325	7.24
558.523	7.33
558.721	7.34
558.918	7.33
559.116	7.33
559.313	7.42
559.511	7.55
559.708	7.67
559.906	7.81
560.104	7.9
560.301	7.99
560.498	8.04
560.696	8.04
560.893	8.03
561.091	8.09
561.288	8.11
561.486	8.13
561.683	8.22
561.88	8.22
562.078	8.28
562.275	8.31
562.473	8.36
562.67	8.44
562.867	8.52
563.064	8.53
563.262	8.54
563.459	8.62
563.656	8.6
563.853	8.64
564.051	8.75
564.248	8.87
564.445	8.88
564.642	8.9
564.839	9.02
565.036	9.06
565.234	9.09
565.431	9.12
565.628	9.2
565.825	9.18
566.022	9.28
566.219	9.34
566.416	9.32
566.613	9.39
566.81	9.51
567.007	9.43
567.204	9.43
567.401	9.49
567.598	9.57
567.795	9.57
567.991	9.58
568.188	9.64
568.385	9.6
568.582	9.57
568.779	9.49
568.976	9.66
569.172	9.7
569.369	9.81
569.566	9.88
569.763	9.9
569.96	9.9
570.156	9.87
570.353	9.92
570.55	9.88
570.746	9.88
570.943	9.79
571.14	9.84
571.336	9.78
571.533	9.77
571.729	9.85
571.926	9.91
572.123	9.89
572.319	9.95
572.516	9.98
572.712	9.96
572.909	9.96
573.105	10.01
573.302	10
573.498	9.98
573.695	9.93
573.891	9.96
574.087	9.91
574.284	9.95
574.48	9.98
574.677	10.13
574.873	10.09
575.069	10.14
575.266	10.09
575.462	10.06
575.658	10.07
575.854	10.14
576.051	10.07
576.247	10.08
576.443	10.13
576.639	10.08
576.835	9.96
577.032	9.95
577.228	9.94
577.424	9.96
577.62	9.87
577.816	9.87
578.012	9.86
578.208	9.87
578.404	9.8
578.6	9.87
578.796	9.88
578.993	9.91
579.189	9.88
579.384	9.85
579.58	9.8
579.776	9.78
579.972	9.74
580.168	9.64
580.364	9.64
580.56	9.58
580.756	9.48
580.952	9.46
581.148	9.49
581.343	9.49
581.539	9.53
581.735	9.54
581.931	9.5
582.127	9.5
582.322	9.45
582.518	9.44
582.714	9.51
582.909	9.49
583.105	9.45
583.301	9.44
583.496	9.37
583.692	9.22
583.888	9.21
584.083	9.16
584.279	9.2
584.474	9.17
584.67	9.23
584.866	9.21
585.061	9.21
585.257	9.1
585.452	9.08
585.648	9.06
585.843	9.07
586.039	9.15
586.234	9.17
586.429	9.16
586.625	9.21
586.82	9.15
587.015	9.04
587.211	8.92
587.406	8.9
587.601	8.84
587.797	8.88
587.992	8.81
588.187	8.91
588.383	8.95
588.578	9
588.773	8.96
588.968	9.06
589.163	9.05
589.359	8.98
589.554	8.89
589.749	8.93
589.944	8.9
590.139	8.89
590.334	8.92
590.529	8.95
590.724	8.97
590.919	9
591.114	9.17
591.309	9.18
591.504	9.21
591.699	9.14
591.894	9.09
592.089	8.96
592.284	8.98
592.479	9.01
592.674	9.01
592.869	9.01
593.064	9.12
593.259	9.17
593.454	9.1
593.648	9.22
593.843	9.22
594.038	9.14
594.233	9.13
594.428	9.19
594.622	9.15
594.817	9.26
595.012	9.24
595.206	9.31
595.401	9.41
595.596	9.35
595.79	9.33
595.985	9.42
596.18	9.48
596.374	9.47
596.569	9.61
596.763	9.78
596.958	9.93
597.153	9.83
597.347	9.87
597.542	9.96
597.736	9.99
597.931	9.9
598.125	10.03
598.319	10.15
598.514	10.05
598.708	9.96
598.903	9.98
599.097	10.01
599.291	9.96
599.486	10.01
599.68	10.02
599.874	10.09
600.069	10.11
600.263	10.15
600.457	10.2
600.651	10.22
600.846	10.2
601.04	10.12
601.234	10.09
601.428	10.12
601.622	10.21
601.817	10.21
602.011	10.29
602.205	10.32
602.399	10.31
602.593	10.29
602.787	10.24
602.981	10.28
603.175	10.29
603.369	10.18
603.563	10.15
603.757	10.24
603.951	10.09
604.145	10.04
604.339	10.12
604.533	10.04
604.727	10.07
604.921	10.18
605.115	10.18
605.309	10.16
605.502	10.22
605.696	10.09
605.89	10
606.084	9.96
606.278	9.89
606.471	9.81
606.665	9.83
606.859	9.73
607.053	9.68
607.246	9.69
607.44	9.69
607.634	9.65
607.827	9.73
608.021	9.66
608.214	9.6
608.408	9.66
608.602	9.66
608.795	9.55
608.989	9.59
609.182	9.58
609.376	9.51
609.569	9.43
609.763	9.39
609.956	9.36
610.15	9.18
610.343	9.07
610.537	8.95
610.73	8.95
610.923	8.87
611.117	8.97
611.31	8.93
611.504	9.03
611.697	9
611.89	8.91
612.083	8.88
612.277	8.73
612.47	8.67
612.663	8.56
612.856	8.56
613.05	8.53
613.243	8.56
613.436	8.49
613.629	8.49
613.822	8.52
614.015	8.47
614.209	8.39
614.402	8.4
614.595	8.37
614.788	8.26
614.981	8.18
615.174	8.14
615.367	8.01
615.56	7.89
615.753	7.87
615.946	7.84
616.139	7.91
616.332	7.88
616.525	7.88
616.718	7.82
616.911	7.79
617.103	7.7
617.296	7.63
617.489	7.69
617.682	7.74
617.875	7.69
618.067	7.63
618.26	7.61
618.453	7.45
618.646	7.35
618.838	7.31
619.031	7.26
619.224	7.27
619.417	7.33
619.609	7.36
619.802	7.38
619.994	7.43
620.187	7.45
620.38	7.4
620.572	7.3
620.765	7.36
620.957	7.29
621.15	7.25
621.342	7.26
621.535	7.33
621.727	7.2
621.92	7.23
622.112	7.11
622.305	7.09
622.497	6.99
622.69	6.93
622.882	6.92
623.074	7.03
623.267	6.94
623.459	6.87
623.651	6.91
623.844	6.89
624.036	6.88
624.228	6.92
624.42	7.02
624.613	6.96
624.805	6.93
624.997	6.96
625.189	6.93
625.381	6.94
625.574	6.96
625.766	6.94
625.958	6.8
626.15	6.8
626.342	6.71
626.534	6.77
626.726	6.75
626.918	6.76
627.11	6.67
627.302	6.62
627.494	6.49
627.686	6.46
627.878	6.41
628.07	6.48
628.262	6.48
628.454	6.48
628.646	6.47
628.838	6.5
629.029	6.37
629.221	6.42
629.413	6.4
629.605	6.31
629.797	6.28
629.989	6.38
630.18	6.35
630.372	6.28
630.564	6.38
630.755	6.35
630.947	6.36
631.139	6.24
631.33	6.29
631.522	6.3
631.714	6.31
631.905	6.19
632.097	6.22
632.289	6.24
632.48	6.16
632.672	6.09
632.863	6.08
633.055	6.08
633.246	6.01
633.438	6
633.629	6.01
633.821	5.98
634.012	5.94
634.203	5.94
634.395	5.95
634.586	6.05
634.777	6.09
634.969	6.1
635.16	6.15
635.351	6.12
635.543	6.03
635.734	5.96
635.925	6.01
636.117	5.98
636.308	5.99
636.499	5.89
636.69	5.87
636.881	5.82
637.073	5.8
637.264	5.83
637.455	5.83
637.646	5.83
637.837	5.76
638.028	5.72
638.219	5.68
638.41	5.73
638.601	5.74
638.792	5.79
638.983	5.74
639.174	5.67
639.365	5.65
639.556	5.64
639.747	5.62
639.938	5.71
640.129	5.75
640.32	5.72
640.511	5.79
640.701	5.81
640.892	5.78
641.083	5.75
641.274	5.78
641.465	5.69
641.655	5.62
641.846	5.6
642.037	5.58
642.228	5.47
642.418	5.45
642.609	5.4
642.8	5.36
642.99	5.36
643.181	5.42
643.372	5.4
643.562	5.4
643.753	5.44
643.943	5.4
644.134	5.36
644.324	5.47
644.515	5.54
644.705	5.38
644.896	5.44
645.086	5.41
645.277	5.36
645.467	5.36
645.658	5.45
645.848	5.25
646.038	5.28
646.229	5.27
646.419	5.25
646.61	5.34
646.8	5.51
646.99	5.52
647.18	5.42
647.371	5.31
647.561	5.23
647.751	5.18
647.941	5.13
648.132	5.14
648.322	5.29
648.512	5.35
648.702	5.41
648.892	5.38
649.082	5.43
649.272	5.31
649.462	5.15
649.653	5.12
649.843	5.14
650.033	5.12
650.223	5.05
650.413	5.18
650.603	5.23
650.793	5.27
650.983	5.23
651.172	5.22
651.362	5.08
651.552	4.95
651.742	4.77
651.932	4.82
652.122	4.84
652.312	4.87
652.502	4.93
652.691	5.05
652.881	5.1
653.071	5.14
653.261	5.05
653.45	4.96
653.64	4.96
653.83	4.88
654.019	4.82
654.209	4.9
654.399	4.81
654.588	4.65
654.778	4.53
654.968	4.5
655.157	4.46
655.347	4.41
655.536	4.42
655.726	4.36
655.915	4.29
656.105	4.19
656.294	4.18
656.484	4.1
656.673	4.11
656.863	4.14
657.052	4.15
657.241	4.09
657.431	4.11
657.62	4.02
657.809	3.9
657.999	3.94
658.188	3.89
658.377	3.87
658.567	3.82
658.756	3.74
658.945	3.6
659.134	3.55
659.324	3.41
659.513	3.36
659.702	3.3
659.891	3.24
660.08	3.16
660.269	3.13
660.458	3.08
660.648	3.13
660.837	3.01
661.026	2.92
661.215	2.86
661.404	2.84
661.593	2.76
661.782	2.7
661.971	2.8
662.16	2.77
662.349	2.65
662.538	2.63
662.726	2.66
662.915	2.62
663.104	2.62
663.293	2.64
663.482	2.66
663.671	2.73
663.86	2.68
664.048	2.78
664.237	2.91
664.426	2.77
664.615	2.71
664.803	2.7
664.992	2.57
665.181	2.47
665.369	2.56
665.558	2.51
665.747	2.6
665.935	2.75
666.124	2.73
666.312	2.65
666.501	2.77
666.69	2.79
666.878	2.7
667.067	2.75
667.255	2.94
667.444	3.03
667.632	3.11
667.82	3.19
668.009	3.2
668.197	3.15
668.386	2.99
668.574	2.93
668.762	2.98
668.951	3.12
669.139	3.08
669.327	3.23
669.516	3.2
669.704	3.16
669.892	3.05
670.08	3.1
670.269	2.98
670.457	3.07
670.645	3
670.833	3.05
671.021	3.09
671.21	3.22
671.398	3.26
671.586	3.38
671.774	3.4
671.962	3.56
672.15	3.58
672.338	3.63
672.526	3.71
672.714	3.89
672.902	3.73
673.09	3.66
673.278	3.66
673.466	3.8
673.654	3.95
673.842	4.18
674.03	4.49
674.218	4.52
674.405	4.52
674.593	4.48
674.781	4.56
674.969	4.47
675.157	4.55
675.344	4.5
675.532	4.54
675.72	4.52
675.908	4.52
676.095	4.59
676.283	4.68
676.471	4.66
676.658	4.54
676.846	4.56
677.033	4.68
677.221	4.67
677.409	4.68
677.596	4.86
677.784	4.98
677.971	4.87
678.159	5.1
678.346	5.16
678.534	5.14
678.721	5.2
678.909	5.3
679.096	5.24
679.283	5.23
679.471	5.41
679.658	5.37
679.846	5.41
680.033	5.59
680.22	5.79
680.408	5.72
680.595	5.79
680.782	5.65
680.969	5.55
681.157	5.34
681.344	5.48
681.531	5.53
681.718	5.69
681.905	5.73
682.093	5.94
682.28	5.98
682.467	6.2
682.654	6.24
682.841	6.1
683.028	6.09
683.215	6.12
683.402	6.02
683.589	6.1
683.776	6.34
683.963	6.41
684.15	6.53
684.337	6.48
684.524	6.68
684.711	6.79
684.898	6.84
685.085	6.77
685.271	6.96
685.458	6.97
685.645	6.87
685.832	6.8
686.019	6.81
686.205	6.76
686.392	6.72
686.579	6.96
686.766	7.23
686.952	7.29
687.139	7.46
687.326	7.43
687.512	7.39
687.699	7.45
687.886	7.51
688.072	7.53
688.259	7.82
688.445	8.02
688.632	8.08
688.818	8.44
689.005	8.51
689.191	8.65
689.378	8.93
689.564	9.35
689.751	9.32
689.937	9.63
690.124	9.74
690.31	9.8
690.496	10.02
690.683	10.44
690.869	10.67
691.055	10.98
691.242	11.27
691.428	11.2
691.614	11.49
691.8	11.86
691.987	12.25
692.173	12.6
692.359	13.27
692.545	13.62
692.731	13.77
692.918	13.99
693.104	14.29
693.29	14.28
693.476	14.54
693.662	15.03
693.848	15.52
694.034	15.83
694.22	16.63
694.406	17.08
694.592	17.23
694.778	17.48
694.964	18
695.15	18.12
695.336	18.39
695.522	18.99
695.708	19.67
695.894	20.15
696.08	20.79
696.265	21.55
696.451	22.16
696.637	22.64
696.823	23.02
697.009	23.52
697.194	23.78
697.38	24.24
697.566	24.68
697.751	25.19
697.937	25.51
698.123	26.34
698.308	26.79
698.494	27.23
698.68	27.88
698.865	28.27
699.051	28.45
699.236	29.09
699.422	29.55
699.607	29.97
699.793	30.71
699.978	31.18
700.164	31.56
700.349	32.25
700.535	32.51
700.72	32.88
700.906	33.59
701.091	34.18
701.276	34.41
701.462	34.88
701.647	35.65
701.832	35.96
702.018	36.32
702.203	37.26
702.388	37.87
702.573	38.13
702.759	38.79
702.944	39.29
703.129	39.39
703.314	39.79
703.499	40.16
703.684	40.41
703.87	40.72
704.055	41.23
704.24	41.85
704.425	42.45
704.61	43.07
704.795	43.49
704.98	43.86
705.165	44.14
705.35	44.32
705.535	44.67
705.72	45.37
705.905	45.49
706.09	45.93
706.275	46.19
706.459	46.06
706.644	46.01
706.829	46.54
707.014	46.89
707.199	47.81
707.384	48.09
707.568	48.51
707.753	48.79
707.938	48.95
708.123	48.96
708.307	49.38
708.492	50.02
708.677	50.06
708.861	50.5
709.046	50.28
709.231	50.62
709.415	50.59
709.6	50.87
709.784	51.02
709.969	51.8
710.153	52.33
710.338	52.77
710.522	53.33
710.707	53.52
710.891	53.57
711.076	53.77
711.26	53.7
711.445	54.25
711.629	54.72
711.813	54.93
711.998	55.02
712.182	55.3
712.366	54.94
712.551	54.6
712.735	54.95
712.919	54.9
713.103	55.12
713.288	55.11
713.472	55.56
713.656	55.29
713.84	55.61
714.024	56.13
714.208	56.42
714.393	56.57
714.577	56.96
714.761	57.28
714.945	57.53
715.129	58.21
715.313	58.61
715.497	58.6
715.681	58.48
715.865	58.32
716.049	58.5
716.233	58.29
716.417	58.96
716.601	59.09
716.785	59.18
716.968	58.93
717.152	59.23
717.336	59.59
717.52	60.05
717.704	59.8
717.888	60.22
718.071	60.66
718.255	60.35
718.439	60.5
718.622	60.86
718.806	60.52
718.99	59.96
719.174	59.76
719.357	60.18
719.541	60.5
719.724	60.64
719.908	61.13
720.092	61.62
720.275	61.08
720.459	61.35
720.642	61.7
720.826	61.78
721.009	61.91
721.193	62.11
721.376	62.02
721.559	62.62
721.743	63.42
721.926	63.82
722.11	64.46
722.293	64.82
722.476	64.51
722.66	64.67
722.843	64.41
723.026	64.52
723.21	64.51
723.393	64.74
723.576	64.41
723.759	64.43
723.942	64.26
724.126	64.93
724.309	64.81
724.492	65.62
724.675	65.78
724.858	66.44
725.041	66.28
725.224	66.44
725.407	65.91
725.59	66.57
725.774	66.22
725.957	66.53
726.14	66.81
726.322	66.76
726.505	66.69
726.688	67.2
726.871	67.25
727.054	67.37
727.237	67.38
727.42	67.69
727.603	67.78
727.786	67.72
727.968	67.95
728.151	68.13
728.334	67.85
728.517	67.92
728.699	68.42
728.882	68.78
729.065	69.24
729.248	69.39
729.43	69.24
729.613	69.44
729.796	69.71
729.978	70.37
730.161	70.91
730.343	71.7
730.526	71.69
730.708	71.67
730.891	70.99
731.073	70.92
731.256	71.05
731.438	70.98
731.621	70.87
731.803	71.5
731.986	72.69
732.168	73.14
732.35	73.25
732.533	74.64
732.715	75.03
732.898	74.19
733.08	74.8
733.262	75.19
733.444	73.97
733.627	73.82
733.809	73.52
733.991	73.39
734.173	73.84
734.355	74.98
734.538	75.29
734.72	76.61
734.902	76.52
735.084	76.99
735.266	77.1
735.448	78.15
735.63	78.43
735.812	78.32
735.994	77.76
736.176	77.94
736.358	78.17
736.54	78.71
736.722	78.94
736.904	79.74
737.086	79.79
737.268	79.47
737.45	79.31
737.632	79.37
737.814	79.08
737.995	80.08
738.177	80.36
738.359	79.96
738.541	79.88
738.723	80.38
738.904	79.84
739.086	80.03
739.268	80.8
739.449	82.45
739.631	82.79
739.813	83.39
739.994	83.57
740.176	83.33
740.358	82.61
740.539	83.3
740.721	82.78
740.902	83.1
741.084	83.15
741.265	82.94
741.447	82.07
741.628	81.9
741.81	81.33
741.991	81.91
742.172	82.43
742.354	82.22
742.535	82.21
742.717	83.03
742.898	82.78
743.079	83.53
743.261	84.72
743.442	85.94
743.623	86.24
743.804	86.47
743.986	85.28
744.167	83.91
744.348	83.57
744.529	82.95
744.71	83.3
744.891	84.49
745.073	85.35
745.254	86.52
745.435	87.46
745.616	87.13
745.797	85.86
745.978	86.33
746.159	85.43
746.34	84.41
746.521	84.51
746.702	86.37
746.883	85.52
747.064	84.65
747.245	84.99
747.426	85.59
747.606	85.38
747.787	86.33
747.968	87.34
748.149	86.48
748.33	86.03
748.51	85.3
748.691	84.22
748.872	84.55
749.053	85.39
749.233	85.17
749.414	85.05
749.595	86.5
749.775	86.16
749.956	86.57
750.137	85.75
750.317	85.47
750.498	84.55
750.678	84.68
750.859	85.84
751.04	86.8
751.22	86.92
751.4	87.09
751.581	87.01
751.761	85.56
751.942	85.34
752.122	86.05
752.303	86.03
752.483	85.94
752.663	87.11
752.844	87.7
753.024	87
753.204	88.75
753.385	88.96
753.565	87.92
753.745	87.79
753.925	89.81
754.106	88.96
754.286	88.64
754.466	88.44
754.646	89.08
754.826	87.2
755.006	87.36
755.187	87.85
755.367	88.61
755.547	87.15
755.727	87.35
755.907	86.55
756.087	86.56
756.267	85.94
756.447	88.23
756.627	87.23
756.807	88.38
756.987	88.7
757.167	89.42
757.346	88.29
757.526	89.51
757.706	88.66
757.886	87.87
758.066	88
758.246	88.59
758.425	88.61
758.605	88.77
758.785	90.27
758.965	90.62
759.144	89.83
759.324	90.92
759.504	91.18
759.683	90.37
759.863	88.06
760.043	88.99
760.222	88.64
760.402	88.18
760.581	87.64
760.761	89.63
760.94	88.08
761.12	87.49
761.299	87.52
761.479	87.36
761.658	87.09
761.838	86.54
762.017	85.62
762.197	85.75
762.376	87.15
762.555	85.74
762.735	87.99
762.914	86.57
763.093	86.31
763.273	85.08
763.452	85.99
763.631	84.98
763.81	86.42
763.99	86.13
764.169	86.69
764.348	84.55
764.527	84.92
764.706	85.84
764.885	86.07
765.064	86
765.243	87.66
765.423	87.26
765.602	86.39
765.781	85.74
765.96	83.62
766.139	84.73
766.318	82.89
766.497	82.32
766.676	82.45
766.854	84.2
767.033	83.27
767.212	85.6
767.391	87.04
767.57	87.08
767.749	87.3
767.928	88.23
768.106	86.01
768.285	83.47
768.464	83.87
768.643	84.28
768.821	82.27
769	82.26
769.179	82.75
769.357	82.54
769.536	81.9
769.715	82.83
769.893	82.63
770.072	84.42
770.25	84.38
770.429	83.52
770.607	81.84
770.786	82.94
770.964	81.44
771.143	81.14
771.321	80.47
771.5	85.23
771.678	83.06
771.857	85.37
772.035	85.8
772.213	87.01
772.392	82.87
772.57	85.42
772.748	82.65
772.927	83.62
773.105	83.11
773.283	84.83
773.461	84.78
773.64	86.95
773.818	84.56
773.996	84.52
774.174	82.57
774.352	81.47
774.531	79.94
774.709	80.52
774.887	80.78
775.065	81.06
775.243	82.3
775.421	82.51
775.599	82.46
775.777	81.2
775.955	80.92
776.133	81.85
776.311	84.35
776.489	85.48
776.667	83.73
776.844	85.39
777.022	82.85
777.2	82.48
777.378	82.4
777.556	84.88
777.734	83.14
777.911	86
778.089	85.17
778.267	83.88
778.445	84.82
778.622	84.45
778.8	81.3
778.978	80.64
779.155	79.87
779.333	76.79
779.511	72.67
779.688	74.75
779.866	71.68
780.043	73.15
780.221	75.51
780.398	80.98
780.576	77.64
780.753	81.61
780.931	81.13
781.108	80.28
781.286	79.02
781.463	78.26
781.64	77.14
781.818	75.59
781.995	73.28
782.172	74.84
782.35	77.81
782.527	74.24
782.704	77.57
782.882	82.7
783.059	81.52
783.236	80.18
783.413	84.37
783.59	82.7
783.768	79.23
783.945	81.55
784.122	85.04
784.299	84.77
784.476	84.34
784.653	86.2
784.83	85.41
785.007	81.22
785.184	80.27
785.361	84.68
785.538	86.3
785.715	83.64
785.892	86.29
786.069	88.05
786.246	84.99
786.423	84.79
786.6	88.07
786.776	85.83
786.953	84.82
787.13	83.84
787.307	82.29
787.484	81.53
787.66	81.31
787.837	80.61
788.014	79.31
788.191	81.03
788.367	80.44
788.544	83.73
788.721	84.3
788.897	84.83
789.074	82.31
789.25	78.05
789.427	75.96
789.603	78.29
789.78	80.74
789.956	79.96
790.133	82.75
790.309	85.24
790.486	82.4
790.662	81.19
790.839	81.77
791.015	83.88
791.192	81.69
791.368	83.13
791.544	82.41
791.721	83.21
791.897	86.87
792.073	91.05
792.249	89.56
792.426	92.54
792.602	89
792.778	84.16
792.954	81.23
793.13	79.71
793.307	80.31
793.483	81.98
793.659	81.65
793.835	85.89
794.011	88.97
794.187	77.47
794.363	81.44
794.539	83.14
794.715	72.84
794.891	70.59
795.067	73.31
795.243	70.22
795.419	65.69
795.595	69.54
795.771	65.16
795.947	70.37
796.122	67.29
796.298	76.01
796.474	75.33
796.65	84
796.826	75.45
797.001	82.85
797.177	77.98
797.353	80.78
797.529	77.51
797.704	86.77
797.88	86.9
798.056	84.02
798.231	79.69
798.407	76.65
798.582	76.43
798.758	79.32
798.934	82.85
799.109	86.82
799.285	92.75
799.46	93.94
799.636	84.26
799.811	85.32
799.986	87.51
800.162	89.53
800.337	89.85
800.513	90.7
800.688	94.13
800.863	90.14
801.039	87.04
801.214	77.18
801.389	77.08
801.565	76.98
801.74	75.27
801.915	73.33
802.09	82.28
802.265	80.53
802.441	80.13
802.616	79.58
802.791	81.52
802.966	79.27
803.141	86.5
803.316	76.22
803.491	69.33
803.666	67.79
803.841	67.72
804.016	68.62
804.191	81.66
804.366	94.36
804.541	93.84
804.716	93.48
804.891	84.34
805.066	67.76
805.241	67.54
805.416	64.8
805.591	63.25
805.765	71.82
805.94	77.74
806.115	74.43
806.29	82.44
806.464	88.55
806.639	83.57
806.814	81.95
806.989	77.79
807.163	76.65
807.338	72.21
807.512	71.75
807.687	64.9
807.862	62.4
808.036	57.13
808.211	55.29
808.385	57.55
808.56	66.13
808.734	75.73
808.909	74.98
809.083	72.92
809.258	75.98
809.432	77.33
809.606	72.74
809.781	74.99
809.955	78.6
810.13	74.14
810.304	74.3
810.478	70.88
810.652	72.8
810.827	66.98
811.001	69.04
811.175	67.8
811.349	74.21
811.524	80.13
811.698	95.58
811.872	85.86
812.046	93.61
812.22	84.9
812.394	70.2
812.568	68.91
812.742	85.35
812.916	76.55
813.09	91.58
813.264	103.39
813.438	97.58
813.612	90.32
813.786	81.84
813.96	72.59
814.134	71.83
814.308	72.93
814.482	80.7
814.656	102.04
814.83	102.63
815.003	110.33
815.177	114.13
815.351	104
815.525	88.14
815.698	81.41
815.872	70.18
816.046	68.12
816.219	69.47
816.393	85.42
816.567	101.63
816.74	101.93
816.914	117.22
817.088	127.39
817.261	118.84
817.435	105.85
817.608	119.73
817.782	77.64
817.955	91.43
818.129	94.04
818.302	84.2
818.475	94.25
818.649	112.84
818.822	100.8
818.996	94.51
819.169	94.69
819.342	94.76
819.516	84.49
819.689	90.26
819.862	85.39
820.035	91.15
820.209	72.35
820.382	82.18
820.555	80.17
820.728	87.65
820.901	79.57
821.075	110.41
821.248	110.56
821.421	98.88
821.594	89.32
821.767	98.81
821.94	89.64
822.113	71.08
822.286	68.99
822.459	69.13
822.632	70.17
822.805	74.72
822.978	93.79
823.151	100.58
823.324	114.87
823.496	82.48
823.669	67.56
823.842	72.09
824.015	57.07
824.188	39.88
824.361	61.03
824.533	67.03
824.706	47.93
824.879	68.75
825.051	80.4
825.224	91.48
825.397	87.92
825.569	88
825.742	87.11
825.915	69.88
826.087	62.72
826.26	57.64
826.432	66.82
826.605	49.8
826.777	50.09
826.95	54.04
827.122	49.37
827.295	35.2
827.467	47.64
827.64	28.89
827.812	16.11
827.984	29.15
828.157	45.85
828.329	60.19
828.501	97.67
828.674	114.91
828.846	112.16
829.018	104.09
829.19	107.12
829.363	77.21
829.535	63.91
829.707	57.12
829.879	64.19
830.051	49.04
830.223	87.62
830.395	93.25
830.568	70.68
830.74	77.9
830.912	81.55
831.084	56.77
831.256	46.73
831.428	53.99
831.6	43.42
831.772	56.45
831.943	30.16
832.115	50.57
832.287	68.73
832.459	77.79
832.631	69.33
832.803	94.11
832.975	71.49
833.146	59.63
833.318	43.13
833.49	62
833.662	62.46
833.833	72.77
834.005	70.21
834.177	89.43
834.348	90.67
834.52	96.31
834.692	109.69
834.863	121.84
835.035	102.1
835.206	82.41
835.378	66.39
835.549	65.78
835.721	79.06
835.892	90.18
836.064	111.23
836.235	130.21
836.407	155.33
836.578	126.63
836.749	120.48
836.921	105.89
837.092	94.86
837.264	54.48
837.435	48.38
837.606	42.96
837.777	35.74
837.949	52.31
838.12	4.78
838.291	53.53
838.462	67.46
838.633	60.73
838.805	50.6
838.976	135.19
839.147	122.39
839.318	177.74
839.489	131.66
839.66	153.82
839.831	121.15
840.002	114.01
840.173	84.41
840.344	92.54
840.515	56.77
840.686	20.16
840.857	31.93
841.028	40.1
841.199	56.29
841.369	67.51
841.54	65.82
841.711	88.84
841.882	69.88
842.053	55.88
842.223	60.4
842.394	69.93
842.565	71.04
842.736	67.69
842.906	48.47
843.077	72.98
843.248	72.88
843.418	61.2
843.589	88.28
843.759	151.11
843.93	4.22
844.101	335.83
844.271	166.81
844.442	153.05
844.612	116.53
844.783	140.79
844.953	70.54
845.123	51.29
845.294	42.66
845.464	55.91
845.635	66.61
845.805	115.22
845.975	119.88
846.146	135.65
846.316	61.41
846.486	90.89
846.656	123.18
846.827	144.21
846.997	94
847.167	129.79
847.337	78.54
847.507	88.17
847.677	66.88
847.848	101.77
848.018	90.29
848.188	123.86
848.358	52.02
848.528	88.99
848.698	75.52
848.868	51.41
849.038	42.28
849.208	92.94
849.378	67.23
849.548	13.98
849.718	30.08
849.887	49.52
850.057	-2535.48
850.227	327.04
850.397	92.62
850.567	54.21
850.737	61.38
850.906	79.8
851.076	71.86
851.246	88.41
851.415	111.51
851.585	101.51
851.755	90.98
851.924	95.3
852.094	104.52
852.264	69.62
852.433	32.82
852.603	36.32
852.772	22.11
852.942	10.2
853.111	-3.68
853.281	33.23
853.45	19.86
853.62	18.33
853.789	-14.45
853.959	-181.96
854.128	109.16
854.297	228.19
854.467	516.69
854.636	-289.33
854.805	43.03
854.975	24.88
855.144	40.31
855.313	73.15
855.482	113.77
855.652	77.96
855.821	83.58
855.99	112.77
856.159	202.4
856.328	66.72
856.497	16.72
856.667	77.25
856.836	75.74
857.005	82.06
857.174	70.83
857.343	101.02
857.512	75.12
857.681	35.25
857.85	-32.54
858.019	-18.48
858.188	0.5
858.356	-74.46
858.525	-46.21
858.694	10.19
858.863	11.82
859.032	-42.49
859.201	30.34
859.369	55.36
859.538	30.93
859.707	-8.83
859.876	-5.84
860.044	12.17
860.213	18
860.382	45.88
860.55	70.62
860.719	110.1
860.888	93.85
861.056	111.59
861.225	120
861.393	188.91
861.562	202.32
861.73	175.72
861.899	138.37
862.067	153.53
862.236	55.42
862.404	-33.32
862.572	-53.06
862.741	-316.29
862.909	-21.17
863.078	21.9
863.246	60.2
863.414	108.87
863.582	76.28
863.751	121.33
863.919	105.26
864.087	118.81
864.255	89.42
864.424	108.11
864.592	25.05
864.76	100.34
864.928	99.57
865.096	122.15
865.264	134.56
865.432	135.03
865.6	187.28
865.768	65.49
865.936	-68.92
866.104	-214.53
866.272	59.31
866.44	-70.16
866.608	-46
866.776	29.82
866.944	14.19
867.112	-13.04
867.28	-40.79
867.448	-14.58
867.615	-37.97
867.783	17.95
867.951	-10.13
868.119	42.84
868.286	69.7
868.454	28.8
868.622	-118.09
868.789	95.71
868.957	323.08
869.125	518.86
869.292	-605.69
869.46	155.45
869.627	-1045.71
869.795	-99.92
869.963	11.3
870.13	58.04
870.298	81.77
870.465	63.85
870.632	49.62
870.8	37.33
870.967	32.29
871.135	-114.09
871.302	308.52
871.469	71.16
871.637	36.83
871.804	-7.66
871.971	-36.1
872.139	-24.56
872.306	-57.04
872.473	-792.96
872.64	-200.39
872.807	-1.75
872.975	-40.03
873.142	-34.42
873.309	4.96
873.476	38.25
873.643	33.19
873.81	53.97
873.977	59.51
874.144	43.63
874.311	26.92
874.478	-80.52
874.645	-232.1
874.812	-1606.64
874.979	-213.97
875.146	-163.47
875.313	-794.53
875.48	521.51
875.647	-342.6
875.813	-2650.63
875.98	718.45
876.147	-33.31
876.314	-0.61
876.481	-29.71
876.647	15.65
876.814	49.31
876.981	139.71
877.147	36.38
877.314	34.7
877.481	28.87
877.647	-41.56
877.814	-137.42
877.98	-48.45
878.147	136.59
878.314	89.63
878.48	-196.76
878.647	-151.54
878.813	-306.47
878.979	19.72
879.146	-53.94
879.312	-37.36
879.479	13.31
879.645	22.72
879.811	-25.85
879.978	-11.16
880.144	-44.82
880.31	-262.42
880.477	1856.38
880.643	1034.59
880.809	1009.76
880.975	-69.35
881.142	-182.55
881.308	-241.68
881.474	137.57
881.64	110.83
881.806	73
881.972	110.82
882.138	120.73
882.304	91.7
882.47	48.28
882.636	53.29
882.802	29.69
882.968	28.67
883.134	5.85
883.3	16.77
883.466	39.79
883.632	53.83
883.798	59.42
883.964	26.02
884.129	25.88
884.295	36.39
884.461	-421.57
884.627	881.04
884.793	134.81
884.958	122.56
885.124	1574.26
885.29	-137.25
885.455	-95.34
885.621	8.41
885.787	-10.11
885.952	-5.64
886.118	89.55
886.283	161.73
886.449	285.45
886.614	161.32
886.78	162.69
886.945	109.03
887.111	59.15
887.276	69.69
887.442	109.07
887.607	34.38
887.773	-62.67
887.938	-58.6
888.103	-120.25
888.269	-681.74
888.434	15352.94
888.599	-130.06
888.764	285.44
888.93	60.64
889.095	32.38
889.26	5.62
889.425	3.32
889.59	17.86
889.756	37.63
889.921	-9.36
890.086	15.75
890.251	-17.91
890.416	-55.41
890.581	-57.93
890.746	92.16
890.911	122.68
891.076	329.3
891.241	178.24
891.406	21342.86
891.571	247.52
891.736	33.76
891.901	233.15
892.065	37.56
892.23	51.74
892.395	25.96
892.56	1300.67
892.725	15.29
892.889	-326.65
893.054	-1784.11
893.219	-3138.13
893.384	-438.49
893.548	-638.03
893.713	-361.98
893.878	-549.74
