Data from Ofav_SP_Phys_4JQ12_Reflection_3.txt Node
Date: Thu Aug 05 17:52:36 EDT 2021
User: Adam
Spectrometer: FLMT01687
Trigger mode: 0
Integration Time (sec): 8.000000E-1
Scans to average: 2
Electric dark correction enabled: true
Nonlinearity correction enabled: false
Boxcar width: 2
XAxis mode: Wavelengths
Number of Pixels in Spectrum: 3648
>>>>>Begin Spectral Data<<<<<
179.494	664.89
179.716	756.67
179.937	631.13
180.158	759.87
180.38	1924.94
180.601	-951.08
180.823	-171.43
181.044	-61.68
181.265	-35.89
181.486	81.38
181.708	-974.5
181.929	-209.6
182.15	-602.45
182.372	-61.32
182.593	11.31
182.814	-103.65
183.035	50.32
183.257	768.68
183.478	-573.56
183.699	390.27
183.92	144.04
184.141	-161.43
184.363	-687.57
184.584	161.05
184.805	105.42
185.026	68.64
185.247	68.44
185.468	57.58
185.689	58.54
185.91	35.22
186.132	23.52
186.353	30.65
186.574	-4.49
186.795	-16.71
187.016	-12.76
187.237	-23.05
187.458	-232.26
187.679	-28.12
187.9	33.41
188.121	59.39
188.342	148.83
188.563	104.38
188.784	148.56
189.005	87.66
189.226	105.08
189.447	63.04
189.667	83.89
189.888	49.56
190.109	142.15
190.33	102.84
190.551	93.82
190.772	102.4
190.993	89.64
191.214	68.55
191.434	60.04
191.655	37.51
191.876	37.77
192.097	29.1
192.318	27.61
192.538	-51.37
192.759	46.77
192.98	42.02
193.201	171.92
193.421	82.83
193.642	81.67
193.863	23.36
194.083	28.21
194.304	4.22
194.525	23.04
194.745	16.73
194.966	23.55
195.187	34.62
195.407	62.2
195.628	28.92
195.848	65.86
196.069	53.08
196.29	28.69
196.51	40.95
196.731	33.23
196.951	33.23
197.172	45.44
197.392	60.33
197.613	49.18
197.833	81.59
198.054	77.38
198.274	25.7
198.495	49.65
198.715	63.67
198.936	41.62
199.156	65.61
199.377	88.33
199.597	81.63
199.817	64.73
200.038	45.89
200.258	47.79
200.479	45.49
200.699	20.39
200.919	8.84
201.14	-4.05
201.36	-66.28
201.58	-39.61
201.801	-106.1
202.021	-48.99
202.241	30.79
202.461	23.35
202.682	-6.76
202.902	0.8
203.122	-87.11
203.342	-91.24
203.563	22.95
203.783	62.06
204.003	67.4
204.223	48.37
204.443	26.53
204.663	22.95
204.884	16.64
205.104	20.36
205.324	27.28
205.544	41.48
205.764	35.11
205.984	0.31
206.204	-36.25
206.424	-30.27
206.644	-43.37
206.864	-29.72
207.084	-7.81
207.304	58.89
207.525	40.29
207.745	49.04
207.964	32.28
208.184	29.65
208.404	-54.71
208.624	-37.47
208.844	-81.07
209.064	-68.88
209.284	-36.03
209.504	-59.86
209.724	-46.79
209.944	-53.99
210.164	-70.94
210.384	-47.77
210.604	-22.42
210.823	10.44
211.043	27.09
211.263	43.08
211.483	48.31
211.703	74.71
211.922	109.09
212.142	131.06
212.362	104.9
212.582	112.61
212.801	130.69
213.021	87.66
213.241	36.64
213.461	19.51
213.68	12.35
213.9	-36.03
214.12	-26.66
214.339	-14.89
214.559	26.47
214.779	35.62
214.998	49.21
215.218	29.32
215.438	100.2
215.657	148.93
215.877	178.68
216.096	145.64
216.316	155.68
216.535	72.3
216.755	5.5
216.974	81.77
217.194	152.56
217.413	79.61
217.633	79.09
217.852	61.91
218.072	34.91
218.291	8.49
218.511	6.99
218.73	-53.4
218.95	-82.73
219.169	-58.4
219.389	14.3
219.608	-35.6
219.827	16.58
220.047	50.51
220.266	49.19
220.485	22.61
220.705	52.71
220.924	57.55
221.143	30.99
221.363	-1.28
221.582	-15.41
221.801	-64.49
222.021	10.01
222.24	30.16
222.459	50.42
222.678	84.93
222.897	92.98
223.117	14.56
223.336	16.57
223.555	36.25
223.774	-23.81
223.993	-18.42
224.213	51.44
224.432	54.66
224.651	48.1
224.87	72.61
225.089	87.05
225.308	55.65
225.527	34.91
225.746	19.48
225.965	-8.28
226.184	-42.82
226.404	-23.52
226.623	-68.7
226.842	-60.07
227.061	-9.41
227.28	8.21
227.499	4.5
227.718	28.47
227.936	56.42
228.155	56.85
228.374	52.53
228.593	63.95
228.812	72.81
229.031	66.29
229.25	64.04
229.469	54.74
229.688	31.21
229.907	20.96
230.125	23.2
230.344	30.74
230.563	9.9
230.782	45.19
231.001	52.42
231.22	42.56
231.438	19.83
231.657	21.41
231.876	-9.01
232.095	2.66
232.313	-26.21
232.532	-24.08
232.751	3.95
232.969	21.72
233.188	34.82
233.407	20.85
233.625	42.83
233.844	-11.49
234.063	-3.94
234.281	-3.1
234.5	36.38
234.719	52.34
234.937	54.77
235.156	17.32
235.374	62
235.593	47.86
235.811	29.08
236.03	60.3
236.249	90.46
236.467	64.73
236.686	85.64
236.904	84.39
237.123	62.54
237.341	68.45
237.559	51.51
237.778	41.08
237.996	35.69
238.215	23.54
238.433	18.18
238.652	12.08
238.87	-7.15
239.088	-18.21
239.307	5.97
239.525	-28.65
239.743	-26.39
239.962	0.77
240.18	-6.45
240.398	-41.31
240.617	-37.51
240.835	21.57
241.053	8.86
241.271	-11.25
241.49	14.67
241.708	-11.84
241.926	-23.47
242.144	-61.81
242.363	-39.02
242.581	-20.48
242.799	10.08
243.017	2.07
243.235	-8.17
243.453	-12.63
243.672	-2.26
243.89	4.67
244.108	27.33
244.326	44.8
244.544	59.33
244.762	23.2
244.98	74.51
245.198	50.21
245.416	73.12
245.634	57.75
245.852	49.9
246.07	16.51
246.288	2.92
246.506	-51.76
246.724	-10.34
246.942	-13.25
247.16	-22.58
247.378	-61.2
247.596	-42.33
247.814	-39.64
248.032	-44.1
248.25	-48.56
248.468	-26.92
248.685	-19.25
248.903	-27.76
249.121	-43.94
249.339	-30.15
249.557	-29.06
249.775	-20.51
249.992	-19.74
250.21	19.27
250.428	-1.17
250.646	-11.41
250.863	-3.86
251.081	15.07
251.299	-5.12
251.517	27.25
251.734	62.95
251.952	32.49
252.17	24.55
252.387	23.48
252.605	23.01
252.823	19.34
253.04	18.75
253.258	48.87
253.475	62.27
253.693	59.51
253.911	70.5
254.128	74.1
254.346	55.15
254.563	57.78
254.781	59.49
254.998	43.83
255.216	24.96
255.433	-3.7
255.651	-73.55
255.868	-117.06
256.086	-123.46
256.303	-89.66
256.521	-119.48
256.738	-134.29
256.956	-230.37
257.173	-21.28
257.39	68.78
257.608	58.51
257.825	49.21
258.043	45.27
258.26	16.51
258.477	-16.87
258.695	0.16
258.912	4.45
259.129	11.19
259.346	27.81
259.564	38.8
259.781	41.03
259.998	35.69
260.216	52.84
260.433	49.2
260.65	42.33
260.867	27.78
261.084	18.67
261.302	2.42
261.519	15.6
261.736	38.8
261.953	30.84
262.17	42.5
262.387	74.58
262.604	69.56
262.822	92.99
263.039	118.09
263.256	132.4
263.473	100.4
263.69	108.25
263.907	80.59
264.124	75.41
264.341	46.71
264.558	36
264.775	8.38
264.992	12.51
265.209	17.19
265.426	2.59
265.643	-3.18
265.86	0.97
266.077	-6.18
266.294	-10.16
266.51	1.24
266.727	26.4
266.944	53.02
267.161	54.04
267.378	57.13
267.595	47.14
267.812	20.45
268.028	9.43
268.245	17.1
268.462	13.75
268.679	19.18
268.896	36.25
269.112	17.15
269.329	40.31
269.546	40.47
269.763	42.77
269.979	51.05
270.196	81.49
270.413	63.95
270.629	73.34
270.846	74.14
271.063	81.26
271.279	61.26
271.496	44.08
271.712	-17.8
271.929	-15.08
272.146	14.88
272.362	41.2
272.579	9.12
272.795	17.68
273.012	30.9
273.228	30.59
273.445	24.97
273.661	61.63
273.878	92.19
274.094	83.7
274.311	57.07
274.527	37.48
274.744	49.9
274.96	22.01
275.177	21.13
275.393	5.89
275.609	-0.89
275.826	-18.94
276.042	-3.76
276.259	1.44
276.475	6.92
276.691	14.67
276.908	14.64
277.124	21.78
277.34	24.54
277.557	5.68
277.773	22.75
277.989	26.46
278.205	13.03
278.422	-9.41
278.638	32.16
278.854	54.47
279.07	56.27
279.286	33.49
279.503	47.62
279.719	37.96
279.935	42.44
280.151	50.06
280.367	94.66
280.583	78.31
280.799	81.42
281.016	82.39
281.232	89.84
281.448	54.09
281.664	37.92
281.88	70.89
282.096	65.47
282.312	57.32
282.528	42.24
282.744	39.06
282.96	30.59
283.176	5.57
283.392	24.31
283.608	38.57
283.824	38.69
284.04	44.36
284.256	48.06
284.471	33.15
284.687	48.05
284.903	56.29
285.119	61.27
285.335	53.53
285.551	39.65
285.767	26.87
285.982	20.3
286.198	-49.27
286.414	-40.76
286.63	-14.26
286.846	-13.44
287.061	-10.92
287.277	12.88
287.493	56.81
287.709	49.28
287.924	54.84
288.14	75.14
288.356	86.77
288.571	73.03
288.787	76.89
289.003	107.13
289.218	126.95
289.434	76.18
289.65	79.48
289.865	74
290.081	53.72
290.296	35.58
290.512	32.26
290.727	34.44
290.943	28
291.159	18.18
291.374	21.58
291.59	19.62
291.805	7.47
292.021	30.84
292.236	51.16
292.451	64.6
292.667	110.23
292.882	91.18
293.098	31.17
293.313	37.51
293.529	54.17
293.744	42.33
293.959	42.75
294.175	60.43
294.39	41.5
294.605	22.56
294.821	24.22
295.036	-5.77
295.251	15.16
295.467	25.79
295.682	11.93
295.897	17.82
296.112	38.71
296.328	14.73
296.543	24.1
296.758	41.9
296.973	21.83
297.188	40.3
297.404	41.77
297.619	30.98
297.834	24.9
298.049	6.2
298.264	-31.94
298.479	-51.91
298.694	-47.33
298.909	5.09
299.125	32.99
299.34	57.44
299.555	62.48
299.77	74.13
299.985	70.09
300.2	66.65
300.415	44.16
300.63	29.56
300.845	19.32
301.06	28.04
301.275	11.63
301.49	28.03
301.704	58.22
301.919	56.33
302.134	28.36
302.349	51.28
302.564	35.37
302.779	38.76
302.994	40.58
303.209	68.91
303.423	40.78
303.638	43.74
303.853	44.93
304.068	20.27
304.283	6.36
304.497	17.57
304.712	14.9
304.927	-0.28
305.142	10.7
305.356	25.16
305.571	33.14
305.786	37.93
306	40
306.215	48.85
306.43	59.34
306.644	73.45
306.859	69.88
307.074	75.84
307.288	75.34
307.503	63.94
307.717	45.87
307.932	35.32
308.147	32.48
308.361	42.16
308.576	20.9
308.79	6.88
309.005	25.79
309.219	4.34
309.434	-26.84
309.648	-28.28
309.863	-20.17
310.077	-85.11
310.292	-34.96
310.506	-39.81
310.72	-9.04
310.935	-29.31
311.149	-1.33
311.364	12.23
311.578	38.41
311.792	47.42
312.007	73.51
312.221	48.45
312.435	59.15
312.649	57.69
312.864	34.77
313.078	25.76
313.292	36.28
313.507	39.53
313.721	40.22
313.935	29.71
314.149	52.18
314.363	63.83
314.578	43.1
314.792	25.88
315.006	47.46
315.22	37.87
315.434	-14.19
315.648	-33.24
315.862	-57.54
316.077	-14.31
316.291	-11.87
316.505	32.62
316.719	48.36
316.933	64.25
317.147	26.46
317.361	15.22
317.575	11.99
317.789	-5.31
318.003	-18.95
318.217	49.82
318.431	67.48
318.645	67.59
318.859	75.96
319.073	74.08
319.287	0.95
319.5	9.75
319.714	-3.53
319.928	5.15
320.142	0.49
320.356	45.82
320.57	25.97
320.784	23.97
320.997	5.15
321.211	27.49
321.425	-14.39
321.639	-32.99
321.853	-10.35
322.066	-4.5
322.28	-11.21
322.494	-10.09
322.707	7
322.921	5.2
323.135	8.81
323.349	17.89
323.562	21.5
323.776	26.47
323.989	-2.63
324.203	-8.53
324.417	-41.32
324.63	-32.72
324.844	-38.61
325.057	-9.03
325.271	-20.56
325.485	6.29
325.698	15.43
325.912	34.34
326.125	36.24
326.339	67.47
326.552	64.47
326.766	39.22
326.979	38.88
327.193	29.97
327.406	12.58
327.619	37.83
327.833	34.86
328.046	52.38
328.26	75.48
328.473	53.21
328.686	24.9
328.9	42.14
329.113	8.41
329.326	6.07
329.54	36.44
329.753	38.27
329.966	41.63
330.179	48.16
330.393	61.21
330.606	51.83
330.819	58.64
331.032	63.1
331.246	103.2
331.459	80.75
331.672	89.86
331.885	82.06
332.098	86.93
332.311	61.53
332.525	65.47
332.738	45.52
332.951	17.3
333.164	9.89
333.377	16.77
333.59	8.24
333.803	10.43
334.016	27.1
334.229	34.32
334.442	36.36
334.655	53.09
334.868	60.89
335.081	61.38
335.294	69.53
335.507	66.66
335.72	64.34
335.933	60.41
336.146	59.96
336.359	41.34
336.572	33.25
336.785	20.31
336.997	24.74
337.21	58.9
337.423	69.01
337.636	65.5
337.849	65.25
338.062	34.4
338.274	-28.16
338.487	-19.97
338.7	-15.38
338.913	-33.98
339.125	-7.26
339.338	4.47
339.551	-7.07
339.763	33.36
339.976	39.56
340.189	42.89
340.402	16.18
340.614	22.28
340.827	19.58
341.039	20.86
341.252	5.22
341.465	25.9
341.677	39.3
341.89	0.7
342.102	25.1
342.315	26.54
342.527	29.39
342.74	10.03
342.952	26.45
343.165	12.96
343.377	29.77
343.59	8
343.802	15.47
344.015	3.87
344.227	5.55
344.44	9.94
344.652	28.93
344.864	35.71
345.077	56.25
345.289	42.25
345.502	46.74
345.714	43.3
345.926	41.03
346.139	33.13
346.351	29.43
346.563	-3.7
346.775	-1.58
346.988	-28.86
347.2	-26.97
347.412	-31.55
347.624	38.49
347.837	32.66
348.049	40.68
348.261	15.05
348.473	37.48
348.685	47.79
348.897	68.45
349.11	64.38
349.322	79.36
349.534	38.25
349.746	41.76
349.958	27
350.17	38.57
350.382	26.46
350.594	26.29
350.806	12.15
351.018	20.13
351.23	9.86
351.442	21.39
351.654	33.95
351.866	27.4
352.078	12.45
352.29	18.05
352.502	22.4
352.714	0.36
352.926	10.9
353.138	14.19
353.35	25.67
353.561	21.51
353.773	33.64
353.985	43.26
354.197	44.55
354.409	20.08
354.621	22.26
354.832	17.64
355.044	13.09
355.256	25.08
355.468	47.4
355.679	52.71
355.891	58.83
356.103	57.88
356.314	64.12
356.526	48.61
356.738	31.77
356.949	16.18
357.161	28.78
357.373	4.33
357.584	24.15
357.796	59.05
358.008	59.11
358.219	48.88
358.431	81.47
358.642	76.33
358.854	53.78
359.065	52.37
359.277	53.23
359.488	33.03
359.7	37.07
359.911	28.13
360.123	41.83
360.334	35.5
360.546	31.58
360.757	27.28
360.969	28.05
361.18	23.1
361.391	23.68
361.603	37.76
361.814	44.95
362.025	50.6
362.237	45.95
362.448	41.93
362.659	39.24
362.871	21.69
363.082	14.18
363.293	-0.19
363.504	1.08
363.716	24.53
363.927	46.28
364.138	63.82
364.349	51.6
364.56	52.31
364.772	33.73
364.983	13.42
365.194	20.85
365.405	27.68
365.616	27.37
365.827	21.13
366.038	39.85
366.25	31.4
366.461	27.94
366.672	20.94
366.883	14.74
367.094	4.45
367.305	12.88
367.516	20.79
367.727	37.42
367.938	49.61
368.149	22.31
368.36	22.47
368.571	17.03
368.781	-20.24
368.992	-26.51
369.203	13.22
369.414	1.92
369.625	3.05
369.836	-0.18
370.047	7.74
370.258	15.3
370.468	14.27
370.679	25.42
370.89	30.07
371.101	27.87
371.312	29.83
371.522	21.02
371.733	4.02
371.944	11.94
372.155	28.08
372.365	4.46
372.576	17.48
372.787	15.33
372.997	32.49
373.208	21.3
373.419	48.66
373.629	32.77
373.84	43.11
374.05	30.22
374.261	36.14
374.472	23.88
374.682	26.68
374.893	26.82
375.103	9.29
375.314	1.16
375.524	6.49
375.735	-0.13
375.945	22.45
376.156	35.37
376.366	40.34
376.577	45.06
376.787	62.92
376.997	43.33
377.208	41.52
377.418	46.91
377.629	41.75
377.839	48.87
378.049	54.28
378.26	44.06
378.47	47.31
378.68	61.36
378.89	43.38
379.101	31.04
379.311	36.43
379.521	23.93
379.732	10.34
379.942	11.29
380.152	16.25
380.362	6.52
380.572	11.36
380.783	8.58
380.993	7.6
381.203	6.85
381.413	14.35
381.623	18.03
381.833	25.2
382.043	31.58
382.253	33.37
382.463	43.42
382.674	41.13
382.884	33.23
383.094	23.35
383.304	22.37
383.514	15.93
383.724	9.82
383.934	19.59
384.144	27.43
384.353	21.35
384.563	14.94
384.773	20.23
384.983	9.95
385.193	7.37
385.403	10.25
385.613	19.34
385.823	10.87
386.033	12.77
386.242	11.19
386.452	8.7
386.662	5.7
386.872	4.5
387.082	6.23
387.291	-7.11
387.501	-4.47
387.711	-4.1
387.921	-2.21
388.13	-4.87
388.34	6.8
388.55	4.72
388.759	-1.93
388.969	-2.32
389.179	-2.22
389.388	0.24
389.598	2.85
389.807	8
390.017	9.9
390.227	9.4
390.436	5
390.646	0.31
390.855	-2.57
391.065	-0.69
391.274	0.72
391.484	3.17
391.693	5.46
391.903	6.72
392.112	6.58
392.322	4.15
392.531	4.08
392.74	3.42
392.95	2.57
393.159	0.52
393.369	1.77
393.578	2.88
393.787	3.23
393.997	3.35
394.206	3.62
394.415	5.25
394.625	5.12
394.834	4.65
395.043	3.73
395.252	4.22
395.462	3.53
395.671	3.19
395.88	4.59
396.089	5.8
396.298	5.67
396.508	5.48
396.717	4.87
396.926	4.2
397.135	3.32
397.344	2.86
397.553	3.35
397.762	3.52
397.971	3.32
398.181	3.49
398.39	3.18
398.599	3.05
398.808	2.93
399.017	2.79
399.226	3.18
399.435	3.74
399.644	3.73
399.853	3.99
400.062	3.99
400.27	3.6
400.479	3.48
400.688	3.14
400.897	3.23
401.106	3.09
401.315	2.86
401.524	2.94
401.733	2.91
401.941	2.76
402.15	2.72
402.359	2.91
402.568	2.77
402.777	2.84
402.985	2.63
403.194	2.74
403.403	2.81
403.612	2.81
403.82	2.82
404.029	2.8
404.238	2.81
404.446	2.77
404.655	2.88
404.864	2.83
405.072	2.95
405.281	2.98
405.489	3.08
405.698	3.06
405.906	3.11
406.115	2.79
406.324	2.89
406.532	2.72
406.741	2.7
406.949	2.55
407.158	2.92
407.366	2.75
407.574	2.91
407.783	2.94
407.991	2.92
408.2	2.63
408.408	2.66
408.617	2.54
408.825	2.43
409.033	2.4
409.242	2.54
409.45	2.35
409.658	2.29
409.867	2.27
410.075	2.33
410.283	2.25
410.491	2.43
410.7	2.54
410.908	2.6
411.116	2.64
411.324	2.74
411.533	2.67
411.741	2.6
411.949	2.59
412.157	2.47
412.365	2.58
412.573	2.42
412.781	2.46
412.99	2.36
413.198	2.66
413.406	2.5
413.614	2.71
413.822	2.69
414.03	2.76
414.238	2.49
414.446	2.51
414.654	2.41
414.862	2.28
415.07	2.26
415.278	2.34
415.486	2.31
415.694	2.4
415.902	2.47
416.109	2.42
416.317	2.48
416.525	2.4
416.733	2.38
416.941	2.49
417.149	2.63
417.357	2.63
417.564	2.6
417.772	2.46
417.98	2.35
418.188	2.17
418.395	2
418.603	2.14
418.811	2.17
419.019	2.41
419.226	2.57
419.434	2.72
419.642	2.57
419.849	2.7
420.057	2.47
420.265	2.44
420.472	2.21
420.68	2.26
420.887	2.05
421.095	2.11
421.302	2.05
421.51	2.04
421.717	2.21
421.925	2.24
422.132	2.33
422.34	2.31
422.547	2.46
422.755	2.15
422.962	2.37
423.17	2.24
423.377	2.22
423.585	2.31
423.792	2.38
423.999	2.29
424.207	2.12
424.414	1.84
424.621	1.83
424.829	1.99
425.036	1.92
425.243	2.15
425.451	2.55
425.658	2.43
425.865	2.35
426.072	2.24
426.28	2.09
426.487	1.95
426.694	1.99
426.901	1.98
427.108	2.15
427.315	2.34
427.523	2.5
427.73	2.34
427.937	2.27
428.144	2.12
428.351	2.02
428.558	1.78
428.765	1.65
428.972	1.67
429.179	1.83
429.386	1.74
429.593	1.88
429.8	2.17
430.007	2.23
430.214	2.16
430.421	2.3
430.628	2.22
430.835	2.27
431.042	2.21
431.249	2.19
431.456	2.14
431.662	2.34
431.869	2.35
432.076	2.32
432.283	2.36
432.49	2.46
432.697	2.39
432.903	2.23
433.11	2.12
433.317	2.09
433.524	2.07
433.73	2.05
433.937	2.02
434.144	2.04
434.35	2.02
434.557	1.94
434.764	1.75
434.97	1.71
435.177	2.1
435.384	1.91
435.59	1.82
435.797	1.99
436.003	1.99
436.21	1.54
436.416	1.68
436.623	1.69
436.829	1.62
437.036	1.6
437.242	1.76
437.449	1.83
437.655	2
437.862	2.21
438.068	2.38
438.275	2.46
438.481	2.48
438.687	2.27
438.894	2.17
439.1	1.97
439.307	1.87
439.513	1.83
439.719	1.9
439.926	1.91
440.132	1.97
440.338	2.1
440.544	2.14
440.751	2.26
440.957	2.2
441.163	2.24
441.369	2.14
441.575	2
441.782	1.94
441.988	1.91
442.194	1.82
442.4	1.83
442.606	1.94
442.812	1.84
443.018	1.87
443.224	1.92
443.431	1.96
443.637	1.84
443.843	1.88
444.049	1.8
444.255	1.85
444.461	1.76
444.667	1.76
444.873	1.79
445.079	1.85
445.284	1.85
445.49	1.84
445.696	1.89
445.902	1.88
446.108	1.86
446.314	1.79
446.52	1.86
446.726	1.89
446.931	1.93
447.137	1.91
447.343	1.92
447.549	1.81
447.755	1.89
447.96	1.93
448.166	1.97
448.372	1.98
448.578	1.99
448.783	2.03
448.989	1.96
449.195	1.98
449.4	2
449.606	2.04
449.812	2.04
450.017	2.1
450.223	2.08
450.428	2.08
450.634	2.04
450.84	1.94
451.045	1.84
451.251	1.88
451.456	1.98
451.662	2.05
451.867	2.05
452.073	2.14
452.278	2.14
452.483	2.09
452.689	2.1
452.894	2.1
453.1	2.07
453.305	2.04
453.51	1.98
453.716	2.05
453.921	2.07
454.127	2
454.332	1.91
454.537	1.93
454.742	1.91
454.948	1.82
455.153	1.82
455.358	1.94
455.563	1.97
455.769	1.84
455.974	1.95
456.179	1.89
456.384	1.65
456.589	1.46
456.795	1.43
457	1.36
457.205	1.43
457.41	1.61
457.615	1.68
457.82	1.76
458.025	1.69
458.23	1.66
458.435	1.59
458.64	1.5
458.845	1.55
459.05	1.55
459.255	1.61
459.46	1.71
459.665	1.88
459.87	1.74
460.075	1.81
460.28	1.74
460.485	1.68
460.69	1.61
460.895	1.6
461.099	1.62
461.304	1.69
461.509	1.82
461.714	1.88
461.919	1.94
462.123	1.9
462.328	1.8
462.533	1.73
462.738	1.81
462.942	1.83
463.147	1.93
463.352	2.07
463.556	2.05
463.761	1.9
463.966	1.85
464.17	1.81
464.375	1.71
464.58	1.69
464.784	1.73
464.989	1.74
465.193	1.64
465.398	1.82
465.602	1.97
465.807	2.09
466.011	2.12
466.216	2.2
466.42	2.09
466.625	2.02
466.829	2.05
467.034	2.11
467.238	2.16
467.443	2.07
467.647	1.89
467.851	1.79
468.056	1.73
468.26	1.68
468.464	1.65
468.669	1.83
468.873	1.75
469.077	1.78
469.282	1.83
469.486	1.8
469.69	1.76
469.894	1.81
470.099	1.74
470.303	1.69
470.507	1.78
470.711	1.89
470.915	1.89
471.119	2.02
471.324	2.04
471.528	1.91
471.732	1.84
471.936	1.8
472.14	1.77
472.344	1.73
472.548	1.91
472.752	1.83
472.956	1.84
473.16	1.74
473.364	1.78
473.568	1.65
473.772	1.75
473.976	1.76
474.18	1.75
474.384	1.76
474.588	1.86
474.792	1.8
474.995	1.8
475.199	1.81
475.403	1.74
475.607	1.7
475.811	1.63
476.015	1.6
476.218	1.67
476.422	1.67
476.626	1.78
476.83	1.9
477.033	1.96
477.237	1.97
477.441	2.09
477.644	2.03
477.848	1.92
478.052	1.81
478.255	1.75
478.459	1.7
478.663	1.66
478.866	1.72
479.07	1.82
479.273	1.81
479.477	1.9
479.681	1.92
479.884	1.91
480.088	1.87
480.291	1.99
480.495	1.91
480.698	1.9
480.901	1.89
481.105	1.97
481.308	1.86
481.512	1.77
481.715	1.88
481.919	1.9
482.122	1.92
482.325	1.97
482.529	2.11
482.732	2.16
482.935	2.14
483.138	2.17
483.342	2.18
483.545	2.2
483.748	2.1
483.952	2.1
484.155	2.09
484.358	2.03
484.561	1.96
484.764	1.94
484.967	2.03
485.171	1.93
485.374	1.98
485.577	1.99
485.78	2.04
485.983	2
486.186	2.08
486.389	2.07
486.592	2.02
486.795	2.02
486.998	1.96
487.201	1.95
487.404	1.95
487.607	2.09
487.81	2.02
488.013	2.12
488.216	2.12
488.419	2.14
488.622	2.01
488.825	2.06
489.028	2
489.231	2.16
489.433	2.2
489.636	2.24
489.839	2.26
490.042	2.31
490.245	2.19
490.447	2.16
490.65	2.24
490.853	2.33
491.056	2.33
491.258	2.32
491.461	2.36
491.664	2.29
491.866	2.19
492.069	2.23
492.272	2.21
492.474	2.21
492.677	2.24
492.879	2.29
493.082	2.27
493.285	2.38
493.487	2.33
493.69	2.35
493.892	2.36
494.095	2.51
494.297	2.52
494.5	2.67
494.702	2.68
494.905	2.73
495.107	2.57
495.309	2.61
495.512	2.49
495.714	2.53
495.917	2.56
496.119	2.69
496.321	2.69
496.524	2.77
496.726	2.8
496.928	2.8
497.13	2.8
497.333	2.82
497.535	2.91
497.737	2.93
497.939	3.01
498.142	3
498.344	3.07
498.546	3.1
498.748	3.14
498.95	3.16
499.152	3.18
499.355	3.19
499.557	3.21
499.759	3.31
499.961	3.37
500.163	3.39
500.365	3.45
500.567	3.45
500.769	3.43
500.971	3.39
501.173	3.5
501.375	3.44
501.577	3.48
501.779	3.5
501.981	3.59
502.183	3.52
502.385	3.48
502.587	3.45
502.788	3.41
502.99	3.36
503.192	3.38
503.394	3.46
503.596	3.46
503.798	3.48
503.999	3.54
504.201	3.53
504.403	3.53
504.605	3.61
504.806	3.55
505.008	3.48
505.21	3.46
505.411	3.41
505.613	3.38
505.815	3.41
506.016	3.47
506.218	3.45
506.42	3.48
506.621	3.44
506.823	3.41
507.024	3.35
507.226	3.49
507.427	3.45
507.629	3.51
507.83	3.54
508.032	3.51
508.233	3.44
508.435	3.46
508.636	3.48
508.838	3.49
509.039	3.47
509.24	3.4
509.442	3.47
509.643	3.38
509.845	3.39
510.046	3.46
510.247	3.5
510.448	3.47
510.65	3.52
510.851	3.45
511.052	3.48
511.254	3.49
511.455	3.5
511.656	3.44
511.857	3.49
512.058	3.44
512.26	3.37
512.461	3.36
512.662	3.4
512.863	3.29
513.064	3.34
513.265	3.4
513.466	3.41
513.667	3.42
513.868	3.48
514.069	3.4
514.27	3.31
514.471	3.22
514.672	3.21
514.873	3.13
515.074	3.12
515.275	3.14
515.476	3.21
515.677	3.16
515.878	3.21
516.079	3.23
516.28	3.22
516.481	3.18
516.682	3.18
516.882	3.21
517.083	3.14
517.284	3.15
517.485	3.15
517.686	3.21
517.886	3.22
518.087	3.28
518.288	3.31
518.488	3.3
518.689	3.23
518.89	3.21
519.091	3.22
519.291	3.14
519.492	3.16
519.692	3.23
519.893	3.27
520.094	3.19
520.294	3.24
520.495	3.27
520.695	3.24
520.896	3.18
521.096	3.26
521.297	3.34
521.497	3.33
521.698	3.34
521.898	3.34
522.099	3.33
522.299	3.28
522.499	3.28
522.7	3.25
522.9	3.29
523.101	3.23
523.301	3.22
523.501	3.16
523.702	3.19
523.902	3.17
524.102	3.23
524.302	3.26
524.503	3.27
524.703	3.28
524.903	3.28
525.103	3.31
525.304	3.24
525.504	3.33
525.704	3.26
525.904	3.29
526.104	3.3
526.304	3.39
526.504	3.37
526.705	3.45
526.905	3.51
527.105	3.46
527.305	3.5
527.505	3.5
527.705	3.53
527.905	3.51
528.105	3.54
528.305	3.47
528.505	3.51
528.705	3.47
528.905	3.43
529.105	3.45
529.304	3.47
529.504	3.44
529.704	3.45
529.904	3.52
530.104	3.48
530.304	3.52
530.503	3.47
530.703	3.42
530.903	3.41
531.103	3.43
531.303	3.48
531.502	3.6
531.702	3.64
531.902	3.66
532.101	3.66
532.301	3.63
532.501	3.59
532.7	3.61
532.9	3.59
533.1	3.67
533.299	3.66
533.499	3.71
533.698	3.66
533.898	3.66
534.097	3.62
534.297	3.62
534.496	3.6
534.696	3.67
534.895	3.76
535.095	3.76
535.294	3.83
535.494	3.79
535.693	3.78
535.892	3.73
536.092	3.79
536.291	3.72
536.491	3.82
536.69	3.88
536.889	3.81
537.088	3.76
537.288	3.81
537.487	3.76
537.686	3.75
537.886	3.87
538.085	3.96
538.284	4.05
538.483	4.08
538.682	4.17
538.882	4.17
539.081	4.11
539.28	4.06
539.479	4.08
539.678	4.06
539.877	4.07
540.076	4.07
540.275	4.12
540.474	4.11
540.673	4.11
540.872	4.09
541.071	4.13
541.27	4.13
541.469	4.1
541.668	4.13
541.867	4.22
542.066	4.27
542.265	4.33
542.464	4.41
542.663	4.42
542.862	4.52
543.06	4.52
543.259	4.55
543.458	4.63
543.657	4.66
543.856	4.68
544.054	4.73
544.253	4.71
544.452	4.66
544.651	4.65
544.849	4.61
545.048	4.6
545.247	4.64
545.445	4.69
545.644	4.68
545.843	4.7
546.041	4.74
546.24	4.78
546.438	4.85
546.637	5
546.836	5.06
547.034	5.1
547.233	5.15
547.431	5.17
547.63	5.15
547.828	5.21
548.027	5.25
548.225	5.24
548.423	5.29
548.622	5.32
548.82	5.24
549.019	5.24
549.217	5.22
549.415	5.2
549.614	5.28
549.812	5.36
550.01	5.42
550.209	5.6
550.407	5.66
550.605	5.65
550.803	5.69
551.002	5.77
551.2	5.69
551.398	5.81
551.596	5.84
551.794	5.94
551.993	5.96
552.191	6.03
552.389	6.02
552.587	6.08
552.785	6.11
552.983	6.16
553.181	6.22
553.379	6.29
553.577	6.39
553.775	6.41
553.973	6.46
554.171	6.52
554.369	6.58
554.567	6.6
554.765	6.7
554.963	6.72
555.161	6.74
555.359	6.78
555.557	6.83
555.755	6.84
555.952	6.96
556.15	7.05
556.348	7.12
556.546	7.16
556.744	7.26
556.941	7.32
557.139	7.42
557.337	7.43
557.535	7.47
557.732	7.51
557.93	7.53
558.128	7.56
558.325	7.62
558.523	7.69
558.721	7.69
558.918	7.69
559.116	7.67
559.313	7.69
559.511	7.82
559.708	7.96
559.906	8.11
560.104	8.19
560.301	8.32
560.498	8.28
560.696	8.31
560.893	8.36
561.091	8.46
561.288	8.5
561.486	8.6
561.683	8.62
561.88	8.65
562.078	8.66
562.275	8.65
562.473	8.69
562.67	8.73
562.867	8.69
563.064	8.69
563.262	8.73
563.459	8.81
563.656	8.86
563.853	8.98
564.051	9.04
564.248	9.12
564.445	9.1
564.642	9.13
564.839	9.19
565.036	9.31
565.234	9.35
565.431	9.41
565.628	9.45
565.825	9.45
566.022	9.47
566.219	9.54
566.416	9.57
566.613	9.59
566.81	9.69
567.007	9.66
567.204	9.61
567.401	9.65
567.598	9.78
567.795	9.83
567.991	9.88
568.188	10.01
568.385	9.96
568.582	9.95
568.779	9.83
568.976	9.97
569.172	9.96
569.369	10.04
569.566	10.01
569.763	10.07
569.96	10.08
570.156	10.1
570.353	10.12
570.55	10.23
570.746	10.24
570.943	10.23
571.14	10.23
571.336	10.25
571.533	10.21
571.729	10.25
571.926	10.2
572.123	10.23
572.319	10.3
572.516	10.26
572.712	10.3
572.909	10.26
573.105	10.27
573.302	10.18
573.498	10.14
573.695	10.04
573.891	10.09
574.087	10.07
574.284	10.1
574.48	10.14
574.677	10.26
574.873	10.31
575.069	10.32
575.266	10.31
575.462	10.32
575.658	10.32
575.854	10.35
576.051	10.28
576.247	10.27
576.443	10.27
576.639	10.22
576.835	10.07
577.032	10.07
577.228	10.09
577.424	10.1
577.62	10.09
577.816	10.04
578.012	10.09
578.208	10.03
578.404	10.07
578.6	10.07
578.796	10.1
578.993	10.11
579.189	10.16
579.384	10.08
579.58	10.06
579.776	10.07
579.972	9.94
580.168	9.82
580.364	9.83
580.56	9.82
580.756	9.74
580.952	9.81
581.148	9.84
581.343	9.84
581.539	9.85
581.735	9.78
581.931	9.68
582.127	9.64
582.322	9.54
582.518	9.53
582.714	9.53
582.909	9.57
583.105	9.49
583.301	9.51
583.496	9.39
583.692	9.38
583.888	9.27
584.083	9.26
584.279	9.3
584.474	9.31
584.67	9.33
584.866	9.33
585.061	9.33
585.257	9.22
585.452	9.24
585.648	9.26
585.843	9.28
586.039	9.39
586.234	9.44
586.429	9.36
586.625	9.33
586.82	9.36
587.015	9.25
587.211	9.11
587.406	9.14
587.601	9.18
587.797	9.12
587.992	9.09
588.187	9.21
588.383	9.23
588.578	9.19
588.773	9.16
588.968	9.24
589.163	9.21
589.359	9.15
589.554	9.12
589.749	9.21
589.944	9.22
590.139	9.17
590.334	9.13
590.529	9.19
590.724	9.24
590.919	9.23
591.114	9.37
591.309	9.36
591.504	9.33
591.699	9.2
591.894	9.12
592.089	9.02
592.284	9.12
592.479	9.14
592.674	9.22
592.869	9.23
593.064	9.38
593.259	9.38
593.454	9.36
593.648	9.32
593.843	9.34
594.038	9.28
594.233	9.26
594.428	9.36
594.622	9.4
594.817	9.49
595.012	9.5
595.206	9.66
595.401	9.7
595.596	9.62
595.79	9.64
595.985	9.6
596.18	9.6
596.374	9.59
596.569	9.7
596.763	9.78
596.958	9.98
597.153	9.91
597.347	9.94
597.542	10.06
597.736	10.09
597.931	10.01
598.125	10.07
598.319	10.17
598.514	10.14
598.708	10.17
598.903	10.16
599.097	10.23
599.291	10.16
599.486	10.28
599.68	10.24
599.874	10.23
600.069	10.23
600.263	10.27
600.457	10.21
600.651	10.21
600.846	10.28
601.04	10.2
601.234	10.19
601.428	10.24
601.622	10.29
601.817	10.34
602.011	10.45
602.205	10.58
602.399	10.56
602.593	10.59
602.787	10.57
602.981	10.59
603.175	10.56
603.369	10.48
603.563	10.46
603.757	10.45
603.951	10.34
604.145	10.3
604.339	10.38
604.533	10.33
604.727	10.42
604.921	10.52
605.115	10.51
605.309	10.4
605.502	10.4
605.696	10.27
605.89	10.14
606.084	10.17
606.278	10.21
606.471	10.18
606.665	10.13
606.859	10.03
607.053	9.91
607.246	9.88
607.44	9.84
607.634	9.81
607.827	9.92
608.021	9.78
608.214	9.73
608.408	9.75
608.602	9.76
608.795	9.7
608.989	9.8
609.182	9.8
609.376	9.71
609.569	9.66
609.763	9.58
609.956	9.59
610.15	9.43
610.343	9.38
610.537	9.31
610.73	9.25
610.923	9.18
611.117	9.21
611.31	9.16
611.504	9.11
611.697	9.15
611.89	9.07
612.083	9
612.277	8.91
612.47	8.95
612.663	8.78
612.856	8.71
613.05	8.68
613.243	8.65
613.436	8.51
613.629	8.47
613.822	8.48
614.015	8.45
614.209	8.34
614.402	8.39
614.595	8.38
614.788	8.27
614.981	8.18
615.174	8.15
615.367	8.01
615.56	7.91
615.753	7.86
615.946	7.9
616.139	7.98
616.332	7.92
616.525	7.94
616.718	7.93
616.911	7.81
617.103	7.7
617.296	7.73
617.489	7.7
617.682	7.73
617.875	7.83
618.067	7.86
618.26	7.79
618.453	7.68
618.646	7.61
618.838	7.44
619.031	7.35
619.224	7.38
619.417	7.49
619.609	7.45
619.802	7.47
619.994	7.48
620.187	7.46
620.38	7.43
620.572	7.42
620.765	7.5
620.957	7.48
621.15	7.48
621.342	7.38
621.535	7.39
621.727	7.31
621.92	7.27
622.112	7.16
622.305	7.24
622.497	7.23
622.69	7.14
622.882	7.19
623.074	7.26
623.267	7.19
623.459	7.11
623.651	7.13
623.844	7.07
624.036	7.09
624.228	7.05
624.42	7.08
624.613	7.17
624.805	7.21
624.997	7.17
625.189	7.15
625.381	7.2
625.574	7.1
625.766	7.05
625.958	7
626.15	7.04
626.342	6.91
626.534	6.93
626.726	6.85
626.918	6.87
627.11	6.86
627.302	6.87
627.494	6.83
627.686	6.92
627.878	6.84
628.07	6.81
628.262	6.82
628.454	6.82
628.646	6.79
628.838	6.84
629.029	6.78
629.221	6.69
629.413	6.61
629.605	6.51
629.797	6.44
629.989	6.42
630.18	6.4
630.372	6.34
630.564	6.39
630.755	6.35
630.947	6.33
631.139	6.31
631.33	6.37
631.522	6.32
631.714	6.3
631.905	6.28
632.097	6.3
632.289	6.3
632.48	6.31
632.672	6.29
632.863	6.2
633.055	6.14
633.246	6.16
633.438	6.1
633.629	6.05
633.821	6.12
634.012	6.13
634.203	6.04
634.395	6.06
634.586	6.17
634.777	6.14
634.969	6.09
635.16	6.15
635.351	6.15
635.543	6.09
635.734	6.1
635.925	6.1
636.117	6.16
636.308	6.16
636.499	6.09
636.69	6.04
636.881	6.05
637.073	6
637.264	6.03
637.455	6.06
637.646	6.07
637.837	6.09
638.028	5.99
638.219	5.97
638.41	5.99
638.601	6.01
638.792	6.01
638.983	5.96
639.174	5.84
639.365	5.81
639.556	5.82
639.747	5.76
639.938	5.86
640.129	5.93
640.32	5.95
640.511	5.93
640.701	5.93
640.892	5.9
641.083	5.84
641.274	5.76
641.465	5.7
641.655	5.7
641.846	5.7
642.037	5.71
642.228	5.68
642.418	5.68
642.609	5.62
642.8	5.55
642.99	5.53
643.181	5.57
643.372	5.56
643.562	5.63
643.753	5.64
643.943	5.64
644.134	5.59
644.324	5.63
644.515	5.6
644.705	5.54
644.896	5.59
645.086	5.58
645.277	5.56
645.467	5.6
645.658	5.6
645.848	5.44
646.038	5.4
646.229	5.47
646.419	5.4
646.61	5.5
646.8	5.54
646.99	5.67
647.18	5.57
647.371	5.5
647.561	5.42
647.751	5.45
647.941	5.32
648.132	5.3
648.322	5.35
648.512	5.37
648.702	5.41
648.892	5.33
649.082	5.33
649.272	5.27
649.462	5.22
649.653	5.2
649.843	5.28
650.033	5.24
650.223	5.2
650.413	5.21
650.603	5.21
650.793	5.21
650.983	5.2
651.172	5.21
651.362	5.19
651.552	5.11
651.742	5.03
651.932	5.06
652.122	5.15
652.312	5.1
652.502	5.12
652.691	5.11
652.881	5.14
653.071	5.16
653.261	5.06
653.45	4.91
653.64	5
653.83	4.96
654.019	4.83
654.209	4.89
654.399	4.99
654.588	4.78
654.778	4.69
654.968	4.61
655.157	4.66
655.347	4.61
655.536	4.63
655.726	4.56
655.915	4.58
656.105	4.41
656.294	4.34
656.484	4.29
656.673	4.24
656.863	4.18
657.052	4.2
657.241	4.13
657.431	4.22
657.62	4.16
657.809	4.04
657.999	3.99
658.188	3.98
658.377	3.87
658.567	3.83
658.756	3.79
658.945	3.77
659.134	3.72
659.324	3.63
659.513	3.65
659.702	3.58
659.891	3.49
660.08	3.38
660.269	3.32
660.458	3.25
660.648	3.33
660.837	3.23
661.026	3.17
661.215	3.18
661.404	3.09
661.593	2.92
661.782	2.88
661.971	2.96
662.16	2.93
662.349	2.94
662.538	3.01
662.726	3.02
662.915	2.98
663.104	2.91
663.293	2.8
663.482	2.74
663.671	2.82
663.86	2.77
664.048	2.75
664.237	2.97
664.426	2.87
664.615	2.72
664.803	2.77
664.992	2.71
665.181	2.63
665.369	2.69
665.558	2.75
665.747	2.75
665.935	2.81
666.124	2.77
666.312	2.73
666.501	2.81
666.69	2.83
666.878	2.83
667.067	2.77
667.255	2.94
667.444	3.02
667.632	3.13
667.82	3.14
668.009	3.24
668.197	3.1
668.386	2.98
668.574	2.83
668.762	2.99
668.951	3.02
669.139	3.04
669.327	3.08
669.516	3.16
669.704	3.07
669.892	3.06
670.08	3.08
670.269	3.02
670.457	2.97
670.645	2.9
670.833	2.96
671.021	3.14
671.21	3.25
671.398	3.33
671.586	3.35
671.774	3.4
671.962	3.3
672.15	3.36
672.338	3.34
672.526	3.53
672.714	3.64
672.902	3.64
673.09	3.57
673.278	3.65
673.466	3.69
673.654	3.78
673.842	3.93
674.03	4.19
674.218	4.24
674.405	4.31
674.593	4.25
674.781	4.32
674.969	4.27
675.157	4.4
675.344	4.3
675.532	4.32
675.72	4.32
675.908	4.31
676.095	4.27
676.283	4.4
676.471	4.37
676.658	4.34
676.846	4.32
677.033	4.51
677.221	4.49
677.409	4.51
677.596	4.69
677.784	4.82
677.971	4.82
678.159	4.91
678.346	5
678.534	4.97
678.721	5.07
678.909	5.02
679.096	5.12
679.283	5.01
679.471	4.95
679.658	4.97
679.846	4.98
680.033	5.03
680.22	5.32
680.408	5.36
680.595	5.34
680.782	5.38
680.969	5.5
681.157	5.31
681.344	5.44
681.531	5.51
681.718	5.69
681.905	5.66
682.093	5.84
682.28	5.94
682.467	5.96
682.654	5.88
682.841	5.82
683.028	5.89
683.215	5.98
683.402	6.05
683.589	6.11
683.776	6.21
683.963	6.23
684.15	6.29
684.337	6.37
684.524	6.54
684.711	6.62
684.898	6.57
685.085	6.52
685.271	6.62
685.458	6.69
685.645	6.69
685.832	6.65
686.019	6.76
686.205	6.82
686.392	6.77
686.579	7.01
686.766	7.41
686.952	7.47
687.139	7.55
687.326	7.47
687.512	7.51
687.699	7.52
687.886	7.52
688.072	7.54
688.259	7.83
688.445	7.95
688.632	7.99
688.818	8.14
689.005	8.19
689.191	8.5
689.378	8.69
689.564	8.99
689.751	9.15
689.937	9.52
690.124	9.53
690.31	9.71
690.496	10.02
690.683	10.43
690.869	10.59
691.055	10.99
691.242	11.36
691.428	11.38
691.614	11.51
691.8	11.93
691.987	12.13
692.173	12.4
692.359	12.86
692.545	13.43
692.731	13.47
692.918	13.86
693.104	14.31
693.29	14.63
693.476	14.8
693.662	15.46
693.848	15.84
694.034	15.92
694.22	16.59
694.406	16.9
694.592	17.11
694.778	17.33
694.964	17.91
695.15	17.88
695.336	18.2
695.522	18.73
695.708	19.39
695.894	19.69
696.08	20.41
696.265	21.1
696.451	21.76
696.637	22.15
696.823	22.82
697.009	23.33
697.194	23.67
697.38	24.02
697.566	24.37
697.751	24.74
697.937	24.82
698.123	25.6
698.308	25.94
698.494	26.66
698.68	27
698.865	27.83
699.051	28.13
699.236	28.61
699.422	29.15
699.607	29.77
699.793	30.21
699.978	30.58
700.164	31.16
700.349	31.44
700.535	31.8
700.72	32.15
700.906	33.09
701.091	33.57
701.276	33.73
701.462	34.09
701.647	34.78
701.832	34.76
702.018	35.25
702.203	36.12
702.388	36.7
702.573	37.02
702.759	37.61
702.944	37.87
703.129	38.18
703.314	38.65
703.499	39.04
703.684	39.37
703.87	39.66
704.055	40.2
704.24	40.7
704.425	41.06
704.61	41.68
704.795	42.43
704.98	42.68
705.165	42.91
705.35	43.51
705.535	43.86
705.72	44.34
705.905	44.64
706.09	45.15
706.275	45.17
706.459	44.95
706.644	44.97
706.829	45.53
707.014	46.01
707.199	46.38
707.384	46.9
707.568	47.43
707.753	47.47
707.938	47.36
708.123	47.81
708.307	48.08
708.492	48.11
708.677	48.11
708.861	48.59
709.046	48.63
709.231	49
709.415	49.33
709.6	49.83
709.784	50
709.969	50.57
710.153	50.74
710.338	50.97
710.522	51.24
710.707	51.32
710.891	51.2
711.076	51.65
711.26	51.85
711.445	52.59
711.629	53
711.813	53.35
711.998	53.25
712.182	53.29
712.366	52.6
712.551	52.38
712.735	52.64
712.919	52.91
713.103	52.98
713.288	53.43
713.472	53.73
713.656	53.67
713.84	54.05
714.024	54.89
714.208	55.39
714.393	55.26
714.577	55.44
714.761	55.36
714.945	55.52
715.129	55.4
715.313	55.99
715.497	56.53
715.681	56.72
715.865	56.42
716.049	56.11
716.233	56.51
716.417	56.27
716.601	56.32
716.785	56.6
716.968	57.13
717.152	57.09
717.336	57.79
717.52	58.14
717.704	57.84
717.888	58.34
718.071	58.74
718.255	58.21
718.439	58.16
718.622	58.45
718.806	58.15
718.99	57.92
719.174	58.23
719.357	58.97
719.541	59.83
719.724	60.07
719.908	60.21
720.092	60.66
720.275	60.35
720.459	60.01
720.642	60.36
720.826	60.78
721.009	60.65
721.193	60.45
721.376	60.61
721.559	60.95
721.743	60.96
721.926	61.19
722.11	61.85
722.293	61.94
722.476	61.98
722.66	62.27
722.843	61.93
723.026	62.13
723.21	62.3
723.393	61.73
723.576	61.74
723.759	62.47
723.942	62.44
724.126	62.84
724.309	63.46
724.492	63.54
724.675	63.48
724.858	63.74
725.041	63.37
725.224	63.11
725.407	63.53
725.59	63.91
725.774	63.82
725.957	64.29
726.14	65
726.322	65.03
726.505	65.13
726.688	65.6
726.871	65.88
727.054	66.12
727.237	66.39
727.42	66.54
727.603	66.84
727.786	66.9
727.968	66.89
728.151	66.79
728.334	66.84
728.517	66.9
728.699	66.92
728.882	67.33
729.065	68.22
729.248	68.01
729.43	67.87
729.613	68.47
729.796	68.78
729.978	68.38
730.161	68.88
730.343	69.59
730.526	69.78
730.708	69.65
730.891	69.44
731.073	69.37
731.256	69.28
731.438	69.12
731.621	69.01
731.803	69.71
731.986	70.45
732.168	70.88
732.35	71.07
732.533	71.8
732.715	71.74
732.898	71.54
733.08	71.61
733.262	72.13
733.444	72.18
733.627	72.56
733.809	72.26
733.991	72.34
734.173	72.69
734.355	73.27
734.538	73.17
734.72	74.39
734.902	74.32
735.084	74.52
735.266	74.02
735.448	74.75
735.63	74.67
735.812	74.94
735.994	73.83
736.176	74.11
736.358	74.47
736.54	75.6
736.722	76.06
736.904	76.9
737.086	76.8
737.268	76.56
737.45	76.28
737.632	76.51
737.814	76.96
737.995	77.51
738.177	77.84
738.359	76.78
738.541	76.49
738.723	76.94
738.904	77.05
739.086	77.5
739.268	77.83
739.449	78.69
739.631	77.94
739.813	78.08
739.994	77.67
740.176	78.82
740.358	79.31
740.539	80.52
740.721	80.33
740.902	80.3
741.084	80.56
741.265	79.48
741.447	78.93
741.628	78.98
741.81	79.23
741.991	79.52
742.172	79.85
742.354	80.72
742.535	81.04
742.717	82.45
742.898	82.71
743.079	83.24
743.261	83.75
743.442	84.5
743.623	83.75
743.804	83.77
743.986	82.69
744.167	80.74
744.348	80.64
744.529	80.64
744.71	80.2
744.891	81.41
745.073	82.34
745.254	83.68
745.435	84.39
745.616	84.31
745.797	84.07
745.978	85.25
746.159	84.71
746.34	84.69
746.521	84.36
746.702	85.66
746.883	85.34
747.064	84
747.245	82.42
747.426	83.34
747.606	82.6
747.787	82.33
747.968	83.75
748.149	84.77
748.33	84.63
748.51	84.11
748.691	83.15
748.872	81.91
749.053	81.79
749.233	81.84
749.414	83.93
749.595	85.42
749.775	86.33
749.956	86.17
750.137	84.98
750.317	83.07
750.498	81.7
750.678	82.11
750.859	83.62
751.04	84.45
751.22	84.36
751.4	85.56
751.581	84.82
751.761	84.15
751.942	84.9
752.122	84.87
752.303	84.87
752.483	86.13
752.663	87.06
752.844	86.39
753.024	86.28
753.204	87.05
753.385	84.52
753.565	84.54
753.745	84.08
753.925	85.69
754.106	84.88
754.286	86.3
754.466	84.8
754.646	84.56
754.826	83.23
755.006	83.71
755.187	83.76
755.367	84.12
755.547	83.72
755.727	84.34
755.907	82.93
756.087	83.79
756.267	84.23
756.447	86.6
756.627	85.89
756.807	88.45
756.987	87.77
757.167	88.58
757.346	87.44
757.526	87.88
757.706	86.86
757.886	86.68
758.066	84.55
758.246	83.34
758.425	82.51
758.605	80.86
758.785	81.38
758.965	83.77
759.144	85.75
759.324	87.44
759.504	89.81
759.683	88.69
759.863	86.29
760.043	85.92
760.222	87.34
760.402	87.12
760.581	87.23
760.761	88.52
760.94	87.31
761.12	85.51
761.299	84.77
761.479	85.49
761.658	85.27
761.838	84.92
762.017	83.08
762.197	83.84
762.376	83.63
762.555	82.28
762.735	85.76
762.914	85.24
763.093	84.12
763.273	83.2
763.452	85.09
763.631	83.23
763.81	83.8
763.99	83.04
764.169	84.1
764.348	82.77
764.527	81.02
764.706	82.78
764.885	83.26
765.064	81.74
765.243	82.23
765.423	81.75
765.602	79.64
765.781	79.16
765.96	78.99
766.139	79.42
766.318	80.52
766.497	80.98
766.676	81
766.854	82.85
767.033	82.69
767.212	82.89
767.391	84.49
767.57	85.1
767.749	86.17
767.928	85.87
768.106	84.91
768.285	84.19
768.464	83.64
768.643	82.21
768.821	82.1
769	84.09
769.179	83.73
769.357	83.86
769.536	84.11
769.715	83.39
769.893	83.86
770.072	84.05
770.25	84.35
770.429	85.21
770.607	84.94
770.786	84.88
770.964	84.52
771.143	84.96
771.321	83.01
771.5	87.96
771.678	84.94
771.857	85.66
772.035	85.52
772.213	87.44
772.392	82.69
772.57	84.8
772.748	83.3
772.927	84.3
773.105	82.61
773.283	85.24
773.461	84.39
773.64	86.53
773.818	84.19
773.996	84.74
774.174	82.88
774.352	82.67
774.531	80.74
774.709	80.49
774.887	80.22
775.065	79.32
775.243	79.95
775.421	79.21
775.599	83.59
775.777	82.33
775.955	80.19
776.133	78.47
776.311	80.23
776.489	78.23
776.667	79.39
776.844	81.3
777.022	81.83
777.2	83.1
777.378	80.79
777.556	80.25
777.734	82.59
777.911	83.9
778.089	83.32
778.267	83.96
778.445	85.21
778.622	82.23
778.8	83.21
778.978	81.15
779.155	80.81
779.333	79.65
779.511	76.97
779.688	73.4
779.866	68.75
780.043	68.71
780.221	69.36
780.398	74.35
780.576	73.69
780.753	80.91
780.931	81.56
781.108	82.73
781.286	82.71
781.463	85.18
781.64	85.03
781.818	85.25
781.995	82.82
782.172	81.27
782.35	81.05
782.527	77.54
782.704	77.82
782.882	78.79
783.059	78.55
783.236	75.51
783.413	80.85
783.59	81.57
783.768	78.05
783.945	81.51
784.122	86.53
784.299	83.92
784.476	83.26
784.653	87.96
784.83	85.61
785.007	82.45
785.184	81.39
785.361	82.16
785.538	80.66
785.715	80.12
785.892	81.79
786.069	82.31
786.246	81.34
786.423	84.67
786.6	87.43
786.776	86.78
786.953	86.78
787.13	83.34
787.307	83.8
787.484	81.98
787.66	83.33
787.837	81.03
788.014	85.83
788.191	84.73
788.367	82.9
788.544	88
788.721	91.1
788.897	87.45
789.074	86.21
789.25	85.9
789.427	78.01
789.603	79.43
789.78	85.53
789.956	84.5
790.133	84.12
790.309	90.05
790.486	84.59
790.662	78.53
790.839	74.85
791.015	75.25
791.192	74.53
791.368	76.74
791.544	75.29
791.721	82.35
791.897	84.82
792.073	80.42
792.249	78.12
792.426	84.99
792.602	82.03
792.778	83.4
792.954	84.52
793.13	84.27
793.307	83.22
793.483	81.87
793.659	78.88
793.835	85.05
794.011	90.02
794.187	79.24
794.363	80.55
794.539	79.17
794.715	68.99
794.891	67.4
795.067	69.3
795.243	68.31
795.419	71.07
795.595	74.24
795.771	72.88
795.947	81.71
796.122	78.54
796.298	79.38
796.474	79.2
796.65	83.81
796.826	78.77
797.001	83.78
797.177	81.16
797.353	80.43
797.529	78.8
797.704	77.93
797.88	78.78
798.056	75.21
798.231	79.76
798.407	76.72
798.582	78.3
798.758	79.3
798.934	87.8
799.109	83.77
799.285	86.12
799.46	88.88
799.636	87.08
799.811	82.52
799.986	86.51
800.162	87.48
800.337	83.78
800.513	81.19
800.688	82.48
800.863	80.38
801.039	84.08
801.214	80.3
801.389	85.73
801.565	84.72
801.74	87.17
801.915	78.82
802.09	83.29
802.265	75.35
802.441	82.28
802.616	77.17
802.791	85.85
802.966	89.05
803.141	96.41
803.316	84.54
803.491	76.72
803.666	70.78
803.841	70.83
804.016	68.07
804.191	74.53
804.366	89.74
804.541	92.33
804.716	86.12
804.891	86.07
805.066	84.69
805.241	81.23
805.416	75.39
805.591	83.18
805.765	82.79
805.94	75.83
806.115	81.88
806.29	80.43
806.464	81.08
806.639	83.01
806.814	84.88
806.989	73.88
807.163	87
807.338	82.09
807.512	76.47
807.687	78.62
807.862	75.9
808.036	60.35
808.211	66.25
808.385	60.37
808.56	62.25
808.734	64.49
808.909	74.49
809.083	64.84
809.258	72.54
809.432	70.65
809.606	69.81
809.781	70.59
809.955	74.88
810.13	79.58
810.304	80.97
810.478	80.36
810.652	81.96
810.827	75.19
811.001	74.58
811.175	79.98
811.349	83.59
811.524	87.13
811.698	92.05
811.872	89.34
812.046	91.58
812.22	87.84
812.394	74
812.568	78.56
812.742	83.93
812.916	74.85
813.09	87.62
813.264	102.47
813.438	89.33
813.612	89.85
813.786	79.01
813.96	73.61
814.134	76.23
814.308	92.06
814.482	88.51
814.656	106.48
814.83	105.32
815.003	107.06
815.177	101.89
815.351	100.64
815.525	89.93
815.698	84.3
815.872	72.16
816.046	75.03
816.219	67.55
816.393	81.73
816.567	87.37
816.74	97.59
816.914	111.73
817.088	136.5
817.261	134.18
817.435	141.13
817.608	150.97
817.782	111.52
817.955	109.99
818.129	101.3
818.302	82.87
818.475	80.33
818.649	102.15
818.822	86.89
818.996	92.62
819.169	93.82
819.342	102.09
819.516	91.63
819.689	104.35
819.862	108.9
820.035	119.79
820.209	95.35
820.382	100.59
820.555	95.49
820.728	102.45
820.901	87.72
821.075	112.12
821.248	124.1
821.421	120.43
821.594	110.38
821.767	119.88
821.94	108.26
822.113	76.45
822.286	74.46
822.459	59.89
822.632	42.15
822.805	66.27
822.978	86.46
823.151	83.31
823.324	91.24
823.496	64.37
823.669	40.29
823.842	57.06
824.015	46.1
824.188	37.13
824.361	71.22
824.533	86.17
824.706	56.83
824.879	72.11
825.051	78.25
825.224	81.86
825.397	79.82
825.569	88.66
825.742	80.87
825.915	72.97
826.087	67.55
826.26	59.94
826.432	62.91
826.605	60.22
826.777	68.87
826.95	78.91
827.122	79.69
827.295	69.99
827.467	74.88
827.64	39.7
827.812	34.79
827.984	42.33
828.157	44.91
828.329	60.11
828.501	112.83
828.674	112.07
828.846	113.8
829.018	128.64
829.19	141.11
829.363	117.36
829.535	109.09
829.707	100.67
829.879	84.9
830.051	67.83
830.223	80.19
830.395	77.29
830.568	71.49
830.74	77.57
830.912	86.31
831.084	75.59
831.256	88.86
831.428	82.59
831.6	86.46
831.772	75.4
831.943	57.94
832.115	38.49
832.287	58.89
832.459	58.13
832.631	65.27
832.803	83.88
832.975	109.43
833.146	95.59
833.318	78.91
833.49	91.21
833.662	84.35
833.833	84.46
834.005	94.85
834.177	111.81
834.348	108.59
834.52	102.07
834.692	105.54
834.863	89.16
835.035	94.07
835.206	86.04
835.378	99.54
835.549	96.44
835.721	113.62
835.892	101.5
836.064	111.65
836.235	109.89
836.407	132.39
836.578	114.42
836.749	135.37
836.921	124.48
837.092	137.41
837.264	104.28
837.435	89.74
837.606	51.76
837.777	42.13
837.949	39.76
838.12	-10.17
838.291	27.25
838.462	75.65
838.633	77.75
838.805	89.75
838.976	143.78
839.147	134.22
839.318	148.72
839.489	102.67
839.66	103.09
839.831	104.55
840.002	85.68
840.173	40.97
840.344	66.65
840.515	51.8
840.686	28.02
840.857	50.86
841.028	67.8
841.199	76.82
841.369	99.65
841.54	92.65
841.711	132.86
841.882	118.3
842.053	102.64
842.223	82.23
842.394	70.05
842.565	53.09
842.736	72.41
842.906	72.57
843.077	79.19
843.248	83.05
843.418	86.66
843.589	91.43
843.759	104.83
843.93	177.05
844.101	511.48
844.271	210.05
844.442	200.99
844.612	184.95
844.783	152.11
844.953	94.97
845.123	64.61
845.294	67.88
845.464	71.07
845.635	101.74
845.805	170.61
845.975	185.64
846.146	185.28
846.316	390.63
846.486	186.01
846.656	65.41
846.827	82.92
846.997	94.21
847.167	71.57
847.337	29.84
847.507	78.37
847.677	66.18
847.848	86.67
848.018	101.73
848.188	162.64
848.358	132.93
848.528	177.99
848.698	164.68
848.868	144.79
849.038	128.99
849.208	126.88
849.378	108.27
849.548	50.11
849.718	41.16
849.887	29.94
850.057	-1935.48
850.227	669.53
850.397	781.21
850.567	-2.95
850.737	45.98
850.906	37.55
851.076	49.88
851.246	76.67
851.415	95.39
851.585	100.11
851.755	106.02
851.924	101.07
852.094	119.07
852.264	99.04
852.433	59.1
852.603	82.14
852.772	90.38
852.942	67.93
853.111	44.47
853.281	100.12
853.45	98.82
853.62	91.09
853.789	57.79
853.959	97.05
854.128	82.81
854.297	190.26
854.467	324.37
854.636	-269.7
854.805	-19.65
854.975	13.74
855.144	17.46
855.313	44.21
855.482	88.33
855.652	56.7
855.821	83.4
855.99	118.03
856.159	230.28
856.328	118.51
856.497	202.2
856.667	149.17
856.836	134.86
857.005	135.61
857.174	99.37
857.343	101.9
857.512	67.28
857.681	27.74
857.85	0.47
858.019	14.25
858.188	16.75
858.356	9.11
858.525	24.36
858.694	19.2
858.863	3.61
859.032	-59.91
859.201	-53.63
859.369	10.25
859.538	19.14
859.707	15.92
859.876	40.75
860.044	61.36
860.213	70.92
860.382	101.77
860.55	98.42
860.719	99.54
860.888	91.95
861.056	77.73
861.225	63.47
861.393	122.58
861.562	194.55
861.73	225.55
861.899	202.95
862.067	411.37
862.236	279.27
862.404	110.27
862.572	52.32
862.741	54.64
862.909	31.02
863.078	53.31
863.246	64.28
863.414	105.41
863.582	76.16
863.751	99.79
863.919	73.72
864.087	78.67
864.255	61.72
864.424	18.45
864.592	6.2
864.76	37.98
864.928	54.03
865.096	56.51
865.264	70.49
865.432	72.63
865.6	133.26
865.768	49.85
865.936	-70.53
866.104	-238.62
866.272	15.07
866.44	-113.11
866.608	-72.46
866.776	-1.85
866.944	7.83
867.112	0.41
867.28	-19.96
867.448	20.71
867.615	-13.37
867.783	7.91
867.951	-48.93
868.119	3.05
868.286	-17.2
868.454	38.24
868.622	63.11
868.789	557.8
868.957	-1015.38
869.125	-478.29
869.292	346.92
869.46	20.34
869.627	-898.29
869.795	-125.48
869.963	4.26
870.13	52.96
870.298	74.03
870.465	79.1
870.632	84.13
870.8	81.41
870.967	120.55
871.135	28.37
871.302	45.43
871.469	174.97
871.637	114.49
871.804	64.03
871.971	105.12
872.139	135.22
872.306	153.54
872.473	223.12
872.64	12.85
872.807	42.48
872.975	-13.87
873.142	0.36
873.309	12.63
873.476	18.06
873.643	33.39
873.81	39.09
873.977	37.76
874.144	86.02
874.311	88.52
874.478	-108.98
874.645	-179.64
874.812	-608.53
874.979	-103.33
875.146	-64.14
875.313	-174.32
875.48	-45.44
875.647	699.7
875.813	1139.24
875.98	-56.65
876.147	38.69
876.314	17.84
876.481	-29.06
876.647	15.44
876.814	128.48
876.981	258.63
877.147	232.62
877.314	125.44
877.481	155.44
877.647	37.91
877.814	-18.02
877.98	-33.5
878.147	-46.54
878.314	-94.9
878.48	704.45
878.647	145.38
878.813	595.68
878.979	87.5
879.146	26.08
879.312	52.1
879.479	128.62
879.645	119.8
879.811	77.77
879.978	121.57
880.144	165.26
880.31	231.62
880.477	628.19
880.643	-285.41
880.809	-1024.39
880.975	-48.24
881.142	-239.72
881.308	-211.62
881.474	47.3
881.64	53.88
881.806	42.48
881.972	80.44
882.138	90.25
882.304	71.23
882.47	28.29
882.636	31.42
882.802	57.24
882.968	45.35
883.134	48.26
883.3	66.57
883.466	96.18
883.632	122.25
883.798	140.71
883.964	131.99
884.129	204.64
884.295	204.39
884.461	-216.91
884.627	1039.41
884.793	147.14
884.958	211.48
885.124	1045.54
885.29	-211.26
885.455	-133.59
885.621	-26.47
885.787	-49.39
885.952	-96.09
886.118	-6.92
886.283	46.62
886.449	-95.94
886.614	-20.21
886.78	34.41
886.945	38.87
887.111	33.97
887.276	33.73
887.442	69.13
887.607	54.65
887.773	71.98
887.938	-23.44
888.103	78.9
888.269	-434.88
888.434	12847.06
888.599	-260.12
888.764	163.11
888.93	27.78
889.095	65.97
889.26	60.12
889.425	146.75
889.59	100.17
889.756	118.66
889.921	82.13
890.086	138.83
890.251	102.81
890.416	67.87
890.581	16.81
890.746	171.1
890.911	209.81
891.076	330.12
891.241	184.11
891.406	20057.14
891.571	272.14
891.736	131.49
891.901	191.17
892.065	34.09
892.23	-45.69
892.395	-74.17
892.56	289.93
892.725	64.77
892.889	-202.28
893.054	-1676.82
893.219	-3012.95
893.384	-453.26
893.548	-555.31
893.713	-323.55
893.878	-345.55
