Data from Ofav_SP_Phys_2AZ7_Reflection_2.txt Node
Date: Thu Aug 05 17:44:36 EDT 2021
User: Adam
Spectrometer: FLMT01687
Trigger mode: 0
Integration Time (sec): 8.000000E-1
Scans to average: 2
Electric dark correction enabled: true
Nonlinearity correction enabled: false
Boxcar width: 2
XAxis mode: Wavelengths
Number of Pixels in Spectrum: 3648
>>>>>Begin Spectral Data<<<<<
179.494	300.83
179.716	332.88
179.937	288.63
180.158	341.47
180.38	948.28
180.601	-446.97
180.823	-293.11
181.044	-105.03
181.265	-73.38
181.486	-9.37
181.708	-238.93
181.929	-268.71
182.15	-556.73
182.372	-15.05
182.593	-32.29
182.814	-271.02
183.035	-53.24
183.257	52.67
183.478	136.95
183.699	438.91
183.92	188.88
184.141	-733.63
184.363	832.43
184.584	-79.11
184.805	97.17
185.026	52.14
185.247	62.37
185.468	77.57
185.689	80.83
185.91	32
186.132	-5.79
186.353	-1.52
186.574	-96.07
186.795	-97.91
187.016	-108.35
187.237	-62.3
187.458	-336.52
187.679	-57.44
187.9	-27.22
188.121	22.78
188.342	8.51
188.563	10.66
188.784	-3.57
189.005	-49.36
189.226	-48.24
189.447	-29.08
189.667	-57.03
189.888	-77.1
190.109	25.74
190.33	50.83
190.551	72.41
190.772	73.87
190.993	48.18
191.214	31.11
191.434	38.15
191.655	18.6
191.876	25.18
192.097	24.5
192.318	17.72
192.538	2.27
192.759	15.96
192.98	-5.6
193.201	-45.73
193.421	26.57
193.642	12.86
193.863	-1.05
194.083	16.95
194.304	24.54
194.525	4.17
194.745	11.15
194.966	36.48
195.187	49.85
195.407	42.61
195.628	36.56
195.848	22.97
196.069	14.63
196.29	-13.84
196.51	21.33
196.731	20.26
196.951	28.67
197.172	33.6
197.392	23.89
197.613	7.81
197.833	51.82
198.054	-8.77
198.274	-28.46
198.495	-17.44
198.715	16.33
198.936	-46.24
199.156	12.66
199.377	-3.57
199.597	7.68
199.817	-14.31
200.038	-5.85
200.258	14.6
200.479	21.72
200.699	26.56
200.919	28.35
201.14	25.55
201.36	-0.86
201.58	12.44
201.801	-68.93
202.021	-53.99
202.241	-5.06
202.461	-12.81
202.682	-9.44
202.902	6.9
203.122	53.57
203.342	81.62
203.563	27.58
203.783	20.09
204.003	56.31
204.223	33.8
204.443	23.01
204.663	44.94
204.884	51.66
205.104	33.85
205.324	60.57
205.544	53.35
205.764	28.93
205.984	17.88
206.204	27.53
206.424	-0.75
206.644	-24.02
206.864	-22.72
207.084	-49.48
207.304	-28.06
207.525	-73.69
207.745	-8.94
207.964	-4.01
208.184	20.97
208.404	-37.55
208.624	-32.02
208.844	-81.24
209.064	-29.22
209.284	-2.64
209.504	5.05
209.724	8.32
209.944	-4.19
210.164	-19.59
210.384	-1.53
210.604	4.75
210.823	28.5
211.043	34.1
211.263	40.16
211.483	32.34
211.703	51.5
211.922	56.16
212.142	66.09
212.362	37.16
212.582	68.02
212.801	62.85
213.021	35.02
213.241	6.84
213.461	-9.06
213.68	-10.29
213.9	-25.4
214.12	-42.4
214.339	2.11
214.559	36.25
214.779	21.04
214.998	22.46
215.218	43.84
215.438	50.67
215.657	80.57
215.877	39.64
216.096	-4.61
216.316	-1.45
216.535	-50.63
216.755	-110.13
216.974	-69.1
217.194	119.84
217.413	63.89
217.633	73.33
217.852	64.43
218.072	49.97
218.291	37.57
218.511	64.07
218.73	41.16
218.95	67.59
219.169	56.13
219.389	53.03
219.608	-2.21
219.827	11.28
220.047	8.22
220.266	10.67
220.485	-7.21
220.705	-1.21
220.924	-33.38
221.143	-35.66
221.363	-31.68
221.582	-61.04
221.801	-82.69
222.021	-17.61
222.24	-13.47
222.459	-42.99
222.678	6.61
222.897	-17.99
223.117	-38.24
223.336	-45.31
223.555	-14.95
223.774	-38.28
223.993	0.26
224.213	10.97
224.432	35.15
224.651	24.24
224.87	16.46
225.089	8.88
225.308	-11.27
225.527	-22.15
225.746	-54.19
225.965	-2.21
226.184	14.05
226.404	26.72
226.623	11.88
226.842	24.36
227.061	26.54
227.28	17.46
227.499	4.68
227.718	6.06
227.936	12.2
228.155	0.19
228.374	0.15
228.593	21.45
228.812	26.8
229.031	11.63
229.25	6.98
229.469	18.37
229.688	19.43
229.907	4.85
230.125	-5.54
230.344	6.8
230.563	11.18
230.782	-52.23
231.001	24.58
231.22	96
231.438	74.49
231.657	48.9
231.876	50.68
232.095	34.43
232.313	-2.45
232.532	-22.64
232.751	-20.37
232.969	-9.16
233.188	-27.89
233.407	-38.36
233.625	-17.48
233.844	-61.5
234.063	-50.34
234.281	-6.02
234.5	14.84
234.719	7.41
234.937	-12.13
235.156	4.93
235.374	-12.44
235.593	-51.77
235.811	-54.41
236.03	-21.51
236.249	-20.23
236.467	-46.25
236.686	-30.74
236.904	-8.29
237.123	-9.27
237.341	6.96
237.559	9.39
237.778	-3.76
237.996	15.69
238.215	18.19
238.433	20.4
238.652	22.36
238.87	24.76
239.088	6.4
239.307	21.93
239.525	11.84
239.743	20.44
239.962	53.3
240.18	62.85
240.398	27.15
240.617	41.25
240.835	29.49
241.053	6.4
241.271	-0.94
241.49	21.9
241.708	-20.41
241.926	-7.53
242.144	-27.3
242.363	-17.61
242.581	-20.66
242.799	7.65
243.017	16.36
243.235	-7.81
243.453	6.68
243.672	-6.15
243.89	-20.94
244.108	-64.45
244.326	-11.05
244.544	-30.24
244.762	-1.96
244.98	22.79
245.198	53.12
245.416	37.39
245.634	47.21
245.852	48.72
246.07	45.32
246.288	11.34
246.506	-5.98
246.724	-10.43
246.942	-24.63
247.16	-48.99
247.378	-92.02
247.596	-36.25
247.814	-20.63
248.032	-14.78
248.25	-24.64
248.468	-2.53
248.685	1.96
248.903	17.38
249.121	33.84
249.339	42.32
249.557	28.44
249.775	43.36
249.992	17.11
250.21	23.97
250.428	-0.46
250.646	15.64
250.863	17.28
251.081	24.67
251.299	9.58
251.517	50.11
251.734	59.26
251.952	54.54
252.17	46.52
252.387	20.96
252.605	5.79
252.823	-11.22
253.04	-13.27
253.258	4.04
253.475	23.66
253.693	10.65
253.911	31.54
254.128	40.46
254.346	36.55
254.563	35.83
254.781	49.15
254.998	40.81
255.216	15.61
255.433	-8.73
255.651	-35.2
255.868	-62.79
256.086	-54.87
256.303	-7.47
256.521	-21.86
256.738	-64.48
256.956	-116.66
257.173	-2.61
257.39	26.45
257.608	20.55
257.825	25.46
258.043	26.47
258.26	13.43
258.477	-1.19
258.695	17.22
258.912	36.21
259.129	52.4
259.346	56.69
259.564	47.43
259.781	44.14
259.998	31.15
260.216	32.14
260.433	42.09
260.65	29.62
260.867	-11.48
261.084	-0.11
261.302	-17.31
261.519	-37.01
261.736	1.58
261.953	25.54
262.17	19.07
262.387	53.19
262.604	51.51
262.822	31.22
263.039	-4.61
263.256	55.09
263.473	3.3
263.69	24.35
263.907	42.82
264.124	43.46
264.341	-3.41
264.558	-1.17
264.775	-28.44
264.992	-20.55
265.209	8.88
265.426	11.93
265.643	-0.86
265.86	-1.81
266.077	-6.26
266.294	-36.42
266.51	-38.04
266.727	-7.11
266.944	9.33
267.161	1.57
267.378	-0.69
267.595	20.16
267.812	-20.05
268.028	-20.12
268.245	7.39
268.462	6.69
268.679	2.62
268.896	45.25
269.112	40.29
269.329	48.23
269.546	51.34
269.763	50.86
269.979	57.63
270.196	73.57
270.413	62.63
270.629	70.9
270.846	74.81
271.063	43.47
271.279	19.5
271.496	-32.18
271.712	-70.88
271.929	-97.93
272.146	-48.81
272.362	-62.9
272.579	-36.85
272.795	-31.03
273.012	-8.98
273.228	-29.57
273.445	-1.19
273.661	9.65
273.878	4.86
274.094	6.77
274.311	0.15
274.527	-9.58
274.744	-11.2
274.96	8.23
275.177	8.05
275.393	11.69
275.609	-0.07
275.826	-5.88
276.042	-12.92
276.259	-9.92
276.475	7.05
276.691	0.27
276.908	2.22
277.124	21.04
277.34	13.17
277.557	-17.53
277.773	-15.25
277.989	6.21
278.205	-6.83
278.422	3.25
278.638	56.61
278.854	76.49
279.07	51.29
279.286	46.47
279.503	40.37
279.719	-1.3
279.935	-10.06
280.151	21.01
280.367	26.63
280.583	28.3
280.799	33.49
281.016	10.07
281.232	13.93
281.448	2.47
281.664	15.12
281.88	19.22
282.096	58.95
282.312	21.04
282.528	31.41
282.744	36.1
282.96	40.12
283.176	26.06
283.392	33.83
283.608	27.49
283.824	15.13
284.04	-6.09
284.256	7.24
284.471	10.98
284.687	20.7
284.903	23.27
285.119	30.51
285.335	14.66
285.551	5.02
285.767	5.85
285.982	15.37
286.198	-0.19
286.414	-7.89
286.63	-26.09
286.846	-32.13
287.061	-16.35
287.277	9.14
287.493	19.19
287.709	41.8
287.924	43.99
288.14	43.41
288.356	45.02
288.571	44.53
288.787	38.63
289.003	24.59
289.218	17.99
289.434	-20.47
289.65	-21.25
289.865	-8.8
290.081	5.86
290.296	4.62
290.512	4.6
290.727	3.5
290.943	7.34
291.159	9.26
291.374	22.36
291.59	17.29
291.805	18.88
292.021	36.14
292.236	12.14
292.451	-20.99
292.667	-24.72
292.882	-27.04
293.098	-42.84
293.313	-8.54
293.529	-20.33
293.744	-3.07
293.959	-11.38
294.175	10.53
294.39	-7.02
294.605	-18.53
294.821	-17.48
295.036	-5.63
295.251	-6.09
295.467	19.73
295.682	31.29
295.897	42.14
296.112	35.93
296.328	30.17
296.543	15.34
296.758	20.86
296.973	7.64
297.188	38.54
297.404	34.37
297.619	30.62
297.834	14.76
298.049	-8.84
298.264	-43.84
298.479	-65.09
298.694	-58.76
298.909	-22.72
299.125	20.85
299.34	23.29
299.555	29.81
299.77	45.98
299.985	45.96
300.2	36.34
300.415	35.63
300.63	23.06
300.845	3.4
301.06	-8.88
301.275	-28.8
301.49	-26.86
301.704	-75.52
301.919	-6.36
302.134	12.26
302.349	17.09
302.564	14.24
302.779	12.27
302.994	2.86
303.209	14.26
303.423	1.18
303.638	6.03
303.853	33.15
304.068	24.05
304.283	19.19
304.497	15.6
304.712	-4.79
304.927	-11.34
305.142	-23.95
305.356	-25.52
305.571	2.82
305.786	13.85
306	14.57
306.215	29.53
306.43	32.35
306.644	39.53
306.859	36
307.074	24.38
307.288	2.77
307.503	5.94
307.717	-15.95
307.932	-22.22
308.147	-17.52
308.361	1.18
308.576	-5.19
308.79	-11.52
309.005	12.56
309.219	1.91
309.434	-38.7
309.648	-67.3
309.863	-53.08
310.077	-91.91
310.292	-88.51
310.506	-43.53
310.72	-8.44
310.935	-4.55
311.149	16.47
311.364	42.45
311.578	42.18
311.792	56.79
312.007	51.76
312.221	24.76
312.435	34.96
312.649	33.52
312.864	8.32
313.078	24.32
313.292	46.24
313.507	43.55
313.721	45.9
313.935	42.6
314.149	12.57
314.363	2.32
314.578	14.31
314.792	-6.44
315.006	-21.34
315.22	2.09
315.434	-31.14
315.648	-119.74
315.862	-101.04
316.077	-66.93
316.291	-80.89
316.505	-29.5
316.719	1.13
316.933	19.23
317.147	10.92
317.361	21.67
317.575	17.09
317.789	9.67
318.003	-12.26
318.217	15.87
318.431	21.33
318.645	24.66
318.859	16.01
319.073	-0.73
319.287	-18.74
319.5	-18.86
319.714	-1.26
319.928	14.35
320.142	27.78
320.356	27.07
320.57	15.8
320.784	-3.14
320.997	-41
321.211	-18.64
321.425	-41.72
321.639	-46.53
321.853	-47.48
322.066	-23.3
322.28	-24.52
322.494	-27
322.707	-15.83
322.921	-6.16
323.135	0.78
323.349	4.06
323.562	12.18
323.776	32.88
323.989	11.48
324.203	-0.65
324.417	10.17
324.63	4.27
324.844	-11.89
325.057	11.85
325.271	-17.3
325.485	-23.18
325.698	-26.29
325.912	-38.53
326.125	-25.29
326.339	10.05
326.552	13.7
326.766	3.14
326.979	32.77
327.193	33.42
327.406	11.04
327.619	-5.04
327.833	-3.13
328.046	-18.52
328.26	-49.7
328.473	-73.81
328.686	-57.74
328.9	-43.24
329.113	-30.92
329.326	-23.3
329.54	19.27
329.753	36.1
329.966	41.06
330.179	39.6
330.393	48.38
330.606	31.25
330.819	12.89
331.032	7.9
331.246	41.86
331.459	18.08
331.672	31.48
331.885	39.05
332.098	36.11
332.311	16.56
332.525	8.92
332.738	-0.58
332.951	3.87
333.164	5.15
333.377	13.18
333.59	23.25
333.803	9.19
334.016	-5.45
334.229	9.72
334.442	-5.83
334.655	16.3
334.868	34.1
335.081	43.14
335.294	34.26
335.507	45.21
335.72	51.26
335.933	45.84
336.146	52.6
336.359	53.63
336.572	56.17
336.785	41.5
336.997	49.23
337.21	60.08
337.423	62.1
337.636	68.19
337.849	65.62
338.062	25.07
338.274	-28.54
338.487	-34.05
338.7	-32.19
338.913	-39.84
339.125	2.96
339.338	6.02
339.551	15.36
339.763	26.74
339.976	35.49
340.189	28.7
340.402	31.95
340.614	18.45
340.827	20.3
341.039	0.98
341.252	-1.13
341.465	-4.46
341.677	-6.05
341.89	-21.34
342.102	13.23
342.315	-10.31
342.527	21.65
342.74	16.34
342.952	20.9
343.165	-0.1
343.377	50.57
343.59	29.52
343.802	35.79
344.015	9.92
344.227	0.58
344.44	-3.13
344.652	10.91
344.864	17.19
345.077	31.57
345.289	15.96
345.502	11.03
345.714	3.03
345.926	-2.71
346.139	-1.14
346.351	20.12
346.563	8.83
346.775	10.05
346.988	-15.88
347.2	-18.3
347.412	-32.01
347.624	-4.01
347.837	-0.09
348.049	27.26
348.261	16.21
348.473	26.91
348.685	23.66
348.897	30.34
349.11	32.92
349.322	37.45
349.534	12.12
349.746	20.1
349.958	-4.68
350.17	0.85
350.382	0.66
350.594	-14.91
350.806	-20.19
351.018	10.8
351.23	17.54
351.442	18.1
351.654	14.89
351.866	19.42
352.078	6.87
352.29	-17.2
352.502	-5.45
352.714	-16.68
352.926	4.45
353.138	7.68
353.35	19.47
353.561	8.73
353.773	24.83
353.985	8.37
354.197	13.42
354.409	2.54
354.621	4.32
354.832	12.54
355.044	10.61
355.256	10.77
355.468	25.36
355.679	43.06
355.891	47.47
356.103	37.03
356.314	34.18
356.526	23.91
356.738	-0.64
356.949	-41.23
357.161	-2.32
357.373	-3.81
357.584	1.89
357.796	20.44
358.008	30.04
358.219	21.99
358.431	27.73
358.642	25.19
358.854	37.27
359.065	46.68
359.277	45.18
359.488	24.04
359.7	36.2
359.911	21.05
360.123	14.8
360.334	5.9
360.546	10.7
360.757	-0.75
360.969	5.16
361.18	-2.18
361.391	1.43
361.603	21.62
361.814	11.17
362.025	12.73
362.237	32.72
362.448	34.96
362.659	32.55
362.871	26.53
363.082	7.81
363.293	-28.38
363.504	-50.44
363.716	-54.17
363.927	-33.89
364.138	-33.7
364.349	-24.5
364.56	-9.69
364.772	-0.06
364.983	5.82
365.194	5.07
365.405	12.84
365.616	7.23
365.827	3.43
366.038	14.79
366.25	23.64
366.461	20.05
366.672	23.75
366.883	16.63
367.094	8.1
367.305	6.81
367.516	14.84
367.727	18.4
367.938	24.07
368.149	18.59
368.36	-2.75
368.571	-24.76
368.781	-69.01
368.992	-85.85
369.203	-43.75
369.414	-22.64
369.625	-19.61
369.836	-12.55
370.047	-2.91
370.258	-7.77
370.468	-0.19
370.679	6.72
370.89	13.56
371.101	-0.56
371.312	4.09
371.522	-5.2
371.733	-10.72
371.944	-14.05
372.155	5.86
372.365	0.47
372.576	10.09
372.787	5.11
372.997	3.95
373.208	2.54
373.419	5.43
373.629	9.13
373.84	11.63
374.05	17.41
374.261	21.58
374.472	17.51
374.682	1.94
374.893	9.96
375.103	2.86
375.314	5.77
375.524	2.16
375.735	10.01
375.945	22.15
376.156	27.22
376.366	22.28
376.577	27.46
376.787	18.59
376.997	2.71
377.208	2.05
377.418	8.15
377.629	11.18
377.839	27.29
378.049	38.32
378.26	39.37
378.47	36.42
378.68	31.53
378.89	20.33
379.101	7.28
379.311	7.5
379.521	11.45
379.732	21.37
379.942	28.24
380.152	28.06
380.362	27.3
380.572	18.93
380.783	4.43
380.993	4.95
381.203	12.43
381.413	13.6
381.623	16.39
381.833	27.21
382.043	26.8
382.253	26.24
382.463	30.27
382.674	31.78
382.884	31.04
383.094	25.29
383.304	23.36
383.514	25.53
383.724	24.79
383.934	25.11
384.144	21.52
384.353	18.41
384.563	12.42
384.773	13.66
384.983	8.05
385.193	7.14
385.403	10.95
385.613	10.25
385.823	7.91
386.033	-2.51
386.242	3.8
386.452	1.91
386.662	6.52
386.872	8.67
387.082	18.35
387.291	12.77
387.501	10.47
387.711	7.77
387.921	7.38
388.13	4.94
388.34	8.67
388.55	7.94
388.759	5.37
388.969	1.37
389.179	1.13
389.388	2.22
389.598	5.18
389.807	8.28
390.017	12.06
390.227	11.98
390.436	9.87
390.646	6.92
390.855	4.11
391.065	3.23
391.274	3.97
391.484	7.74
391.693	8.92
391.903	10.09
392.112	11.34
392.322	9.51
392.531	6.14
392.74	5.89
392.95	4.92
393.159	3.51
393.369	4.96
393.578	6.84
393.787	6.67
393.997	7.06
394.206	6.15
394.415	5.73
394.625	5.81
394.834	5.77
395.043	6.16
395.252	7.93
395.462	7.87
395.671	7.66
395.88	8.18
396.089	7.69
396.298	7.27
396.508	7.37
396.717	6.3
396.926	5.8
397.135	5.41
397.344	5.03
397.553	5.23
397.762	6.14
397.971	6.25
398.181	6.7
398.39	6.82
398.599	6.68
398.808	6.28
399.017	6.35
399.226	6.49
399.435	6.84
399.644	7.13
399.853	7.36
400.062	7.14
400.27	7.09
400.479	6.89
400.688	6.76
400.897	6.68
401.106	6.57
401.315	6.26
401.524	6.18
401.733	5.9
401.941	5.87
402.15	6.05
402.359	6.16
402.568	6.09
402.777	6.46
402.985	6.56
403.194	6.48
403.403	6.56
403.612	6.58
403.82	6.27
404.029	6.03
404.238	6.27
404.446	6.19
404.655	6.19
404.864	6.27
405.072	6.25
405.281	6.12
405.489	6.37
405.698	6.46
405.906	6.4
406.115	6.23
406.324	6.1
406.532	5.86
406.741	5.69
406.949	5.65
407.158	5.97
407.366	5.97
407.574	6.09
407.783	6.1
407.991	6.05
408.2	5.94
408.408	6.04
408.617	6.05
408.825	6.14
409.033	6.14
409.242	6.13
409.45	5.98
409.658	5.81
409.867	5.75
410.075	5.77
410.283	5.82
410.491	5.95
410.7	6.08
410.908	6.07
411.116	6.18
411.324	6.1
411.533	5.94
411.741	5.9
411.949	5.93
412.157	5.8
412.365	5.91
412.573	6.02
412.781	6.04
412.99	5.99
413.198	6.13
413.406	6.15
413.614	6.13
413.822	6.1
414.03	6.15
414.238	5.95
414.446	5.88
414.654	5.91
414.862	5.87
415.07	5.85
415.278	5.94
415.486	5.83
415.694	5.94
415.902	5.78
416.109	5.65
416.317	5.63
416.525	5.7
416.733	5.48
416.941	5.76
417.149	5.87
417.357	5.89
417.564	5.79
417.772	5.75
417.98	5.56
418.188	5.48
418.395	5.35
418.603	5.4
418.811	5.24
419.019	5.45
419.226	5.4
419.434	5.57
419.642	5.58
419.849	5.91
420.057	5.67
420.265	5.75
420.472	5.4
420.68	5.24
420.887	5.04
421.095	5.14
421.302	5.04
421.51	5.24
421.717	5.42
421.925	5.56
422.132	5.56
422.34	5.58
422.547	5.66
422.755	5.64
422.962	5.61
423.17	5.56
423.377	5.33
423.585	5.3
423.792	5
423.999	4.89
424.207	4.72
424.414	4.65
424.621	4.67
424.829	4.8
425.036	4.8
425.243	5
425.451	5.43
425.658	5.39
425.865	5.35
426.072	5.32
426.28	5.21
426.487	4.97
426.694	4.94
426.901	5.12
427.108	5.33
427.315	5.33
427.523	5.47
427.73	5.56
427.937	5.5
428.144	5.34
428.351	5.58
428.558	5.48
428.765	5.26
428.972	5.32
429.179	5.36
429.386	5.09
429.593	5.19
429.8	5.33
430.007	5.11
430.214	4.98
430.421	5.19
430.628	5.06
430.835	5.14
431.042	5.22
431.249	5.3
431.456	5.22
431.662	5.41
431.869	5.35
432.076	5.41
432.283	5.5
432.49	5.5
432.697	5.48
432.903	5.45
433.11	5.37
433.317	5.25
433.524	5.31
433.73	5.39
433.937	5.32
434.144	5.38
434.35	5.42
434.557	5.3
434.764	5.13
434.97	5.09
435.177	5.12
435.384	4.96
435.59	4.97
435.797	5.03
436.003	5.15
436.21	5.06
436.416	5.17
436.623	5.14
436.829	5.04
437.036	4.97
437.242	4.96
437.449	5.02
437.655	5.13
437.862	5.21
438.068	5.41
438.275	5.54
438.481	5.53
438.687	5.46
438.894	5.49
439.1	5.32
439.307	5.31
439.513	5.3
439.719	5.3
439.926	5.23
440.132	5.32
440.338	5.34
440.544	5.29
440.751	5.36
440.957	5.33
441.163	5.24
441.369	5.16
441.575	5.17
441.782	5.21
441.988	5.21
442.194	5.16
442.4	5.19
442.606	5.22
442.812	5.14
443.018	5.12
443.224	5.2
443.431	5.18
443.637	5.08
443.843	5.1
444.049	5.09
444.255	5.1
444.461	5.05
444.667	5.09
444.873	5.04
445.079	4.97
445.284	5.04
445.49	5.07
445.696	5.16
445.902	5.23
446.108	5.31
446.314	5.08
446.52	5.09
446.726	5.06
446.931	5.03
447.137	5.1
447.343	5.17
447.549	5.21
447.755	5.28
447.96	5.25
448.166	5.19
448.372	5.27
448.578	5.29
448.783	5.33
448.989	5.26
449.195	5.3
449.4	5.32
449.606	5.3
449.812	5.17
450.017	5.28
450.223	5.25
450.428	5.26
450.634	5.26
450.84	5.28
451.045	5.24
451.251	5.26
451.456	5.3
451.662	5.29
451.867	5.3
452.073	5.34
452.278	5.37
452.483	5.27
452.689	5.28
452.894	5.3
453.1	5.22
453.305	5.15
453.51	5.19
453.716	5.22
453.921	5.3
454.127	5.43
454.332	5.45
454.537	5.53
454.742	5.51
454.948	5.35
455.153	5.36
455.358	5.41
455.563	5.38
455.769	5.33
455.974	5.46
456.179	5.41
456.384	5.27
456.589	5.28
456.795	5.43
457	5.39
457.205	5.44
457.41	5.53
457.615	5.56
457.82	5.48
458.025	5.41
458.23	5.37
458.435	5.29
458.64	5.15
458.845	5.27
459.05	5.29
459.255	5.25
459.46	5.35
459.665	5.49
459.87	5.37
460.075	5.49
460.28	5.58
460.485	5.58
460.69	5.5
460.895	5.49
461.099	5.45
461.304	5.46
461.509	5.44
461.714	5.61
461.919	5.62
462.123	5.64
462.328	5.6
462.533	5.64
462.738	5.53
462.942	5.57
463.147	5.59
463.352	5.69
463.556	5.7
463.761	5.66
463.966	5.69
464.17	5.67
464.375	5.66
464.58	5.64
464.784	5.76
464.989	5.78
465.193	5.69
465.398	5.73
465.602	5.87
465.807	5.94
466.011	5.97
466.216	6.07
466.42	6.09
466.625	6.17
466.829	6.15
467.034	6.07
467.238	6.05
467.443	6
467.647	5.78
467.851	5.68
468.056	5.72
468.26	5.7
468.464	5.58
468.669	5.67
468.873	5.7
469.077	5.65
469.282	5.72
469.486	5.76
469.69	5.7
469.894	5.69
470.099	5.78
470.303	5.73
470.507	5.79
470.711	5.82
470.915	5.82
471.119	5.82
471.324	5.88
471.528	5.85
471.732	5.93
471.936	5.89
472.14	5.84
472.344	5.72
472.548	5.75
472.752	5.66
472.956	5.74
473.16	5.76
473.364	5.86
473.568	5.81
473.772	5.83
473.976	5.78
474.18	5.75
474.384	5.79
474.588	5.9
474.792	5.87
474.995	5.85
475.199	5.79
475.403	5.68
475.607	5.61
475.811	5.56
476.015	5.56
476.218	5.57
476.422	5.54
476.626	5.63
476.83	5.62
477.033	5.69
477.237	5.87
477.441	5.95
477.644	5.89
477.848	6
478.052	5.95
478.255	5.85
478.459	5.88
478.663	5.82
478.866	5.72
479.07	5.77
479.273	5.7
479.477	5.69
479.681	5.73
479.884	5.76
480.088	5.73
480.291	5.86
480.495	5.81
480.698	5.83
480.901	5.84
481.105	5.84
481.308	5.77
481.512	5.83
481.715	5.83
481.919	5.83
482.122	5.87
482.325	5.9
482.529	5.86
482.732	5.87
482.935	5.86
483.138	5.89
483.342	5.82
483.545	5.92
483.748	5.89
483.952	5.88
484.155	5.89
484.358	5.94
484.561	5.86
484.764	5.88
484.967	5.91
485.171	5.77
485.374	5.72
485.577	5.68
485.78	5.7
485.983	5.71
486.186	5.83
486.389	5.91
486.592	5.9
486.795	5.87
486.998	5.83
487.201	5.84
487.404	5.76
487.607	5.87
487.81	5.84
488.013	5.84
488.216	5.84
488.419	5.88
488.622	5.81
488.825	5.88
489.028	5.87
489.231	5.92
489.433	5.96
489.636	6.04
489.839	6.01
490.042	6.04
490.245	6.06
490.447	6.03
490.65	5.98
490.853	6.1
491.056	6.17
491.258	6.08
491.461	6.14
491.664	6.03
491.866	5.96
492.069	6.01
492.272	6.04
492.474	6.06
492.677	6.21
492.879	6.14
493.082	6.15
493.285	6.16
493.487	6.21
493.69	6.21
493.892	6.32
494.095	6.31
494.297	6.42
494.5	6.44
494.702	6.53
494.905	6.5
495.107	6.49
495.309	6.43
495.512	6.41
495.714	6.41
495.917	6.48
496.119	6.56
496.321	6.57
496.524	6.6
496.726	6.66
496.928	6.77
497.13	6.81
497.333	6.87
497.535	7.07
497.737	7.12
497.939	7.13
498.142	7.1
498.344	7.15
498.546	7.08
498.748	7.05
498.95	7.11
499.152	7.08
499.355	7.12
499.557	7.18
499.759	7.23
499.961	7.24
500.163	7.28
500.365	7.35
500.567	7.33
500.769	7.34
500.971	7.32
501.173	7.46
501.375	7.39
501.577	7.45
501.779	7.5
501.981	7.59
502.183	7.59
502.385	7.59
502.587	7.59
502.788	7.54
502.99	7.42
503.192	7.42
503.394	7.47
503.596	7.43
503.798	7.47
503.999	7.56
504.201	7.54
504.403	7.6
504.605	7.63
504.806	7.62
505.008	7.63
505.21	7.58
505.411	7.47
505.613	7.47
505.815	7.47
506.016	7.41
506.218	7.48
506.42	7.51
506.621	7.5
506.823	7.46
507.024	7.43
507.226	7.4
507.427	7.35
507.629	7.3
507.83	7.32
508.032	7.38
508.233	7.37
508.435	7.37
508.636	7.33
508.838	7.3
509.039	7.2
509.24	7.18
509.442	7.22
509.643	7.24
509.845	7.25
510.046	7.28
510.247	7.28
510.448	7.25
510.65	7.19
510.851	7.17
511.052	7.16
511.254	7.06
511.455	7
511.656	6.95
511.857	6.91
512.058	6.88
512.26	6.93
512.461	6.93
512.662	7
512.863	6.97
513.064	7
513.265	6.97
513.466	6.95
513.667	6.98
513.868	6.98
514.069	6.93
514.27	6.86
514.471	6.83
514.672	6.72
514.873	6.62
515.074	6.57
515.275	6.63
515.476	6.64
515.677	6.59
515.878	6.69
516.079	6.69
516.28	6.7
516.481	6.69
516.682	6.74
516.882	6.68
517.083	6.68
517.284	6.62
517.485	6.55
517.686	6.52
517.886	6.51
518.087	6.45
518.288	6.52
518.488	6.54
518.689	6.58
518.89	6.58
519.091	6.58
519.291	6.46
519.492	6.51
519.692	6.47
519.893	6.52
520.094	6.49
520.294	6.57
520.495	6.54
520.695	6.53
520.896	6.46
521.096	6.52
521.297	6.5
521.497	6.48
521.698	6.51
521.898	6.49
522.099	6.49
522.299	6.45
522.499	6.46
522.7	6.41
522.9	6.43
523.101	6.38
523.301	6.42
523.501	6.39
523.702	6.4
523.902	6.38
524.102	6.38
524.302	6.32
524.503	6.25
524.703	6.23
524.903	6.3
525.103	6.33
525.304	6.26
525.504	6.4
525.704	6.42
525.904	6.35
526.104	6.34
526.304	6.43
526.504	6.34
526.705	6.3
526.905	6.36
527.105	6.38
527.305	6.4
527.505	6.39
527.705	6.43
527.905	6.42
528.105	6.4
528.305	6.38
528.505	6.42
528.705	6.41
528.905	6.34
529.105	6.34
529.304	6.27
529.504	6.29
529.704	6.3
529.904	6.34
530.104	6.32
530.304	6.39
530.503	6.36
530.703	6.34
530.903	6.33
531.103	6.36
531.303	6.35
531.502	6.34
531.702	6.24
531.902	6.28
532.101	6.29
532.301	6.26
532.501	6.3
532.7	6.38
532.9	6.39
533.1	6.36
533.299	6.42
533.499	6.41
533.698	6.42
533.898	6.39
534.097	6.39
534.297	6.38
534.496	6.37
534.696	6.41
534.895	6.42
535.095	6.38
535.294	6.41
535.494	6.37
535.693	6.35
535.892	6.35
536.092	6.4
536.291	6.41
536.491	6.47
536.69	6.45
536.889	6.42
537.088	6.42
537.288	6.35
537.487	6.33
537.686	6.31
537.886	6.39
538.085	6.41
538.284	6.46
538.483	6.48
538.682	6.6
538.882	6.56
539.081	6.53
539.28	6.51
539.479	6.48
539.678	6.44
539.877	6.45
540.076	6.49
540.275	6.5
540.474	6.48
540.673	6.48
540.872	6.4
541.071	6.41
541.27	6.44
541.469	6.46
541.668	6.48
541.867	6.59
542.066	6.59
542.265	6.63
542.464	6.67
542.663	6.68
542.862	6.66
543.06	6.64
543.259	6.62
543.458	6.64
543.657	6.69
543.856	6.73
544.054	6.79
544.253	6.8
544.452	6.76
544.651	6.73
544.849	6.73
545.048	6.7
545.247	6.75
545.445	6.82
545.644	6.82
545.843	6.88
546.041	6.89
546.24	6.89
546.438	6.92
546.637	6.92
546.836	6.89
547.034	6.95
547.233	6.99
547.431	6.96
547.63	7.03
547.828	7.08
548.027	7.06
548.225	7.05
548.423	7.09
548.622	7.03
548.82	6.98
549.019	6.94
549.217	6.99
549.415	6.99
549.614	7.05
549.812	7.06
550.01	7.15
550.209	7.15
550.407	7.21
550.605	7.22
550.803	7.26
551.002	7.3
551.2	7.35
551.398	7.41
551.596	7.48
551.794	7.59
551.993	7.64
552.191	7.62
552.389	7.58
552.587	7.63
552.785	7.61
552.983	7.65
553.181	7.7
553.379	7.82
553.577	7.87
553.775	7.93
553.973	7.9
554.171	7.94
554.369	7.91
554.567	7.99
554.765	8.02
554.963	8.09
555.161	8.13
555.359	8.2
555.557	8.12
555.755	8.08
555.952	8.12
556.15	8.17
556.348	8.22
556.546	8.26
556.744	8.33
556.941	8.33
557.139	8.37
557.337	8.38
557.535	8.45
557.732	8.55
557.93	8.71
558.128	8.76
558.325	8.81
558.523	8.82
558.721	8.85
558.918	8.82
559.116	8.85
559.313	8.86
559.511	9.04
559.708	9.15
559.906	9.26
560.104	9.34
560.301	9.46
560.498	9.41
560.696	9.41
560.893	9.45
561.091	9.48
561.288	9.55
561.486	9.68
561.683	9.73
561.88	9.68
562.078	9.73
562.275	9.76
562.473	9.79
562.67	9.87
562.867	10
563.064	10.06
563.262	10.08
563.459	10.17
563.656	10.16
563.853	10.18
564.051	10.28
564.248	10.42
564.445	10.4
564.642	10.47
564.839	10.57
565.036	10.64
565.234	10.58
565.431	10.7
565.628	10.72
565.825	10.74
566.022	10.79
566.219	10.92
566.416	10.9
566.613	11.06
566.81	11.18
567.007	11.21
567.204	11.27
567.401	11.37
567.598	11.36
567.795	11.37
567.991	11.41
568.188	11.44
568.385	11.39
568.582	11.45
568.779	11.46
568.976	11.61
569.172	11.67
569.369	11.83
569.566	11.91
569.763	11.92
569.96	11.9
570.156	11.91
570.353	11.9
570.55	11.94
570.746	11.95
570.943	11.93
571.14	11.94
571.336	12.07
571.533	12.04
571.729	12.15
571.926	12.22
572.123	12.25
572.319	12.29
572.516	12.32
572.712	12.47
572.909	12.52
573.105	12.54
573.302	12.49
573.498	12.51
573.695	12.37
573.891	12.37
574.087	12.39
574.284	12.42
574.48	12.44
574.677	12.54
574.873	12.57
575.069	12.62
575.266	12.6
575.462	12.63
575.658	12.6
575.854	12.63
576.051	12.56
576.247	12.57
576.443	12.64
576.639	12.69
576.835	12.58
577.032	12.61
577.228	12.64
577.424	12.65
577.62	12.56
577.816	12.59
578.012	12.61
578.208	12.55
578.404	12.52
578.6	12.59
578.796	12.6
578.993	12.62
579.189	12.7
579.384	12.65
579.58	12.66
579.776	12.61
579.972	12.52
580.168	12.45
580.364	12.42
580.56	12.36
580.756	12.33
580.952	12.4
581.148	12.42
581.343	12.47
581.539	12.5
581.735	12.48
581.931	12.49
582.127	12.44
582.322	12.38
582.518	12.37
582.714	12.42
582.909	12.39
583.105	12.45
583.301	12.43
583.496	12.39
583.692	12.37
583.888	12.3
584.083	12.21
584.279	12.18
584.474	12.19
584.67	12.14
584.866	12.14
585.061	12.19
585.257	12.19
585.452	12.1
585.648	12.2
585.843	12.23
586.039	12.17
586.234	12.21
586.429	12.25
586.625	12.2
586.82	12.13
587.015	12.13
587.211	12.07
587.406	12.05
587.601	12.09
587.797	12.11
587.992	12.05
588.187	12.09
588.383	12.13
588.578	12.13
588.773	12.17
588.968	12.27
589.163	12.28
589.359	12.2
589.554	12.1
589.749	12.03
589.944	12.02
590.139	11.98
590.334	12.09
590.529	12.16
590.724	12.29
590.919	12.32
591.114	12.4
591.309	12.32
591.504	12.32
591.699	12.3
591.894	12.29
592.089	12.25
592.284	12.3
592.479	12.37
592.674	12.28
592.869	12.32
593.064	12.44
593.259	12.5
593.454	12.45
593.648	12.63
593.843	12.54
594.038	12.52
594.233	12.55
594.428	12.56
594.622	12.52
594.817	12.62
595.012	12.62
595.206	12.79
595.401	12.89
595.596	12.9
595.79	12.92
595.985	12.94
596.18	12.93
596.374	12.89
596.569	12.95
596.763	13.07
596.958	13.26
597.153	13.24
597.347	13.37
597.542	13.38
597.736	13.34
597.931	13.23
598.125	13.33
598.319	13.33
598.514	13.41
598.708	13.51
598.903	13.57
599.097	13.58
599.291	13.69
599.486	13.84
599.68	13.85
599.874	13.87
600.069	13.8
600.263	13.73
600.457	13.67
600.651	13.62
600.846	13.74
601.04	13.75
601.234	13.79
601.428	13.82
601.622	13.84
601.817	13.76
602.011	13.84
602.205	13.91
602.399	13.85
602.593	13.87
602.787	13.88
602.981	13.95
603.175	13.9
603.369	14.01
603.563	14.06
603.757	14.06
603.951	13.94
604.145	13.91
604.339	13.89
604.533	13.79
604.727	13.84
604.921	13.87
605.115	13.84
605.309	13.77
605.502	13.89
605.696	13.84
605.89	13.75
606.084	13.78
606.278	13.73
606.471	13.58
606.665	13.55
606.859	13.58
607.053	13.49
607.246	13.5
607.44	13.48
607.634	13.4
607.827	13.41
608.021	13.29
608.214	13.21
608.408	13.2
608.602	13.23
608.795	13.15
608.989	13.1
609.182	13.11
609.376	13.06
609.569	12.91
609.763	12.8
609.956	12.86
610.15	12.65
610.343	12.49
610.537	12.46
610.73	12.41
610.923	12.33
611.117	12.33
611.31	12.3
611.504	12.26
611.697	12.33
611.89	12.27
612.083	12.29
612.277	12.28
612.47	12.27
612.663	12.05
612.856	11.95
613.05	11.85
613.243	11.75
613.436	11.65
613.629	11.67
613.822	11.73
614.015	11.66
614.209	11.67
614.402	11.62
614.595	11.57
614.788	11.46
614.981	11.44
615.174	11.34
615.367	11.26
615.56	11.21
615.753	11.19
615.946	11.12
616.139	11.11
616.332	11.08
616.525	11.03
616.718	11.01
616.911	10.98
617.103	10.95
617.296	10.95
617.489	11
617.682	10.99
617.875	10.99
618.067	10.91
618.26	10.86
618.453	10.77
618.646	10.64
618.838	10.54
619.031	10.49
619.224	10.45
619.417	10.49
619.609	10.51
619.802	10.56
619.994	10.58
620.187	10.58
620.38	10.46
620.572	10.42
620.765	10.41
620.957	10.35
621.15	10.32
621.342	10.27
621.535	10.28
621.727	10.16
621.92	10.18
622.112	10.18
622.305	10.2
622.497	10.14
622.69	10.17
622.882	10.16
623.074	10.13
623.267	10.12
623.459	10.12
623.651	10.07
623.844	10.02
624.036	10.04
624.228	10.05
624.42	10.01
624.613	10.04
624.805	10.02
624.997	10.04
625.189	9.96
625.381	9.94
625.574	9.96
625.766	9.95
625.958	9.86
626.15	9.9
626.342	9.82
626.534	9.77
626.726	9.7
626.918	9.61
627.11	9.51
627.302	9.53
627.494	9.48
627.686	9.54
627.878	9.6
628.07	9.65
628.262	9.63
628.454	9.54
628.646	9.5
628.838	9.54
629.029	9.46
629.221	9.43
629.413	9.51
629.605	9.47
629.797	9.35
629.989	9.41
630.18	9.43
630.372	9.29
630.564	9.27
630.755	9.26
630.947	9.16
631.139	9.1
631.33	9.13
631.522	9.18
631.714	9.12
631.905	9.08
632.097	9.08
632.289	9.05
632.48	8.92
632.672	8.92
632.863	8.86
633.055	8.86
633.246	8.9
633.438	8.9
633.629	8.89
633.821	8.93
634.012	8.91
634.203	8.93
634.395	8.99
634.586	9.07
634.777	9.1
634.969	9.07
635.16	9.02
635.351	9.02
635.543	8.96
635.734	8.95
635.925	8.95
636.117	8.98
636.308	8.98
636.499	8.96
636.69	8.85
636.881	8.88
637.073	8.84
637.264	8.81
637.455	8.74
637.646	8.84
637.837	8.75
638.028	8.68
638.219	8.64
638.41	8.69
638.601	8.67
638.792	8.72
638.983	8.72
639.174	8.71
639.365	8.65
639.556	8.57
639.747	8.6
639.938	8.65
640.129	8.67
640.32	8.65
640.511	8.67
640.701	8.57
640.892	8.62
641.083	8.59
641.274	8.64
641.465	8.62
641.655	8.72
641.846	8.66
642.037	8.64
642.228	8.54
642.418	8.51
642.609	8.44
642.8	8.32
642.99	8.26
643.181	8.27
643.372	8.27
643.562	8.27
643.753	8.34
643.943	8.38
644.134	8.43
644.324	8.38
644.515	8.37
644.705	8.33
644.896	8.33
645.086	8.21
645.277	8.29
645.467	8.32
645.658	8.35
645.848	8.23
646.038	8.32
646.229	8.32
646.419	8.27
646.61	8.25
646.8	8.33
646.99	8.31
647.18	8.25
647.371	8.15
647.561	8.09
647.751	7.98
647.941	7.98
648.132	8.02
648.322	8.08
648.512	8.1
648.702	8.24
648.892	8.15
649.082	8.1
649.272	8.11
649.462	8.06
649.653	7.97
649.843	8.02
650.033	8.11
650.223	8.02
650.413	8.03
650.603	8.14
650.793	8.14
650.983	7.99
651.172	8.04
651.362	7.98
651.552	7.83
651.742	7.76
651.932	7.78
652.122	7.79
652.312	7.78
652.502	7.8
652.691	7.81
652.881	7.82
653.071	7.79
653.261	7.78
653.45	7.71
653.64	7.75
653.83	7.65
654.019	7.62
654.209	7.6
654.399	7.6
654.588	7.46
654.778	7.41
654.968	7.29
655.157	7.29
655.347	7.22
655.536	7.15
655.726	7.06
655.915	7.05
656.105	6.88
656.294	6.83
656.484	6.82
656.673	6.82
656.863	6.77
657.052	6.82
657.241	6.73
657.431	6.74
657.62	6.65
657.809	6.52
657.999	6.5
658.188	6.42
658.377	6.34
658.567	6.28
658.756	6.23
658.945	6.11
659.134	6.09
659.324	6.03
659.513	6.01
659.702	6.01
659.891	6.03
660.08	5.93
660.269	5.83
660.458	5.8
660.648	5.78
660.837	5.58
661.026	5.49
661.215	5.42
661.404	5.33
661.593	5.23
661.782	5.17
661.971	5.29
662.16	5.24
662.349	5.23
662.538	5.21
662.726	5.26
662.915	5.06
663.104	5.07
663.293	4.98
663.482	4.99
663.671	5.06
663.86	5.17
664.048	5.14
664.237	5.21
664.426	5.18
664.615	5.08
664.803	5
664.992	4.96
665.181	4.86
665.369	4.84
665.558	4.83
665.747	4.87
665.935	4.99
666.124	5.1
666.312	5.07
666.501	5.24
666.69	5.34
666.878	5.3
667.067	5.28
667.255	5.42
667.444	5.47
667.632	5.48
667.82	5.62
668.009	5.58
668.197	5.62
668.386	5.38
668.574	5.3
668.762	5.32
668.951	5.52
669.139	5.4
669.327	5.44
669.516	5.55
669.704	5.47
669.892	5.4
670.08	5.43
670.269	5.5
670.457	5.49
670.645	5.48
670.833	5.52
671.021	5.65
671.21	5.78
671.398	5.85
671.586	5.88
671.774	5.87
671.962	5.96
672.15	6.05
672.338	6.09
672.526	6.17
672.714	6.37
672.902	6.26
673.09	6.19
673.278	6.23
673.466	6.33
673.654	6.47
673.842	6.62
674.03	6.8
674.218	6.77
674.405	6.8
674.593	6.68
674.781	6.75
674.969	6.75
675.157	6.95
675.344	6.95
675.532	7.09
675.72	7.09
675.908	7.14
676.095	7.16
676.283	7.33
676.471	7.33
676.658	7.27
676.846	7.26
677.033	7.33
677.221	7.33
677.409	7.26
677.596	7.41
677.784	7.38
677.971	7.41
678.159	7.45
678.346	7.54
678.534	7.59
678.721	7.67
678.909	7.73
679.096	7.75
679.283	7.75
679.471	7.79
679.658	7.9
679.846	7.82
680.033	7.98
680.22	8.28
680.408	8.27
680.595	8.36
680.782	8.44
680.969	8.4
681.157	8.3
681.344	8.54
681.531	8.6
681.718	8.72
681.905	8.79
682.093	8.79
682.28	8.84
682.467	8.86
682.654	8.86
682.841	8.88
683.028	8.88
683.215	9
683.402	9.13
683.589	9.27
683.776	9.33
683.963	9.42
684.15	9.35
684.337	9.27
684.524	9.46
684.711	9.6
684.898	9.83
685.085	9.96
685.271	10.19
685.458	10.19
685.645	10.22
685.832	10.21
686.019	10.2
686.205	10.35
686.392	10.39
686.579	10.57
686.766	10.79
686.952	11.07
687.139	11.17
687.326	11.42
687.512	11.5
687.699	11.56
687.886	11.72
688.072	11.79
688.259	11.78
688.445	12.28
688.632	12.44
688.818	12.62
689.005	12.88
689.191	13.47
689.378	13.54
689.564	14.08
689.751	14.45
689.937	14.74
690.124	14.83
690.31	15.25
690.496	15.54
690.683	15.84
690.869	16.14
691.055	16.63
691.242	16.79
691.428	16.94
691.614	17.24
691.8	17.72
691.987	18.14
692.173	18.68
692.359	19.2
692.545	19.67
692.731	20.22
692.918	20.63
693.104	21.24
693.29	21.71
693.476	22.37
693.662	22.99
693.848	23.62
694.034	24.05
694.22	24.86
694.406	25.19
694.592	25.63
694.778	26.09
694.964	26.9
695.15	27.36
695.336	27.91
695.522	28.6
695.708	29.4
695.894	29.78
696.08	30.48
696.265	31.34
696.451	31.95
696.637	32.31
696.823	33.24
697.009	33.53
697.194	34.09
697.38	34.74
697.566	35.53
697.751	36.16
697.937	36.91
698.123	37.67
698.308	38.27
698.494	38.72
698.68	39.06
698.865	39.72
699.051	40.28
699.236	40.92
699.422	41.71
699.607	42.25
699.793	43.03
699.978	43.71
700.164	44.34
700.349	45.16
700.535	45.77
700.72	46.3
700.906	46.75
701.091	47.11
701.276	47.46
701.462	48.07
701.647	48.92
701.832	49.36
702.018	50.21
702.203	50.93
702.388	51.76
702.573	52.09
702.759	53.08
702.944	53.63
703.129	54.04
703.314	54.57
703.499	55.06
703.684	55.67
703.87	55.95
704.055	56.32
704.24	57.34
704.425	57.94
704.61	58.5
704.795	59.11
704.98	59.68
705.165	59.19
705.35	59.54
705.535	59.56
705.72	60.18
705.905	60.38
706.09	61.09
706.275	61.46
706.459	61.96
706.644	62.23
706.829	62.99
707.014	63.63
707.199	64.54
707.384	64.77
707.568	65.19
707.753	65.57
707.938	65.7
708.123	65.48
708.307	66.1
708.492	66.13
708.677	66.52
708.861	66.95
709.046	67.52
709.231	67.43
709.415	67.89
709.6	67.89
709.784	68.07
709.969	68.3
710.153	68.67
710.338	69.21
710.522	69.87
710.707	70.28
710.891	70.18
711.076	70.9
711.26	70.89
711.445	71.19
711.629	71.39
711.813	72.05
711.998	71.93
712.182	72.21
712.366	72.1
712.551	72.2
712.735	72.5
712.919	72.84
713.103	73.5
713.288	74.15
713.472	74.12
713.656	74.37
713.84	74.22
714.024	74.37
714.208	74.07
714.393	74.17
714.577	74.38
714.761	74.7
714.945	74.95
715.129	75.07
715.313	75.78
715.497	76.1
715.681	76.28
715.865	76.06
716.049	76.56
716.233	76.56
716.417	76.46
716.601	76.95
716.785	77.26
716.968	77.47
717.152	78.06
717.336	78.72
717.52	79.09
717.704	79.17
717.888	79.01
718.071	79.27
718.255	78.9
718.439	78.81
718.622	79.04
718.806	79.32
718.99	78.93
719.174	79.11
719.357	79.01
719.541	79.53
719.724	79.45
719.908	79.22
720.092	79.19
720.275	79.64
720.459	79.72
720.642	79.99
720.826	80.49
721.009	81.04
721.193	80.59
721.376	80.4
721.559	80.44
721.743	80.62
721.926	81.18
722.11	81.73
722.293	81.89
722.476	82.69
722.66	83.64
722.843	83.12
723.026	83.37
723.21	83.44
723.393	83.03
723.576	82.49
723.759	82.56
723.942	82.91
724.126	82.95
724.309	83.17
724.492	83.54
724.675	83.94
724.858	83.69
725.041	84.17
725.224	84.31
725.407	84.76
725.59	85.09
725.774	85.86
725.957	86.02
726.14	86.42
726.322	86.22
726.505	86.29
726.688	86.14
726.871	86.49
727.054	86.97
727.237	87.35
727.42	87.39
727.603	87.55
727.786	87.79
727.968	87.34
728.151	87.18
728.334	87.07
728.517	86.93
728.699	86.62
728.882	87.14
729.065	87.02
729.248	87.34
729.43	87.25
729.613	87.58
729.796	87.77
729.978	88.75
730.161	89.09
730.343	90.42
730.526	89.85
730.708	89.5
730.891	88.42
731.073	88.48
731.256	87.81
731.438	88.31
731.621	88.75
731.803	89.75
731.986	89.99
732.168	90.04
732.35	90.1
732.533	90.99
732.715	91.16
732.898	90.84
733.08	91.84
733.262	92.48
733.444	91.8
733.627	92.22
733.809	92.41
733.991	91.68
734.173	91.81
734.355	91.33
734.538	90.42
734.72	91.2
734.902	91.99
735.084	91.76
735.266	92.33
735.448	93.67
735.63	93.65
735.812	93.36
735.994	92.85
736.176	92.98
736.358	92.92
736.54	93.28
736.722	92.69
736.904	94.54
737.086	94.71
737.268	94.37
737.45	94.56
737.632	95.44
737.814	94.93
737.995	95.55
738.177	95.93
738.359	94.65
738.541	94.32
738.723	94.31
738.904	93.45
739.086	93.45
739.268	94.31
739.449	95
739.631	95.32
739.813	97.01
739.994	96.9
740.176	97.52
740.358	97.63
740.539	97.82
740.721	96.64
740.902	97
741.084	96.52
741.265	96.28
741.447	95.4
741.628	95.5
741.81	95.02
741.991	95.03
742.172	95.24
742.354	96.12
742.535	95.78
742.717	95.54
742.898	96.5
743.079	96.42
743.261	97.04
743.442	98.29
743.623	98.41
743.804	97.42
743.986	96.95
744.167	95.01
744.348	94.57
744.529	95.68
744.71	95.69
744.891	96.76
745.073	97.62
745.254	98.17
745.435	97.62
745.616	97.84
745.797	97.75
745.978	98.05
746.159	97.82
746.34	98.31
746.521	98.27
746.702	99.26
746.883	99.37
747.064	98.46
747.245	98.07
747.426	97.41
747.606	96.52
747.787	95.62
747.968	96.92
748.149	96.31
748.33	96.57
748.51	95.22
748.691	95.3
748.872	93.61
749.053	93.95
749.233	94.15
749.414	94.94
749.595	96.11
749.775	96.26
749.956	96.32
750.137	95.37
750.317	94.28
750.498	93.03
750.678	94.63
750.859	95.62
751.04	95.84
751.22	96.57
751.4	97.26
751.581	96.03
751.761	94.23
751.942	95.23
752.122	94.49
752.303	94.41
752.483	94.1
752.663	95.14
752.844	94.44
753.024	95.72
753.204	95.5
753.385	94.54
753.565	94.59
753.745	95.71
753.925	96.33
754.106	96.55
754.286	97.1
754.466	96.47
754.646	94.86
754.826	93.59
755.006	94.27
755.187	95.32
755.367	95.99
755.547	96.47
755.727	96.37
755.907	95.42
756.087	95.83
756.267	96.35
756.447	95.81
756.627	95.39
756.807	96.4
756.987	95.7
757.167	95.48
757.346	96.23
757.526	96.96
757.706	95.78
757.886	95.76
758.066	95.2
758.246	96.02
758.425	95.69
758.605	95.85
758.785	95.87
758.965	96.94
759.144	97.06
759.324	97.57
759.504	98.36
759.683	98.77
759.863	97.66
760.043	97.82
760.222	98.48
760.402	97.39
760.581	98.32
760.761	97.93
760.94	97.4
761.12	96.14
761.299	96.61
761.479	94.79
761.658	94.93
761.838	91.98
762.017	91.73
762.197	92.52
762.376	93.66
762.555	93.02
762.735	95.01
762.914	93.99
763.093	93.25
763.273	91.73
763.452	92.03
763.631	92.6
763.81	94.26
763.99	94.56
764.169	95.36
764.348	92.92
764.527	92.23
764.706	91.17
764.885	88.88
765.064	89.19
765.243	92.52
765.423	92.16
765.602	91.73
765.781	93.01
765.96	90.98
766.139	88.52
766.318	87.62
766.497	88.94
766.676	87.71
766.854	88.07
767.033	89.25
767.212	89.96
767.391	90.16
767.57	92.12
767.749	93.61
767.928	92.39
768.106	92.62
768.285	91.94
768.464	91.65
768.643	89.97
768.821	90.4
769	88.56
769.179	87.65
769.357	86.59
769.536	87.86
769.715	88.66
769.893	90.25
770.072	91.39
770.25	91.52
770.429	90.51
770.607	89.32
770.786	90.16
770.964	89.55
771.143	89.27
771.321	90.34
771.5	94.37
771.678	94.25
771.857	94.4
772.035	93.67
772.213	93.65
772.392	89.53
772.57	90.55
772.748	90.2
772.927	91.6
773.105	90.95
773.283	91.53
773.461	88.73
773.64	89.5
773.818	88.97
773.996	88.77
774.174	89.24
774.352	88.76
774.531	86.78
774.709	86.78
774.887	86.55
775.065	86.93
775.243	88.64
775.421	88.37
775.599	88.19
775.777	86.6
775.955	84.17
776.133	85.76
776.311	88.35
776.489	91.31
776.667	91.89
776.844	93
777.022	91.16
777.2	92.25
777.378	89.85
777.556	91.4
777.734	92.08
777.911	93.39
778.089	92.39
778.267	91.97
778.445	90.22
778.622	89.17
778.8	88.12
778.978	86.31
779.155	84.34
779.333	82.89
779.511	82
779.688	80.33
779.866	77.8
780.043	81.58
780.221	84.96
780.398	86.39
780.576	86.52
780.753	90.67
780.931	88.78
781.108	86.35
781.286	86.11
781.463	89.13
781.64	87.13
781.818	87.07
781.995	88.37
782.172	89.13
782.35	86.6
782.527	85.65
782.704	87.46
782.882	88.18
783.059	87.16
783.236	84.53
783.413	90.79
783.59	89.49
783.768	86.61
783.945	88.64
784.122	94.18
784.299	91.42
784.476	91.52
784.653	93.78
784.83	92.27
785.007	86.92
785.184	86.94
785.361	86.45
785.538	86.36
785.715	84.26
785.892	89.26
786.069	86.52
786.246	87.04
786.423	88.84
786.6	92.92
786.776	87.99
786.953	88.96
787.13	86.75
787.307	85.29
787.484	85.32
787.66	87.33
787.837	85.07
788.014	86.41
788.191	87.94
788.367	84.05
788.544	88.28
788.721	90.15
788.897	88.59
789.074	86.59
789.25	86.32
789.427	82.8
789.603	87.17
789.78	86.83
789.956	88.6
790.133	91.02
790.309	87.12
790.486	82.05
790.662	84.4
790.839	79.14
791.015	78.5
791.192	80.32
791.368	78.99
791.544	80.94
791.721	82.5
791.897	84
792.073	86.78
792.249	85.26
792.426	84.36
792.602	85
792.778	81.35
792.954	81.39
793.13	84.77
793.307	83.75
793.483	81.86
793.659	84.58
793.835	86.11
794.011	87.05
794.187	82.46
794.363	87.27
794.539	86.53
794.715	82.02
794.891	76.87
795.067	78.68
795.243	79.15
795.419	79.54
795.595	79.37
795.771	78.66
795.947	83.35
796.122	81.76
796.298	82.34
796.474	86.66
796.65	86.82
796.826	78.26
797.001	79.36
797.177	82.07
797.353	79.44
797.529	81.56
797.704	89.8
797.88	90.6
798.056	85.21
798.231	85.92
798.407	89.23
798.582	88.08
798.758	86.57
798.934	88.35
799.109	87.73
799.285	85.4
799.46	82.06
799.636	88.51
799.811	87.07
799.986	88.79
800.162	91.93
800.337	93.45
800.513	87.13
800.688	90.72
800.863	88.87
801.039	91.93
801.214	90.96
801.389	89.77
801.565	91.99
801.74	84.32
801.915	79.05
802.09	82.16
802.265	80.73
802.441	82.44
802.616	89.27
802.791	90.77
802.966	90.84
803.141	92.56
803.316	87.12
803.491	81.03
803.666	78.25
803.841	79.02
804.016	82.66
804.191	86.13
804.366	96.99
804.541	97.31
804.716	92.35
804.891	86.05
805.066	81.8
805.241	85.86
805.416	89.11
805.591	90.79
805.765	92.91
805.94	93.11
806.115	80.26
806.29	74
806.464	80.77
806.639	80.98
806.814	85.29
806.989	86.1
807.163	96.87
807.338	91.82
807.512	86.04
807.687	78.28
807.862	78.26
808.036	70.66
808.211	70.45
808.385	70.59
808.56	72.21
808.734	66.72
808.909	66.12
809.083	62.73
809.258	62
809.432	62.07
809.606	66.9
809.781	70.2
809.955	73.58
810.13	81.01
810.304	83.2
810.478	85.48
810.652	82.63
810.827	75.33
811.001	77.57
811.175	77.67
811.349	81.51
811.524	88.27
811.698	102.26
811.872	91.8
812.046	92.69
812.22	80.31
812.394	72.83
812.568	69.23
812.742	79.89
812.916	69.38
813.09	88.51
813.264	96.71
813.438	89.49
813.612	85.08
813.786	90.31
813.96	70.89
814.134	65.97
814.308	76.72
814.482	73.87
814.656	80.41
814.83	86.92
815.003	91.72
815.177	93.28
815.351	82.38
815.525	72.65
815.698	58.64
815.872	54.4
816.046	45.84
816.219	52.3
816.393	69.39
816.567	85.33
816.74	95.35
816.914	109.88
817.088	124.54
817.261	113.45
817.435	99.65
817.608	99.64
817.782	87.85
817.955	94.91
818.129	98.07
818.302	94.14
818.475	95.11
818.649	103.55
818.822	92.95
818.996	92.33
819.169	83.07
819.342	82.68
819.516	78.78
819.689	75.25
819.862	72.09
820.035	91.65
820.209	84.81
820.382	85.45
820.555	97.49
820.728	101.81
820.901	97.82
821.075	105.67
821.248	108.41
821.421	94.98
821.594	93.08
821.767	93.32
821.94	81.89
822.113	72.4
822.286	63.89
822.459	51.13
822.632	59.06
822.805	73.01
822.978	67.21
823.151	82.67
823.324	90.2
823.496	69.8
823.669	49.57
823.842	66.11
824.015	50.54
824.188	47.4
824.361	42.48
824.533	60.92
824.706	61.4
824.879	79.27
825.051	77.29
825.224	95.81
825.397	85.65
825.569	77.36
825.742	65.89
825.915	64.31
826.087	50.98
826.26	54.97
826.432	59.95
826.605	58.01
826.777	54.95
826.95	73.32
827.122	80.53
827.295	79.78
827.467	87.29
827.64	81.11
827.812	66.43
827.984	76.54
828.157	79.18
828.329	80.86
828.501	85.77
828.674	77.96
828.846	62.51
829.018	56.91
829.19	49.08
829.363	60.12
829.535	76.19
829.707	91.17
829.879	82.97
830.051	66.24
830.223	73.47
830.395	67.06
830.568	55.46
830.74	65.15
830.912	79.15
831.084	76.19
831.256	64.41
831.428	59.79
831.6	51.96
831.772	49.88
831.943	30.41
832.115	44.52
832.287	55.22
832.459	59.19
832.631	50.37
832.803	84.42
832.975	75.31
833.146	69.13
833.318	48.54
833.49	52.77
833.662	43.39
833.833	71.02
834.005	75.3
834.177	105.29
834.348	125.58
834.52	128.75
834.692	139.44
834.863	132.14
835.035	117.84
835.206	79.22
835.378	76.3
835.549	69.99
835.721	84.36
835.892	90.45
836.064	127.87
836.235	122.89
836.407	122.16
836.578	111.21
836.749	114.8
836.921	92.96
837.092	96.12
837.264	80.34
837.435	72.82
837.606	33.54
837.777	36.14
837.949	47.29
838.12	31.63
838.291	44.96
838.462	80.42
838.633	71.7
838.805	64.56
838.976	84.6
839.147	71.14
839.318	62.47
839.489	65.49
839.66	77.05
839.831	82.51
840.002	83.18
840.173	65.89
840.344	49.68
840.515	34.8
840.686	17.69
840.857	46.14
841.028	59.6
841.199	56.57
841.369	59.04
841.54	68.61
841.711	93.55
841.882	77.15
842.053	100.53
842.223	110.49
842.394	77.48
842.565	56.72
842.736	59.3
842.906	55.89
843.077	42.36
843.248	37.49
843.418	46.94
843.589	51.16
843.759	73.83
843.93	-82.44
844.101	111.48
844.271	59.36
844.442	31.24
844.612	26.29
844.783	112.46
844.953	105.49
845.123	120.23
845.294	141.23
845.464	137.47
845.635	101.65
845.805	115.85
845.975	81.68
846.146	42.39
846.316	-80.39
846.486	8.86
846.656	-6.93
846.827	54.26
846.997	75.74
847.167	86.53
847.337	80.49
847.507	96.26
847.677	57.12
847.848	52.8
848.018	54
848.188	49.96
848.358	50.11
848.528	100.03
848.698	114.81
848.868	97.63
849.038	79.47
849.208	68.2
849.378	46.16
849.548	-52.92
849.718	-479.16
849.887	350.86
850.057	-7561.29
850.227	1299.57
850.397	1387.92
850.567	-107.19
850.737	-14.51
850.906	-1.85
851.076	-3.3
851.246	11.46
851.415	-6.9
851.585	18.76
851.755	31.53
851.924	34.58
852.094	30.06
852.264	50.67
852.433	41.58
852.603	44.32
852.772	59.14
852.942	66.17
853.111	51.73
853.281	21.96
853.45	-3.72
853.62	6.68
853.789	-30.27
853.959	-230.17
854.128	129.99
854.297	-16.99
854.467	218.61
854.636	-207.11
854.805	-11.74
854.975	26.76
855.144	4.27
855.313	21.28
855.482	75.19
855.652	79.82
855.821	80
855.99	100.5
856.159	366.42
856.328	100.52
856.497	86.07
856.667	129.42
856.836	138.03
857.005	123.79
857.174	98.44
857.343	98.63
857.512	49.19
857.681	38.39
857.85	-8.58
858.019	-1.48
858.188	17.3
858.356	26.72
858.525	38.93
858.694	35.64
858.863	40.73
859.032	50.53
859.201	12.54
859.369	27.65
859.538	27.23
859.707	25.08
859.876	-9.27
860.044	9.4
860.213	1.66
860.382	29.12
860.55	-1.5
860.719	27.1
860.888	25.01
861.056	25.11
861.225	22.7
861.393	100.4
861.562	123.09
861.73	87.23
861.899	82.71
862.067	156.62
862.236	38.11
862.404	25.25
862.572	32.91
862.741	-9.11
862.909	22.49
863.078	60.48
863.246	98.96
863.414	109.91
863.582	90.81
863.751	104.82
863.919	54.46
864.087	-9.88
864.255	-48.63
864.424	-183.77
864.592	-39.95
864.76	-36.24
864.928	-68.75
865.096	-39.11
865.264	-18.23
865.432	-79.44
865.6	-113.42
865.768	-13.43
865.936	-132.86
866.104	-461.95
866.272	1.09
866.44	-42.81
866.608	2.4
866.776	10.1
866.944	-2.39
867.112	-34.08
867.28	-3.97
867.448	-22.12
867.615	30.18
867.783	73.35
867.951	39.63
868.119	52.81
868.286	37.17
868.454	-20.49
868.622	-104.54
868.789	7.55
868.957	88.69
869.125	35.59
869.292	89.1
869.46	-150.12
869.627	-290.29
869.795	-43.07
869.963	11.37
870.13	25.45
870.298	30.24
870.465	45.09
870.632	74.85
870.8	80.29
870.967	119.12
871.135	123.74
871.302	-490.85
871.469	101.41
871.637	66.36
871.804	25.4
871.971	-9.01
872.139	-3.08
872.306	-56.9
872.473	-430.15
872.64	-26.1
872.807	54.82
872.975	20.42
873.142	57.42
873.309	51.62
873.476	64.24
873.643	94.87
873.81	63.64
873.977	47.77
874.144	51.78
874.311	68.14
874.478	-88.8
874.645	-45.03
874.812	-149.76
874.979	-5.2
875.146	7.27
875.313	-165.05
875.48	262.99
875.647	-175.23
875.813	-2313.92
875.98	892.7
876.147	-25.31
876.314	57.45
876.481	27.18
876.647	67.9
876.814	40.34
876.981	-6.63
877.147	-149.96
877.314	-141.6
877.481	-163.73
877.647	-216.28
877.814	-152.19
877.98	-99.7
878.147	87.69
878.314	95.61
878.48	236.44
878.647	-40.25
878.813	-270.5
878.979	21.16
879.146	29.48
879.312	-0.94
879.479	59.87
879.645	71.09
879.811	61.61
879.978	45.43
880.144	49.32
880.31	-55.03
880.477	502.01
880.643	352.43
880.809	1502.44
880.975	-176.88
881.142	-147.88
881.308	-270.14
881.474	-31.21
881.64	61.76
881.806	50.13
881.972	64.94
882.138	62.68
882.304	57.9
882.47	8.99
882.636	36.9
882.802	41.45
882.968	24.15
883.134	14.89
883.3	42.64
883.466	35.62
883.632	15.25
883.798	59.49
883.964	51.85
884.129	28.4
884.295	-31.48
884.461	-214.58
884.627	1014.13
884.793	196.8
884.958	335.38
885.124	2273.27
885.29	-218.92
885.455	-35.78
885.621	29.21
885.787	43.59
885.952	11.67
886.118	-8.94
886.283	2.14
886.449	-187.68
886.614	-98.32
886.78	-8.86
886.945	38.25
887.111	30.89
887.276	42.21
887.442	99.21
887.607	78.18
887.773	77.77
887.938	24.19
888.103	19.94
888.269	-547.14
888.434	8282.35
888.599	-72.34
888.764	159.22
888.93	5.87
889.095	86.76
889.26	94.18
889.425	138.1
889.59	97.16
889.756	137.44
889.921	81.33
890.086	87.84
890.251	45
890.416	52.85
890.581	-8
890.746	-21.26
890.911	10.88
891.076	12.65
891.241	-107.51
891.406	-15485.71
891.571	-146
891.736	180.45
891.901	251.02
892.065	87.95
892.23	118.7
892.395	19.78
892.56	872.48
892.725	-158.92
892.889	-402.73
893.054	-1019.87
893.219	-1738.13
893.384	-169.03
893.548	-225.04
893.713	-102.48
893.878	-173.82
