Data from Ofav_SP_Phys_9EV4_Reflection_3.txt Node
Date: Thu Aug 05 17:42:31 EDT 2021
User: Adam
Spectrometer: FLMT01687
Trigger mode: 0
Integration Time (sec): 8.000000E-1
Scans to average: 2
Electric dark correction enabled: true
Nonlinearity correction enabled: false
Boxcar width: 2
XAxis mode: Wavelengths
Number of Pixels in Spectrum: 3648
>>>>>Begin Spectral Data<<<<<
179.494	72.05
179.716	84.33
179.937	43.92
180.158	81.6
180.38	322.43
180.601	-109
180.823	-83.53
181.044	-50.17
181.265	49.75
181.486	92.6
181.708	-326.85
181.929	-197.12
182.15	-522.04
182.372	-14.12
182.593	-24.45
182.814	-257.01
183.035	-5.01
183.257	531.32
183.478	-1.69
183.699	446.5
183.92	154.02
184.141	-378.92
184.363	781.08
184.584	-186.98
184.805	-64.76
185.026	-58.83
185.247	-53.92
185.468	-21.51
185.689	-40.44
185.91	-30.53
186.132	-64.64
186.353	-40.45
186.574	-142.55
186.795	-101.82
187.016	-142.43
187.237	-135.49
187.458	-516.26
187.679	-94.8
187.9	-94.61
188.121	-71.15
188.342	-27.66
188.563	30.85
188.784	-3.18
189.005	-79.97
189.226	-21.56
189.447	-28.25
189.667	-39.82
189.888	54.94
190.109	128.14
190.33	119.06
190.551	126.61
190.772	147.09
190.993	129.37
191.214	93.09
191.434	97.52
191.655	90.39
191.876	67.95
192.097	35.92
192.318	47.62
192.538	-20.68
192.759	5.34
192.98	-21.86
193.201	-75.4
193.421	-102.93
193.642	-19.25
193.863	-67.58
194.083	-33.92
194.304	3.18
194.525	3.86
194.745	-1.42
194.966	35.96
195.187	33.11
195.407	29.93
195.628	12.55
195.848	54.17
196.069	36.94
196.29	42.61
196.51	62.26
196.731	50.82
196.951	44.76
197.172	49.03
197.392	51.26
197.613	31.5
197.833	61.99
198.054	44.62
198.274	29
198.495	48.58
198.715	27.39
198.936	7.3
199.156	35.08
199.377	34.69
199.597	40.95
199.817	41.5
200.038	32.9
200.258	41.72
200.479	47.1
200.699	48.81
200.919	40.75
201.14	26.87
201.36	-13.78
201.58	-32.53
201.801	-118.09
202.021	-72.56
202.241	-37.53
202.461	-22.58
202.682	-29.76
202.902	-66.42
203.122	-185.36
203.342	-50.14
203.563	-60.04
203.783	-25.91
204.003	20.75
204.223	35.33
204.443	26.69
204.663	44.92
204.884	32.97
205.104	29.71
205.324	17.94
205.544	0.36
205.764	-7.07
205.984	-27.72
206.204	-75.65
206.424	-43.28
206.644	-5.24
206.864	-4.98
207.084	-8.67
207.304	46.44
207.525	-3.23
207.745	-21.13
207.964	-48.86
208.184	-24
208.404	-58.1
208.624	-59.51
208.844	-102.43
209.064	-86.06
209.284	-38.7
209.504	-65.21
209.724	-36.94
209.944	-53.18
210.164	-10.23
210.384	1.88
210.604	41.41
210.823	58.43
211.043	54.91
211.263	37.28
211.483	14.68
211.703	16.77
211.922	-4.04
212.142	46.91
212.362	21.41
212.582	38.01
212.801	13.73
213.021	23.83
213.241	7.45
213.461	20.66
213.68	10.62
213.9	-6.72
214.12	-2.06
214.339	-19.52
214.559	6.88
214.779	-2.26
214.998	-2.84
215.218	-27.45
215.438	37.92
215.657	71.93
215.877	121.21
216.096	104.43
216.316	133
216.535	52.61
216.755	-59.36
216.974	-128.21
217.194	40.67
217.413	39.68
217.633	24.37
217.852	45.21
218.072	43.9
218.291	28.83
218.511	28.1
218.73	22.33
218.95	16.05
219.169	-12.11
219.389	41.33
219.608	14.32
219.827	11.6
220.047	16.22
220.266	33.42
220.485	-4.01
220.705	33.35
220.924	60.08
221.143	53.36
221.363	48.34
221.582	52.03
221.801	-4.05
222.021	39.65
222.24	53.36
222.459	49
222.678	71.34
222.897	75.29
223.117	25.94
223.336	22.81
223.555	45.04
223.774	-30.96
223.993	-38.92
224.213	-21.69
224.432	-51.98
224.651	-39.27
224.87	10.83
225.089	28.82
225.308	50.94
225.527	31.41
225.746	6.59
225.965	10.59
226.184	-17.92
226.404	5.9
226.623	-2.4
226.842	10.55
227.061	5.9
227.28	16.11
227.499	11.81
227.718	7.36
227.936	7.22
228.155	7.52
228.374	22.9
228.593	16.36
228.812	42.98
229.031	43.39
229.25	49.66
229.469	45.63
229.688	40.72
229.907	29.34
230.125	12.19
230.344	-3.55
230.563	0.44
230.782	-16.91
231.001	11.86
231.22	26.63
231.438	45.23
231.657	47.27
231.876	44.16
232.095	36
232.313	41.1
232.532	16.37
232.751	-14.86
232.969	-12.33
233.188	-47.98
233.407	-38.87
233.625	-7.2
233.844	-44.79
234.063	-6.7
234.281	13.14
234.5	16.85
234.719	-29.15
234.937	-15.54
235.156	-19.34
235.374	8.48
235.593	-3.06
235.811	13.21
236.03	15.87
236.249	2.82
236.467	-19.67
236.686	-73.92
236.904	-87.98
237.123	-84.47
237.341	-18.7
237.559	-32.66
237.778	-10.21
237.996	22.15
238.215	21.47
238.433	-6.77
238.652	-11.74
238.87	-3.26
239.088	-37.69
239.307	-14.9
239.525	2.14
239.743	27.93
239.962	48.66
240.18	70.79
240.398	48.55
240.617	-1.71
240.835	-17.33
241.053	-18.14
241.271	-24.58
241.49	-22.4
241.708	-55.62
241.926	-30.13
242.144	-48.56
242.363	-77.69
242.581	-58.96
242.799	-26.55
243.017	-37.41
243.235	-68.32
243.453	-29.4
243.672	-48.35
243.89	-34.97
244.108	-46.27
244.326	5.31
244.544	27.34
244.762	6.84
244.98	10.79
245.198	-15.46
245.416	-15.83
245.634	-9.41
245.852	9.05
246.07	29.56
246.288	19.34
246.506	26.96
246.724	27.64
246.942	13.7
247.16	-31.78
247.378	-45.85
247.596	-15.63
247.814	-29.01
248.032	-3.65
248.25	6.43
248.468	19.23
248.685	14.5
248.903	12.11
249.121	-18.19
249.339	-8.34
249.557	-15.43
249.775	-30.07
249.992	-45.52
250.21	-2.37
250.428	-0.86
250.646	-0.3
250.863	18.92
251.081	49.41
251.299	37.14
251.517	66.93
251.734	59.49
251.952	31.18
252.17	13.68
252.387	8.52
252.605	-22.13
252.823	-7.37
253.04	2.79
253.258	2.46
253.475	16.6
253.693	16.73
253.911	22
254.128	37.5
254.346	53
254.563	50.81
254.781	47.47
254.998	38.89
255.216	5.11
255.433	-35.25
255.651	-77.36
255.868	-71.5
256.086	-52.96
256.303	-20.99
256.521	-52.06
256.738	-91.29
256.956	-142.41
257.173	-17.34
257.39	28.02
257.608	39.92
257.825	33.16
258.043	25.82
258.26	18.44
258.477	1.23
258.695	8.65
258.912	7.35
259.129	4.94
259.346	2.68
259.564	18.48
259.781	25.11
259.998	30.23
260.216	42.73
260.433	44.3
260.65	0.14
260.867	-36.16
261.084	-27.98
261.302	-22.99
261.519	-26.37
261.736	6.31
261.953	24.21
262.17	35.8
262.387	43.75
262.604	35.83
262.822	56.06
263.039	53.58
263.256	74.67
263.473	60.69
263.69	80.56
263.907	72.49
264.124	54.33
264.341	33.27
264.558	48.86
264.775	45.76
264.992	28.8
265.209	37.41
265.426	39.94
265.643	31.69
265.86	24.21
266.077	34.26
266.294	31.15
266.51	20.76
266.727	28.73
266.944	51.93
267.161	53.01
267.378	45.54
267.595	44.25
267.812	31.05
268.028	23.98
268.245	32.1
268.462	14.56
268.679	12.93
268.896	10.16
269.112	-3.92
269.329	-3.31
269.546	26.74
269.763	21.16
269.979	16.69
270.196	19.23
270.413	4.87
270.629	-12.39
270.846	-25.07
271.063	-29.91
271.279	-46.95
271.496	-101.49
271.712	-125.86
271.929	-105.76
272.146	-47.23
272.362	-65.74
272.579	-40
272.795	-11.55
273.012	6.82
273.228	-4.57
273.445	22.87
273.661	41.15
273.878	23.13
274.094	5.04
274.311	9.8
274.527	-15.51
274.744	-29.82
274.96	-17.02
275.177	6.41
275.393	-1.18
275.609	3.47
275.826	-0.52
276.042	1.46
276.259	-16.18
276.475	2.92
276.691	8.57
276.908	17.51
277.124	32.88
277.34	46.08
277.557	28.95
277.773	-1.12
277.989	-28.09
278.205	-54.14
278.422	-61.3
278.638	-3.3
278.854	40.1
279.07	52.92
279.286	57.55
279.503	53.66
279.719	13.03
279.935	12.46
280.151	12.84
280.367	28.68
280.583	38.67
280.799	55.9
281.016	60.57
281.232	75.98
281.448	29.49
281.664	25.47
281.88	62.66
282.096	50.9
282.312	43.47
282.528	64.16
282.744	54.73
282.96	41.21
283.176	25.28
283.392	9.33
283.608	4.37
283.824	-1.07
284.04	-5.44
284.256	14.54
284.471	30.89
284.687	22.15
284.903	30.86
285.119	34.61
285.335	12.8
285.551	4.15
285.767	-1.78
285.982	-8.4
286.198	-23.45
286.414	-20.35
286.63	-6.79
286.846	32.78
287.061	22.65
287.277	20.16
287.493	32.43
287.709	33.71
287.924	28.79
288.14	30.59
288.356	44.39
288.571	48.48
288.787	55.08
289.003	68.59
289.218	61.14
289.434	8.12
289.65	6.04
289.865	9.17
290.081	14.21
290.296	20.48
290.512	23.91
290.727	27.11
290.943	5.77
291.159	3.72
291.374	17.4
291.59	11.19
291.805	1.32
292.021	16.3
292.236	-7.98
292.451	-39.01
292.667	-24.76
292.882	-23.84
293.098	-27.14
293.313	4.64
293.529	2.96
293.744	3.11
293.959	-4.87
294.175	20.9
294.39	7.86
294.605	19.6
294.821	3.12
295.036	19.27
295.251	15.45
295.467	21.99
295.682	12.02
295.897	30.24
296.112	21.3
296.328	12.36
296.543	-5.3
296.758	12.4
296.973	15.12
297.188	41.43
297.404	40.33
297.619	52.26
297.834	36.65
298.049	33.49
298.264	2.84
298.479	3.88
298.694	7.06
298.909	22.51
299.125	29.02
299.34	40.42
299.555	29.37
299.77	42.84
299.985	34.03
300.2	39.95
300.415	34.58
300.63	23.05
300.845	-1.61
301.06	2.45
301.275	-30.42
301.49	-47.4
301.704	-96.77
301.919	-33.85
302.134	-30.09
302.349	-14.15
302.564	-4.48
302.779	10.15
302.994	22.55
303.209	24.5
303.423	10.73
303.638	5.59
303.853	5.45
304.068	-22.36
304.283	-6.93
304.497	-10.01
304.712	-11.09
304.927	-13.33
305.142	17.44
305.356	0.16
305.571	30.82
305.786	35.87
306	35.06
306.215	33.49
306.43	55.37
306.644	32.61
306.859	34.61
307.074	40.53
307.288	45.25
307.503	32.4
307.717	56.31
307.932	42.35
308.147	29.79
308.361	22.33
308.576	4.51
308.79	-5.81
309.005	-5.48
309.219	-17.85
309.434	-52.6
309.648	-76.37
309.863	-101.02
310.077	-138.94
310.292	-121.93
310.506	-86.08
310.72	-49.35
310.935	-67.92
311.149	-87.01
311.364	-32.97
311.578	11.65
311.792	37.89
312.007	52.41
312.221	47.18
312.435	46.31
312.649	37.9
312.864	12.04
313.078	18.99
313.292	44.4
313.507	33.6
313.721	31.61
313.935	23.24
314.149	16.63
314.363	-8.34
314.578	14.13
314.792	-6.09
315.006	-11.97
315.22	-3.72
315.434	-22.33
315.648	-110.54
315.862	-75.58
316.077	-62.2
316.291	-20.14
316.505	7.29
316.719	35.2
316.933	31.93
317.147	31.06
317.361	10.02
317.575	-7.94
317.789	-6.07
318.003	-32.36
318.217	6.33
318.431	28.78
318.645	42.78
318.859	25.8
319.073	30.99
319.287	24.82
319.5	14.88
319.714	-2.45
319.928	13.71
320.142	-1.58
320.356	3.7
320.57	-15.74
320.784	-15.9
320.997	-26.86
321.211	-23.6
321.425	-53.01
321.639	-37.12
321.853	-12.06
322.066	-17.51
322.28	-2.96
322.494	-7.63
322.707	4.26
322.921	3.2
323.135	16.32
323.349	24.2
323.562	38.64
323.776	29.4
323.989	26.25
324.203	9.23
324.417	-0.27
324.63	-25
324.844	-44.02
325.057	-23.71
325.271	-26.04
325.485	-12.66
325.698	1.46
325.912	28.96
326.125	15.34
326.339	18.19
326.552	13.02
326.766	27.34
326.979	21.8
327.193	21.38
327.406	24.71
327.619	21.1
327.833	-12.93
328.046	-11.12
328.26	-38.02
328.473	-63.59
328.686	-48.59
328.9	-16.45
329.113	-6.99
329.326	8.95
329.54	23.71
329.753	33.56
329.966	33.4
330.179	22.56
330.393	21.89
330.606	28.15
330.819	21.57
331.032	0.42
331.246	25.11
331.459	7.78
331.672	-1.19
331.885	18.33
332.098	26.21
332.311	25.74
332.525	35.28
332.738	42.32
332.951	32.57
333.164	39.64
333.377	20.22
333.59	24.23
333.803	12.88
334.016	-2.79
334.229	-6.56
334.442	-1.02
334.655	7.26
334.868	0.32
335.081	15.22
335.294	12.5
335.507	16.72
335.72	8.3
335.933	15.83
336.146	7.75
336.359	7.79
336.572	7.43
336.785	10.55
336.997	-1.95
337.21	11.78
337.423	42.68
337.636	32.88
337.849	32.31
338.062	35.57
338.274	7.28
338.487	-23.74
338.7	-17.22
338.913	-32.46
339.125	-8.56
339.338	-9.72
339.551	-6.3
339.763	21.56
339.976	34.38
340.189	37.6
340.402	30.53
340.614	23.68
340.827	16.09
341.039	9.78
341.252	1.93
341.465	23.43
341.677	24.24
341.89	29.65
342.102	39.79
342.315	38.57
342.527	64.86
342.74	51.66
342.952	42.54
343.165	43.17
343.377	48.15
343.59	-1.31
343.802	28.27
344.015	14.59
344.227	3.58
344.44	0.36
344.652	10.9
344.864	11.02
345.077	15.31
345.289	20.1
345.502	24.2
345.714	27.67
345.926	37.72
346.139	39.34
346.351	40.14
346.563	38.42
346.775	35.6
346.988	13.88
347.2	-9.82
347.412	-51.59
347.624	-37.41
347.837	4.67
348.049	14.98
348.261	32.26
348.473	50.47
348.685	56.52
348.897	50.19
349.11	29.89
349.322	23.49
349.534	-8.25
349.746	-23.9
349.958	-26.65
350.17	8.48
350.382	8.92
350.594	18.57
350.806	27.08
351.018	34.2
351.23	30.05
351.442	23.91
351.654	19.69
351.866	8.63
352.078	-8.36
352.29	-28.33
352.502	-5.3
352.714	-25.73
352.926	-7.37
353.138	-4.56
353.35	7.88
353.561	-16.48
353.773	-2.32
353.985	-1.18
354.197	-3.47
354.409	-13.35
354.621	7.29
354.832	6.22
355.044	-6.13
355.256	6.5
355.468	16.19
355.679	14.41
355.891	28.45
356.103	28.53
356.314	36.97
356.526	23.73
356.738	19.25
356.949	1.52
357.161	13.47
357.373	-9.93
357.584	-1.4
357.796	12.22
358.008	16.44
358.219	14.9
358.431	30.29
358.642	32.18
358.854	30.41
359.065	31.84
359.277	26.7
359.488	11.78
359.7	26.8
359.911	19.13
360.123	9.63
360.334	16.12
360.546	22.64
360.757	8.99
360.969	17.58
361.18	24.94
361.391	21.22
361.603	48.53
361.814	52.08
362.025	55.04
362.237	44.13
362.448	43.05
362.659	35.1
362.871	2.84
363.082	-15.17
363.293	-23.43
363.504	-43.14
363.716	-57.47
363.927	3.6
364.138	2.95
364.349	0.7
364.56	2
364.772	14.11
364.983	-18.9
365.194	-20.22
365.405	-4.02
365.616	18.06
365.827	7.79
366.038	35.57
366.25	35.74
366.461	15.91
366.672	20.88
366.883	21.66
367.094	-0.65
367.305	5.15
367.516	28.65
367.727	15.87
367.938	6.22
368.149	7.42
368.36	3.38
368.571	-28.02
368.781	-40.99
368.992	-19.77
369.203	-5.76
369.414	-10.31
369.625	-9.04
369.836	-2.75
370.047	0.8
370.258	11.73
370.468	13.08
370.679	22.74
370.89	25.27
371.101	22.42
371.312	24.35
371.522	27.57
371.733	20.66
371.944	22.34
372.155	16.79
372.365	-0.05
372.576	-0.72
372.787	-8.22
372.997	-10.88
373.208	9.24
373.419	17.41
373.629	17.98
373.84	25.46
374.05	22.1
374.261	7.76
374.472	8.9
374.682	5.05
374.893	17.73
375.103	15.19
375.314	16.23
375.524	4.53
375.735	-2.14
375.945	4.89
376.156	11.78
376.366	5.5
376.577	9.88
376.787	22.28
376.997	13.86
377.208	25.45
377.418	43.41
377.629	46.37
377.839	48.82
378.049	49.15
378.26	27.66
378.47	16.59
378.68	28.33
378.89	15.19
379.101	4.49
379.311	14.65
379.521	12.11
379.732	-5.34
379.942	-4.33
380.152	4.47
380.362	4.04
380.572	18.44
380.783	17.97
380.993	13.85
381.203	13.88
381.413	14.82
381.623	19.69
381.833	25.25
382.043	26.98
382.253	28.74
382.463	27.53
382.674	20.04
382.884	18.61
383.094	23.89
383.304	16.79
383.514	17.93
383.724	11.38
383.934	22.78
384.144	22.18
384.353	24.77
384.563	24.06
384.773	29.37
384.983	19.8
385.193	19.75
385.403	23.24
385.613	21.38
385.823	14.29
386.033	10.33
386.242	7.22
386.452	1.78
386.662	3.76
386.872	4.05
387.082	9.88
387.291	4.79
387.501	7.03
387.711	10.58
387.921	14.93
388.13	11.38
388.34	13.32
388.55	11.09
388.759	2.47
388.969	-0.39
389.179	-0.12
389.388	1.6
389.598	2.39
389.807	8.36
390.017	7.95
390.227	6.31
390.436	5.8
390.646	4.74
390.855	3.12
391.065	4.08
391.274	5.61
391.484	7.29
391.693	8.25
391.903	7.87
392.112	8.87
392.322	9.29
392.531	8.04
392.74	7.73
392.95	6.01
393.159	4.76
393.369	6.49
393.578	7.48
393.787	8.37
393.997	9.74
394.206	9.74
394.415	9.28
394.625	10.23
394.834	9.75
395.043	9.01
395.252	9.42
395.462	8.86
395.671	8.18
395.88	8.54
396.089	9.01
396.298	8.96
396.508	8.48
396.717	8.08
396.926	7.55
397.135	7.81
397.344	7.21
397.553	7.8
397.762	7.78
397.971	7.56
398.181	7.22
398.39	7.87
398.599	7.5
398.808	7.13
399.017	7.06
399.226	7.38
399.435	7.09
399.644	7.22
399.853	7.4
400.062	7.76
400.27	7.47
400.479	7.48
400.688	7.57
400.897	8.05
401.106	7.6
401.315	7.58
401.524	7.7
401.733	7.7
401.941	7.44
402.15	7.66
402.359	7.47
402.568	7.17
402.777	7.24
402.985	7.16
403.194	7.19
403.403	7.3
403.612	7.46
403.82	7.36
404.029	7.17
404.238	7.31
404.446	7.24
404.655	7.29
404.864	7.24
405.072	7.38
405.281	7.22
405.489	7.41
405.698	7.53
405.906	7.51
406.115	7.32
406.324	7.44
406.532	7.38
406.741	7.13
406.949	7.02
407.158	7.3
407.366	7.29
407.574	7.28
407.783	7.21
407.991	7.21
408.2	7.07
408.408	6.9
408.617	6.79
408.825	6.86
409.033	6.94
409.242	6.84
409.45	6.74
409.658	6.79
409.867	6.79
410.075	6.77
410.283	6.84
410.491	6.89
410.7	6.91
410.908	6.83
411.116	6.8
411.324	6.81
411.533	6.86
411.741	6.79
411.949	6.78
412.157	6.7
412.365	6.83
412.573	6.88
412.781	7.01
412.99	7.08
413.198	7.29
413.406	7.17
413.614	6.99
413.822	6.82
414.03	6.94
414.238	6.79
414.446	6.81
414.654	6.88
414.862	6.84
415.07	6.71
415.278	6.68
415.486	6.58
415.694	6.61
415.902	6.7
416.109	6.61
416.317	6.66
416.525	6.74
416.733	6.7
416.941	6.7
417.149	6.75
417.357	6.66
417.564	6.43
417.772	6.38
417.98	6.22
418.188	6.18
418.395	6.08
418.603	6.28
418.811	6.34
419.019	6.48
419.226	6.49
419.434	6.75
419.642	6.7
419.849	6.72
420.057	6.63
420.265	6.66
420.472	6.44
420.68	6.43
420.887	6.31
421.095	6.29
421.302	6.12
421.51	6.13
421.717	6.03
421.925	6.02
422.132	6.07
422.34	6.11
422.547	6.1
422.755	5.93
422.962	6.05
423.17	6.11
423.377	6.04
423.585	6.04
423.792	6.13
423.999	6.08
424.207	5.88
424.414	5.8
424.621	5.81
424.829	5.97
425.036	5.85
425.243	6.02
425.451	6.19
425.658	6.17
425.865	6.1
426.072	6.05
426.28	5.88
426.487	5.75
426.694	5.9
426.901	5.8
427.108	5.96
427.315	6.08
427.523	6.04
427.73	5.86
427.937	5.94
428.144	5.93
428.351	6.08
428.558	6.28
428.765	6.25
428.972	6.19
429.179	6.25
429.386	5.99
429.593	6.02
429.8	6.06
430.007	6.03
430.214	5.95
430.421	6.02
430.628	5.97
430.835	6.02
431.042	6.07
431.249	6.08
431.456	5.9
431.662	5.86
431.869	5.98
432.076	5.95
432.283	6.11
432.49	6.36
432.697	6.48
432.903	6.15
433.11	6.21
433.317	6
433.524	6.08
433.73	6.15
433.937	6.23
434.144	6.23
434.35	6.24
434.557	6.16
434.764	5.95
434.97	6.02
435.177	6.12
435.384	6.03
435.59	5.85
435.797	5.82
436.003	5.82
436.21	5.63
436.416	5.61
436.623	5.69
436.829	5.76
437.036	5.71
437.242	5.77
437.449	6
437.655	6.08
437.862	6.28
438.068	6.46
438.275	6.45
438.481	6.36
438.687	6.23
438.894	6.16
439.1	5.94
439.307	5.99
439.513	6
439.719	6.13
439.926	6.06
440.132	6.19
440.338	6.23
440.544	6.29
440.751	6.32
440.957	6.27
441.163	6.17
441.369	6.22
441.575	6.06
441.782	6.03
441.988	5.93
442.194	5.94
442.4	5.79
442.606	5.82
442.812	5.73
443.018	5.84
443.224	5.89
443.431	5.94
443.637	5.98
443.843	5.99
444.049	5.95
444.255	6.04
444.461	6.07
444.667	6.09
444.873	6.19
445.079	6.16
445.284	6.1
445.49	6.01
445.696	6.04
445.902	5.98
446.108	5.83
446.314	5.75
446.52	5.84
446.726	5.89
446.931	5.86
447.137	5.99
447.343	6.02
447.549	5.98
447.755	5.93
447.96	5.91
448.166	6.01
448.372	6.02
448.578	6
448.783	6.07
448.989	6.07
449.195	6.07
449.4	6.11
449.606	6.1
449.812	5.94
450.017	5.95
450.223	5.95
450.428	5.93
450.634	6.05
450.84	6.16
451.045	6.15
451.251	6.14
451.456	6.13
451.662	6.16
451.867	6.15
452.073	6.23
452.278	6.23
452.483	6.2
452.689	6.15
452.894	6.09
453.1	6.04
453.305	5.98
453.51	6.03
453.716	6.06
453.921	6.04
454.127	6.1
454.332	6.08
454.537	6.08
454.742	6.01
454.948	6.03
455.153	5.99
455.358	5.96
455.563	6.05
455.769	6.01
455.974	6.02
456.179	6.04
456.384	6.12
456.589	6.01
456.795	6.05
457	6.12
457.205	6.1
457.41	6.12
457.615	6.17
457.82	6.18
458.025	6.08
458.23	6.01
458.435	6
458.64	6.01
458.845	6
459.05	5.9
459.255	5.98
459.46	5.96
459.665	5.89
459.87	5.79
460.075	5.93
460.28	6.01
460.485	5.99
460.69	6.01
460.895	6.03
461.099	6.02
461.304	5.97
461.509	6.08
461.714	6.09
461.919	6.11
462.123	6.04
462.328	6.05
462.533	6.08
462.738	6.12
462.942	6.12
463.147	6.27
463.352	6.25
463.556	6.1
463.761	5.96
463.966	6.11
464.17	6.06
464.375	6.07
464.58	6.12
464.784	6.24
464.989	6.23
465.193	6.15
465.398	6.2
465.602	6.25
465.807	6.4
466.011	6.33
466.216	6.4
466.42	6.38
466.625	6.41
466.829	6.35
467.034	6.37
467.238	6.35
467.443	6.33
467.647	6.34
467.851	6.37
468.056	6.32
468.26	6.32
468.464	6.26
468.669	6.26
468.873	6.18
469.077	6.26
469.282	6.36
469.486	6.4
469.69	6.33
469.894	6.31
470.099	6.23
470.303	6.11
470.507	6.08
470.711	6.16
470.915	6.17
471.119	6.27
471.324	6.33
471.528	6.36
471.732	6.33
471.936	6.29
472.14	6.25
472.344	6.24
472.548	6.24
472.752	6.19
472.956	6.27
473.16	6.34
473.364	6.32
473.568	6.31
473.772	6.32
473.976	6.26
474.18	6.17
474.384	6.22
474.588	6.22
474.792	6.25
474.995	6.26
475.199	6.28
475.403	6.21
475.607	6.26
475.811	6.2
476.015	6.18
476.218	6.16
476.422	6.14
476.626	6.22
476.83	6.22
477.033	6.22
477.237	6.37
477.441	6.42
477.644	6.35
477.848	6.41
478.052	6.48
478.255	6.35
478.459	6.41
478.663	6.4
478.866	6.34
479.07	6.3
479.273	6.29
479.477	6.27
479.681	6.23
479.884	6.36
480.088	6.3
480.291	6.32
480.495	6.31
480.698	6.38
480.901	6.3
481.105	6.39
481.308	6.35
481.512	6.32
481.715	6.4
481.919	6.46
482.122	6.52
482.325	6.53
482.529	6.56
482.732	6.47
482.935	6.39
483.138	6.4
483.342	6.41
483.545	6.41
483.748	6.4
483.952	6.44
484.155	6.36
484.358	6.38
484.561	6.33
484.764	6.28
484.967	6.29
485.171	6.17
485.374	6.23
485.577	6.28
485.78	6.42
485.983	6.41
486.186	6.59
486.389	6.5
486.592	6.51
486.795	6.41
486.998	6.39
487.201	6.33
487.404	6.34
487.607	6.36
487.81	6.34
488.013	6.26
488.216	6.28
488.419	6.24
488.622	6.17
488.825	6.2
489.028	6.15
489.231	6.17
489.433	6.18
489.636	6.2
489.839	6.13
490.042	6.27
490.245	6.25
490.447	6.26
490.65	6.24
490.853	6.41
491.056	6.4
491.258	6.39
491.461	6.45
491.664	6.39
491.866	6.26
492.069	6.29
492.272	6.18
492.474	6.1
492.677	6.15
492.879	6.16
493.082	6.15
493.285	6.2
493.487	6.25
493.69	6.23
493.892	6.26
494.095	6.22
494.297	6.27
494.5	6.28
494.702	6.23
494.905	6.16
495.107	6.15
495.309	6.08
495.512	6.01
495.714	6.1
495.917	6.14
496.119	6.14
496.321	6.2
496.524	6.27
496.726	6.24
496.928	6.29
497.13	6.25
497.333	6.21
497.535	6.3
497.737	6.29
497.939	6.3
498.142	6.28
498.344	6.27
498.546	6.18
498.748	6.15
498.95	6.09
499.152	6.09
499.355	6.05
499.557	6.03
499.759	6.14
499.961	6.08
500.163	6.14
500.365	6.33
500.567	6.35
500.769	6.32
500.971	6.43
501.173	6.49
501.375	6.42
501.577	6.37
501.779	6.38
501.981	6.39
502.183	6.36
502.385	6.25
502.587	6.24
502.788	6.21
502.99	6.14
503.192	6.12
503.394	6.18
503.596	6.21
503.798	6.14
503.999	6.13
504.201	6.09
504.403	6.14
504.605	6.12
504.806	6.14
505.008	6.21
505.21	6.19
505.411	6.13
505.613	6.19
505.815	6.2
506.016	6.23
506.218	6.29
506.42	6.37
506.621	6.33
506.823	6.28
507.024	6.2
507.226	6.24
507.427	6.19
507.629	6.19
507.83	6.32
508.032	6.33
508.233	6.28
508.435	6.24
508.636	6.26
508.838	6.26
509.039	6.25
509.24	6.29
509.442	6.37
509.643	6.4
509.845	6.37
510.046	6.4
510.247	6.39
510.448	6.36
510.65	6.32
510.851	6.3
511.052	6.3
511.254	6.34
511.455	6.34
511.656	6.32
511.857	6.31
512.058	6.33
512.26	6.32
512.461	6.32
512.662	6.36
512.863	6.42
513.064	6.48
513.265	6.53
513.466	6.54
513.667	6.56
513.868	6.48
514.069	6.42
514.27	6.32
514.471	6.33
514.672	6.33
514.873	6.27
515.074	6.27
515.275	6.29
515.476	6.27
515.677	6.24
515.878	6.31
516.079	6.33
516.28	6.34
516.481	6.33
516.682	6.35
516.882	6.39
517.083	6.44
517.284	6.44
517.485	6.47
517.686	6.53
517.886	6.55
518.087	6.45
518.288	6.37
518.488	6.38
518.689	6.31
518.89	6.25
519.091	6.3
519.291	6.41
519.492	6.35
519.692	6.4
519.893	6.5
520.094	6.46
520.294	6.42
520.495	6.47
520.695	6.46
520.896	6.42
521.096	6.44
521.297	6.48
521.497	6.45
521.698	6.49
521.898	6.46
522.099	6.5
522.299	6.53
522.499	6.58
522.7	6.55
522.9	6.58
523.101	6.54
523.301	6.49
523.501	6.42
523.702	6.38
523.902	6.38
524.102	6.4
524.302	6.4
524.503	6.4
524.703	6.44
524.903	6.45
525.103	6.52
525.304	6.5
525.504	6.58
525.704	6.53
525.904	6.53
526.104	6.49
526.304	6.57
526.504	6.56
526.705	6.68
526.905	6.65
527.105	6.65
527.305	6.65
527.505	6.66
527.705	6.57
527.905	6.68
528.105	6.73
528.305	6.76
528.505	6.79
528.705	6.83
528.905	6.77
529.105	6.67
529.304	6.67
529.504	6.68
529.704	6.67
529.904	6.71
530.104	6.81
530.304	6.73
530.503	6.7
530.703	6.67
530.903	6.64
531.103	6.61
531.303	6.69
531.502	6.72
531.702	6.77
531.902	6.83
532.101	6.88
532.301	6.88
532.501	6.88
532.7	6.89
532.9	6.87
533.1	6.84
533.299	6.84
533.499	6.85
533.698	6.83
533.898	6.86
534.097	6.87
534.297	6.91
534.496	6.91
534.696	7.01
534.895	7
535.095	6.99
535.294	7.02
535.494	7.06
535.693	7.02
535.892	7.01
536.092	7.1
536.291	7.06
536.491	7.04
536.69	7.06
536.889	7.07
537.088	7.04
537.288	7.01
537.487	7.03
537.686	7.05
537.886	7.07
538.085	7.16
538.284	7.26
538.483	7.25
538.682	7.31
538.882	7.37
539.081	7.31
539.28	7.31
539.479	7.37
539.678	7.35
539.877	7.36
540.076	7.39
540.275	7.43
540.474	7.39
540.673	7.42
540.872	7.44
541.071	7.44
541.27	7.42
541.469	7.43
541.668	7.5
541.867	7.54
542.066	7.58
542.265	7.72
542.464	7.84
542.663	7.84
542.862	7.85
543.06	7.81
543.259	7.71
543.458	7.73
543.657	7.78
543.856	7.79
544.054	7.88
544.253	7.93
544.452	7.93
544.651	7.93
544.849	7.97
545.048	7.97
545.247	7.99
545.445	8
545.644	7.99
545.843	8.05
546.041	8.07
546.24	8.15
546.438	8.2
546.637	8.31
546.836	8.31
547.034	8.42
547.233	8.46
547.431	8.53
547.63	8.51
547.828	8.56
548.027	8.55
548.225	8.57
548.423	8.58
548.622	8.59
548.82	8.66
549.019	8.7
549.217	8.74
549.415	8.79
549.614	8.93
549.812	8.93
550.01	9
550.209	9.06
550.407	9.07
550.605	9.06
550.803	9.16
551.002	9.2
551.2	9.26
551.398	9.38
551.596	9.44
551.794	9.51
551.993	9.52
552.191	9.6
552.389	9.61
552.587	9.65
552.785	9.67
552.983	9.79
553.181	9.86
553.379	9.94
553.577	10.01
553.775	10.12
553.973	10.09
554.171	10.12
554.369	10.16
554.567	10.25
554.765	10.25
554.963	10.35
555.161	10.43
555.359	10.56
555.557	10.61
555.755	10.64
555.952	10.74
556.15	10.76
556.348	10.76
556.546	10.83
556.744	10.95
556.941	11.01
557.139	11.07
557.337	11.14
557.535	11.18
557.732	11.22
557.93	11.29
558.128	11.4
558.325	11.41
558.523	11.5
558.721	11.52
558.918	11.56
559.116	11.6
559.313	11.7
559.511	11.82
559.708	12.03
559.906	12.13
560.104	12.17
560.301	12.33
560.498	12.42
560.696	12.44
560.893	12.5
561.091	12.55
561.288	12.58
561.486	12.62
561.683	12.66
561.88	12.66
562.078	12.72
562.275	12.77
562.473	12.78
562.67	12.83
562.867	12.95
563.064	13.03
563.262	13.1
563.459	13.21
563.656	13.22
563.853	13.28
564.051	13.36
564.248	13.48
564.445	13.54
564.642	13.6
564.839	13.68
565.036	13.83
565.234	13.78
565.431	13.78
565.628	13.93
565.825	13.95
566.022	14
566.219	14.11
566.416	14.17
566.613	14.24
566.81	14.28
567.007	14.27
567.204	14.31
567.401	14.38
567.598	14.48
567.795	14.52
567.991	14.63
568.188	14.71
568.385	14.73
568.582	14.74
568.779	14.74
568.976	14.81
569.172	14.82
569.369	14.92
569.566	14.96
569.763	15.09
569.96	15.05
570.156	15.11
570.353	15.12
570.55	15.19
570.746	15.12
570.943	15.19
571.14	15.21
571.336	15.28
571.533	15.24
571.729	15.38
571.926	15.4
572.123	15.42
572.319	15.35
572.516	15.29
572.712	15.38
572.909	15.35
573.105	15.41
573.302	15.44
573.498	15.51
573.695	15.45
573.891	15.44
574.087	15.4
574.284	15.49
574.48	15.5
574.677	15.49
574.873	15.52
575.069	15.5
575.266	15.48
575.462	15.47
575.658	15.43
575.854	15.43
576.051	15.4
576.247	15.34
576.443	15.36
576.639	15.32
576.835	15.3
577.032	15.29
577.228	15.26
577.424	15.22
577.62	15.23
577.816	15.19
578.012	15.26
578.208	15.26
578.404	15.33
578.6	15.39
578.796	15.41
578.993	15.42
579.189	15.48
579.384	15.42
579.58	15.4
579.776	15.37
579.972	15.24
580.168	15.12
580.364	15.09
580.56	15.04
580.756	15
580.952	15.09
581.148	15.16
581.343	15.19
581.539	15.18
581.735	15.12
581.931	14.98
582.127	14.86
582.322	14.8
582.518	14.78
582.714	14.85
582.909	14.92
583.105	14.94
583.301	14.98
583.496	14.86
583.692	14.82
583.888	14.74
584.083	14.72
584.279	14.68
584.474	14.75
584.67	14.71
584.866	14.7
585.061	14.67
585.257	14.53
585.452	14.46
585.648	14.48
585.843	14.42
586.039	14.42
586.234	14.42
586.429	14.42
586.625	14.38
586.82	14.39
587.015	14.39
587.211	14.42
587.406	14.35
587.601	14.35
587.797	14.43
587.992	14.39
588.187	14.41
588.383	14.47
588.578	14.43
588.773	14.35
588.968	14.37
589.163	14.32
589.359	14.3
589.554	14.34
589.749	14.36
589.944	14.27
590.139	14.31
590.334	14.34
590.529	14.36
590.724	14.35
590.919	14.47
591.114	14.54
591.309	14.5
591.504	14.45
591.699	14.43
591.894	14.4
592.089	14.36
592.284	14.36
592.479	14.49
592.674	14.56
592.869	14.56
593.064	14.64
593.259	14.73
593.454	14.71
593.648	14.79
593.843	14.89
594.038	14.88
594.233	14.92
594.428	14.98
594.622	15
594.817	14.92
595.012	14.97
595.206	15.1
595.401	15.17
595.596	15.16
595.79	15.26
595.985	15.25
596.18	15.26
596.374	15.22
596.569	15.27
596.763	15.43
596.958	15.62
597.153	15.5
597.347	15.62
597.542	15.65
597.736	15.63
597.931	15.61
598.125	15.81
598.319	15.82
598.514	15.83
598.708	15.78
598.903	15.79
599.097	15.77
599.291	15.76
599.486	15.81
599.68	15.94
599.874	15.96
600.069	15.95
600.263	16.07
600.457	16.16
600.651	16.15
600.846	16.24
601.04	16.38
601.234	16.35
601.428	16.36
601.622	16.43
601.817	16.38
602.011	16.34
602.205	16.35
602.399	16.36
602.593	16.36
602.787	16.31
602.981	16.35
603.175	16.33
603.369	16.34
603.563	16.33
603.757	16.42
603.951	16.38
604.145	16.39
604.339	16.42
604.533	16.4
604.727	16.48
604.921	16.56
605.115	16.59
605.309	16.51
605.502	16.52
605.696	16.42
605.89	16.37
606.084	16.36
606.278	16.38
606.471	16.29
606.665	16.17
606.859	15.99
607.053	15.95
607.246	16
607.44	16
607.634	16.02
607.827	16.07
608.021	15.94
608.214	15.76
608.408	15.76
608.602	15.73
608.795	15.67
608.989	15.64
609.182	15.64
609.376	15.58
609.569	15.52
609.763	15.46
609.956	15.41
610.15	15.24
610.343	15.15
610.537	15.04
610.73	15.02
610.923	15.03
611.117	14.96
611.31	14.91
611.504	14.87
611.697	14.87
611.89	14.67
612.083	14.71
612.277	14.57
612.47	14.59
612.663	14.36
612.856	14.46
613.05	14.46
613.243	14.45
613.436	14.31
613.629	14.31
613.822	14.17
614.015	14.04
614.209	13.97
614.402	13.86
614.595	13.86
614.788	13.77
614.981	13.74
615.174	13.64
615.367	13.65
615.56	13.58
615.753	13.54
615.946	13.5
616.139	13.47
616.332	13.43
616.525	13.36
616.718	13.39
616.911	13.38
617.103	13.32
617.296	13.33
617.489	13.36
617.682	13.36
617.875	13.24
618.067	13.13
618.26	13.05
618.453	12.88
618.646	12.77
618.838	12.75
619.031	12.8
619.224	12.8
619.417	12.92
619.609	12.92
619.802	12.9
619.994	12.85
620.187	12.78
620.38	12.65
620.572	12.58
620.765	12.59
620.957	12.58
621.15	12.6
621.342	12.55
621.535	12.51
621.727	12.46
621.92	12.44
622.112	12.39
622.305	12.38
622.497	12.31
622.69	12.22
622.882	12.19
623.074	12.16
623.267	12.24
623.459	12.27
623.651	12.37
623.844	12.33
624.036	12.34
624.228	12.28
624.42	12.24
624.613	12.15
624.805	12.18
624.997	12.18
625.189	12.08
625.381	12.09
625.574	12.11
625.766	12.07
625.958	11.95
626.15	11.96
626.342	11.95
626.534	11.92
626.726	11.86
626.918	11.89
627.11	11.85
627.302	11.8
627.494	11.71
627.686	11.76
627.878	11.75
628.07	11.73
628.262	11.66
628.454	11.66
628.646	11.66
628.838	11.68
629.029	11.62
629.221	11.61
629.413	11.55
629.605	11.48
629.797	11.43
629.989	11.48
630.18	11.48
630.372	11.38
630.564	11.34
630.755	11.21
630.947	11.15
631.139	11.07
631.33	11.08
631.522	11.05
631.714	11.16
631.905	11.11
632.097	11.14
632.289	11.19
632.48	11.18
632.672	11.08
632.863	11.1
633.055	11.09
633.246	11.11
633.438	11.13
633.629	11.11
633.821	10.94
634.012	10.91
634.203	10.83
634.395	10.79
634.586	10.89
634.777	11.05
634.969	11.05
635.16	11.04
635.351	10.97
635.543	10.81
635.734	10.72
635.925	10.67
636.117	10.71
636.308	10.8
636.499	10.79
636.69	10.83
636.881	10.87
637.073	10.83
637.264	10.8
637.455	10.76
637.646	10.74
637.837	10.67
638.028	10.58
638.219	10.58
638.41	10.69
638.601	10.69
638.792	10.64
638.983	10.65
639.174	10.59
639.365	10.48
639.556	10.39
639.747	10.52
639.938	10.57
640.129	10.53
640.32	10.57
640.511	10.63
640.701	10.49
640.892	10.53
641.083	10.56
641.274	10.48
641.465	10.48
641.655	10.5
641.846	10.49
642.037	10.46
642.228	10.47
642.418	10.4
642.609	10.38
642.8	10.34
642.99	10.27
643.181	10.22
643.372	10.22
643.562	10.16
643.753	10.14
643.943	10.13
644.134	10.12
644.324	10.1
644.515	10.17
644.705	10.14
644.896	10.24
645.086	10.31
645.277	10.31
645.467	10.29
645.658	10.28
645.848	10.16
646.038	10.09
646.229	10.19
646.419	10.19
646.61	10.19
646.8	10.24
646.99	10.29
647.18	10.14
647.371	10.09
647.561	9.98
647.751	9.95
647.941	9.86
648.132	9.87
648.322	9.85
648.512	9.91
648.702	9.94
648.892	9.87
649.082	9.83
649.272	9.86
649.462	9.86
649.653	9.83
649.843	9.89
650.033	9.95
650.223	9.87
650.413	9.87
650.603	9.84
650.793	9.83
650.983	9.78
651.172	9.78
651.362	9.79
651.552	9.83
651.742	9.83
651.932	9.84
652.122	9.83
652.312	9.75
652.502	9.64
652.691	9.59
652.881	9.62
653.071	9.6
653.261	9.56
653.45	9.43
653.64	9.38
653.83	9.29
654.019	9.22
654.209	9.21
654.399	9.24
654.588	9.14
654.778	9.09
654.968	9.06
655.157	9.02
655.347	8.99
655.536	8.93
655.726	8.81
655.915	8.64
656.105	8.53
656.294	8.43
656.484	8.45
656.673	8.37
656.863	8.33
657.052	8.24
657.241	8.15
657.431	8.12
657.62	8.04
657.809	8.1
657.999	8.12
658.188	8.07
658.377	7.91
658.567	7.83
658.756	7.71
658.945	7.7
659.134	7.59
659.324	7.51
659.513	7.45
659.702	7.31
659.891	7.08
660.08	7.02
660.269	6.97
660.458	6.9
660.648	6.85
660.837	6.83
661.026	6.71
661.215	6.61
661.404	6.59
661.593	6.48
661.782	6.31
661.971	6.32
662.16	6.28
662.349	6.14
662.538	6.1
662.726	6.05
662.915	5.9
663.104	5.74
663.293	5.7
663.482	5.63
663.671	5.72
663.86	5.76
664.048	5.8
664.237	5.83
664.426	5.86
664.615	5.74
664.803	5.72
664.992	5.68
665.181	5.59
665.369	5.57
665.558	5.56
665.747	5.67
665.935	5.68
666.124	5.71
666.312	5.61
666.501	5.71
666.69	5.64
666.878	5.59
667.067	5.58
667.255	5.67
667.444	5.62
667.632	5.55
667.82	5.6
668.009	5.55
668.197	5.56
668.386	5.41
668.574	5.42
668.762	5.56
668.951	5.72
669.139	5.6
669.327	5.75
669.516	5.76
669.704	5.63
669.892	5.47
670.08	5.58
670.269	5.48
670.457	5.54
670.645	5.5
670.833	5.59
671.021	5.65
671.21	5.79
671.398	5.85
671.586	5.88
671.774	5.88
671.962	5.91
672.15	5.91
672.338	5.91
672.526	5.99
672.714	6.15
672.902	6.17
673.09	6.07
673.278	6.03
673.466	6.07
673.654	6.19
673.842	6.23
674.03	6.53
674.218	6.64
674.405	6.78
674.593	6.65
674.781	6.67
674.969	6.54
675.157	6.65
675.344	6.49
675.532	6.57
675.72	6.74
675.908	6.8
676.095	6.84
676.283	6.97
676.471	6.91
676.658	6.85
676.846	6.86
677.033	6.8
677.221	6.92
677.409	7.01
677.596	7
677.784	7.07
677.971	7.14
678.159	7.3
678.346	7.42
678.534	7.51
678.721	7.63
678.909	7.6
679.096	7.51
679.283	7.43
679.471	7.55
679.658	7.48
679.846	7.53
680.033	7.63
680.22	7.76
680.408	7.83
680.595	8
680.782	8.01
680.969	7.98
681.157	7.9
681.344	7.96
681.531	7.93
681.718	8.07
681.905	8.15
682.093	8.36
682.28	8.37
682.467	8.46
682.654	8.5
682.841	8.46
683.028	8.49
683.215	8.59
683.402	8.61
683.589	8.66
683.776	8.82
683.963	9
684.15	9.11
684.337	9.33
684.524	9.53
684.711	9.71
684.898	9.79
685.085	9.82
685.271	9.87
685.458	9.89
685.645	9.93
685.832	9.85
686.019	9.83
686.205	10.03
686.392	10.14
686.579	10.49
686.766	10.92
686.952	11.14
687.139	11.28
687.326	11.46
687.512	11.42
687.699	11.43
687.886	11.81
688.072	12.03
688.259	12.25
688.445	12.53
688.632	12.78
688.818	12.82
689.005	13.15
689.191	13.5
689.378	13.89
689.564	14.22
689.751	14.71
689.937	14.73
690.124	15.04
690.31	15.29
690.496	15.81
690.683	16.13
690.869	16.64
691.055	17.03
691.242	17.44
691.428	17.57
691.614	17.72
691.8	18.12
691.987	18.71
692.173	19.07
692.359	19.55
692.545	20.22
692.731	20.59
692.918	20.99
693.104	21.43
693.29	21.93
693.476	22.22
693.662	22.63
693.848	23.16
694.034	23.64
694.22	24.49
694.406	25.06
694.592	25.83
694.778	26.1
694.964	26.83
695.15	27.07
695.336	27.68
695.522	28.06
695.708	28.64
695.894	29.13
696.08	29.66
696.265	30.14
696.451	31.12
696.637	31.72
696.823	32.32
697.009	32.98
697.194	33.69
697.38	34
697.566	34.71
697.751	35.37
697.937	35.97
698.123	36.54
698.308	36.91
698.494	37.53
698.68	37.78
698.865	38.21
699.051	38.85
699.236	39.6
699.422	39.96
699.607	40.51
699.793	41.22
699.978	41.69
700.164	42.46
700.349	43.44
700.535	44.2
700.72	44.79
700.906	45.25
701.091	45.49
701.276	45.72
701.462	45.9
701.647	46.31
701.832	46.78
702.018	47.21
702.203	47.68
702.388	48.43
702.573	49.01
702.759	49.88
702.944	50.56
703.129	50.82
703.314	51.28
703.499	51.73
703.684	51.89
703.87	52.01
704.055	52.5
704.24	53.1
704.425	53.56
704.61	54.11
704.795	54.86
704.98	55.46
705.165	55.76
705.35	56.07
705.535	56.31
705.72	56.52
705.905	56.77
706.09	57.1
706.275	57.6
706.459	57.87
706.644	58.27
706.829	59.1
707.014	59.68
707.199	60.12
707.384	60.29
707.568	60.71
707.753	60.72
707.938	60.58
708.123	60.5
708.307	60.95
708.492	61.04
708.677	61.28
708.861	61.69
709.046	62.14
709.231	62.32
709.415	62.91
709.6	63.12
709.784	63.59
709.969	64.01
710.153	64.5
710.338	64.83
710.522	65.18
710.707	65.14
710.891	65.42
711.076	66.05
711.26	66.17
711.445	66.3
711.629	66.86
711.813	67.28
711.998	67.09
712.182	67.19
712.366	67.58
712.551	67.54
712.735	67.17
712.919	67.5
713.103	67.67
713.288	67.86
713.472	67.73
713.656	67.99
713.84	68.41
714.024	68.96
714.208	68.74
714.393	69.25
714.577	69.62
714.761	69.17
714.945	69.28
715.129	69.78
715.313	70.03
715.497	70.13
715.681	70.56
715.865	70.65
716.049	70.6
716.233	70.63
716.417	70.75
716.601	70.63
716.785	70.96
716.968	71.04
717.152	71.31
717.336	71.85
717.52	72.11
717.704	71.49
717.888	71.95
718.071	72.42
718.255	72.12
718.439	72.61
718.622	72.9
718.806	73.2
718.99	72.66
719.174	72.75
719.357	72.45
719.541	73.27
719.724	72.73
719.908	72.9
720.092	72.93
720.275	73.37
720.459	73.68
720.642	74.44
720.826	75.03
721.009	75.21
721.193	75.18
721.376	74.55
721.559	74.61
721.743	74.63
721.926	75.08
722.11	75.46
722.293	75.8
722.476	76.14
722.66	76.36
722.843	76.02
723.026	76.53
723.21	76.62
723.393	76.37
723.576	76.25
723.759	76.88
723.942	76.3
724.126	76.05
724.309	76.06
724.492	76.64
724.675	76.29
724.858	76.7
725.041	77.3
725.224	77.29
725.407	77.41
725.59	78.03
725.774	78.15
725.957	78.24
726.14	78.75
726.322	78.24
726.505	77.94
726.688	77.68
726.871	77.58
727.054	77.54
727.237	78.15
727.42	78.86
727.603	79.4
727.786	80.06
727.968	80.4
728.151	80.61
728.334	79.84
728.517	79.66
728.699	79.46
728.882	80.22
729.065	80.68
729.248	81.15
729.43	81.51
729.613	81.35
729.796	80.85
729.978	80.83
730.161	81.19
730.343	81.71
730.526	82.42
730.708	81.88
730.891	81.89
731.073	82.3
731.256	81.96
731.438	81.51
731.621	82.08
731.803	82.54
731.986	83.01
732.168	83.34
732.35	83.83
732.533	84.44
732.715	84.32
732.898	83.55
733.08	84.22
733.262	85.01
733.444	84.36
733.627	84.56
733.809	85.46
733.991	84.89
734.173	84.48
734.355	85.58
734.538	85.57
734.72	85.42
734.902	86.17
735.084	86.34
735.266	86.14
735.448	86.72
735.63	87.18
735.812	86.77
735.994	86.6
736.176	86.74
736.358	87.1
736.54	87.07
736.722	87.79
736.904	88.75
737.086	89.4
737.268	88.61
737.45	89.03
737.632	88.41
737.814	88.59
737.995	89
738.177	88.91
738.359	88.7
738.541	88.45
738.723	87.82
738.904	86.15
739.086	86.95
739.268	87.36
739.449	88.5
739.631	88.44
739.813	88.97
739.994	88.85
740.176	88.32
740.358	87.92
740.539	88.85
740.721	89.22
740.902	89.61
741.084	90.21
741.265	90.46
741.447	89.89
741.628	90.29
741.81	89.7
741.991	90.07
742.172	89.82
742.354	89.62
742.535	88.98
742.717	89.07
742.898	88.91
743.079	89.89
743.261	90.29
743.442	90.9
743.623	90.76
743.804	90.43
743.986	89.37
744.167	89.33
744.348	89.58
744.529	90.23
744.71	89.75
744.891	90.99
745.073	90.9
745.254	91.08
745.435	91.82
745.616	92.81
745.797	91.99
745.978	91.33
746.159	91.3
746.34	90.81
746.521	90.79
746.702	90.79
746.883	92.32
747.064	91.76
747.245	91.41
747.426	92.06
747.606	91.67
747.787	91.46
747.968	92.3
748.149	92.06
748.33	90.22
748.51	89.87
748.691	88.29
748.872	87.45
749.053	87.96
749.233	88.48
749.414	90.43
749.595	92.88
749.775	93.58
749.956	92.52
750.137	92.24
750.317	90.82
750.498	90.47
750.678	90.6
750.859	92.57
751.04	92.91
751.22	93.61
751.4	93.11
751.581	92.83
751.761	91.9
751.942	93.33
752.122	93.11
752.303	92.81
752.483	93.52
752.663	92.64
752.844	90.52
753.024	90.7
753.204	90.68
753.385	88.35
753.565	88.52
753.745	88.8
753.925	89.24
754.106	88.52
754.286	89.08
754.466	89.52
754.646	91.14
754.826	89.71
755.006	90.48
755.187	91.9
755.367	92.68
755.547	90.86
755.727	91.17
755.907	90.37
756.087	89.96
756.267	89.9
756.447	91.41
756.627	91.72
756.807	93
756.987	93.68
757.167	92.43
757.346	92.7
757.526	92.69
757.706	92.54
757.886	91.69
758.066	93.01
758.246	92.03
758.425	91.71
758.605	91.18
758.785	91.7
758.965	91.34
759.144	91.1
759.324	90.86
759.504	90.41
759.683	90.46
759.863	89.08
760.043	90.11
760.222	93.01
760.402	93.76
760.581	93.71
760.761	95.28
760.94	94.12
761.12	91.23
761.299	91.25
761.479	89.8
761.658	89.7
761.838	89.01
762.017	88.91
762.197	90.12
762.376	92.23
762.555	91.73
762.735	92.04
762.914	93.15
763.093	91.15
763.273	89.21
763.452	88.82
763.631	88.85
763.81	88.76
763.99	88.48
764.169	89.38
764.348	89.89
764.527	90.25
764.706	90.25
764.885	90.69
765.064	90.12
765.243	89.07
765.423	87.53
765.602	86.52
765.781	85.8
765.96	84.21
766.139	84.87
766.318	85.48
766.497	84.89
766.676	84.69
766.854	86.28
767.033	85.41
767.212	87.37
767.391	88.12
767.57	87.09
767.749	87.33
767.928	88.05
768.106	87.42
768.285	88.23
768.464	88.49
768.643	87.8
768.821	85.7
769	84.48
769.179	83.7
769.357	85.58
769.536	86.32
769.715	88.26
769.893	89.17
770.072	89.37
770.25	88.89
770.429	88.97
770.607	86.94
770.786	86.77
770.964	85.45
771.143	85.63
771.321	85.08
771.5	90.59
771.678	88.88
771.857	89.21
772.035	88.68
772.213	89.44
772.392	86.37
772.57	87.63
772.748	88.31
772.927	89.33
773.105	88.32
773.283	88.28
773.461	86.02
773.64	85.81
773.818	86.21
773.996	84.75
774.174	84.01
774.352	86.18
774.531	85.06
774.709	85.19
774.887	87.33
775.065	88.66
775.243	90.05
775.421	90.83
775.599	90.38
775.777	88.38
775.955	85.81
776.133	85.42
776.311	86.7
776.489	86.78
776.667	88.44
776.844	91.43
777.022	90.82
777.2	90.87
777.378	87.33
777.556	87.48
777.734	86.35
777.911	85.96
778.089	85.92
778.267	87.2
778.445	86.65
778.622	87.81
778.8	84.88
778.978	83.76
779.155	83.87
779.333	81.84
779.511	78.05
779.688	82.26
779.866	80.85
780.043	82.38
780.221	85.6
780.398	88.6
780.576	83.89
780.753	82.97
780.931	84.92
781.108	83.11
781.286	79.68
781.463	84.42
781.64	85.81
781.818	85.95
781.995	85.62
782.172	86.46
782.35	84.24
782.527	83.41
782.704	83.14
782.882	86.96
783.059	88.21
783.236	84.81
783.413	87.85
783.59	86.81
783.768	82
783.945	84.58
784.122	88.24
784.299	87.85
784.476	84.4
784.653	88.27
784.83	86.09
785.007	84.83
785.184	82.12
785.361	83.57
785.538	82.5
785.715	82.3
785.892	84.25
786.069	86.01
786.246	87.04
786.423	89.93
786.6	92.32
786.776	89.59
786.953	89.06
787.13	88.82
787.307	85.38
787.484	84.35
787.66	85.74
787.837	86.12
788.014	87.55
788.191	90.54
788.367	88.31
788.544	87.34
788.721	88.55
788.897	86.15
789.074	81.47
789.25	79.97
789.427	78.72
789.603	80.78
789.78	81.77
789.956	82.87
790.133	87.33
790.309	88.58
790.486	85.84
790.662	83.43
790.839	85.21
791.015	82.2
791.192	83.33
791.368	81.64
791.544	85.96
791.721	84.25
791.897	86.68
792.073	85.29
792.249	83.83
792.426	83.32
792.602	83.19
792.778	80.49
792.954	77.62
793.13	79.79
793.307	79.28
793.483	78.19
793.659	81.01
793.835	89.9
794.011	92.14
794.187	90.85
794.363	92.81
794.539	89.06
794.715	81.6
794.891	77.58
795.067	75.71
795.243	76.44
795.419	78.5
795.595	79.66
795.771	77.72
795.947	78.39
796.122	75.28
796.298	74.64
796.474	75.59
796.65	73.69
796.826	73.97
797.001	78.09
797.177	81.03
797.353	80.41
797.529	82.59
797.704	85.39
797.88	82.03
798.056	78.9
798.231	75.63
798.407	78.14
798.582	75.18
798.758	77.12
798.934	77.72
799.109	83.59
799.285	76.86
799.46	78.52
799.636	77.38
799.811	80.54
799.986	77.57
800.162	89.66
800.337	85.39
800.513	84.68
800.688	85.57
800.863	81.23
801.039	78.26
801.214	77.78
801.389	76.57
801.565	75.78
801.74	83.33
801.915	75.84
802.09	78.18
802.265	75.95
802.441	73.59
802.616	68.66
802.791	75.61
802.966	78.17
803.141	80.31
803.316	76.9
803.491	75.94
803.666	73.32
803.841	75.75
804.016	79.54
804.191	86.88
804.366	90.82
804.541	94.17
804.716	97.65
804.891	97.85
805.066	92.3
805.241	94.72
805.416	90.53
805.591	83.78
805.765	80.88
805.94	76.47
806.115	67.1
806.29	71
806.464	73.97
806.639	76.59
806.814	83.11
806.989	88.94
807.163	88.62
807.338	89.75
807.512	83.3
807.687	77.5
807.862	76.16
808.036	73.5
808.211	72.55
808.385	73.29
808.56	78.49
808.734	91.62
808.909	85.12
809.083	82.89
809.258	81.56
809.432	76.67
809.606	64.55
809.781	71.14
809.955	69.54
810.13	75.67
810.304	76.21
810.478	76.1
810.652	80.06
810.827	76.87
811.001	70.73
811.175	78.26
811.349	78.21
811.524	79.05
811.698	91.59
811.872	91.17
812.046	79.41
812.22	88.37
812.394	87.39
812.568	82.3
812.742	87.98
812.916	81.63
813.09	84.42
813.264	86.79
813.438	85.53
813.612	84.97
813.786	104.54
813.96	94.41
814.134	87.06
814.308	86.25
814.482	85.1
814.656	82.74
814.83	79.68
815.003	75.72
815.177	81.57
815.351	71.46
815.525	69.41
815.698	70.07
815.872	70.36
816.046	69.12
816.219	75.61
816.393	88.58
816.567	103.29
816.74	116.33
816.914	122.51
817.088	150.67
817.261	140.92
817.435	120.53
817.608	116.52
817.782	107.08
817.955	89.79
818.129	91.28
818.302	87
818.475	107.14
818.649	115.87
818.822	111.68
818.996	96.71
819.169	94.7
819.342	77.19
819.516	67.67
819.689	81.81
819.862	86.53
820.035	86.68
820.209	86.23
820.382	88.59
820.555	79.7
820.728	80.23
820.901	74.78
821.075	85.85
821.248	82.19
821.421	74.34
821.594	75.7
821.767	76.61
821.94	59.6
822.113	53.16
822.286	61.8
822.459	72.96
822.632	85.61
822.805	100.43
822.978	96.37
823.151	81.91
823.324	81.85
823.496	52.8
823.669	36.78
823.842	59.17
824.015	63.64
824.188	52.05
824.361	68.71
824.533	65.82
824.706	46.5
824.879	61.32
825.051	67.89
825.224	71.78
825.397	77.38
825.569	82.44
825.742	76.44
825.915	60.9
826.087	64.51
826.26	60
826.432	58.48
826.605	47.63
826.777	61.56
826.95	51.14
827.122	52.04
827.295	51.61
827.467	57.19
827.64	44.81
827.812	54.15
827.984	55.22
828.157	59.53
828.329	77.87
828.501	93.21
828.674	86.38
828.846	91.84
829.018	102.57
829.19	85.33
829.363	67.25
829.535	74.13
829.707	64.8
829.879	62.15
830.051	67.77
830.223	79.85
830.395	70.49
830.568	69.51
830.74	73.39
830.912	77.02
831.084	74.53
831.256	69.77
831.428	74.28
831.6	91.11
831.772	93.98
831.943	75.79
832.115	58.65
832.287	62.97
832.459	43.19
832.631	40.66
832.803	58.47
832.975	92.18
833.146	82.19
833.318	69.51
833.49	68.76
833.662	61.8
833.833	65.86
834.005	68.85
834.177	84.34
834.348	89.27
834.52	102.34
834.692	117.39
834.863	118.36
835.035	106.71
835.206	101.18
835.378	92.99
835.549	81.26
835.721	77.31
835.892	60.1
836.064	47.97
836.235	70.79
836.407	75.09
836.578	69.32
836.749	94.28
836.921	100.38
837.092	113.83
837.264	114.76
837.435	114.02
837.606	99.21
837.777	96.55
837.949	72.64
838.12	20.21
838.291	60.51
838.462	56.87
838.633	33.68
838.805	46.26
838.976	69.15
839.147	57.67
839.318	93.93
839.489	96.51
839.66	115.43
839.831	107.06
840.002	128.56
840.173	55.99
840.344	65.96
840.515	46.86
840.686	29.96
840.857	22.9
841.028	46.32
841.199	67.11
841.369	57.45
841.54	57.38
841.711	85.73
841.882	79.23
842.053	69.84
842.223	76.25
842.394	91.03
842.565	76.5
842.736	62.29
842.906	46.45
843.077	47.65
843.248	53.54
843.418	52.77
843.589	73.62
843.759	121.56
843.93	218.03
844.101	254.57
844.271	185.77
844.442	157.43
844.612	120.51
844.783	155.49
844.953	117.9
845.123	113.78
845.294	99.74
845.464	96.94
845.635	78.3
845.805	99.14
845.975	70.77
846.146	107.78
846.316	102.96
846.486	97.58
846.656	93.89
846.827	88.3
846.997	27.96
847.167	33.14
847.337	29.19
847.507	34.51
847.677	25.68
847.848	61.15
848.018	62.32
848.188	55.17
848.358	62.98
848.528	117.63
848.698	74.4
848.868	99.4
849.038	104.64
849.208	97.19
849.378	72.81
849.548	105.8
849.718	229.82
849.887	132.25
850.057	-3074.19
850.227	836.48
850.397	1388.59
850.567	-77.01
850.737	12.97
850.906	37.41
851.076	56.85
851.246	51.09
851.415	60.28
851.585	68.92
851.755	54.56
851.924	34.24
852.094	32.93
852.264	47.55
852.433	27.6
852.603	56.11
852.772	91.66
852.942	76.24
853.111	55.53
853.281	83.17
853.45	33.68
853.62	43.69
853.789	84.67
853.959	53.34
854.128	20.2
854.297	-55.44
854.467	14.92
854.636	19.77
854.805	129.81
854.975	71.61
855.144	66.24
855.313	57.77
855.482	72.4
855.652	61.7
855.821	47.56
855.99	78.04
856.159	272.71
856.328	160.22
856.497	164.55
856.667	189.05
856.836	185.95
857.005	172.01
857.174	151.08
857.343	147.27
857.512	108.79
857.681	112.33
857.85	71.44
858.019	42.12
858.188	24.98
858.356	6.64
858.525	1
858.694	-1.6
858.863	4.64
859.032	68.82
859.201	89.65
859.369	68.93
859.538	74.37
859.707	54.57
859.876	36.19
860.044	40.76
860.213	70.06
860.382	118.03
860.55	101.73
860.719	113.6
860.888	130.65
861.056	130.05
861.225	110.78
861.393	136.25
861.562	150.92
861.73	105.83
861.899	116.94
862.067	153.61
862.236	106.11
862.404	45.83
862.572	2.26
862.741	-211.03
862.909	-1.01
863.078	54.7
863.246	64.84
863.414	96.05
863.582	64.33
863.751	80.12
863.919	-3.36
864.087	25.64
864.255	11.63
864.424	-6.58
864.592	4.43
864.76	32.61
864.928	54.65
865.096	56.72
865.264	40.38
865.432	26.54
865.6	52.78
865.768	18.87
865.936	-56.01
866.104	15.11
866.272	85.58
866.44	45.57
866.608	40.9
866.776	44.99
866.944	29.55
867.112	49.5
867.28	56.93
867.448	62.8
867.615	69.01
867.783	101.32
867.951	71.33
868.119	99.62
868.286	170
868.454	142.6
868.622	157.37
868.789	554.89
868.957	-741.63
869.125	-301.42
869.292	754.03
869.46	-257.38
869.627	-674.86
869.795	-73.82
869.963	1.95
870.13	24.53
870.298	46.3
870.465	75.83
870.632	95.56
870.8	96.15
870.967	79.09
871.135	131.92
871.302	-187.7
871.469	11.21
871.637	37.71
871.804	28.9
871.971	33.69
872.139	22.17
872.306	43.39
872.473	-165.33
872.64	20.55
872.807	16.99
872.975	17.26
873.142	15.14
873.309	49.49
873.476	47.14
873.643	69.79
873.81	89.48
873.977	119.89
874.144	137.13
874.311	223.19
874.478	133.91
874.645	71.26
874.812	-372.04
874.979	-2.36
875.146	5.97
875.313	-16.21
875.48	281.76
875.647	-371.3
875.813	-2254.43
875.98	1315.45
876.147	-40.42
876.314	32.27
876.481	38.42
876.647	54.92
876.814	112.79
876.981	85.53
877.147	80.53
877.314	96.66
877.481	172.83
877.647	282.26
877.814	257.7
877.98	247.16
878.147	-486.85
878.314	-247.98
878.48	648.99
878.647	237.99
878.813	-38.13
878.979	4.8
879.146	8.99
879.312	0.64
879.479	33.21
879.645	56.88
879.811	51.05
879.978	48.24
880.144	66.52
880.31	274.95
880.477	19.46
880.643	106.49
880.809	1856.1
880.975	-509.05
881.142	-364.29
881.308	-652.71
881.474	-120.11
881.64	8.31
881.806	10.99
881.972	48.37
882.138	73.81
882.304	57.17
882.47	42.78
882.636	74.75
882.802	72.58
882.968	54.08
883.134	51.14
883.3	69.2
883.466	44.32
883.632	56.62
883.798	90.06
883.964	118.07
884.129	72.93
884.295	123.23
884.461	-25.95
884.627	483.64
884.793	146.61
884.958	170.49
885.124	955.45
885.29	-187.43
885.455	-57.56
885.621	24.89
885.787	29.44
885.952	64.41
886.118	202.09
886.283	145.46
886.449	343.77
886.614	177.85
886.78	106.97
886.945	71.78
887.111	67.82
887.276	62.83
887.442	100
887.607	44.44
887.773	73.94
887.938	67.63
888.103	-106.15
888.269	-498.37
888.434	2288.24
888.599	87.07
888.764	1090.29
888.93	154.21
889.095	116.49
889.26	126.88
889.425	87.32
889.59	72.49
889.756	130.01
889.921	122.35
890.086	107.71
890.251	49.63
890.416	25.23
890.581	-58.48
890.746	-71.87
890.911	-6.65
891.076	124.76
891.241	64.74
891.406	22042.86
891.571	535.42
891.736	-45.71
891.901	47.04
892.065	19.83
892.23	73.12
892.395	21.38
892.56	-93.29
892.725	-27.74
892.889	-361.96
893.054	-647.02
893.219	-2084.17
893.384	-384.52
893.548	-379.24
893.713	-135.54
893.878	-390.05
