Data from Ofav_SP_Phys_0EV1_Reflection_1.txt Node
Date: Thu Aug 05 17:54:42 EDT 2021
User: Adam
Spectrometer: FLMT01687
Trigger mode: 0
Integration Time (sec): 8.000000E-1
Scans to average: 2
Electric dark correction enabled: true
Nonlinearity correction enabled: false
Boxcar width: 2
XAxis mode: Wavelengths
Number of Pixels in Spectrum: 3648
>>>>>Begin Spectral Data<<<<<
179.494	665.56
179.716	795.74
179.937	675.64
180.158	876.17
180.38	2390.85
180.601	-1382.39
180.823	-537.82
181.044	-248.94
181.265	-84.55
181.486	-2.47
181.708	-727.52
181.929	-256.43
182.15	-829.39
182.372	-89.71
182.593	-82.97
182.814	-334.74
183.035	-85.69
183.257	41.28
183.478	-226.44
183.699	250.46
183.92	21.89
184.141	437.67
184.363	-281.08
184.584	252.27
184.805	120.6
185.026	80.74
185.247	79.6
185.468	92.8
185.689	97.04
185.91	74.71
186.132	27.27
186.353	16.62
186.574	-40.92
186.795	-35.14
187.016	-19.24
187.237	13.19
187.458	-35.1
187.679	10.91
187.9	4.42
188.121	74.29
188.342	103.58
188.563	82.3
188.784	167.96
189.005	204.76
189.226	150.2
189.447	117.6
189.667	172.17
189.888	207.76
190.109	149.61
190.33	102.55
190.551	103.24
190.772	138.77
190.993	108.62
191.214	92.87
191.434	82.43
191.655	71.87
191.876	69.34
192.097	49.17
192.318	42.66
192.538	49.72
192.759	155.55
192.98	108.25
193.201	261.07
193.421	158.76
193.642	85.85
193.863	9.58
194.083	15.6
194.304	27.04
194.525	27.97
194.745	24.66
194.966	18.24
195.187	41.3
195.407	18.23
195.628	-9.4
195.848	24.21
196.069	42.92
196.29	28.8
196.51	61.39
196.731	61.97
196.951	61.42
197.172	74.57
197.392	74.38
197.613	68.6
197.833	94.05
198.054	119.15
198.274	104.25
198.495	115.4
198.715	123.87
198.936	137.68
199.156	78.5
199.377	67.54
199.597	76.91
199.817	55.68
200.038	58.7
200.258	49.34
200.479	58.47
200.699	29.82
200.919	31.85
201.14	-10.7
201.36	-6.14
201.58	26.02
201.801	-23.41
202.021	-17.07
202.241	65.41
202.461	21.56
202.682	-37.06
202.902	9.82
203.122	39.55
203.342	22.33
203.563	47.31
203.783	38.39
204.003	31.12
204.223	16.9
204.443	2.38
204.663	27.64
204.884	54.73
205.104	45.16
205.324	50.35
205.544	44.26
205.764	39.76
205.984	-5.17
206.204	5.73
206.424	31.66
206.644	41.88
206.864	55.34
207.084	73.99
207.304	128.2
207.525	118
207.745	88.16
207.964	57.49
208.184	69.34
208.404	-16.36
208.624	13.85
208.844	53.55
209.064	58.29
209.284	61
209.504	43.63
209.724	43.46
209.944	15.49
210.164	11.24
210.384	34.99
210.604	45.17
210.823	42.03
211.043	44.14
211.263	33.42
211.483	27.48
211.703	27.88
211.922	5.18
212.142	45.48
212.362	68.84
212.582	30.65
212.801	94.71
213.021	101.56
213.241	89.18
213.461	78.49
213.68	69.07
213.9	51.8
214.12	16.5
214.339	15.76
214.559	49.85
214.779	75.93
214.998	94.13
215.218	129.62
215.438	182.48
215.657	191.5
215.877	221.96
216.096	210.06
216.316	229.99
216.535	125.37
216.755	99.83
216.974	325.83
217.194	147.15
217.413	67.16
217.633	82.39
217.852	76.87
218.072	69.08
218.291	56.32
218.511	75.22
218.73	45.31
218.95	29.74
219.169	11.23
219.389	45.34
219.608	-13.52
219.827	57.09
220.047	89.53
220.266	77.18
220.485	85.71
220.705	91.01
220.924	50.35
221.143	30.77
221.363	-1.17
221.582	6.77
221.801	15.19
222.021	68.78
222.24	93.7
222.459	153.2
222.678	103.1
222.897	89.84
223.117	19.41
223.336	1.63
223.555	32.78
223.774	-26.15
223.993	-22.9
224.213	31.34
224.432	63.24
224.651	74.48
224.87	108.21
225.089	106.34
225.308	111.03
225.527	63.79
225.746	32.33
225.965	8.42
226.184	1.76
226.404	26.08
226.623	-4.43
226.842	7.89
227.061	28.47
227.28	48.68
227.499	37.96
227.718	61.84
227.936	56.03
228.155	40.25
228.374	32.76
228.593	36.81
228.812	32.27
229.031	58.5
229.25	78.4
229.469	87.54
229.688	81.13
229.907	63.45
230.125	43.75
230.344	47.8
230.563	31.72
230.782	54.2
231.001	83.15
231.22	96.61
231.438	64.3
231.657	30.6
231.876	32.18
232.095	27.17
232.313	15.41
232.532	10.73
232.751	42.5
232.969	47.59
233.188	62.46
233.407	27.81
233.625	50.47
233.844	15.21
234.063	-17.29
234.281	11.09
234.5	37.13
234.719	35.14
234.937	25.63
235.156	17.11
235.374	15.92
235.593	35.63
235.811	24.2
236.03	37.27
236.249	58.29
236.467	54.53
236.686	46.56
236.904	47.34
237.123	40.22
237.341	43.91
237.559	39.44
237.778	43.1
237.996	57.27
238.215	81.69
238.433	70.72
238.652	72.34
238.87	48.72
239.088	33.75
239.307	23.41
239.525	10.76
239.743	-12.52
239.962	21.39
240.18	39.96
240.398	39.88
240.617	30.29
240.835	100.64
241.053	65.67
241.271	30.75
241.49	42.68
241.708	36.99
241.926	17.03
242.144	-4.34
242.363	34.42
242.581	76.16
242.799	121.14
243.017	90.06
243.235	72.63
243.453	41.08
243.672	32.88
243.89	9.45
244.108	54.32
244.326	71.87
244.544	89.14
244.762	63.09
244.98	108.46
245.198	99.02
245.416	116.44
245.634	128.66
245.852	142.02
246.07	95.55
246.288	51.83
246.506	26.02
246.724	23.21
246.942	37.32
247.16	67.05
247.378	99.84
247.596	41.76
247.814	52.97
248.032	13.01
248.25	-11.37
248.468	14.87
248.685	39.37
248.903	17.94
249.121	14.28
249.339	34.47
249.557	30.99
249.775	21.95
249.992	12.78
250.21	52.29
250.428	17.82
250.646	19.23
250.863	36.77
251.081	47.19
251.299	23.99
251.517	68.08
251.734	62.52
251.952	16.64
252.17	56.63
252.387	22.76
252.605	14.28
252.823	30.33
253.04	44.46
253.258	46.39
253.475	79.01
253.693	72.82
253.911	84.75
254.128	79.53
254.346	65.11
254.563	59.86
254.781	71.2
254.998	57.81
255.216	51.55
255.433	41.69
255.651	71.38
255.868	13.17
256.086	3.24
256.303	-8.58
256.521	-10.33
256.738	-59.01
256.956	-108.9
257.173	0.42
257.39	54.17
257.608	43.6
257.825	40.64
258.043	49.93
258.26	26.65
258.477	15.24
258.695	33.67
258.912	52.15
259.129	45.5
259.346	52.43
259.564	48.73
259.781	47.42
259.998	44.72
260.216	53.29
260.433	59.66
260.65	62.99
260.867	46.3
261.084	20.82
261.302	6.01
261.519	17.25
261.736	38.25
261.953	40.41
262.17	42.19
262.387	105.64
262.604	91.72
262.822	134.32
263.039	179.3
263.256	216.94
263.473	143.48
263.69	191.11
263.907	141.76
264.124	154.9
264.341	92.83
264.558	88.97
264.775	51.37
264.992	65.36
265.209	40.98
265.426	34.7
265.643	36.8
265.86	42.62
266.077	29.85
266.294	30.32
266.51	48.56
266.727	65.41
266.944	88.79
267.161	73.39
267.378	65.42
267.595	39.25
267.812	11.25
268.028	-20.99
268.245	8.18
268.462	-2.18
268.679	17.79
268.896	25.87
269.112	24.48
269.329	34.79
269.546	49.58
269.763	55.75
269.979	80.79
270.196	101.21
270.413	84.21
270.629	96.71
270.846	86.96
271.063	50.77
271.279	54.83
271.496	28.51
271.712	-57.82
271.929	-78.64
272.146	3.35
272.362	-67.73
272.579	-36.41
272.795	7.37
273.012	27.52
273.228	-4.36
273.445	24.15
273.661	46.42
273.878	28.75
274.094	12.07
274.311	35.51
274.527	42.95
274.744	53.28
274.96	32.03
275.177	44.9
275.393	26.59
275.609	39.44
275.826	36.02
276.042	70.94
276.259	76.18
276.475	73.02
276.691	44.71
276.908	55.54
277.124	66.75
277.34	77.48
277.557	68.48
277.773	81.74
277.989	60.54
278.205	39.96
278.422	24.98
278.638	60.16
278.854	86.2
279.07	89.46
279.286	67.82
279.503	68.44
279.719	57.48
279.935	62.78
280.151	72.18
280.367	92.67
280.583	79.37
280.799	101.84
281.016	86.72
281.232	91.81
281.448	97.02
281.664	97
281.88	111.22
282.096	120.78
282.312	90.69
282.528	72.29
282.744	85.07
282.96	68.44
283.176	64.61
283.392	74.76
283.608	80.4
283.824	56.13
284.04	47.33
284.256	38.93
284.471	32.57
284.687	46.23
284.903	54.66
285.119	65.92
285.335	57.27
285.551	47.57
285.767	17.63
285.982	33.15
286.198	12.65
286.414	24.59
286.63	62.21
286.846	59.59
287.061	26.16
287.277	27.66
287.493	48.63
287.709	25.59
287.924	43.09
288.14	70.64
288.356	76.74
288.571	65.01
288.787	61.76
289.003	64.31
289.218	29.94
289.434	-14.16
289.65	-24.7
289.865	7.35
290.081	14.77
290.296	29.12
290.512	22.14
290.727	38.97
290.943	36.29
291.159	44.41
291.374	38.12
291.59	53.43
291.805	50.96
292.021	76.69
292.236	89.56
292.451	83.95
292.667	86.35
292.882	58.27
293.098	38.15
293.313	47.37
293.529	91.46
293.744	68.43
293.959	57.01
294.175	67.5
294.39	50.11
294.605	10.53
294.821	25.29
295.036	42.29
295.251	41.7
295.467	40.44
295.682	41.16
295.897	35.69
296.112	27.36
296.328	23.6
296.543	48.92
296.758	36.82
296.973	37.77
297.188	51.8
297.404	41.67
297.619	32.3
297.834	40.08
298.049	33.86
298.264	34.18
298.479	29.92
298.694	17.61
298.909	58.64
299.125	54.9
299.34	57.72
299.555	72.16
299.77	85.9
299.985	79.33
300.2	63.11
300.415	52.48
300.63	40.84
300.845	20.92
301.06	14.44
301.275	22.42
301.49	48.63
301.704	72.81
301.919	75.73
302.134	67.89
302.349	68.72
302.564	43.68
302.779	39.79
302.994	43.38
303.209	65.11
303.423	60
303.638	56.21
303.853	59.49
304.068	49.92
304.283	30.34
304.497	20.69
304.712	7.41
304.927	-6.66
305.142	-16.09
305.356	4.91
305.571	49.68
305.786	64.55
306	64.27
306.215	66.71
306.43	69.85
306.644	73.17
306.859	74.08
307.074	79.64
307.288	106.52
307.503	91.63
307.717	90.42
307.932	65.33
308.147	81.09
308.361	69.85
308.576	66.05
308.79	48.96
309.005	60.47
309.219	28.1
309.434	6.13
309.648	-27.36
309.863	-33.74
310.077	-77.43
310.292	-34.44
310.506	-9.25
310.72	20.64
310.935	46.53
311.149	83.67
311.364	67.59
311.578	56.62
311.792	79.17
312.007	71.35
312.221	48.92
312.435	61.04
312.649	73.76
312.864	45.11
313.078	50.4
313.292	69.69
313.507	78.53
313.721	76.05
313.935	79.22
314.149	82.62
314.363	83.01
314.578	53.98
314.792	55.11
315.006	74.48
315.22	54.11
315.434	18.02
315.648	40.78
315.862	53.58
316.077	7.52
316.291	2.53
316.505	48.56
316.719	33.69
316.933	25.09
317.147	23.46
317.361	40.09
317.575	29.02
317.789	43.7
318.003	48.46
318.217	78.69
318.431	105.91
318.645	118.49
318.859	123.58
319.073	98.18
319.287	105.29
319.5	55.72
319.714	25.04
319.928	66.79
320.142	97.23
320.356	74.44
320.57	86.07
320.784	110.24
320.997	61.93
321.211	44.96
321.425	28.58
321.639	-23.27
321.853	-14.42
322.066	-14.18
322.28	-19.48
322.494	-16.02
322.707	21.79
322.921	20.6
323.135	23.58
323.349	28.67
323.562	48.19
323.776	53.16
323.989	38.97
324.203	53.21
324.417	55.03
324.63	37.8
324.844	22.33
325.057	32.53
325.271	5.47
325.485	17.08
325.698	16.07
325.912	17.53
326.125	37.48
326.339	53.67
326.552	52.74
326.766	47.65
326.979	92.57
327.193	77.39
327.406	81.27
327.619	106.86
327.833	86.5
328.046	70.68
328.26	61.1
328.473	12.34
328.686	-8.04
328.9	8.77
329.113	-5.54
329.326	3.7
329.54	37.01
329.753	43.39
329.966	61.39
330.179	71.2
330.393	90
330.606	70.88
330.819	63.33
331.032	68.52
331.246	101.74
331.459	61.72
331.672	95.62
331.885	94.39
332.098	84.07
332.311	68.13
332.525	85.55
332.738	63.82
332.951	54.82
333.164	52.09
333.377	38.01
333.59	14.34
333.803	2.86
334.016	8.63
334.229	10.15
334.442	32.52
334.655	62.81
334.868	67.79
335.081	55.5
335.294	52.16
335.507	58.15
335.72	61.41
335.933	56.79
336.146	51.1
336.359	45.73
336.572	28.41
336.785	10.68
336.997	27.05
337.21	54.69
337.423	93.55
337.636	105.02
337.849	117.7
338.062	91.72
338.274	65.8
338.487	35.2
338.7	24.79
338.913	30.82
339.125	63.02
339.338	71.01
339.551	78.73
339.763	102.53
339.976	81.73
340.189	71.53
340.402	46.14
340.614	40.98
340.827	41.23
341.039	36.49
341.252	33.66
341.465	50.01
341.677	58.5
341.89	35.41
342.102	42.05
342.315	31.41
342.527	38.19
342.74	39.75
342.952	48.19
343.165	81.96
343.377	93.46
343.59	64.38
343.802	63.84
344.015	45.93
344.227	23.36
344.44	25.38
344.652	41.76
344.864	41.45
345.077	59.34
345.289	49.56
345.502	35.55
345.714	39.46
345.926	48.01
346.139	43.26
346.351	49.13
346.563	47.56
346.775	54.03
346.988	17.94
347.2	37.25
347.412	36.12
347.624	59.03
347.837	36.73
348.049	50.44
348.261	22.65
348.473	43.65
348.685	51.27
348.897	71.97
349.11	71.02
349.322	42.76
349.534	34.55
349.746	32.45
349.958	24.88
350.17	34.09
350.382	58.56
350.594	53.51
350.806	67.1
351.018	67.99
351.23	68.39
351.442	60.7
351.654	55.3
351.866	47.03
352.078	25.57
352.29	18.84
352.502	26.54
352.714	32.21
352.926	23.39
353.138	36.87
353.35	47.36
353.561	53.12
353.773	40.18
353.985	44.05
354.197	41.94
354.409	29.85
354.621	30.9
354.832	65.4
355.044	75.99
355.256	94.85
355.468	97.91
355.679	95.4
355.891	89.48
356.103	96.85
356.314	86.89
356.526	88.73
356.738	81.77
356.949	58.1
357.161	59.51
357.373	75.52
357.584	87.54
357.796	78.74
358.008	76.39
358.219	47.8
358.431	60.63
358.642	33.87
358.854	46.5
359.065	60.8
359.277	63.31
359.488	39.27
359.7	52.8
359.911	49.42
360.123	45.36
360.334	50.57
360.546	47.42
360.757	43.86
360.969	45.02
361.18	57.03
361.391	50.87
361.603	63.05
361.814	62.41
362.025	75.87
362.237	67.2
362.448	72.93
362.659	85.02
362.871	72.31
363.082	53.55
363.293	46.95
363.504	32.79
363.716	25.26
363.927	50.96
364.138	54.16
364.349	34.08
364.56	47.46
364.772	47.06
364.983	46.52
365.194	48.91
365.405	50.36
365.616	38.45
365.827	39.18
366.038	40.33
366.25	43.95
366.461	44.21
366.672	47.63
366.883	46.71
367.094	42.59
367.305	40.21
367.516	51.82
367.727	52.59
367.938	48.48
368.149	35.35
368.36	43.67
368.571	46.78
368.781	49.84
368.992	24.98
369.203	41.39
369.414	34.78
369.625	30.19
369.836	12.01
370.047	20.4
370.258	14.08
370.468	6.55
370.679	1.04
370.89	13.64
371.101	17
371.312	25.45
371.522	30.97
371.733	36.09
371.944	31.29
372.155	28.72
372.365	-1.49
372.576	1.51
372.787	0.17
372.997	6.75
373.208	13.86
373.419	44.78
373.629	36.15
373.84	59.88
374.05	51.62
374.261	63.26
374.472	65.59
374.682	61.64
374.893	45.21
375.103	39.96
375.314	25.21
375.524	14.62
375.735	26.56
375.945	41
376.156	41.71
376.366	50.8
376.577	52.95
376.787	60.37
376.997	54.4
377.208	62.39
377.418	55.13
377.629	52.56
377.839	64.66
378.049	70.01
378.26	55.57
378.47	66.94
378.68	86.09
378.89	71.83
379.101	60.23
379.311	76.94
379.521	72.38
379.732	68.46
379.942	63.02
380.152	73.09
380.362	79.78
380.572	71.45
380.783	43.42
380.993	47.33
381.203	46.19
381.413	37.76
381.623	30.52
381.833	41.68
382.043	45.67
382.253	37.67
382.463	45.02
382.674	54.4
382.884	46.9
383.094	29.11
383.304	27.21
383.514	12.07
383.724	-5.54
383.934	3.5
384.144	11.3
384.353	16.51
384.563	22.43
384.773	33.28
384.983	25.77
385.193	28.95
385.403	23.43
385.613	24.5
385.823	20.81
386.033	25.7
386.242	23.46
386.452	26.83
386.662	26.48
386.872	21.73
387.082	20.14
387.291	9.29
387.501	10.22
387.711	10.7
387.921	11.82
388.13	12.07
388.34	20.7
388.55	15.96
388.759	10.1
388.969	13.13
389.179	12.28
389.388	18.83
389.598	21.3
389.807	26.15
390.017	30.16
390.227	31.59
390.436	23.95
390.646	22.16
390.855	19.08
391.065	14.17
391.274	15.37
391.484	17.84
391.693	18.39
391.903	19.82
392.112	20.28
392.322	18.05
392.531	18.12
392.74	16.94
392.95	15.83
393.159	15.28
393.369	15.47
393.578	15.83
393.787	17.58
393.997	18.63
394.206	19.06
394.415	19.99
394.625	20.78
394.834	19.66
395.043	18.34
395.252	18.5
395.462	17.88
395.671	17.05
395.88	18.15
396.089	18.61
396.298	18.98
396.508	19.05
396.717	17.97
396.926	17.25
397.135	16.44
397.344	15.71
397.553	15.79
397.762	16.77
397.971	16.21
398.181	16.35
398.39	15.89
398.599	16.03
398.808	15.55
399.017	15.82
399.226	16.4
399.435	16.92
399.644	16.68
399.853	16.98
400.062	17.09
400.27	16.64
400.479	16.63
400.688	16.52
400.897	16.41
401.106	16.11
401.315	15.75
401.524	15.38
401.733	15.26
401.941	15.27
402.15	15.2
402.359	15.36
402.568	15.24
402.777	15.28
402.985	14.91
403.194	15.03
403.403	15.15
403.612	15.1
403.82	14.96
404.029	15.03
404.238	15.1
404.446	14.84
404.655	14.77
404.864	14.79
405.072	14.59
405.281	14.3
405.489	14.39
405.698	14.56
405.906	14.49
406.115	14.41
406.324	14.6
406.532	14.4
406.741	14.3
406.949	14.3
407.158	14.4
407.366	14.22
407.574	14.3
407.783	14.22
407.991	14.04
408.2	13.93
408.408	13.82
408.617	13.82
408.825	13.79
409.033	13.92
409.242	13.85
409.45	13.77
409.658	13.54
409.867	13.56
410.075	13.47
410.283	13.53
410.491	13.43
410.7	13.56
410.908	13.46
411.116	13.4
411.324	13.43
411.533	13.38
411.741	13.17
411.949	13.19
412.157	13.15
412.365	13.16
412.573	13.24
412.781	13.5
412.99	13.48
413.198	13.59
413.406	13.6
413.614	13.61
413.822	13.51
414.03	13.51
414.238	13.3
414.446	13.25
414.654	13.18
414.862	13.24
415.07	13.19
415.278	13.25
415.486	13.13
415.694	13.23
415.902	13.04
416.109	12.91
416.317	12.93
416.525	12.82
416.733	12.74
416.941	12.76
417.149	12.92
417.357	12.93
417.564	12.85
417.772	12.66
417.98	12.71
418.188	12.51
418.395	12.24
418.603	12.38
418.811	12.4
419.019	12.5
419.226	12.46
419.434	12.6
419.642	12.48
419.849	12.65
420.057	12.39
420.265	12.42
420.472	12.3
420.68	12.37
420.887	12.3
421.095	12.33
421.302	12.15
421.51	12.28
421.717	12.18
421.925	12.18
422.132	12.18
422.34	12.46
422.547	12.37
422.755	12.48
422.962	12.58
423.17	12.56
423.377	12.52
423.585	12.4
423.792	12.25
423.999	12.02
424.207	11.86
424.414	11.48
424.621	11.5
424.829	11.49
425.036	11.65
425.243	11.94
425.451	12.35
425.658	12.41
425.865	12.26
426.072	12.17
426.28	11.9
426.487	11.74
426.694	11.67
426.901	11.86
427.108	11.79
427.315	11.92
427.523	12.07
427.73	12.13
427.937	12.03
428.144	12.19
428.351	12.33
428.558	12.17
428.765	12.03
428.972	12.09
429.179	12.01
429.386	11.79
429.593	11.89
429.8	11.97
430.007	11.97
430.214	12.03
430.421	12.33
430.628	12.18
430.835	12.23
431.042	12.14
431.249	12.15
431.456	11.93
431.662	12.26
431.869	12.39
432.076	12.49
432.283	12.62
432.49	12.54
432.697	12.48
432.903	12.26
433.11	12.2
433.317	11.88
433.524	12.07
433.73	11.92
433.937	11.92
434.144	11.94
434.35	12.07
434.557	12.02
434.764	12.07
434.97	12.15
435.177	12.37
435.384	12.16
435.59	11.95
435.797	11.96
436.003	12.01
436.21	11.8
436.416	11.99
436.623	12.19
436.829	12.15
437.036	12.1
437.242	12.16
437.449	12.14
437.655	12.27
437.862	12.31
438.068	12.45
438.275	12.6
438.481	12.65
438.687	12.44
438.894	12.49
439.1	12.21
439.307	12.1
439.513	12.1
439.719	12.13
439.926	12.08
440.132	12.21
440.338	12.18
440.544	12.02
440.751	12.16
440.957	12.2
441.163	12.15
441.369	12.2
441.575	12.29
441.782	12.36
441.988	12.27
442.194	12.23
442.4	12.25
442.606	12.31
442.812	12.15
443.018	12.14
443.224	12.29
443.431	12.31
443.637	12.22
443.843	12.18
444.049	12.21
444.255	12.13
444.461	12.07
444.667	12.12
444.873	12.11
445.079	12.15
445.284	12.28
445.49	12.32
445.696	12.43
445.902	12.56
446.108	12.66
446.314	12.59
446.52	12.61
446.726	12.68
446.931	12.65
447.137	12.53
447.343	12.58
447.549	12.47
447.755	12.5
447.96	12.59
448.166	12.67
448.372	12.66
448.578	12.68
448.783	12.69
448.989	12.63
449.195	12.7
449.4	12.79
449.606	12.98
449.812	12.79
450.017	12.81
450.223	12.78
450.428	12.79
450.634	12.86
450.84	12.91
451.045	12.87
451.251	12.89
451.456	12.93
451.662	12.88
451.867	13.02
452.073	13.16
452.278	13.14
452.483	13.18
452.689	13.21
452.894	13.23
453.1	13.25
453.305	13.31
453.51	13.42
453.716	13.5
453.921	13.53
454.127	13.59
454.332	13.55
454.537	13.53
454.742	13.4
454.948	13.44
455.153	13.32
455.358	13.48
455.563	13.39
455.769	13.36
455.974	13.39
456.179	13.46
456.384	13.22
456.589	13.25
456.795	13.45
457	13.48
457.205	13.5
457.41	13.8
457.615	13.95
457.82	13.85
458.025	13.9
458.23	13.91
458.435	13.74
458.64	13.56
458.845	13.82
459.05	13.75
459.255	13.79
459.46	14.02
459.665	14.12
459.87	13.96
460.075	14.03
460.28	14.15
460.485	14.08
460.69	14.13
460.895	14.07
461.099	14.16
461.304	14.19
461.509	14.23
461.714	14.15
461.919	14.29
462.123	14.24
462.328	14.2
462.533	14.35
462.738	14.54
462.942	14.53
463.147	14.61
463.352	14.74
463.556	14.64
463.761	14.61
463.966	14.77
464.17	14.83
464.375	14.81
464.58	14.75
464.784	14.75
464.989	14.77
465.193	14.74
465.398	14.8
465.602	15.1
465.807	15.28
466.011	15.27
466.216	15.41
466.42	15.48
466.625	15.44
466.829	15.43
467.034	15.51
467.238	15.46
467.443	15.34
467.647	15.16
467.851	15.15
468.056	15.06
468.26	15.02
468.464	15.05
468.669	15.28
468.873	15.2
469.077	15.19
469.282	15.26
469.486	15.22
469.69	15.09
469.894	15.15
470.099	15.25
470.303	15.29
470.507	15.43
470.711	15.39
470.915	15.39
471.119	15.42
471.324	15.39
471.528	15.21
471.732	15.33
471.936	15.35
472.14	15.3
472.344	15.18
472.548	15.32
472.752	15.27
472.956	15.31
473.16	15.4
473.364	15.44
473.568	15.47
473.772	15.51
473.976	15.41
474.18	15.2
474.384	15.33
474.588	15.31
474.792	15.32
474.995	15.42
475.199	15.53
475.403	15.35
475.607	15.39
475.811	15.25
476.015	15.2
476.218	15.19
476.422	15.24
476.626	15.29
476.83	15.43
477.033	15.46
477.237	15.54
477.441	15.59
477.644	15.53
477.848	15.6
478.052	15.45
478.255	15.35
478.459	15.27
478.663	15.25
478.866	15.12
479.07	15.26
479.273	15.28
479.477	15.32
479.681	15.27
479.884	15.26
480.088	15.03
480.291	15.1
480.495	15.02
480.698	15.02
480.901	15
481.105	15.18
481.308	15.08
481.512	15.18
481.715	15.2
481.919	15.17
482.122	15.17
482.325	15.1
482.529	15.06
482.732	15.05
482.935	15
483.138	15.03
483.342	15.08
483.545	15.07
483.748	15.05
483.952	15.12
484.155	15.06
484.358	15.02
484.561	14.98
484.764	14.97
484.967	14.99
485.171	14.84
485.374	14.92
485.577	14.99
485.78	15.05
485.983	15.02
486.186	15.18
486.389	15.12
486.592	14.97
486.795	14.94
486.998	14.87
487.201	14.88
487.404	14.86
487.607	15.03
487.81	14.95
488.013	14.96
488.216	14.89
488.419	14.94
488.622	14.78
488.825	14.78
489.028	14.78
489.231	14.9
489.433	14.83
489.636	14.79
489.839	14.76
490.042	14.82
490.245	14.65
490.447	14.66
490.65	14.72
490.853	14.8
491.056	14.69
491.258	14.74
491.461	14.74
491.664	14.65
491.866	14.52
492.069	14.51
492.272	14.37
492.474	14.37
492.677	14.4
492.879	14.45
493.082	14.48
493.285	14.59
493.487	14.49
493.69	14.55
493.892	14.5
494.095	14.53
494.297	14.5
494.5	14.62
494.702	14.56
494.905	14.52
495.107	14.5
495.309	14.47
495.512	14.28
495.714	14.28
495.917	14.32
496.119	14.3
496.321	14.33
496.524	14.34
496.726	14.38
496.928	14.36
497.13	14.28
497.333	14.22
497.535	14.38
497.737	14.32
497.939	14.36
498.142	14.35
498.344	14.4
498.546	14.37
498.748	14.36
498.95	14.26
499.152	14.21
499.355	14.22
499.557	14.13
499.759	14.15
499.961	14.16
500.163	14.16
500.365	14.19
500.567	14.24
500.769	14.24
500.971	14.24
501.173	14.31
501.375	14.19
501.577	14.04
501.779	13.96
501.981	14.07
502.183	14.01
502.385	13.98
502.587	14
502.788	14.05
502.99	13.86
503.192	13.83
503.394	13.81
503.596	13.83
503.798	13.77
503.999	13.84
504.201	13.83
504.403	13.88
504.605	13.89
504.806	13.9
505.008	13.8
505.21	13.7
505.411	13.6
505.613	13.53
505.815	13.51
506.016	13.58
506.218	13.65
506.42	13.62
506.621	13.63
506.823	13.71
507.024	13.67
507.226	13.71
507.427	13.72
507.629	13.67
507.83	13.59
508.032	13.53
508.233	13.51
508.435	13.54
508.636	13.6
508.838	13.55
509.039	13.52
509.24	13.44
509.442	13.47
509.643	13.47
509.845	13.52
510.046	13.6
510.247	13.75
510.448	13.71
510.65	13.74
510.851	13.76
511.052	13.75
511.254	13.68
511.455	13.67
511.656	13.58
511.857	13.59
512.058	13.56
512.26	13.49
512.461	13.53
512.662	13.54
512.863	13.31
513.064	13.33
513.265	13.24
513.466	13.24
513.667	13.26
513.868	13.36
514.069	13.3
514.27	13.39
514.471	13.26
514.672	13.22
514.873	13.11
515.074	13.1
515.275	13.08
515.476	13.17
515.677	13.12
515.878	13.28
516.079	13.28
516.28	13.22
516.481	13.18
516.682	13.19
516.882	13.18
517.083	13.16
517.284	13.17
517.485	13.19
517.686	13.24
517.886	13.16
518.087	13.17
518.288	13.21
518.488	13.16
518.689	13.12
518.89	13.11
519.091	13.11
519.291	13.05
519.492	13.02
519.692	13.07
519.893	13.16
520.094	13.03
520.294	13
520.495	12.98
520.695	12.9
520.896	12.84
521.096	12.93
521.297	12.92
521.497	12.95
521.698	12.94
521.898	12.88
522.099	12.88
522.299	12.94
522.499	12.96
522.7	12.93
522.9	12.95
523.101	12.9
523.301	12.93
523.501	12.91
523.702	13
523.902	13.02
524.102	13.11
524.302	13.04
524.503	12.92
524.703	12.86
524.903	12.8
525.103	12.81
525.304	12.75
525.504	12.89
525.704	12.84
525.904	12.87
526.104	12.8
526.304	12.88
526.504	12.84
526.705	12.86
526.905	12.91
527.105	12.89
527.305	12.92
527.505	12.9
527.705	12.92
527.905	12.84
528.105	12.83
528.305	12.73
528.505	12.73
528.705	12.76
528.905	12.77
529.105	12.8
529.304	12.78
529.504	12.81
529.704	12.74
529.904	12.71
530.104	12.74
530.304	12.77
530.503	12.74
530.703	12.67
530.903	12.69
531.103	12.69
531.303	12.68
531.502	12.7
531.702	12.74
531.902	12.75
532.101	12.67
532.301	12.66
532.501	12.62
532.7	12.65
532.9	12.59
533.1	12.6
533.299	12.65
533.499	12.63
533.698	12.57
533.898	12.64
534.097	12.64
534.297	12.64
534.496	12.68
534.696	12.74
534.895	12.79
535.095	12.81
535.294	12.81
535.494	12.77
535.693	12.72
535.892	12.62
536.092	12.63
536.291	12.6
536.491	12.7
536.69	12.79
536.889	12.74
537.088	12.71
537.288	12.7
537.487	12.68
537.686	12.63
537.886	12.77
538.085	12.87
538.284	12.88
538.483	12.88
538.682	13
538.882	12.97
539.081	12.87
539.28	12.92
539.479	12.92
539.678	12.84
539.877	12.87
540.076	12.93
540.275	12.88
540.474	12.82
540.673	12.79
540.872	12.7
541.071	12.77
541.27	12.84
541.469	12.84
541.668	12.83
541.867	12.94
542.066	12.94
542.265	12.99
542.464	12.99
542.663	13.13
542.862	13.23
543.06	13.23
543.259	13.22
543.458	13.36
543.657	13.32
543.856	13.3
544.054	13.29
544.253	13.29
544.452	13.28
544.651	13.22
544.849	13.23
545.048	13.25
545.247	13.28
545.445	13.29
545.644	13.27
545.843	13.27
546.041	13.28
546.24	13.3
546.438	13.31
546.637	13.38
546.836	13.44
547.034	13.5
547.233	13.56
547.431	13.65
547.63	13.77
547.828	13.74
548.027	13.73
548.225	13.68
548.423	13.68
548.622	13.62
548.82	13.57
549.019	13.61
549.217	13.61
549.415	13.61
549.614	13.64
549.812	13.66
550.01	13.67
550.209	13.78
550.407	13.83
550.605	13.8
550.803	13.91
551.002	14
551.2	14.01
551.398	14.09
551.596	14.2
551.794	14.29
551.993	14.26
552.191	14.29
552.389	14.26
552.587	14.23
552.785	14.22
552.983	14.31
553.181	14.37
553.379	14.45
553.577	14.59
553.775	14.61
553.973	14.54
554.171	14.61
554.369	14.62
554.567	14.65
554.765	14.71
554.963	14.79
555.161	14.73
555.359	14.79
555.557	14.79
555.755	14.85
555.952	14.97
556.15	15.09
556.348	15.17
556.546	15.33
556.744	15.43
556.941	15.43
557.139	15.48
557.337	15.49
557.535	15.44
557.732	15.45
557.93	15.56
558.128	15.64
558.325	15.71
558.523	15.84
558.721	15.81
558.918	15.85
559.116	15.82
559.313	15.85
559.511	15.9
559.708	16.08
559.906	16.18
560.104	16.23
560.301	16.35
560.498	16.37
560.696	16.38
560.893	16.39
561.091	16.49
561.288	16.54
561.486	16.62
561.683	16.65
561.88	16.71
562.078	16.78
562.275	16.76
562.473	16.82
562.67	16.91
562.867	16.93
563.064	17.03
563.262	17.09
563.459	17.14
563.656	17.16
563.853	17.2
564.051	17.13
564.248	17.22
564.445	17.28
564.642	17.33
564.839	17.43
565.036	17.61
565.234	17.72
565.431	17.8
565.628	17.83
565.825	17.85
566.022	17.93
566.219	17.93
566.416	17.91
566.613	18.06
566.81	18.21
567.007	18.21
567.204	18.21
567.401	18.27
567.598	18.25
567.795	18.22
567.991	18.2
568.188	18.27
568.385	18.26
568.582	18.34
568.779	18.23
568.976	18.37
569.172	18.42
569.369	18.47
569.566	18.55
569.763	18.68
569.96	18.68
570.156	18.69
570.353	18.71
570.55	18.68
570.746	18.65
570.943	18.66
571.14	18.71
571.336	18.78
571.533	18.77
571.729	18.84
571.926	18.85
572.123	18.88
572.319	18.94
572.516	18.94
572.712	18.99
572.909	19.02
573.105	18.97
573.302	18.91
573.498	18.87
573.695	18.77
573.891	18.75
574.087	18.65
574.284	18.66
574.48	18.73
574.677	18.83
574.873	18.86
575.069	19.03
575.266	18.99
575.462	18.95
575.658	18.87
575.854	18.87
576.051	18.79
576.247	18.77
576.443	18.81
576.639	18.85
576.835	18.81
577.032	18.75
577.228	18.82
577.424	18.78
577.62	18.75
577.816	18.69
578.012	18.69
578.208	18.63
578.404	18.69
578.6	18.71
578.796	18.69
578.993	18.8
579.189	18.8
579.384	18.68
579.58	18.68
579.776	18.75
579.972	18.58
580.168	18.45
580.364	18.47
580.56	18.4
580.756	18.34
580.952	18.31
581.148	18.39
581.343	18.36
581.539	18.43
581.735	18.33
581.931	18.34
582.127	18.3
582.322	18.35
582.518	18.22
582.714	18.27
582.909	18.3
583.105	18.27
583.301	18.19
583.496	18.23
583.692	18.17
583.888	18.06
584.083	17.99
584.279	18.03
584.474	17.96
584.67	17.91
584.866	17.93
585.061	17.88
585.257	17.79
585.452	17.81
585.648	17.77
585.843	17.81
586.039	17.91
586.234	17.93
586.429	17.81
586.625	17.84
586.82	17.77
587.015	17.67
587.211	17.47
587.406	17.44
587.601	17.53
587.797	17.53
587.992	17.52
588.187	17.67
588.383	17.83
588.578	17.84
588.773	17.8
588.968	17.85
589.163	17.9
589.359	17.73
589.554	17.6
589.749	17.63
589.944	17.66
590.139	17.55
590.334	17.6
590.529	17.67
590.724	17.76
590.919	17.73
591.114	17.87
591.309	17.88
591.504	17.89
591.699	17.79
591.894	17.74
592.089	17.6
592.284	17.65
592.479	17.67
592.674	17.67
592.869	17.83
593.064	18.01
593.259	18.06
593.454	18.03
593.648	18.14
593.843	18.07
594.038	18.08
594.233	18.07
594.428	18.14
594.622	18.08
594.817	18.18
595.012	18.14
595.206	18.27
595.401	18.37
595.596	18.47
595.79	18.45
595.985	18.47
596.18	18.47
596.374	18.46
596.569	18.48
596.763	18.54
596.958	18.74
597.153	18.7
597.347	18.76
597.542	18.88
597.736	18.92
597.931	18.88
598.125	18.97
598.319	19.02
598.514	18.92
598.708	18.99
598.903	19.04
599.097	19.08
599.291	19.11
599.486	19.29
599.68	19.28
599.874	19.25
600.069	19.26
600.263	19.27
600.457	19.25
600.651	19.27
600.846	19.34
601.04	19.28
601.234	19.28
601.428	19.36
601.622	19.47
601.817	19.46
602.011	19.66
602.205	19.78
602.399	19.72
602.593	19.66
602.787	19.67
602.981	19.62
603.175	19.61
603.369	19.57
603.563	19.7
603.757	19.81
603.951	19.77
604.145	19.67
604.339	19.7
604.533	19.45
604.727	19.37
604.921	19.36
605.115	19.32
605.309	19.15
605.502	19.29
605.696	19.22
605.89	19.18
606.084	19.21
606.278	19.3
606.471	19.17
606.665	19.11
606.859	19.02
607.053	18.99
607.246	19
607.44	19.04
607.634	19
607.827	19.02
608.021	18.81
608.214	18.74
608.408	18.68
608.602	18.66
608.795	18.61
608.989	18.61
609.182	18.51
609.376	18.48
609.569	18.45
609.763	18.37
609.956	18.47
610.15	18.42
610.343	18.37
610.537	18.31
610.73	18.32
610.923	18.19
611.117	18.1
611.31	17.97
611.504	17.92
611.697	17.97
611.89	17.92
612.083	17.88
612.277	17.81
612.47	17.71
612.663	17.45
612.856	17.39
613.05	17.36
613.243	17.35
613.436	17.26
613.629	17.17
613.822	17.15
614.015	17.06
614.209	16.93
614.402	17.02
614.595	17.08
614.788	17.04
614.981	16.96
615.174	16.9
615.367	16.73
615.56	16.58
615.753	16.55
615.946	16.61
616.139	16.68
616.332	16.7
616.525	16.72
616.718	16.66
616.911	16.56
617.103	16.52
617.296	16.49
617.489	16.46
617.682	16.45
617.875	16.35
618.067	16.27
618.26	16.12
618.453	16
618.646	15.93
618.838	15.9
619.031	15.93
619.224	16.01
619.417	16.18
619.609	16.08
619.802	16.17
619.994	16.06
620.187	15.97
620.38	15.85
620.572	15.85
620.765	15.82
620.957	15.81
621.15	15.79
621.342	15.78
621.535	15.83
621.727	15.79
621.92	15.83
622.112	15.81
622.305	15.78
622.497	15.69
622.69	15.6
622.882	15.55
623.074	15.63
623.267	15.65
623.459	15.6
623.651	15.57
623.844	15.53
624.036	15.43
624.228	15.39
624.42	15.41
624.613	15.59
624.805	15.55
624.997	15.52
625.189	15.48
625.381	15.56
625.574	15.41
625.766	15.4
625.958	15.34
626.15	15.33
626.342	15.18
626.534	15.18
626.726	15.13
626.918	15.19
627.11	15.13
627.302	15.08
627.494	14.98
627.686	15
627.878	14.94
628.07	14.94
628.262	14.95
628.454	14.91
628.646	14.86
628.838	14.84
629.029	14.76
629.221	14.71
629.413	14.72
629.605	14.67
629.797	14.65
629.989	14.67
630.18	14.74
630.372	14.61
630.564	14.69
630.755	14.64
630.947	14.64
631.139	14.53
631.33	14.64
631.522	14.55
631.714	14.53
631.905	14.49
632.097	14.5
632.289	14.47
632.48	14.43
632.672	14.35
632.863	14.3
633.055	14.3
633.246	14.25
633.438	14.23
633.629	14.24
633.821	14.22
634.012	14.21
634.203	14.17
634.395	14.17
634.586	14.28
634.777	14.37
634.969	14.3
635.16	14.35
635.351	14.31
635.543	14.27
635.734	14.24
635.925	14.25
636.117	14.3
636.308	14.4
636.499	14.33
636.69	14.22
636.881	14.25
637.073	14.21
637.264	14.16
637.455	14.13
637.646	14.21
637.837	14.23
638.028	14.11
638.219	14.08
638.41	14.15
638.601	14.14
638.792	14.08
638.983	14.14
639.174	14.07
639.365	13.97
639.556	13.95
639.747	13.95
639.938	14.04
640.129	14.11
640.32	14.11
640.511	14.13
640.701	14.1
640.892	14.05
641.083	13.99
641.274	13.96
641.465	13.94
641.655	13.93
641.846	13.87
642.037	13.85
642.228	13.87
642.418	13.85
642.609	13.82
642.8	13.88
642.99	13.84
643.181	13.77
643.372	13.78
643.562	13.78
643.753	13.8
643.943	13.81
644.134	13.81
644.324	13.79
644.515	13.91
644.705	13.78
644.896	13.82
645.086	13.84
645.277	13.85
645.467	13.76
645.658	13.77
645.848	13.64
646.038	13.6
646.229	13.64
646.419	13.6
646.61	13.71
646.8	13.86
646.99	13.94
647.18	13.84
647.371	13.81
647.561	13.71
647.751	13.69
647.941	13.63
648.132	13.67
648.322	13.71
648.512	13.76
648.702	13.76
648.892	13.62
649.082	13.62
649.272	13.51
649.462	13.39
649.653	13.41
649.843	13.56
650.033	13.52
650.223	13.59
650.413	13.59
650.603	13.61
650.793	13.55
650.983	13.48
651.172	13.41
651.362	13.39
651.552	13.2
651.742	13.03
651.932	13.05
652.122	13.06
652.312	13.05
652.502	13.09
652.691	13.24
652.881	13.26
653.071	13.33
653.261	13.22
653.45	13.11
653.64	13.09
653.83	12.95
654.019	12.83
654.209	12.78
654.399	12.81
654.588	12.63
654.778	12.67
654.968	12.56
655.157	12.7
655.347	12.69
655.536	12.69
655.726	12.55
655.915	12.54
656.105	12.32
656.294	12.21
656.484	12.14
656.673	12.17
656.863	12.14
657.052	12.07
657.241	11.96
657.431	12
657.62	11.87
657.809	11.78
657.999	11.88
658.188	11.8
658.377	11.69
658.567	11.6
658.756	11.52
658.945	11.39
659.134	11.39
659.324	11.31
659.513	11.28
659.702	11.14
659.891	11.08
660.08	10.91
660.269	10.86
660.458	10.8
660.648	10.82
660.837	10.68
661.026	10.62
661.215	10.62
661.404	10.47
661.593	10.35
661.782	10.22
661.971	10.31
662.16	10.15
662.349	10.1
662.538	10.1
662.726	10.21
662.915	10.18
663.104	10.22
663.293	10.19
663.482	10.2
663.671	10.19
663.86	10.13
664.048	10.11
664.237	10.25
664.426	10.13
664.615	9.98
664.803	9.89
664.992	9.82
665.181	9.74
665.369	9.75
665.558	9.73
665.747	9.81
665.935	9.88
666.124	9.89
666.312	9.9
666.501	10.02
666.69	9.97
666.878	9.86
667.067	9.81
667.255	10.05
667.444	10.04
667.632	10.19
667.82	10.23
668.009	10.22
668.197	10.01
668.386	9.86
668.574	9.71
668.762	9.84
668.951	9.88
669.139	9.81
669.327	9.94
669.516	9.95
669.704	9.86
669.892	9.85
670.08	9.92
670.269	9.81
670.457	9.86
670.645	9.81
670.833	9.82
671.021	9.83
671.21	10.02
671.398	9.95
671.586	9.9
671.774	9.95
671.962	10.08
672.15	10.04
672.338	10.17
672.526	10.37
672.714	10.5
672.902	10.26
673.09	10.14
673.278	10.09
673.466	10.07
673.654	10.07
673.842	10.16
674.03	10.43
674.218	10.45
674.405	10.45
674.593	10.5
674.781	10.71
674.969	10.54
675.157	10.6
675.344	10.58
675.532	10.63
675.72	10.64
675.908	10.69
676.095	10.72
676.283	10.83
676.471	10.68
676.658	10.71
676.846	10.8
677.033	10.94
677.221	10.84
677.409	10.91
677.596	10.87
677.784	10.98
677.971	10.95
678.159	11.03
678.346	11.07
678.534	11.05
678.721	11.11
678.909	11.16
679.096	11.24
679.283	11.27
679.471	11.3
679.658	11.28
679.846	11.06
680.033	11.32
680.22	11.53
680.408	11.57
680.595	11.55
680.782	11.73
680.969	11.59
681.157	11.43
681.344	11.48
681.531	11.58
681.718	11.68
681.905	11.78
682.093	11.82
682.28	11.89
682.467	11.98
682.654	11.92
682.841	11.87
683.028	11.95
683.215	12.11
683.402	12.1
683.589	12.19
683.776	12.29
683.963	12.45
684.15	12.54
684.337	12.66
684.524	12.92
684.711	13
684.898	13.08
685.085	13.1
685.271	13.1
685.458	13.14
685.645	13.15
685.832	13.15
686.019	13.08
686.205	13.15
686.392	13.17
686.579	13.45
686.766	13.73
686.952	14.06
687.139	14.38
687.326	14.45
687.512	14.47
687.699	14.42
687.886	14.54
688.072	14.46
688.259	14.87
688.445	15.17
688.632	15.2
688.818	15.44
689.005	15.64
689.191	15.78
689.378	15.85
689.564	16.26
689.751	16.32
689.937	16.68
690.124	16.76
690.31	17.01
690.496	17.49
690.683	17.9
690.869	18.1
691.055	18.51
691.242	18.91
691.428	19.09
691.614	19.41
691.8	19.89
691.987	20.29
692.173	20.82
692.359	21.35
692.545	21.85
692.731	22.19
692.918	22.56
693.104	22.73
693.29	23.04
693.476	23.53
693.662	24.09
693.848	24.81
694.034	25.43
694.22	26.27
694.406	26.75
694.592	27.11
694.778	27.36
694.964	27.93
695.15	28.04
695.336	28.31
695.522	28.81
695.708	29.39
695.894	29.85
696.08	30.54
696.265	31.28
696.451	32.05
696.637	32.65
696.823	33.21
697.009	33.73
697.194	34.26
697.38	34.6
697.566	35.12
697.751	35.45
697.937	35.9
698.123	36.72
698.308	37.44
698.494	37.97
698.68	39.03
698.865	39.69
699.051	40.11
699.236	40.9
699.422	41.74
699.607	42.15
699.793	42.67
699.978	43.22
700.164	43.52
700.349	43.94
700.535	44.52
700.72	45.27
700.906	45.54
701.091	46.01
701.276	46.6
701.462	46.98
701.647	47.66
701.832	48.36
702.018	48.96
702.203	49.57
702.388	50.23
702.573	50.53
702.759	51.4
702.944	51.64
703.129	51.78
703.314	52.15
703.499	52.56
703.684	52.69
703.87	53.23
704.055	53.68
704.24	54.27
704.425	54.97
704.61	55.47
704.795	56.08
704.98	56.72
705.165	57
705.35	56.98
705.535	57.46
705.72	57.82
705.905	57.92
706.09	58.22
706.275	58.7
706.459	58.75
706.644	58.7
706.829	59.57
707.014	60.1
707.199	60.57
707.384	60.74
707.568	61.53
707.753	61.81
707.938	61.95
708.123	62.35
708.307	62.9
708.492	63.01
708.677	62.68
708.861	62.91
709.046	62.8
709.231	63.21
709.415	63.56
709.6	63.7
709.784	64.08
709.969	64.56
710.153	65.05
710.338	65.4
710.522	66.04
710.707	65.95
710.891	66.07
711.076	65.83
711.26	65.6
711.445	66.33
711.629	66.92
711.813	67.3
711.998	67.71
712.182	68.09
712.366	68.09
712.551	68.07
712.735	68.14
712.919	68.01
713.103	68.57
713.288	68.38
713.472	68.83
713.656	68.81
713.84	69.51
714.024	69.82
714.208	70.13
714.393	70.07
714.577	70.55
714.761	70.32
714.945	70.47
715.129	70.69
715.313	71.28
715.497	71.38
715.681	71.68
715.865	71.68
716.049	71.81
716.233	71.14
716.417	71.04
716.601	70.88
716.785	71.25
716.968	70.81
717.152	71.24
717.336	71.95
717.52	72.08
717.704	71.76
717.888	72.65
718.071	73.4
718.255	73.46
718.439	73.82
718.622	74.02
718.806	73.67
718.99	72.99
719.174	72.77
719.357	73
719.541	73.47
719.724	73.96
719.908	74
720.092	74.24
720.275	74.14
720.459	73.95
720.642	73.65
720.826	74.05
721.009	74.13
721.193	74.18
721.376	73.94
721.559	74.48
721.743	74.73
721.926	74.81
722.11	75.08
722.293	75.5
722.476	75.79
722.66	76.41
722.843	76.23
723.026	76.72
723.21	76.83
723.393	76.64
723.576	76.22
723.759	76.73
723.942	77.13
724.126	77.46
724.309	77.64
724.492	78.21
724.675	78.2
724.858	78.17
725.041	78.11
725.224	77.59
725.407	77.9
725.59	78.69
725.774	77.9
725.957	78.24
726.14	78.81
726.322	78.46
726.505	77.41
726.688	77.93
726.871	77.93
727.054	78.4
727.237	78.74
727.42	79.95
727.603	80.37
727.786	80.68
727.968	80.71
728.151	80.49
728.334	80.2
728.517	80.9
728.699	80.83
728.882	81.66
729.065	82.08
729.248	81.89
729.43	81.81
729.613	82.15
729.796	82.2
729.978	83.04
730.161	83.11
730.343	83.68
730.526	83.57
730.708	83.18
730.891	81.85
731.073	82.74
731.256	81.76
731.438	81.86
731.621	81.37
731.803	82.89
731.986	83.6
732.168	84.38
732.35	84.83
732.533	86.18
732.715	86.01
732.898	84.98
733.08	85.06
733.262	85.79
733.444	84.78
733.627	84.48
733.809	84.59
733.991	84.49
734.173	84.03
734.355	84.67
734.538	84.16
734.72	84.54
734.902	85.32
735.084	85.73
735.266	85.6
735.448	87.31
735.63	87.52
735.812	87.12
735.994	86.03
736.176	86.78
736.358	86.19
736.54	87.05
736.722	86.47
736.904	87.79
737.086	87.32
737.268	87.23
737.45	86.27
737.632	86.64
737.814	86.51
737.995	87.6
738.177	87.66
738.359	87.83
738.541	88.1
738.723	88.2
738.904	87.39
739.086	87.86
739.268	88.57
739.449	89.23
739.631	89.46
739.813	90.32
739.994	90.24
740.176	90.07
740.358	90.26
740.539	90.66
740.721	90.27
740.902	90.54
741.084	91.18
741.265	90.25
741.447	89.64
741.628	89.15
741.81	88.61
741.991	88.2
742.172	89.69
742.354	90.41
742.535	90.96
742.717	92.14
742.898	91.78
743.079	91.76
743.261	91.52
743.442	92.26
743.623	92.09
743.804	92.09
743.986	90.35
744.167	88.68
744.348	88.94
744.529	88.89
744.71	88.67
744.891	89.42
745.073	90.54
745.254	90.54
745.435	90.51
745.616	91.36
745.797	90.91
745.978	91.6
746.159	91.03
746.34	91.74
746.521	92.09
746.702	93.79
746.883	94.02
747.064	92.8
747.245	91.07
747.426	89.87
747.606	89.06
747.787	89.47
747.968	90.26
748.149	90.29
748.33	90.34
748.51	89.97
748.691	88.49
748.872	89.56
749.053	90.22
749.233	91.19
749.414	91.78
749.595	93.09
749.775	91.63
749.956	90.59
750.137	89.55
750.317	89.77
750.498	89.17
750.678	89.4
750.859	91.35
751.04	91.65
751.22	90.03
751.4	90.11
751.581	90.44
751.761	89
751.942	89.3
752.122	90.62
752.303	90.61
752.483	91.33
752.663	92.4
752.844	92.07
753.024	91.53
753.204	92.05
753.385	90.44
753.565	89.65
753.745	90.12
753.925	92.26
754.106	92.13
754.286	93.22
754.466	93.02
754.646	93.68
754.826	92.1
755.006	90.93
755.187	91.65
755.367	92.42
755.547	89.77
755.727	89
755.907	88.27
756.087	88.28
756.267	87.57
756.447	90.54
756.627	90.64
756.807	93.04
756.987	92.45
757.167	93.71
757.346	93.06
757.526	92.55
757.706	92.44
757.886	92.48
758.066	92.65
758.246	91.83
758.425	91.9
758.605	91.3
758.785	91.03
758.965	90.09
759.144	90.62
759.324	91.83
759.504	92.58
759.683	93.49
759.863	92.88
760.043	93.71
760.222	94.3
760.402	93.26
760.581	93.97
760.761	94.57
760.94	91.53
761.12	90.03
761.299	90.17
761.479	88.92
761.658	88.17
761.838	88.96
762.017	89
762.197	90.24
762.376	91.22
762.555	89.73
762.735	92.12
762.914	90.35
763.093	88.89
763.273	87.72
763.452	89.61
763.631	88.43
763.81	89.65
763.99	89.78
764.169	91.39
764.348	90.42
764.527	88.84
764.706	90.19
764.885	90.4
765.064	87.95
765.243	88.88
765.423	88.84
765.602	85.78
765.781	85
765.96	83.25
766.139	83
766.318	84.43
766.497	87.29
766.676	86.21
766.854	87.85
767.033	87.91
767.212	86.29
767.391	86.47
767.57	87.16
767.749	88.48
767.928	88.04
768.106	90.07
768.285	88.24
768.464	89.51
768.643	88.1
768.821	87.26
769	86.93
769.179	86.92
769.357	86.03
769.536	86.98
769.715	89.07
769.893	87.84
770.072	89.93
770.25	89.45
770.429	89.36
770.607	86.46
770.786	89.23
770.964	87.57
771.143	88.26
771.321	86.57
771.5	91.96
771.678	88.73
771.857	87.76
772.035	85.92
772.213	87.13
772.392	83.04
772.57	86
772.748	86.29
772.927	87.41
773.105	85.83
773.283	85.74
773.461	84.36
773.64	85.6
773.818	84.65
773.996	86.59
774.174	87.57
774.352	87.53
774.531	85.05
774.709	85
774.887	84.56
775.065	82.45
775.243	81.79
775.421	83.31
775.599	85.05
775.777	83.35
775.955	79.86
776.133	81.36
776.311	81.98
776.489	80.73
776.667	81.25
776.844	86.49
777.022	84.34
777.2	86
777.378	86.58
777.556	88.9
777.734	87.56
777.911	90.24
778.089	90.57
778.267	89.24
778.445	87.5
778.622	85.9
778.8	83.63
778.978	81.13
779.155	81.72
779.333	81.26
779.511	79
779.688	78.58
779.866	75.12
780.043	74.26
780.221	74.45
780.398	77.23
780.576	76.56
780.753	81.09
780.931	82.03
781.108	81.38
781.286	83.11
781.463	79.88
781.64	78.26
781.818	78.88
781.995	78.84
782.172	78.53
782.35	84.43
782.527	81.22
782.704	81.62
782.882	82.66
783.059	81.19
783.236	74.84
783.413	78.25
783.59	76.73
783.768	73.17
783.945	75.39
784.122	82.77
784.299	82.74
784.476	84.25
784.653	88.68
784.83	88.33
785.007	83.52
785.184	84.21
785.361	85.55
785.538	83.36
785.715	79.32
785.892	79.84
786.069	80.15
786.246	78.99
786.423	81.92
786.6	88.39
786.776	87.78
786.953	88
787.13	84.34
787.307	83.54
787.484	82.27
787.66	83.11
787.837	80.74
788.014	83.97
788.191	84.74
788.367	82.07
788.544	86.75
788.721	89.1
788.897	86.75
789.074	86.45
789.25	84.33
789.427	82.03
789.603	84.91
789.78	87.14
789.956	84.62
790.133	87.06
790.309	86
790.486	77.77
790.662	77.8
790.839	73.51
791.015	75.19
791.192	73.87
791.368	78.51
791.544	77.22
791.721	81.49
791.897	78.7
792.073	82.09
792.249	79.31
792.426	80.05
792.602	78.49
792.778	77.62
792.954	72.77
793.13	74.26
793.307	73.85
793.483	72.92
793.659	74.73
793.835	82.77
794.011	81.46
794.187	73.02
794.363	75.06
794.539	74.96
794.715	66.23
794.891	66.38
795.067	71.46
795.243	78.41
795.419	77.32
795.595	78.34
795.771	76.53
795.947	80.27
796.122	68.76
796.298	72.98
796.474	73.71
796.65	73.84
796.826	69.19
797.001	74.06
797.177	74.38
797.353	79.85
797.529	81.71
797.704	83.63
797.88	81.96
798.056	77.6
798.231	74.77
798.407	74.38
798.582	75.75
798.758	77.73
798.934	81.04
799.109	81.08
799.285	84.47
799.46	85.68
799.636	87.26
799.811	82.05
799.986	87.79
800.162	85.91
800.337	86.06
800.513	83.12
800.688	90.22
800.863	79.99
801.039	80.8
801.214	75.44
801.389	74.15
801.565	73.47
801.74	82.02
801.915	77.39
802.09	82.08
802.265	83.09
802.441	84.6
802.616	83.44
802.791	87.69
802.966	91.65
803.141	89.32
803.316	74.54
803.491	62.79
803.666	66.33
803.841	68.03
804.016	78.16
804.191	93.58
804.366	104.44
804.541	99.21
804.716	95.21
804.891	84.33
805.066	81.26
805.241	84.92
805.416	87.19
805.591	87.64
805.765	88.9
805.94	82.3
806.115	78.23
806.29	66.18
806.464	75.6
806.639	78.8
806.814	76.57
806.989	65.37
807.163	84.39
807.338	72.2
807.512	73.68
807.687	69.99
807.862	74.27
808.036	64.41
808.211	65.11
808.385	54.54
808.56	59.47
808.734	63.14
808.909	62.69
809.083	56.91
809.258	61.16
809.432	71.75
809.606	64.84
809.781	64.36
809.955	72.42
810.13	77.8
810.304	69.06
810.478	69.53
810.652	76.3
810.827	71.38
811.001	70.98
811.175	73.01
811.349	79.88
811.524	86.43
811.698	93.21
811.872	92.39
812.046	97.67
812.22	94.69
812.394	73.13
812.568	74.36
812.742	87.34
812.916	79.94
813.09	86.65
813.264	101.04
813.438	100.27
813.612	98.43
813.786	97.2
813.96	86.97
814.134	93.34
814.308	92.43
814.482	90.48
814.656	102.02
814.83	101.93
815.003	103.39
815.177	110.99
815.351	97.17
815.525	88.74
815.698	87.53
815.872	76.6
816.046	64.4
816.219	69.9
816.393	79.1
816.567	93.63
816.74	106.45
816.914	130.54
817.088	146.84
817.261	151.9
817.435	136.98
817.608	140.97
817.782	122.29
817.955	114.18
818.129	114.77
818.302	95.91
818.475	94.23
818.649	97.74
818.822	86.8
818.996	77.67
819.169	82.8
819.342	84.29
819.516	74.59
819.689	81.27
819.862	95.47
820.035	103.48
820.209	78.35
820.382	87.92
820.555	79.43
820.728	65.34
820.901	48.57
821.075	71.67
821.248	75.78
821.421	74.56
821.594	78.96
821.767	91.13
821.94	80.39
822.113	47.47
822.286	42.53
822.459	36.26
822.632	36.04
822.805	65.74
822.978	92.56
823.151	96.85
823.324	105.19
823.496	63.91
823.669	28.55
823.842	35.06
824.015	28.55
824.188	14.37
824.361	27.43
824.533	30.77
824.706	30.99
824.879	55.56
825.051	65.31
825.224	79.33
825.397	88.23
825.569	93.91
825.742	94.3
825.915	90.86
826.087	90.21
826.26	77.67
826.432	85.06
826.605	71.28
826.777	67.76
826.95	68.02
827.122	76.64
827.295	61.69
827.467	63.66
827.64	41.92
827.812	33.89
827.984	38.2
828.157	42.24
828.329	46.46
828.501	82.4
828.674	88.93
828.846	99.96
829.018	103.55
829.19	122.35
829.363	103.62
829.535	110.85
829.707	83.43
829.879	75.92
830.051	54.51
830.223	81.76
830.395	57.42
830.568	50.82
830.74	51.14
830.912	65.2
831.084	47.71
831.256	57.3
831.428	58.41
831.6	63.82
831.772	70.41
831.943	44.6
832.115	52.16
832.287	83.7
832.459	82.08
832.631	74.44
832.803	92.25
832.975	86.82
833.146	79.43
833.318	72.69
833.49	72.18
833.662	78.66
833.833	89.37
834.005	82.47
834.177	102.34
834.348	102.8
834.52	93.78
834.692	121.18
834.863	109.34
835.035	97.13
835.206	89.31
835.378	101.39
835.549	98.68
835.721	111.39
835.892	98.31
836.064	150.27
836.235	148.97
836.407	160.6
836.578	146.74
836.749	180.02
836.921	145.13
837.092	148.94
837.264	112.97
837.435	97.13
837.606	77.6
837.777	49.84
837.949	40.99
838.12	-15.61
838.291	10.38
838.462	41.82
838.633	43.8
838.805	47.01
838.976	107.79
839.147	114.38
839.318	130.26
839.489	105.31
839.66	122.9
839.831	98.63
840.002	126.1
840.173	81.32
840.344	69.32
840.515	50.82
840.686	40.04
840.857	41.18
841.028	40.92
841.199	58.17
841.369	63.44
841.54	63.55
841.711	73.19
841.882	54.44
842.053	68.51
842.223	51.93
842.394	40.8
842.565	41.85
842.736	70.67
842.906	45.85
843.077	73.95
843.248	76.14
843.418	66.8
843.589	49.56
843.759	106.66
843.93	262.3
844.101	405.62
844.271	197.21
844.442	220.68
844.612	155.5
844.783	90.99
844.953	44.1
845.123	50.63
845.294	33.9
845.464	32.94
845.635	71.44
845.805	126.97
845.975	123.24
846.146	180.4
846.316	250.55
846.486	200.7
846.656	213.55
846.827	176.69
846.997	110.12
847.167	124.09
847.337	74.97
847.507	87.05
847.677	77.49
847.848	105.31
848.018	109.35
848.188	139.19
848.358	92.92
848.528	131.52
848.698	130.08
848.868	111.02
849.038	75.71
849.208	100.82
849.378	73.19
849.548	21.27
849.718	273.35
849.887	-281.77
850.057	4851.61
850.227	-480.69
850.397	-421.48
850.567	71.79
850.737	55.56
850.906	20.63
851.076	-6.2
851.246	42.74
851.415	25.91
851.585	47.72
851.755	61.31
851.924	96.11
852.094	103.66
852.264	83.22
852.433	56.99
852.603	84.79
852.772	66.28
852.942	73.29
853.111	54.28
853.281	98.48
853.45	79.56
853.62	94.61
853.789	37.94
853.959	198.44
854.128	-140.53
854.297	-14.09
854.467	164.25
854.636	17.64
854.805	55.79
854.975	2.85
855.144	16.98
855.313	32.37
855.482	74.66
855.652	64.34
855.821	115.2
855.99	174.91
856.159	597.9
856.328	138.42
856.497	189.24
856.667	157.33
856.836	127.9
857.005	93.69
857.174	81.54
857.343	86.61
857.512	41.41
857.681	8.99
857.85	-34.49
858.019	-26.57
858.188	-13.28
858.356	-28.99
858.525	4.77
858.694	34.65
858.863	23.77
859.032	-22.41
859.201	-21.95
859.369	9.36
859.538	10.71
859.707	5.31
859.876	27.9
860.044	36.09
860.213	61.42
860.382	97.1
860.55	81.96
860.719	114.11
860.888	109.85
861.056	118.33
861.225	94.07
861.393	184.74
861.562	243.5
861.73	292.18
861.899	229.81
862.067	455.56
862.236	378.18
862.404	143.03
862.572	71.25
862.741	-32.92
862.909	29.9
863.078	39.62
863.246	45.22
863.414	108.15
863.582	93.73
863.751	151.09
863.919	160.61
864.087	164.53
864.255	174.17
864.424	109.99
864.592	18.25
864.76	90.6
864.928	102.66
865.096	88.46
865.264	123.96
865.432	171.69
865.6	180.7
865.768	61.69
865.936	-32.77
866.104	-272.28
866.272	-44.35
866.44	-118.78
866.608	-75.89
866.776	17.72
866.944	22.94
867.112	26.63
867.28	-6.89
867.448	33.96
867.615	6.28
867.783	27.45
867.951	-28.54
868.119	49.25
868.286	81.46
868.454	49.54
868.622	84.46
868.789	529.67
868.957	-1120.36
869.125	-488.26
869.292	576.3
869.46	-96.85
869.627	-182.86
869.795	-50.81
869.963	40.64
870.13	63.7
870.298	81.42
870.465	58.68
870.632	34.76
870.8	24.73
870.967	58.02
871.135	51.23
871.302	-224.61
871.469	253.75
871.637	84.32
871.804	24.48
871.971	-20.96
872.139	10.86
872.306	39.74
872.473	526.63
872.64	113.73
872.807	99.51
872.975	51.58
873.142	51.84
873.309	40.39
873.476	56.91
873.643	53.79
873.81	57.83
873.977	54.06
874.144	94.28
874.311	222.97
874.478	186.88
874.645	-6.71
874.812	-538.39
874.979	-115.68
875.146	-96.32
875.313	-438.74
875.48	131.5
875.647	414.5
875.813	567.09
875.98	24.03
876.147	41.07
876.314	50.42
876.481	-16.34
876.647	16.42
876.814	73.75
876.981	154.03
877.147	144.83
877.314	50.45
877.481	137.97
877.647	-11.18
877.814	-20.53
877.98	-31.9
878.147	-298.15
878.314	-215.82
878.48	1517.41
878.647	616.84
878.813	2273.38
878.979	127.09
879.146	55.39
879.312	-25.72
879.479	25.42
879.645	45.82
879.811	-30.04
879.978	4.91
880.144	121.33
880.31	284.19
880.477	-91.28
880.643	-761.08
880.809	-4663.41
880.975	502.51
881.142	-181.4
881.308	-196.39
881.474	88.17
881.64	82.87
881.806	36.53
881.972	59.71
882.138	69.59
882.304	52.61
882.47	0.76
882.636	55.59
882.802	57.33
882.968	49.73
883.134	47.16
883.3	66.9
883.466	64.49
883.632	90.44
883.798	54.59
883.964	37.43
884.129	-9.29
884.295	-42.84
884.461	-401.17
884.627	502.6
884.793	38.08
884.958	-167.16
885.124	-681.19
885.29	52.22
885.455	95.15
885.621	15.5
885.787	-10.19
885.952	-47.85
886.118	27.97
886.283	52.65
886.449	104.33
886.614	36.93
886.78	90.31
886.945	63.19
887.111	22.15
887.276	8.72
887.442	51.88
887.607	66.64
887.773	94.73
887.938	129.86
888.103	280.38
888.269	373.84
888.434	-1223.53
888.599	89.58
888.764	2601.94
888.93	124.22
889.095	104.73
889.26	85.7
889.425	119.17
889.59	68.7
889.756	119.28
889.921	61.2
890.086	73.49
890.251	65.6
890.416	64.87
890.581	26.61
890.746	185.35
890.911	236.23
891.076	484.18
891.241	200.22
891.406	15828.57
891.571	244.49
891.736	171.37
891.901	310.87
892.065	40.19
892.23	-4.48
892.395	5.44
892.56	150.34
892.725	459.37
892.889	397.27
893.054	535.1
893.219	-446.04
893.384	42.26
893.548	-242.79
893.713	-161.57
893.878	-203.14
