Data from Ofav_SP_Phys_6JQ16_Reflection_1.txt Node
Date: Thu Aug 05 17:54:04 EDT 2021
User: Adam
Spectrometer: FLMT01687
Trigger mode: 0
Integration Time (sec): 8.000000E-1
Scans to average: 2
Electric dark correction enabled: true
Nonlinearity correction enabled: false
Boxcar width: 2
XAxis mode: Wavelengths
Number of Pixels in Spectrum: 3648
>>>>>Begin Spectral Data<<<<<
179.494	687.69
179.716	834.24
179.937	672.51
180.158	794.44
180.38	1754.92
180.601	-826.81
180.823	-54.62
181.044	44.13
181.265	44.17
181.486	-193.96
181.708	234.23
181.929	-117.27
182.15	-112.24
182.372	65.65
182.593	-31.05
182.814	-48.18
183.035	0.09
183.257	495.73
183.478	-382.71
183.699	339.51
183.92	139.89
184.141	-791.48
184.363	610.27
184.584	15.64
184.805	-5.81
185.026	62.62
185.247	84.86
185.468	65.22
185.689	73.55
185.91	60.4
186.132	-66.51
186.353	-87.42
186.574	-207.42
186.795	-229.51
187.016	-199.95
187.237	-92.73
187.458	-396.52
187.679	-39.41
187.9	-13.83
188.121	-16.02
188.342	-27.45
188.563	14.32
188.784	20.09
189.005	-50.53
189.226	32.91
189.447	82.01
189.667	106.85
189.888	252.19
190.109	196.21
190.33	122.31
190.551	67.17
190.772	104.61
190.993	77.61
191.214	72.61
191.434	56.72
191.655	53.51
191.876	48.86
192.097	28.75
192.318	41.26
192.538	55.03
192.759	102.41
192.98	64.78
193.201	242.98
193.421	114.84
193.642	79.62
193.863	20.18
194.083	21.98
194.304	12.64
194.525	9.36
194.745	21.15
194.966	39.97
195.187	51.56
195.407	74.14
195.628	32.77
195.848	34.26
196.069	38.08
196.29	29.28
196.51	52.17
196.731	58.47
196.951	54
197.172	59.25
197.392	79.28
197.613	56.77
197.833	47.88
198.054	33.75
198.274	17.39
198.495	5.28
198.715	14.99
198.936	-29.69
199.156	36.58
199.377	39.33
199.597	35.78
199.817	30.68
200.038	35.28
200.258	40.45
200.479	33.2
200.699	21
200.919	4.52
201.14	-39.42
201.36	-100.55
201.58	-70.87
201.801	-150.35
202.021	-79.92
202.241	1.61
202.461	-4.9
202.682	-35.96
202.902	-90.84
203.122	-223.9
203.342	-37.05
203.563	-22.4
203.783	26.21
204.003	61.74
204.223	47.06
204.443	24.22
204.663	46.74
204.884	29.45
205.104	34.15
205.324	44.17
205.544	40.79
205.764	36.4
205.984	43.37
206.204	16.04
206.424	14.78
206.644	6.03
206.864	-11.33
207.084	-62.18
207.304	18.27
207.525	-7.6
207.745	42.3
207.964	43.32
208.184	73.64
208.404	8.82
208.624	12.58
208.844	-48.38
209.064	-34.03
209.284	6.45
209.504	-6.82
209.724	-18.74
209.944	-17.29
210.164	-34.11
210.384	-6.6
210.604	-9.45
210.823	24.61
211.043	21.21
211.263	32.01
211.483	22.99
211.703	34.29
211.922	10.84
212.142	41.98
212.362	24.46
212.582	28.37
212.801	12.35
213.021	38.06
213.241	34.72
213.461	17.57
213.68	24.94
213.9	27.76
214.12	-10.31
214.339	-11.2
214.559	26.44
214.779	-14.13
214.998	-5.36
215.218	17.07
215.438	32.71
215.657	114.51
215.877	144.56
216.096	76.37
216.316	87.13
216.535	47.95
216.755	-127.13
216.974	-296.83
217.194	4.89
217.413	23.86
217.633	14.81
217.852	30.61
218.072	24.2
218.291	-12.42
218.511	-14
218.73	-12.77
218.95	-31.26
219.169	-48.63
219.389	25.37
219.608	-17.42
219.827	6.53
220.047	31.47
220.266	43.8
220.485	19.03
220.705	48.5
220.924	23.93
221.143	5.52
221.363	-11.83
221.582	-23.84
221.801	-66.68
222.021	12.49
222.24	25.47
222.459	68.54
222.678	71.45
222.897	81.58
223.117	38.07
223.336	41.76
223.555	23.45
223.774	-18.24
223.993	-13.46
224.213	19.34
224.432	9.84
224.651	25.7
224.87	49.1
225.089	63.73
225.308	54.79
225.527	35.19
225.746	1.95
225.965	-7.9
226.184	-28.36
226.404	-11.24
226.623	-30.81
226.842	12.2
227.061	31.29
227.28	41.04
227.499	45
227.718	35.02
227.936	17.21
228.155	2.8
228.374	16.44
228.593	37.34
228.812	70.74
229.031	78.15
229.25	87.98
229.469	80.5
229.688	57.95
229.907	30.75
230.125	8.17
230.344	-12.32
230.563	-30.55
230.782	-88.95
231.001	-77.24
231.22	17.95
231.438	62.81
231.657	35.85
231.876	19.06
232.095	27.86
232.313	-20.05
232.532	-41.08
232.751	-3.45
232.969	15.77
233.188	18.36
233.407	25.5
233.625	59.99
233.844	5.23
234.063	19.67
234.281	37.2
234.5	54.21
234.719	42.14
234.937	43.86
235.156	27.05
235.374	-2.71
235.593	-22.34
235.811	-26.85
236.03	3.1
236.249	-6.51
236.467	10.27
236.686	-11.56
236.904	6.59
237.123	-11.71
237.341	40.1
237.559	21.12
237.778	46.32
237.996	44.25
238.215	50.58
238.433	30.35
238.652	34.28
238.87	-4.98
239.088	-18.23
239.307	-2.57
239.525	-25.24
239.743	-40.21
239.962	-3.36
240.18	10.97
240.398	-28.09
240.617	-42.57
240.835	-23.42
241.053	-35.47
241.271	-40.8
241.49	-3.69
241.708	-9.16
241.926	15.72
242.144	-35.03
242.363	-55.88
242.581	-30.22
242.799	-39.24
243.017	-64.1
243.235	-32.18
243.453	-25.6
243.672	-48.98
243.89	-19.41
244.108	6.54
244.326	27.28
244.544	54.14
244.762	25.38
244.98	47.48
245.198	45.38
245.416	49.25
245.634	36.54
245.852	81.01
246.07	56.22
246.288	46.63
246.506	44.21
246.724	37.25
246.942	5.62
247.16	-13.58
247.378	-63.86
247.596	-44.42
247.814	-34.11
248.032	-41.58
248.25	-64.95
248.468	-41.74
248.685	-27.98
248.903	-22.94
249.121	-28.95
249.339	-6.38
249.557	-10.85
249.775	-23.5
249.992	-75.04
250.21	-24.88
250.428	-28.89
250.646	-33.38
250.863	1.91
251.081	49.76
251.299	26.14
251.517	36.11
251.734	60.09
251.952	20.06
252.17	28.11
252.387	26.96
252.605	40.12
252.823	27.96
253.04	27.54
253.258	25
253.475	40.57
253.693	26.9
253.911	37.26
254.128	46.04
254.346	37.55
254.563	38.73
254.781	50.85
254.998	40.02
255.216	7.37
255.433	19.08
255.651	21.3
255.868	-49.18
256.086	-46.62
256.303	-16.83
256.521	-57.56
256.738	-67.83
256.956	-102.01
257.173	9.99
257.39	50.84
257.608	46.28
257.825	20.73
258.043	25.24
258.26	17.91
258.477	5.42
258.695	20.68
258.912	31.31
259.129	33.4
259.346	25.37
259.564	31.47
259.781	36.68
259.998	33.52
260.216	36.82
260.433	31.73
260.65	18.46
260.867	-24.68
261.084	17.28
261.302	22.58
261.519	34.82
261.736	49.92
261.953	49.53
262.17	36.23
262.387	68.86
262.604	88.28
262.822	100.45
263.039	78.96
263.256	100.4
263.473	46.08
263.69	48.85
263.907	38.11
264.124	58.66
264.341	29.79
264.558	27.42
264.775	0.72
264.992	15.22
265.209	15.8
265.426	-7.79
265.643	-6.57
265.86	-2.93
266.077	-23.38
266.294	-52.36
266.51	-21.48
266.727	-6.84
266.944	18.81
267.161	24.65
267.378	41.29
267.595	41.52
267.812	33.51
268.028	-2.42
268.245	8.62
268.462	-9.71
268.679	-4.94
268.896	7.27
269.112	6.24
269.329	46.43
269.546	56.17
269.763	50.42
269.979	49.38
270.196	72.36
270.413	39.92
270.629	51.32
270.846	34.93
271.063	42.77
271.279	33.7
271.496	-1.09
271.712	-109.41
271.929	-84.68
272.146	-60.78
272.362	-97.42
272.579	-53.99
272.795	-16.14
273.012	22.47
273.228	15.83
273.445	25.62
273.661	51.65
273.878	24.45
274.094	8.55
274.311	14.48
274.527	8.19
274.744	-8.83
274.96	15.81
275.177	-5.13
275.393	-6.18
275.609	24.89
275.826	36.14
276.042	43.16
276.259	56.39
276.475	43.38
276.691	26.88
276.908	23.74
277.124	42.71
277.34	34.66
277.557	20.28
277.773	3.01
277.989	-7.54
278.205	-34.28
278.422	0.31
278.638	26.31
278.854	51.92
279.07	59.86
279.286	21.79
279.503	13.55
279.719	-7.5
279.935	-16.94
280.151	-22.64
280.367	27.99
280.583	21.76
280.799	46.91
281.016	41.06
281.232	40.21
281.448	19.61
281.664	1.92
281.88	-11.86
282.096	7.03
282.312	16.09
282.528	26.35
282.744	64.79
282.96	64.68
283.176	69.91
283.392	62.98
283.608	77.48
283.824	66.11
284.04	51.25
284.256	33.21
284.471	24.9
284.687	24.32
284.903	21.12
285.119	34.5
285.335	32.18
285.551	23.52
285.767	21.78
285.982	16.15
286.198	-40.25
286.414	-35.36
286.63	10.43
286.846	-9.18
287.061	13.36
287.277	20.77
287.493	44.28
287.709	33.35
287.924	40.82
288.14	41.09
288.356	50.4
288.571	45.84
288.787	48.58
289.003	56.63
289.218	42.71
289.434	21.66
289.65	7
289.865	27.26
290.081	18.37
290.296	30.89
290.512	25.18
290.727	31.95
290.943	18.04
291.159	15.84
291.374	19.09
291.59	27.66
291.805	30.91
292.021	50.15
292.236	60.87
292.451	39.22
292.667	11.98
292.882	-22.29
293.098	-19.33
293.313	5.52
293.529	20.94
293.744	26.38
293.959	21.07
294.175	41.12
294.39	12.69
294.605	1.62
294.821	10.79
295.036	20.78
295.251	14.41
295.467	39.88
295.682	45.27
295.897	41.72
296.112	35.16
296.328	30.98
296.543	27.77
296.758	-3.56
296.973	5.49
297.188	32.94
297.404	24.47
297.619	10.26
297.834	13.07
298.049	-24.83
298.264	-60.14
298.479	-66.34
298.694	-69.99
298.909	-31.7
299.125	16.82
299.34	22.49
299.555	19.41
299.77	48.76
299.985	37.55
300.2	24.9
300.415	27.02
300.63	13.86
300.845	-10.44
301.06	23.15
301.275	17.08
301.49	22.25
301.704	57.73
301.919	43.74
302.134	34.1
302.349	42.79
302.564	23.26
302.779	39.72
302.994	29.64
303.209	33.28
303.423	18.09
303.638	26.27
303.853	5.73
304.068	20.8
304.283	3
304.497	5.52
304.712	10.43
304.927	-5.37
305.142	-13.19
305.356	-4.57
305.571	27.56
305.786	39.36
306	48.15
306.215	65.32
306.43	89.79
306.644	79.84
306.859	69.69
307.074	79.14
307.288	75.32
307.503	58.6
307.717	48.44
307.932	42.58
308.147	37.88
308.361	33.03
308.576	13.18
308.79	9.53
309.005	22.7
309.219	2.94
309.434	-32.29
309.648	-89.59
309.863	-92.25
310.077	-200.41
310.292	-177.58
310.506	-100.45
310.72	-40.24
310.935	-24.61
311.149	-22.58
311.364	16.54
311.578	29.22
311.792	43.21
312.007	23.44
312.221	37.51
312.435	36.15
312.649	27.09
312.864	-7.95
313.078	-12.4
313.292	3.08
313.507	8.94
313.721	5.73
313.935	18.72
314.149	43.6
314.363	35.81
314.578	30.75
314.792	24.05
315.006	36.81
315.22	2.39
315.434	-22.77
315.648	-108.08
315.862	-135.29
316.077	-92.84
316.291	-11.91
316.505	19.68
316.719	43.26
316.933	50.24
317.147	41.74
317.361	18.97
317.575	5.36
317.789	12.6
318.003	9.88
318.217	26.78
318.431	43.56
318.645	58.2
318.859	32.93
319.073	20.93
319.287	-9.82
319.5	4.97
319.714	-7.79
319.928	36.02
320.142	44.36
320.356	45.98
320.57	58.23
320.784	58.23
320.997	-6.47
321.211	-8.01
321.425	-15.05
321.639	-72.06
321.853	-64.91
322.066	-42.56
322.28	-47.25
322.494	-51.39
322.707	-5.52
322.921	4.15
323.135	3.7
323.349	16.69
323.562	20.33
323.776	25.67
323.989	2.41
324.203	7.94
324.417	10.41
324.63	8.47
324.844	-22.48
325.057	-14.23
325.271	-35.11
325.485	-26.47
325.698	-24.89
325.912	-25.92
326.125	-12.04
326.339	9.44
326.552	-26.02
326.766	-23.16
326.979	-0.91
327.193	6.46
327.406	0.17
327.619	31.33
327.833	15.47
328.046	34.76
328.26	36.33
328.473	35.33
328.686	11.25
328.9	-1.3
329.113	-5.41
329.326	-11.46
329.54	4.43
329.753	13.86
329.966	31.08
330.179	22.79
330.393	49.18
330.606	48.57
330.819	37.17
331.032	55.36
331.246	79.24
331.459	30.56
331.672	41.8
331.885	63.44
332.098	63.89
332.311	36.76
332.525	53.48
332.738	39.6
332.951	12.12
333.164	17.68
333.377	20.46
333.59	9.23
333.803	-10.45
334.016	-1.49
334.229	-22.21
334.442	9.65
334.655	28.52
334.868	47.61
335.081	36.52
335.294	55.32
335.507	44.1
335.72	49.45
335.933	44.38
336.146	48.25
336.359	42.31
336.572	41.71
336.785	25.52
336.997	29.97
337.21	55.59
337.423	54.88
337.636	40.34
337.849	49.47
338.062	40.79
338.274	16.19
338.487	15.59
338.7	16.53
338.913	7.15
339.125	2.4
339.338	4.45
339.551	-18.88
339.763	26.59
339.976	42.09
340.189	51.45
340.402	32.87
340.614	39.02
340.827	38.06
341.039	30.84
341.252	26.08
341.465	27.32
341.677	27.13
341.89	-12.5
342.102	-14.29
342.315	-34.7
342.527	1.69
342.74	3.4
342.952	1.58
343.165	36.49
343.377	47.27
343.59	-8.62
343.802	-7.76
344.015	13.64
344.227	-6.04
344.44	5.73
344.652	28.23
344.864	37.75
345.077	49.51
345.289	40.01
345.502	32.04
345.714	29.18
345.926	23.45
346.139	7.08
346.351	16.77
346.563	-8.01
346.775	-5.06
346.988	-37.58
347.2	-19.46
347.412	-45.64
347.624	15.61
347.837	7.15
348.049	18.28
348.261	4.25
348.473	25.43
348.685	48.67
348.897	77.02
349.11	93
349.322	89.57
349.534	68.89
349.746	44.23
349.958	45.2
350.17	43.65
350.382	44.8
350.594	55.12
350.806	51.83
351.018	35.53
351.23	27.97
351.442	38.03
351.654	35.51
351.866	29.87
352.078	21.2
352.29	28.24
352.502	36.29
352.714	16.78
352.926	22.31
353.138	19.38
353.35	20
353.561	13.86
353.773	24.01
353.985	31.33
354.197	50.17
354.409	43.38
354.621	26.27
354.832	39.76
355.044	39.45
355.256	46.95
355.468	51.65
355.679	60.88
355.891	69.44
356.103	57.59
356.314	50.25
356.526	41.22
356.738	42.08
356.949	-6.26
357.161	19.17
357.373	5.11
357.584	23.92
357.796	36.23
358.008	59.09
358.219	42.09
358.431	67.97
358.642	45.28
358.854	52.47
359.065	57.51
359.277	54.38
359.488	42.52
359.7	50.01
359.911	25.77
360.123	11.09
360.334	14.39
360.546	16.84
360.757	14.69
360.969	21.24
361.18	53.1
361.391	43.03
361.603	43.5
361.814	37.09
362.025	69.02
362.237	48.39
362.448	48.58
362.659	59.75
362.871	42.15
363.082	22.65
363.293	10.89
363.504	14.62
363.716	-11.19
363.927	29.99
364.138	22.67
364.349	15.82
364.56	23.21
364.772	26.16
364.983	28.43
365.194	36.78
365.405	50.95
365.616	25.58
365.827	30.37
366.038	27.48
366.25	13.16
366.461	2.05
366.672	9.78
366.883	2.83
367.094	-6.53
367.305	0.81
367.516	17.83
367.727	23.08
367.938	28.53
368.149	19.8
368.36	20.15
368.571	7.61
368.781	-1.81
368.992	-27.84
369.203	9.42
369.414	28.31
369.625	40.16
369.836	29.95
370.047	12.6
370.258	10.79
370.468	7.2
370.679	-4.14
370.89	1.99
371.101	22.98
371.312	24.82
371.522	17.44
371.733	23.65
371.944	24.6
372.155	29.25
372.365	-2.43
372.576	10.79
372.787	17.46
372.997	26.55
373.208	26.97
373.419	68.01
373.629	51.44
373.84	50.59
374.05	45.52
374.261	41.85
374.472	31.87
374.682	30.64
374.893	22.22
375.103	19.67
375.314	26.46
375.524	46.22
375.735	44.01
375.945	58.58
376.156	49.24
376.366	47.24
376.577	35.34
376.787	31.7
376.997	27.43
377.208	38.56
377.418	32.03
377.629	48.4
377.839	58.53
378.049	65.55
378.26	54.27
378.47	60.04
378.68	56.38
378.89	38.79
379.101	19.55
379.311	23.67
379.521	18.78
379.732	18.2
379.942	28.15
380.152	24.3
380.362	26.06
380.572	32.01
380.783	15.4
380.993	16.74
381.203	32.67
381.413	29.2
381.623	24.25
381.833	29.56
382.043	31.03
382.253	21.91
382.463	29.13
382.674	26.29
382.884	19.41
383.094	12.04
383.304	5.26
383.514	-1.58
383.724	-9.73
383.934	-0.34
384.144	-3.99
384.353	-0.31
384.563	4.83
384.773	16.95
384.983	7.13
385.193	16.8
385.403	19.03
385.613	15.87
385.823	11.67
386.033	14.61
386.242	11.78
386.452	10.44
386.662	12.36
386.872	8.79
387.082	13.03
387.291	1.29
387.501	0.81
387.711	-1.78
387.921	-0.41
388.13	-3.1
388.34	6.76
388.55	6.31
388.759	6.66
388.969	5.25
389.179	6.54
389.388	10.07
389.598	11.72
389.807	14.19
390.017	16.42
390.227	12.42
390.436	7.25
390.646	4.42
390.855	-0
391.065	-0.05
391.274	4.4
391.484	4.75
391.693	5.25
391.903	6.36
392.112	7.03
392.322	5.13
392.531	6.27
392.74	6.38
392.95	6.7
393.159	5.83
393.369	6.64
393.578	6.72
393.787	7.18
393.997	6.94
394.206	7.1
394.415	8.12
394.625	8.86
394.834	8.07
395.043	7.76
395.252	8.04
395.462	7.4
395.671	6.48
395.88	8.1
396.089	8.41
396.298	8.76
396.508	8.3
396.717	8.13
396.926	6.82
397.135	6.43
397.344	5.73
397.553	6.51
397.762	7.06
397.971	7.61
398.181	7.49
398.39	7.23
398.599	6.83
398.808	6.61
399.017	6.41
399.226	6.7
399.435	6.87
399.644	6.85
399.853	6.8
400.062	6.86
400.27	6.54
400.479	6.28
400.688	6.21
400.897	6.55
401.106	6.42
401.315	6.57
401.524	6.73
401.733	6.65
401.941	6.32
402.15	6.38
402.359	6.19
402.568	6.06
402.777	6.26
402.985	6.18
403.194	6.03
403.403	6.27
403.612	6.29
403.82	5.94
404.029	5.84
404.238	5.9
404.446	5.73
404.655	5.72
404.864	5.77
405.072	5.72
405.281	5.68
405.489	5.8
405.698	5.91
405.906	5.95
406.115	5.9
406.324	5.93
406.532	5.64
406.741	5.51
406.949	5.27
407.158	5.52
407.366	5.51
407.574	5.73
407.783	5.84
407.991	5.92
408.2	5.68
408.408	5.64
408.617	5.54
408.825	5.47
409.033	5.52
409.242	5.51
409.45	5.4
409.658	5.38
409.867	5.32
410.075	5.45
410.283	5.64
410.491	5.62
410.7	5.76
410.908	5.77
411.116	5.76
411.324	5.6
411.533	5.57
411.741	5.4
411.949	5.39
412.157	5.3
412.365	5.42
412.573	5.36
412.781	5.4
412.99	5.45
413.198	5.53
413.406	5.54
413.614	5.61
413.822	5.52
414.03	5.44
414.238	5.28
414.446	5.38
414.654	5.43
414.862	5.46
415.07	5.37
415.278	5.4
415.486	5.11
415.694	5.19
415.902	5.26
416.109	5.32
416.317	5.39
416.525	5.19
416.733	5.09
416.941	5.14
417.149	5.17
417.357	5.14
417.564	5.04
417.772	4.87
417.98	4.72
418.188	4.57
418.395	4.44
418.603	4.79
418.811	4.85
419.019	4.93
419.226	5.17
419.434	5.23
419.642	5.09
419.849	5.22
420.057	5.14
420.265	4.96
420.472	4.83
420.68	4.89
420.887	4.71
421.095	4.81
421.302	4.79
421.51	4.79
421.717	4.9
421.925	4.93
422.132	4.79
422.34	4.8
422.547	4.95
422.755	4.71
422.962	4.86
423.17	4.9
423.377	4.94
423.585	5.03
423.792	5.17
423.999	5.03
424.207	4.83
424.414	4.46
424.621	4.31
424.829	4.33
425.036	4.38
425.243	4.69
425.451	5.06
425.658	4.99
425.865	5.03
426.072	4.99
426.28	4.68
426.487	4.66
426.694	4.62
426.901	4.62
427.108	4.75
427.315	5.1
427.523	5.08
427.73	5.11
427.937	5.02
428.144	4.81
428.351	4.73
428.558	4.76
428.765	4.67
428.972	4.63
429.179	4.73
429.386	4.76
429.593	4.77
429.8	4.86
430.007	4.79
430.214	4.75
430.421	4.79
430.628	4.71
430.835	4.88
431.042	4.98
431.249	5.08
431.456	4.99
431.662	5.31
431.869	5.43
432.076	5.5
432.283	5.48
432.49	5.4
432.697	5.22
432.903	4.91
433.11	4.75
433.317	4.73
433.524	4.83
433.73	4.8
433.937	4.9
434.144	4.95
434.35	5
434.557	5.11
434.764	5.05
434.97	4.97
435.177	5.17
435.384	4.87
435.59	4.64
435.797	4.73
436.003	4.76
436.21	4.49
436.416	4.69
436.623	4.74
436.829	4.76
437.036	4.68
437.242	4.82
437.449	4.91
437.655	5.02
437.862	5.09
438.068	5.31
438.275	5.39
438.481	5.38
438.687	5.21
438.894	5.24
439.1	5.06
439.307	5.04
439.513	5.03
439.719	5.12
439.926	5.09
440.132	5.29
440.338	5.31
440.544	5.33
440.751	5.48
440.957	5.43
441.163	5.31
441.369	5.3
441.575	5.27
441.782	5.21
441.988	5.21
442.194	5.13
442.4	5.06
442.606	5.08
442.812	5.05
443.018	4.92
443.224	5.04
443.431	5.16
443.637	5.12
443.843	5.06
444.049	5.13
444.255	5.18
444.461	5.12
444.667	5.16
444.873	5.17
445.079	5.15
445.284	5.18
445.49	5.23
445.696	5.24
445.902	5.27
446.108	5.27
446.314	5.16
446.52	5.16
446.726	5.26
446.931	5.29
447.137	5.27
447.343	5.31
447.549	5.24
447.755	5.26
447.96	5.32
448.166	5.32
448.372	5.38
448.578	5.39
448.783	5.39
448.989	5.38
449.195	5.49
449.4	5.48
449.606	5.59
449.812	5.51
450.017	5.58
450.223	5.58
450.428	5.59
450.634	5.56
450.84	5.62
451.045	5.5
451.251	5.46
451.456	5.55
451.662	5.53
451.867	5.57
452.073	5.68
452.278	5.77
452.483	5.72
452.689	5.78
452.894	5.8
453.1	5.84
453.305	5.79
453.51	5.81
453.716	5.88
453.921	5.84
454.127	5.84
454.332	5.8
454.537	5.88
454.742	5.81
454.948	5.79
455.153	5.77
455.358	5.75
455.563	5.74
455.769	5.7
455.974	5.76
456.179	5.68
456.384	5.59
456.589	5.57
456.795	5.66
457	5.6
457.205	5.71
457.41	5.9
457.615	5.93
457.82	5.93
458.025	5.9
458.23	5.88
458.435	5.81
458.64	5.76
458.845	5.91
459.05	5.98
459.255	6
459.46	6.16
459.665	6.26
459.87	6.09
460.075	6.07
460.28	6.11
460.485	6.09
460.69	6.05
460.895	5.95
461.099	6.12
461.304	6.16
461.509	6.16
461.714	6.2
461.919	6.4
462.123	6.38
462.328	6.35
462.533	6.33
462.738	6.44
462.942	6.47
463.147	6.4
463.352	6.4
463.556	6.41
463.761	6.31
463.966	6.3
464.17	6.41
464.375	6.48
464.58	6.45
464.784	6.49
464.989	6.51
465.193	6.37
465.398	6.51
465.602	6.78
465.807	6.95
466.011	7.02
466.216	7.14
466.42	7.08
466.625	7.07
466.829	7.03
467.034	7.02
467.238	6.99
467.443	6.9
467.647	6.68
467.851	6.58
468.056	6.5
468.26	6.46
468.464	6.48
468.669	6.71
468.873	6.73
469.077	6.77
469.282	6.88
469.486	6.85
469.69	6.7
469.894	6.71
470.099	6.79
470.303	6.76
470.507	6.8
470.711	6.83
470.915	6.9
471.119	6.92
471.324	6.97
471.528	6.94
471.732	7.01
471.936	6.86
472.14	6.81
472.344	6.84
472.548	6.89
472.752	6.89
472.956	6.93
473.16	6.93
473.364	6.92
473.568	6.94
473.772	6.91
473.976	6.97
474.18	7.01
474.384	7.01
474.588	7.01
474.792	6.94
474.995	6.9
475.199	6.82
475.403	6.71
475.607	6.82
475.811	6.84
476.015	6.81
476.218	6.8
476.422	6.81
476.626	6.76
476.83	6.81
477.033	6.93
477.237	7.01
477.441	7.09
477.644	7.14
477.848	7.15
478.052	7.06
478.255	6.96
478.459	6.9
478.663	6.8
478.866	6.78
479.07	6.89
479.273	6.9
479.477	7.03
479.681	7.12
479.884	7.17
480.088	7.03
480.291	7.14
480.495	7.01
480.698	6.96
480.901	6.94
481.105	7.07
481.308	7.01
481.512	7.1
481.715	7.11
481.919	7.11
482.122	7.11
482.325	7.16
482.529	7.1
482.732	7.16
482.935	7.05
483.138	7.05
483.342	7.04
483.545	7.1
483.748	7.04
483.952	7.13
484.155	7.14
484.358	7.1
484.561	7.07
484.764	7.05
484.967	7.04
485.171	6.95
485.374	7.01
485.577	6.98
485.78	7.01
485.983	7.02
486.186	7.03
486.389	6.92
486.592	6.9
486.795	6.87
486.998	6.78
487.201	6.75
487.404	6.8
487.607	6.88
487.81	6.79
488.013	6.8
488.216	6.79
488.419	6.83
488.622	6.68
488.825	6.69
489.028	6.69
489.231	6.78
489.433	6.71
489.636	6.78
489.839	6.75
490.042	6.79
490.245	6.65
490.447	6.71
490.65	6.71
490.853	6.79
491.056	6.74
491.258	6.79
491.461	6.87
491.664	6.76
491.866	6.73
492.069	6.83
492.272	6.77
492.474	6.65
492.677	6.71
492.879	6.73
493.082	6.67
493.285	6.73
493.487	6.67
493.69	6.6
493.892	6.57
494.095	6.65
494.297	6.62
494.5	6.72
494.702	6.76
494.905	6.81
495.107	6.72
495.309	6.68
495.512	6.66
495.714	6.7
495.917	6.65
496.119	6.73
496.321	6.75
496.524	6.72
496.726	6.68
496.928	6.66
497.13	6.56
497.333	6.54
497.535	6.64
497.737	6.65
497.939	6.66
498.142	6.67
498.344	6.65
498.546	6.57
498.748	6.55
498.95	6.55
499.152	6.47
499.355	6.5
499.557	6.5
499.759	6.58
499.961	6.57
500.163	6.63
500.365	6.73
500.567	6.72
500.769	6.68
500.971	6.71
501.173	6.78
501.375	6.7
501.577	6.71
501.779	6.71
501.981	6.78
502.183	6.78
502.385	6.73
502.587	6.7
502.788	6.68
502.99	6.57
503.192	6.53
503.394	6.52
503.596	6.49
503.798	6.46
503.999	6.49
504.201	6.46
504.403	6.5
504.605	6.54
504.806	6.52
505.008	6.45
505.21	6.37
505.411	6.33
505.613	6.33
505.815	6.34
506.016	6.36
506.218	6.4
506.42	6.4
506.621	6.42
506.823	6.47
507.024	6.43
507.226	6.48
507.427	6.47
507.629	6.38
507.83	6.28
508.032	6.31
508.233	6.28
508.435	6.25
508.636	6.32
508.838	6.41
509.039	6.39
509.24	6.4
509.442	6.42
509.643	6.44
509.845	6.41
510.046	6.47
510.247	6.52
510.448	6.49
510.65	6.45
510.851	6.45
511.052	6.44
511.254	6.35
511.455	6.39
511.656	6.36
511.857	6.31
512.058	6.24
512.26	6.23
512.461	6.21
512.662	6.21
512.863	6.18
513.064	6.19
513.265	6.17
513.466	6.15
513.667	6.21
513.868	6.23
514.069	6.28
514.27	6.32
514.471	6.23
514.672	6.18
514.873	6.15
515.074	6.08
515.275	6
515.476	6.09
515.677	6.03
515.878	6.11
516.079	6.19
516.28	6.21
516.481	6.19
516.682	6.23
516.882	6.26
517.083	6.16
517.284	6.21
517.485	6.25
517.686	6.25
517.886	6.2
518.087	6.18
518.288	6.19
518.488	6.16
518.689	6.14
518.89	6.11
519.091	6.19
519.291	6.22
519.492	6.24
519.692	6.31
519.893	6.39
520.094	6.3
520.294	6.17
520.495	6.15
520.695	6.13
520.896	6.08
521.096	6.1
521.297	6.27
521.497	6.34
521.698	6.35
521.898	6.36
522.099	6.38
522.299	6.25
522.499	6.21
522.7	6.14
522.9	6.12
523.101	6.09
523.301	6.15
523.501	6.09
523.702	6.15
523.902	6.12
524.102	6.18
524.302	6.15
524.503	6.14
524.703	6.11
524.903	6.17
525.103	6.2
525.304	6.15
525.504	6.26
525.704	6.23
525.904	6.18
526.104	6.14
526.304	6.19
526.504	6.15
526.705	6.18
526.905	6.18
527.105	6.13
527.305	6.15
527.505	6.16
527.705	6.14
527.905	6.16
528.105	6.2
528.305	6.15
528.505	6.14
528.705	6.14
528.905	6.07
529.105	6.04
529.304	6.05
529.504	6.04
529.704	6.04
529.904	6.11
530.104	6.13
530.304	6.18
530.503	6.13
530.703	6.1
530.903	6.03
531.103	5.99
531.303	5.94
531.502	6.02
531.702	6.02
531.902	6.16
532.101	6.17
532.301	6.14
532.501	6.12
532.7	6.13
532.9	6.06
533.1	6.09
533.299	6.08
533.499	6.09
533.698	6.08
533.898	6.07
534.097	6.05
534.297	6.07
534.496	6.05
534.696	6.05
534.895	6.1
535.095	6.12
535.294	6.13
535.494	6.08
535.693	6.11
535.892	6.08
536.092	6.07
536.291	6.05
536.491	6.1
536.69	6.07
536.889	6
537.088	5.96
537.288	5.98
537.487	5.99
537.686	6.01
537.886	6.1
538.085	6.16
538.284	6.18
538.483	6.15
538.682	6.22
538.882	6.25
539.081	6.22
539.28	6.19
539.479	6.2
539.678	6.16
539.877	6.13
540.076	6.1
540.275	6.1
540.474	6.1
540.673	6.12
540.872	6.1
541.071	6.2
541.27	6.25
541.469	6.23
541.668	6.21
541.867	6.26
542.066	6.19
542.265	6.22
542.464	6.21
542.663	6.26
542.862	6.34
543.06	6.39
543.259	6.4
543.458	6.47
543.657	6.51
543.856	6.44
544.054	6.47
544.253	6.46
544.452	6.4
544.651	6.38
544.849	6.38
545.048	6.32
545.247	6.33
545.445	6.41
545.644	6.32
545.843	6.38
546.041	6.37
546.24	6.43
546.438	6.47
546.637	6.5
546.836	6.49
547.034	6.54
547.233	6.51
547.431	6.49
547.63	6.56
547.828	6.57
548.027	6.62
548.225	6.59
548.423	6.6
548.622	6.61
548.82	6.59
549.019	6.59
549.217	6.57
549.415	6.56
549.614	6.65
549.812	6.67
550.01	6.69
550.209	6.8
550.407	6.84
550.605	6.79
550.803	6.82
551.002	6.85
551.2	6.8
551.398	6.94
551.596	6.96
551.794	7.03
551.993	7.09
552.191	7.18
552.389	7.09
552.587	7.06
552.785	7.05
552.983	7.1
553.181	7.13
553.379	7.2
553.577	7.37
553.775	7.37
553.973	7.34
554.171	7.33
554.369	7.39
554.567	7.33
554.765	7.39
554.963	7.42
555.161	7.44
555.359	7.41
555.557	7.42
555.755	7.41
555.952	7.47
556.15	7.49
556.348	7.59
556.546	7.68
556.744	7.73
556.941	7.66
557.139	7.71
557.337	7.67
557.535	7.67
557.732	7.77
557.93	7.87
558.128	7.94
558.325	7.97
558.523	8.03
558.721	8.01
558.918	8.02
559.116	8.04
559.313	8.09
559.511	8.2
559.708	8.33
559.906	8.44
560.104	8.46
560.301	8.56
560.498	8.46
560.696	8.44
560.893	8.53
561.091	8.63
561.288	8.71
561.486	8.83
561.683	8.88
561.88	8.82
562.078	8.82
562.275	8.76
562.473	8.83
562.67	8.88
562.867	8.95
563.064	9.01
563.262	9.04
563.459	9.11
563.656	9.15
563.853	9.17
564.051	9.23
564.248	9.36
564.445	9.32
564.642	9.37
564.839	9.45
565.036	9.58
565.234	9.67
565.431	9.79
565.628	9.81
565.825	9.79
566.022	9.87
566.219	9.9
566.416	9.85
566.613	9.9
566.81	10.05
567.007	9.9
567.204	9.88
567.401	9.93
567.598	9.97
567.795	9.92
567.991	10.05
568.188	10.14
568.385	10.13
568.582	10.19
568.779	10.28
568.976	10.35
569.172	10.42
569.369	10.57
569.566	10.59
569.763	10.61
569.96	10.65
570.156	10.64
570.353	10.61
570.55	10.64
570.746	10.67
570.943	10.7
571.14	10.7
571.336	10.72
571.533	10.76
571.729	10.79
571.926	10.82
572.123	10.85
572.319	10.98
572.516	10.96
572.712	11
572.909	10.98
573.105	11.02
573.302	10.98
573.498	10.99
573.695	10.91
573.891	10.95
574.087	10.99
574.284	11
574.48	11.06
574.677	11.16
574.873	11.13
575.069	11.13
575.266	11.17
575.462	11.13
575.658	11.16
575.854	11.26
576.051	11.24
576.247	11.25
576.443	11.31
576.639	11.33
576.835	11.22
577.032	11.19
577.228	11.17
577.424	11.14
577.62	11.11
577.816	11.14
578.012	11.18
578.208	11.2
578.404	11.28
578.6	11.31
578.796	11.36
578.993	11.4
579.189	11.43
579.384	11.39
579.58	11.39
579.776	11.4
579.972	11.28
580.168	11.13
580.364	11.18
580.56	11.18
580.756	11.11
580.952	11.19
581.148	11.28
581.343	11.21
581.539	11.27
581.735	11.25
581.931	11.25
582.127	11.25
582.322	11.19
582.518	11.09
582.714	11.06
582.909	11.02
583.105	10.99
583.301	10.98
583.496	10.96
583.692	10.98
583.888	10.93
584.083	10.94
584.279	11.02
584.474	11.01
584.67	11
584.866	11
585.061	11.01
585.257	10.92
585.452	10.9
585.648	10.91
585.843	10.96
586.039	11.07
586.234	11.04
586.429	11.03
586.625	11.07
586.82	11.01
587.015	10.87
587.211	10.8
587.406	10.81
587.601	10.84
587.797	10.86
587.992	10.76
588.187	10.91
588.383	10.94
588.578	10.89
588.773	10.88
588.968	11.08
589.163	11.01
589.359	10.98
589.554	10.91
589.749	10.93
589.944	10.86
590.139	10.86
590.334	10.85
590.529	10.94
590.724	11.02
590.919	11.05
591.114	11.06
591.309	11.13
591.504	11.13
591.699	11.07
591.894	11.06
592.089	11.12
592.284	11.11
592.479	11.21
592.674	11.22
592.869	11.26
593.064	11.34
593.259	11.45
593.454	11.34
593.648	11.44
593.843	11.44
594.038	11.4
594.233	11.34
594.428	11.39
594.622	11.44
594.817	11.58
595.012	11.47
595.206	11.59
595.401	11.69
595.596	11.59
595.79	11.53
595.985	11.63
596.18	11.7
596.374	11.69
596.569	11.81
596.763	11.97
596.958	12.18
597.153	12.07
597.347	12.11
597.542	12.2
597.736	12.18
597.931	12.15
598.125	12.31
598.319	12.36
598.514	12.35
598.708	12.34
598.903	12.28
599.097	12.37
599.291	12.44
599.486	12.47
599.68	12.47
599.874	12.57
600.069	12.54
600.263	12.54
600.457	12.55
600.651	12.58
600.846	12.55
601.04	12.43
601.234	12.37
601.428	12.4
601.622	12.41
601.817	12.39
602.011	12.46
602.205	12.51
602.399	12.55
602.593	12.52
602.787	12.52
602.981	12.66
603.175	12.71
603.369	12.62
603.563	12.77
603.757	12.79
603.951	12.69
604.145	12.57
604.339	12.64
604.533	12.51
604.727	12.53
604.921	12.53
605.115	12.54
605.309	12.42
605.502	12.46
605.696	12.37
605.89	12.3
606.084	12.31
606.278	12.38
606.471	12.3
606.665	12.29
606.859	12.24
607.053	12.18
607.246	12.17
607.44	12.18
607.634	12.17
607.827	12.2
608.021	12.12
608.214	12.03
608.408	11.96
608.602	11.95
608.795	11.85
608.989	11.93
609.182	11.91
609.376	11.89
609.569	11.76
609.763	11.69
609.956	11.65
610.15	11.57
610.343	11.46
610.537	11.46
610.73	11.44
610.923	11.41
611.117	11.39
611.31	11.35
611.504	11.32
611.697	11.31
611.89	11.16
612.083	11.16
612.277	11.15
612.47	11.19
612.663	11.1
612.856	11.09
613.05	10.96
613.243	10.88
613.436	10.67
613.629	10.64
613.822	10.69
614.015	10.66
614.209	10.68
614.402	10.76
614.595	10.73
614.788	10.64
614.981	10.64
615.174	10.59
615.367	10.49
615.56	10.41
615.753	10.31
615.946	10.25
616.139	10.3
616.332	10.27
616.525	10.25
616.718	10.23
616.911	10.21
617.103	10.07
617.296	10.05
617.489	10.11
617.682	10.12
617.875	10.11
618.067	10.03
618.26	9.88
618.453	9.77
618.646	9.72
618.838	9.7
619.031	9.73
619.224	9.8
619.417	9.89
619.609	9.86
619.802	9.83
619.994	9.82
620.187	9.82
620.38	9.74
620.572	9.65
620.765	9.69
620.957	9.65
621.15	9.6
621.342	9.53
621.535	9.58
621.727	9.49
621.92	9.5
622.112	9.44
622.305	9.47
622.497	9.42
622.69	9.37
622.882	9.31
623.074	9.4
623.267	9.35
623.459	9.28
623.651	9.35
623.844	9.38
624.036	9.31
624.228	9.33
624.42	9.33
624.613	9.32
624.805	9.29
624.997	9.3
625.189	9.29
625.381	9.39
625.574	9.33
625.766	9.28
625.958	9.25
626.15	9.3
626.342	9.18
626.534	9.22
626.726	9.2
626.918	9.14
627.11	9.03
627.302	9.07
627.494	8.99
627.686	9.04
627.878	9.11
628.07	9.13
628.262	9.12
628.454	9.04
628.646	9.02
628.838	8.96
629.029	8.86
629.221	8.83
629.413	8.81
629.605	8.79
629.797	8.79
629.989	8.88
630.18	8.87
630.372	8.84
630.564	8.78
630.755	8.75
630.947	8.71
631.139	8.64
631.33	8.69
631.522	8.73
631.714	8.71
631.905	8.65
632.097	8.72
632.289	8.67
632.48	8.62
632.672	8.57
632.863	8.53
633.055	8.46
633.246	8.48
633.438	8.43
633.629	8.4
633.821	8.43
634.012	8.42
634.203	8.34
634.395	8.37
634.586	8.53
634.777	8.47
634.969	8.49
635.16	8.56
635.351	8.58
635.543	8.5
635.734	8.48
635.925	8.43
636.117	8.48
636.308	8.53
636.499	8.42
636.69	8.39
636.881	8.4
637.073	8.33
637.264	8.28
637.455	8.32
637.646	8.42
637.837	8.41
638.028	8.33
638.219	8.27
638.41	8.26
638.601	8.2
638.792	8.16
638.983	8.21
639.174	8.12
639.365	8.11
639.556	8.06
639.747	8.09
639.938	8.21
640.129	8.31
640.32	8.36
640.511	8.42
640.701	8.42
640.892	8.34
641.083	8.31
641.274	8.22
641.465	8.17
641.655	8.13
641.846	8.06
642.037	8.02
642.228	8.03
642.418	8.04
642.609	7.98
642.8	7.96
642.99	7.94
643.181	7.93
643.372	7.93
643.562	7.95
643.753	7.9
643.943	7.92
644.134	7.95
644.324	7.98
644.515	8.11
644.705	8.17
644.896	8.26
645.086	8.18
645.277	8.18
645.467	8.1
645.658	8.08
645.848	7.92
646.038	7.91
646.229	7.93
646.419	7.92
646.61	7.99
646.8	8.03
646.99	8.09
647.18	8.08
647.371	8.03
647.561	7.93
647.751	7.92
647.941	7.85
648.132	7.73
648.322	7.75
648.512	7.76
648.702	7.83
648.892	7.81
649.082	7.79
649.272	7.72
649.462	7.67
649.653	7.58
649.843	7.58
650.033	7.65
650.223	7.58
650.413	7.62
650.603	7.7
650.793	7.71
650.983	7.64
651.172	7.68
651.362	7.62
651.552	7.5
651.742	7.4
651.932	7.41
652.122	7.47
652.312	7.46
652.502	7.47
652.691	7.55
652.881	7.58
653.071	7.59
653.261	7.52
653.45	7.43
653.64	7.48
653.83	7.41
654.019	7.33
654.209	7.36
654.399	7.39
654.588	7.16
654.778	7.12
654.968	6.98
655.157	7.02
655.347	6.95
655.536	7
655.726	6.97
655.915	7.02
656.105	6.9
656.294	6.87
656.484	6.83
656.673	6.78
656.863	6.82
657.052	6.75
657.241	6.71
657.431	6.66
657.62	6.57
657.809	6.46
657.999	6.51
658.188	6.42
658.377	6.4
658.567	6.33
658.756	6.21
658.945	6.15
659.134	6.14
659.324	6.05
659.513	6.07
659.702	6.05
659.891	5.94
660.08	5.88
660.269	5.86
660.458	5.83
660.648	5.83
660.837	5.8
661.026	5.69
661.215	5.64
661.404	5.53
661.593	5.44
661.782	5.33
661.971	5.44
662.16	5.42
662.349	5.39
662.538	5.47
662.726	5.53
662.915	5.5
663.104	5.44
663.293	5.42
663.482	5.39
663.671	5.41
663.86	5.36
664.048	5.44
664.237	5.56
664.426	5.48
664.615	5.42
664.803	5.4
664.992	5.31
665.181	5.18
665.369	5.22
665.558	5.26
665.747	5.39
665.935	5.48
666.124	5.62
666.312	5.64
666.501	5.65
666.69	5.69
666.878	5.66
667.067	5.55
667.255	5.67
667.444	5.9
667.632	5.94
667.82	5.93
668.009	6.03
668.197	6.01
668.386	5.87
668.574	5.77
668.762	6.02
668.951	6.18
669.139	6.17
669.327	6.15
669.516	6.29
669.704	6.17
669.892	6.03
670.08	6.08
670.269	6.12
670.457	6.11
670.645	6.11
670.833	6.17
671.021	6.21
671.21	6.25
671.398	6.25
671.586	6.21
671.774	6.35
671.962	6.43
672.15	6.56
672.338	6.68
672.526	6.94
672.714	7.06
672.902	6.97
673.09	6.86
673.278	6.91
673.466	6.96
673.654	7.04
673.842	7.25
674.03	7.55
674.218	7.59
674.405	7.62
674.593	7.61
674.781	7.74
674.969	7.62
675.157	7.76
675.344	7.69
675.532	7.85
675.72	7.76
675.908	7.83
676.095	7.82
676.283	7.97
676.471	7.9
676.658	7.94
676.846	7.98
677.033	8.09
677.221	8.07
677.409	8.05
677.596	8.13
677.784	8.15
677.971	8.21
678.159	8.33
678.346	8.48
678.534	8.45
678.721	8.71
678.909	8.77
679.096	8.87
679.283	8.8
679.471	8.86
679.658	8.71
679.846	8.6
680.033	8.7
680.22	9.02
680.408	9.12
680.595	9.22
680.782	9.39
680.969	9.32
681.157	9.1
681.344	9.21
681.531	9.27
681.718	9.22
681.905	9.28
682.093	9.3
682.28	9.42
682.467	9.56
682.654	9.57
682.841	9.46
683.028	9.5
683.215	9.39
683.402	9.31
683.589	9.39
683.776	9.63
683.963	9.69
684.15	9.77
684.337	9.89
684.524	10.11
684.711	10.2
684.898	10.34
685.085	10.38
685.271	10.57
685.458	10.72
685.645	10.74
685.832	10.75
686.019	10.82
686.205	10.8
686.392	10.8
686.579	11.09
686.766	11.4
686.952	11.63
687.139	11.75
687.326	11.76
687.512	11.78
687.699	11.89
687.886	11.96
688.072	12.03
688.259	12.33
688.445	12.53
688.632	12.5
688.818	12.77
689.005	13.08
689.191	13.39
689.378	13.65
689.564	14.1
689.751	14.16
689.937	14.43
690.124	14.61
690.31	14.95
690.496	15.25
690.683	15.75
690.869	16.14
691.055	16.46
691.242	16.64
691.428	16.89
691.614	17.2
691.8	17.46
691.987	17.97
692.173	18.43
692.359	19.05
692.545	19.49
692.731	19.89
692.918	20.21
693.104	20.59
693.29	20.85
693.476	21.53
693.662	22.27
693.848	22.79
694.034	23.51
694.22	24.09
694.406	24.41
694.592	24.56
694.778	25.03
694.964	25.51
695.15	25.63
695.336	26.09
695.522	26.96
695.708	27.53
695.894	28.07
696.08	29.09
696.265	29.93
696.451	30.44
696.637	31.18
696.823	31.88
697.009	32.34
697.194	32.72
697.38	33.33
697.566	33.96
697.751	34.41
697.937	35.08
698.123	35.87
698.308	36.42
698.494	37.04
698.68	37.63
698.865	38.43
699.051	39.01
699.236	39.89
699.422	40.45
699.607	41.13
699.793	41.51
699.978	42.1
700.164	42.5
700.349	43.03
700.535	43.58
700.72	44.13
700.906	44.7
701.091	45.4
701.276	46.13
701.462	46.52
701.647	47.55
701.832	48
702.018	48.51
702.203	48.88
702.388	49.51
702.573	49.78
702.759	50.54
702.944	50.77
703.129	51.19
703.314	52.06
703.499	52.57
703.684	52.96
703.87	53.64
704.055	54.18
704.24	54.46
704.425	54.91
704.61	55.91
704.795	56.38
704.98	57.12
705.165	57.57
705.35	58.14
705.535	58.15
705.72	58.88
705.905	59.06
706.09	59.67
706.275	60.16
706.459	60.66
706.644	60.8
706.829	61.16
707.014	61.83
707.199	62.37
707.384	62.66
707.568	63.34
707.753	64.29
707.938	64.22
708.123	64.28
708.307	64.78
708.492	65.12
708.677	64.7
708.861	64.98
709.046	65.17
709.231	65.36
709.415	65.42
709.6	66.04
709.784	66.4
709.969	66.66
710.153	67.05
710.338	67.68
710.522	68.27
710.707	68.26
710.891	68.52
711.076	68.78
711.26	69.22
711.445	69.57
711.629	70.28
711.813	70.8
711.998	71.3
712.182	70.61
712.366	70.64
712.551	70.22
712.735	70.65
712.919	70.37
713.103	71.32
713.288	71.42
713.472	72.22
713.656	72.08
713.84	72.5
714.024	72.81
714.208	72.91
714.393	72.91
714.577	73.42
714.761	73.28
714.945	73.47
715.129	74.28
715.313	74.82
715.497	74.87
715.681	75.3
715.865	75.36
716.049	75.37
716.233	75.24
716.417	75.76
716.601	75.92
716.785	76.08
716.968	75.53
717.152	76.37
717.336	76.78
717.52	76.57
717.704	76.69
717.888	77.91
718.071	77.71
718.255	77.49
718.439	78.17
718.622	78.14
718.806	77.77
718.99	77.27
719.174	77.05
719.357	77.11
719.541	77.35
719.724	77.34
719.908	78.06
720.092	78.56
720.275	79.08
720.459	79.57
720.642	80.25
720.826	80.64
721.009	80.98
721.193	80.74
721.376	80.84
721.559	81.02
721.743	80.6
721.926	80.22
722.11	80.42
722.293	80.29
722.476	80.39
722.66	81.27
722.843	82.09
723.026	82.2
723.21	82.32
723.393	82.32
723.576	82.64
723.759	82.38
723.942	82.72
724.126	83.09
724.309	82.93
724.492	83.28
724.675	83.39
724.858	83.83
725.041	83.81
725.224	84.03
725.407	83.89
725.59	84.28
725.774	84.15
725.957	84.31
726.14	84.7
726.322	84.61
726.505	84.41
726.688	84.72
726.871	84.4
727.054	84.63
727.237	84.54
727.42	85.38
727.603	85.81
727.786	87.27
727.968	87.45
728.151	87.29
728.334	87.24
728.517	87.08
728.699	86.72
728.882	87.04
729.065	87.32
729.248	87.51
729.43	87.27
729.613	87.91
729.796	88.18
729.978	88.71
730.161	88.58
730.343	89.79
730.526	89.72
730.708	89.64
730.891	89.63
731.073	90.39
731.256	89.78
731.438	89.61
731.621	89.34
731.803	89.54
731.986	89.73
732.168	90.61
732.35	90.84
732.533	91.86
732.715	92.02
732.898	91.46
733.08	91.65
733.262	92.45
733.444	91.96
733.627	92.56
733.809	93
733.991	91.73
734.173	91.23
734.355	91.81
734.538	91.25
734.72	92.01
734.902	94.06
735.084	94.47
735.266	94.59
735.448	95.39
735.63	94.58
735.812	93.53
735.994	92.86
736.176	93
736.358	93.21
736.54	94.11
736.722	93.41
736.904	94.34
737.086	93.75
737.268	93.64
737.45	93.52
737.632	94.89
737.814	94.2
737.995	95.07
738.177	95.58
738.359	94.65
738.541	93.48
738.723	94.54
738.904	93.65
739.086	93.32
739.268	94.38
739.449	95.71
739.631	95.42
739.813	95.61
739.994	96.8
740.176	97.01
740.358	96.57
740.539	97.28
740.721	97.45
740.902	96.74
741.084	96.84
741.265	96.91
741.447	95.79
741.628	96.07
741.81	95.89
741.991	96.88
742.172	96.3
742.354	96.97
742.535	96.89
742.717	97.04
742.898	95.96
743.079	97.55
743.261	97.94
743.442	98.78
743.623	98.97
743.804	99.63
743.986	98.73
744.167	97.11
744.348	96.88
744.529	96.24
744.71	94.88
744.891	95.51
745.073	96.29
745.254	97.34
745.435	98.14
745.616	98.13
745.797	97.89
745.978	98.36
746.159	97.57
746.34	98.12
746.521	99.44
746.702	100.33
746.883	99.77
747.064	97.46
747.245	96.02
747.426	95.67
747.606	95.67
747.787	95.92
747.968	97.97
748.149	97.56
748.33	97.68
748.51	96.09
748.691	95.16
748.872	94.08
749.053	94.14
749.233	93.64
749.414	93.49
749.595	95.78
749.775	96.37
749.956	96.53
750.137	95.74
750.317	94.36
750.498	92.27
750.678	93.63
750.859	95.45
751.04	96.41
751.22	97.52
751.4	97.96
751.581	96.03
751.761	93.69
751.942	93.12
752.122	92.98
752.303	93.28
752.483	94.4
752.663	96.53
752.844	97.42
753.024	98.44
753.204	99.03
753.385	98.77
753.565	98.88
753.745	98.1
753.925	99.7
754.106	99.42
754.286	99.17
754.466	98.36
754.646	99.25
754.826	97.11
755.006	97.25
755.187	97.29
755.367	97.15
755.547	94.86
755.727	94.22
755.907	92.79
756.087	92.8
756.267	92.02
756.447	95.22
756.627	95.7
756.807	98.26
756.987	97.97
757.167	99.84
757.346	99.22
757.526	99.13
757.706	97.84
757.886	99.2
758.066	97.17
758.246	97.01
758.425	96.48
758.605	95.62
758.785	95.22
758.965	97.01
759.144	95.79
759.324	98.01
759.504	99.25
759.683	97.95
759.863	96.15
760.043	97.1
760.222	98.16
760.402	98.19
760.581	99.81
760.761	100.61
760.94	97.73
761.12	94.55
761.299	93.66
761.479	91.8
761.658	90.68
761.838	91.68
762.017	92.56
762.197	95.02
762.376	96.96
762.555	97.42
762.735	98.91
762.914	96.55
763.093	94.92
763.273	94.01
763.452	94.59
763.631	93.37
763.81	93.87
763.99	93.19
764.169	93.67
764.348	91.11
764.527	91
764.706	91.8
764.885	91.74
765.064	89.03
765.243	90.52
765.423	89.1
765.602	88.85
765.781	87.91
765.96	87.29
766.139	88.71
766.318	89.93
766.497	91.24
766.676	90.23
766.854	92.77
767.033	91.01
767.212	91.96
767.391	91.32
767.57	92.72
767.749	92.98
767.928	93.74
768.106	92.25
768.285	91.12
768.464	89.69
768.643	88.97
768.821	88.8
769	88.97
769.179	90.54
769.357	91.38
769.536	91.77
769.715	91.08
769.893	92.04
770.072	91.11
770.25	91.39
770.429	91.67
770.607	90.97
770.786	91.24
770.964	91.08
771.143	90.31
771.321	88.94
771.5	93.11
771.678	90.24
771.857	90.98
772.035	90.9
772.213	91.17
772.392	86.96
772.57	90.89
772.748	90.02
772.927	92.01
773.105	92.64
773.283	94.31
773.461	92.73
773.64	92.77
773.818	89.13
773.996	88.89
774.174	87.75
774.352	86.39
774.531	84.97
774.709	86.13
774.887	86.46
775.065	86.28
775.243	87.48
775.421	88.08
775.599	89.55
775.777	87.87
775.955	84.26
776.133	85.74
776.311	87.21
776.489	87.74
776.667	88.28
776.844	91.94
777.022	90.56
777.2	92.27
777.378	90.26
777.556	91.28
777.734	90.67
777.911	90.14
778.089	89.58
778.267	91.27
778.445	87.85
778.622	87.22
778.8	88.35
778.978	86.92
779.155	85.42
779.333	83.49
779.511	80.43
779.688	80.38
779.866	75.79
780.043	75.44
780.221	78.56
780.398	83.55
780.576	82.04
780.753	86.98
780.931	87.46
781.108	87.34
781.286	88.87
781.463	88.78
781.64	87.93
781.818	89.26
781.995	89.8
782.172	88.4
782.35	89.55
782.527	86.48
782.704	89.26
782.882	91.22
783.059	90.13
783.236	85.16
783.413	91.37
783.59	86.2
783.768	81.53
783.945	81.71
784.122	86.65
784.299	84.35
784.476	86.46
784.653	89.59
784.83	88.38
785.007	87.69
785.184	91.12
785.361	88.35
785.538	89.21
785.715	86.38
785.892	86.18
786.069	81.25
786.246	83.75
786.423	86.6
786.6	91.81
786.776	87.29
786.953	86.4
787.13	81.94
787.307	80.53
787.484	80.06
787.66	82.71
787.837	85.99
788.014	89.98
788.191	89.92
788.367	89.6
788.544	98.43
788.721	92.98
788.897	94.02
789.074	91.33
789.25	88.71
789.427	78.73
789.603	85.88
789.78	85.53
789.956	86.92
790.133	87.57
790.309	89.51
790.486	87.62
790.662	88.77
790.839	85.79
791.015	87.33
791.192	90.19
791.368	86.97
791.544	88.09
791.721	89.37
791.897	91.32
792.073	89.25
792.249	88.75
792.426	87.26
792.602	88.37
792.778	86.07
792.954	86.02
793.13	85.41
793.307	84.38
793.483	79.53
793.659	82.18
793.835	83.49
794.011	89.21
794.187	81.03
794.363	85.49
794.539	83.53
794.715	79.13
794.891	73.25
795.067	76.76
795.243	80.06
795.419	78.8
795.595	80.32
795.771	81.5
795.947	92.47
796.122	84.49
796.298	87.08
796.474	93.19
796.65	93.43
796.826	84.08
797.001	91.76
797.177	88.55
797.353	81.02
797.529	79.45
797.704	78.39
797.88	76.4
798.056	70.77
798.231	77.44
798.407	80.98
798.582	81.59
798.758	83.27
798.934	92.37
799.109	92.05
799.285	89.39
799.46	88.93
799.636	85.35
799.811	84.36
799.986	81.44
800.162	86.81
800.337	86.98
800.513	84.28
800.688	87.44
800.863	84.57
801.039	81.53
801.214	73.2
801.389	78.01
801.565	76.64
801.74	82.43
801.915	74.23
802.09	80.55
802.265	75.41
802.441	74.61
802.616	71.24
802.791	82.2
802.966	88.01
803.141	88.37
803.316	79.32
803.491	73.44
803.666	67.56
803.841	67.56
804.016	71.64
804.191	81.37
804.366	90.91
804.541	96.82
804.716	95.19
804.891	91.61
805.066	87.56
805.241	92.14
805.416	85.2
805.591	83.46
805.765	82.21
805.94	78.97
806.115	71.9
806.29	71.1
806.464	84.87
806.639	85.9
806.814	81.47
806.989	72.37
807.163	77.93
807.338	63.9
807.512	70.3
807.687	73.59
807.862	75.11
808.036	75.05
808.211	76.07
808.385	66.58
808.56	61.65
808.734	66.49
808.909	55.3
809.083	54.23
809.258	60.73
809.432	69.48
809.606	65.04
809.781	66.29
809.955	69.63
810.13	69.45
810.304	73.83
810.478	76.62
810.652	89.51
810.827	87.6
811.001	86.37
811.175	83.93
811.349	88.56
811.524	85.04
811.698	88.86
811.872	88.81
812.046	97
812.22	94.55
812.394	81.36
812.568	81.02
812.742	92.16
812.916	81.65
813.09	91.2
813.264	107.9
813.438	109.49
813.612	96.33
813.786	90.84
813.96	70.7
814.134	66
814.308	61.11
814.482	72.68
814.656	86.09
814.83	94.76
815.003	95.16
815.177	102.67
815.351	99.03
815.525	86.61
815.698	90.6
815.872	75.42
816.046	64.64
816.219	62.47
816.393	74.04
816.567	70.56
816.74	83.07
816.914	119.64
817.088	135.94
817.261	126.34
817.435	124.99
817.608	142.98
817.782	95.88
817.955	79.76
818.129	86.76
818.302	70.84
818.475	71.5
818.649	85.49
818.822	87.28
818.996	80.05
819.169	84.13
819.342	82.71
819.516	69.54
819.689	79.45
819.862	85.17
820.035	88.05
820.209	71.58
820.382	81.68
820.555	78.3
820.728	84.34
820.901	66.88
821.075	85.16
821.248	88.9
821.421	79.05
821.594	73.24
821.767	89.36
821.94	82.93
822.113	48.83
822.286	44
822.459	29.93
822.632	32.71
822.805	52.69
822.978	84.78
823.151	97.38
823.324	119.02
823.496	66.24
823.669	38.47
823.842	44.83
824.015	47.21
824.188	21.96
824.361	60.29
824.533	75.92
824.706	62.31
824.879	60.63
825.051	69.66
825.224	79.87
825.397	74.15
825.569	76.3
825.742	77.77
825.915	74.3
826.087	67.65
826.26	65.19
826.432	60.71
826.605	55.41
826.777	65.16
826.95	66.94
827.122	68.76
827.295	79
827.467	78.31
827.64	39.55
827.812	26.82
827.984	33.97
828.157	16.21
828.329	32.35
828.501	65.59
828.674	93.4
828.846	94.89
829.018	99.37
829.19	93.92
829.363	92.74
829.535	85.42
829.707	89.45
829.879	83.01
830.051	68.24
830.223	78.78
830.395	54.06
830.568	32.11
830.74	55.34
830.912	55.16
831.084	44.52
831.256	54.47
831.428	53.07
831.6	30.63
831.772	39.63
831.943	21.82
832.115	27.2
832.287	47.13
832.459	52.28
832.631	63.28
832.803	88.72
832.975	91.01
833.146	83.39
833.318	57.38
833.49	41.64
833.662	36.84
833.833	55.61
834.005	59.07
834.177	88.99
834.348	102.42
834.52	85.52
834.692	83.08
834.863	68.38
835.035	74.47
835.206	59.15
835.378	71.49
835.549	62.58
835.721	88.27
835.892	74.41
836.064	97.84
836.235	107.01
836.407	125.68
836.578	87.76
836.749	87.69
836.921	84.81
837.092	75.44
837.264	82.13
837.435	89.44
837.606	79.59
837.777	39.34
837.949	55.25
838.12	-9.88
838.291	34.46
838.462	51.41
838.633	62.82
838.805	68.99
838.976	136.77
839.147	121.5
839.318	176.38
839.489	143.52
839.66	138.52
839.831	91.72
840.002	55.68
840.173	-1.93
840.344	0.83
840.515	-21.23
840.686	-53.94
840.857	-8.38
841.028	27.14
841.199	50.15
841.369	64.69
841.54	78.49
841.711	116.35
841.882	106.38
842.053	122.89
842.223	111.32
842.394	88.69
842.565	79.62
842.736	78.61
842.906	57.22
843.077	67.09
843.248	68.12
843.418	65.19
843.589	65.03
843.759	92.53
843.93	22.25
844.101	199.3
844.271	128.59
844.442	120.77
844.612	125.37
844.783	123.39
844.953	90.7
845.123	75.3
845.294	47.26
845.464	41.24
845.635	66.72
845.805	91.75
845.975	80.51
846.146	93.75
846.316	-121.45
846.486	-15.15
846.656	-21.45
846.827	55.91
846.997	29.38
847.167	77.82
847.337	42.57
847.507	57.41
847.677	17.36
847.848	54.67
848.018	62.14
848.188	96.18
848.358	66.72
848.528	101.44
848.698	77.06
848.868	41.04
849.038	18.21
849.208	30.86
849.378	-4.57
849.548	16.31
849.718	354.35
849.887	-188.68
850.057	-1783.87
850.227	603
850.397	878.52
850.567	-62.75
850.737	17.62
850.906	38.22
851.076	75.98
851.246	62.77
851.415	67.52
851.585	78.69
851.755	75.93
851.924	78.13
852.094	93.26
852.264	79.53
852.433	44.47
852.603	85.2
852.772	79.79
852.942	74.87
853.111	62.11
853.281	127.96
853.45	93.54
853.62	100.5
853.789	69.53
853.959	164.07
854.128	132.62
854.297	213.99
854.467	491.14
854.636	-269.84
854.805	-19.03
854.975	-3.69
855.144	13.36
855.313	33.26
855.482	43.74
855.652	17.17
855.821	29.83
855.99	60.35
856.159	132.98
856.328	71.74
856.497	128.26
856.667	137.55
856.836	174.71
857.005	189.67
857.174	153.21
857.343	149.14
857.512	105.48
857.681	17.69
857.85	-110.07
858.019	-83.3
858.188	-40.22
858.356	-65.16
858.525	-16.66
858.694	24.78
858.863	30.82
859.032	-76.46
859.201	-39.55
859.369	-3.99
859.538	-13.36
859.707	-36.48
859.876	15.14
860.044	26.07
860.213	47.73
860.382	95.33
860.55	118.07
860.719	136.27
860.888	121.99
861.056	163.84
861.225	146.62
861.393	206.63
861.562	220.77
861.73	227.25
861.899	155.48
862.067	207.55
862.236	168.36
862.404	31.12
862.572	-11.39
862.741	-254.47
862.909	-16.38
863.078	23.5
863.246	42.23
863.414	107.69
863.582	84.43
863.751	122.95
863.919	79.73
864.087	107.18
864.255	69.37
864.424	98.29
864.592	91.39
864.76	126.56
864.928	111.96
865.096	115.14
865.264	107.36
865.432	93.88
865.6	111.86
865.768	40.26
865.936	-98.4
866.104	-461.38
866.272	-67.56
866.44	-198.23
866.608	-135.2
866.776	-31.55
866.944	-29.06
867.112	-26.11
867.28	-56.76
867.448	-3.42
867.615	-18.89
867.783	46.42
867.951	-6.91
868.119	87.56
868.286	117.99
868.454	92.9
868.622	146.22
868.789	600.86
868.957	-906.33
869.125	-298.58
869.292	238.39
869.46	101.94
869.627	-1221.14
869.795	-159.02
869.963	9.34
870.13	51.16
870.298	51.25
870.465	60.04
870.632	39.97
870.8	7.19
870.967	21.48
871.135	-73.4
871.302	306.94
871.469	117.41
871.637	2.91
871.804	-32.24
871.971	-87.97
872.139	-53.06
872.306	-106.43
872.473	-169.35
872.64	-130.96
872.807	42.84
872.975	7.57
873.142	22.91
873.309	77.85
873.476	98.47
873.643	104.9
873.81	85.07
873.977	63.7
874.144	-18
874.311	52.85
874.478	-83.65
874.645	-241.56
874.812	-944.55
874.979	-203.82
875.146	-147.02
875.313	-601.47
875.48	252.15
875.647	-167.07
875.813	-350.63
875.98	479.4
876.147	-8.66
876.314	17.81
876.481	-35.16
876.647	-21.74
876.814	-42.69
876.981	-90.5
877.147	-225.53
877.314	-195.75
877.481	-169.73
877.647	-143.01
877.814	-165.33
877.98	-76.67
878.147	-196.12
878.314	-206.5
878.48	538.87
878.647	233.88
878.813	1251.08
878.979	52.1
879.146	90.97
879.312	77.11
879.479	128.13
879.645	113.41
879.811	115.71
879.978	74.99
880.144	102.52
880.31	322.59
880.477	73.15
880.643	-90.27
880.809	1260.98
880.975	-235.68
881.142	-361.08
881.308	-531.66
881.474	-22.28
881.64	85.03
881.806	47.85
881.972	101.24
882.138	83.49
882.304	49.44
882.47	-22.79
882.636	5.55
882.802	5.84
882.968	-7.15
883.134	-12.02
883.3	23.08
883.466	44.13
883.632	29.54
883.798	41.31
883.964	35.55
884.129	54.08
884.295	-49.68
884.461	-472.59
884.627	1039.78
884.793	123.46
884.958	158.74
885.124	1652.48
885.29	-245.87
885.455	-2.38
885.621	8.2
885.787	-58.84
885.952	-68.86
886.118	-27.76
886.283	-25.69
886.449	-185.71
886.614	-22.52
886.78	63.56
886.945	66.01
887.111	41.4
887.276	22.68
887.442	48.81
887.607	-9.6
887.773	-193.69
887.938	-188.74
888.103	-95.55
888.269	-379.56
888.434	10594.12
888.599	-82.04
888.764	1199.03
888.93	80.58
889.095	63.53
889.26	97.23
889.425	134.63
889.59	95.62
889.756	121.85
889.921	84.5
890.086	58.44
890.251	33.71
890.416	-5.88
890.581	-83.49
890.746	-7.84
890.911	100.78
891.076	103.85
891.241	-19.7
891.406	14557.14
891.571	284.88
891.736	105.53
891.901	148.65
892.065	-22.67
892.23	-30.8
892.395	38.69
892.56	1337.58
892.725	-79.31
892.889	-440.32
893.054	-2201.99
893.219	-2728.78
893.384	-293.63
893.548	-393.82
893.713	-237.6
893.878	-222.51
