Data from Ofav_SP_Phys_9AZ10_Reflection_1.txt Node
Date: Thu Aug 05 17:49:24 EDT 2021
User: Adam
Spectrometer: FLMT01687
Trigger mode: 0
Integration Time (sec): 8.000000E-1
Scans to average: 2
Electric dark correction enabled: true
Nonlinearity correction enabled: false
Boxcar width: 2
XAxis mode: Wavelengths
Number of Pixels in Spectrum: 3648
>>>>>Begin Spectral Data<<<<<
179.494	515.14
179.716	600
179.937	507.09
180.158	607.28
180.38	1771.17
180.601	-918.2
180.823	-336.81
181.044	-159.55
181.265	-169.89
181.486	-44.39
181.708	0
181.929	-239.54
182.15	-871.84
182.372	-133.71
182.593	-87.68
182.814	-322.46
183.035	-71.1
183.257	239.15
183.478	-150.51
183.699	196.96
183.92	105.91
184.141	-898.65
184.363	525.41
184.584	12.11
184.805	27.08
185.026	31.53
185.247	55.29
185.468	49.39
185.689	50.55
185.91	34.19
186.132	-24.54
186.353	-27.45
186.574	-170.68
186.795	-206.32
187.016	-162.23
187.237	-103.22
187.458	-487.74
187.679	-79.25
187.9	-32.35
188.121	-50.45
188.342	-11.21
188.563	34.57
188.784	29.54
189.005	-67.07
189.226	-7.12
189.447	-16.84
189.667	-73.2
189.888	-136.67
190.109	-1.44
190.33	12.86
190.551	63.88
190.772	64.65
190.993	43.41
191.214	47.29
191.434	34.4
191.655	-3.02
191.876	11.1
192.097	14.97
192.318	13.16
192.538	-47.65
192.759	25.61
192.98	-31.82
193.201	-253.55
193.421	-198.79
193.642	-26.56
193.863	-68.29
194.083	-8.99
194.304	-3.05
194.525	-2.56
194.745	-14.11
194.966	10.3
195.187	4.95
195.407	44.43
195.628	25.39
195.848	50.92
196.069	56.23
196.29	62.88
196.51	57.02
196.731	53.17
196.951	52.18
197.172	53.97
197.392	53.74
197.613	31.62
197.833	47.28
198.054	31.42
198.274	-34.41
198.495	-37.68
198.715	1.79
198.936	-59.27
199.156	-5.87
199.377	13.92
199.597	15.96
199.817	-16.46
200.038	-10.77
200.258	0.83
200.479	-1.06
200.699	-9.57
200.919	-6.45
201.14	-44.52
201.36	-112.67
201.58	-93.3
201.801	-160.62
202.021	-131.52
202.241	-22.58
202.461	-6.32
202.682	-60.87
202.902	-64.5
203.122	78.1
203.342	135.13
203.563	78.51
203.783	136.05
204.003	57.81
204.223	4.66
204.443	-17.4
204.663	-34.43
204.884	-22.94
205.104	-29.09
205.324	22.54
205.544	5.41
205.764	30.31
205.984	14.57
206.204	22.8
206.424	-8.69
206.644	4.15
206.864	-28.75
207.084	-61.44
207.304	-27.61
207.525	-98.2
207.745	-79.22
207.964	-51.06
208.184	14.38
208.404	-8.05
208.624	4.82
208.844	4.53
209.064	-6.71
209.284	-14.41
209.504	-23.15
209.724	1.56
209.944	-13.81
210.164	-33.73
210.384	-6.58
210.604	3.57
210.823	18.91
211.043	25.07
211.263	40.6
211.483	26.27
211.703	11.98
211.922	-8.93
212.142	24.53
212.362	-14.99
212.582	53.21
212.801	103.31
213.021	58.44
213.241	7.58
213.461	-19.19
213.68	-51.53
213.9	-73.16
214.12	-122.63
214.339	-58.08
214.559	-7.97
214.779	22.22
214.998	66.49
215.218	97.32
215.438	79.67
215.657	146.63
215.877	105.41
216.096	35.44
216.316	13.7
216.535	-4.86
216.755	-144.93
216.974	-397.46
217.194	-67.1
217.413	0.92
217.633	-6.92
217.852	25.89
218.072	28.25
218.291	19.51
218.511	5.24
218.73	-1.52
218.95	-32.85
219.169	-27.71
219.389	30.94
219.608	3.31
219.827	43.86
220.047	70.41
220.266	70.23
220.485	22.93
220.705	73.07
220.924	61.88
221.143	28.38
221.363	-9.89
221.582	9.1
221.801	-39.56
222.021	14.46
222.24	40.74
222.459	106.69
222.678	85.64
222.897	72.83
223.117	39.39
223.336	30.12
223.555	37.44
223.774	3.15
223.993	14.2
224.213	33.74
224.432	1.41
224.651	5.87
224.87	27.23
225.089	38.92
225.308	3.71
225.527	14.09
225.746	-21.46
225.965	-38.5
226.184	-79.71
226.404	-42.95
226.623	-72.59
226.842	-46.8
227.061	-18.82
227.28	-7.77
227.499	-25.69
227.718	-10.95
227.936	-25.26
228.155	-23.47
228.374	-24.12
228.593	-2.03
228.812	18.05
229.031	23.56
229.25	12.08
229.469	25.77
229.688	13.05
229.907	-2.54
230.125	-23.89
230.344	-11.07
230.563	-15.13
230.782	-0.49
231.001	24.77
231.22	65.3
231.438	49.06
231.657	59.16
231.876	21.62
232.095	11.68
232.313	-9.42
232.532	-8.36
232.751	-30.82
232.969	4.27
233.188	9.19
233.407	7.85
233.625	33.9
233.844	30.53
234.063	23.31
234.281	27.07
234.5	43.16
234.719	63.26
234.937	36.39
235.156	17.95
235.374	28.72
235.593	22.02
235.811	-5.64
236.03	10.63
236.249	3.13
236.467	-20.32
236.686	-55.67
236.904	-46.92
237.123	-57.49
237.341	10.75
237.559	-9.23
237.778	13.63
237.996	25.19
238.215	41.8
238.433	28.53
238.652	49.61
238.87	25.02
239.088	-0.2
239.307	1.53
239.525	-12.51
239.743	-20.71
239.962	7.96
240.18	36.42
240.398	33.91
240.617	9.67
240.835	21.93
241.053	8.86
241.271	-8.16
241.49	-1.13
241.708	-2.03
241.926	16.64
242.144	-17.87
242.363	-44.42
242.581	-42.57
242.799	-74.48
243.017	-91.43
243.235	-128.01
243.453	-55.76
243.672	-74.93
243.89	-49.54
244.108	-26.32
244.326	26.59
244.544	33.54
244.762	27.62
244.98	29.05
245.198	9.02
245.416	28.04
245.634	0.29
245.852	4.25
246.07	42.06
246.288	22.11
246.506	-24.63
246.724	31.01
246.942	36.94
247.16	-10.26
247.378	-10.42
247.596	-1.38
247.814	-27.82
248.032	-45.87
248.25	-65.74
248.468	-44.6
248.685	-27.96
248.903	-27.76
249.121	-20.86
249.339	12.01
249.557	11.62
249.775	19.16
249.992	1.41
250.21	13.88
250.428	11.9
250.646	5.81
250.863	-14.62
251.081	7.27
251.299	-3.41
251.517	-0.61
251.734	-16.77
251.952	-51.1
252.17	-32.27
252.387	-52.89
252.605	-48.95
252.823	5.91
253.04	31.38
253.258	20.72
253.475	51.52
253.693	49.62
253.911	44.77
254.128	29.09
254.346	40.76
254.563	16.68
254.781	25.89
254.998	-2.95
255.216	-26.19
255.433	-63.16
255.651	-116.86
255.868	-98.76
256.086	-69.88
256.303	-61.64
256.521	-80.86
256.738	-105.36
256.956	-211.91
257.173	-38.8
257.39	66.54
257.608	45.68
257.825	46.09
258.043	38.28
258.26	31.62
258.477	2.44
258.695	15.25
258.912	29.51
259.129	23.05
259.346	16.97
259.564	-0
259.781	18.68
259.998	10.22
260.216	27.19
260.433	26.37
260.65	40.46
260.867	-0
261.084	-13.58
261.302	-14.8
261.519	-8.06
261.736	8.46
261.953	8.2
262.17	8.28
262.387	41.87
262.604	47.23
262.822	66.08
263.039	97.73
263.256	113.7
263.473	49.78
263.69	38.1
263.907	19.06
264.124	-2.12
264.341	-11.57
264.558	-3.29
264.775	5.67
264.992	23.2
265.209	34.56
265.426	27.09
265.643	21.84
265.86	9.13
266.077	-10.77
266.294	-26.42
266.51	-0
266.727	6.16
266.944	28.99
267.161	21.38
267.378	11.71
267.595	-2.58
267.812	-19.02
268.028	-29.28
268.245	-12.7
268.462	-12.17
268.679	-22.14
268.896	-2.17
269.112	2.42
269.329	44.85
269.546	39.62
269.763	43.89
269.979	45.52
270.196	62.37
270.413	36.11
270.629	46.38
270.846	41.19
271.063	39.99
271.279	21.34
271.496	4.2
271.712	-69.18
271.929	-87.56
272.146	-61.15
272.362	-132.03
272.579	-50.58
272.795	-30.68
273.012	10.88
273.228	-1.39
273.445	26.53
273.661	20.62
273.878	20.51
274.094	-22.76
274.311	-21.17
274.527	-37.99
274.744	-50.88
274.96	-51.53
275.177	-18.35
275.393	-31.85
275.609	-22.91
275.826	-32.07
276.042	-23.47
276.259	-28.33
276.475	-8.6
276.691	1.14
276.908	4.72
277.124	29.08
277.34	32.18
277.557	7.11
277.773	7.33
277.989	16.84
278.205	11.91
278.422	8.06
278.638	39.99
278.854	45.06
279.07	36.42
279.286	-2.73
279.503	-5.63
279.719	3.89
279.935	33.16
280.151	54.28
280.367	73.65
280.583	62.93
280.799	53.9
281.016	33.05
281.232	18.72
281.448	-0
281.664	-17.5
281.88	-17.96
282.096	-9.31
282.312	1.85
282.528	14.59
282.744	20.86
282.96	16.22
283.176	19.98
283.392	14.55
283.608	26.66
283.824	25.86
284.04	40.57
284.256	48.06
284.471	48.53
284.687	45.11
284.903	40.4
285.119	33.88
285.335	-1.84
285.551	-5.3
285.767	-26.45
285.982	-61.94
286.198	-153.47
286.414	-88.13
286.63	-49.12
286.846	-18.31
287.061	-5.8
287.277	1.47
287.493	29.03
287.709	8.72
287.924	14.85
288.14	22.74
288.356	46.9
288.571	50.95
288.787	56.43
289.003	61.42
289.218	41.45
289.434	-21.24
289.65	-76.16
289.865	-57.17
290.081	-29.82
290.296	-20.21
290.512	-4.14
290.727	18.38
290.943	26.58
291.159	48.14
291.374	61.02
291.59	45.01
291.805	42.39
292.021	50.91
292.236	15.38
292.451	-24.12
292.667	-7.52
292.882	-15.79
293.098	-16
293.313	-12.41
293.529	8.71
293.744	10.1
293.959	9.39
294.175	21.63
294.39	22.64
294.605	9.84
294.821	20.62
295.036	2.06
295.251	19.36
295.467	20.11
295.682	17.4
295.897	15.53
296.112	23.77
296.328	3.06
296.543	6.51
296.758	-11.15
296.973	-10.14
297.188	21.18
297.404	22.64
297.619	9.8
297.834	4.73
298.049	-21.17
298.264	-62.8
298.479	-103.15
298.694	-72.36
298.909	-16.97
299.125	8.19
299.34	28.29
299.555	26.75
299.77	33.75
299.985	40.54
300.2	60.48
300.415	47.46
300.63	39.47
300.845	22.36
301.06	12.51
301.275	-13.45
301.49	-6.51
301.704	-4.96
301.919	22.11
302.134	30.01
302.349	44.46
302.564	35.74
302.779	39.57
302.994	45.07
303.209	48.59
303.423	25.18
303.638	19.13
303.853	11.71
304.068	4.75
304.283	1.84
304.497	-1.53
304.712	8.36
304.927	-1.97
305.142	14.81
305.356	0.27
305.571	22.69
305.786	21.5
306	35.69
306.215	29.43
306.43	46.76
306.644	43.97
306.859	29.5
307.074	20.93
307.288	22.56
307.503	19.81
307.717	-1.39
307.932	8.14
308.147	10.83
308.361	9.42
308.576	-13.38
308.79	-2.29
309.005	1.62
309.219	-30.4
309.434	-63.63
309.648	-75.81
309.863	-64.49
310.077	-123.24
310.292	-68.35
310.506	-51.87
310.72	-30.95
310.935	-42.97
311.149	-16.58
311.364	2.8
311.578	23.9
311.792	53.3
312.007	69.93
312.221	47.06
312.435	57.55
312.649	66.5
312.864	39.2
313.078	24.18
313.292	58.51
313.507	57.44
313.721	58.75
313.935	70.58
314.149	61.15
314.363	31.92
314.578	32.46
314.792	8.02
315.006	-21.26
315.22	-14.95
315.434	-22.48
315.648	-77.57
315.862	-76.52
316.077	-58.55
316.291	-11.4
316.505	6.14
316.719	23.45
316.933	23.75
317.147	36.36
317.361	28.23
317.575	16.13
317.789	16.61
318.003	9.9
318.217	34.99
318.431	38.1
318.645	46.65
318.859	25.15
319.073	13.89
319.287	-9.16
319.5	5.47
319.714	0.47
319.928	36.45
320.142	30.82
320.356	14.19
320.57	-4.03
320.784	-18.81
320.997	-52.48
321.211	3.05
321.425	-1.56
321.639	-35.68
321.853	-28.53
322.066	-12.18
322.28	-22.26
322.494	-26.16
322.707	-5.51
322.921	-1.95
323.135	-2.34
323.349	1.86
323.562	9.43
323.776	32.62
323.989	38.09
324.203	26.77
324.417	29.57
324.63	12.64
324.844	-12.02
325.057	-16.9
325.271	-31.15
325.485	-14.8
325.698	5.59
325.912	19.62
326.125	26.75
326.339	46.12
326.552	30.16
326.766	23.36
326.979	33.74
327.193	46.43
327.406	33.85
327.619	61.61
327.833	45.25
328.046	48.77
328.26	37.28
328.473	-15.53
328.686	-16.51
328.9	7.15
329.113	-5.61
329.326	-8.67
329.54	35.92
329.753	34.27
329.966	29.56
330.179	35.4
330.393	62.34
330.606	55.6
330.819	44.21
331.032	46.06
331.246	56.87
331.459	28.19
331.672	9.98
331.885	39.88
332.098	53.03
332.311	40.84
332.525	36.29
332.738	30.23
332.951	9.45
333.164	0.35
333.377	-0.71
333.59	-5.23
333.803	-4.17
334.016	-2.44
334.229	-8.51
334.442	-4.6
334.655	9.44
334.868	14.27
335.081	11.16
335.294	24.08
335.507	32.26
335.72	39.97
335.933	35.43
336.146	39.24
336.359	38.26
336.572	27.71
336.785	11.18
336.997	21.55
337.21	46.26
337.423	42.77
337.636	45.44
337.849	62.36
338.062	27.47
338.274	-29.01
338.487	-18.14
338.7	0.58
338.913	-19.88
339.125	12.31
339.338	20.73
339.551	2.36
339.763	14.1
339.976	41.93
340.189	44.74
340.402	50.48
340.614	48.65
340.827	47.7
341.039	27.33
341.252	21.49
341.465	29.75
341.677	34.8
341.89	16.88
342.102	24.11
342.315	5.64
342.527	3.62
342.74	-1.37
342.952	0.91
343.165	-0.88
343.377	13.68
343.59	-45.32
343.802	-44.77
344.015	-43.21
344.227	-39.96
344.44	-18.33
344.652	18.56
344.864	32.85
345.077	31.36
345.289	24.16
345.502	6.59
345.714	-3.24
345.926	-2.51
346.139	9.13
346.351	8.26
346.563	5.48
346.775	3.95
346.988	-21.3
347.2	-3.89
347.412	6.17
347.624	4.81
347.837	1.33
348.049	5.17
348.261	-19.12
348.473	3.56
348.685	34.5
348.897	39.26
349.11	63.56
349.322	56.32
349.534	40.97
349.746	14.66
349.958	5.05
350.17	10.37
350.382	30.24
350.594	24.39
350.806	26.21
351.018	38.11
351.23	25.98
351.442	20.17
351.654	15.65
351.866	9.92
352.078	-11.99
352.29	-17.14
352.502	-2.94
352.714	-12.83
352.926	5.77
353.138	6.32
353.35	22.53
353.561	9.48
353.773	6.92
353.985	13.01
354.197	36.71
354.409	22.83
354.621	16.47
354.832	43.38
355.044	16.51
355.256	15.94
355.468	10.17
355.679	16.68
355.891	18.03
356.103	20.95
356.314	10.89
356.526	10.06
356.738	14.54
356.949	-24.74
357.161	-6.96
357.373	-14.18
357.584	-16.97
357.796	-15.5
358.008	13.36
358.219	-16.2
358.431	4.3
358.642	12.26
358.854	28.03
359.065	39.8
359.277	50.61
359.488	29.18
359.7	29.47
359.911	13.19
360.123	6.71
360.334	7.96
360.546	11.81
360.757	14.84
360.969	20.97
361.18	26.56
361.391	21.74
361.603	53.17
361.814	48.77
362.025	53.99
362.237	34.53
362.448	35.01
362.659	12.68
362.871	2.14
363.082	-8.33
363.293	-12.44
363.504	-35.73
363.716	-21.24
363.927	4.79
364.138	-2.23
364.349	-13.68
364.56	8.5
364.772	-13.82
364.983	-33.82
365.194	-16.68
365.405	11.53
365.616	11.55
365.827	24.8
366.038	36.8
366.25	27.67
366.461	23.05
366.672	17.81
366.883	21.07
367.094	9.93
367.305	27.41
367.516	34.2
367.727	42.86
367.938	42.81
368.149	49.78
368.36	43.8
368.571	34.06
368.781	3.55
368.992	-9.16
369.203	-12.28
369.414	-17.25
369.625	-24.93
369.836	-23.55
370.047	-14.91
370.258	-11.79
370.468	-4.66
370.679	5.01
370.89	8.23
371.101	0.51
371.312	-10.13
371.522	-13.75
371.733	-23.97
371.944	-20.63
372.155	3.1
372.365	-1.65
372.576	6
372.787	13.2
372.997	21.15
373.208	18.72
373.419	33.59
373.629	16.31
373.84	22.35
374.05	23.91
374.261	3.91
374.472	7.04
374.682	7.95
374.893	8.06
375.103	1.11
375.314	21.67
375.524	29.61
375.735	27.95
375.945	43.88
376.156	44.88
376.366	33.54
376.577	30.55
376.787	32.32
376.997	18.51
377.208	20.95
377.418	31.24
377.629	30.2
377.839	36.68
378.049	27.64
378.26	16.81
378.47	20.88
378.68	31.95
378.89	14.41
379.101	15.77
379.311	30.06
379.521	16.36
379.732	8.37
379.942	24.95
380.152	40.56
380.362	30.03
380.572	34.8
380.783	26.97
380.993	15.33
381.203	2.81
381.413	4.72
381.623	9.25
381.833	15.9
382.043	24.83
382.253	25.76
382.463	31.55
382.674	25.23
382.884	22.53
383.094	8.77
383.304	-0.92
383.514	-2.87
383.724	-3.11
383.934	1.9
384.144	10.77
384.353	23.38
384.563	22.26
384.773	27.63
384.983	23.51
385.193	21.91
385.403	16.66
385.613	15.8
385.823	5.14
386.033	5.68
386.242	1.71
386.452	1.22
386.662	4.14
386.872	7.22
387.082	9.42
387.291	-0.82
387.501	-0.63
387.711	-1.74
387.921	-1.84
388.13	-5.33
388.34	5.59
388.55	4.24
388.759	-0.64
388.969	0.6
389.179	0.07
389.388	1.13
389.598	4.91
389.807	10.93
390.017	10.62
390.227	12.75
390.436	11.63
390.646	8.87
390.855	6.82
391.065	6.52
391.274	6.14
391.484	6.94
391.693	6.72
391.903	7.09
392.112	7.96
392.322	6.58
392.531	5.75
392.74	6.68
392.95	5.78
393.159	4.68
393.369	5.73
393.578	6.16
393.787	6
393.997	6.4
394.206	6.19
394.415	6.38
394.625	7.3
394.834	6.93
395.043	6.37
395.252	7.01
395.462	7.5
395.671	7.21
395.88	8.41
396.089	8.22
396.298	8.05
396.508	7.16
396.717	6.69
396.926	5.92
397.135	5.67
397.344	5.02
397.553	5.32
397.762	5.73
397.971	5.31
398.181	5.3
398.39	5.54
398.599	5.22
398.808	5.07
399.017	5.25
399.226	5.63
399.435	5.94
399.644	6.23
399.853	6.24
400.062	6.41
400.27	6.31
400.479	6.12
400.688	5.75
400.897	6.01
401.106	5.75
401.315	5.64
401.524	5.88
401.733	6
401.941	5.8
402.15	5.54
402.359	5.48
402.568	5.21
402.777	5.32
402.985	4.93
403.194	5.1
403.403	5.2
403.612	5.24
403.82	5.05
404.029	5.29
404.238	5.49
404.446	5.38
404.655	5.33
404.864	5.34
405.072	5.28
405.281	5.21
405.489	5.46
405.698	5.65
405.906	5.73
406.115	5.52
406.324	5.6
406.532	5.36
406.741	5.11
406.949	5.02
407.158	5.19
407.366	5.21
407.574	5.31
407.783	5.45
407.991	5.36
408.2	5.32
408.408	5.13
408.617	5.17
408.825	5.11
409.033	5.24
409.242	5.15
409.45	5.02
409.658	4.82
409.867	4.76
410.075	4.79
410.283	4.91
410.491	5.04
410.7	5.25
410.908	5.17
411.116	5.18
411.324	5.17
411.533	5.09
411.741	4.85
411.949	4.96
412.157	4.93
412.365	4.85
412.573	4.83
412.781	4.98
412.99	4.95
413.198	4.97
413.406	5.04
413.614	5
413.822	4.98
414.03	5.12
414.238	5.02
414.446	4.92
414.654	5
414.862	4.85
415.07	4.77
415.278	4.82
415.486	4.75
415.694	4.83
415.902	4.83
416.109	4.64
416.317	4.7
416.525	4.7
416.733	4.53
416.941	4.74
417.149	4.81
417.357	4.64
417.564	4.54
417.772	4.39
417.98	4.26
418.188	4.24
418.395	4.13
418.603	4.28
418.811	4.34
419.019	4.33
419.226	4.29
419.434	4.67
419.642	4.64
419.849	4.9
420.057	4.75
420.265	4.72
420.472	4.35
420.68	4.33
420.887	4.06
421.095	4.18
421.302	4.16
421.51	4.06
421.717	4.1
421.925	4.12
422.132	4.22
422.34	4.29
422.547	4.5
422.755	4.42
422.962	4.47
423.17	4.34
423.377	4.28
423.585	4.37
423.792	4.35
423.999	4.35
424.207	4.28
424.414	4.16
424.621	4.21
424.829	4.28
425.036	4.44
425.243	4.54
425.451	4.8
425.658	4.71
425.865	4.66
426.072	4.5
426.28	4.3
426.487	4.16
426.694	3.99
426.901	4.03
427.108	4.08
427.315	4.1
427.523	4.12
427.73	4.13
427.937	4.05
428.144	4.04
428.351	4.34
428.558	4.47
428.765	4.53
428.972	4.56
429.179	4.56
429.386	4.4
429.593	4.32
429.8	4.34
430.007	4.32
430.214	4.22
430.421	4.3
430.628	4.26
430.835	4.19
431.042	4.25
431.249	4.41
431.456	4.35
431.662	4.47
431.869	4.58
432.076	4.51
432.283	4.58
432.49	4.57
432.697	4.49
432.903	4.32
433.11	4.32
433.317	4.2
433.524	4.26
433.73	4.23
433.937	4.19
434.144	4.35
434.35	4.32
434.557	4.27
434.764	4.32
434.97	4.46
435.177	4.49
435.384	4.25
435.59	4.2
435.797	4.28
436.003	4.29
436.21	4.07
436.416	4.17
436.623	4.1
436.829	4.03
437.036	3.91
437.242	3.93
437.449	4.09
437.655	4.28
437.862	4.35
438.068	4.57
438.275	4.77
438.481	4.85
438.687	4.7
438.894	4.87
439.1	4.72
439.307	4.66
439.513	4.68
439.719	4.82
439.926	4.74
440.132	4.96
440.338	4.99
440.544	4.97
440.751	4.99
440.957	4.89
441.163	4.74
441.369	4.68
441.575	4.63
441.782	4.6
441.988	4.56
442.194	4.55
442.4	4.59
442.606	4.63
442.812	4.65
443.018	4.57
443.224	4.59
443.431	4.63
443.637	4.63
443.843	4.56
444.049	4.62
444.255	4.59
444.461	4.65
444.667	4.63
444.873	4.63
445.079	4.56
445.284	4.7
445.49	4.64
445.696	4.78
445.902	4.88
446.108	5.03
446.314	4.89
446.52	4.91
446.726	4.84
446.931	4.8
447.137	4.78
447.343	4.88
447.549	4.86
447.755	4.88
447.96	4.89
448.166	4.93
448.372	4.97
448.578	4.99
448.783	5.16
448.989	5.12
449.195	5.14
449.4	5.13
449.606	5.18
449.812	5
450.017	5.08
450.223	5
450.428	5
450.634	4.99
450.84	4.93
451.045	4.9
451.251	4.94
451.456	4.99
451.662	4.96
451.867	5
452.073	4.98
452.278	4.95
452.483	4.96
452.689	5.01
452.894	5.06
453.1	5.11
453.305	5.13
453.51	5.07
453.716	5.04
453.921	5.16
454.127	5.17
454.332	5.12
454.537	5.16
454.742	5.14
454.948	5.04
455.153	5.07
455.358	5.13
455.563	5.21
455.769	5.15
455.974	5.22
456.179	5.09
456.384	4.93
456.589	4.83
456.795	4.96
457	4.97
457.205	5.05
457.41	5.28
457.615	5.28
457.82	5.23
458.025	5.07
458.23	5.1
458.435	4.98
458.64	4.97
458.845	5.08
459.05	5.13
459.255	5.05
459.46	5.26
459.665	5.33
459.87	5.26
460.075	5.3
460.28	5.43
460.485	5.33
460.69	5.26
460.895	5.18
461.099	5.19
461.304	5.22
461.509	5.21
461.714	5.21
461.919	5.33
462.123	5.23
462.328	5.25
462.533	5.29
462.738	5.4
462.942	5.38
463.147	5.49
463.352	5.47
463.556	5.55
463.761	5.33
463.966	5.3
464.17	5.36
464.375	5.45
464.58	5.29
464.784	5.53
464.989	5.58
465.193	5.48
465.398	5.54
465.602	5.78
465.807	5.82
466.011	5.91
466.216	6.01
466.42	5.88
466.625	5.91
466.829	5.86
467.034	5.81
467.238	5.7
467.443	5.64
467.647	5.35
467.851	5.28
468.056	5.24
468.26	5.31
468.464	5.32
468.669	5.51
468.873	5.58
469.077	5.63
469.282	5.71
469.486	5.71
469.69	5.66
469.894	5.6
470.099	5.56
470.303	5.42
470.507	5.46
470.711	5.46
470.915	5.55
471.119	5.56
471.324	5.71
471.528	5.63
471.732	5.72
471.936	5.62
472.14	5.61
472.344	5.51
472.548	5.67
472.752	5.62
472.956	5.71
473.16	5.88
473.364	5.83
473.568	5.78
473.772	5.74
473.976	5.61
474.18	5.48
474.384	5.53
474.588	5.57
474.792	5.65
474.995	5.68
475.199	5.62
475.403	5.62
475.607	5.62
475.811	5.53
476.015	5.55
476.218	5.69
476.422	5.65
476.626	5.7
476.83	5.72
477.033	5.79
477.237	5.81
477.441	5.91
477.644	5.82
477.848	5.88
478.052	5.82
478.255	5.71
478.459	5.72
478.663	5.72
478.866	5.68
479.07	5.68
479.273	5.73
479.477	5.82
479.681	5.97
479.884	5.97
480.088	5.97
480.291	5.96
480.495	5.85
480.698	5.74
480.901	5.73
481.105	5.75
481.308	5.73
481.512	5.7
481.715	5.75
481.919	5.81
482.122	5.89
482.325	5.94
482.529	5.94
482.732	5.91
482.935	5.81
483.138	5.85
483.342	5.77
483.545	5.77
483.748	5.82
483.952	5.85
484.155	5.82
484.358	5.83
484.561	5.86
484.764	5.82
484.967	5.88
485.171	5.77
485.374	5.82
485.577	5.87
485.78	5.86
485.983	5.84
486.186	5.93
486.389	5.79
486.592	5.77
486.795	5.73
486.998	5.7
487.201	5.64
487.404	5.76
487.607	5.82
487.81	5.86
488.013	5.85
488.216	5.83
488.419	5.8
488.622	5.68
488.825	5.63
489.028	5.57
489.231	5.68
489.433	5.71
489.636	5.75
489.839	5.71
490.042	5.79
490.245	5.7
490.447	5.66
490.65	5.62
490.853	5.72
491.056	5.7
491.258	5.73
491.461	5.79
491.664	5.71
491.866	5.6
492.069	5.62
492.272	5.51
492.474	5.45
492.677	5.48
492.879	5.57
493.082	5.55
493.285	5.63
493.487	5.6
493.69	5.64
493.892	5.61
494.095	5.68
494.297	5.74
494.5	5.83
494.702	5.76
494.905	5.76
495.107	5.6
495.309	5.5
495.512	5.41
495.714	5.5
495.917	5.49
496.119	5.63
496.321	5.68
496.524	5.71
496.726	5.67
496.928	5.65
497.13	5.58
497.333	5.56
497.535	5.64
497.737	5.63
497.939	5.68
498.142	5.69
498.344	5.73
498.546	5.64
498.748	5.65
498.95	5.62
499.152	5.57
499.355	5.55
499.557	5.61
499.759	5.65
499.961	5.69
500.163	5.7
500.365	5.76
500.567	5.74
500.769	5.67
500.971	5.62
501.173	5.7
501.375	5.6
501.577	5.61
501.779	5.65
501.981	5.71
502.183	5.66
502.385	5.61
502.587	5.6
502.788	5.57
502.99	5.55
503.192	5.52
503.394	5.57
503.596	5.55
503.798	5.52
503.999	5.46
504.201	5.39
504.403	5.41
504.605	5.4
504.806	5.34
505.008	5.37
505.21	5.42
505.411	5.33
505.613	5.31
505.815	5.37
506.016	5.34
506.218	5.34
506.42	5.38
506.621	5.43
506.823	5.45
507.024	5.46
507.226	5.52
507.427	5.51
507.629	5.44
507.83	5.46
508.032	5.45
508.233	5.46
508.435	5.42
508.636	5.48
508.838	5.44
509.039	5.44
509.24	5.41
509.442	5.49
509.643	5.47
509.845	5.48
510.046	5.53
510.247	5.55
510.448	5.52
510.65	5.55
510.851	5.53
511.052	5.55
511.254	5.53
511.455	5.5
511.656	5.44
511.857	5.41
512.058	5.32
512.26	5.25
512.461	5.25
512.662	5.32
512.863	5.29
513.064	5.34
513.265	5.43
513.466	5.43
513.667	5.39
513.868	5.45
514.069	5.43
514.27	5.32
514.471	5.33
514.672	5.31
514.873	5.22
515.074	5.22
515.275	5.29
515.476	5.29
515.677	5.31
515.878	5.42
516.079	5.41
516.28	5.4
516.481	5.42
516.682	5.44
516.882	5.45
517.083	5.39
517.284	5.4
517.485	5.32
517.686	5.3
517.886	5.25
518.087	5.23
518.288	5.21
518.488	5.22
518.689	5.2
518.89	5.24
519.091	5.3
519.291	5.26
519.492	5.29
519.692	5.32
519.893	5.32
520.094	5.26
520.294	5.32
520.495	5.36
520.695	5.34
520.896	5.25
521.096	5.26
521.297	5.29
521.497	5.27
521.698	5.28
521.898	5.29
522.099	5.36
522.299	5.32
522.499	5.36
522.7	5.38
522.9	5.39
523.101	5.35
523.301	5.34
523.501	5.25
523.702	5.26
523.902	5.28
524.102	5.33
524.302	5.3
524.503	5.25
524.703	5.22
524.903	5.26
525.103	5.25
525.304	5.24
525.504	5.39
525.704	5.32
525.904	5.29
526.104	5.27
526.304	5.35
526.504	5.27
526.705	5.32
526.905	5.36
527.105	5.41
527.305	5.4
527.505	5.44
527.705	5.46
527.905	5.42
528.105	5.39
528.305	5.35
528.505	5.4
528.705	5.38
528.905	5.35
529.105	5.35
529.304	5.35
529.504	5.3
529.704	5.32
529.904	5.33
530.104	5.27
530.304	5.3
530.503	5.24
530.703	5.17
530.903	5.21
531.103	5.22
531.303	5.26
531.502	5.31
531.702	5.32
531.902	5.36
532.101	5.43
532.301	5.38
532.501	5.37
532.7	5.42
532.9	5.39
533.1	5.35
533.299	5.3
533.499	5.33
533.698	5.3
533.898	5.29
534.097	5.29
534.297	5.32
534.496	5.32
534.696	5.35
534.895	5.36
535.095	5.39
535.294	5.43
535.494	5.41
535.693	5.4
535.892	5.4
536.092	5.43
536.291	5.42
536.491	5.46
536.69	5.48
536.889	5.45
537.088	5.41
537.288	5.37
537.487	5.37
537.686	5.35
537.886	5.37
538.085	5.41
538.284	5.47
538.483	5.48
538.682	5.57
538.882	5.57
539.081	5.51
539.28	5.46
539.479	5.5
539.678	5.42
539.877	5.42
540.076	5.48
540.275	5.59
540.474	5.54
540.673	5.6
540.872	5.63
541.071	5.7
541.27	5.72
541.469	5.7
541.668	5.7
541.867	5.71
542.066	5.64
542.265	5.67
542.464	5.73
542.663	5.74
542.862	5.8
543.06	5.83
543.259	5.79
543.458	5.86
543.657	5.93
543.856	5.89
544.054	5.94
544.253	5.89
544.452	5.85
544.651	5.83
544.849	5.86
545.048	5.83
545.247	5.89
545.445	5.91
545.644	5.95
545.843	6.01
546.041	6.04
546.24	6.05
546.438	6.11
546.637	6.09
546.836	6.09
547.034	6.12
547.233	6.13
547.431	6.15
547.63	6.21
547.828	6.24
548.027	6.3
548.225	6.32
548.423	6.37
548.622	6.37
548.82	6.36
549.019	6.36
549.217	6.38
549.415	6.4
549.614	6.39
549.812	6.39
550.01	6.45
550.209	6.52
550.407	6.56
550.605	6.57
550.803	6.64
551.002	6.71
551.2	6.7
551.398	6.78
551.596	6.86
551.794	6.87
551.993	6.82
552.191	6.86
552.389	6.82
552.587	6.83
552.785	6.87
552.983	6.93
553.181	6.97
553.379	7.02
553.577	7.17
553.775	7.23
553.973	7.28
554.171	7.4
554.369	7.49
554.567	7.46
554.765	7.53
554.963	7.56
555.161	7.51
555.359	7.44
555.557	7.51
555.755	7.49
555.952	7.56
556.15	7.66
556.348	7.76
556.546	7.79
556.744	7.88
556.941	7.92
557.139	8.01
557.337	8.09
557.535	8.07
557.732	8.13
557.93	8.19
558.128	8.19
558.325	8.19
558.523	8.3
558.721	8.25
558.918	8.29
559.116	8.3
559.313	8.4
559.511	8.54
559.708	8.72
559.906	8.83
560.104	8.87
560.301	8.98
560.498	8.94
560.696	8.97
560.893	8.97
561.091	9.08
561.288	9.1
561.486	9.13
561.683	9.15
561.88	9.14
562.078	9.14
562.275	9.16
562.473	9.25
562.67	9.34
562.867	9.43
563.064	9.53
563.262	9.55
563.459	9.62
563.656	9.63
563.853	9.67
564.051	9.69
564.248	9.82
564.445	9.76
564.642	9.79
564.839	9.85
565.036	9.9
565.234	9.91
565.431	10.09
565.628	10.14
565.825	10.25
566.022	10.33
566.219	10.39
566.416	10.27
566.613	10.32
566.81	10.33
567.007	10.28
567.204	10.29
567.401	10.47
567.598	10.54
567.795	10.61
567.991	10.68
568.188	10.69
568.385	10.64
568.582	10.63
568.779	10.58
568.976	10.69
569.172	10.73
569.369	10.81
569.566	10.88
569.763	10.9
569.96	10.85
570.156	10.88
570.353	10.9
570.55	10.95
570.746	11
570.943	11.1
571.14	11.16
571.336	11.25
571.533	11.21
571.729	11.26
571.926	11.25
572.123	11.21
572.319	11.16
572.516	11.13
572.712	11.19
572.909	11.15
573.105	11.22
573.302	11.23
573.498	11.23
573.695	11.07
573.891	11.08
574.087	11
574.284	11.06
574.48	11.09
574.677	11.21
574.873	11.26
575.069	11.29
575.266	11.26
575.462	11.27
575.658	11.23
575.854	11.22
576.051	11.22
576.247	11.23
576.443	11.23
576.639	11.27
576.835	11.18
577.032	11.17
577.228	11.15
577.424	11.2
577.62	11.13
577.816	11.14
578.012	11.19
578.208	11.18
578.404	11.12
578.6	11.12
578.796	11.2
578.993	11.2
579.189	11.19
579.384	11.22
579.58	11.23
579.776	11.21
579.972	11.12
580.168	11.06
580.364	11
580.56	10.94
580.756	10.89
580.952	10.91
581.148	10.96
581.343	11.01
581.539	11.11
581.735	11.06
581.931	10.99
582.127	10.99
582.322	10.88
582.518	10.76
582.714	10.79
582.909	10.74
583.105	10.64
583.301	10.69
583.496	10.74
583.692	10.7
583.888	10.75
584.083	10.71
584.279	10.65
584.474	10.64
584.67	10.59
584.866	10.6
585.061	10.59
585.257	10.6
585.452	10.57
585.648	10.63
585.843	10.61
586.039	10.69
586.234	10.67
586.429	10.66
586.625	10.67
586.82	10.67
587.015	10.66
587.211	10.62
587.406	10.64
587.601	10.67
587.797	10.68
587.992	10.56
588.187	10.58
588.383	10.62
588.578	10.51
588.773	10.41
588.968	10.6
589.163	10.69
589.359	10.63
589.554	10.62
589.749	10.74
589.944	10.6
590.139	10.51
590.334	10.5
590.529	10.57
590.724	10.65
590.919	10.75
591.114	10.85
591.309	10.88
591.504	10.88
591.699	10.74
591.894	10.67
592.089	10.67
592.284	10.74
592.479	10.75
592.674	10.88
592.869	10.98
593.064	11
593.259	10.99
593.454	11.02
593.648	11.06
593.843	11.05
594.038	11.06
594.233	11.14
594.428	11.19
594.622	11.25
594.817	11.32
595.012	11.3
595.206	11.43
595.401	11.53
595.596	11.49
595.79	11.55
595.985	11.62
596.18	11.59
596.374	11.6
596.569	11.7
596.763	11.83
596.958	12
597.153	12.06
597.347	12.16
597.542	12.18
597.736	12.2
597.931	12.16
598.125	12.13
598.319	12.19
598.514	12.17
598.708	12.16
598.903	12.17
599.097	12.22
599.291	12.23
599.486	12.29
599.68	12.27
599.874	12.4
600.069	12.46
600.263	12.44
600.457	12.54
600.651	12.56
600.846	12.54
601.04	12.46
601.234	12.42
601.428	12.4
601.622	12.48
601.817	12.47
602.011	12.54
602.205	12.57
602.399	12.67
602.593	12.65
602.787	12.67
602.981	12.75
603.175	12.83
603.369	12.73
603.563	12.78
603.757	12.8
603.951	12.72
604.145	12.64
604.339	12.74
604.533	12.62
604.727	12.62
604.921	12.59
605.115	12.6
605.309	12.5
605.502	12.52
605.696	12.41
605.89	12.42
606.084	12.44
606.278	12.45
606.471	12.45
606.665	12.45
606.859	12.35
607.053	12.31
607.246	12.24
607.44	12.21
607.634	12.21
607.827	12.27
608.021	12.12
608.214	12.07
608.408	12.02
608.602	12
608.795	11.95
608.989	12.01
609.182	11.98
609.376	12.03
609.569	11.92
609.763	11.83
609.956	11.76
610.15	11.69
610.343	11.5
610.537	11.44
610.73	11.33
610.923	11.29
611.117	11.2
611.31	11.18
611.504	11.23
611.697	11.28
611.89	11.17
612.083	11.19
612.277	11.11
612.47	11.03
612.663	10.87
612.856	10.87
613.05	10.76
613.243	10.74
613.436	10.63
613.629	10.59
613.822	10.57
614.015	10.55
614.209	10.42
614.402	10.44
614.595	10.5
614.788	10.44
614.981	10.39
615.174	10.4
615.367	10.28
615.56	10.16
615.753	10.16
615.946	10.14
616.139	10.13
616.332	10.14
616.525	10.13
616.718	10.06
616.911	10.03
617.103	9.97
617.296	9.95
617.489	9.98
617.682	9.99
617.875	9.95
618.067	9.89
618.26	9.81
618.453	9.68
618.646	9.58
618.838	9.53
619.031	9.47
619.224	9.46
619.417	9.58
619.609	9.63
619.802	9.63
619.994	9.66
620.187	9.71
620.38	9.59
620.572	9.47
620.765	9.48
620.957	9.44
621.15	9.35
621.342	9.32
621.535	9.35
621.727	9.25
621.92	9.26
622.112	9.22
622.305	9.26
622.497	9.19
622.69	9.14
622.882	9.1
623.074	9.19
623.267	9.1
623.459	9.09
623.651	9.09
623.844	9.11
624.036	9.12
624.228	9.12
624.42	9.14
624.613	9.22
624.805	9.22
624.997	9.21
625.189	9.19
625.381	9.2
625.574	9.12
625.766	9.07
625.958	8.95
626.15	8.98
626.342	8.9
626.534	8.9
626.726	8.89
626.918	8.9
627.11	8.82
627.302	8.84
627.494	8.79
627.686	8.81
627.878	8.72
628.07	8.7
628.262	8.66
628.454	8.61
628.646	8.56
628.838	8.64
629.029	8.62
629.221	8.58
629.413	8.6
629.605	8.51
629.797	8.44
629.989	8.5
630.18	8.57
630.372	8.46
630.564	8.55
630.755	8.49
630.947	8.46
631.139	8.39
631.33	8.42
631.522	8.39
631.714	8.39
631.905	8.33
632.097	8.32
632.289	8.33
632.48	8.24
632.672	8.23
632.863	8.22
633.055	8.18
633.246	8.2
633.438	8.24
633.629	8.24
633.821	8.26
634.012	8.19
634.203	8.08
634.395	8.07
634.586	8.19
634.777	8.17
634.969	8.18
635.16	8.3
635.351	8.29
635.543	8.18
635.734	8.14
635.925	8.14
636.117	8.16
636.308	8.21
636.499	8.19
636.69	8.16
636.881	8.21
637.073	8.11
637.264	8.09
637.455	8.09
637.646	8.16
637.837	8.17
638.028	8.08
638.219	8.01
638.41	8.05
638.601	8.04
638.792	8.05
638.983	8.17
639.174	8.16
639.365	8.08
639.556	8.08
639.747	8.05
639.938	8.08
640.129	8.11
640.32	8.17
640.511	8.17
640.701	8.19
640.892	8.23
641.083	8.17
641.274	8.14
641.465	8.08
641.655	8.11
641.846	8.03
642.037	8.06
642.228	7.97
642.418	7.98
642.609	7.88
642.8	7.82
642.99	7.8
643.181	7.83
643.372	7.82
643.562	7.84
643.753	7.82
643.943	7.8
644.134	7.83
644.324	7.88
644.515	7.87
644.705	7.87
644.896	7.91
645.086	7.95
645.277	7.92
645.467	7.94
645.658	7.99
645.848	7.87
646.038	7.84
646.229	7.84
646.419	7.82
646.61	7.88
646.8	8.02
646.99	8.07
647.18	8.04
647.371	7.97
647.561	7.92
647.751	7.86
647.941	7.74
648.132	7.77
648.322	7.85
648.512	7.8
648.702	7.82
648.892	7.83
649.082	7.79
649.272	7.75
649.462	7.69
649.653	7.74
649.843	7.71
650.033	7.77
650.223	7.73
650.413	7.79
650.603	7.79
650.793	7.8
650.983	7.71
651.172	7.68
651.362	7.66
651.552	7.52
651.742	7.43
651.932	7.52
652.122	7.55
652.312	7.51
652.502	7.43
652.691	7.54
652.881	7.47
653.071	7.45
653.261	7.35
653.45	7.37
653.64	7.29
653.83	7.3
654.019	7.16
654.209	7.12
654.399	7.14
654.588	7.04
654.778	6.88
654.968	6.88
655.157	6.84
655.347	6.75
655.536	6.72
655.726	6.65
655.915	6.61
656.105	6.49
656.294	6.42
656.484	6.31
656.673	6.23
656.863	6.25
657.052	6.32
657.241	6.26
657.431	6.29
657.62	6.22
657.809	6.05
657.999	6.02
658.188	5.93
658.377	5.84
658.567	5.84
658.756	5.76
658.945	5.68
659.134	5.7
659.324	5.67
659.513	5.62
659.702	5.55
659.891	5.47
660.08	5.3
660.269	5.22
660.458	5.12
660.648	5.15
660.837	5.11
661.026	5
661.215	4.96
661.404	4.92
661.593	4.81
661.782	4.68
661.971	4.79
662.16	4.69
662.349	4.61
662.538	4.66
662.726	4.71
662.915	4.73
663.104	4.73
663.293	4.7
663.482	4.66
663.671	4.63
663.86	4.51
664.048	4.52
664.237	4.69
664.426	4.61
664.615	4.57
664.803	4.58
664.992	4.46
665.181	4.33
665.369	4.33
665.558	4.29
665.747	4.36
665.935	4.52
666.124	4.46
666.312	4.5
666.501	4.59
666.69	4.59
666.878	4.47
667.067	4.52
667.255	4.59
667.444	4.61
667.632	4.65
667.82	4.72
668.009	4.73
668.197	4.66
668.386	4.53
668.574	4.52
668.762	4.59
668.951	4.78
669.139	4.8
669.327	4.9
669.516	4.85
669.704	4.86
669.892	4.66
670.08	4.64
670.269	4.61
670.457	4.57
670.645	4.45
670.833	4.48
671.021	4.57
671.21	4.69
671.398	4.73
671.586	4.74
671.774	4.89
671.962	4.93
672.15	4.91
672.338	4.97
672.526	5.07
672.714	5.09
672.902	4.94
673.09	4.89
673.278	4.95
673.466	5.1
673.654	5.29
673.842	5.5
674.03	5.68
674.218	5.59
674.405	5.65
674.593	5.55
674.781	5.59
674.969	5.52
675.157	5.62
675.344	5.48
675.532	5.48
675.72	5.39
675.908	5.41
676.095	5.39
676.283	5.45
676.471	5.42
676.658	5.38
676.846	5.46
677.033	5.63
677.221	5.59
677.409	5.57
677.596	5.73
677.784	5.71
677.971	5.59
678.159	5.72
678.346	5.85
678.534	5.82
678.721	5.86
678.909	6
679.096	6.01
679.283	5.95
679.471	5.94
679.658	5.93
679.846	5.86
680.033	6.02
680.22	6.2
680.408	6.27
680.595	6.37
680.782	6.41
680.969	6.24
681.157	6.05
681.344	6.27
681.531	6.31
681.718	6.27
681.905	6.43
682.093	6.5
682.28	6.45
682.467	6.55
682.654	6.65
682.841	6.58
683.028	6.64
683.215	6.71
683.402	6.64
683.589	6.69
683.776	6.81
683.963	6.91
684.15	6.95
684.337	6.95
684.524	7.08
684.711	7.04
684.898	7.15
685.085	7.08
685.271	7.26
685.458	7.3
685.645	7.36
685.832	7.28
686.019	7.28
686.205	7.33
686.392	7.36
686.579	7.66
686.766	7.91
686.952	8.14
687.139	8.25
687.326	8.29
687.512	8.15
687.699	8.13
687.886	8.23
688.072	8.15
688.259	8.4
688.445	8.74
688.632	8.76
688.818	8.91
689.005	9.12
689.191	9.36
689.378	9.56
689.564	10.12
689.751	10.24
689.937	10.58
690.124	10.66
690.31	10.76
690.496	10.99
690.683	11.56
690.869	11.83
691.055	12.14
691.242	12.5
691.428	12.54
691.614	12.47
691.8	12.76
691.987	13.15
692.173	13.52
692.359	14.12
692.545	14.62
692.731	15.07
692.918	15.28
693.104	15.59
693.29	15.68
693.476	16.12
693.662	16.47
693.848	17.15
694.034	17.68
694.22	18.58
694.406	19.06
694.592	19.46
694.778	19.65
694.964	20.09
695.15	20.23
695.336	20.59
695.522	21.11
695.708	21.87
695.894	22.56
696.08	23.2
696.265	23.99
696.451	24.74
696.637	25.2
696.823	25.76
697.009	26.36
697.194	26.63
697.38	26.84
697.566	27.31
697.751	27.56
697.937	27.91
698.123	28.78
698.308	29.45
698.494	30.13
698.68	30.79
698.865	31.37
699.051	31.64
699.236	32.39
699.422	32.89
699.607	33.29
699.793	33.78
699.978	34.32
700.164	34.75
700.349	35.21
700.535	35.67
700.72	36.36
700.906	37.1
701.091	37.65
701.276	38.07
701.462	38.6
701.647	39.33
701.832	39.64
702.018	40.28
702.203	41.03
702.388	41.59
702.573	41.91
702.759	42.3
702.944	42.51
703.129	42.92
703.314	43.33
703.499	43.66
703.684	44.19
703.87	44.5
704.055	44.63
704.24	45.37
704.425	45.66
704.61	46.47
704.795	47.3
704.98	48.31
705.165	48.43
705.35	48.91
705.535	49.18
705.72	49.5
705.905	49.17
706.09	49.77
706.275	50.02
706.459	49.95
706.644	50.04
706.829	50.66
707.014	50.93
707.199	51.56
707.384	51.95
707.568	52.49
707.753	53.14
707.938	53.11
708.123	53.23
708.307	53.53
708.492	53.55
708.677	53.2
708.861	53.73
709.046	53.72
709.231	53.91
709.415	54.13
709.6	54.42
709.784	54.79
709.969	55.24
710.153	55.42
710.338	55.51
710.522	55.89
710.707	55.64
710.891	55.76
711.076	56.12
711.26	56.45
711.445	56.89
711.629	57.42
711.813	57.86
711.998	58.2
712.182	58.18
712.366	58.12
712.551	57.89
712.735	57.84
712.919	57.8
713.103	58.25
713.288	58.57
713.472	58.76
713.656	58.98
713.84	59.41
714.024	59.76
714.208	59.8
714.393	60.18
714.577	60.47
714.761	60.07
714.945	60.24
715.129	60.46
715.313	60.72
715.497	60.62
715.681	61.15
715.865	61.25
716.049	60.78
716.233	60.74
716.417	60.78
716.601	60.61
716.785	60.51
716.968	60.82
717.152	61.03
717.336	61.53
717.52	61.74
717.704	61.76
717.888	62.64
718.071	62.93
718.255	62.93
718.439	62.99
718.622	62.92
718.806	62.42
718.99	61.92
719.174	61.52
719.357	61.62
719.541	62.26
719.724	62.48
719.908	62.88
720.092	63.25
720.275	63.28
720.459	63.3
720.642	63.35
720.826	63.1
721.009	63.64
721.193	63.56
721.376	63.8
721.559	64.23
721.743	64.64
721.926	64.4
722.11	65.25
722.293	65.02
722.476	65.02
722.66	65.56
722.843	65.76
723.026	65.42
723.21	65.79
723.393	65.3
723.576	65.3
723.759	65.49
723.942	66
724.126	66.32
724.309	67.03
724.492	67.33
724.675	66.89
724.858	66.87
725.041	66.23
725.224	66.04
725.407	65.55
725.59	66.27
725.774	66.18
725.957	66.5
726.14	66.66
726.322	67.19
726.505	66.85
726.688	67.15
726.871	67.55
727.054	68.08
727.237	68.2
727.42	68.9
727.603	68.81
727.786	68.86
727.968	68.59
728.151	68.1
728.334	67.82
728.517	68.14
728.699	68.01
728.882	69.16
729.065	69.97
729.248	70.21
729.43	70.34
729.613	70.78
729.796	70.26
729.978	70.47
730.161	71.12
730.343	71.69
730.526	71.61
730.708	71.2
730.891	70.59
731.073	70.31
731.256	70.28
731.438	69.93
731.621	70.63
731.803	71.12
731.986	71.99
732.168	72.05
732.35	72.64
732.533	73.07
732.715	73.43
732.898	72.57
733.08	72.38
733.262	73.35
733.444	72.64
733.627	72.99
733.809	73.3
733.991	73.32
734.173	72.76
734.355	72.75
734.538	72.72
734.72	72.7
734.902	74.2
735.084	74.37
735.266	75.02
735.448	75.48
735.63	76.02
735.812	74.84
735.994	74.39
736.176	74.99
736.358	75.09
736.54	75.03
736.722	74.66
736.904	75.16
737.086	74.8
737.268	74.81
737.45	75.26
737.632	75.63
737.814	76.43
737.995	76.61
738.177	76.54
738.359	75.68
738.541	76.06
738.723	75.77
738.904	74.84
739.086	75.12
739.268	76.15
739.449	76.49
739.631	76.86
739.813	78.24
739.994	78.59
740.176	78.46
740.358	78.84
740.539	79.1
740.721	79.31
740.902	79.06
741.084	79.35
741.265	78.86
741.447	78.3
741.628	77.23
741.81	77.46
741.991	77.75
742.172	77.59
742.354	77.92
742.535	78.2
742.717	78.64
742.898	77.86
743.079	78.39
743.261	78.83
743.442	79.78
743.623	79.41
743.804	79.61
743.986	78.93
744.167	77.56
744.348	77.28
744.529	76.86
744.71	76.7
744.891	77.63
745.073	78.05
745.254	79.04
745.435	79.49
745.616	80.33
745.797	80.68
745.978	81.1
746.159	79.78
746.34	79.65
746.521	79.2
746.702	79.48
746.883	79.54
747.064	79.04
747.245	78.77
747.426	79.56
747.606	79.07
747.787	79.16
747.968	80.23
748.149	80.52
748.33	80.19
748.51	79.07
748.691	79.18
748.872	78.36
749.053	79.27
749.233	79.02
749.414	80.87
749.595	82.1
749.775	82.96
749.956	81.85
750.137	81.31
750.317	79.42
750.498	77.63
750.678	77.21
750.859	78.5
751.04	78.25
751.22	79.63
751.4	79.8
751.581	81.08
751.761	80.25
751.942	80.95
752.122	80.06
752.303	80.24
752.483	80.03
752.663	81.5
752.844	80.91
753.024	81.45
753.204	81.94
753.385	80.3
753.565	79.29
753.745	79.14
753.925	80.67
754.106	80.29
754.286	80.98
754.466	80.57
754.646	80.99
754.826	79.94
755.006	80.54
755.187	81.57
755.367	81.59
755.547	81.23
755.727	80.27
755.907	79.84
756.087	79.94
756.267	79.37
756.447	80.41
756.627	80.68
756.807	81.3
756.987	81.82
757.167	83.06
757.346	83.98
757.526	85.04
757.706	85.33
757.886	84.68
758.066	84.36
758.246	82.99
758.425	82.26
758.605	80.61
758.785	80.14
758.965	80.86
759.144	81.56
759.324	80.31
759.504	81.52
759.683	81.77
759.863	80.14
760.043	79.72
760.222	81.59
760.402	81.29
760.581	81.69
760.761	83.95
760.94	83.94
761.12	82.82
761.299	82.92
761.479	81.48
761.658	78.48
761.838	78.12
762.017	78.75
762.197	79.14
762.376	79.24
762.555	79.57
762.735	80.95
762.914	79.26
763.093	78.03
763.273	77.91
763.452	79.79
763.631	79.3
763.81	79.51
763.99	80.15
764.169	82.73
764.348	80.48
764.527	79.96
764.706	80.48
764.885	80.55
765.064	78.69
765.243	80.76
765.423	79.46
765.602	80.17
765.781	78.9
765.96	77.33
766.139	75.37
766.318	76.47
766.497	76.05
766.676	74.78
766.854	75.96
767.033	77.88
767.212	78.21
767.391	78.98
767.57	81.55
767.749	81.03
767.928	80.33
768.106	78.73
768.285	77.42
768.464	78.14
768.643	79.52
768.821	78.27
769	78.55
769.179	79.53
769.357	78.65
769.536	78.89
769.715	80.18
769.893	81.27
770.072	81.56
770.25	82.24
770.429	81.62
770.607	78.52
770.786	79.77
770.964	80.02
771.143	77.86
771.321	76.82
771.5	82.24
771.678	79.66
771.857	78.73
772.035	79.06
772.213	80.6
772.392	77.42
772.57	78.97
772.748	78.32
772.927	79.6
773.105	78.47
773.283	78.86
773.461	79.71
773.64	82.25
773.818	80.16
773.996	79.56
774.174	80.36
774.352	78.54
774.531	74.6
774.709	76.08
774.887	77.99
775.065	77.94
775.243	78.11
775.421	80.07
775.599	82.87
775.777	80.78
775.955	78.27
776.133	78.79
776.311	79.86
776.489	78.66
776.667	80.27
776.844	84.54
777.022	86.06
777.2	86.76
777.378	85.57
777.556	86.92
777.734	84.9
777.911	84.45
778.089	83.81
778.267	83.99
778.445	81.4
778.622	79.34
778.8	79.21
778.978	76.93
779.155	76.61
779.333	75.33
779.511	72.82
779.688	72.55
779.866	72.2
780.043	72.53
780.221	73.78
780.398	80.6
780.576	75.91
780.753	79.77
780.931	80.41
781.108	80.04
781.286	76.82
781.463	81.7
781.64	80.9
781.818	81.16
781.995	83.79
782.172	86.72
782.35	87.78
782.527	84.92
782.704	83.48
782.882	82.08
783.059	78.61
783.236	76.28
783.413	78.24
783.59	78.98
783.768	75.99
783.945	79.16
784.122	79.17
784.299	79.37
784.476	78.7
784.653	81.86
784.83	78.52
785.007	77.42
785.184	78.61
785.361	79.74
785.538	82.11
785.715	82.11
785.892	82.52
786.069	79.17
786.246	78.07
786.423	77.21
786.6	79.06
786.776	78.1
786.953	81.53
787.13	78.97
787.307	77.27
787.484	79.07
787.66	80.48
787.837	79.85
788.014	82.3
788.191	83.54
788.367	78.85
788.544	82.52
788.721	80.94
788.897	83.19
789.074	83.36
789.25	82.83
789.427	79.16
789.603	84.02
789.78	82.35
789.956	80.64
790.133	82.31
790.309	83.53
790.486	76.71
790.662	76.93
790.839	77.61
791.015	78.73
791.192	77.95
791.368	82.95
791.544	82.59
791.721	80.4
791.897	81.9
792.073	82.6
792.249	81.91
792.426	84.38
792.602	84.9
792.778	84.18
792.954	85.44
793.13	85.18
793.307	83.84
793.483	83.83
793.659	82.62
793.835	79.7
794.011	80.42
794.187	74.58
794.363	79.22
794.539	79.69
794.715	75.21
794.891	73.08
795.067	74.32
795.243	73.8
795.419	74.07
795.595	75.47
795.771	73.01
795.947	81.67
796.122	74.15
796.298	71.45
796.474	75.26
796.65	71.64
796.826	62.04
797.001	68.27
797.177	69.96
797.353	73.88
797.529	74.32
797.704	82.28
797.88	77.95
798.056	77.63
798.231	70.64
798.407	73.95
798.582	68.36
798.758	70.37
798.934	71.17
799.109	75.32
799.285	77.58
799.46	82.77
799.636	86.81
799.811	85.18
799.986	88.23
800.162	88.4
800.337	91.65
800.513	82.74
800.688	85.95
800.863	78.92
801.039	78.28
801.214	71.47
801.389	77.45
801.565	81.77
801.74	82.92
801.915	77.87
802.09	77.95
802.265	74.09
802.441	72.56
802.616	72.87
802.791	80.65
802.966	83.11
803.141	83.3
803.316	74.25
803.491	73.7
803.666	69.07
803.841	74.43
804.016	73.92
804.191	78.05
804.366	84.23
804.541	89.19
804.716	80.48
804.891	79.88
805.066	79.54
805.241	81.66
805.416	74.99
805.591	78.89
805.765	80.04
805.94	81.45
806.115	71.7
806.29	74.24
806.464	81.73
806.639	78.11
806.814	73.72
806.989	77.04
807.163	79.91
807.338	78.13
807.512	70.93
807.687	67.18
807.862	61.65
808.036	60.35
808.211	52.56
808.385	54.74
808.56	64.76
808.734	68.11
808.909	69.83
809.083	73.2
809.258	77.63
809.432	68.9
809.606	72.15
809.781	69.21
809.955	77.5
810.13	82.01
810.304	86.33
810.478	81.7
810.652	87.33
810.827	77.07
811.001	80.44
811.175	84.7
811.349	90.43
811.524	87.49
811.698	93.89
811.872	90.07
812.046	87.6
812.22	87.35
812.394	80.55
812.568	80.64
812.742	77.84
812.916	75.46
813.09	84.79
813.264	96.54
813.438	82
813.612	89.44
813.786	75.23
813.96	59.1
814.134	56.33
814.308	72.54
814.482	72.58
814.656	86.1
814.83	90.95
815.003	86.29
815.177	74.98
815.351	75.61
815.525	71.45
815.698	61.41
815.872	63.34
816.046	63.38
816.219	57.85
816.393	64.3
816.567	75.39
816.74	74.52
816.914	90.19
817.088	94.31
817.261	91.26
817.435	90.91
817.608	102.55
817.782	82.64
817.955	94.95
818.129	100.47
818.302	84.41
818.475	85.08
818.649	78.68
818.822	63.94
818.996	59.35
819.169	75.04
819.342	69.34
819.516	77.72
819.689	88.94
819.862	87.43
820.035	77.04
820.209	69.96
820.382	79.19
820.555	71.58
820.728	71.05
820.901	70.45
821.075	83.24
821.248	92.39
821.421	85.2
821.594	83.47
821.767	93.9
821.94	86.99
822.113	55.45
822.286	56.33
822.459	60.34
822.632	57.58
822.805	70.75
822.978	86.46
823.151	83.01
823.324	79.63
823.496	47.72
823.669	25.22
823.842	44.11
824.015	45.92
824.188	44.12
824.361	51.01
824.533	85.96
824.706	60.15
824.879	65.64
825.051	67.7
825.224	76.38
825.397	61.22
825.569	65.89
825.742	66.96
825.915	69.7
826.087	71.76
826.26	66.8
826.432	70
826.605	68.95
826.777	76.89
826.95	92.62
827.122	97.7
827.295	78.32
827.467	73.82
827.64	39.42
827.812	25.62
827.984	35.42
828.157	58.06
828.329	74.31
828.501	110.67
828.674	104.77
828.846	99.49
829.018	95.79
829.19	91.96
829.363	66.99
829.535	77.27
829.707	81.01
829.879	71.94
830.051	52.07
830.223	73.38
830.395	70.4
830.568	54.47
830.74	60.01
830.912	67.26
831.084	58.83
831.256	50.8
831.428	54.9
831.6	50.32
831.772	62.57
831.943	34.8
832.115	36.34
832.287	32.7
832.459	34.05
832.631	32.83
832.803	53.69
832.975	32.53
833.146	38.55
833.318	40.71
833.49	39.92
833.662	56.8
833.833	70.78
834.005	77.2
834.177	83.9
834.348	78.76
834.52	61.81
834.692	78.45
834.863	87.63
835.035	82.78
835.206	76.24
835.378	66.3
835.549	72.42
835.721	71.23
835.892	53.2
836.064	74.24
836.235	106.83
836.407	106.55
836.578	92.93
836.749	105.58
836.921	99.13
837.092	91.71
837.264	69.6
837.435	60.01
837.606	75.94
837.777	43.86
837.949	46.82
838.12	13.25
838.291	15.57
838.462	32.75
838.633	55.39
838.805	71.47
838.976	112.93
839.147	124.26
839.318	163.14
839.489	97.28
839.66	91.93
839.831	71.88
840.002	51.03
840.173	-30.73
840.344	18.88
840.515	4.03
840.686	-8.91
840.857	18.35
841.028	46.84
841.199	44.41
841.369	60.24
841.54	56.07
841.711	63.53
841.882	59.03
842.053	61.84
842.223	46.22
842.394	41.93
842.565	38.08
842.736	51.55
842.906	36.01
843.077	51.86
843.248	47.23
843.418	61.09
843.589	59.96
843.759	115.39
843.93	146.14
844.101	466.51
844.271	109.75
844.442	113.23
844.612	108.05
844.783	116.4
844.953	76.76
845.123	86.65
845.294	61.55
845.464	37.44
845.635	45.85
845.805	56.39
845.975	74.32
846.146	91.96
846.316	139.09
846.486	81.53
846.656	117.98
846.827	65.62
846.997	46.89
847.167	35.16
847.337	18.45
847.507	19.32
847.677	8.69
847.848	28.99
848.018	50.33
848.188	92.28
848.358	77.68
848.528	154.7
848.698	123.16
848.868	113.32
849.038	58.03
849.208	56.65
849.378	58.92
849.548	70.68
849.718	79.16
849.887	-140.5
850.057	1045.16
850.227	808.58
850.397	1200
850.567	28.03
850.737	23.81
850.906	38.25
851.076	32.46
851.246	26.11
851.415	21.73
851.585	69.79
851.755	56.19
851.924	65.93
852.094	86.47
852.264	62.29
852.433	17.01
852.603	59.55
852.772	48.11
852.942	30.49
853.111	25.33
853.281	67.33
853.45	31.85
853.62	23.06
853.789	-25.95
853.959	-214.62
854.128	320.7
854.297	248.7
854.467	248.15
854.636	-232.15
854.805	3.39
854.975	48.23
855.144	35.22
855.313	49.93
855.482	116.73
855.652	113.09
855.821	101.24
855.99	121.69
856.159	26.99
856.328	35.65
856.497	-55.22
856.667	29.39
856.836	6.17
857.005	82.61
857.174	87.4
857.343	79.14
857.512	34.79
857.681	21.19
857.85	-36.05
858.019	-41.41
858.188	-4.02
858.356	3.64
858.525	34.81
858.694	26.88
858.863	21.64
859.032	-36.07
859.201	-5.17
859.369	5.62
859.538	6.84
859.707	-21.12
859.876	-6.63
860.044	-18.69
860.213	-13.54
860.382	24.04
860.55	35.91
860.719	80.44
860.888	88.74
861.056	121
861.225	106.6
861.393	167.05
861.562	170.43
861.73	196.41
861.899	157.39
862.067	245.65
862.236	186.76
862.404	90.13
862.572	32.09
862.741	-84.06
862.909	59.1
863.078	56.56
863.246	61.08
863.414	87.95
863.582	74.78
863.751	77.32
863.919	51.68
864.087	68.97
864.255	-12.62
864.424	-91.2
864.592	-65.6
864.76	8.56
864.928	21.69
865.096	55.08
865.264	60.94
865.432	90.99
865.6	111.27
865.768	16.44
865.936	-49.15
866.104	-117.02
866.272	6.55
866.44	-91
866.608	-32.89
866.776	21.01
866.944	-4.24
867.112	-17.8
867.28	-15.41
867.448	20.71
867.615	14.58
867.783	45.46
867.951	11.85
868.119	31.23
868.286	7.12
868.454	-8.71
868.622	-94.66
868.789	177.02
868.957	-494.12
869.125	-316.01
869.292	28.44
869.46	49.39
869.627	-1172.57
869.795	-234.24
869.963	-60.53
870.13	-10.59
870.298	35.8
870.465	48.59
870.632	69.02
870.8	76.11
870.967	132.24
871.135	131.23
871.302	-355.84
871.469	257.24
871.637	114.07
871.804	72.67
871.971	51.58
872.139	43.78
872.306	8.58
872.473	126.63
872.64	7.01
872.807	49.11
872.975	28.62
873.142	26.59
873.309	33.07
873.476	34.8
873.643	71.55
873.81	73.37
873.977	104.19
874.144	116.35
874.311	156.96
874.478	61.76
874.645	-87.66
874.812	-1006.64
874.979	-201.79
875.146	-102.75
875.313	-608.84
875.48	338.73
875.647	-373.41
875.813	-1974.68
875.98	1215.45
876.147	-98.15
876.314	-34.47
876.481	-44.67
876.647	-49.25
876.814	-12.79
876.981	-13.56
877.147	-56.36
877.314	-50.17
877.481	38.19
877.647	-17.5
877.814	-103.63
877.98	-159.12
878.147	325.8
878.314	316.34
878.48	-281.78
878.647	-243.94
878.813	-77.7
878.979	22.21
879.146	-33.75
879.312	-30.29
879.479	29.79
879.645	51.8
879.811	19.67
879.978	56.03
880.144	62.65
880.31	147.84
880.477	837.58
880.643	278.92
880.809	1053.66
880.975	30.15
881.142	-219.06
881.308	-120.24
881.474	100.4
881.64	97.83
881.806	43.83
881.972	83.86
882.138	71.06
882.304	42.83
882.47	-16.26
882.636	12.33
882.802	2.13
882.968	-14.55
883.134	-6.6
883.3	25.34
883.466	27.28
883.632	40.62
883.798	34.98
883.964	-6.57
884.129	13.54
884.295	6.19
884.461	-479.3
884.627	695.91
884.793	90.48
884.958	293.19
885.124	2304.95
885.29	-274.49
885.455	-135.87
885.621	-38.99
885.787	-19.76
885.952	-56.95
886.118	37.2
886.283	2.91
886.449	-103.8
886.614	-43.42
886.78	37.02
886.945	24.23
887.111	14.6
887.276	38.54
887.442	64.16
887.607	39.17
887.773	-6.2
887.938	-10.05
888.103	15.27
888.269	-340.05
888.434	5788.24
888.599	-70.42
888.764	733.98
888.93	-0.68
889.095	21.32
889.26	-13.69
889.425	18.12
889.59	8.21
889.756	61.41
889.921	28.99
890.086	86.77
890.251	56.08
890.416	33.41
890.581	-60.03
890.746	-38.89
890.911	-3.5
891.076	-189.82
891.241	-250.71
891.406	-21942.86
891.571	-38.88
891.736	207.31
891.901	198.92
892.065	37.87
892.23	69.88
892.395	228.43
892.56	2110.07
892.725	-394
892.889	-765.38
893.054	-2527.15
893.219	-3694.96
893.384	-701.59
893.548	-962.28
893.713	-582.64
893.878	-835.6
