Data from Ofav_SP_Phys_6JQ16_Reflection_2.txt Node
Date: Thu Aug 05 17:54:10 EDT 2021
User: Adam
Spectrometer: FLMT01687
Trigger mode: 0
Integration Time (sec): 8.000000E-1
Scans to average: 2
Electric dark correction enabled: true
Nonlinearity correction enabled: false
Boxcar width: 2
XAxis mode: Wavelengths
Number of Pixels in Spectrum: 3648
>>>>>Begin Spectral Data<<<<<
179.494	700.17
179.716	790.14
179.937	665.03
180.158	772.4
180.38	1865.45
180.601	-773.39
180.823	-180.17
181.044	14.3
181.265	-41.08
181.486	8.38
181.708	-754.36
181.929	-268.71
182.15	-355.92
182.372	-15.05
182.593	17.21
182.814	115.93
183.035	-26.98
183.257	31.32
183.478	-107.12
183.699	70.52
183.92	38.48
184.141	-534.53
184.363	1098.38
184.584	-28.25
184.805	8.45
185.026	40.97
185.247	70.14
185.468	107.15
185.689	92.99
185.91	64.12
186.132	7.5
186.353	-19.82
186.574	-183.66
186.795	-117.84
187.016	-94.38
187.237	-64.3
187.458	-469.68
187.679	-80.44
187.9	-55.86
188.121	-5.96
188.342	55.84
188.563	81.44
188.784	150.12
189.005	141.23
189.226	121.86
189.447	97.01
189.667	183.96
189.888	179.72
190.109	178.71
190.33	129.74
190.551	79.07
190.772	88.45
190.993	96.7
191.214	64.77
191.434	41.46
191.655	45.17
191.876	38.25
192.097	12.56
192.318	7.65
192.538	-7.63
192.759	56.06
192.98	49.02
193.201	101.88
193.421	13.11
193.642	-7.18
193.863	-44.63
194.083	-11.26
194.304	-3.83
194.525	23.51
194.745	28.66
194.966	23.72
195.187	22.3
195.407	14.24
195.628	-40.67
195.848	-17.09
196.069	-0.61
196.29	11.5
196.51	57.46
196.731	63.36
196.951	80.24
197.172	86.64
197.392	87.9
197.613	47.91
197.833	58.61
198.054	6.55
198.274	-11.47
198.495	-23.2
198.715	-3.7
198.936	-81.56
199.156	16.46
199.377	39.53
199.597	45.98
199.817	60.65
200.038	50.31
200.258	62.22
200.479	46.48
200.699	31.35
200.919	3.74
201.14	2.88
201.36	-66.77
201.58	18.15
201.801	-24.72
202.021	-28.83
202.241	24.5
202.461	40.7
202.682	-70.31
202.902	-133.24
203.122	-117.65
203.342	-39.65
203.563	-23.75
203.783	29.04
204.003	53.49
204.223	24.23
204.443	-3.8
204.663	-3.25
204.884	5.77
205.104	-26.74
205.324	-2.1
205.544	6.46
205.764	5.16
205.984	-9.09
206.204	14.08
206.424	7.62
206.644	-22.11
206.864	-27.24
207.084	-39.18
207.304	21.18
207.525	-0.67
207.745	43.87
207.964	85.59
208.184	90.6
208.404	20.78
208.624	43.28
208.844	52.2
209.064	27.13
209.284	65.45
209.504	57.73
209.724	44.19
209.944	6.49
210.164	-0.12
210.384	-7.25
210.604	-8.24
210.823	7.03
211.043	9.03
211.263	29.29
211.483	14.12
211.703	42.56
211.922	34.03
212.142	57.35
212.362	13.4
212.582	44.77
212.801	31.86
213.021	32.39
213.241	17.9
213.461	5.97
213.68	-1.7
213.9	-39.42
214.12	-67.53
214.339	-39.96
214.559	-1.7
214.779	0.94
214.998	10.05
215.218	56.46
215.438	109.82
215.657	163.63
215.877	210.61
216.096	229.07
216.316	276.28
216.535	142.58
216.755	91.81
216.974	206.66
217.194	54.15
217.413	-1.63
217.633	35.26
217.852	20.64
218.072	11.64
218.291	31.83
218.511	44.6
218.73	25.99
218.95	41.23
219.169	38.65
219.389	36.1
219.608	32.15
219.827	68.95
220.047	62.29
220.266	62.65
220.485	53.19
220.705	44.81
220.924	7.54
221.143	-10.55
221.363	-43.16
221.582	-51.24
221.801	-87.42
222.021	0.46
222.24	24.46
222.459	52.56
222.678	57.56
222.897	52.89
223.117	-13.84
223.336	-9.54
223.555	4.65
223.774	-29.88
223.993	-20.85
224.213	23.69
224.432	-2.94
224.651	-3.17
224.87	4.18
225.089	2.47
225.308	-59.91
225.527	-8.37
225.746	-19.61
225.965	-35.32
226.184	-6.7
226.404	29.72
226.623	6.7
226.842	33.46
227.061	51.15
227.28	46.31
227.499	47.85
227.718	38.04
227.936	35.33
228.155	49.12
228.374	56.06
228.593	46.42
228.812	78.48
229.031	50.34
229.25	42.42
229.469	44.9
229.688	41.23
229.907	19.55
230.125	18.58
230.344	11.48
230.563	1.83
230.782	-3.11
231.001	-3.07
231.22	49.04
231.438	59.7
231.657	39.79
231.876	8.53
232.095	15.84
232.313	-5.99
232.532	-29.23
232.751	-4.04
232.969	19.06
233.188	5.48
233.407	2.62
233.625	24.43
233.844	-43.12
234.063	-40.16
234.281	-22.09
234.5	-6.4
234.719	-9.54
234.937	-4.25
235.156	-9.24
235.374	-6.8
235.593	-17.13
235.811	-27.13
236.03	11.49
236.249	9.33
236.467	15.47
236.686	38.1
236.904	50.28
237.123	-13.06
237.341	22.06
237.559	21.06
237.778	-4.93
237.996	-6.71
238.215	17.53
238.433	-13.42
238.652	-17.76
238.87	-27.67
239.088	-36.3
239.307	-23.07
239.525	-28.52
239.743	-25.85
239.962	30.46
240.18	48.44
240.398	6.5
240.617	-12.12
240.835	37.89
241.053	-0.1
241.271	-9.09
241.49	26.7
241.708	21.54
241.926	-0.99
242.144	-28.05
242.363	1.6
242.581	1.98
242.799	-28.74
243.017	-33.75
243.235	-51.93
243.453	-25.37
243.672	-44.18
243.89	-21.3
244.108	22.61
244.326	72.72
244.544	64.35
244.762	45.54
244.98	80.21
245.198	60.64
245.416	50.75
245.634	35.89
245.852	64.64
246.07	63.13
246.288	28.83
246.506	-4.31
246.724	22.49
246.942	10.06
247.16	-5.47
247.378	-26.91
247.596	4.7
247.814	-24.46
248.032	-38.35
248.25	-69.11
248.468	-34.59
248.685	-26
248.903	-19.63
249.121	-18.73
249.339	5.34
249.557	-5.11
249.775	-8.46
249.992	-27.73
250.21	2.42
250.428	-3.77
250.646	16.93
250.863	27.21
251.081	64.23
251.299	51.39
251.517	67.87
251.734	25.46
251.952	29.14
252.17	50.1
252.387	40.39
252.605	29.04
252.823	42.24
253.04	16.58
253.258	8.54
253.475	23.1
253.693	13.39
253.911	40.25
254.128	47.9
254.346	37.03
254.563	30.94
254.781	37.34
254.998	25.43
255.216	23.31
255.433	-1.64
255.651	-16.21
255.868	-60.86
256.086	-80.88
256.303	-77.27
256.521	-42.78
256.738	-62.32
256.956	-117.46
257.173	-22.95
257.39	61.96
257.608	10.53
257.825	18.85
258.043	29.65
258.26	35.17
258.477	-1.37
258.695	19.4
258.912	30.61
259.129	42.38
259.346	44.4
259.564	53.04
259.781	57.15
259.998	42.98
260.216	42.74
260.433	35.22
260.65	23.78
260.867	-44.34
261.084	0.57
261.302	4.22
261.519	-3.73
261.736	28.2
261.953	40.46
262.17	27.53
262.387	71.28
262.604	80.51
262.822	106.5
263.039	128.13
263.256	142.25
263.473	75.14
263.69	102.12
263.907	64.7
264.124	49.83
264.341	0.82
264.558	-4.24
264.775	-35.34
264.992	-8.27
265.209	4.59
265.426	14.05
265.643	12.44
265.86	16.26
266.077	-16.57
266.294	-13.55
266.51	-19.26
266.727	-7.33
266.944	15.28
267.161	18.01
267.378	-1.1
267.595	2.73
267.812	-12.21
268.028	-32.16
268.245	-12.08
268.462	-2.78
268.679	4.1
268.896	23.58
269.112	26.77
269.329	76.26
269.546	61.93
269.763	81.02
269.979	76.98
270.196	93.4
270.413	73.29
270.629	79.53
270.846	42.85
271.063	47.29
271.279	41.53
271.496	-0.7
271.712	-91.23
271.929	-67.29
272.146	-6.57
272.362	-60.55
272.579	-44.93
272.795	-17.51
273.012	2.39
273.228	-40.42
273.445	-6.54
273.661	21.01
273.878	26.86
274.094	31.98
274.311	37.89
274.527	20.71
274.744	3.81
274.96	17.62
275.177	-0.31
275.393	3.93
275.609	18.83
275.826	20.81
276.042	23.4
276.259	33.29
276.475	22.95
276.691	11.52
276.908	-0.54
277.124	23.66
277.34	26.11
277.557	-1.49
277.773	4.21
277.989	33.88
278.205	12.53
278.422	11.65
278.638	59.42
278.854	62.55
279.07	49.16
279.286	17.85
279.503	12.46
279.719	4.98
279.935	28.41
280.151	53.28
280.367	88.35
280.583	57.87
280.799	63.45
281.016	60.83
281.232	79.75
281.448	63.32
281.664	73.78
281.88	75.94
282.096	68.9
282.312	44.29
282.528	36.53
282.744	47.2
282.96	57.26
283.176	52.19
283.392	54.77
283.608	57.53
283.824	40.8
284.04	31.14
284.256	17.27
284.471	-9.82
284.687	18.81
284.903	31.72
285.119	23.38
285.335	16.13
285.551	13.5
285.767	-27.37
285.982	-63.44
286.198	-106.65
286.414	-64.57
286.63	-13.73
286.846	14.78
287.061	-4.98
287.277	0.31
287.493	9.43
287.709	-12.5
287.924	21.38
288.14	43.41
288.356	53.88
288.571	56.7
288.787	75.56
289.003	61.32
289.218	42.17
289.434	10
289.65	8.55
289.865	23.99
290.081	20.77
290.296	45.72
290.512	43.25
290.727	39.79
290.943	29.23
291.159	34.71
291.374	16.86
291.59	14.55
291.805	0.98
292.021	12.89
292.236	-12.66
292.451	14.99
292.667	9.35
292.882	-12.32
293.098	-39.26
293.313	-3.26
293.529	-3.14
293.744	6.67
293.959	13.93
294.175	41.7
294.39	18.6
294.605	12.44
294.821	15.95
295.036	24.03
295.251	21.85
295.467	28.49
295.682	24.39
295.897	31.32
296.112	29.66
296.328	23.66
296.543	40.96
296.758	22.22
296.973	30.35
297.188	41.44
297.404	33.92
297.619	19.55
297.834	27.52
298.049	15.11
298.264	17.89
298.479	18.64
298.694	35.21
298.909	59.3
299.125	51.34
299.34	40.65
299.555	36.91
299.77	47.73
299.985	51.46
300.2	55.3
300.415	35.63
300.63	22.73
300.845	-0.72
301.06	9.65
301.275	-11.25
301.49	2.67
301.704	36.86
301.919	38.56
302.134	31.58
302.349	37.98
302.564	34.76
302.779	31.57
302.994	29.78
303.209	47.75
303.423	59.86
303.638	45.56
303.853	65.09
304.068	56.37
304.283	18.18
304.497	3.95
304.712	4.88
304.927	-33
305.142	-31.91
305.356	-24.45
305.571	5.49
305.786	31.19
306	48.84
306.215	69.99
306.43	89.56
306.644	92.77
306.859	77.41
307.074	84.06
307.288	66.51
307.503	53.73
307.717	34.68
307.932	18.12
308.147	16.53
308.361	15.7
308.576	-8.68
308.79	-14.39
309.005	14.73
309.219	-17.63
309.434	-54.99
309.648	-79.48
309.863	-88.38
310.077	-169.49
310.292	-142.32
310.506	-76.4
310.72	-36.23
310.935	-15.73
311.149	6.19
311.364	10.1
311.578	10.39
311.792	42.32
312.007	22.49
312.221	5.1
312.435	26.09
312.649	40.47
312.864	15.32
313.078	27.27
313.292	57.18
313.507	54.84
313.721	48.49
313.935	39.81
314.149	41.31
314.363	33.36
314.578	25.3
314.792	7.6
315.006	32.05
315.22	33.69
315.434	0.45
315.648	-36.63
315.862	22.34
316.077	-17.49
316.291	-16.3
316.505	29.29
316.719	58.67
316.933	45.52
317.147	33.24
317.361	21.5
317.575	13.17
317.789	4.8
318.003	-7.16
318.217	56.62
318.431	88.32
318.645	78.48
318.859	59.02
319.073	47.11
319.287	-1.37
319.5	-12.21
319.714	-11.85
319.928	22.58
320.142	20.14
320.356	19.52
320.57	14.54
320.784	-3.74
320.997	-5.58
321.211	11.91
321.425	3.96
321.639	-36.21
321.853	-19.41
322.066	-23.86
322.28	-20.95
322.494	-12.19
322.707	15.59
322.921	11.15
323.135	18.53
323.349	23.15
323.562	19.96
323.776	33.83
323.989	38.43
324.203	23.21
324.417	16.62
324.63	12.06
324.844	-16.02
325.057	-21
325.271	-50.74
325.485	-33.36
325.698	-34.39
325.912	-21.46
326.125	-5.98
326.339	39.71
326.552	26.37
326.766	24.79
326.979	39.25
327.193	51.55
327.406	39.53
327.619	71.91
327.833	67.2
328.046	80.08
328.26	72.3
328.473	19.72
328.686	-22.89
328.9	-33.54
329.113	-44.72
329.326	-28.85
329.54	7.3
329.753	31.26
329.966	38
330.179	41.64
330.393	61.34
330.606	58.28
330.819	55.62
331.032	79.79
331.246	95.13
331.459	53.67
331.672	63.59
331.885	49.4
332.098	59.95
332.311	53.16
332.525	55.87
332.738	33.65
332.951	32.05
333.164	25.96
333.377	25.18
333.59	11.99
333.803	3.86
334.016	-14.97
334.229	-25.37
334.442	-17.56
334.655	8.74
334.868	7.57
335.081	13.62
335.294	18.09
335.507	25.62
335.72	27.31
335.933	36.47
336.146	35.79
336.359	33.03
336.572	25.04
336.785	19.88
336.997	25.24
337.21	67.92
337.423	76.21
337.636	67.04
337.849	90.7
338.062	79.74
338.274	49.96
338.487	42.4
338.7	53.29
338.913	39.22
339.125	36.05
339.338	30.5
339.551	-8.64
339.763	2.32
339.976	3.4
340.189	8.69
340.402	-15.36
340.614	17.14
340.827	31.02
341.039	30.95
341.252	21.28
341.465	37.39
341.677	22.76
341.89	-15.01
342.102	5.03
342.315	7.87
342.527	25.91
342.74	22.5
342.952	19.3
343.165	9.91
343.377	18.4
343.59	-61.12
343.802	-29.15
344.015	-20.66
344.227	-28.28
344.44	-16.14
344.652	28.09
344.864	30.31
345.077	44.27
345.289	43.68
345.502	48.48
345.714	30.44
345.926	41.13
346.139	33.35
346.351	26.51
346.563	1.13
346.775	-2.58
346.988	-52.07
347.2	-46.49
347.412	-52.93
347.624	9.82
347.837	19.56
348.049	33.51
348.261	23.73
348.473	35.9
348.685	48.45
348.897	65.18
349.11	71.65
349.322	67.88
349.534	44.4
349.746	24.25
349.958	25.61
350.17	37.06
350.382	34.68
350.594	32.59
350.806	33.17
351.018	41.63
351.23	33.93
351.442	30.96
351.654	33.31
351.866	29.84
352.078	16.24
352.29	6.14
352.502	24.96
352.714	15.47
352.926	22.79
353.138	15.69
353.35	33.43
353.561	24.15
353.773	32.6
353.985	16.98
354.197	30.15
354.409	8.85
354.621	1.69
354.832	17.58
355.044	28.73
355.256	26.92
355.468	46.11
355.679	58
355.891	51.52
356.103	48.07
356.314	55.19
356.526	37.49
356.738	31.13
356.949	7.55
357.161	25.15
357.373	0.72
357.584	13.85
357.796	23.41
358.008	37.52
358.219	14.33
358.431	46.09
358.642	41.21
358.854	48.02
359.065	62.15
359.277	67.58
359.488	45.92
359.7	42.02
359.911	37.02
360.123	29.78
360.334	23.96
360.546	38.44
360.757	45.04
360.969	33.5
361.18	41.32
361.391	38.46
361.603	25
361.814	2.05
362.025	25.71
362.237	17.76
362.448	16.81
362.659	19.87
362.871	19.66
363.082	1.18
363.293	-5.23
363.504	2.51
363.716	15.92
363.927	36.97
364.138	42.28
364.349	16.35
364.56	16.18
364.772	2.7
364.983	5.82
365.194	15.87
365.405	47.9
365.616	35.85
365.827	39.59
366.038	35.73
366.25	30.82
366.461	24.55
366.672	18.17
366.883	21.29
367.094	1.28
367.305	14.62
367.516	15.51
367.727	29.55
367.938	22.2
368.149	33.08
368.36	33.94
368.571	53.63
368.781	44.98
368.992	37.52
369.203	42.89
369.414	34.85
369.625	23.97
369.836	26.88
370.047	12.71
370.258	1.36
370.468	-0.33
370.679	1.46
370.89	1.21
371.101	20.25
371.312	28.5
371.522	23.09
371.733	30.57
371.944	33.7
372.155	35.28
372.365	17.01
372.576	28.5
372.787	23.71
372.997	19.3
373.208	6.93
373.419	27.36
373.629	14.51
373.84	29.22
374.05	29.9
374.261	35.26
374.472	22.53
374.682	31.32
374.893	15.24
375.103	2.31
375.314	-5.14
375.524	9.45
375.735	2.57
375.945	29.63
376.156	44.07
376.366	64.55
376.577	62.04
376.787	63.37
376.997	50.11
377.208	41.73
377.418	22.55
377.629	21.73
377.839	37.17
378.049	32.57
378.26	23.36
378.47	27.92
378.68	39.55
378.89	28.36
379.101	37.3
379.311	48.36
379.521	43.63
379.732	29.99
379.942	18.5
380.152	18.77
380.362	25.13
380.572	30.05
380.783	25.93
380.993	29.9
381.203	20.06
381.413	5.19
381.623	10.73
381.833	12.06
382.043	17.13
382.253	22.56
382.463	37.74
382.674	29.38
382.884	29.14
383.094	16.28
383.304	6.26
383.514	5.62
383.724	2.52
383.934	8.65
384.144	15.22
384.353	14.66
384.563	9.35
384.773	17.33
384.983	2.07
385.193	12.38
385.403	16.84
385.613	18.72
385.823	12.61
386.033	18.99
386.242	13.94
386.452	15.77
386.662	12.64
386.872	13.98
387.082	16.31
387.291	0.8
387.501	2.61
387.711	2.55
387.921	4.6
388.13	1.68
388.34	14.69
388.55	9.94
388.759	8.7
388.969	4.97
389.179	5.82
389.388	6.81
389.598	9.08
389.807	11.59
390.017	12.92
390.227	13.13
390.436	10.18
390.646	9.22
390.855	8.77
391.065	9.23
391.274	8.91
391.484	8.34
391.693	7.88
391.903	8.61
392.112	9.38
392.322	8.02
392.531	8.58
392.74	7.58
392.95	4.48
393.159	3.27
393.369	4.99
393.578	5.66
393.787	7
393.997	8.51
394.206	8.54
394.415	8.82
394.625	9.13
394.834	8.13
395.043	7.22
395.252	7.76
395.462	7.69
395.671	7.4
395.88	8.55
396.089	9.36
396.298	10.18
396.508	9.15
396.717	8.9
396.926	8.63
397.135	8.33
397.344	7.27
397.553	8.32
397.762	8.06
397.971	7.44
398.181	7.37
398.39	7.18
398.599	7.16
398.808	7.35
399.017	7.33
399.226	7.25
399.435	7.54
399.644	7.34
399.853	7.4
400.062	7.63
400.27	7.57
400.479	7.29
400.688	6.73
400.897	6.98
401.106	6.97
401.315	6.81
401.524	7.03
401.733	7.15
401.941	6.85
402.15	6.71
402.359	6.88
402.568	6.7
402.777	6.82
402.985	6.7
403.194	6.76
403.403	6.72
403.612	6.78
403.82	6.77
404.029	6.69
404.238	6.63
404.446	6.54
404.655	6.51
404.864	6.35
405.072	6.39
405.281	6.29
405.489	6.45
405.698	6.54
405.906	6.53
406.115	6.43
406.324	6.62
406.532	6.52
406.741	6.47
406.949	6.37
407.158	6.51
407.366	6.37
407.574	6.52
407.783	6.36
407.991	6.34
408.2	6.24
408.408	6.21
408.617	6.07
408.825	6.11
409.033	6.2
409.242	6.18
409.45	6.05
409.658	5.89
409.867	5.86
410.075	5.83
410.283	5.83
410.491	5.8
410.7	6.01
410.908	6.04
411.116	6
411.324	6.03
411.533	6.04
411.741	5.84
411.949	5.83
412.157	5.92
412.365	6.03
412.573	6.05
412.781	6.1
412.99	6.05
413.198	6.19
413.406	6.08
413.614	6.16
413.822	6.2
414.03	6.28
414.238	6
414.446	6.03
414.654	5.91
414.862	5.86
415.07	5.69
415.278	5.74
415.486	5.51
415.694	5.7
415.902	5.6
416.109	5.55
416.317	5.64
416.525	5.72
416.733	5.5
416.941	5.66
417.149	5.72
417.357	5.54
417.564	5.44
417.772	5.43
417.98	5.43
418.188	5.47
418.395	5.35
418.603	5.32
418.811	5.36
419.019	5.4
419.226	5.42
419.434	5.75
419.642	5.82
419.849	5.87
420.057	5.55
420.265	5.64
420.472	5.27
420.68	5.35
420.887	5.19
421.095	5.26
421.302	5.02
421.51	5.14
421.717	5.3
421.925	5.27
422.132	5.48
422.34	5.51
422.547	5.51
422.755	5.15
422.962	5.39
423.17	5.33
423.377	5.41
423.585	5.44
423.792	5.57
423.999	5.39
424.207	5.11
424.414	4.8
424.621	4.81
424.829	4.87
425.036	4.98
425.243	5.22
425.451	5.65
425.658	5.56
425.865	5.48
426.072	5.2
426.28	5.15
426.487	4.89
426.694	4.82
426.901	4.84
427.108	5.09
427.315	5.15
427.523	5.18
427.73	5.26
427.937	5.11
428.144	5.21
428.351	5.13
428.558	5.33
428.765	5.34
428.972	5.5
429.179	5.38
429.386	5.36
429.593	5.26
429.8	5.27
430.007	5.23
430.214	5.14
430.421	5.39
430.628	5.28
430.835	5.43
431.042	5.45
431.249	5.64
431.456	5.49
431.662	5.92
431.869	5.95
432.076	6.04
432.283	6.05
432.49	5.93
432.697	5.74
432.903	5.47
433.11	5.45
433.317	5.41
433.524	5.56
433.73	5.47
433.937	5.53
434.144	5.59
434.35	5.52
434.557	5.49
434.764	5.38
434.97	5.46
435.177	5.54
435.384	5.35
435.59	5.23
435.797	5.33
436.003	5.3
436.21	4.98
436.416	5.07
436.623	5.1
436.829	5.05
437.036	5.07
437.242	5.2
437.449	5.4
437.655	5.57
437.862	5.74
438.068	5.83
438.275	5.83
438.481	5.79
438.687	5.69
438.894	5.72
439.1	5.6
439.307	5.66
439.513	5.66
439.719	5.8
439.926	5.71
440.132	5.73
440.338	5.65
440.544	5.73
440.751	5.68
440.957	5.73
441.163	5.67
441.369	5.76
441.575	5.58
441.782	5.52
441.988	5.44
442.194	5.4
442.4	5.46
442.606	5.59
442.812	5.59
443.018	5.56
443.224	5.71
443.431	5.64
443.637	5.55
443.843	5.5
444.049	5.58
444.255	5.6
444.461	5.63
444.667	5.67
444.873	5.7
445.079	5.64
445.284	5.64
445.49	5.61
445.696	5.66
445.902	5.7
446.108	5.74
446.314	5.66
446.52	5.75
446.726	5.8
446.931	5.69
447.137	5.69
447.343	5.71
447.549	5.62
447.755	5.66
447.96	5.68
448.166	5.7
448.372	5.76
448.578	5.78
448.783	5.83
448.989	5.81
449.195	5.88
449.4	5.94
449.606	6.07
449.812	5.96
450.017	6.14
450.223	6.05
450.428	6.08
450.634	5.97
450.84	6.05
451.045	5.95
451.251	6.01
451.456	6.04
451.662	6.07
451.867	6.03
452.073	6.09
452.278	6.16
452.483	6.08
452.689	6.13
452.894	6.22
453.1	6.26
453.305	6.19
453.51	6.28
453.716	6.29
453.921	6.21
454.127	6.22
454.332	6.27
454.537	6.41
454.742	6.36
454.948	6.37
455.153	6.36
455.358	6.33
455.563	6.2
455.769	6.19
455.974	6.31
456.179	6.18
456.384	6.09
456.589	6.17
456.795	6.24
457	6.22
457.205	6.31
457.41	6.44
457.615	6.38
457.82	6.36
458.025	6.23
458.23	6.25
458.435	6.21
458.64	6.14
458.845	6.3
459.05	6.37
459.255	6.42
459.46	6.52
459.665	6.67
459.87	6.56
460.075	6.6
460.28	6.61
460.485	6.61
460.69	6.47
460.895	6.36
461.099	6.39
461.304	6.4
461.509	6.49
461.714	6.59
461.919	6.77
462.123	6.66
462.328	6.69
462.533	6.66
462.738	6.79
462.942	6.87
463.147	7.03
463.352	7.08
463.556	7.16
463.761	6.97
463.966	7
464.17	7.03
464.375	7.19
464.58	7.11
464.784	7.22
464.989	7.12
465.193	7.03
465.398	7.15
465.602	7.27
465.807	7.38
466.011	7.64
466.216	7.65
466.42	7.53
466.625	7.63
466.829	7.7
467.034	7.64
467.238	7.63
467.443	7.53
467.647	7.23
467.851	7.18
468.056	7
468.26	7.11
468.464	7.1
468.669	7.26
468.873	7.22
469.077	7.3
469.282	7.35
469.486	7.38
469.69	7.35
469.894	7.26
470.099	7.26
470.303	7.22
470.507	7.23
470.711	7.26
470.915	7.39
471.119	7.46
471.324	7.45
471.528	7.35
471.732	7.49
471.936	7.41
472.14	7.43
472.344	7.43
472.548	7.57
472.752	7.48
472.956	7.59
473.16	7.6
473.364	7.6
473.568	7.53
473.772	7.48
473.976	7.41
474.18	7.37
474.384	7.52
474.588	7.52
474.792	7.59
474.995	7.62
475.199	7.6
475.403	7.44
475.607	7.5
475.811	7.48
476.015	7.42
476.218	7.47
476.422	7.46
476.626	7.46
476.83	7.55
477.033	7.64
477.237	7.66
477.441	7.69
477.644	7.68
477.848	7.69
478.052	7.55
478.255	7.51
478.459	7.52
478.663	7.49
478.866	7.4
479.07	7.46
479.273	7.42
479.477	7.51
479.681	7.59
479.884	7.58
480.088	7.53
480.291	7.6
480.495	7.46
480.698	7.45
480.901	7.4
481.105	7.54
481.308	7.44
481.512	7.5
481.715	7.49
481.919	7.57
482.122	7.57
482.325	7.6
482.529	7.63
482.732	7.63
482.935	7.55
483.138	7.61
483.342	7.59
483.545	7.54
483.748	7.53
483.952	7.54
484.155	7.45
484.358	7.53
484.561	7.52
484.764	7.48
484.967	7.52
485.171	7.47
485.374	7.38
485.577	7.39
485.78	7.42
485.983	7.45
486.186	7.44
486.389	7.45
486.592	7.49
486.795	7.48
486.998	7.41
487.201	7.5
487.404	7.45
487.607	7.59
487.81	7.58
488.013	7.56
488.216	7.52
488.419	7.62
488.622	7.36
488.825	7.3
489.028	7.2
489.231	7.23
489.433	7.16
489.636	7.22
489.839	7.26
490.042	7.33
490.245	7.29
490.447	7.3
490.65	7.35
490.853	7.46
491.056	7.57
491.258	7.52
491.461	7.56
491.664	7.46
491.866	7.35
492.069	7.29
492.272	7.27
492.474	7.23
492.677	7.26
492.879	7.17
493.082	7.1
493.285	7.13
493.487	7.09
493.69	7.1
493.892	7.08
494.095	7.17
494.297	7.16
494.5	7.25
494.702	7.2
494.905	7.27
495.107	7.2
495.309	7.18
495.512	7.06
495.714	7.14
495.917	7.2
496.119	7.22
496.321	7.24
496.524	7.28
496.726	7.25
496.928	7.17
497.13	7.15
497.333	7.12
497.535	7.17
497.737	7.16
497.939	7.22
498.142	7.21
498.344	7.23
498.546	7.19
498.748	7.17
498.95	7.15
499.152	7.13
499.355	7.15
499.557	7.2
499.759	7.23
499.961	7.2
500.163	7.2
500.365	7.29
500.567	7.17
500.769	7.16
500.971	7.18
501.173	7.17
501.375	7.07
501.577	7.15
501.779	7.2
501.981	7.26
502.183	7.24
502.385	7.24
502.587	7.18
502.788	7.12
502.99	7.01
503.192	7.05
503.394	7.04
503.596	7.04
503.798	7.03
503.999	7.03
504.201	6.96
504.403	6.95
504.605	6.98
504.806	7
505.008	6.98
505.21	6.99
505.411	6.96
505.613	6.92
505.815	6.89
506.016	6.86
506.218	6.83
506.42	6.85
506.621	6.8
506.823	6.81
507.024	6.83
507.226	6.94
507.427	6.93
507.629	7
507.83	6.97
508.032	6.93
508.233	6.91
508.435	6.9
508.636	6.91
508.838	6.88
509.039	6.88
509.24	6.87
509.442	6.86
509.643	6.82
509.845	6.84
510.046	6.87
510.247	6.91
510.448	6.97
510.65	6.97
510.851	6.93
511.052	6.98
511.254	6.9
511.455	6.89
511.656	6.81
511.857	6.85
512.058	6.8
512.26	6.74
512.461	6.69
512.662	6.76
512.863	6.7
513.064	6.74
513.265	6.71
513.466	6.69
513.667	6.68
513.868	6.72
514.069	6.74
514.27	6.8
514.471	6.78
514.672	6.77
514.873	6.66
515.074	6.61
515.275	6.61
515.476	6.63
515.677	6.62
515.878	6.75
516.079	6.71
516.28	6.69
516.481	6.66
516.682	6.69
516.882	6.67
517.083	6.67
517.284	6.72
517.485	6.73
517.686	6.76
517.886	6.73
518.087	6.74
518.288	6.67
518.488	6.62
518.689	6.54
518.89	6.53
519.091	6.55
519.291	6.6
519.492	6.66
519.692	6.7
519.893	6.77
520.094	6.66
520.294	6.59
520.495	6.56
520.695	6.55
520.896	6.45
521.096	6.54
521.297	6.61
521.497	6.66
521.698	6.66
521.898	6.69
522.099	6.72
522.299	6.67
522.499	6.64
522.7	6.62
522.9	6.61
523.101	6.54
523.301	6.56
523.501	6.53
523.702	6.63
523.902	6.66
524.102	6.68
524.302	6.64
524.503	6.6
524.703	6.55
524.903	6.53
525.103	6.63
525.304	6.6
525.504	6.67
525.704	6.57
525.904	6.59
526.104	6.52
526.304	6.58
526.504	6.57
526.705	6.54
526.905	6.56
527.105	6.59
527.305	6.62
527.505	6.59
527.705	6.65
527.905	6.61
528.105	6.58
528.305	6.55
528.505	6.61
528.705	6.61
528.905	6.54
529.105	6.52
529.304	6.5
529.504	6.47
529.704	6.51
529.904	6.61
530.104	6.67
530.304	6.7
530.503	6.68
530.703	6.61
530.903	6.56
531.103	6.5
531.303	6.44
531.502	6.47
531.702	6.46
531.902	6.54
532.101	6.55
532.301	6.53
532.501	6.55
532.7	6.61
532.9	6.54
533.1	6.53
533.299	6.54
533.499	6.53
533.698	6.46
533.898	6.46
534.097	6.46
534.297	6.52
534.496	6.45
534.696	6.5
534.895	6.61
535.095	6.58
535.294	6.54
535.494	6.55
535.693	6.54
535.892	6.48
536.092	6.52
536.291	6.54
536.491	6.58
536.69	6.62
536.889	6.58
537.088	6.54
537.288	6.54
537.487	6.54
537.686	6.49
537.886	6.56
538.085	6.62
538.284	6.6
538.483	6.59
538.682	6.66
538.882	6.61
539.081	6.57
539.28	6.58
539.479	6.57
539.678	6.52
539.877	6.52
540.076	6.58
540.275	6.58
540.474	6.57
540.673	6.62
540.872	6.6
541.071	6.53
541.27	6.55
541.469	6.51
541.668	6.47
541.867	6.56
542.066	6.64
542.265	6.7
542.464	6.74
542.663	6.79
542.862	6.85
543.06	6.85
543.259	6.84
543.458	6.88
543.657	6.89
543.856	6.9
544.054	6.89
544.253	6.84
544.452	6.82
544.651	6.8
544.849	6.71
545.048	6.65
545.247	6.72
545.445	6.75
545.644	6.67
545.843	6.69
546.041	6.79
546.24	6.82
546.438	6.79
546.637	6.94
546.836	6.96
547.034	7.01
547.233	6.98
547.431	7.03
547.63	7.05
547.828	7.13
548.027	7.07
548.225	7.04
548.423	7.04
548.622	6.97
548.82	6.86
549.019	6.86
549.217	6.89
549.415	6.96
549.614	7.07
549.812	7.19
550.01	7.28
550.209	7.33
550.407	7.33
550.605	7.27
550.803	7.28
551.002	7.25
551.2	7.29
551.398	7.39
551.596	7.46
551.794	7.53
551.993	7.57
552.191	7.59
552.389	7.5
552.587	7.49
552.785	7.51
552.983	7.58
553.181	7.62
553.379	7.73
553.577	7.77
553.775	7.77
553.973	7.78
554.171	7.8
554.369	7.82
554.567	7.9
554.765	7.98
554.963	8.01
555.161	7.98
555.359	8.01
555.557	8
555.755	7.92
555.952	7.94
556.15	8.01
556.348	8.03
556.546	8.09
556.744	8.18
556.941	8.21
557.139	8.24
557.337	8.26
557.535	8.28
557.732	8.35
557.93	8.44
558.128	8.47
558.325	8.49
558.523	8.53
558.721	8.46
558.918	8.48
559.116	8.47
559.313	8.52
559.511	8.61
559.708	8.74
559.906	8.81
560.104	8.95
560.301	9.04
560.498	9.06
560.696	9.04
560.893	9.04
561.091	9.09
561.288	9.16
561.486	9.16
561.683	9.25
561.88	9.25
562.078	9.24
562.275	9.19
562.473	9.25
562.67	9.3
562.867	9.37
563.064	9.34
563.262	9.39
563.459	9.5
563.656	9.5
563.853	9.56
564.051	9.67
564.248	9.8
564.445	9.86
564.642	9.87
564.839	10
565.036	10.1
565.234	10.07
565.431	10.1
565.628	10.17
565.825	10.12
566.022	10.29
566.219	10.39
566.416	10.35
566.613	10.47
566.81	10.66
567.007	10.53
567.204	10.54
567.401	10.63
567.598	10.63
567.795	10.56
567.991	10.61
568.188	10.67
568.385	10.65
568.582	10.67
568.779	10.64
568.976	10.74
569.172	10.74
569.369	10.82
569.566	10.88
569.763	10.97
569.96	10.99
570.156	11.04
570.353	11.08
570.55	11.14
570.746	11.13
570.943	11.11
571.14	11.13
571.336	11.16
571.533	11.13
571.729	11.24
571.926	11.27
572.123	11.35
572.319	11.39
572.516	11.41
572.712	11.44
572.909	11.49
573.105	11.46
573.302	11.44
573.498	11.51
573.695	11.35
573.891	11.37
574.087	11.37
574.284	11.42
574.48	11.41
574.677	11.57
574.873	11.59
575.069	11.64
575.266	11.61
575.462	11.55
575.658	11.61
575.854	11.67
576.051	11.58
576.247	11.59
576.443	11.71
576.639	11.68
576.835	11.53
577.032	11.56
577.228	11.72
577.424	11.66
577.62	11.65
577.816	11.64
578.012	11.65
578.208	11.54
578.404	11.59
578.6	11.58
578.796	11.65
578.993	11.79
579.189	11.78
579.384	11.8
579.58	11.85
579.776	11.81
579.972	11.66
580.168	11.63
580.364	11.64
580.56	11.62
580.756	11.57
580.952	11.58
581.148	11.61
581.343	11.59
581.539	11.63
581.735	11.7
581.931	11.71
582.127	11.69
582.322	11.64
582.518	11.61
582.714	11.6
582.909	11.63
583.105	11.58
583.301	11.56
583.496	11.52
583.692	11.47
583.888	11.39
584.083	11.34
584.279	11.42
584.474	11.42
584.67	11.41
584.866	11.43
585.061	11.46
585.257	11.34
585.452	11.3
585.648	11.39
585.843	11.39
586.039	11.44
586.234	11.45
586.429	11.45
586.625	11.4
586.82	11.43
587.015	11.4
587.211	11.35
587.406	11.27
587.601	11.29
587.797	11.29
587.992	11.19
588.187	11.23
588.383	11.32
588.578	11.32
588.773	11.27
588.968	11.4
589.163	11.46
589.359	11.45
589.554	11.4
589.749	11.43
589.944	11.37
590.139	11.3
590.334	11.31
590.529	11.36
590.724	11.47
590.919	11.56
591.114	11.65
591.309	11.63
591.504	11.64
591.699	11.51
591.894	11.47
592.089	11.43
592.284	11.49
592.479	11.49
592.674	11.59
592.869	11.64
593.064	11.76
593.259	11.83
593.454	11.81
593.648	11.85
593.843	11.84
594.038	11.75
594.233	11.68
594.428	11.78
594.622	11.81
594.817	11.9
595.012	11.98
595.206	12.12
595.401	12.21
595.596	12.21
595.79	12.17
595.985	12.2
596.18	12.22
596.374	12.22
596.569	12.22
596.763	12.34
596.958	12.49
597.153	12.43
597.347	12.41
597.542	12.56
597.736	12.61
597.931	12.64
598.125	12.73
598.319	12.78
598.514	12.74
598.708	12.74
598.903	12.7
599.097	12.79
599.291	12.86
599.486	12.91
599.68	12.94
599.874	13.03
600.069	13.02
600.263	13.01
600.457	13.04
600.651	13.04
600.846	12.99
601.04	12.95
601.234	12.92
601.428	12.9
601.622	12.94
601.817	12.95
602.011	13.02
602.205	13.14
602.399	13.18
602.593	13.17
602.787	13.15
602.981	13.14
603.175	13.12
603.369	13.12
603.563	13.12
603.757	13.16
603.951	13.12
604.145	13.05
604.339	13.04
604.533	12.95
604.727	13
604.921	13.05
605.115	13.08
605.309	12.9
605.502	13
605.696	12.84
605.89	12.74
606.084	12.77
606.278	12.89
606.471	12.8
606.665	12.84
606.859	12.72
607.053	12.67
607.246	12.66
607.44	12.66
607.634	12.55
607.827	12.61
608.021	12.39
608.214	12.29
608.408	12.31
608.602	12.33
608.795	12.32
608.989	12.39
609.182	12.42
609.376	12.32
609.569	12.25
609.763	12.15
609.956	12.17
610.15	11.97
610.343	11.93
610.537	11.9
610.73	11.94
610.923	11.93
611.117	12.04
611.31	11.98
611.504	11.93
611.697	11.89
611.89	11.73
612.083	11.74
612.277	11.64
612.47	11.64
612.663	11.55
612.856	11.48
613.05	11.33
613.243	11.31
613.436	11.2
613.629	11.07
613.822	11.15
614.015	11.09
614.209	11.01
614.402	11.06
614.595	11.1
614.788	11.06
614.981	11.02
615.174	10.95
615.367	10.85
615.56	10.76
615.753	10.67
615.946	10.63
616.139	10.66
616.332	10.64
616.525	10.67
616.718	10.63
616.911	10.64
617.103	10.57
617.296	10.56
617.489	10.48
617.682	10.52
617.875	10.47
618.067	10.45
618.26	10.32
618.453	10.26
618.646	10.23
618.838	10.25
619.031	10.19
619.224	10.24
619.417	10.31
619.609	10.3
619.802	10.32
619.994	10.34
620.187	10.32
620.38	10.21
620.572	10.1
620.765	10
620.957	9.97
621.15	9.93
621.342	9.92
621.535	9.97
621.727	9.97
621.92	9.88
622.112	9.86
622.305	9.89
622.497	9.83
622.69	9.79
622.882	9.83
623.074	9.87
623.267	9.84
623.459	9.82
623.651	9.79
623.844	9.79
624.036	9.75
624.228	9.74
624.42	9.75
624.613	9.76
624.805	9.75
624.997	9.76
625.189	9.71
625.381	9.71
625.574	9.71
625.766	9.71
625.958	9.69
626.15	9.74
626.342	9.7
626.534	9.72
626.726	9.65
626.918	9.52
627.11	9.42
627.302	9.39
627.494	9.28
627.686	9.33
627.878	9.45
628.07	9.49
628.262	9.42
628.454	9.4
628.646	9.36
628.838	9.37
629.029	9.29
629.221	9.33
629.413	9.26
629.605	9.19
629.797	9.08
629.989	9.11
630.18	9.08
630.372	9.09
630.564	9.16
630.755	9.14
630.947	9.13
631.139	9.05
631.33	9.02
631.522	9
631.714	9.01
631.905	8.97
632.097	9
632.289	9.07
632.48	8.95
632.672	8.85
632.863	8.82
633.055	8.83
633.246	8.79
633.438	8.82
633.629	8.84
633.821	8.79
634.012	8.75
634.203	8.66
634.395	8.64
634.586	8.78
634.777	8.8
634.969	8.83
635.16	8.89
635.351	8.94
635.543	8.84
635.734	8.83
635.925	8.76
636.117	8.86
636.308	8.85
636.499	8.81
636.69	8.74
636.881	8.82
637.073	8.72
637.264	8.67
637.455	8.66
637.646	8.73
637.837	8.71
638.028	8.62
638.219	8.62
638.41	8.61
638.601	8.6
638.792	8.56
638.983	8.65
639.174	8.63
639.365	8.59
639.556	8.53
639.747	8.58
639.938	8.65
640.129	8.7
640.32	8.78
640.511	8.78
640.701	8.76
640.892	8.7
641.083	8.66
641.274	8.61
641.465	8.62
641.655	8.62
641.846	8.58
642.037	8.62
642.228	8.61
642.418	8.63
642.609	8.57
642.8	8.52
642.99	8.36
643.181	8.41
643.372	8.35
643.562	8.38
643.753	8.43
643.943	8.4
644.134	8.36
644.324	8.4
644.515	8.42
644.705	8.37
644.896	8.5
645.086	8.46
645.277	8.42
645.467	8.43
645.658	8.46
645.848	8.37
646.038	8.41
646.229	8.46
646.419	8.39
646.61	8.44
646.8	8.54
646.99	8.56
647.18	8.42
647.371	8.36
647.561	8.27
647.751	8.22
647.941	8.13
648.132	8.15
648.322	8.25
648.512	8.24
648.702	8.28
648.892	8.29
649.082	8.28
649.272	8.11
649.462	8.1
649.653	8
649.843	8
650.033	8.04
650.223	8.11
650.413	8.15
650.603	8.3
650.793	8.27
650.983	8.23
651.172	8.19
651.362	8.09
651.552	7.85
651.742	7.76
651.932	7.83
652.122	7.86
652.312	7.84
652.502	7.87
652.691	7.95
652.881	7.93
653.071	7.97
653.261	7.92
653.45	7.91
653.64	7.92
653.83	7.82
654.019	7.71
654.209	7.68
654.399	7.72
654.588	7.52
654.778	7.55
654.968	7.49
655.157	7.51
655.347	7.38
655.536	7.45
655.726	7.24
655.915	7.2
656.105	7.07
656.294	6.97
656.484	6.89
656.673	6.92
656.863	6.93
657.052	6.93
657.241	7
657.431	7.03
657.62	6.96
657.809	6.91
657.999	6.92
658.188	6.86
658.377	6.88
658.567	6.9
658.756	6.83
658.945	6.78
659.134	6.69
659.324	6.58
659.513	6.52
659.702	6.35
659.891	6.33
660.08	6.27
660.269	6.14
660.458	6.06
660.648	6.2
660.837	6.07
661.026	6
661.215	6.05
661.404	5.98
661.593	5.85
661.782	5.78
661.971	5.85
662.16	5.74
662.349	5.69
662.538	5.7
662.726	5.76
662.915	5.7
663.104	5.71
663.293	5.77
663.482	5.74
663.671	5.82
663.86	5.79
664.048	5.87
664.237	5.93
664.426	5.84
664.615	5.7
664.803	5.71
664.992	5.58
665.181	5.51
665.369	5.54
665.558	5.51
665.747	5.61
665.935	5.76
666.124	5.75
666.312	5.86
666.501	6.05
666.69	5.95
666.878	5.84
667.067	5.88
667.255	6
667.444	6.08
667.632	6.27
667.82	6.33
668.009	6.46
668.197	6.41
668.386	6.26
668.574	6.09
668.762	6.26
668.951	6.3
669.139	6.28
669.327	6.36
669.516	6.42
669.704	6.36
669.892	6.25
670.08	6.22
670.269	6.22
670.457	6.31
670.645	6.27
670.833	6.33
671.021	6.58
671.21	6.7
671.398	6.69
671.586	6.7
671.774	6.78
671.962	6.73
672.15	6.7
672.338	6.8
672.526	7.01
672.714	7.22
672.902	7.16
673.09	7.17
673.278	7.23
673.466	7.32
673.654	7.28
673.842	7.4
674.03	7.63
674.218	7.69
674.405	7.71
674.593	7.72
674.781	7.88
674.969	7.8
675.157	7.81
675.344	7.62
675.532	7.69
675.72	7.71
675.908	7.75
676.095	7.87
676.283	8.15
676.471	8.14
676.658	8.18
676.846	8.22
677.033	8.19
677.221	8.13
677.409	8.11
677.596	8.08
677.784	8.23
677.971	8.37
678.159	8.55
678.346	8.75
678.534	8.83
678.721	8.86
678.909	8.96
679.096	8.89
679.283	8.84
679.471	8.87
679.658	8.94
679.846	8.83
680.033	9.06
680.22	9.29
680.408	9.25
680.595	9.33
680.782	9.38
680.969	9.33
681.157	9.2
681.344	9.32
681.531	9.45
681.718	9.45
681.905	9.58
682.093	9.73
682.28	9.88
682.467	9.84
682.654	10.05
682.841	9.98
683.028	9.94
683.215	9.96
683.402	10.02
683.589	9.9
683.776	10.08
683.963	10.14
684.15	10.32
684.337	10.36
684.524	10.67
684.711	10.75
684.898	10.8
685.085	10.76
685.271	10.79
685.458	10.88
685.645	10.85
685.832	10.73
686.019	10.71
686.205	10.82
686.392	10.74
686.579	10.94
686.766	11.53
686.952	11.73
687.139	11.79
687.326	11.82
687.512	11.87
687.699	11.8
687.886	12.11
688.072	12.29
688.259	12.72
688.445	12.95
688.632	12.95
688.818	13.03
689.005	13.22
689.191	13.37
689.378	13.66
689.564	14.18
689.751	14.13
689.937	14.46
690.124	14.68
690.31	14.9
690.496	15.19
690.683	15.83
690.869	15.99
691.055	16.34
691.242	16.61
691.428	16.83
691.614	17.03
691.8	17.69
691.987	18.1
692.173	18.59
692.359	19.06
692.545	19.64
692.731	19.87
692.918	20.2
693.104	20.85
693.29	21.3
693.476	21.68
693.662	22.45
693.848	23.17
694.034	23.56
694.22	24.44
694.406	25.09
694.592	25.53
694.778	25.79
694.964	26.32
695.15	26.32
695.336	26.63
695.522	27.09
695.708	27.98
695.894	28.41
696.08	29.32
696.265	30.14
696.451	30.83
696.637	31.36
696.823	32.28
697.009	32.58
697.194	32.95
697.38	33.62
697.566	34.14
697.751	34.53
697.937	35.22
698.123	36.27
698.308	36.68
698.494	37.36
698.68	38.11
698.865	38.7
699.051	38.95
699.236	39.58
699.422	40.02
699.607	40.31
699.793	41.12
699.978	41.48
700.164	41.91
700.349	42.69
700.535	43.2
700.72	43.6
700.906	44.5
701.091	44.99
701.276	45.64
701.462	46.14
701.647	47.04
701.832	47.56
702.018	48.38
702.203	48.76
702.388	49.8
702.573	50.26
702.759	51.14
702.944	51.58
703.129	52.21
703.314	52.56
703.499	53.02
703.684	53.3
703.87	53.99
704.055	54.61
704.24	55.32
704.425	55.76
704.61	56.58
704.795	57.1
704.98	57.48
705.165	57.8
705.35	58.14
705.535	58.17
705.72	58.58
705.905	58.61
706.09	58.99
706.275	59.4
706.459	59.61
706.644	59.72
706.829	60.57
707.014	61.19
707.199	61.91
707.384	62.3
707.568	62.99
707.753	63.22
707.938	63.22
708.123	63.22
708.307	63.73
708.492	63.96
708.677	64.01
708.861	64.55
709.046	64.89
709.231	65.3
709.415	65.58
709.6	66.09
709.784	66.31
709.969	66.89
710.153	66.91
710.338	67.22
710.522	67.7
710.707	67.88
710.891	67.58
711.076	68.04
711.26	68.3
711.445	68.59
711.629	68.96
711.813	69.56
711.998	69.9
712.182	70.07
712.366	70.15
712.551	69.96
712.735	70.48
712.919	70.74
713.103	70.88
713.288	71.44
713.472	71.92
713.656	72.31
713.84	72.38
714.024	73.19
714.208	73.22
714.393	73.55
714.577	73.22
714.761	73.07
714.945	73.37
715.129	73.32
715.313	73.34
715.497	73.71
715.681	74.21
715.865	73.88
716.049	74.42
716.233	74.46
716.417	74.52
716.601	74.84
716.785	75.38
716.968	74.99
717.152	75.87
717.336	76.28
717.52	76.28
717.704	75.94
717.888	76.53
718.071	76.71
718.255	76.76
718.439	76.55
718.622	76.86
718.806	76.67
718.99	76
719.174	76.24
719.357	77.05
719.541	77.53
719.724	77.72
719.908	78.3
720.092	78.27
720.275	78.43
720.459	78.8
720.642	79.06
720.826	79.03
721.009	79.38
721.193	78.97
721.376	78.48
721.559	78.82
721.743	79.48
721.926	79.58
722.11	80.27
722.293	80.71
722.476	80.91
722.66	81.32
722.843	81.26
723.026	81.19
723.21	81.16
723.393	80.6
723.576	79.93
723.759	79.83
723.942	80.04
724.126	80.37
724.309	80.95
724.492	81.46
724.675	81.81
724.858	82.47
725.041	82.6
725.224	82.7
725.407	83.1
725.59	83.62
725.774	83.15
725.957	83.14
726.14	83.54
726.322	83.42
726.505	83.72
726.688	84.26
726.871	84.82
727.054	84.91
727.237	85.25
727.42	85.69
727.603	85.48
727.786	85.34
727.968	85.39
728.151	85.5
728.334	84.85
728.517	85.42
728.699	85.78
728.882	86.36
729.065	86.73
729.248	86.99
729.43	87.68
729.613	88.37
729.796	88.4
729.978	88.67
730.161	88.76
730.343	88.64
730.526	88.2
730.708	88.41
730.891	88.23
731.073	88.48
731.256	88.39
731.438	88.16
731.621	87.51
731.803	87.97
731.986	89.01
732.168	89.42
732.35	89.65
732.533	90.7
732.715	90.63
732.898	89.6
733.08	89.97
733.262	90.55
733.444	90.45
733.627	90.38
733.809	90.85
733.991	90.49
734.173	90.71
734.355	91.3
734.538	91.5
734.72	91.85
734.902	92.66
735.084	92.81
735.266	92.22
735.448	92.85
735.63	92.25
735.812	91.45
735.994	90.93
736.176	90.73
736.358	91.65
736.54	93.15
736.722	92.88
736.904	93.77
737.086	94.33
737.268	93.23
737.45	92.74
737.632	93.09
737.814	92.82
737.995	93.69
738.177	93.77
738.359	93.35
738.541	93.47
738.723	93.71
738.904	92.71
739.086	92.94
739.268	93.57
739.449	94.37
739.631	94.09
739.813	95.8
739.994	95.81
740.176	96.6
740.358	95.94
740.539	97.08
740.721	95.66
740.902	96.38
741.084	95.68
741.265	96.33
741.447	94.78
741.628	95.04
741.81	94.26
741.991	94.89
742.172	94.69
742.354	95.62
742.535	95.92
742.717	95.76
742.898	95.18
743.079	96.14
743.261	96.57
743.442	96.47
743.623	97.23
743.804	97.21
743.986	96.02
744.167	95.5
744.348	95.25
744.529	94.7
744.71	94.87
744.891	95.96
745.073	95.81
745.254	97.3
745.435	98.02
745.616	97.64
745.797	97.37
745.978	98.09
746.159	97.72
746.34	97.63
746.521	98.2
746.702	98.97
746.883	98.28
747.064	96.35
747.245	95.24
747.426	94.82
747.606	94.64
747.787	95.22
747.968	96.91
748.149	97.41
748.33	97.48
748.51	95.76
748.691	94.78
748.872	94.76
749.053	94.98
749.233	95.53
749.414	97.23
749.595	98.03
749.775	97.57
749.956	97.23
750.137	96.45
750.317	94.51
750.498	94.43
750.678	94.66
750.859	95.95
751.04	95.66
751.22	96.67
751.4	97.65
751.581	97.99
751.761	97.33
751.942	98.1
752.122	98.17
752.303	96.36
752.483	96.93
752.663	98.3
752.844	97.53
753.024	97.1
753.204	98.63
753.385	96.83
753.565	96.03
753.745	96.58
753.925	98.26
754.106	97.73
754.286	99.05
754.466	98.07
754.646	98.03
754.826	97.71
755.006	97.13
755.187	97.04
755.367	96.72
755.547	95.03
755.727	93.15
755.907	93.44
756.087	93.12
756.267	93.28
756.447	95.47
756.627	94.4
756.807	96.8
756.987	96.41
757.167	96.84
757.346	98.04
757.526	99.45
757.706	97.75
757.886	97.82
758.066	97.64
758.246	96.05
758.425	96.55
758.605	94.16
758.785	96.14
758.965	96.29
759.144	96.43
759.324	97.13
759.504	99.37
759.683	98.73
759.863	97.31
760.043	98.23
760.222	98.94
760.402	97.15
760.581	97.33
760.761	98.35
760.94	96.98
761.12	95.13
761.299	97.02
761.479	94.38
761.658	93.1
761.838	93.36
762.017	93.55
762.197	93.28
762.376	95.42
762.555	96.18
762.735	96.82
762.914	93.97
763.093	93.72
763.273	92.82
763.452	92.23
763.631	90.71
763.81	93.19
763.99	92.57
764.169	93.8
764.348	92.36
764.527	92.91
764.706	93.68
764.885	93.23
765.064	91.18
765.243	93.64
765.423	92.41
765.602	90
765.781	89.88
765.96	88.11
766.139	87.91
766.318	88.7
766.497	89.14
766.676	88.2
766.854	90.53
767.033	89.31
767.212	88.94
767.391	90.2
767.57	92.16
767.749	91.88
767.928	93.52
768.106	93.9
768.285	93
768.464	92.5
768.643	92.52
768.821	91.67
769	89.74
769.179	89.19
769.357	87.22
769.536	89.08
769.715	88.8
769.893	90.39
770.072	90.12
770.25	92.64
770.429	91.13
770.607	90.25
770.786	90.81
770.964	91.7
771.143	91.41
771.321	88.66
771.5	92.86
771.678	91.42
771.857	91.08
772.035	89.8
772.213	91.87
772.392	87.45
772.57	89.43
772.748	89.79
772.927	90.07
773.105	89.26
773.283	91.22
773.461	90.12
773.64	92.29
773.818	90.68
773.996	91.49
774.174	90.02
774.352	90.48
774.531	87.16
774.709	89.7
774.887	90.65
775.065	89.67
775.243	88.88
775.421	87.67
775.599	88.74
775.777	85.65
775.955	85.05
776.133	86.9
776.311	90.51
776.489	88.74
776.667	87.89
776.844	90.27
777.022	88.32
777.2	88.78
777.378	89.14
777.556	91.29
777.734	92.3
777.911	92.31
778.089	91.27
778.267	91.16
778.445	90.91
778.622	87.91
778.8	88.23
778.978	86.47
779.155	84.71
779.333	83.24
779.511	78.35
779.688	78.59
779.866	74.54
780.043	74.32
780.221	73.94
780.398	81.11
780.576	79.03
780.753	84.55
780.931	85.36
781.108	87.38
781.286	87.32
781.463	87.38
781.64	87.95
781.818	87.86
781.995	86.4
782.172	86.57
782.35	87.16
782.527	84.43
782.704	87.76
782.882	90.37
783.059	88.16
783.236	83.88
783.413	87.02
783.59	83
783.768	80.08
783.945	81.24
784.122	87.8
784.299	87.07
784.476	90.05
784.653	92.33
784.83	93.46
785.007	90.25
785.184	88.7
785.361	87.14
785.538	86.86
785.715	81.77
785.892	83.49
786.069	84.86
786.246	84.57
786.423	87.24
786.6	89.98
786.776	86.96
786.953	85.56
787.13	83.91
787.307	82.27
787.484	84.29
787.66	88.43
787.837	89.67
788.014	89.11
788.191	90.58
788.367	89.59
788.544	94.2
788.721	94.15
788.897	95.74
789.074	93.39
789.25	93.03
789.427	88.92
789.603	91.69
789.78	95.29
789.956	98.72
790.133	98.05
790.309	97.36
790.486	91.08
790.662	88.24
790.839	82.72
791.015	87.25
791.192	86.24
791.368	88.6
791.544	88.96
791.721	91.55
791.897	88.51
792.073	89.32
792.249	86.21
792.426	85.98
792.602	86.29
792.778	86.73
792.954	85.85
793.13	91.56
793.307	90.08
793.483	86.82
793.659	84.41
793.835	87.71
794.011	88.04
794.187	83.09
794.363	84.75
794.539	85.31
794.715	76.95
794.891	73.47
795.067	72.76
795.243	75.76
795.419	73.76
795.595	76.05
795.771	73.96
795.947	81.27
796.122	75.24
796.298	81.54
796.474	79.84
796.65	80.39
796.826	78.06
797.001	85.93
797.177	84.57
797.353	86.42
797.529	86.91
797.704	91.42
797.88	83.76
798.056	80.6
798.231	78.85
798.407	78.66
798.582	73.14
798.758	77.12
798.934	81.26
799.109	88.21
799.285	85.78
799.46	89.56
799.636	89.91
799.811	87.45
799.986	85.97
800.162	92.54
800.337	93.01
800.513	85.94
800.688	88.98
800.863	86.48
801.039	82.76
801.214	78.22
801.389	83.37
801.565	80.06
801.74	79.52
801.915	80.3
802.09	81.51
802.265	78.91
802.441	80.7
802.616	80.96
802.791	86.74
802.966	87.03
803.141	90.59
803.316	82.71
803.491	76.44
803.666	69.71
803.841	79.47
804.016	80.97
804.191	87.01
804.366	97.32
804.541	103.28
804.716	95.17
804.891	89.25
805.066	82.58
805.241	88.6
805.416	85.52
805.591	83.65
805.765	83.35
805.94	83.52
806.115	71.19
806.29	66.27
806.464	74.12
806.639	77.93
806.814	74.64
806.989	69.74
807.163	73.29
807.338	70.66
807.512	67.62
807.687	68.93
807.862	72.57
808.036	70
808.211	64.77
808.385	67.3
808.56	71.91
808.734	81.23
808.909	83.42
809.083	83.86
809.258	83.02
809.432	83.57
809.606	71.35
809.781	74.2
809.955	83.64
810.13	82.95
810.304	84.55
810.478	83.79
810.652	84.58
810.827	74.67
811.001	83.16
811.175	89.22
811.349	93.69
811.524	93.78
811.698	92.12
811.872	79.34
812.046	74.81
812.22	72.81
812.394	66.77
812.568	77.54
812.742	91.14
812.916	84.13
813.09	96.34
813.264	107.58
813.438	98.18
813.612	86.83
813.786	69.77
813.96	57.03
814.134	60.97
814.308	75.16
814.482	76.43
814.656	105.08
814.83	113.2
815.003	110.25
815.177	100.2
815.351	100.81
815.525	83.97
815.698	77.22
815.872	67.81
816.046	67.23
816.219	64.94
816.393	75.59
816.567	87.68
816.74	91.59
816.914	103.49
817.088	119.85
817.261	112.85
817.435	99.83
817.608	114.26
817.782	88.75
817.955	92.28
818.129	96.55
818.302	94.7
818.475	109.53
818.649	119.68
818.822	100.69
818.996	94.28
819.169	99.32
819.342	85.23
819.516	86.34
819.689	101.27
819.862	105.63
820.035	103.89
820.209	91.03
820.382	89.26
820.555	79.59
820.728	72.93
820.901	49.57
821.075	69.93
821.248	79.02
821.421	75.95
821.594	76.5
821.767	91.38
821.94	79.64
822.113	47.74
822.286	46.18
822.459	49.29
822.632	44.5
822.805	58.14
822.978	85.05
823.151	95.86
823.324	100.01
823.496	64.83
823.669	40.23
823.842	54.26
824.015	46.6
824.188	44.4
824.361	79.97
824.533	99.4
824.706	70.8
824.879	73.29
825.051	82.39
825.224	82.17
825.397	81.09
825.569	84.02
825.742	74
825.915	61.76
826.087	57.64
826.26	50.68
826.432	49.1
826.605	49.6
826.777	52.91
826.95	69.53
827.122	64.44
827.295	63.79
827.467	69.53
827.64	32.85
827.812	3.33
827.984	21.12
828.157	21.63
828.329	35.45
828.501	86.26
828.674	122.88
828.846	118.05
829.018	121.91
829.19	111.91
829.363	82.56
829.535	78.91
829.707	72.1
829.879	76.66
830.051	60.47
830.223	84.45
830.395	62.11
830.568	59.01
830.74	61.69
830.912	69.78
831.084	58.61
831.256	65.33
831.428	49.57
831.6	53.29
831.772	62.51
831.943	29.54
832.115	47.56
832.287	69.67
832.459	68.22
832.631	68.37
832.803	100.42
832.975	85.4
833.146	76.12
833.318	61.46
833.49	79.38
833.662	70.77
833.833	90.3
834.005	90.96
834.177	101.89
834.348	94.8
834.52	83.47
834.692	85.86
834.863	95.65
835.035	95.25
835.206	81.59
835.378	99.3
835.549	82.18
835.721	93.16
835.892	86.72
836.064	102.27
836.235	96.34
836.407	114.32
836.578	83.67
836.749	85.24
836.921	97.92
837.092	115.06
837.264	105.43
837.435	109.56
837.606	103.17
837.777	85.87
837.949	83.95
838.12	26.08
838.291	60.25
838.462	90.79
838.633	56.8
838.805	47.37
838.976	90.71
839.147	94.79
839.318	112.93
839.489	139
839.66	168.32
839.831	134.26
840.002	96.29
840.173	18.84
840.344	-8.68
840.515	-41.42
840.686	-104.56
840.857	-12.39
841.028	30.94
841.199	80.82
841.369	113.68
841.54	112.78
841.711	152.63
841.882	106.79
842.053	95.71
842.223	78.06
842.394	50.82
842.565	35.39
842.736	57.7
842.906	43.88
843.077	44.68
843.248	58.2
843.418	64.92
843.589	59.86
843.759	62.84
843.93	-211.71
844.101	105.85
844.271	65.17
844.442	76.75
844.612	124.88
844.783	137.34
844.953	65.13
845.123	77.37
845.294	86.81
845.464	66.14
845.635	68.28
845.805	120.74
845.975	111.53
846.146	140.75
846.316	178.55
846.486	147.16
846.656	98.83
846.827	120.39
846.997	43.77
847.167	58.91
847.337	30.3
847.507	64.33
847.677	15.89
847.848	71.63
848.018	77.69
848.188	110.17
848.358	81.51
848.528	137.29
848.698	113.96
848.868	107.22
849.038	74.16
849.208	85.52
849.378	90.98
849.548	49.93
849.718	33.77
849.887	-169.67
850.057	2038.71
850.227	243.78
850.397	51.01
850.567	116.29
850.737	75.81
850.906	70.82
851.076	69.94
851.246	91.43
851.415	97.99
851.585	94.67
851.755	89.26
851.924	96
852.094	85.16
852.264	54.81
852.433	1.67
852.603	0.68
852.772	-8.16
852.942	4.72
853.111	-10.99
853.281	78.55
853.45	93.13
853.62	98.52
853.789	101.23
853.959	204.67
854.128	-50.69
854.297	81.24
854.467	411.82
854.636	-458.04
854.805	-112.03
854.975	-53.22
855.144	-52.2
855.313	3.64
855.482	73.22
855.652	87.06
855.821	121.15
855.99	200.69
856.159	693.85
856.328	189.64
856.497	179.39
856.667	169.94
856.836	91.02
857.005	83.95
857.174	56.53
857.343	98.63
857.512	26.25
857.681	29.15
857.85	-33.4
858.019	-34.43
858.188	-16.86
858.356	-47.51
858.525	-17.92
858.694	21.76
858.863	36.33
859.032	-31.99
859.201	16.78
859.369	30.29
859.538	23.13
859.707	-2.12
859.876	7.16
860.044	28.45
860.213	61.18
860.382	88.81
860.55	120.06
860.719	161.08
860.888	141.18
861.056	154.52
861.225	140.69
861.393	177.02
861.562	179.37
861.73	174.65
861.899	122.62
862.067	102.03
862.236	32
862.404	-33.72
862.572	-47.06
862.741	-147.81
862.909	51
863.078	53.22
863.246	108.55
863.414	143.84
863.582	88.51
863.751	109.24
863.919	94.74
864.087	71.49
864.255	6.08
864.424	-60.8
864.592	-55.96
864.76	26.68
864.928	59.81
865.096	69.27
865.264	102.99
865.432	102.96
865.6	121.4
865.768	-12.9
865.936	-123.24
866.104	-363.29
866.272	79.74
866.44	-9.64
866.608	-11.48
866.776	22.77
866.944	3.15
867.112	-52.71
867.28	-61.04
867.448	-24.23
867.615	-58.53
867.783	12.41
867.951	-42.94
868.119	34.15
868.286	65.65
868.454	66.16
868.622	10.2
868.789	324.53
868.957	-524.89
869.125	56.94
869.292	-172.51
869.46	-123.97
869.627	-701.71
869.795	-152.75
869.963	-7.82
870.13	19.27
870.298	18.71
870.465	51.19
870.632	41.67
870.8	4.18
870.967	14.56
871.135	-138.72
871.302	792.43
871.469	-97.06
871.637	-3.93
871.804	-72.41
871.971	-101.84
872.139	-39.56
872.306	-133.24
872.473	-1033.17
872.64	-236.42
872.807	5.33
872.975	-79.76
873.142	-27.07
873.309	14.63
873.476	39.95
873.643	16.96
873.81	22.15
873.977	-6.86
874.144	-81.9
874.311	-34.07
874.478	-125.13
874.645	-236.17
874.812	-820.85
874.979	-156.3
875.146	-108.56
875.313	-475.79
875.48	291.91
875.647	-106.34
875.813	-278.48
875.98	68.67
876.147	84.3
876.314	92.73
876.481	72.28
876.647	57.88
876.814	56.33
876.981	7.84
877.147	-90.52
877.314	-118.19
877.481	-36.71
877.647	-96.72
877.814	-26.03
877.98	29.51
878.147	-167.28
878.314	-176.45
878.48	498.79
878.647	-8.21
878.813	549.64
878.979	37.93
879.146	-30.34
879.312	20.46
879.479	72.06
879.645	37.52
879.811	-19.82
879.978	9.81
880.144	-67.33
880.31	-87.06
880.477	864.43
880.643	248.65
880.809	1268.29
880.975	-442.21
881.142	-336.62
881.308	-428.86
881.474	73.05
881.64	73.57
881.806	62.26
881.972	82.91
882.138	102.1
882.304	52.93
882.47	-15.06
882.636	21.34
882.802	23.87
882.968	-15.21
883.134	-0.7
883.3	56.8
883.466	52.78
883.632	74.4
883.798	91.29
883.964	41.44
884.129	28.4
884.295	-155.35
884.461	-798.83
884.627	1268.4
884.793	142.88
884.958	120.69
885.124	419.8
885.29	-126.95
885.455	-24.36
885.621	12.4
885.787	-44.37
885.952	-16.21
886.118	114.78
886.283	108.79
886.449	260.55
886.614	162.2
886.78	147.51
886.945	110.94
887.111	93.77
887.276	79.38
887.442	118.66
887.607	11.69
887.773	-91
887.938	-100.84
888.103	-120.04
888.269	-301.91
888.434	3976.47
888.599	-39.28
888.764	543.69
888.93	59.4
889.095	38.48
889.26	58.49
889.425	102.47
889.59	95.93
889.756	102.35
889.921	60.8
890.086	33.85
890.251	68.37
890.416	7.25
890.581	-52.43
890.746	21.52
890.911	115.2
891.076	-33.56
891.241	-56.58
891.406	6114.29
891.571	-13.82
891.736	227.84
891.901	306.57
892.065	105
892.23	308.17
892.395	289.74
892.56	2869.8
892.725	-207.5
892.889	-512.07
893.054	-1258.28
893.219	-2454.68
893.384	-243.7
893.548	-641.52
893.713	-357.85
893.878	-550.79
