Data from Ofav_SP_Phys_0AZ4_Reflection_1.txt Node
Date: Thu Aug 05 17:43:06 EDT 2021
User: Adam
Spectrometer: FLMT01687
Trigger mode: 0
Integration Time (sec): 8.000000E-1
Scans to average: 2
Electric dark correction enabled: true
Nonlinearity correction enabled: false
Boxcar width: 2
XAxis mode: Wavelengths
Number of Pixels in Spectrum: 3648
>>>>>Begin Spectral Data<<<<<
179.494	225.79
179.716	262.48
179.937	209.78
180.158	262.56
180.38	536.61
180.601	-78.47
180.823	140.34
181.044	118.77
181.265	109.57
181.486	125.15
181.708	172.48
181.929	76.97
182.15	158.78
182.372	70.19
182.593	73.84
182.814	86.18
183.035	81.4
183.257	655.16
183.478	-668.81
183.699	811.25
183.92	255.69
184.141	-1019.28
184.363	910.81
184.584	-99.8
184.805	-10.03
185.026	5.42
185.247	25.88
185.468	30.27
185.689	56.17
185.91	21.61
186.132	-52.36
186.353	-69.73
186.574	-200.19
186.795	-191.81
187.016	-154.58
187.237	-49.31
187.458	-375.35
187.679	-26.8
187.9	-21.96
188.121	-52.63
188.342	-53.81
188.563	23.67
188.784	6.24
189.005	-57.39
189.226	31.43
189.447	35.23
189.667	66.28
189.888	-32.17
190.109	45.88
190.33	28.63
190.551	26.81
190.772	29.37
190.993	54.03
191.214	50.05
191.434	39.46
191.655	29.13
191.876	44.5
192.097	20.45
192.318	18.21
192.538	-44.2
192.759	28.72
192.98	-27.26
193.201	-117.08
193.421	-80.16
193.642	23.84
193.863	5.65
194.083	-3.54
194.304	28.97
194.525	32.88
194.745	28.38
194.966	16.83
195.187	24.63
195.407	-10.74
195.628	-30.47
195.848	-0.82
196.069	20.12
196.29	22.16
196.51	52.35
196.731	46.45
196.951	47.21
197.172	46.26
197.392	61.27
197.613	48.77
197.833	63.22
198.054	49.72
198.274	30.31
198.495	15.77
198.715	62.44
198.936	79.82
199.156	65.12
199.377	58.24
199.597	43
199.817	5.69
200.038	13.52
200.258	17.08
200.479	26.15
200.699	16.56
200.919	11.61
201.14	-17.92
201.36	-33.66
201.58	-40.15
201.801	-86.66
202.021	-36.37
202.241	1.06
202.461	-30.36
202.682	-59.77
202.902	-79.16
203.122	-165.83
203.342	-58.23
203.563	-5.69
203.783	24.81
204.003	35.42
204.223	13.34
204.443	-22.65
204.663	-31.1
204.884	-8.42
205.104	-22.16
205.324	3.29
205.544	16.81
205.764	30.22
205.984	32.42
206.204	20.02
206.424	5.98
206.644	1.46
206.864	20.54
207.084	-14.71
207.304	18.16
207.525	48.13
207.745	64.79
207.964	25.33
208.184	19.58
208.404	4.26
208.624	-41.33
208.844	-109.48
209.064	-48.49
209.284	-6.63
209.504	-12.54
209.724	-3.25
209.944	26.55
210.164	-4.32
210.384	4.74
210.604	10.85
210.823	25.73
211.043	17.3
211.263	22.61
211.483	12.77
211.703	21.64
211.922	14.98
212.142	30.44
212.362	-0.52
212.582	19.93
212.801	22
213.021	16.61
213.241	-0.45
213.461	-2.37
213.68	-4.94
213.9	-33.12
214.12	-61.85
214.339	-77.97
214.559	-35.53
214.779	-66.44
214.998	-57.81
215.218	-19.71
215.438	47.21
215.657	57.04
215.877	123.14
216.096	96.68
216.316	106.23
216.535	73.87
216.755	32
216.974	-71.16
217.194	14.54
217.413	8.14
217.633	9.04
217.852	35.93
218.072	48.95
218.291	42.84
218.511	62.3
218.73	50.24
218.95	19.3
219.169	-10.41
219.389	33.74
219.608	-3.07
219.827	-7.74
220.047	1.06
220.266	15.8
220.485	-7.56
220.705	19.68
220.924	26.14
221.143	39.01
221.363	45.47
221.582	35.22
221.801	-1.47
222.021	9.34
222.24	10.75
222.459	-23.11
222.678	21.44
222.897	33.35
223.117	55.9
223.336	-1.66
223.555	-15.57
223.774	-70.88
223.993	-84.97
224.213	-45.75
224.432	-48.81
224.651	-0.4
224.87	14.04
225.089	9.62
225.308	-29.03
225.527	14.57
225.746	-20.04
225.965	-37.43
226.184	-5.74
226.404	3.99
226.623	-74.02
226.842	-48.47
227.061	-3.15
227.28	5.9
227.499	-5.94
227.718	25.97
227.936	39.33
228.155	27.03
228.374	7.12
228.593	13.31
228.812	27.81
229.031	21.84
229.25	29.92
229.469	46.39
229.688	46.99
229.907	36.95
230.125	35.85
230.344	5.31
230.563	-18.54
230.782	-89.11
231.001	-118.92
231.22	-57.38
231.438	-11.9
231.657	4.17
231.876	0.93
232.095	28.04
232.313	17.84
232.532	3.7
232.751	-21.98
232.969	-4.35
233.188	-43.62
233.407	-40.34
233.625	-13.15
233.844	-32.64
234.063	-34.28
234.281	6.09
234.5	17.98
234.719	-32.16
234.937	-30.92
235.156	-26.58
235.374	-18.09
235.593	-40.64
235.811	-27.82
236.03	-9.24
236.249	9.09
236.467	-6.38
236.686	-24.51
236.904	-10.21
237.123	-20.35
237.341	-10.63
237.559	-28.77
237.778	-3.39
237.996	16.37
238.215	20.59
238.433	9.8
238.652	24.5
238.87	12.82
239.088	-14.97
239.307	-9.62
239.525	-3.31
239.743	-10.84
239.962	-4.98
240.18	-2.06
240.398	-31.73
240.617	-63.58
240.835	-29.39
241.053	-30.84
241.271	-41.46
241.49	-26.91
241.708	-38.71
241.926	-32.81
242.144	-15.79
242.363	-22.46
242.581	35.34
242.799	33.36
243.017	69.52
243.235	19.93
243.453	39
243.672	13.4
243.89	24.26
244.108	4.34
244.326	60.3
244.544	57.43
244.762	62.44
244.98	60.69
245.198	23.63
245.416	-1.16
245.634	-23.34
245.852	-62.43
246.07	-39.84
246.288	-26.34
246.506	-45.67
246.724	-3.92
246.942	11.16
247.16	23.64
247.378	38.14
247.596	25.67
247.814	12.03
248.032	17.13
248.25	11.89
248.468	19.64
248.685	14.5
248.903	23.67
249.121	-0.95
249.339	18.98
249.557	3.59
249.775	5.55
249.992	3.83
250.21	42.39
250.428	8.31
250.646	8.09
250.863	10.64
251.081	4.46
251.299	-21.17
251.517	21
251.734	20.79
251.952	6.37
252.17	23.05
252.387	5.82
252.605	12.14
252.823	36.76
253.04	33.22
253.258	15.17
253.475	37.17
253.693	24.3
253.911	12.07
254.128	34.21
254.346	53
254.563	46.93
254.781	40.51
254.998	30.25
255.216	1.41
255.433	-49.73
255.651	-91
255.868	-72.94
256.086	-33.94
256.303	-33.47
256.521	-39.99
256.738	-95.61
256.956	-180.13
257.173	-55.2
257.39	-23.49
257.608	-22.35
257.825	-2.1
258.043	-11.66
258.26	-22.64
258.477	-20.13
258.695	10.36
258.912	23.34
259.129	39.86
259.346	50.69
259.564	41.97
259.781	29.12
259.998	26.65
260.216	35.02
260.433	22.57
260.65	7.62
260.867	-9.16
261.084	0.2
261.302	-14.91
261.519	-15.45
261.736	23.44
261.953	21.91
262.17	24.39
262.387	34.09
262.604	18.37
262.822	11.78
263.039	2.27
263.256	28.52
263.473	18.83
263.69	41.67
263.907	37.39
264.124	27.51
264.341	15.48
264.558	17.25
264.775	26.53
264.992	16.28
265.209	39.13
265.426	38.76
265.643	24.54
265.86	16.63
266.077	27.62
266.294	-0.87
266.51	-10.4
266.727	8.71
266.944	0.14
267.161	-19.13
267.378	-10.57
267.595	-11.93
267.812	-48.84
268.028	-40.2
268.245	-24.28
268.462	-47.44
268.679	-29.86
268.896	8.59
269.112	12.43
269.329	27.92
269.546	40.74
269.763	39.99
269.979	36.78
270.196	52.46
270.413	33.82
270.629	28.6
270.846	12.63
271.063	6.52
271.279	-22.51
271.496	-35.9
271.712	-78.04
271.929	-23.55
272.146	21.56
272.362	-25.95
272.579	-0.37
272.795	35.77
273.012	8.55
273.228	-37.38
273.445	-1.88
273.661	1.29
273.878	-40.39
274.094	-23.84
274.311	11.87
274.527	-5.24
274.744	-24.27
274.96	7.94
275.177	8.5
275.393	-18.85
275.609	-15.22
275.826	-27.21
276.042	-25.56
276.259	-32.27
276.475	-8.31
276.691	3.19
276.908	10.51
277.124	19.1
277.34	19.63
277.557	3.77
277.773	-8.45
277.989	-3.13
278.205	-9.46
278.422	-2.16
278.638	32.47
278.854	40.46
279.07	29.95
279.286	25.62
279.503	10.65
279.719	-24.33
279.935	15.78
280.151	52.65
280.367	42.17
280.583	40.67
280.799	50.81
281.016	30.36
281.232	26.38
281.448	-4.64
281.664	10.23
281.88	-9.65
282.096	11.74
282.312	1.74
282.528	30.36
282.744	32.98
282.96	48.03
283.176	41.03
283.392	44.11
283.608	42.94
283.824	28.74
284.04	27.33
284.256	19.76
284.471	9.66
284.687	33.28
284.903	34.75
285.119	18.14
285.335	5.26
285.551	13.91
285.767	-20.19
285.982	-74.48
286.198	-154.84
286.414	-85.57
286.63	-66.04
286.846	-62.48
287.061	-11.24
287.277	12.07
287.493	21.17
287.709	5.36
287.924	47.18
288.14	40.19
288.356	46.07
288.571	49.9
288.787	64.03
289.003	72.24
289.218	63.73
289.434	56.6
289.65	13.9
289.865	26.29
290.081	10.74
290.296	30.5
290.512	32.19
290.727	40.08
290.943	22.11
291.159	22.05
291.374	13.55
291.59	15.14
291.805	14
292.021	30.98
292.236	19.33
292.451	34.99
292.667	-11.73
292.882	-6.25
293.098	-16.11
293.313	7.81
293.529	18.51
293.744	21
293.959	-4.3
294.175	8.61
294.39	-14.18
294.605	-28.39
294.821	-29.91
295.036	-5.44
295.251	-11.95
295.467	3.5
295.682	8.85
295.897	20.95
296.112	12.46
296.328	13.89
296.543	6.86
296.758	-16.16
296.973	-20.15
297.188	9.15
297.404	11.11
297.619	6.26
297.834	8.92
298.049	-18.05
298.264	-63.72
298.479	-75.16
298.694	-28.61
298.909	10.35
299.125	45.18
299.34	66.57
299.555	60.72
299.77	72.1
299.985	52.59
300.2	45.48
300.415	21.99
300.63	7.86
300.845	-28.97
301.06	-11.22
301.275	-18.56
301.49	0.9
301.704	-39.45
301.919	-9.18
302.134	-9.74
302.349	-16.22
302.564	-21.34
302.779	-12.72
302.994	-17.25
303.209	-8.6
303.423	-19.65
303.638	-5.76
303.853	11.84
304.068	12.52
304.283	1.1
304.497	13.67
304.712	-8.47
304.927	-8.55
305.142	-10.54
305.356	-14.3
305.571	-13.88
305.786	9.32
306	12.56
306.215	16.13
306.43	17.99
306.644	21.66
306.859	18.56
307.074	19.39
307.288	19.18
307.503	22.24
307.717	24.74
307.932	12.22
308.147	6.04
308.361	9.51
308.576	-4.29
308.79	-4.66
309.005	5.51
309.219	-3.44
309.434	-49.59
309.648	-55.16
309.863	-103.54
310.077	-185.48
310.292	-167.89
310.506	-104.78
310.72	-57.48
310.935	-40.59
311.149	-23.68
311.364	9.06
311.578	20.61
311.792	15.23
312.007	18.23
312.221	13.62
312.435	7.18
312.649	-4.73
312.864	-37.9
313.078	-31.54
313.292	0.84
313.507	3.42
313.721	13.64
313.935	30.42
314.149	14.8
314.363	-8.78
314.578	-4.63
314.792	-22.5
315.006	-33.22
315.22	-18.19
315.434	-38.92
315.648	-127.16
315.862	-93.38
316.077	-89.09
316.291	-119.39
316.505	-52.14
316.719	1.59
316.933	-1.57
317.147	18.64
317.361	31.23
317.575	11.49
317.789	-5.63
318.003	-25.01
318.217	-8.29
318.431	0.15
318.645	18.46
318.859	-2.12
319.073	1.45
319.287	-17.5
319.5	-6.99
319.714	1.55
319.928	41.31
320.142	50.93
320.356	38.01
320.57	-5.4
320.784	-38.66
320.997	-73.22
321.211	-58.14
321.425	-94.94
321.639	-40.71
321.853	-40.13
322.066	-30.25
322.28	-27.93
322.494	-27.8
322.707	-20.31
322.921	1.51
323.135	11.37
323.349	23
323.562	36.32
323.776	40.43
323.989	13.49
324.203	10.78
324.417	3.14
324.63	-7.52
324.844	-24.31
325.057	-3.54
325.271	-31.44
325.485	-12.1
325.698	-6.25
325.912	13.07
326.125	11.27
326.339	42.8
326.552	37.5
326.766	18.56
326.979	19.57
327.193	34.89
327.406	8.06
327.619	12.23
327.833	20.71
328.046	12.42
328.26	-0.44
328.473	-18.31
328.686	-26.84
328.9	-23.35
329.113	-17.99
329.326	-17.94
329.54	-6.57
329.753	5.8
329.966	28.64
330.179	32.09
330.393	36.54
330.606	50.73
330.819	39.32
331.032	3.62
331.246	26.14
331.459	8.74
331.672	2.59
331.885	26.38
332.098	45.34
332.311	22.56
332.525	26.48
332.738	29.12
332.951	-3.46
333.164	-9.09
333.377	11.22
333.59	4.54
333.803	-10.06
334.016	2.34
334.229	0.92
334.442	-10.68
334.655	-12.05
334.868	-6.11
335.081	-16.63
335.294	0.82
335.507	4.38
335.72	10.43
335.933	8.63
336.146	26.64
336.359	12.13
336.572	11.83
336.785	12.22
336.997	24.47
337.21	26.94
337.423	44.22
337.636	41.88
337.849	49.84
338.062	6.31
338.274	-26
338.487	-33.61
338.7	-43.89
338.913	-59.74
339.125	-22.68
339.338	-1.86
339.551	-22.59
339.763	7.26
339.976	16.15
340.189	18.09
340.402	-6.23
340.614	18.29
340.827	30.23
341.039	24.04
341.252	13.75
341.465	22.43
341.677	16.08
341.89	-12.21
342.102	9.77
342.315	9.52
342.527	28.23
342.74	14.27
342.952	18.15
343.165	9.89
343.377	13.58
343.59	-15.53
343.802	12.33
344.015	2.36
344.227	-14.34
344.44	0.78
344.652	3.18
344.864	-3.47
345.077	-1.45
345.289	-11.33
345.502	-27.32
345.714	-8.5
345.926	17.8
346.139	23.39
346.351	32.51
346.563	28.36
346.775	26.61
346.988	5.4
347.2	-3.75
347.412	-1.51
347.624	3.18
347.837	-9.14
348.049	10.03
348.261	12.32
348.473	17.57
348.685	43.05
348.897	68.84
349.11	43.53
349.322	34.3
349.534	17.52
349.746	5.42
349.958	-20.5
350.17	-9.36
350.382	-14.47
350.594	-14.93
350.806	-18.5
351.018	2.94
351.23	8.2
351.442	12.67
351.654	13.07
351.866	11.6
352.078	-10.82
352.29	-19.03
352.502	2.55
352.714	-1.52
352.926	5.46
353.138	17.79
353.35	31.41
353.561	19.9
353.773	16.19
353.985	14.22
354.197	19.63
354.409	-11.89
354.621	-11.11
354.832	-9.25
355.044	-10.76
355.256	-14.96
355.468	9.07
355.679	12.21
355.891	24.12
356.103	12.96
356.314	17.83
356.526	8.48
356.738	0.49
356.949	-37.08
357.161	-2.52
357.373	-3.83
357.584	-4.01
357.796	-1.92
358.008	20.51
358.219	4.88
358.431	13.36
358.642	33.68
358.854	40.19
359.065	50.69
359.277	42.41
359.488	24.03
359.7	22.41
359.911	11.07
360.123	-0.44
360.334	8.54
360.546	1.27
360.757	-3.45
360.969	5.72
361.18	13.2
361.391	19.28
361.603	53.44
361.814	39.57
362.025	28.7
362.237	20.47
362.448	8.57
362.659	-18.93
362.871	-24.51
363.082	-16.72
363.293	-24
363.504	-24.84
363.716	-2.06
363.927	25.79
364.138	23.62
364.349	1.68
364.56	5.4
364.772	-7.63
364.983	-68.82
365.194	-57.76
365.405	-31.46
365.616	-6.65
365.827	0.98
366.038	27.72
366.25	21.9
366.461	3.42
366.672	-6.58
366.883	5.12
367.094	1.72
367.305	11.32
367.516	29.99
367.727	39.36
367.938	23.89
368.149	12.92
368.36	8.37
368.571	-4.82
368.781	-26.07
368.992	-14.21
369.203	2.73
369.414	-4.56
369.625	3.15
369.836	-8.1
370.047	-3.79
370.258	3.59
370.468	4.46
370.679	6.71
370.89	16.04
371.101	8.17
371.312	8.22
371.522	14.48
371.733	8.29
371.944	14.09
372.155	31.42
372.365	23.11
372.576	27.03
372.787	28.23
372.997	32.18
373.208	28.35
373.419	34.89
373.629	27.17
373.84	41.9
374.05	23.72
374.261	31.2
374.472	27.17
374.682	21.8
374.893	15.92
375.103	14.36
375.314	5.03
375.524	4.37
375.735	14.18
375.945	27.97
376.156	32.87
376.366	34.51
376.577	39.34
376.787	22.65
376.997	-0.97
377.208	-3.99
377.418	-2.7
377.629	4.95
377.839	21.39
378.049	28.03
378.26	30.73
378.47	23.55
378.68	20.06
378.89	7.01
379.101	-4.34
379.311	-3.44
379.521	5.35
379.732	14.59
379.942	23.95
380.152	30
380.362	26.53
380.572	22.79
380.783	8.28
380.993	1.02
381.203	4.78
381.413	3.54
381.623	0.06
381.833	4.98
382.043	11.28
382.253	11.09
382.463	19.31
382.674	20.22
382.884	16.62
383.094	13.16
383.304	4.12
383.514	0.98
383.724	4.77
383.934	6.33
384.144	11.07
384.353	16
384.563	15.13
384.773	16.8
384.983	6.32
385.193	5.78
385.403	11.61
385.613	13.18
385.823	11.79
386.033	20.47
386.242	16.37
386.452	15.7
386.662	12.94
386.872	10.56
387.082	9.02
387.291	6.76
387.501	8.34
387.711	11.04
387.921	12.4
388.13	10.93
388.34	11.28
388.55	7.78
388.759	-0.74
388.969	-0.02
389.179	4.53
389.388	6.7
389.598	7.43
389.807	13.3
390.017	11.58
390.227	8.57
390.436	6.85
390.646	5.2
390.855	2.33
391.065	1.9
391.274	4.19
391.484	5.96
391.693	6.11
391.903	6.51
392.112	8.01
392.322	6.78
392.531	6.33
392.74	7.74
392.95	6.32
393.159	5.84
393.369	5.78
393.578	6.63
393.787	5.96
393.997	8.15
394.206	7.82
394.415	9.31
394.625	9.49
394.834	9.3
395.043	8.31
395.252	8.51
395.462	6.98
395.671	6.28
395.88	7.49
396.089	7.72
396.298	7.78
396.508	8.23
396.717	7.86
396.926	7.08
397.135	6.92
397.344	6.96
397.553	7.2
397.762	7.17
397.971	6.89
398.181	6.86
398.39	6.62
398.599	6.22
398.808	6.26
399.017	6.12
399.226	6.11
399.435	6.53
399.644	6.9
399.853	6.78
400.062	6.92
400.27	6.93
400.479	6.17
400.688	5.87
400.897	6.01
401.106	5.95
401.315	5.96
401.524	6.17
401.733	6.2
401.941	6.32
402.15	6.15
402.359	5.99
402.568	5.98
402.777	6.13
402.985	5.84
403.194	6.03
403.403	6.13
403.612	6.29
403.82	6.26
404.029	6.23
404.238	6.22
404.446	6.37
404.655	6.45
404.864	6.28
405.072	6.32
405.281	6.28
405.489	6.23
405.698	6.17
405.906	6.08
406.115	5.83
406.324	6.06
406.532	5.82
406.741	5.82
406.949	5.91
407.158	6.23
407.366	6.01
407.574	6.15
407.783	5.98
407.991	5.89
408.2	5.85
408.408	5.8
408.617	5.87
408.825	6.02
409.033	6.02
409.242	6.07
409.45	6.03
409.658	5.82
409.867	5.74
410.075	5.78
410.283	5.72
410.491	5.79
410.7	5.98
410.908	5.94
411.116	6.05
411.324	5.96
411.533	5.88
411.741	5.8
411.949	5.85
412.157	5.75
412.365	5.87
412.573	5.84
412.781	5.72
412.99	5.74
413.198	5.85
413.406	5.82
413.614	5.81
413.822	5.89
414.03	5.82
414.238	5.66
414.446	5.6
414.654	5.63
414.862	5.56
415.07	5.48
415.278	5.47
415.486	5.32
415.694	5.27
415.902	5.2
416.109	5.23
416.317	5.29
416.525	5.42
416.733	5.37
416.941	5.61
417.149	5.56
417.357	5.5
417.564	5.42
417.772	5.36
417.98	5.19
418.188	5.17
418.395	5.12
418.603	5.31
418.811	5.38
419.019	5.33
419.226	5.34
419.434	5.42
419.642	5.21
419.849	5.43
420.057	5.32
420.265	5.39
420.472	5.11
420.68	5.16
420.887	4.92
421.095	4.98
421.302	4.9
421.51	4.98
421.717	5.05
421.925	4.97
422.132	5.13
422.34	5.08
422.547	5.12
422.755	5.06
422.962	5.13
423.17	5.04
423.377	5.1
423.585	5.03
423.792	4.98
423.999	5
424.207	4.77
424.414	4.62
424.621	4.79
424.829	4.85
425.036	4.98
425.243	5.16
425.451	5.42
425.658	5.37
425.865	5.22
426.072	5.03
426.28	4.88
426.487	4.62
426.694	4.64
426.901	4.66
427.108	4.84
427.315	5
427.523	5.09
427.73	5
427.937	5.13
428.144	5.1
428.351	5.17
428.558	5.2
428.765	5.21
428.972	5.04
429.179	4.96
429.386	4.94
429.593	4.96
429.8	4.95
430.007	5
430.214	4.9
430.421	4.96
430.628	4.9
430.835	5.13
431.042	5.08
431.249	5.18
431.456	5.05
431.662	5.21
431.869	5.14
432.076	5.26
432.283	5.31
432.49	5.33
432.697	5.25
432.903	5.25
433.11	5.22
433.317	5.12
433.524	5.26
433.73	5.35
433.937	5.24
434.144	5.24
434.35	5.32
434.557	5.23
434.764	5.08
434.97	5.16
435.177	5.13
435.384	4.95
435.59	5.01
435.797	5.15
436.003	5.12
436.21	5.04
436.416	5.12
436.623	5.04
436.829	4.89
437.036	4.78
437.242	4.83
437.449	4.98
437.655	5.04
437.862	5.18
438.068	5.47
438.275	5.62
438.481	5.59
438.687	5.54
438.894	5.55
439.1	5.26
439.307	5.16
439.513	5.14
439.719	5.22
439.926	5.18
440.132	5.25
440.338	5.31
440.544	5.35
440.751	5.33
440.957	5.3
441.163	5.4
441.369	5.41
441.575	5.25
441.782	5.24
441.988	5.21
442.194	4.97
442.4	4.92
442.606	4.97
442.812	4.95
443.018	5.08
443.224	5.23
443.431	5.26
443.637	5.29
443.843	5.27
444.049	5.12
444.255	5.19
444.461	5.21
444.667	5.16
444.873	5.22
445.079	5.16
445.284	5.1
445.49	5.1
445.696	5.2
445.902	5.15
446.108	5.27
446.314	5.22
446.52	5.22
446.726	5.17
446.931	5.22
447.137	5.19
447.343	5.26
447.549	5.2
447.755	5.29
447.96	5.26
448.166	5.3
448.372	5.34
448.578	5.33
448.783	5.46
448.989	5.42
449.195	5.49
449.4	5.52
449.606	5.71
449.812	5.65
450.017	5.83
450.223	5.67
450.428	5.69
450.634	5.64
450.84	5.49
451.045	5.41
451.251	5.57
451.456	5.61
451.662	5.59
451.867	5.64
452.073	5.75
452.278	5.76
452.483	5.78
452.689	5.81
452.894	5.87
453.1	5.86
453.305	5.83
453.51	5.84
453.716	5.9
453.921	5.9
454.127	5.88
454.332	5.81
454.537	5.83
454.742	5.64
454.948	5.65
455.153	5.59
455.358	5.61
455.563	5.65
455.769	5.74
455.974	5.78
456.179	5.74
456.384	5.72
456.589	5.61
456.795	5.63
457	5.56
457.205	5.66
457.41	5.7
457.615	5.71
457.82	5.81
458.025	5.82
458.23	5.76
458.435	5.79
458.64	5.77
458.845	5.69
459.05	5.64
459.255	5.65
459.46	5.69
459.665	5.77
459.87	5.79
460.075	5.94
460.28	6.04
460.485	6.08
460.69	6.06
460.895	5.97
461.099	5.85
461.304	5.81
461.509	5.81
461.714	5.87
461.919	6.02
462.123	6.08
462.328	6.1
462.533	6.12
462.738	6.16
462.942	6.19
463.147	6.25
463.352	6.35
463.556	6.38
463.761	6.32
463.966	6.25
464.17	6.24
464.375	6.2
464.58	6.17
464.784	6.22
464.989	6.29
465.193	6.25
465.398	6.36
465.602	6.41
465.807	6.52
466.011	6.49
466.216	6.56
466.42	6.52
466.625	6.57
466.829	6.49
467.034	6.51
467.238	6.56
467.443	6.49
467.647	6.38
467.851	6.31
468.056	6.28
468.26	6.26
468.464	6.22
468.669	6.31
468.873	6.32
469.077	6.29
469.282	6.3
469.486	6.32
469.69	6.22
469.894	6.25
470.099	6.35
470.303	6.29
470.507	6.28
470.711	6.32
470.915	6.32
471.119	6.23
471.324	6.34
471.528	6.44
471.732	6.57
471.936	6.59
472.14	6.67
472.344	6.61
472.548	6.59
472.752	6.48
472.956	6.49
473.16	6.55
473.364	6.55
473.568	6.5
473.772	6.41
473.976	6.4
474.18	6.37
474.384	6.4
474.588	6.48
474.792	6.54
474.995	6.52
475.199	6.41
475.403	6.39
475.607	6.3
475.811	6.33
476.015	6.32
476.218	6.38
476.422	6.31
476.626	6.37
476.83	6.37
477.033	6.37
477.237	6.48
477.441	6.63
477.644	6.68
477.848	6.75
478.052	6.77
478.255	6.75
478.459	6.78
478.663	6.66
478.866	6.55
479.07	6.6
479.273	6.52
479.477	6.47
479.681	6.56
479.884	6.64
480.088	6.54
480.291	6.58
480.495	6.5
480.698	6.51
480.901	6.47
481.105	6.55
481.308	6.46
481.512	6.5
481.715	6.5
481.919	6.53
482.122	6.52
482.325	6.62
482.529	6.61
482.732	6.59
482.935	6.58
483.138	6.65
483.342	6.59
483.545	6.64
483.748	6.6
483.952	6.63
484.155	6.55
484.358	6.53
484.561	6.45
484.764	6.43
484.967	6.36
485.171	6.28
485.374	6.33
485.577	6.36
485.78	6.47
485.983	6.49
486.186	6.54
486.389	6.48
486.592	6.51
486.795	6.4
486.998	6.35
487.201	6.38
487.404	6.4
487.607	6.46
487.81	6.46
488.013	6.44
488.216	6.4
488.419	6.28
488.622	6.19
488.825	6.16
489.028	6.21
489.231	6.27
489.433	6.42
489.636	6.51
489.839	6.49
490.042	6.51
490.245	6.49
490.447	6.47
490.65	6.4
490.853	6.48
491.056	6.45
491.258	6.41
491.461	6.44
491.664	6.34
491.866	6.28
492.069	6.32
492.272	6.29
492.474	6.17
492.677	6.19
492.879	6.16
493.082	6.16
493.285	6.14
493.487	6.2
493.69	6.18
493.892	6.28
494.095	6.27
494.297	6.34
494.5	6.35
494.702	6.37
494.905	6.29
495.107	6.23
495.309	6.15
495.512	6.12
495.714	6.12
495.917	6.09
496.119	6.1
496.321	6.12
496.524	6.15
496.726	6.18
496.928	6.23
497.13	6.25
497.333	6.25
497.535	6.34
497.737	6.31
497.939	6.34
498.142	6.36
498.344	6.38
498.546	6.34
498.748	6.35
498.95	6.33
499.152	6.25
499.355	6.23
499.557	6.2
499.759	6.24
499.961	6.24
500.163	6.3
500.365	6.41
500.567	6.44
500.769	6.4
500.971	6.34
501.173	6.35
501.375	6.23
501.577	6.15
501.779	6.19
501.981	6.31
502.183	6.31
502.385	6.27
502.587	6.23
502.788	6.16
502.99	6.14
503.192	6.13
503.394	6.2
503.596	6.18
503.798	6.22
503.999	6.16
504.201	6.13
504.403	6.14
504.605	6.18
504.806	6.12
505.008	6.15
505.21	6.09
505.411	6
505.613	6.04
505.815	6.06
506.016	6.02
506.218	6.07
506.42	6.15
506.621	6.13
506.823	6.16
507.024	6.14
507.226	6.23
507.427	6.17
507.629	6.16
507.83	6.14
508.032	6.18
508.233	6.17
508.435	6.17
508.636	6.21
508.838	6.27
509.039	6.22
509.24	6.14
509.442	6.19
509.643	6.13
509.845	6.12
510.046	6.17
510.247	6.25
510.448	6.19
510.65	6.24
510.851	6.15
511.052	6.11
511.254	6.05
511.455	6.07
511.656	6.06
511.857	6.08
512.058	6.08
512.26	6.05
512.461	6.03
512.662	6.04
512.863	6.06
513.064	6.13
513.265	6.14
513.466	6.17
513.667	6.21
513.868	6.18
514.069	6.17
514.27	6.22
514.471	6.22
514.672	6.17
514.873	6.1
515.074	6.06
515.275	6.01
515.476	5.99
515.677	6.02
515.878	6.11
516.079	6.13
516.28	6.1
516.481	6.09
516.682	6.06
516.882	6.09
517.083	6.08
517.284	6.13
517.485	6.14
517.686	6.19
517.886	6.16
518.087	6.12
518.288	6.13
518.488	6.13
518.689	6.11
518.89	6.17
519.091	6.16
519.291	6.13
519.492	6.14
519.692	6.15
519.893	6.15
520.094	6.16
520.294	6.17
520.495	6.18
520.695	6.14
520.896	6.1
521.096	6.13
521.297	6.19
521.497	6.18
521.698	6.17
521.898	6.11
522.099	6.1
522.299	6.06
522.499	6.14
522.7	6.15
522.9	6.26
523.101	6.24
523.301	6.25
523.501	6.15
523.702	6.16
523.902	6.12
524.102	6.18
524.302	6.14
524.503	6.17
524.703	6.16
524.903	6.17
525.103	6.16
525.304	6.18
525.504	6.25
525.704	6.25
525.904	6.3
526.104	6.26
526.304	6.26
526.504	6.23
526.705	6.27
526.905	6.21
527.105	6.26
527.305	6.31
527.505	6.33
527.705	6.35
527.905	6.37
528.105	6.35
528.305	6.38
528.505	6.3
528.705	6.35
528.905	6.3
529.105	6.31
529.304	6.23
529.504	6.28
529.704	6.23
529.904	6.27
530.104	6.26
530.304	6.31
530.503	6.3
530.703	6.25
530.903	6.26
531.103	6.24
531.303	6.26
531.502	6.26
531.702	6.27
531.902	6.31
532.101	6.36
532.301	6.29
532.501	6.35
532.7	6.38
532.9	6.38
533.1	6.38
533.299	6.41
533.499	6.39
533.698	6.42
533.898	6.39
534.097	6.39
534.297	6.39
534.496	6.39
534.696	6.4
534.895	6.46
535.095	6.5
535.294	6.52
535.494	6.55
535.693	6.59
535.892	6.58
536.092	6.58
536.291	6.57
536.491	6.61
536.69	6.55
536.889	6.53
537.088	6.54
537.288	6.56
537.487	6.56
537.686	6.58
537.886	6.63
538.085	6.68
538.284	6.74
538.483	6.73
538.682	6.83
538.882	6.83
539.081	6.78
539.28	6.75
539.479	6.76
539.678	6.79
539.877	6.81
540.076	6.88
540.275	6.9
540.474	6.85
540.673	6.82
540.872	6.78
541.071	6.77
541.27	6.79
541.469	6.86
541.668	6.84
541.867	6.93
542.066	6.99
542.265	7.06
542.464	7.16
542.663	7.23
542.862	7.3
543.06	7.29
543.259	7.36
543.458	7.3
543.657	7.38
543.856	7.37
544.054	7.43
544.253	7.37
544.452	7.43
544.651	7.45
544.849	7.47
545.048	7.42
545.247	7.51
545.445	7.52
545.644	7.47
545.843	7.47
546.041	7.52
546.24	7.53
546.438	7.61
546.637	7.67
546.836	7.72
547.034	7.77
547.233	7.81
547.431	7.89
547.63	7.98
547.828	8.03
548.027	8.09
548.225	8.05
548.423	7.97
548.622	7.91
548.82	7.89
549.019	7.91
549.217	7.94
549.415	7.99
549.614	8.12
549.812	8.15
550.01	8.22
550.209	8.31
550.407	8.37
550.605	8.35
550.803	8.42
551.002	8.45
551.2	8.49
551.398	8.56
551.596	8.67
551.794	8.74
551.993	8.75
552.191	8.82
552.389	8.89
552.587	8.91
552.785	8.93
552.983	9.04
553.181	9.05
553.379	9.07
553.577	9.16
553.775	9.22
553.973	9.21
554.171	9.32
554.369	9.37
554.567	9.42
554.765	9.5
554.963	9.6
555.161	9.68
555.359	9.78
555.557	9.78
555.755	9.8
555.952	9.8
556.15	9.88
556.348	9.94
556.546	10.07
556.744	10.18
556.941	10.29
557.139	10.26
557.337	10.28
557.535	10.27
557.732	10.31
557.93	10.41
558.128	10.52
558.325	10.56
558.523	10.64
558.721	10.68
558.918	10.72
559.116	10.81
559.313	10.9
559.511	11.02
559.708	11.18
559.906	11.25
560.104	11.23
560.301	11.37
560.498	11.4
560.696	11.38
560.893	11.51
561.091	11.65
561.288	11.7
561.486	11.7
561.683	11.78
561.88	11.71
562.078	11.64
562.275	11.67
562.473	11.78
562.67	11.88
562.867	12.02
563.064	12.2
563.262	12.22
563.459	12.32
563.656	12.35
563.853	12.33
564.051	12.41
564.248	12.51
564.445	12.53
564.642	12.56
564.839	12.69
565.036	12.69
565.234	12.69
565.431	12.73
565.628	12.75
565.825	12.72
566.022	12.85
566.219	12.97
566.416	12.99
566.613	13.07
566.81	13.23
567.007	13.21
567.204	13.25
567.401	13.39
567.598	13.44
567.795	13.39
567.991	13.38
568.188	13.37
568.385	13.3
568.582	13.32
568.779	13.34
568.976	13.45
569.172	13.51
569.369	13.57
569.566	13.65
569.763	13.71
569.96	13.76
570.156	13.75
570.353	13.84
570.55	13.86
570.746	13.89
570.943	13.88
571.14	13.85
571.336	13.82
571.533	13.81
571.729	13.82
571.926	13.89
572.123	13.91
572.319	13.99
572.516	13.98
572.712	14.04
572.909	13.97
573.105	14.04
573.302	13.99
573.498	13.99
573.695	13.91
573.891	13.96
574.087	13.93
574.284	13.95
574.48	13.96
574.677	14.03
574.873	14.01
575.069	14.01
575.266	13.89
575.462	13.9
575.658	13.83
575.854	13.86
576.051	13.82
576.247	13.94
576.443	13.96
576.639	14.02
576.835	13.97
577.032	13.94
577.228	13.91
577.424	13.88
577.62	13.79
577.816	13.76
578.012	13.81
578.208	13.82
578.404	13.79
578.6	13.88
578.796	13.84
578.993	13.82
579.189	13.76
579.384	13.78
579.58	13.69
579.776	13.73
579.972	13.66
580.168	13.63
580.364	13.61
580.56	13.55
580.756	13.41
580.952	13.45
581.148	13.39
581.343	13.36
581.539	13.4
581.735	13.42
581.931	13.37
582.127	13.39
582.322	13.32
582.518	13.28
582.714	13.27
582.909	13.25
583.105	13.21
583.301	13.22
583.496	13.24
583.692	13.25
583.888	13.23
584.083	13.2
584.279	13.15
584.474	13.09
584.67	13.03
584.866	13.03
585.061	13.05
585.257	13.04
585.452	12.96
585.648	12.98
585.843	12.92
586.039	12.89
586.234	12.94
586.429	12.92
586.625	12.96
586.82	12.99
587.015	13.04
587.211	12.93
587.406	12.94
587.601	12.97
587.797	12.9
587.992	12.75
588.187	12.74
588.383	12.76
588.578	12.7
588.773	12.73
588.968	12.76
589.163	12.85
589.359	12.92
589.554	12.9
589.749	12.83
589.944	12.89
590.139	12.8
590.334	12.75
590.529	12.73
590.724	12.83
590.919	12.81
591.114	12.95
591.309	12.97
591.504	13.01
591.699	12.98
591.894	13.02
592.089	12.99
592.284	12.97
592.479	13.02
592.674	13.1
592.869	13.14
593.064	13.14
593.259	13.18
593.454	13.13
593.648	13.22
593.843	13.15
594.038	13.21
594.233	13.25
594.428	13.36
594.622	13.34
594.817	13.42
595.012	13.44
595.206	13.58
595.401	13.67
595.596	13.61
595.79	13.69
595.985	13.76
596.18	13.75
596.374	13.66
596.569	13.83
596.763	13.94
596.958	14.03
597.153	14
597.347	14.13
597.542	14.14
597.736	14.12
597.931	14.18
598.125	14.27
598.319	14.28
598.514	14.26
598.708	14.28
598.903	14.19
599.097	14.23
599.291	14.34
599.486	14.5
599.68	14.57
599.874	14.7
600.069	14.71
600.263	14.72
600.457	14.74
600.651	14.74
600.846	14.82
601.04	14.83
601.234	14.79
601.428	14.73
601.622	14.81
601.817	14.71
602.011	14.78
602.205	14.89
602.399	14.94
602.593	14.95
602.787	14.95
602.981	14.97
603.175	14.96
603.369	14.98
603.563	15.05
603.757	15.03
603.951	14.97
604.145	14.88
604.339	14.81
604.533	14.64
604.727	14.69
604.921	14.79
605.115	14.79
605.309	14.74
605.502	14.79
605.696	14.72
605.89	14.62
606.084	14.58
606.278	14.61
606.471	14.52
606.665	14.49
606.859	14.4
607.053	14.35
607.246	14.23
607.44	14.27
607.634	14.2
607.827	14.13
608.021	14.07
608.214	14.06
608.408	14.04
608.602	14.09
608.795	14.08
608.989	14.05
609.182	14.03
609.376	14.01
609.569	13.89
609.763	13.76
609.956	13.77
610.15	13.63
610.343	13.52
610.537	13.48
610.73	13.52
610.923	13.45
611.117	13.52
611.31	13.43
611.504	13.37
611.697	13.35
611.89	13.21
612.083	13.17
612.277	13.04
612.47	12.99
612.663	12.86
612.856	12.88
613.05	12.79
613.243	12.82
613.436	12.72
613.629	12.7
613.822	12.67
614.015	12.56
614.209	12.41
614.402	12.41
614.595	12.3
614.788	12.22
614.981	12.17
615.174	12.2
615.367	12.06
615.56	12.03
615.753	12.04
615.946	12.02
616.139	12
616.332	11.97
616.525	11.87
616.718	11.7
616.911	11.67
617.103	11.55
617.296	11.62
617.489	11.71
617.682	11.72
617.875	11.7
618.067	11.72
618.26	11.62
618.453	11.47
618.646	11.43
618.838	11.3
619.031	11.17
619.224	11.1
619.417	11.21
619.609	11.24
619.802	11.26
619.994	11.25
620.187	11.28
620.38	11.16
620.572	11.04
620.765	11.05
620.957	11.05
621.15	10.96
621.342	10.96
621.535	10.99
621.727	10.91
621.92	10.91
622.112	10.95
622.305	10.93
622.497	10.93
622.69	10.85
622.882	10.9
623.074	10.88
623.267	10.78
623.459	10.76
623.651	10.86
623.844	10.84
624.036	10.88
624.228	10.95
624.42	10.86
624.613	10.72
624.805	10.71
624.997	10.67
625.189	10.56
625.381	10.58
625.574	10.6
625.766	10.53
625.958	10.42
626.15	10.43
626.342	10.36
626.534	10.37
626.726	10.31
626.918	10.29
627.11	10.27
627.302	10.28
627.494	10.21
627.686	10.25
627.878	10.23
628.07	10.28
628.262	10.28
628.454	10.29
628.646	10.24
628.838	10.3
629.029	10.2
629.221	10.17
629.413	10.11
629.605	10.04
629.797	10
629.989	10.02
630.18	9.93
630.372	9.87
630.564	9.89
630.755	9.78
630.947	9.77
631.139	9.79
631.33	9.81
631.522	9.82
631.714	9.88
631.905	9.8
632.097	9.77
632.289	9.8
632.48	9.71
632.672	9.66
632.863	9.67
633.055	9.66
633.246	9.62
633.438	9.59
633.629	9.58
633.821	9.57
634.012	9.57
634.203	9.49
634.395	9.54
634.586	9.54
634.777	9.46
634.969	9.42
635.16	9.46
635.351	9.43
635.543	9.41
635.734	9.5
635.925	9.48
636.117	9.55
636.308	9.62
636.499	9.54
636.69	9.51
636.881	9.56
637.073	9.46
637.264	9.37
637.455	9.4
637.646	9.34
637.837	9.3
638.028	9.26
638.219	9.26
638.41	9.28
638.601	9.35
638.792	9.35
638.983	9.33
639.174	9.29
639.365	9.27
639.556	9.24
639.747	9.26
639.938	9.34
640.129	9.37
640.32	9.39
640.511	9.41
640.701	9.4
640.892	9.38
641.083	9.41
641.274	9.33
641.465	9.24
641.655	9.25
641.846	9.19
642.037	9.14
642.228	9.15
642.418	9.13
642.609	9.12
642.8	9.14
642.99	9.09
643.181	9.06
643.372	9.03
643.562	8.93
643.753	8.89
643.943	8.89
644.134	8.91
644.324	8.98
644.515	9.01
644.705	9
644.896	9.02
645.086	9.06
645.277	9.09
645.467	9.11
645.658	9.06
645.848	8.95
646.038	8.88
646.229	8.83
646.419	8.84
646.61	8.99
646.8	9.1
646.99	9.09
647.18	9.06
647.371	8.96
647.561	8.85
647.751	8.83
647.941	8.81
648.132	8.78
648.322	8.82
648.512	8.85
648.702	8.91
648.892	8.95
649.082	8.92
649.272	8.93
649.462	8.86
649.653	8.8
649.843	8.83
650.033	8.84
650.223	8.73
650.413	8.79
650.603	8.85
650.793	8.76
650.983	8.76
651.172	8.83
651.362	8.77
651.552	8.67
651.742	8.62
651.932	8.65
652.122	8.58
652.312	8.55
652.502	8.53
652.691	8.47
652.881	8.46
653.071	8.51
653.261	8.41
653.45	8.31
653.64	8.35
653.83	8.28
654.019	8.12
654.209	8.19
654.399	8.15
654.588	8.09
654.778	8.05
654.968	8
655.157	7.93
655.347	7.93
655.536	7.85
655.726	7.68
655.915	7.68
656.105	7.5
656.294	7.41
656.484	7.36
656.673	7.34
656.863	7.3
657.052	7.32
657.241	7.22
657.431	7.23
657.62	7.21
657.809	7.09
657.999	7.06
658.188	7.01
658.377	6.78
658.567	6.7
658.756	6.65
658.945	6.51
659.134	6.42
659.324	6.49
659.513	6.38
659.702	6.33
659.891	6.31
660.08	6.22
660.269	6.02
660.458	5.97
660.648	5.86
660.837	5.72
661.026	5.65
661.215	5.59
661.404	5.59
661.593	5.51
661.782	5.52
661.971	5.53
662.16	5.65
662.349	5.51
662.538	5.44
662.726	5.44
662.915	5.36
663.104	5.14
663.293	5.13
663.482	5.12
663.671	5.07
663.86	5.06
664.048	5.13
664.237	5.18
664.426	5.06
664.615	5
664.803	5.02
664.992	4.94
665.181	4.84
665.369	4.89
665.558	4.88
665.747	4.89
665.935	4.94
666.124	4.98
666.312	5
666.501	5.12
666.69	5.09
666.878	5.07
667.067	5.03
667.255	5.13
667.444	5.1
667.632	5.04
667.82	5.09
668.009	5.1
668.197	5.08
668.386	5.02
668.574	5.08
668.762	5.11
668.951	5.19
669.139	5.1
669.327	5.1
669.516	5.06
669.704	5.08
669.892	5.07
670.08	5.1
670.269	5.11
670.457	5.18
670.645	5.08
670.833	5.09
671.021	5.19
671.21	5.27
671.398	5.27
671.586	5.34
671.774	5.29
671.962	5.32
672.15	5.42
672.338	5.56
672.526	5.69
672.714	5.96
672.902	5.9
673.09	5.71
673.278	5.64
673.466	5.7
673.654	5.65
673.842	5.8
674.03	6
674.218	5.93
674.405	5.94
674.593	5.96
674.781	5.89
674.969	5.83
675.157	6.04
675.344	5.92
675.532	5.95
675.72	6.11
675.908	6.09
676.095	6.04
676.283	6.13
676.471	6.12
676.658	6.05
676.846	6.19
677.033	6.35
677.221	6.43
677.409	6.47
677.596	6.53
677.784	6.55
677.971	6.49
678.159	6.58
678.346	6.63
678.534	6.71
678.721	6.8
678.909	6.77
679.096	6.77
679.283	6.73
679.471	6.68
679.658	6.68
679.846	6.72
680.033	6.82
680.22	6.96
680.408	7.02
680.595	7
680.782	7.12
680.969	7.04
681.157	7.02
681.344	7.09
681.531	7.15
681.718	7.05
681.905	7.15
682.093	7.21
682.28	7.24
682.467	7.36
682.654	7.42
682.841	7.37
683.028	7.35
683.215	7.48
683.402	7.43
683.589	7.55
683.776	7.68
683.963	7.83
684.15	7.88
684.337	7.97
684.524	8.21
684.711	8.28
684.898	8.32
685.085	8.28
685.271	8.31
685.458	8.31
685.645	8.27
685.832	8.22
686.019	8.21
686.205	8.43
686.392	8.46
686.579	8.72
686.766	9.13
686.952	9.36
687.139	9.55
687.326	9.62
687.512	9.65
687.699	9.66
687.886	9.91
688.072	9.98
688.259	10.14
688.445	10.4
688.632	10.51
688.818	10.69
689.005	10.84
689.191	11.05
689.378	11.25
689.564	11.55
689.751	11.78
689.937	12.05
690.124	12.38
690.31	12.54
690.496	12.89
690.683	13.1
690.869	13.36
691.055	13.7
691.242	14.02
691.428	14.23
691.614	14.54
691.8	14.91
691.987	15.26
692.173	15.82
692.359	16.21
692.545	16.62
692.731	17.03
692.918	17.35
693.104	17.62
693.29	17.87
693.476	18.43
693.662	19.01
693.848	19.52
694.034	20.05
694.22	20.93
694.406	21.23
694.592	21.43
694.778	21.88
694.964	22.39
695.15	22.7
695.336	23.17
695.522	23.85
695.708	24.45
695.894	24.92
696.08	25.57
696.265	26.22
696.451	26.62
696.637	27.18
696.823	27.61
697.009	27.96
697.194	28.3
697.38	28.91
697.566	29.24
697.751	29.85
697.937	30.31
698.123	30.95
698.308	31.5
698.494	32.15
698.68	32.68
698.865	33.22
699.051	33.67
699.236	34.17
699.422	34.75
699.607	35.36
699.793	36
699.978	36.71
700.164	37.37
700.349	37.91
700.535	38.34
700.72	38.81
700.906	39.29
701.091	39.59
701.276	40.3
701.462	40.61
701.647	41.15
701.832	41.57
702.018	42.06
702.203	42.27
702.388	42.98
702.573	43.53
702.759	44.26
702.944	44.61
703.129	45.1
703.314	45.36
703.499	45.77
703.684	45.92
703.87	46.56
704.055	46.99
704.24	47.65
704.425	47.86
704.61	48.67
704.795	48.93
704.98	49.51
705.165	49.99
705.35	50.57
705.535	50.44
705.72	50.91
705.905	50.84
706.09	51
706.275	51.51
706.459	52.05
706.644	52.51
706.829	53.19
707.014	53.63
707.199	53.91
707.384	54.16
707.568	54.45
707.753	54.82
707.938	54.84
708.123	55.27
708.307	55.46
708.492	55.92
708.677	56.32
708.861	56.84
709.046	56.83
709.231	57.04
709.415	57
709.6	56.65
709.784	57.09
709.969	57.56
710.153	57.98
710.338	58.48
710.522	58.94
710.707	58.88
710.891	58.94
711.076	59.22
711.26	59.36
711.445	59.92
711.629	60.35
711.813	60.69
711.998	60.75
712.182	60.77
712.366	60.59
712.551	60.11
712.735	60.05
712.919	60.19
713.103	60.46
713.288	61.11
713.472	61.48
713.656	61.63
713.84	62.25
714.024	62.37
714.208	62.44
714.393	62.68
714.577	62.86
714.761	62.39
714.945	62.85
715.129	62.92
715.313	63.46
715.497	63.82
715.681	64.4
715.865	64.29
716.049	64.33
716.233	63.91
716.417	64.01
716.601	64.12
716.785	64.41
716.968	64.35
717.152	64.84
717.336	64.88
717.52	65.01
717.704	64.88
717.888	65.02
718.071	65.27
718.255	65.42
718.439	65.57
718.622	65.64
718.806	66.04
718.99	66.18
719.174	66.13
719.357	66.27
719.541	66.98
719.724	66.64
719.908	66.67
720.092	66.77
720.275	67.26
720.459	67.3
720.642	67.79
720.826	68.12
721.009	68.33
721.193	67.98
721.376	67.89
721.559	68.17
721.743	68.32
721.926	68.37
722.11	68.73
722.293	68.78
722.476	69.13
722.66	69.24
722.843	69.35
723.026	69.39
723.21	69.53
723.393	68.93
723.576	69.01
723.759	69.02
723.942	68.91
724.126	68.81
724.309	69.2
724.492	69.88
724.675	70.12
724.858	70.26
725.041	70.23
725.224	70.24
725.407	69.49
725.59	70.26
725.774	70.7
725.957	71.24
726.14	71.79
726.322	71.76
726.505	71.07
726.688	70.75
726.871	70.83
727.054	70.77
727.237	71.51
727.42	72.29
727.603	72.77
727.786	73.03
727.968	73.53
728.151	73.77
728.334	73.43
728.517	73.64
728.699	73.54
728.882	73.42
729.065	73.44
729.248	73.68
729.43	74.26
729.613	74.92
729.796	74.95
729.978	75.05
730.161	75.43
730.343	75.61
730.526	75.41
730.708	75.54
730.891	75.5
731.073	75.61
731.256	75.55
731.438	75.76
731.621	75.59
731.803	76.05
731.986	76.56
732.168	76.98
732.35	77
732.533	78.22
732.715	78.79
732.898	78.46
733.08	78.53
733.262	79.14
733.444	78.41
733.627	78.23
733.809	78.52
733.991	78.62
734.173	78.67
734.355	78.4
734.538	77.65
734.72	77.94
734.902	77.87
735.084	77.93
735.266	78.57
735.448	80.14
735.63	80.06
735.812	80.1
735.994	78.84
736.176	78.79
736.358	79
736.54	79.14
736.722	78.53
736.904	80.47
737.086	81.58
737.268	80.68
737.45	80.69
737.632	81.63
737.814	81.46
737.995	81.35
738.177	81.73
738.359	81.54
738.541	81.31
738.723	81.31
738.904	80.4
739.086	80.64
739.268	81.54
739.449	82.38
739.631	82.53
739.813	83.6
739.994	83.82
740.176	83.71
740.358	82.77
740.539	83.17
740.721	82.79
740.902	82.44
741.084	82.68
741.265	82.82
741.447	81.97
741.628	81.98
741.81	81.96
741.991	82.08
742.172	81.95
742.354	82.41
742.535	82.68
742.717	83.3
742.898	83.59
743.079	84.74
743.261	85.29
743.442	85.07
743.623	84.97
743.804	84.69
743.986	84.47
744.167	83.98
744.348	84.14
744.529	83.66
744.71	83.73
744.891	84.11
745.073	84.42
745.254	85.25
745.435	86.05
745.616	86.06
745.797	85.94
745.978	85.8
746.159	84.83
746.34	85.11
746.521	84.72
746.702	84.52
746.883	85.89
747.064	85.58
747.245	85.49
747.426	86.2
747.606	85.43
747.787	84.21
747.968	85.28
748.149	84.35
748.33	83.9
748.51	84.21
748.691	82.78
748.872	81.62
749.053	82.67
749.233	83.26
749.414	83.71
749.595	84.98
749.775	85.86
749.956	84.41
750.137	83.38
750.317	81.72
750.498	81.86
750.678	82.76
750.859	85.01
751.04	85.86
751.22	86.78
751.4	86.63
751.581	85.99
751.761	85.09
751.942	84.77
752.122	85.27
752.303	85.3
752.483	86.12
752.663	86.55
752.844	86.46
753.024	87.5
753.204	88.36
753.385	87.05
753.565	86.7
753.745	85.78
753.925	85.59
754.106	85.61
754.286	85.83
754.466	85.66
754.646	87.49
754.826	86.03
755.006	86.16
755.187	86.49
755.367	86.41
755.547	84.47
755.727	84.04
755.907	83.23
756.087	84.24
756.267	84.53
756.447	86.33
756.627	86.04
756.807	87.6
756.987	86.59
757.167	85.88
757.346	86.85
757.526	89.55
757.706	88.39
757.886	88.89
758.066	89.49
758.246	87.18
758.425	86.19
758.605	86.09
758.785	85.9
758.965	85.87
759.144	87.59
759.324	88.3
759.504	88.78
759.683	88.18
759.863	87.76
760.043	87.41
760.222	87.26
760.402	86.07
760.581	86.13
760.761	86.36
760.94	86.08
761.12	85.55
761.299	86.42
761.479	85.43
761.658	84.55
761.838	82.7
762.017	82.37
762.197	83.99
762.376	86.8
762.555	86.53
762.735	88.62
762.914	87.68
763.093	87.06
763.273	84.69
763.452	85.45
763.631	85.83
763.81	87.05
763.99	84.53
764.169	84.02
764.348	85.03
764.527	83.64
764.706	82.69
764.885	83.45
765.064	83.44
765.243	82.63
765.423	82.69
765.602	81.25
765.781	80.67
765.96	80.39
766.139	79.59
766.318	79.97
766.497	82.13
766.676	81.79
766.854	83.24
767.033	83.01
767.212	84.13
767.391	84.91
767.57	85.66
767.749	85.98
767.928	85.55
768.106	83.94
768.285	83.84
768.464	82.83
768.643	81.75
768.821	81.15
769	80.79
769.179	79.83
769.357	80.98
769.536	81.99
769.715	81.28
769.893	82.23
770.072	83.44
770.25	83.79
770.429	83.45
770.607	83.97
770.786	83.39
770.964	82.09
771.143	82.88
771.321	82.05
771.5	86.3
771.678	86.06
771.857	86.2
772.035	85.17
772.213	85.89
772.392	82.32
772.57	83.8
772.748	82.62
772.927	82.41
773.105	81.44
773.283	83.41
773.461	81.89
773.64	83.86
773.818	83.14
773.996	84.6
774.174	83.79
774.352	82.4
774.531	80.34
774.709	79.56
774.887	78.51
775.065	78.11
775.243	79.3
775.421	79.3
775.599	80.83
775.777	79.16
775.955	77.14
776.133	78.44
776.311	79.77
776.489	78.99
776.667	80.6
776.844	83.55
777.022	82.3
777.2	83.09
777.378	82.59
777.556	82.52
777.734	81.69
777.911	80.98
778.089	79.82
778.267	79.48
778.445	80.39
778.622	80.87
778.8	81.21
778.978	80.11
779.155	80.22
779.333	77.61
779.511	74.86
779.688	76.8
779.866	75.85
780.043	77.35
780.221	77.75
780.398	81.53
780.576	78.95
780.753	80.4
780.931	79.96
781.108	81.78
781.286	80.17
781.463	79.91
781.64	80.53
781.818	81
781.995	80.1
782.172	81.26
782.35	81.85
782.527	78.68
782.704	78.41
782.882	78.54
783.059	77.57
783.236	77.29
783.413	82.21
783.59	82.17
783.768	81.43
783.945	82.6
784.122	83.35
784.299	82.66
784.476	84.2
784.653	85.46
784.83	86.24
785.007	85.56
785.184	84.07
785.361	81.43
785.538	83.8
785.715	79.21
785.892	82.17
786.069	82.96
786.246	84.69
786.423	84.34
786.6	85.17
786.776	80.18
786.953	80.66
787.13	80.04
787.307	79.03
787.484	80.79
787.66	82.05
787.837	80.07
788.014	78.34
788.191	76.43
788.367	73.59
788.544	76.99
788.721	79.11
788.897	79.65
789.074	79.3
789.25	81.33
789.427	78.89
789.603	79.66
789.78	79.5
789.956	80.66
790.133	79.52
790.309	78.8
790.486	76.04
790.662	75.8
790.839	75.74
791.015	76.17
791.192	74.62
791.368	78.05
791.544	81.26
791.721	82.09
791.897	84.48
792.073	85.89
792.249	83.83
792.426	81.71
792.602	78.73
792.778	76.88
792.954	75.58
793.13	74.7
793.307	78.04
793.483	78.52
793.659	79.38
793.835	84.12
794.011	85.58
794.187	79.36
794.363	79.89
794.539	76.1
794.715	68.27
794.891	63.75
795.067	66.1
795.243	65.63
795.419	67.02
795.595	71.54
795.771	71.59
795.947	75.84
796.122	71.45
796.298	77.8
796.474	77.21
796.65	76.99
796.826	71.42
797.001	78.41
797.177	73.96
797.353	74.78
797.529	79.1
797.704	78.95
797.88	78.82
798.056	74.12
798.231	72.73
798.407	70.03
798.582	68.49
798.758	69.83
798.934	72.43
799.109	75.19
799.285	75.68
799.46	80.34
799.636	81.68
799.811	81.14
799.986	83.26
800.162	87.15
800.337	88.73
800.513	81.94
800.688	85.69
800.863	78.61
801.039	82.33
801.214	76.65
801.389	79.37
801.565	80.84
801.74	83.76
801.915	78.1
802.09	79.16
802.265	79.15
802.441	78.95
802.616	74.53
802.791	70.67
802.966	73.46
803.141	70.89
803.316	67.95
803.491	67.71
803.666	75.16
803.841	70.36
804.016	73.82
804.191	70.49
804.366	76.93
804.541	74.67
804.716	76.76
804.891	76.33
805.066	75.99
805.241	83.25
805.416	78.34
805.591	83.71
805.765	75.37
805.94	73.47
806.115	63.7
806.29	67.43
806.464	68.54
806.639	68.86
806.814	74.27
806.989	72.5
807.163	73.53
807.338	72.8
807.512	78
807.687	68.61
807.862	72.99
808.036	68.07
808.211	63.31
808.385	55.66
808.56	57.12
808.734	54.78
808.909	50.25
809.083	49.86
809.258	55.77
809.432	59.57
809.606	56.89
809.781	62.63
809.955	65.78
810.13	67.9
810.304	67.53
810.478	69.19
810.652	67.75
810.827	65.51
811.001	64.35
811.175	73.37
811.349	69.77
811.524	77.7
811.698	81.34
811.872	84.42
812.046	82.86
812.22	81.84
812.394	64.96
812.568	69.45
812.742	72.02
812.916	68.85
813.09	84.17
813.264	97.67
813.438	85.14
813.612	83.02
813.786	80.59
813.96	68.94
814.134	60.63
814.308	67.61
814.482	71.31
814.656	73.28
814.83	68.05
815.003	73.28
815.177	76.01
815.351	65.05
815.525	62.7
815.698	65.22
815.872	59.33
816.046	61.63
816.219	55.32
816.393	56.58
816.567	57.02
816.74	73.82
816.914	71.51
817.088	94.77
817.261	91.98
817.435	89.92
817.608	77.97
817.782	62.04
817.955	70.33
818.129	85.88
818.302	71.21
818.475	78.17
818.649	79.67
818.822	72.98
818.996	63.2
819.169	73.49
819.342	64.31
819.516	52.66
819.689	50.48
819.862	58.6
820.035	64.87
820.209	69.41
820.382	84.68
820.555	84.87
820.728	79.63
820.901	62.03
821.075	64.26
821.248	66.41
821.421	57.16
821.594	49.92
821.767	55.58
821.94	50.26
822.113	42.07
822.286	42.57
822.459	38.74
822.632	42.25
822.805	59.57
822.978	69.01
823.151	78.8
823.324	91.5
823.496	78.37
823.669	64.46
823.842	63.54
824.015	62.89
824.188	58.37
824.361	56
824.533	70.53
824.706	62.12
824.879	74.87
825.051	73.57
825.224	87.17
825.397	63.79
825.569	60.27
825.742	48.62
825.915	50.7
826.087	44.43
826.26	55.71
826.432	67.45
826.605	61.92
826.777	64.87
826.95	73.74
827.122	75.21
827.295	55.3
827.467	61.3
827.64	52.69
827.812	56.58
827.984	46.59
828.157	54.58
828.329	71.6
828.501	80.12
828.674	83.13
828.846	91.7
829.018	102.05
829.19	102.58
829.363	104.99
829.535	93.02
829.707	93.51
829.879	73.58
830.051	54.4
830.223	49.42
830.395	46.97
830.568	43.01
830.74	51.57
830.912	51.48
831.084	58.43
831.256	54.27
831.428	49.22
831.6	48.35
831.772	71.82
831.943	29.09
832.115	34.84
832.287	51.05
832.459	65.39
832.631	51.74
832.803	78.93
832.975	80.58
833.146	75.65
833.318	48.53
833.49	49.86
833.662	50.47
833.833	49.53
834.005	47.67
834.177	59.32
834.348	57.86
834.52	55.23
834.692	74.73
834.863	76.4
835.035	66.82
835.206	62.98
835.378	57.6
835.549	51.78
835.721	55.33
835.892	44.23
836.064	48.25
836.235	64.87
836.407	67.71
836.578	51.41
836.749	60.2
836.921	61.87
837.092	51.59
837.264	57.45
837.435	68.87
837.606	64.27
837.777	65.12
837.949	83.64
838.12	60.56
838.291	35.2
838.462	60.33
838.633	36.66
838.805	19.25
838.976	41.21
839.147	87.55
839.318	125.42
839.489	116.16
839.66	130.53
839.831	88.24
840.002	62.54
840.173	6.29
840.344	24.2
840.515	2.04
840.686	-12.06
840.857	5.24
841.028	15.31
841.199	28.71
841.369	34.84
841.54	51.69
841.711	61.88
841.882	61.73
842.053	63
842.223	98.47
842.394	75.52
842.565	73.24
842.736	79.54
842.906	63.26
843.077	42.18
843.248	56.06
843.418	84.62
843.589	92.21
843.759	90.28
843.93	60.66
844.101	4.45
844.271	-43.19
844.442	-55.49
844.612	16.79
844.783	70.98
844.953	68.14
845.123	66.62
845.294	81.51
845.464	77.07
845.635	59.03
845.805	56.84
845.975	64.86
846.146	79.41
846.316	0.86
846.486	2.16
846.656	-5.15
846.827	66.43
846.997	17.73
847.167	21.53
847.337	31.9
847.507	69.94
847.677	12.22
847.848	43.81
848.018	56.94
848.188	72.84
848.358	48.12
848.528	96.01
848.698	93.17
848.868	107.19
849.038	77.78
849.208	73.31
849.378	42.59
849.548	11.38
849.718	-321.11
849.887	35.51
850.057	-4583.87
850.227	1310.3
850.397	1106.71
850.567	-49.72
850.737	-22.75
850.906	34.63
851.076	64.76
851.246	36.22
851.415	52.81
851.585	66.12
851.755	35.47
851.924	43.1
852.094	44.9
852.264	43.75
852.433	16.92
852.603	57.65
852.772	59.12
852.942	51.75
853.111	21.08
853.281	31.8
853.45	4.13
853.62	19.87
853.789	-30.32
853.959	-235.93
854.128	47.3
854.297	100
854.467	139
854.636	-10.95
854.805	129.81
854.975	60.32
855.144	77.01
855.313	70.69
855.482	105.13
855.652	88.84
855.821	104.37
855.99	134.77
856.159	389.66
856.328	131.79
856.497	110.11
856.667	104.45
856.836	66.28
857.005	59.06
857.174	34.95
857.343	52.38
857.512	14.37
857.681	51.46
857.85	32.11
858.019	32.76
858.188	28.33
858.356	19.85
858.525	10.28
858.694	25.57
858.863	35.89
859.032	53.54
859.201	40.26
859.369	25.31
859.538	13.87
859.707	19.85
859.876	26.09
860.044	43.58
860.213	50.46
860.382	92.39
860.55	58.22
860.719	52.83
860.888	55.34
861.056	87.58
861.225	95.69
861.393	159.42
861.562	230.24
861.73	233.46
861.899	147.44
862.067	112.67
862.236	53.75
862.404	-0.68
862.572	-18.47
862.741	-501.05
862.909	-28.68
863.078	17.91
863.246	14.06
863.414	57.18
863.582	70.09
863.751	97.79
863.919	77.2
864.087	64.98
864.255	-19.93
864.424	-57.81
864.592	-50.84
864.76	-19.89
864.928	6.54
865.096	24.89
865.264	31.49
865.432	11.1
865.6	-26.15
865.768	-51.66
865.936	-135.08
866.104	-276.29
866.272	4.97
866.44	80.44
866.608	90.24
866.776	98.76
866.944	82.39
867.112	97.93
867.28	88.79
867.448	91.55
867.615	33.16
867.783	76.61
867.951	45.33
868.119	55.06
868.286	67.38
868.454	60.79
868.622	-11.87
868.789	178.22
868.957	610.41
869.125	313.52
869.292	-394.79
869.46	123.24
869.627	-839.43
869.795	-45.93
869.963	-18.08
870.13	5.99
870.298	22.63
870.465	22.12
870.632	29.2
870.8	24.85
870.967	59.41
871.135	38.52
871.302	-259.62
871.469	127.42
871.637	38.13
871.804	0.23
871.971	25.34
872.139	9.53
872.306	-19.23
872.473	-533.17
872.64	-81.11
872.807	-5.62
872.975	-28.36
873.142	8.22
873.309	56.4
873.476	58.63
873.643	55.08
873.81	56.7
873.977	52.8
874.144	43.06
874.311	59.85
874.478	28.56
874.645	-27.9
874.812	-792.89
874.979	-107.64
875.146	-48.83
875.313	-483.58
875.48	275.56
875.647	-99.4
875.813	-856.96
875.98	630.47
876.147	39.1
876.314	27.41
876.481	34.08
876.647	83.3
876.814	93.07
876.981	101.81
877.147	139.97
877.314	70.73
877.481	-0.37
877.647	53.34
877.814	89.49
877.98	-57.93
878.147	-23.44
878.314	97.89
878.48	406.07
878.647	-106.98
878.813	-55.4
878.979	32
879.146	25.35
879.312	1.45
879.479	46.75
879.645	81.48
879.811	59.74
879.978	66.76
880.144	47.07
880.31	97.54
880.477	551.01
880.643	502.16
880.809	1475.61
880.975	-659.8
881.142	-232.03
881.308	-296.79
881.474	20.84
881.64	58.88
881.806	65.95
881.972	64.06
882.138	49.95
882.304	22.62
882.47	-14.77
882.636	12.8
882.802	16.4
882.968	14.43
883.134	26.26
883.3	48.83
883.466	53.32
883.632	86.59
883.798	86.88
883.964	139.98
884.129	141.41
884.295	30.32
884.461	-109.91
884.627	269.52
884.793	102.74
884.958	90.39
885.124	-1230.69
885.29	91.38
885.455	90.87
885.621	33.47
885.787	24.74
885.952	-19.82
886.118	-2.96
886.283	26.57
886.449	88.99
886.614	64.82
886.78	67.33
886.945	40.36
887.111	41.59
887.276	21.54
887.442	36.67
887.607	25.77
887.773	95.04
887.938	53.12
888.103	83.46
888.269	-168.12
888.434	3911.76
888.599	-132.81
888.764	-1344.66
888.93	-44.33
889.095	16.33
889.26	3.22
889.425	32.36
889.59	31.85
889.756	41.36
889.921	20.28
890.086	29.94
890.251	-8.01
890.416	66.59
890.581	69.38
890.746	12.12
890.911	37.64
891.076	170.98
891.241	-73.67
891.406	-19442.86
891.571	133.69
891.736	78.68
891.901	146.5
892.065	35.61
892.23	31.47
892.395	111.87
892.56	623.49
892.725	-33.13
892.889	-184.28
893.054	-877.48
893.219	-1194.96
893.384	-163.97
893.548	-230.9
893.713	-159.09
893.878	-201.57
