Data from Ofav_SP_Phys_9DW32_Reflection_2.txt Node
Date: Thu Aug 05 17:51:38 EDT 2021
User: Adam
Spectrometer: FLMT01687
Trigger mode: 0
Integration Time (sec): 8.000000E-1
Scans to average: 2
Electric dark correction enabled: true
Nonlinearity correction enabled: false
Boxcar width: 2
XAxis mode: Wavelengths
Number of Pixels in Spectrum: 3648
>>>>>Begin Spectral Data<<<<<
179.494	665.56
179.716	758.03
179.937	609.58
180.158	737.38
180.38	2006.41
180.601	-882.19
180.823	-245.38
181.044	-183.24
181.265	-35.49
181.486	123.3
181.708	-783.89
181.929	-346.26
182.15	-834.29
182.372	6.53
182.593	-22.16
182.814	-106.72
183.035	26.98
183.257	-176.51
183.478	762.03
183.699	-668.69
183.92	-218.53
184.141	1347.09
184.363	-1027.03
184.584	265.59
184.805	118.29
185.026	111.07
185.247	113.67
185.468	110.76
185.689	102.8
185.91	100.26
186.132	52.32
186.353	30.8
186.574	-26.7
186.795	-52.49
187.016	-52.66
187.237	-22.38
187.458	-149.68
187.679	38.01
187.9	98.28
188.121	79.4
188.342	101.71
188.563	79.7
188.784	111.02
189.005	80.58
189.226	77.18
189.447	83.48
189.667	157.37
189.888	180.73
190.109	129.4
190.33	135.8
190.551	103.58
190.772	99.53
190.993	82.06
191.214	76.93
191.434	69.19
191.655	65.27
191.876	78.47
192.097	58.42
192.318	78.78
192.538	134.5
192.759	183.94
192.98	136.47
193.201	342.69
193.421	152.55
193.642	90.86
193.863	43.28
194.083	50.63
194.304	68.53
194.525	83.72
194.745	57.85
194.966	54.55
195.187	76.62
195.407	57.19
195.628	27.98
195.848	77.85
196.069	80.23
196.29	45.89
196.51	80.12
196.731	68.81
196.951	91.18
197.172	95.33
197.392	118.9
197.613	108.71
197.833	160.19
198.054	147.82
198.274	145.19
198.495	127.82
198.715	124.23
198.936	77.14
199.156	48.81
199.377	54.7
199.597	61.18
199.817	70.81
200.038	67.82
200.258	76.98
200.479	82.38
200.699	72.48
200.919	38.3
201.14	6.84
201.36	-2.82
201.58	26.4
201.801	-70.08
202.021	-27.22
202.241	75.27
202.461	66.32
202.682	16.63
202.902	106.17
203.122	258.82
203.342	196.73
203.563	117.97
203.783	151.17
204.003	122.21
204.223	96.57
204.443	84.53
204.663	95.05
204.884	72.28
205.104	29.17
205.324	55.76
205.544	46.29
205.764	19.7
205.984	4.44
206.204	38.24
206.424	21.04
206.644	-3.72
206.864	12.38
207.084	27.11
207.304	45.02
207.525	1.68
207.745	69.72
207.964	38.7
208.184	36.54
208.404	-26.42
208.624	-11.38
208.844	-13.43
209.064	36.82
209.284	-1.68
209.504	5.72
209.724	13.83
209.944	-15.59
210.164	-32.57
210.384	26.98
210.604	60.2
210.823	64.88
211.043	71.84
211.263	82.61
211.483	56.43
211.703	47.98
211.922	47.88
212.142	64.3
212.362	36.31
212.582	81.79
212.801	93.67
213.021	60.52
213.241	17.16
213.461	-13.01
213.68	8.14
213.9	-23.01
214.12	0.13
214.339	27.3
214.559	77.92
214.779	49.13
214.998	110.97
215.218	64.47
215.438	123.34
215.657	213.84
215.877	272.09
216.096	205.63
216.316	262.38
216.535	138.13
216.755	9.85
216.974	55.78
217.194	88.52
217.413	39.6
217.633	68.8
217.852	79.67
218.072	77.96
218.291	74
218.511	91.45
218.73	57.75
218.95	43.53
219.169	9.95
219.389	57.89
219.608	36.98
219.827	66.76
220.047	54.77
220.266	57.85
220.485	26.27
220.705	63.4
220.924	86.28
221.143	60.13
221.363	28.81
221.582	50.19
221.801	-34.25
222.021	-3.8
222.24	53.28
222.459	146.17
222.678	92.13
222.897	123.33
223.117	94.33
223.336	63.01
223.555	28.62
223.774	2.57
223.993	-1.02
224.213	20.56
224.432	21.98
224.651	27.5
224.87	24.12
225.089	36.95
225.308	26.52
225.527	28.58
225.746	19.21
225.965	23.73
226.184	26.13
226.404	32.92
226.623	-21.93
226.842	-8.75
227.061	19.24
227.28	25.15
227.499	35.05
227.718	55.27
227.936	67.36
228.155	73.34
228.374	44.04
228.593	37.62
228.812	48.06
229.031	38.05
229.25	19.2
229.469	32.23
229.688	35.06
229.907	16.62
230.125	13.27
230.344	24.92
230.563	17.14
230.782	32.09
231.001	67.02
231.22	62.49
231.438	88.49
231.657	74.24
231.876	62.8
232.095	53.46
232.313	45.45
232.532	13.26
232.751	18.53
232.969	30.7
233.188	37.56
233.407	18.24
233.625	36.04
233.844	8.97
234.063	30.97
234.281	40.99
234.5	93.62
234.719	160.9
234.937	138.54
235.156	77.25
235.374	61.82
235.593	57.35
235.811	26
236.03	41.48
236.249	68.15
236.467	90.15
236.686	84.44
236.904	83.23
237.123	97.08
237.341	72.45
237.559	49.4
237.778	66.46
237.996	64.27
238.215	77.51
238.433	67.73
238.652	72.12
238.87	28.26
239.088	22.78
239.307	9.09
239.525	-7
239.743	-27.14
239.962	-12.49
240.18	-28.33
240.398	-26.37
240.617	10.96
240.835	51.29
241.053	51.19
241.271	50.15
241.49	29.99
241.708	10.94
241.926	28.62
242.144	-2.85
242.363	12.81
242.581	121.96
242.799	98.18
243.017	63.71
243.235	38.86
243.453	31.22
243.672	25.73
243.89	48.94
244.108	100.89
244.326	118.48
244.544	134.29
244.762	96.59
244.98	124.52
245.198	82.49
245.416	86.31
245.634	79.9
245.852	100.97
246.07	64.59
246.288	65.68
246.506	58.99
246.724	61.57
246.942	41.83
247.16	53.92
247.378	47.1
247.596	17.67
247.814	-4.75
248.032	-18.92
248.25	-41.92
248.468	-10.41
248.685	10.4
248.903	8.06
249.121	15.94
249.339	43.89
249.557	32.58
249.775	16.01
249.992	-16.26
250.21	36.33
250.428	18.99
250.646	25.26
250.863	46.15
251.081	90.24
251.299	36.5
251.517	61.34
251.734	47.04
251.952	39.68
252.17	42.56
252.387	50.01
252.605	38.02
252.823	40.8
253.04	30.49
253.258	37.4
253.475	47.88
253.693	64.83
253.911	87.19
254.128	84.37
254.346	76.94
254.563	75.19
254.781	56.67
254.998	38.42
255.216	33.38
255.433	19.51
255.651	7.32
255.868	-12.36
256.086	4.4
256.303	-12.91
256.521	-32.45
256.738	-46.49
256.956	-67.16
257.173	18.57
257.39	91.92
257.608	88.03
257.825	66.9
258.043	57.87
258.26	55.04
258.477	29.11
258.695	42.23
258.912	52.64
259.129	64.71
259.346	60.19
259.564	70.69
259.781	77.61
259.998	69.65
260.216	87.8
260.433	79.53
260.65	82.4
260.867	65.08
261.084	62.23
261.302	31.04
261.519	61.19
261.736	86.53
261.953	78.14
262.17	75.67
262.387	119.26
262.604	112.26
262.822	92.42
263.039	90.53
263.256	135.51
263.473	79.57
263.69	84.17
263.907	81.96
264.124	90.11
264.341	44.56
264.558	48.8
264.775	42
264.992	41.02
265.209	29.46
265.426	37.29
265.643	17.34
265.86	4.15
266.077	5.34
266.294	4.91
266.51	-1.58
266.727	21.41
266.944	71.44
267.161	40.02
267.378	55.76
267.595	59.48
267.812	45.97
268.028	18.52
268.245	26.81
268.462	15.86
268.679	21.48
268.896	53.65
269.112	31.95
269.329	71.1
269.546	67.17
269.763	58.78
269.979	41.16
270.196	67.97
270.413	55.26
270.629	57.02
270.846	50.76
271.063	49.5
271.279	24.55
271.496	-30.26
271.712	-79.69
271.929	-54.32
272.146	-24.81
272.362	-3.59
272.579	4
272.795	15.43
273.012	26.28
273.228	9.27
273.445	-10.85
273.661	14.44
273.878	10.46
274.094	9.63
274.311	32.98
274.527	35.51
274.744	39.58
274.96	37.93
275.177	37.93
275.393	31.94
275.609	41.67
275.826	39.03
276.042	59.64
276.259	56.97
276.475	43.27
276.691	31.51
276.908	27.39
277.124	33.81
277.34	43.1
277.557	33.97
277.773	39.52
277.989	25.96
278.205	43.31
278.422	63.96
278.638	68.6
278.854	89.46
279.07	87.16
279.286	62.37
279.503	58.97
279.719	49.71
279.935	44.87
280.151	77.31
280.367	96.56
280.583	58.4
280.799	79.22
281.016	70.43
281.232	68.11
281.448	35.52
281.664	70.43
281.88	59.71
282.096	87.4
282.312	72.73
282.528	93.02
282.744	86.41
282.96	85.76
283.176	79.21
283.392	85.76
283.608	77.56
283.824	72.51
284.04	50.23
284.256	51.89
284.471	31.05
284.687	42.66
284.903	40.29
285.119	44.07
285.335	30.05
285.551	29.33
285.767	22.92
285.982	13.88
286.198	62.48
286.414	18.38
286.63	64.75
286.846	79.05
287.061	60.26
287.277	58.75
287.493	111.95
287.709	77.27
287.924	61.65
288.14	83.28
288.356	79.03
288.571	75.76
288.787	76.14
289.003	93.2
289.218	65.78
289.434	38.94
289.65	5.93
289.865	9.67
290.081	10.69
290.296	28.12
290.512	32.15
290.727	40.97
290.943	42.12
291.159	47.61
291.374	53.92
291.59	46.28
291.805	43.32
292.021	70.81
292.236	81.4
292.451	56.56
292.667	87.35
292.882	28.48
293.098	1.47
293.313	22.28
293.529	48.13
293.744	33.89
293.959	38.98
294.175	53.08
294.39	30.25
294.605	12.17
294.821	20.88
295.036	35.49
295.251	36.77
295.467	43.68
295.682	40.88
295.897	51.99
296.112	44.87
296.328	39.87
296.543	32.21
296.758	35.18
296.973	29.84
297.188	41.9
297.404	40.9
297.619	38.31
297.834	27.94
298.049	8.2
298.264	-8.23
298.479	-34.05
298.694	5.94
298.909	36.3
299.125	39.89
299.34	56.22
299.555	66.52
299.77	64.05
299.985	64.67
300.2	71.41
300.415	63.22
300.63	49.92
300.845	46.1
301.06	65.88
301.275	58.22
301.49	62.15
301.704	79.13
301.919	65.96
302.134	39.94
302.349	47.01
302.564	29.39
302.779	35.9
302.994	30.69
303.209	39.75
303.423	23.17
303.638	34.76
303.853	43.73
304.068	58.68
304.283	69.33
304.497	77.8
304.712	100.46
304.927	92.06
305.142	63.73
305.356	34.35
305.571	64.8
305.786	56.42
306	67.28
306.215	71.56
306.43	91.28
306.644	59.69
306.859	52.16
307.074	45.24
307.288	53.29
307.503	48.84
307.717	64.01
307.932	66.71
308.147	65.73
308.361	67.38
308.576	68.98
308.79	73.79
309.005	82.46
309.219	53.76
309.434	36.59
309.648	-2.62
309.863	-23.3
310.077	-56.59
310.292	-25.79
310.506	-17.99
310.72	6.63
310.935	18.22
311.149	24.98
311.364	54.85
311.578	73.48
311.792	85.05
312.007	71.35
312.221	55.07
312.435	74.24
312.649	55.69
312.864	-9.96
313.078	7.93
313.292	51.28
313.507	30.44
313.721	41.39
313.935	109.72
314.149	117.28
314.363	99.51
314.578	74.94
314.792	63.31
315.006	61.63
315.22	59.18
315.434	-5
315.648	0.62
315.862	41.13
316.077	5.35
316.291	17.73
316.505	93.14
316.719	69.23
316.933	55.42
317.147	60
317.361	38.2
317.575	31.91
317.789	59.86
318.003	57.51
318.217	72.04
318.431	115.38
318.645	114.3
318.859	99.94
319.073	90.24
319.287	74.34
319.5	60.47
319.714	30.46
319.928	57.32
320.142	88.35
320.356	74.08
320.57	73.21
320.784	92.64
320.997	85.11
321.211	59.06
321.425	36.4
321.639	-19.67
321.853	-41.11
322.066	-30.11
322.28	-47.01
322.494	-28.47
322.707	3.62
322.921	23.85
323.135	29.91
323.349	50.4
323.562	55.96
323.776	64.03
323.989	49.5
324.203	28.19
324.417	26.98
324.63	21.7
324.844	2.82
325.057	2.56
325.271	-16.13
325.485	-1.6
325.698	10.48
325.912	3.79
326.125	32.74
326.339	57.42
326.552	30.23
326.766	25.58
326.979	54.37
327.193	54.45
327.406	60.55
327.619	96.92
327.833	74.67
328.046	81.07
328.26	73.74
328.473	31.51
328.686	-2.01
328.9	27.41
329.113	6.11
329.326	-1.16
329.54	4.33
329.753	35.61
329.966	29.45
330.179	32.9
330.393	69.72
330.606	86.44
330.819	60.37
331.032	82.09
331.246	141.37
331.459	88.95
331.672	86.71
331.885	93.63
332.098	91.85
332.311	64.24
332.525	70.77
332.738	61.39
332.951	46.62
333.164	41.51
333.377	35.71
333.59	34.63
333.803	32.28
334.016	31.58
334.229	14.02
334.442	27.92
334.655	34.48
334.868	53.53
335.081	54.78
335.294	55.4
335.507	57.17
335.72	57.45
335.933	42.4
336.146	40.5
336.359	43.35
336.572	41.61
336.785	25.78
336.997	39.42
337.21	57.22
337.423	80.1
337.636	87.72
337.849	106.82
338.062	73.75
338.274	50.44
338.487	24.41
338.7	25.96
338.913	25.04
339.125	55.36
339.338	69.22
339.551	71.66
339.763	80.89
339.976	70.79
340.189	61.44
340.402	34.35
340.614	31.51
340.827	28.49
341.039	32.37
341.252	26.91
341.465	38.19
341.677	40.85
341.89	14.3
342.102	21.54
342.315	-5.78
342.527	5.39
342.74	0.08
342.952	10.79
343.165	32.2
343.377	73.53
343.59	39.5
343.802	67.12
344.015	46.95
344.227	19.4
344.44	20.62
344.652	47.41
344.864	50.58
345.077	69.88
345.289	64.68
345.502	59.37
345.714	44.65
345.926	35.91
346.139	31.53
346.351	38.48
346.563	21.96
346.775	20.73
346.988	0.76
347.2	-15.47
347.412	-10.52
347.624	44.3
347.837	55.85
348.049	46.57
348.261	41.57
348.473	33.47
348.685	40.66
348.897	45.96
349.11	46.19
349.322	44.75
349.534	41.6
349.746	36.87
349.958	24.88
350.17	43.91
350.382	66.84
350.594	74.5
350.806	60.64
351.018	64.57
351.23	54
351.442	58.26
351.654	62.89
351.866	71.95
352.078	65.53
352.29	72.61
352.502	53.36
352.714	34.92
352.926	28.9
353.138	21.83
353.35	22.95
353.561	18.02
353.773	16.44
353.985	17.84
354.197	38.24
354.409	34.71
354.621	30.2
354.832	40.02
355.044	27.05
355.256	26.85
355.468	33.02
355.679	53.7
355.891	67.68
356.103	67.56
356.314	66.04
356.526	70.96
356.738	62.06
356.949	27.82
357.161	41.82
357.373	33.75
357.584	43.37
357.796	55.03
358.008	61.9
358.219	53.1
358.431	101.36
358.642	85.42
358.854	67.36
359.065	88.36
359.277	85.71
359.488	57.3
359.7	55.17
359.911	46.34
360.123	40.84
360.334	33.77
360.546	48.88
360.757	51.63
360.969	59.77
361.18	62.61
361.391	76.05
361.603	64.4
361.814	62.2
362.025	85.66
362.237	70.6
362.448	60.78
362.659	53.18
362.871	41.76
363.082	17.94
363.293	6.19
363.504	11.91
363.716	40.15
363.927	55.59
364.138	48.89
364.349	41.51
364.56	44.44
364.772	26.6
364.983	11.63
365.194	28.05
365.405	37.21
365.616	29.92
365.827	35.51
366.038	49.79
366.25	52.87
366.461	44.6
366.672	56.6
366.883	49.81
367.094	42.74
367.305	38.01
367.516	56.91
367.727	45.56
367.938	51.03
368.149	33.36
368.36	41.36
368.571	21.24
368.781	27.11
368.992	10.91
369.203	27.7
369.414	27.97
369.625	35.39
369.836	31.28
370.047	30.3
370.258	38.64
370.468	40.61
370.679	40.49
370.89	47.07
371.101	57.71
371.312	58.28
371.522	58.73
371.733	50.78
371.944	57.08
372.155	54.88
372.365	37.08
372.576	46.34
372.787	50.82
372.997	47.23
373.208	42.9
373.419	68.6
373.629	43.75
373.84	56.13
374.05	48.26
374.261	48.89
374.472	32.51
374.682	22.76
374.893	8.94
375.103	10.58
375.314	8.19
375.524	22.22
375.735	36.36
375.945	51.65
376.156	50.33
376.366	52.72
376.577	60.37
376.787	60.37
376.997	53.75
377.208	58.45
377.418	58.71
377.629	45.67
377.839	55.42
378.049	52.22
378.26	36.38
378.47	42.4
378.68	53.12
378.89	46.61
379.101	39.03
379.311	49.62
379.521	42.5
379.732	40.16
379.942	31.65
380.152	45.73
380.362	40.17
380.572	40.04
380.783	31.98
380.993	35.57
381.203	33.27
381.413	38.99
381.623	41.37
381.833	47.17
382.043	45.12
382.253	48.54
382.463	50.09
382.674	46.67
382.884	41.54
383.094	32.14
383.304	20.46
383.514	17.63
383.724	9.85
383.934	10.61
384.144	18.76
384.353	20.78
384.563	24.26
384.773	31.84
384.983	25.55
385.193	27.6
385.403	26.67
385.613	29.56
385.823	26.39
386.033	25.21
386.242	23.14
386.452	18.26
386.662	12.26
386.872	12.28
387.082	15.91
387.291	2.76
387.501	5.93
387.711	7.68
387.921	5.81
388.13	5.01
388.34	15.34
388.55	11.88
388.759	8.53
388.969	8.97
389.179	9.42
389.388	13.93
389.598	16.39
389.807	17.45
390.017	18.12
390.227	17.7
390.436	10.49
390.646	8.9
390.855	8.4
391.065	9.47
391.274	10.24
391.484	12.45
391.693	11.57
391.903	12.51
392.112	13.11
392.322	10.87
392.531	11.1
392.74	11.29
392.95	8.47
393.159	5.98
393.369	8.22
393.578	8.61
393.787	9.38
393.997	10.23
394.206	9.94
394.415	10.07
394.625	10.06
394.834	9.09
395.043	8.19
395.252	9.12
395.462	9.39
395.671	8.81
395.88	10.99
396.089	11.64
396.298	11.73
396.508	10.71
396.717	11.29
396.926	9.95
397.135	9.63
397.344	9.02
397.553	9.3
397.762	8.75
397.971	8.18
398.181	8.07
398.39	7.9
398.599	7.88
398.808	7.57
399.017	7.61
399.226	7.66
399.435	8.26
399.644	8.31
399.853	8.61
400.062	8.82
400.27	9.28
400.479	9.03
400.688	8.8
400.897	9.01
401.106	8.85
401.315	8.21
401.524	8.17
401.733	8.35
401.941	8.2
402.15	8.09
402.359	8.3
402.568	8.21
402.777	8.02
402.985	7.88
403.194	7.85
403.403	7.96
403.612	7.95
403.82	7.9
404.029	7.92
404.238	7.95
404.446	7.87
404.655	7.84
404.864	7.68
405.072	7.5
405.281	7.47
405.489	7.53
405.698	7.6
405.906	7.62
406.115	7.54
406.324	7.66
406.532	7.37
406.741	7.19
406.949	7.09
407.158	7.22
407.366	7.17
407.574	7.31
407.783	7.12
407.991	7.09
408.2	6.95
408.408	6.87
408.617	6.86
408.825	7.09
409.033	7.21
409.242	7.3
409.45	7.15
409.658	6.94
409.867	6.97
410.075	7.04
410.283	7.02
410.491	7.12
410.7	7.4
410.908	7.32
411.116	7.14
411.324	7.09
411.533	6.95
411.741	6.74
411.949	6.7
412.157	6.81
412.365	6.98
412.573	6.97
412.781	7.11
412.99	7.19
413.198	7.34
413.406	7.26
413.614	7.24
413.822	7.18
414.03	7.03
414.238	6.84
414.446	6.96
414.654	7.14
414.862	7.12
415.07	7.15
415.278	7.1
415.486	6.75
415.694	6.58
415.902	6.54
416.109	6.56
416.317	6.62
416.525	6.69
416.733	6.7
416.941	6.86
417.149	6.83
417.357	6.75
417.564	6.62
417.772	6.58
417.98	6.37
418.188	6.34
418.395	6.3
418.603	6.48
418.811	6.5
419.019	6.5
419.226	6.57
419.434	6.73
419.642	6.72
419.849	6.85
420.057	6.82
420.265	6.9
420.472	6.66
420.68	6.6
420.887	6.46
421.095	6.49
421.302	6.3
421.51	6.36
421.717	6.29
421.925	6.37
422.132	6.36
422.34	6.55
422.547	6.51
422.755	6.43
422.962	6.5
423.17	6.58
423.377	6.45
423.585	6.54
423.792	6.6
423.999	6.45
424.207	6.27
424.414	5.99
424.621	6.04
424.829	6.08
425.036	6.19
425.243	6.35
425.451	6.65
425.658	6.68
425.865	6.64
426.072	6.45
426.28	6.24
426.487	6.16
426.694	6
426.901	6.01
427.108	6.1
427.315	6.37
427.523	6.32
427.73	6.38
427.937	6.41
428.144	6.56
428.351	6.5
428.558	6.57
428.765	6.4
428.972	6.31
429.179	6.23
429.386	6.08
429.593	6.02
429.8	6.14
430.007	6.19
430.214	6.13
430.421	6.23
430.628	6.18
430.835	6.25
431.042	6.23
431.249	6.38
431.456	6.31
431.662	6.64
431.869	6.7
432.076	6.8
432.283	6.84
432.49	6.78
432.697	6.59
432.903	6.35
433.11	6.2
433.317	6.02
433.524	6.28
433.73	6.25
433.937	6.33
434.144	6.42
434.35	6.54
434.557	6.45
434.764	6.33
434.97	6.38
435.177	6.57
435.384	6.33
435.59	6.2
435.797	6.43
436.003	6.46
436.21	6.19
436.416	6.08
436.623	6.03
436.829	5.99
437.036	5.78
437.242	5.91
437.449	6.19
437.655	6.42
437.862	6.4
438.068	6.75
438.275	6.8
438.481	6.83
438.687	6.71
438.894	6.86
439.1	6.72
439.307	6.66
439.513	6.73
439.719	6.77
439.926	6.66
440.132	6.74
440.338	6.86
440.544	6.77
440.751	6.89
440.957	6.87
441.163	6.77
441.369	6.68
441.575	6.63
441.782	6.69
441.988	6.64
442.194	6.59
442.4	6.56
442.606	6.66
442.812	6.5
443.018	6.46
443.224	6.57
443.431	6.6
443.637	6.52
443.843	6.4
444.049	6.36
444.255	6.37
444.461	6.39
444.667	6.4
444.873	6.47
445.079	6.59
445.284	6.63
445.49	6.7
445.696	6.84
445.902	6.92
446.108	6.87
446.314	6.76
446.52	6.74
446.726	6.7
446.931	6.64
447.137	6.67
447.343	6.7
447.549	6.68
447.755	6.72
447.96	6.78
448.166	6.87
448.372	6.83
448.578	6.77
448.783	6.81
448.989	6.75
449.195	6.71
449.4	6.83
449.606	6.94
449.812	7.03
450.017	7.23
450.223	7.18
450.428	7.19
450.634	7.15
450.84	6.94
451.045	6.78
451.251	6.9
451.456	6.95
451.662	6.97
451.867	7.08
452.073	7.18
452.278	7.06
452.483	6.98
452.689	7.08
452.894	7.09
453.1	7.03
453.305	7.04
453.51	7.08
453.716	7.04
453.921	6.98
454.127	7.03
454.332	7.11
454.537	7.24
454.742	7.17
454.948	7.16
455.153	7.15
455.358	7.09
455.563	7.06
455.769	6.98
455.974	7.02
456.179	6.98
456.384	6.87
456.589	6.87
456.795	6.99
457	7.05
457.205	7.03
457.41	7.16
457.615	7.21
457.82	7.2
458.025	7.17
458.23	7.19
458.435	7.15
458.64	7.03
458.845	7.14
459.05	7.08
459.255	7.14
459.46	7.27
459.665	7.37
459.87	7.27
460.075	7.37
460.28	7.37
460.485	7.35
460.69	7.35
460.895	7.3
461.099	7.25
461.304	7.35
461.509	7.38
461.714	7.34
461.919	7.44
462.123	7.48
462.328	7.34
462.533	7.36
462.738	7.43
462.942	7.55
463.147	7.69
463.352	7.8
463.556	7.82
463.761	7.67
463.966	7.51
464.17	7.37
464.375	7.41
464.58	7.42
464.784	7.53
464.989	7.64
465.193	7.61
465.398	7.76
465.602	7.94
465.807	8.09
466.011	8.11
466.216	8.24
466.42	8.14
466.625	8.04
466.829	8.01
467.034	8.06
467.238	8.19
467.443	8.06
467.647	7.88
467.851	7.88
468.056	7.8
468.26	7.69
468.464	7.75
468.669	7.99
468.873	7.93
469.077	7.85
469.282	7.87
469.486	7.89
469.69	7.75
469.894	7.74
470.099	7.86
470.303	7.74
470.507	7.77
470.711	7.81
470.915	7.85
471.119	7.86
471.324	7.95
471.528	7.79
471.732	7.82
471.936	7.74
472.14	7.78
472.344	7.76
472.548	7.94
472.752	8
472.956	8.13
473.16	8.18
473.364	8.19
473.568	8.15
473.772	8.07
473.976	8.07
474.18	7.97
474.384	8.02
474.588	8.09
474.792	8.15
474.995	8.1
475.199	7.98
475.403	7.92
475.607	7.83
475.811	7.76
476.015	7.77
476.218	7.91
476.422	7.88
476.626	8.01
476.83	8
477.033	8.03
477.237	8.09
477.441	8.11
477.644	7.95
477.848	7.99
478.052	7.88
478.255	7.75
478.459	7.8
478.663	7.81
478.866	7.76
479.07	7.85
479.273	7.83
479.477	7.85
479.681	7.99
479.884	8.06
480.088	7.98
480.291	8.1
480.495	8.04
480.698	8
480.901	7.9
481.105	8.1
481.308	7.99
481.512	7.98
481.715	7.97
481.919	7.99
482.122	7.91
482.325	7.96
482.529	8.01
482.732	8
482.935	7.99
483.138	8.08
483.342	8.08
483.545	8.13
483.748	8.07
483.952	8.05
484.155	7.97
484.358	7.92
484.561	7.84
484.764	7.84
484.967	7.91
485.171	7.76
485.374	7.75
485.577	7.76
485.78	7.85
485.983	7.81
486.186	7.89
486.389	7.9
486.592	7.88
486.795	7.81
486.998	7.78
487.201	7.77
487.404	7.83
487.607	7.95
487.81	7.94
488.013	7.9
488.216	7.93
488.419	7.89
488.622	7.73
488.825	7.73
489.028	7.76
489.231	7.79
489.433	7.73
489.636	7.77
489.839	7.73
490.042	7.8
490.245	7.82
490.447	7.95
490.65	7.93
490.853	8.03
491.056	7.94
491.258	7.84
491.461	7.78
491.664	7.68
491.866	7.62
492.069	7.64
492.272	7.59
492.474	7.55
492.677	7.63
492.879	7.56
493.082	7.54
493.285	7.62
493.487	7.59
493.69	7.54
493.892	7.6
494.095	7.62
494.297	7.57
494.5	7.65
494.702	7.73
494.905	7.7
495.107	7.65
495.309	7.68
495.512	7.57
495.714	7.54
495.917	7.54
496.119	7.57
496.321	7.57
496.524	7.65
496.726	7.64
496.928	7.67
497.13	7.74
497.333	7.74
497.535	7.83
497.737	7.79
497.939	7.8
498.142	7.73
498.344	7.72
498.546	7.58
498.748	7.56
498.95	7.53
499.152	7.49
499.355	7.47
499.557	7.53
499.759	7.58
499.961	7.58
500.163	7.57
500.365	7.7
500.567	7.63
500.769	7.6
500.971	7.59
501.173	7.61
501.375	7.54
501.577	7.6
501.779	7.62
501.981	7.75
502.183	7.81
502.385	7.79
502.587	7.74
502.788	7.67
502.99	7.53
503.192	7.5
503.394	7.46
503.596	7.41
503.798	7.42
503.999	7.46
504.201	7.37
504.403	7.38
504.605	7.42
504.806	7.45
505.008	7.41
505.21	7.43
505.411	7.34
505.613	7.3
505.815	7.34
506.016	7.35
506.218	7.35
506.42	7.43
506.621	7.44
506.823	7.4
507.024	7.32
507.226	7.44
507.427	7.43
507.629	7.36
507.83	7.33
508.032	7.31
508.233	7.24
508.435	7.29
508.636	7.4
508.838	7.4
509.039	7.46
509.24	7.39
509.442	7.39
509.643	7.38
509.845	7.41
510.046	7.45
510.247	7.56
510.448	7.54
510.65	7.49
510.851	7.53
511.052	7.52
511.254	7.46
511.455	7.42
511.656	7.41
511.857	7.36
512.058	7.35
512.26	7.38
512.461	7.41
512.662	7.45
512.863	7.37
513.064	7.4
513.265	7.34
513.466	7.33
513.667	7.32
513.868	7.38
514.069	7.31
514.27	7.27
514.471	7.24
514.672	7.26
514.873	7.17
515.074	7.2
515.275	7.26
515.476	7.25
515.677	7.19
515.878	7.28
516.079	7.25
516.28	7.22
516.481	7.24
516.682	7.25
516.882	7.24
517.083	7.25
517.284	7.22
517.485	7.26
517.686	7.26
517.886	7.26
518.087	7.23
518.288	7.25
518.488	7.23
518.689	7.2
518.89	7.19
519.091	7.25
519.291	7.19
519.492	7.19
519.692	7.28
519.893	7.34
520.094	7.27
520.294	7.32
520.495	7.32
520.695	7.26
520.896	7.22
521.096	7.28
521.297	7.31
521.497	7.34
521.698	7.33
521.898	7.33
522.099	7.32
522.299	7.29
522.499	7.25
522.7	7.26
522.9	7.29
523.101	7.24
523.301	7.27
523.501	7.22
523.702	7.24
523.902	7.18
524.102	7.22
524.302	7.18
524.503	7.23
524.703	7.21
524.903	7.23
525.103	7.26
525.304	7.26
525.504	7.33
525.704	7.26
525.904	7.34
526.104	7.25
526.304	7.3
526.504	7.24
526.705	7.28
526.905	7.21
527.105	7.3
527.305	7.3
527.505	7.27
527.705	7.26
527.905	7.3
528.105	7.26
528.305	7.2
528.505	7.23
528.705	7.22
528.905	7.14
529.105	7.14
529.304	7.16
529.504	7.15
529.704	7.19
529.904	7.26
530.104	7.32
530.304	7.32
530.503	7.25
530.703	7.18
530.903	7.15
531.103	7.09
531.303	7.09
531.502	7.2
531.702	7.19
531.902	7.22
532.101	7.27
532.301	7.27
532.501	7.22
532.7	7.29
532.9	7.29
533.1	7.3
533.299	7.3
533.499	7.38
533.698	7.32
533.898	7.32
534.097	7.27
534.297	7.27
534.496	7.18
534.696	7.23
534.895	7.27
535.095	7.26
535.294	7.33
535.494	7.33
535.693	7.3
535.892	7.28
536.092	7.26
536.291	7.23
536.491	7.26
536.69	7.36
536.889	7.32
537.088	7.32
537.288	7.32
537.487	7.27
537.686	7.19
537.886	7.26
538.085	7.31
538.284	7.33
538.483	7.33
538.682	7.47
538.882	7.42
539.081	7.36
539.28	7.34
539.479	7.39
539.678	7.35
539.877	7.37
540.076	7.41
540.275	7.43
540.474	7.36
540.673	7.32
540.872	7.29
541.071	7.3
541.27	7.35
541.469	7.3
541.668	7.29
541.867	7.37
542.066	7.39
542.265	7.42
542.464	7.5
542.663	7.57
542.862	7.63
543.06	7.65
543.259	7.7
543.458	7.77
543.657	7.79
543.856	7.82
544.054	7.79
544.253	7.75
544.452	7.74
544.651	7.73
544.849	7.65
545.048	7.64
545.247	7.66
545.445	7.65
545.644	7.61
545.843	7.69
546.041	7.76
546.24	7.79
546.438	7.92
546.637	8.01
546.836	8.04
547.034	8.09
547.233	8.11
547.431	8.08
547.63	8.14
547.828	8.19
548.027	8.19
548.225	8.13
548.423	8.17
548.622	8.13
548.82	8.07
549.019	8.1
549.217	8.12
549.415	8.1
549.614	8.14
549.812	8.14
550.01	8.14
550.209	8.25
550.407	8.29
550.605	8.3
550.803	8.37
551.002	8.42
551.2	8.43
551.398	8.53
551.596	8.56
551.794	8.64
551.993	8.72
552.191	8.78
552.389	8.77
552.587	8.77
552.785	8.8
552.983	8.83
553.181	8.79
553.379	8.87
553.577	9.03
553.775	9.03
553.973	9.04
554.171	9.17
554.369	9.17
554.567	9.13
554.765	9.21
554.963	9.25
555.161	9.2
555.359	9.2
555.557	9.22
555.755	9.16
555.952	9.14
556.15	9.15
556.348	9.28
556.546	9.36
556.744	9.47
556.941	9.51
557.139	9.65
557.337	9.62
557.535	9.65
557.732	9.68
557.93	9.8
558.128	9.8
558.325	9.88
558.523	9.91
558.721	9.94
558.918	9.91
559.116	9.95
559.313	9.88
559.511	9.99
559.708	10.12
559.906	10.24
560.104	10.26
560.301	10.5
560.498	10.46
560.696	10.47
560.893	10.56
561.091	10.62
561.288	10.61
561.486	10.69
561.683	10.72
561.88	10.7
562.078	10.73
562.275	10.67
562.473	10.71
562.67	10.78
562.867	10.81
563.064	10.88
563.262	10.96
563.459	11.05
563.656	11
563.853	10.98
564.051	10.95
564.248	11.02
564.445	11.04
564.642	11.06
564.839	11.14
565.036	11.3
565.234	11.26
565.431	11.27
565.628	11.38
565.825	11.38
566.022	11.43
566.219	11.48
566.416	11.51
566.613	11.55
566.81	11.67
567.007	11.56
567.204	11.6
567.401	11.64
567.598	11.68
567.795	11.72
567.991	11.78
568.188	11.86
568.385	11.81
568.582	11.85
568.779	11.76
568.976	11.89
569.172	11.88
569.369	11.97
569.566	11.95
569.763	12.06
569.96	12.02
570.156	12.06
570.353	12.02
570.55	12.08
570.746	12.07
570.943	12.06
571.14	12.07
571.336	12.13
571.533	12.1
571.729	12.07
571.926	12.11
572.123	12.06
572.319	12.09
572.516	12.11
572.712	12.2
572.909	12.23
573.105	12.3
573.302	12.31
573.498	12.31
573.695	12.13
573.891	12.17
574.087	12.1
574.284	12.08
574.48	12.06
574.677	12.19
574.873	12.09
575.069	12.15
575.266	12.15
575.462	12.2
575.658	12.14
575.854	12.21
576.051	12.09
576.247	12.11
576.443	12.08
576.639	12.15
576.835	12.03
577.032	12.03
577.228	12.04
577.424	12.04
577.62	11.95
577.816	11.95
578.012	12.06
578.208	12
578.404	11.99
578.6	12.06
578.796	12.15
578.993	12.23
579.189	12.22
579.384	12.23
579.58	12.24
579.776	12.24
579.972	11.97
580.168	11.9
580.364	11.87
580.56	11.78
580.756	11.68
580.952	11.78
581.148	11.84
581.343	11.89
581.539	11.91
581.735	11.91
581.931	11.83
582.127	11.82
582.322	11.75
582.518	11.68
582.714	11.72
582.909	11.81
583.105	11.73
583.301	11.71
583.496	11.67
583.692	11.63
583.888	11.52
584.083	11.48
584.279	11.51
584.474	11.53
584.67	11.52
584.866	11.53
585.061	11.56
585.257	11.43
585.452	11.4
585.648	11.36
585.843	11.36
586.039	11.46
586.234	11.53
586.429	11.5
586.625	11.6
586.82	11.58
587.015	11.45
587.211	11.31
587.406	11.27
587.601	11.17
587.797	11.12
587.992	11.08
588.187	11.16
588.383	11.32
588.578	11.36
588.773	11.32
588.968	11.4
589.163	11.41
589.359	11.34
589.554	11.27
589.749	11.42
589.944	11.38
590.139	11.45
590.334	11.4
590.529	11.43
590.724	11.4
590.919	11.42
591.114	11.39
591.309	11.4
591.504	11.42
591.699	11.38
591.894	11.37
592.089	11.36
592.284	11.38
592.479	11.43
592.674	11.44
592.869	11.51
593.064	11.61
593.259	11.62
593.454	11.56
593.648	11.62
593.843	11.56
594.038	11.53
594.233	11.55
594.428	11.64
594.622	11.68
594.817	11.7
595.012	11.67
595.206	11.72
595.401	11.73
595.596	11.67
595.79	11.72
595.985	11.81
596.18	11.86
596.374	11.84
596.569	11.91
596.763	12.01
596.958	12.1
597.153	12.02
597.347	12.1
597.542	12.14
597.736	12.17
597.931	12.12
598.125	12.27
598.319	12.36
598.514	12.35
598.708	12.3
598.903	12.29
599.097	12.31
599.291	12.26
599.486	12.33
599.68	12.38
599.874	12.4
600.069	12.38
600.263	12.36
600.457	12.37
600.651	12.36
600.846	12.36
601.04	12.31
601.234	12.26
601.428	12.3
601.622	12.37
601.817	12.37
602.011	12.43
602.205	12.56
602.399	12.53
602.593	12.51
602.787	12.47
602.981	12.53
603.175	12.49
603.369	12.47
603.563	12.46
603.757	12.47
603.951	12.31
604.145	12.33
604.339	12.35
604.533	12.31
604.727	12.39
604.921	12.5
605.115	12.46
605.309	12.4
605.502	12.44
605.696	12.4
605.89	12.32
606.084	12.3
606.278	12.32
606.471	12.26
606.665	12.22
606.859	12.17
607.053	12.16
607.246	12.12
607.44	12.17
607.634	12.13
607.827	12.15
608.021	11.98
608.214	11.96
608.408	11.85
608.602	11.93
608.795	11.9
608.989	11.99
609.182	12
609.376	12.06
609.569	11.92
609.763	11.91
609.956	11.91
610.15	11.76
610.343	11.67
610.537	11.59
610.73	11.6
610.923	11.55
611.117	11.46
611.31	11.44
611.504	11.49
611.697	11.48
611.89	11.35
612.083	11.36
612.277	11.24
612.47	11.2
612.663	11.01
612.856	11.02
613.05	11.03
613.243	11.02
613.436	10.91
613.629	10.95
613.822	10.91
614.015	10.91
614.209	10.83
614.402	10.85
614.595	10.79
614.788	10.76
614.981	10.68
615.174	10.67
615.367	10.54
615.56	10.45
615.753	10.44
615.946	10.36
616.139	10.39
616.332	10.43
616.525	10.4
616.718	10.34
616.911	10.29
617.103	10.21
617.296	10.2
617.489	10.23
617.682	10.29
617.875	10.36
618.067	10.39
618.26	10.29
618.453	10.18
618.646	10.07
618.838	9.96
619.031	9.87
619.224	9.91
619.417	10.06
619.609	10.13
619.802	10.15
619.994	10.16
620.187	10.18
620.38	10.06
620.572	9.95
620.765	9.96
620.957	9.87
621.15	9.8
621.342	9.79
621.535	9.84
621.727	9.83
621.92	9.91
622.112	9.86
622.305	9.84
622.497	9.8
622.69	9.68
622.882	9.64
623.074	9.71
623.267	9.7
623.459	9.64
623.651	9.67
623.844	9.59
624.036	9.61
624.228	9.6
624.42	9.6
624.613	9.66
624.805	9.7
624.997	9.64
625.189	9.62
625.381	9.67
625.574	9.6
625.766	9.6
625.958	9.56
626.15	9.62
626.342	9.56
626.534	9.57
626.726	9.48
626.918	9.42
627.11	9.39
627.302	9.36
627.494	9.24
627.686	9.27
627.878	9.35
628.07	9.29
628.262	9.3
628.454	9.36
628.646	9.33
628.838	9.33
629.029	9.25
629.221	9.19
629.413	9.11
629.605	9.04
629.797	8.99
629.989	9.07
630.18	9.04
630.372	9.02
630.564	9.08
630.755	9.01
630.947	8.96
631.139	8.95
631.33	8.88
631.522	8.85
631.714	8.86
631.905	8.82
632.097	8.8
632.289	8.91
632.48	8.91
632.672	8.79
632.863	8.74
633.055	8.77
633.246	8.73
633.438	8.62
633.629	8.7
633.821	8.7
634.012	8.62
634.203	8.52
634.395	8.68
634.586	8.76
634.777	8.77
634.969	8.8
635.16	8.89
635.351	8.81
635.543	8.7
635.734	8.7
635.925	8.73
636.117	8.72
636.308	8.7
636.499	8.72
636.69	8.64
636.881	8.61
637.073	8.67
637.264	8.68
637.455	8.61
637.646	8.62
637.837	8.58
638.028	8.49
638.219	8.43
638.41	8.51
638.601	8.49
638.792	8.52
638.983	8.47
639.174	8.45
639.365	8.31
639.556	8.28
639.747	8.27
639.938	8.37
640.129	8.46
640.32	8.5
640.511	8.57
640.701	8.6
640.892	8.62
641.083	8.58
641.274	8.56
641.465	8.5
641.655	8.45
641.846	8.46
642.037	8.34
642.228	8.29
642.418	8.28
642.609	8.23
642.8	8.08
642.99	8.07
643.181	8.1
643.372	8.1
643.562	8.15
643.753	8.28
643.943	8.3
644.134	8.27
644.324	8.34
644.515	8.34
644.705	8.17
644.896	8.3
645.086	8.26
645.277	8.23
645.467	8.2
645.658	8.2
645.848	7.98
646.038	8.05
646.229	8
646.419	7.96
646.61	8.06
646.8	8.21
646.99	8.24
647.18	8.21
647.371	8.16
647.561	8.07
647.751	8.01
647.941	7.89
648.132	7.85
648.322	7.93
648.512	7.97
648.702	7.99
648.892	8.03
649.082	8.01
649.272	7.93
649.462	7.9
649.653	7.91
649.843	7.87
650.033	8
650.223	7.95
650.413	8.01
650.603	8.03
650.793	8.09
650.983	7.97
651.172	8.02
651.362	7.94
651.552	7.9
651.742	7.75
651.932	7.86
652.122	7.88
652.312	7.81
652.502	7.73
652.691	7.82
652.881	7.79
653.071	7.85
653.261	7.77
653.45	7.79
653.64	7.82
653.83	7.76
654.019	7.61
654.209	7.68
654.399	7.64
654.588	7.58
654.778	7.55
654.968	7.52
655.157	7.56
655.347	7.61
655.536	7.55
655.726	7.45
655.915	7.45
656.105	7.26
656.294	7.1
656.484	7.08
656.673	7.09
656.863	7.16
657.052	7.23
657.241	7.26
657.431	7.18
657.62	7.15
657.809	7.01
657.999	7.05
658.188	6.96
658.377	6.94
658.567	6.88
658.756	6.87
658.945	6.77
659.134	6.7
659.324	6.73
659.513	6.71
659.702	6.53
659.891	6.5
660.08	6.54
660.269	6.42
660.458	6.35
660.648	6.46
660.837	6.41
661.026	6.21
661.215	6.22
661.404	6.22
661.593	6.15
661.782	6.03
661.971	6.16
662.16	6.15
662.349	6.14
662.538	6.1
662.726	6.14
662.915	6.12
663.104	6.06
663.293	5.96
663.482	6
663.671	6.09
663.86	5.99
664.048	5.99
664.237	6.14
664.426	6.11
664.615	6.01
664.803	6.01
664.992	5.93
665.181	5.85
665.369	5.91
665.558	5.92
665.747	6.05
665.935	6.21
666.124	6.27
666.312	6.19
666.501	6.32
666.69	6.3
666.878	6.21
667.067	6.11
667.255	6.25
667.444	6.23
667.632	6.32
667.82	6.35
668.009	6.48
668.197	6.48
668.386	6.42
668.574	6.29
668.762	6.45
668.951	6.48
669.139	6.36
669.327	6.36
669.516	6.45
669.704	6.33
669.892	6.26
670.08	6.28
670.269	6.22
670.457	6.18
670.645	6.14
670.833	6.18
671.021	6.29
671.21	6.49
671.398	6.54
671.586	6.52
671.774	6.58
671.962	6.61
672.15	6.58
672.338	6.65
672.526	6.85
672.714	7
672.902	6.89
673.09	6.87
673.278	6.83
673.466	6.91
673.654	6.99
673.842	7.13
674.03	7.35
674.218	7.49
674.405	7.53
674.593	7.49
674.781	7.56
674.969	7.55
675.157	7.61
675.344	7.49
675.532	7.59
675.72	7.55
675.908	7.42
676.095	7.43
676.283	7.61
676.471	7.51
676.658	7.6
676.846	7.69
677.033	7.81
677.221	7.75
677.409	7.79
677.596	7.84
677.784	7.91
677.971	7.9
678.159	8
678.346	8.05
678.534	8.09
678.721	8.25
678.909	8.21
679.096	8.27
679.283	8.15
679.471	8.15
679.658	8.13
679.846	8.12
680.033	8.29
680.22	8.66
680.408	8.71
680.595	8.72
680.782	8.8
680.969	8.68
681.157	8.46
681.344	8.58
681.531	8.63
681.718	8.65
681.905	8.7
682.093	8.88
682.28	8.96
682.467	9.13
682.654	9.17
682.841	9.06
683.028	9.06
683.215	9.11
683.402	8.99
683.589	9
683.776	9.16
683.963	9.32
684.15	9.28
684.337	9.33
684.524	9.5
684.711	9.62
684.898	9.57
685.085	9.53
685.271	9.69
685.458	9.82
685.645	9.79
685.832	9.72
686.019	9.86
686.205	9.9
686.392	9.93
686.579	10.17
686.766	10.42
686.952	10.51
687.139	10.66
687.326	10.68
687.512	10.68
687.699	10.77
687.886	11.04
688.072	11.02
688.259	11.27
688.445	11.54
688.632	11.52
688.818	11.57
689.005	11.68
689.191	11.89
689.378	11.94
689.564	12.29
689.751	12.2
689.937	12.48
690.124	12.49
690.31	12.67
690.496	12.99
690.683	13.55
690.869	13.7
691.055	13.91
691.242	14.16
691.428	14.11
691.614	14.11
691.8	14.44
691.987	14.73
692.173	15.01
692.359	15.55
692.545	15.99
692.731	16.24
692.918	16.72
693.104	17.09
693.29	17.16
693.476	17.42
693.662	17.85
693.848	18.09
694.034	18.46
694.22	19.24
694.406	19.68
694.592	19.91
694.778	20.07
694.964	20.43
695.15	20.46
695.336	20.67
695.522	21.32
695.708	21.91
695.894	22.3
696.08	23.09
696.265	23.94
696.451	24.43
696.637	24.86
696.823	25.32
697.009	25.64
697.194	25.88
697.38	26.03
697.566	26.58
697.751	26.84
697.937	27.17
698.123	27.74
698.308	28.26
698.494	28.69
698.68	29.32
698.865	29.77
699.051	29.84
699.236	30.43
699.422	30.76
699.607	31.17
699.793	31.75
699.978	32.39
700.164	32.92
700.349	33.34
700.535	33.55
700.72	33.7
700.906	34.14
701.091	34.33
701.276	34.9
701.462	35.61
701.647	36.6
701.832	36.98
702.018	37.7
702.203	38.11
702.388	38.36
702.573	38.41
702.759	39.24
702.944	39.33
703.129	39.81
703.314	40.5
703.499	40.89
703.684	41.01
703.87	41.31
704.055	41.77
704.24	42.15
704.425	42.72
704.61	43.17
704.795	43.92
704.98	44.27
705.165	44.56
705.35	44.88
705.535	45.11
705.72	45.34
705.905	45.75
706.09	45.89
706.275	46.2
706.459	46.65
706.644	46.98
706.829	47.45
707.014	48.54
707.199	48.84
707.384	48.87
707.568	49.1
707.753	49.11
707.938	48.75
708.123	48.8
708.307	49.2
708.492	49.39
708.677	49.38
708.861	49.91
709.046	50.31
709.231	50.62
709.415	50.99
709.6	51.37
709.784	51.52
709.969	51.76
710.153	52.15
710.338	52.77
710.522	53.29
710.707	53.71
710.891	53.87
711.076	54.18
711.26	54.06
711.445	54.69
711.629	54.76
711.813	55.65
711.998	55.74
712.182	55.76
712.366	56.01
712.551	56.12
712.735	56.2
712.919	56.3
713.103	56.61
713.288	56.18
713.472	56.33
713.656	56.22
713.84	56.46
714.024	57.2
714.208	57.54
714.393	57.85
714.577	57.88
714.761	57.56
714.945	57.73
715.129	57.88
715.313	58.21
715.497	58.62
715.681	59.17
715.865	59.04
716.049	58.98
716.233	58.92
716.417	59.15
716.601	59.32
716.785	59.76
716.968	60.11
717.152	60.52
717.336	60.85
717.52	61.22
717.704	61.2
717.888	61.51
718.071	61.88
718.255	61.69
718.439	61.59
718.622	61.78
718.806	61.32
718.99	60.59
719.174	60.66
719.357	61.43
719.541	61.56
719.724	62.14
719.908	62.34
720.092	62.57
720.275	62.59
720.459	62.7
720.642	62.87
720.826	63.24
721.009	63.43
721.193	62.76
721.376	63.11
721.559	63.4
721.743	63.77
721.926	63.75
722.11	64.5
722.293	64.32
722.476	64.42
722.66	64.97
722.843	65.18
723.026	64.77
723.21	64.78
723.393	64.48
723.576	64.41
723.759	64
723.942	64.22
724.126	64.62
724.309	65.22
724.492	65.33
724.675	66.03
724.858	67.01
725.041	67.02
725.224	67.35
725.407	67.35
725.59	67.9
725.774	67.9
725.957	68.23
726.14	68.18
726.322	68.27
726.505	68.43
726.688	68.61
726.871	68.93
727.054	69.05
727.237	69.67
727.42	69.98
727.603	70.46
727.786	70.92
727.968	71.09
728.151	70.78
728.334	70.53
728.517	70.27
728.699	69.9
728.882	70.43
729.065	70.47
729.248	70.61
729.43	70.61
729.613	71.26
729.796	71.88
729.978	73.04
730.161	73.78
730.343	74.54
730.526	74.42
730.708	74.18
730.891	73.52
731.073	73.4
731.256	73.45
731.438	73.27
731.621	72.7
731.803	73.27
731.986	74.22
732.168	74.36
732.35	74.92
732.533	76.44
732.715	76.89
732.898	75.68
733.08	75.86
733.262	76.22
733.444	75.18
733.627	74.82
733.809	75.6
733.991	75.32
734.173	75.79
734.355	76.2
734.538	76.99
734.72	76.68
734.902	78.26
735.084	78.02
735.266	78.5
735.448	78.72
735.63	79.73
735.812	78.48
735.994	78.18
736.176	78.88
736.358	79.42
736.54	80.18
736.722	80.74
736.904	81.78
737.086	81.01
737.268	80.12
737.45	79.74
737.632	79.57
737.814	79.71
737.995	80.56
738.177	80.55
738.359	80.17
738.541	80.7
738.723	81.31
738.904	81.56
739.086	83.12
739.268	83.08
739.449	84.14
739.631	83.84
739.813	84.37
739.994	84.03
740.176	85.01
740.358	84.3
740.539	84.14
740.721	82.96
740.902	83.08
741.084	83.04
741.265	83.05
741.447	83.31
741.628	83.85
741.81	83.86
741.991	84.41
742.172	84.99
742.354	85.27
742.535	85.14
742.717	85.48
742.898	85.51
743.079	86.31
743.261	86.62
743.442	87.63
743.623	87.59
743.804	87.09
743.986	85.3
744.167	84.17
744.348	84.6
744.529	84.35
744.71	84.46
744.891	85.78
745.073	86.7
745.254	87.27
745.435	87.6
745.616	87.31
745.797	87.31
745.978	87.68
746.159	86.68
746.34	87.09
746.521	87.2
746.702	87.77
746.883	87.84
747.064	86.75
747.245	86.05
747.426	86.94
747.606	85.97
747.787	86.56
747.968	88.47
748.149	87.7
748.33	87.91
748.51	88.14
748.691	86.3
748.872	85.88
749.053	87.29
749.233	86.92
749.414	87.61
749.595	89.08
749.775	89.18
749.956	88.47
750.137	87.78
750.317	85.7
750.498	84.32
750.678	84.26
750.859	85.92
751.04	86.36
751.22	88.1
751.4	89.32
751.581	88.89
751.761	86.99
751.942	86.41
752.122	87.21
752.303	87.19
752.483	88.71
752.663	91.44
752.844	92.37
753.024	90.77
753.204	91.04
753.385	90.12
753.565	88.27
753.745	86.94
753.925	88.75
754.106	88.85
754.286	88.3
754.466	89.02
754.646	91.4
754.826	90.38
755.006	91.54
755.187	91.45
755.367	90.67
755.547	88.47
755.727	88.32
755.907	86.86
756.087	88.41
756.267	89.11
756.447	90.61
756.627	88.95
756.807	89.28
756.987	87.35
757.167	87.67
757.346	87.78
757.526	89.56
757.706	90.01
757.886	90.74
758.066	91.34
758.246	89.88
758.425	88.93
758.605	87.91
758.785	88.22
758.965	87.81
759.144	88.17
759.324	89.04
759.504	90.29
759.683	90.52
759.863	89.26
760.043	90.34
760.222	92.26
760.402	91.22
760.581	92.58
760.761	93.62
760.94	91.63
761.12	90.02
761.299	89.12
761.479	86.14
761.658	85.1
761.838	85.5
762.017	85.3
762.197	87.11
762.376	88.65
762.555	88.65
762.735	90.52
762.914	88.87
763.093	88.97
763.273	86.97
763.452	87.43
763.631	86.72
763.81	87.3
763.99	85.46
764.169	86
764.348	85.1
764.527	85.61
764.706	87.51
764.885	87.99
765.064	87.69
765.243	88.71
765.423	87
765.602	85.4
765.781	85.02
765.96	85.51
766.139	84.44
766.318	86.02
766.497	85.44
766.676	84.17
766.854	84.8
767.033	85.8
767.212	85.28
767.391	86.93
767.57	89.15
767.749	90.51
767.928	90.48
768.106	90.85
768.285	89.05
768.464	88.22
768.643	84.98
768.821	83.98
769	83.81
769.179	83.44
769.357	83.67
769.536	85.99
769.715	87.38
769.893	84.9
770.072	86.17
770.25	86.02
770.429	86.85
770.607	85.3
770.786	89.45
770.964	89.55
771.143	90.47
771.321	89.01
771.5	93.63
771.678	90.52
771.857	91.58
772.035	90.37
772.213	90.95
772.392	86.72
772.57	87.24
772.748	86.29
772.927	87.43
773.105	87.59
773.283	87.84
773.461	88.67
773.64	90.31
773.818	89.17
773.996	88.26
774.174	87.94
774.352	88.11
774.531	84
774.709	84.86
774.887	84.72
775.065	83.97
775.243	83.37
775.421	83.85
775.599	83.42
775.777	83
775.955	79.15
776.133	80.64
776.311	82.13
776.489	83.39
776.667	83.14
776.844	89.2
777.022	85.54
777.2	85.88
777.378	83.93
777.556	84.89
777.734	82.65
777.911	85.61
778.089	85.73
778.267	87.76
778.445	86.5
778.622	86.73
778.8	84.76
778.978	82.47
779.155	80.79
779.333	79.12
779.511	75.7
779.688	76.46
779.866	74.79
780.043	74.46
780.221	78.11
780.398	82.89
780.576	79.83
780.753	83.75
780.931	83.72
781.108	83.03
781.286	83.53
781.463	85
781.64	86.97
781.818	87.85
781.995	87.39
782.172	86.98
782.35	89
782.527	86.8
782.704	87.99
782.882	88.84
783.059	86.72
783.236	84.86
783.413	88.35
783.59	86.69
783.768	80.15
783.945	82.53
784.122	84.62
784.299	82.42
784.476	83.9
784.653	88.32
784.83	87.66
785.007	86.52
785.184	87.98
785.361	88.92
785.538	91.63
785.715	89.81
785.892	92.3
786.069	90.82
786.246	89.84
786.423	91.44
786.6	94.65
786.776	90.9
786.953	87.59
787.13	85.11
787.307	82.5
787.484	81.12
787.66	83.86
787.837	86.65
788.014	88.13
788.191	90.86
788.367	89.9
788.544	91.84
788.721	93.62
788.897	95.56
789.074	90.37
789.25	88.16
789.427	86.44
789.603	88.07
789.78	85.94
789.956	91.57
790.133	94.69
790.309	94.47
790.486	90.6
790.662	93.47
790.839	87.09
791.015	89.44
791.192	88.23
791.368	91.44
791.544	87.51
791.721	90.66
791.897	89.75
792.073	89.47
792.249	83.7
792.426	85.89
792.602	83.55
792.778	83.27
792.954	82.96
793.13	87.95
793.307	88.78
793.483	89.02
793.659	87.66
793.835	86.92
794.011	82.89
794.187	76.25
794.363	76.39
794.539	77.73
794.715	74.35
794.891	73.5
795.067	74.72
795.243	79.52
795.419	77.24
795.595	76.85
795.771	76.36
795.947	85.65
796.122	75.6
796.298	77.75
796.474	83.11
796.65	87.23
796.826	79.62
797.001	95.65
797.177	94.39
797.353	92.73
797.529	93.87
797.704	94.3
797.88	86.3
798.056	86.03
798.231	84.58
798.407	78.18
798.582	76.38
798.758	82.96
798.934	87
799.109	93.35
799.285	97.14
799.46	99.72
799.636	95.26
799.811	91.56
799.986	93.2
800.162	93.13
800.337	98.09
800.513	91.76
800.688	97.53
800.863	87.51
801.039	88.33
801.214	78.75
801.389	85.13
801.565	82.21
801.74	88.3
801.915	87.31
802.09	93.34
802.265	92.14
802.441	93.57
802.616	92.93
802.791	91.66
802.966	87.97
803.141	84.05
803.316	74.07
803.491	68.76
803.666	63.44
803.841	71.69
804.016	72.7
804.191	83.34
804.366	93.43
804.541	100.69
804.716	96.36
804.891	94.96
805.066	90.13
805.241	91.11
805.416	89.97
805.591	88.75
805.765	89.55
805.94	89.72
806.115	85.5
806.29	87.23
806.464	103.06
806.639	102.88
806.814	96.72
806.989	87.89
807.163	96.19
807.338	82.04
807.512	74.7
807.687	78.26
807.862	84.21
808.036	75.41
808.211	71.81
808.385	79.13
808.56	83.05
808.734	81.2
808.909	80.26
809.083	83.27
809.258	83.24
809.432	81.3
809.606	79.36
809.781	82.75
809.955	87.02
810.13	88.41
810.304	82.48
810.478	80.53
810.652	83.78
810.827	80.2
811.001	76.83
811.175	88.35
811.349	98.47
811.524	97.72
811.698	102.64
811.872	109.01
812.046	109.17
812.22	105.74
812.394	91.47
812.568	89.82
812.742	93.58
812.916	84.33
813.09	93.65
813.264	106.09
813.438	96.7
813.612	93.18
813.786	88.12
813.96	82.46
814.134	84.2
814.308	98.09
814.482	95.18
814.656	104.27
814.83	93.43
815.003	89.25
815.177	87.59
815.351	86.16
815.525	86.73
815.698	87.16
815.872	89.48
816.046	83
816.219	75.32
816.393	76.74
816.567	90.46
816.74	93.88
816.914	103.58
817.088	138.9
817.261	149.49
817.435	140.28
817.608	142.68
817.782	132.1
817.955	114.18
818.129	115.88
818.302	100.8
818.475	101.22
818.649	103.9
818.822	93.31
818.996	74.99
819.169	70.35
819.342	68.61
819.516	72.03
819.689	81.65
819.862	105.86
820.035	113.9
820.209	99.26
820.382	100.52
820.555	98.05
820.728	104.76
820.901	98.73
821.075	119.92
821.248	131.24
821.421	113.84
821.594	98.38
821.767	107.41
821.94	95.02
822.113	68.94
822.286	64.81
822.459	53.06
822.632	52.15
822.805	74.55
822.978	94.07
823.151	117.31
823.324	128.08
823.496	92.06
823.669	76.05
823.842	85.74
824.015	76.34
824.188	61.83
824.361	84.15
824.533	84.6
824.706	66.71
824.879	70.93
825.051	84.44
825.224	91.58
825.397	89.1
825.569	96.94
825.742	95.72
825.915	83.82
826.087	77.23
826.26	74.35
826.432	79.32
826.605	68.33
826.777	66.62
826.95	71.08
827.122	69.86
827.295	49.53
827.467	61.93
827.64	50.48
827.812	51.96
827.984	67.57
828.157	85.78
828.329	97.81
828.501	124.31
828.674	115.04
828.846	107.55
829.018	123.56
829.19	121.35
829.363	102.12
829.535	107.96
829.707	110.77
829.879	88.71
830.051	71.26
830.223	88.99
830.395	83.93
830.568	69.32
830.74	70.96
830.912	83.94
831.084	66.6
831.256	72.49
831.428	73.25
831.6	91.06
831.772	95.68
831.943	76.38
832.115	78.29
832.287	94.17
832.459	93.56
832.631	85.71
832.803	131.76
832.975	132.46
833.146	120.68
833.318	73.95
833.49	71.99
833.662	66.66
833.833	75.1
834.005	79.7
834.177	108.64
834.348	119.37
834.52	105.14
834.692	132.1
834.863	134.04
835.035	126.61
835.206	114.16
835.378	120.44
835.549	102.68
835.721	104
835.892	98.08
836.064	130.86
836.235	138.96
836.407	152.3
836.578	126.14
836.749	141.65
836.921	127.4
837.092	134.8
837.264	116.17
837.435	113.11
837.606	90.48
837.777	62.27
837.949	59.32
838.12	27.83
838.291	57.38
838.462	98.56
838.633	99.19
838.805	104.84
838.976	145.04
839.147	136.29
839.318	136.33
839.489	95.17
839.66	138
839.831	117.97
840.002	106.44
840.173	60.07
840.344	105.94
840.515	49.47
840.686	38.34
840.857	66.73
841.028	85.19
841.199	79.06
841.369	81.13
841.54	75.28
841.711	82.78
841.882	85.48
842.053	93.85
842.223	125.98
842.394	116.18
842.565	115.39
842.736	103.76
842.906	79.09
843.077	78.75
843.248	80.98
843.418	93.45
843.589	97.83
843.759	156.11
843.93	163.93
844.101	526.46
844.271	182.68
844.442	190.88
844.612	126.72
844.783	144.25
844.953	84.15
845.123	75.73
845.294	54.5
845.464	67.33
845.635	87.99
845.805	132.44
845.975	133.2
846.146	154.33
846.316	293.46
846.486	174.13
846.656	181.76
846.827	171.6
846.997	120.78
847.167	115.3
847.337	71.44
847.507	83.56
847.677	67.68
847.848	123.54
848.018	126.58
848.188	147.37
848.358	107.22
848.528	149.49
848.698	122.11
848.868	100.22
849.038	70.41
849.208	58.68
849.378	25.85
849.548	-24.09
849.718	-49.6
849.887	75.24
850.057	-1380.65
850.227	606.01
850.397	689.93
850.567	-40.32
850.737	19.43
850.906	22.37
851.076	36.56
851.246	83.39
851.415	100.59
851.585	107.58
851.755	134.19
851.924	124.72
852.094	133.59
852.264	90.98
852.433	70.07
852.603	49.88
852.772	39.3
852.942	32.73
853.111	38.67
853.281	101.09
853.45	114.04
853.62	120.31
853.789	125.21
853.959	179.78
854.128	-86.32
854.297	30.67
854.467	128.8
854.636	-19.91
854.805	97.12
854.975	51.08
855.144	35.61
855.313	40.32
855.482	74.66
855.652	61.93
855.821	42
855.99	110.87
856.159	529.54
856.328	171.18
856.497	291.12
856.667	256.18
856.836	289.35
857.005	208.83
857.174	184.1
857.343	175.55
857.512	140.81
857.681	63.69
857.85	24.97
858.019	33.54
858.188	0.45
858.356	-46.76
858.525	-9.15
858.694	20.77
858.863	28.98
859.032	39.94
859.201	73.54
859.369	65.88
859.538	42.84
859.707	24.69
859.876	30.11
860.044	25.51
860.213	52.87
860.382	101.5
860.55	110.62
860.719	114.4
860.888	114.52
861.056	120.33
861.225	115.02
861.393	160.82
861.562	232.78
861.73	244.39
861.899	192.91
862.067	325.91
862.236	275.2
862.404	108.99
862.572	22.38
862.741	36.43
862.909	98.22
863.078	79.92
863.246	94.58
863.414	173.7
863.582	110.99
863.751	118.32
863.919	119.57
864.087	97.17
864.255	38.11
864.424	21.86
864.592	6.89
864.76	72.35
864.928	98.72
865.096	104.56
865.264	116.72
865.432	152.07
865.6	180.05
865.768	116.84
865.936	102.94
866.104	149.9
866.272	103.11
866.44	36
866.608	16.1
866.776	73.65
866.944	52.62
867.112	42.77
867.28	22.88
867.448	72.42
867.615	42.73
867.783	77.85
867.951	63.97
868.119	101.43
868.286	124.17
868.454	106.66
868.622	108.37
868.789	459.69
868.957	-783.71
869.125	-437.01
869.292	388.63
869.46	-215.98
869.627	-875.43
869.795	-117.74
869.963	8.24
870.13	67.23
870.298	83.24
870.465	111.17
870.632	118.88
870.8	124.45
870.967	144.75
871.135	71.33
871.302	-12.62
871.469	119.26
871.637	75.06
871.804	35.48
871.971	42.9
872.139	43.45
872.306	56.04
872.473	219.1
872.64	5.06
872.807	62.88
872.975	24.75
873.142	65.68
873.309	53.62
873.476	83.83
873.643	84
873.81	92.11
873.977	70.58
874.144	156.16
874.311	220.23
874.478	240.16
874.645	230.42
874.812	371.56
874.979	22.75
875.146	33.83
875.313	142.32
875.48	-246.47
875.647	878.55
875.813	1205.06
875.98	-89.27
876.147	21.01
876.314	33.8
876.481	36.57
876.647	91.55
876.814	122.79
876.981	154.94
877.147	143.81
877.314	31.22
877.481	117.54
877.647	169.62
877.814	326.41
877.98	99.7
878.147	-419.56
878.314	-253.78
878.48	536.03
878.647	205.34
878.813	1280.58
878.979	70.42
879.146	51.3
879.312	75.26
879.479	85.45
879.645	91.54
879.811	119.56
879.978	120.78
880.144	254.19
880.31	493.63
880.477	-316.78
880.643	43.24
880.809	-2321.95
880.975	-76.38
881.142	-221.35
881.308	-129.06
881.474	116.17
881.64	65.85
881.806	84.74
881.972	133.3
882.138	135.21
882.304	123.6
882.47	102.84
882.636	99.05
882.802	87.15
882.968	83.38
883.134	39.07
883.3	80.07
883.466	108.93
883.632	135.39
883.798	130.11
883.964	213.24
884.129	228.8
884.295	300.9
884.461	291.55
884.627	96.65
884.793	-35.03
884.958	-117.49
885.124	-586.14
885.29	-25.39
885.455	76.88
885.621	33.38
885.787	67.89
885.952	41.13
886.118	222.64
886.283	147.06
886.449	304.06
886.614	120.02
886.78	155.64
886.945	104.19
887.111	115.42
887.276	107.14
887.442	154.54
887.607	153.17
887.773	268.46
887.938	202.42
888.103	282.93
888.269	383.65
888.434	-1435.29
888.599	155.69
888.764	1833.01
888.93	131.68
889.095	103.12
889.26	139.96
889.425	188.63
889.59	160.25
889.756	199.62
889.921	210.37
890.086	169.9
890.251	63
890.416	1.77
890.581	-121.06
890.746	-75.18
890.911	16.51
891.076	116.09
891.241	108.81
891.406	33828.57
891.571	700.65
891.736	-213.62
891.901	-128.31
892.065	-105.63
892.23	-188.58
892.395	-50.93
892.56	1350.34
892.725	-229.69
892.889	-810.93
893.054	-3001.32
893.219	-3864.75
893.384	-588.13
893.548	-645.96
893.713	-333.88
893.878	-366.49
