Data from Ofav_SP_Phys_4JQ12_Reflection_1.txt Node
Date: Thu Aug 05 17:52:23 EDT 2021
User: Adam
Spectrometer: FLMT01687
Trigger mode: 0
Integration Time (sec): 8.000000E-1
Scans to average: 2
Electric dark correction enabled: true
Nonlinearity correction enabled: false
Boxcar width: 2
XAxis mode: Wavelengths
Number of Pixels in Spectrum: 3648
>>>>>Begin Spectral Data<<<<<
179.494	657.07
179.716	748.74
179.937	608.51
180.158	718.79
180.38	1753.09
180.601	-839.33
180.823	-95.63
181.044	-60.89
181.265	3.09
181.486	51.17
181.708	-640.94
181.929	-72.74
182.15	-404.49
182.372	11.43
182.593	13.02
182.814	-171.79
183.035	-145.03
183.257	-489.32
183.478	498.64
183.699	-531
183.92	-124.54
184.141	568.16
184.363	-354.05
184.584	162.97
184.805	113.25
185.026	109.18
185.247	84.76
185.468	77.55
185.689	92.32
185.91	63.05
186.132	8.99
186.353	-2.94
186.574	-60.95
186.795	-48.47
187.016	-28.2
187.237	-43.8
187.458	-201.94
187.679	-23.73
187.9	7.2
188.121	-26.45
188.342	37.1
188.563	50.42
188.784	106.42
189.005	68.12
189.226	122.26
189.447	127.2
189.667	235.71
189.888	175.09
190.109	121.65
190.33	70.3
190.551	47.44
190.772	49.55
190.993	89.79
191.214	74.14
191.434	47.9
191.655	51.37
191.876	65.45
192.097	39.96
192.318	53.3
192.538	101.24
192.759	118.38
192.98	59.18
193.201	162.52
193.421	102.07
193.642	116.03
193.863	77.54
194.083	67.45
194.304	59.91
194.525	63.02
194.745	7.73
194.966	17.07
195.187	24.4
195.407	49.07
195.628	28.06
195.848	100
196.069	63.48
196.29	48.41
196.51	30.67
196.731	27.84
196.951	44.35
197.172	50.64
197.392	59.96
197.613	51.7
197.833	96.29
198.054	84.68
198.274	72.99
198.495	62.32
198.715	41.7
198.936	-16.03
199.156	0.55
199.377	37.1
199.597	45.05
199.817	53.29
200.038	44
200.258	40.56
200.479	27.42
200.699	21.35
200.919	7.55
201.14	-45.72
201.36	-86.31
201.58	-46.24
201.801	-164.76
202.021	-135.67
202.241	-6.33
202.461	27.52
202.682	-17.93
202.902	47.45
203.122	151.06
203.342	90.76
203.563	5.18
203.783	32.57
204.003	51.49
204.223	40.25
204.443	16.71
204.663	37.17
204.884	39.27
205.104	10.56
205.324	47.7
205.544	62.35
205.764	57.48
205.984	52.26
206.204	98.88
206.424	38.18
206.644	30.48
206.864	27.32
207.084	6.95
207.304	59.74
207.525	57.7
207.745	68.98
207.964	68.21
208.184	98.2
208.404	-14.25
208.624	-13.51
208.844	-53.59
209.064	-51.62
209.284	-26.81
209.504	-6.15
209.724	24.51
209.944	22.78
210.164	35.32
210.384	58.24
210.604	28.42
210.823	33.61
211.043	31.46
211.263	28.71
211.483	16.6
211.703	53.51
211.922	50.7
212.142	68.41
212.362	54.68
212.582	47.83
212.801	24.58
213.021	55.02
213.241	33.35
213.461	-1.41
213.68	-4.14
213.9	-19.92
214.12	-77.85
214.339	-58.61
214.559	14.54
214.779	-6.85
214.998	20.65
215.218	36.07
215.438	78.49
215.657	89.69
215.877	124.42
216.096	65.67
216.316	79.45
216.535	-22.13
216.755	-134.92
216.974	-348.81
217.194	36.43
217.413	39.68
217.633	51.31
217.852	64.19
218.072	67.51
218.291	28.83
218.511	33.1
218.73	7.76
218.95	-35.05
219.169	-85.44
219.389	-20.55
219.608	-82.55
219.827	-15.34
220.047	34.64
220.266	66.06
220.485	50.9
220.705	73.23
220.924	55.75
221.143	37.37
221.363	3.69
221.582	60.43
221.801	26.05
222.021	59.95
222.24	88.18
222.459	192.62
222.678	120.88
222.897	151.69
223.117	153.94
223.336	106.4
223.555	81.58
223.774	50.28
223.993	43.97
224.213	25.88
224.432	11.49
224.651	4.92
224.87	9.77
225.089	-14.19
225.308	-52.94
225.527	14.57
225.746	-10.5
225.965	-16.32
226.184	17.98
226.404	24.78
226.623	-32.54
226.842	10.29
227.061	22.18
227.28	19.88
227.499	41.21
227.718	44.37
227.936	17.61
228.155	17.7
228.374	8.47
228.593	8.44
228.812	32.73
229.031	50.51
229.25	60.93
229.469	59.18
229.688	41.05
229.907	23.93
230.125	16.28
230.344	19.33
230.563	23.26
230.782	75.93
231.001	100.58
231.22	100.73
231.438	84.21
231.657	70.82
231.876	49.56
232.095	49.81
232.313	29.33
232.532	-0.61
232.751	13.33
232.969	27.22
233.188	18.52
233.407	1.12
233.625	31.28
233.844	4.13
234.063	12.67
234.281	21.6
234.5	43.29
234.719	93.6
234.937	57.99
235.156	48.36
235.374	55.98
235.593	60.66
235.811	10.28
236.03	42.81
236.249	40.66
236.467	33.51
236.686	39.72
236.904	45.53
237.123	24.19
237.341	49.54
237.559	30.76
237.778	14.52
237.996	19.35
238.215	29.83
238.433	26.14
238.652	48.66
238.87	31.69
239.088	21.07
239.307	13.4
239.525	-17.03
239.743	-22.42
239.962	4
240.18	-13.06
240.398	2.96
240.617	-3.25
240.835	4.6
241.053	-19.32
241.271	-40.05
241.49	-43.27
241.708	-50.55
241.926	-66.97
242.144	-66.8
242.363	-43.47
242.581	-17.47
242.799	-42.23
243.017	-44.12
243.235	-77.03
243.453	-15.84
243.672	-51.36
243.89	-38.92
244.108	13.45
244.326	32.63
244.544	-1.9
244.762	3.9
244.98	27.2
245.198	31.15
245.416	36.06
245.634	48.92
245.852	96.46
246.07	97.42
246.288	56.75
246.506	42.4
246.724	18.66
246.942	15.68
247.16	17.48
247.378	6.89
247.596	10.87
247.814	22.46
248.032	-32.29
248.25	-96.14
248.468	-45.5
248.685	-12.44
248.903	-6.4
249.121	8.23
249.339	62.55
249.557	58
249.775	40.9
249.992	1.01
250.21	36.59
250.428	20.4
250.646	30.69
250.863	51.18
251.081	87.89
251.299	63.31
251.517	93.88
251.734	85.55
251.952	58.65
252.17	93.66
252.387	76.52
252.605	53.74
252.823	48.59
253.04	50.82
253.258	41.36
253.475	58.86
253.693	55.84
253.911	75.89
254.128	71.78
254.346	53.96
254.563	57.21
254.781	54.13
254.998	36.37
255.216	35.92
255.433	26.06
255.651	-24.57
255.868	-12.73
256.086	-18.02
256.303	-36.02
256.521	-11.83
256.738	-43.36
256.956	-97.46
257.173	1.12
257.39	68.01
257.608	18.02
257.825	24.9
258.043	23.12
258.26	-4.92
258.477	-12.45
258.695	13.79
258.912	30.1
259.129	38.35
259.346	48.27
259.564	43.67
259.781	46.13
259.998	45.66
260.216	51.41
260.433	52.28
260.65	38.96
260.867	1.01
261.084	-10.33
261.302	7.15
261.519	8.21
261.736	31.69
261.953	26.67
262.17	36.16
262.387	44.74
262.604	40.96
262.822	54.02
263.039	84.53
263.256	95.17
263.473	56.16
263.69	78.45
263.907	67.07
264.124	89.64
264.341	81.76
264.558	79.59
264.775	57.59
264.992	45.4
265.209	10.07
265.426	-20.82
265.643	-12.39
265.86	-0.08
266.077	-3.76
266.294	10.82
266.51	14.77
266.727	11.79
266.944	43.75
267.161	49.48
267.378	44.51
267.595	50.71
267.812	37.23
268.028	0.32
268.245	4.67
268.462	-19.26
268.679	-44.37
268.896	-27.86
269.112	-44.27
269.329	-58.04
269.546	8.47
269.763	20.36
269.979	44.52
270.196	77.13
270.413	80.75
270.629	101.94
270.846	99.25
271.063	84.21
271.279	71.44
271.496	36.51
271.712	-74.48
271.929	-80.46
272.146	-41.6
272.362	-66.21
272.579	-41.3
272.795	-24.81
273.012	17.69
273.228	-4.57
273.445	11.5
273.661	26.09
273.878	22.64
274.094	-5.24
274.311	19.46
274.527	2.72
274.744	-8.29
274.96	7.94
275.177	13.84
275.393	-7.34
275.609	8.8
275.826	22.08
276.042	42.65
276.259	49.35
276.475	37.9
276.691	36.6
276.908	31.01
277.124	32.33
277.34	33.29
277.557	14.53
277.773	9.25
277.989	13.71
278.205	-20.63
278.422	-47.52
278.638	11.97
278.854	30.15
279.07	23.55
279.286	6.73
279.503	27.54
279.719	18.7
279.935	39.32
280.151	53.56
280.367	80.29
280.583	70.03
280.799	81.34
281.016	66
281.232	59.14
281.448	48.81
281.664	44.26
281.88	37.61
282.096	30.03
282.312	57.74
282.528	45.98
282.744	45.4
282.96	34.02
283.176	44.49
283.392	43.22
283.608	53.96
283.824	28.94
284.04	33.57
284.256	23.94
284.471	13.56
284.687	17.12
284.903	46.25
285.119	57.73
285.335	39.29
285.551	37.66
285.767	13.88
285.982	1.58
286.198	-120.29
286.414	-54.9
286.63	-33.72
286.846	2.17
287.061	11.95
287.277	48.12
287.493	89.24
287.709	68.38
287.924	49.54
288.14	55.36
288.356	52.95
288.571	49.62
288.787	47.41
289.003	70.83
289.218	74.09
289.434	57.52
289.65	31.7
289.865	50.37
290.081	19.93
290.296	19.98
290.512	8.04
290.727	13.99
290.943	2.5
291.159	18.99
291.374	25.09
291.59	39.17
291.805	49.1
292.021	77.24
292.236	57.94
292.451	33.36
292.667	33.86
292.882	-6.61
293.098	-0.39
293.313	22.34
293.529	22.98
293.744	11.62
293.959	-1.81
294.175	4.15
294.39	8.65
294.605	13.45
294.821	22.14
295.036	21.54
295.251	22.02
295.467	18.58
295.682	18.34
295.897	23.39
296.112	42.02
296.328	35.9
296.543	38.56
296.758	13.76
296.973	22.18
297.188	32.2
297.404	26.86
297.619	24.44
297.834	36.65
298.049	22.37
298.264	-6.02
298.479	-5.16
298.694	23.18
298.909	17.42
299.125	20.83
299.34	31.42
299.555	28.96
299.77	31.33
299.985	39.07
300.2	38.67
300.415	28.19
300.63	19.25
300.845	-5.08
301.06	1.29
301.275	-6.02
301.49	8.15
301.704	55.32
301.919	71.83
302.134	60.95
302.349	44.99
302.564	47.21
302.779	27.99
302.994	11.82
303.209	24.7
303.423	43.82
303.638	18.42
303.853	33.35
304.068	39.55
304.283	33.9
304.497	37.16
304.712	50.6
304.927	43.47
305.142	44.87
305.356	37.9
305.571	39.72
305.786	63.33
306	57.14
306.215	66.16
306.43	79.1
306.644	75.57
306.859	57.21
307.074	75.55
307.288	72.4
307.503	65.87
307.717	74.38
307.932	58.45
308.147	55.12
308.361	41.78
308.576	13.3
308.79	-2.37
309.005	22.82
309.219	-16.66
309.434	-43.25
309.648	-60.65
309.863	-63.19
310.077	-149.13
310.292	-74.8
310.506	-51.09
310.72	-2.13
310.935	-19.23
311.149	-13.4
311.364	-3.16
311.578	30.22
311.792	28.87
312.007	58
312.221	40.82
312.435	61.33
312.649	38.13
312.864	37.24
313.078	21.94
313.292	69.38
313.507	62.62
313.721	69.98
313.935	61.52
314.149	80.84
314.363	70.47
314.578	51.49
314.792	46.77
315.006	60.7
315.22	54.41
315.434	2.83
315.648	2.12
315.862	-24.57
316.077	-20.56
316.291	-34.86
316.505	29.58
316.719	23.11
316.933	21.54
317.147	17.56
317.361	20.97
317.575	2.81
317.789	14.08
318.003	-4.08
318.217	38.44
318.431	46.71
318.645	50.96
318.859	24.29
319.073	25.26
319.287	-17.82
319.5	-4.85
319.714	-5.52
319.928	27.3
320.142	39.35
320.356	37.84
320.57	28.89
320.784	22.33
320.997	-2.71
321.211	10.48
321.425	-12.96
321.639	-43.41
321.853	-37.83
322.066	-28
322.28	-41.87
322.494	-28.75
322.707	-3.49
322.921	16.6
323.135	14.53
323.349	49.51
323.562	62.95
323.776	76.99
323.989	58.26
324.203	72.26
324.417	37.45
324.63	14.3
324.844	-10.72
325.057	-1.62
325.271	-23.76
325.485	-5.26
325.698	3.2
325.912	15.62
326.125	23.13
326.339	49.31
326.552	39.46
326.766	42.35
326.979	50.62
327.193	55.42
327.406	48.02
327.619	62.6
327.833	45.98
328.046	64.59
328.26	59.33
328.473	30.6
328.686	29.24
328.9	33.09
329.113	-4.62
329.326	-13.77
329.54	5.92
329.753	14.63
329.966	26.26
330.179	44.18
330.393	78.59
330.606	74.17
330.819	61.89
331.032	87.75
331.246	118.53
331.459	78.98
331.672	94.33
331.885	96.74
332.098	82.32
332.311	65.88
332.525	66.14
332.738	36.24
332.951	19.37
333.164	31.32
333.377	20.58
333.59	21.42
333.803	35.59
334.016	11.37
334.229	3.25
334.442	27.75
334.655	46.91
334.868	60.81
335.081	91.18
335.294	92.45
335.507	78.11
335.72	72.08
335.933	52.75
336.146	42.6
336.359	35.82
336.572	25.03
336.785	-1.38
336.997	11.73
337.21	18.35
337.423	27.03
337.636	32.19
337.849	67.15
338.062	54.82
338.274	21.5
338.487	29.98
338.7	44.7
338.913	31.81
339.125	44.91
339.338	34.77
339.551	15.34
339.763	18.58
339.976	25.63
340.189	21.46
340.402	22.44
340.614	28.78
340.827	35.52
341.039	36.82
341.252	34.77
341.465	38.8
341.677	55.71
341.89	27.89
342.102	32.74
342.315	26.45
342.527	58.69
342.74	48.47
342.952	60.1
343.165	52.29
343.377	88.24
343.59	32.46
343.802	9.75
344.015	5.01
344.227	-2.29
344.44	-13.07
344.652	11.71
344.864	24.59
345.077	33.72
345.289	27.66
345.502	18.36
345.714	20.21
345.926	31.37
346.139	23.12
346.351	19.73
346.563	12.08
346.775	7.67
346.988	-33.54
347.2	-31.93
347.412	2.94
347.624	53.09
347.837	58.31
348.049	52.65
348.261	54.03
348.473	53.87
348.685	55.44
348.897	62.22
349.11	70.54
349.322	58.19
349.534	29.19
349.746	14.54
349.958	17.25
350.17	31.77
350.382	27.82
350.594	30.02
350.806	24.42
351.018	33.2
351.23	23.79
351.442	30.68
351.654	30.53
351.866	26.85
352.078	10.08
352.29	12.14
352.502	15.79
352.714	9.68
352.926	34.2
353.138	37.32
353.35	36.95
353.561	38.44
353.773	40.78
353.985	24.85
354.197	41.98
354.409	52.72
354.621	51.45
354.832	64.18
355.044	72.41
355.256	54.52
355.468	31.65
355.679	46.82
355.891	43.68
356.103	38.15
356.314	43.98
356.526	42.84
356.738	28.82
356.949	7.53
357.161	27.01
357.373	17.25
357.584	45.17
357.796	55.31
358.008	55.61
358.219	37.87
358.431	51.23
358.642	31.43
358.854	44.91
359.065	59.72
359.277	55.5
359.488	36.69
359.7	49.38
359.911	24.99
360.123	24.09
360.334	40.88
360.546	47.72
360.757	31.88
360.969	40.86
361.18	45.92
361.391	45.33
361.603	45.31
361.814	62.25
362.025	70.84
362.237	56.09
362.448	39.26
362.659	44.61
362.871	17.81
363.082	6.41
363.293	-5.06
363.504	-8.91
363.716	-0.97
363.927	30.26
364.138	18.76
364.349	21.22
364.56	34.1
364.772	29.41
364.983	14.92
365.194	35.96
365.405	24.58
365.616	13.61
365.827	4.99
366.038	17.25
366.25	22.43
366.461	20.42
366.672	31.48
366.883	35.49
367.094	31.81
367.305	28.32
367.516	43.94
367.727	36.7
367.938	25.41
368.149	18.25
368.36	22.97
368.571	-13.63
368.781	-30.69
368.992	-18.13
369.203	-0.81
369.414	-0.3
369.625	21.27
369.836	12.41
370.047	6.1
370.258	8.78
370.468	-5.71
370.679	-12.07
370.89	-0.3
371.101	-4.42
371.312	-11.34
371.522	9.73
371.733	24.99
371.944	23.37
372.155	50.34
372.365	33.3
372.576	38.77
372.787	27.1
372.997	42.37
373.208	33.25
373.419	50.65
373.629	21.94
373.84	40.45
374.05	22.64
374.261	25.9
374.472	29.2
374.682	30.31
374.893	17.17
375.103	10.75
375.314	21.9
375.524	26.38
375.735	31.82
375.945	50.8
376.156	68.11
376.366	66.12
376.577	60.61
376.787	63.73
376.997	57.98
377.208	56.14
377.418	40.18
377.629	41.37
377.839	50.08
378.049	45.28
378.26	33.57
378.47	37.59
378.68	41.83
378.89	32.79
379.101	21.14
379.311	15.17
379.521	16.17
379.732	11.64
379.942	3.4
380.152	11.07
380.362	16.81
380.572	18.8
380.783	13.25
380.993	23.24
381.203	23.42
381.413	16.26
381.623	16.38
381.833	25.81
382.043	25.7
382.253	32.17
382.463	47.37
382.674	42.16
382.884	31.81
383.094	22.91
383.304	15.03
383.514	5.98
383.724	3.26
383.934	16
384.144	19.44
384.353	23.72
384.563	21.79
384.773	23.74
384.983	13.02
385.193	14.22
385.403	7.51
385.613	9.57
385.823	4.16
386.033	5.22
386.242	5.9
386.452	10.87
386.662	9.52
386.872	11.21
387.082	17.82
387.291	5.8
387.501	4.68
387.711	8.72
387.921	10.6
388.13	7.58
388.34	15.58
388.55	13.61
388.759	7.13
388.969	3.73
389.179	4.35
389.388	7.11
389.598	9.11
389.807	11.18
390.017	12.89
390.227	11.68
390.436	8.48
390.646	4.03
390.855	2.43
391.065	1.8
391.274	1.5
391.484	2.67
391.693	5.22
391.903	4.93
392.112	7.14
392.322	6.45
392.531	7.31
392.74	6.51
392.95	6.18
393.159	4.66
393.369	5.95
393.578	5.23
393.787	6.02
393.997	7.72
394.206	6.92
394.415	7.03
394.625	8.06
394.834	6.59
395.043	4.63
395.252	5.49
395.462	4.84
395.671	4.46
395.88	6.19
396.089	6.95
396.298	6.75
396.508	6.74
396.717	6.27
396.926	5.41
397.135	4.56
397.344	4.14
397.553	4.13
397.762	3.91
397.971	3.91
398.181	4.37
398.39	3.79
398.599	3.95
398.808	4.18
399.017	3.79
399.226	3.69
399.435	3.95
399.644	3.89
399.853	4.1
400.062	4.1
400.27	3.97
400.479	3.97
400.688	3.85
400.897	3.49
401.106	3.56
401.315	3.42
401.524	3.55
401.733	3.37
401.941	3.5
402.15	3.3
402.359	3.19
402.568	3.04
402.777	3.33
402.985	2.95
403.194	2.93
403.403	3.11
403.612	3.19
403.82	3.07
404.029	3.17
404.238	3.3
404.446	3.12
404.655	3.08
404.864	2.95
405.072	3.01
405.281	2.74
405.489	3
405.698	3.1
405.906	3.09
406.115	2.89
406.324	3.18
406.532	2.99
406.741	2.85
406.949	2.73
407.158	2.92
407.366	2.84
407.574	2.93
407.783	2.95
407.991	3.01
408.2	2.88
408.408	2.92
408.617	2.87
408.825	2.8
409.033	2.75
409.242	2.72
409.45	2.43
409.658	2.26
409.867	2.23
410.075	2.23
410.283	2.34
410.491	2.58
410.7	2.78
410.908	2.83
411.116	2.83
411.324	2.76
411.533	2.65
411.741	2.56
411.949	2.53
412.157	2.56
412.365	2.68
412.573	2.71
412.781	2.66
412.99	2.77
413.198	2.91
413.406	2.88
413.614	2.81
413.822	2.83
414.03	2.84
414.238	2.69
414.446	2.61
414.654	2.62
414.862	2.66
415.07	2.5
415.278	2.54
415.486	2.46
415.694	2.54
415.902	2.52
416.109	2.44
416.317	2.48
416.525	2.46
416.733	2.42
416.941	2.54
417.149	2.75
417.357	2.58
417.564	2.67
417.772	2.61
417.98	2.44
418.188	2.35
418.395	2.26
418.603	2.29
418.811	2.3
419.019	2.37
419.226	2.36
419.434	2.64
419.642	2.6
419.849	2.74
420.057	2.61
420.265	2.6
420.472	2.39
420.68	2.25
420.887	2.15
421.095	2.24
421.302	2.19
421.51	2.27
421.717	2.47
421.925	2.2
422.132	2.24
422.34	2.36
422.547	2.3
422.755	2.22
422.962	2.52
423.17	2.65
423.377	2.6
423.585	2.6
423.792	2.59
423.999	2.47
424.207	2.18
424.414	1.9
424.621	1.86
424.829	1.76
425.036	1.91
425.243	2.09
425.451	2.58
425.658	2.68
425.865	2.64
426.072	2.45
426.28	2.37
426.487	2.12
426.694	2.07
426.901	2.25
427.108	2.43
427.315	2.37
427.523	2.44
427.73	2.45
427.937	2.38
428.144	2.23
428.351	2.49
428.558	2.5
428.765	2.25
428.972	2.19
429.179	2.27
429.386	2.07
429.593	2.21
429.8	2.32
430.007	2.37
430.214	2.33
430.421	2.46
430.628	2.27
430.835	2.42
431.042	2.37
431.249	2.49
431.456	2.28
431.662	2.41
431.869	2.34
432.076	2.36
432.283	2.28
432.49	2.26
432.697	2.28
432.903	2.21
433.11	2.08
433.317	1.93
433.524	2.02
433.73	1.83
433.937	1.87
434.144	2.06
434.35	2.17
434.557	2.11
434.764	2.08
434.97	2.08
435.177	2.11
435.384	1.97
435.59	1.91
435.797	2.04
436.003	2.06
436.21	1.82
436.416	1.87
436.623	1.88
436.829	1.82
437.036	1.7
437.242	1.78
437.449	1.85
437.655	1.96
437.862	2.03
438.068	2.14
438.275	2.33
438.481	2.36
438.687	2.29
438.894	2.27
439.1	2.21
439.307	2.07
439.513	2.02
439.719	2.09
439.926	2.07
440.132	2.13
440.338	2.23
440.544	2.26
440.751	2.32
440.957	2.28
441.163	2.24
441.369	2.16
441.575	2.11
441.782	2.09
441.988	2.06
442.194	1.98
442.4	1.95
442.606	2.02
442.812	1.94
443.018	1.82
443.224	1.86
443.431	1.92
443.637	1.84
443.843	1.78
444.049	1.86
444.255	2
444.461	2
444.667	1.94
444.873	1.89
445.079	1.94
445.284	1.86
445.49	1.83
445.696	1.9
445.902	1.95
446.108	1.91
446.314	1.82
446.52	1.85
446.726	1.9
446.931	1.92
447.137	1.94
447.343	1.93
447.549	1.88
447.755	1.96
447.96	2.02
448.166	2.04
448.372	2.12
448.578	2.08
448.783	2.07
448.989	1.94
449.195	1.88
449.4	1.82
449.606	1.97
449.812	1.9
450.017	2.03
450.223	2.02
450.428	2.06
450.634	1.96
450.84	1.9
451.045	1.88
451.251	1.92
451.456	2.03
451.662	2.04
451.867	2.07
452.073	2.07
452.278	2.06
452.483	1.92
452.689	1.95
452.894	1.89
453.1	1.85
453.305	1.81
453.51	1.82
453.716	1.84
453.921	1.92
454.127	1.95
454.332	1.95
454.537	2.02
454.742	2.04
454.948	2.06
455.153	2.03
455.358	2.05
455.563	1.99
455.769	1.89
455.974	1.88
456.179	1.77
456.384	1.66
456.589	1.68
456.795	1.73
457	1.65
457.205	1.74
457.41	1.9
457.615	1.83
457.82	1.88
458.025	1.87
458.23	1.83
458.435	1.79
458.64	1.71
458.845	1.67
459.05	1.63
459.255	1.74
459.46	1.71
459.665	1.88
459.87	1.77
460.075	1.78
460.28	1.72
460.485	1.77
460.69	1.67
460.895	1.57
461.099	1.61
461.304	1.62
461.509	1.62
461.714	1.69
461.919	1.81
462.123	1.79
462.328	1.73
462.533	1.63
462.738	1.66
462.942	1.64
463.147	1.77
463.352	1.82
463.556	1.86
463.761	1.75
463.966	1.82
464.17	1.73
464.375	1.78
464.58	1.73
464.784	1.77
464.989	1.82
465.193	1.72
465.398	1.79
465.602	2.01
465.807	2.11
466.011	2.08
466.216	2.19
466.42	2.14
466.625	2.04
466.829	2.02
467.034	2.1
467.238	2.08
467.443	1.93
467.647	1.76
467.851	1.72
468.056	1.59
468.26	1.62
468.464	1.69
468.669	1.89
468.873	1.8
469.077	1.8
469.282	1.87
469.486	1.72
469.69	1.59
469.894	1.65
470.099	1.61
470.303	1.53
470.507	1.65
470.711	1.76
470.915	1.81
471.119	1.89
471.324	1.94
471.528	1.84
471.732	1.84
471.936	1.77
472.14	1.74
472.344	1.73
472.548	1.87
472.752	1.85
472.956	1.86
473.16	1.92
473.364	1.93
473.568	1.87
473.772	1.8
473.976	1.81
474.18	1.75
474.384	1.77
474.588	1.82
474.792	1.91
474.995	1.92
475.199	1.98
475.403	1.9
475.607	1.91
475.811	1.83
476.015	1.79
476.218	1.84
476.422	1.84
476.626	1.9
476.83	1.98
477.033	1.98
477.237	1.96
477.441	2.02
477.644	1.93
477.848	1.9
478.052	1.85
478.255	1.76
478.459	1.78
478.663	1.77
478.866	1.71
479.07	1.77
479.273	1.76
479.477	1.79
479.681	1.87
479.884	1.9
480.088	1.85
480.291	1.99
480.495	1.87
480.698	1.83
480.901	1.87
481.105	1.97
481.308	1.83
481.512	1.87
481.715	1.9
481.919	1.89
482.122	1.87
482.325	1.92
482.529	1.95
482.732	1.97
482.935	1.93
483.138	2.05
483.342	2.06
483.545	2.1
483.748	2.06
483.952	2.08
484.155	2.01
484.358	2.01
484.561	1.95
484.764	1.96
484.967	2.01
485.171	1.89
485.374	1.89
485.577	1.96
485.78	2.03
485.983	2.07
486.186	2.19
486.389	2.17
486.592	2.17
486.795	2.15
486.998	2.07
487.201	2.02
487.404	2.07
487.607	2.1
487.81	2.06
488.013	2
488.216	2
488.419	2.02
488.622	1.91
488.825	1.9
489.028	1.92
489.231	2.07
489.433	2.07
489.636	2.15
489.839	2.11
490.042	2.18
490.245	2.06
490.447	2.12
490.65	2.1
490.853	2.28
491.056	2.23
491.258	2.26
491.461	2.25
491.664	2.22
491.866	2.12
492.069	2.25
492.272	2.23
492.474	2.25
492.677	2.32
492.879	2.36
493.082	2.31
493.285	2.38
493.487	2.34
493.69	2.36
493.892	2.39
494.095	2.5
494.297	2.53
494.5	2.61
494.702	2.58
494.905	2.6
495.107	2.52
495.309	2.5
495.512	2.47
495.714	2.56
495.917	2.65
496.119	2.72
496.321	2.76
496.524	2.78
496.726	2.79
496.928	2.68
497.13	2.66
497.333	2.7
497.535	2.84
497.737	2.86
497.939	2.98
498.142	3.03
498.344	3.05
498.546	3.05
498.748	3.1
498.95	3.14
499.152	3.13
499.355	3.21
499.557	3.18
499.759	3.26
499.961	3.27
500.163	3.32
500.365	3.4
500.567	3.41
500.769	3.4
500.971	3.41
501.173	3.44
501.375	3.39
501.577	3.47
501.779	3.53
501.981	3.62
502.183	3.63
502.385	3.54
502.587	3.47
502.788	3.45
502.99	3.42
503.192	3.47
503.394	3.56
503.596	3.54
503.798	3.49
503.999	3.56
504.201	3.53
504.403	3.56
504.605	3.63
504.806	3.62
505.008	3.52
505.21	3.47
505.411	3.36
505.613	3.34
505.815	3.44
506.016	3.47
506.218	3.47
506.42	3.49
506.621	3.55
506.823	3.54
507.024	3.5
507.226	3.57
507.427	3.56
507.629	3.48
507.83	3.41
508.032	3.38
508.233	3.37
508.435	3.36
508.636	3.37
508.838	3.4
509.039	3.37
509.24	3.33
509.442	3.39
509.643	3.43
509.845	3.47
510.046	3.55
510.247	3.61
510.448	3.63
510.65	3.55
510.851	3.51
511.052	3.5
511.254	3.47
511.455	3.4
511.656	3.37
511.857	3.38
512.058	3.32
512.26	3.25
512.461	3.28
512.662	3.29
512.863	3.22
513.064	3.26
513.265	3.28
513.466	3.27
513.667	3.32
513.868	3.36
514.069	3.35
514.27	3.37
514.471	3.31
514.672	3.28
514.873	3.21
515.074	3.2
515.275	3.19
515.476	3.2
515.677	3.19
515.878	3.23
516.079	3.2
516.28	3.24
516.481	3.22
516.682	3.2
516.882	3.27
517.083	3.25
517.284	3.24
517.485	3.24
517.686	3.29
517.886	3.32
518.087	3.32
518.288	3.29
518.488	3.31
518.689	3.25
518.89	3.21
519.091	3.25
519.291	3.22
519.492	3.26
519.692	3.34
519.893	3.34
520.094	3.26
520.294	3.27
520.495	3.24
520.695	3.18
520.896	3.12
521.096	3.17
521.297	3.29
521.497	3.29
521.698	3.32
521.898	3.36
522.099	3.39
522.299	3.28
522.499	3.35
522.7	3.34
522.9	3.34
523.101	3.29
523.301	3.34
523.501	3.23
523.702	3.24
523.902	3.27
524.102	3.39
524.302	3.36
524.503	3.38
524.703	3.36
524.903	3.35
525.103	3.32
525.304	3.27
525.504	3.35
525.704	3.3
525.904	3.31
526.104	3.25
526.304	3.34
526.504	3.3
526.705	3.35
526.905	3.35
527.105	3.44
527.305	3.42
527.505	3.44
527.705	3.47
527.905	3.48
528.105	3.46
528.305	3.45
528.505	3.45
528.705	3.46
528.905	3.42
529.105	3.38
529.304	3.41
529.504	3.39
529.704	3.42
529.904	3.48
530.104	3.52
530.304	3.52
530.503	3.5
530.703	3.44
530.903	3.42
531.103	3.44
531.303	3.43
531.502	3.49
531.702	3.52
531.902	3.59
532.101	3.58
532.301	3.58
532.501	3.6
532.7	3.64
532.9	3.59
533.1	3.61
533.299	3.63
533.499	3.67
533.698	3.61
533.898	3.63
534.097	3.61
534.297	3.65
534.496	3.64
534.696	3.71
534.895	3.76
535.095	3.76
535.294	3.77
535.494	3.7
535.693	3.69
535.892	3.72
536.092	3.79
536.291	3.78
536.491	3.9
536.69	3.95
536.889	3.9
537.088	3.86
537.288	3.82
537.487	3.76
537.686	3.74
537.886	3.78
538.085	3.84
538.284	3.91
538.483	3.9
538.682	4
538.882	4.04
539.081	4.05
539.28	4.04
539.479	4.07
539.678	4
539.877	3.94
540.076	3.97
540.275	4.03
540.474	4.06
540.673	4.1
540.872	4.13
541.071	4.17
541.27	4.2
541.469	4.14
541.668	4.19
541.867	4.3
542.066	4.31
542.265	4.4
542.464	4.48
542.663	4.51
542.862	4.58
543.06	4.6
543.259	4.57
543.458	4.61
543.657	4.64
543.856	4.59
544.054	4.62
544.253	4.61
544.452	4.6
544.651	4.56
544.849	4.58
545.048	4.57
545.247	4.59
545.445	4.67
545.644	4.69
545.843	4.72
546.041	4.76
546.24	4.84
546.438	4.89
546.637	4.95
546.836	4.98
547.034	5.04
547.233	5.02
547.431	5.04
547.63	5.05
547.828	5.12
548.027	5.12
548.225	5.11
548.423	5.14
548.622	5.22
548.82	5.15
549.019	5.17
549.217	5.23
549.415	5.28
549.614	5.34
549.812	5.41
550.01	5.49
550.209	5.59
550.407	5.61
550.605	5.61
550.803	5.67
551.002	5.71
551.2	5.74
551.398	5.9
551.596	5.96
551.794	6.04
551.993	6.1
552.191	6.14
552.389	6.04
552.587	6.03
552.785	5.99
552.983	6.08
553.181	6.09
553.379	6.25
553.577	6.38
553.775	6.45
553.973	6.44
554.171	6.51
554.369	6.55
554.567	6.57
554.765	6.65
554.963	6.7
555.161	6.72
555.359	6.73
555.557	6.74
555.755	6.81
555.952	6.9
556.15	6.97
556.348	7.02
556.546	7.13
556.744	7.14
556.941	7.19
557.139	7.23
557.337	7.31
557.535	7.32
557.732	7.4
557.93	7.46
558.128	7.57
558.325	7.52
558.523	7.58
558.721	7.63
558.918	7.68
559.116	7.67
559.313	7.79
559.511	7.93
559.708	8
559.906	8.07
560.104	8.12
560.301	8.24
560.498	8.18
560.696	8.21
560.893	8.26
561.091	8.34
561.288	8.35
561.486	8.43
561.683	8.49
561.88	8.51
562.078	8.53
562.275	8.51
562.473	8.59
562.67	8.7
562.867	8.75
563.064	8.78
563.262	8.86
563.459	8.97
563.656	8.9
563.853	8.94
564.051	9.04
564.248	9.15
564.445	9.08
564.642	9.15
564.839	9.19
565.036	9.29
565.234	9.32
565.431	9.42
565.628	9.46
565.825	9.57
566.022	9.64
566.219	9.69
566.416	9.71
566.613	9.85
566.81	9.86
567.007	9.77
567.204	9.77
567.401	9.77
567.598	9.75
567.795	9.78
567.991	9.83
568.188	9.84
568.385	9.8
568.582	9.83
568.779	9.8
568.976	9.92
569.172	9.95
569.369	10.08
569.566	10.11
569.763	10.11
569.96	10.08
570.156	10.16
570.353	10.18
570.55	10.18
570.746	10.21
570.943	10.21
571.14	10.2
571.336	10.17
571.533	10.14
571.729	10.19
571.926	10.19
572.123	10.18
572.319	10.17
572.516	10.17
572.712	10.23
572.909	10.21
573.105	10.28
573.302	10.28
573.498	10.23
573.695	10.08
573.891	10.12
574.087	10.12
574.284	10.13
574.48	10.19
574.677	10.33
574.873	10.32
575.069	10.33
575.266	10.32
575.462	10.32
575.658	10.3
575.854	10.36
576.051	10.24
576.247	10.16
576.443	10.15
576.639	10.1
576.835	9.95
577.032	9.95
577.228	10.01
577.424	10.04
577.62	10.04
577.816	10.04
578.012	10.1
578.208	10.05
578.404	10.06
578.6	10.05
578.796	10.06
578.993	10.02
579.189	10.06
579.384	10.05
579.58	10.04
579.776	10.08
579.972	10
580.168	9.89
580.364	9.85
580.56	9.89
580.756	9.83
580.952	9.81
581.148	9.86
581.343	9.8
581.539	9.73
581.735	9.73
581.931	9.75
582.127	9.7
582.322	9.7
582.518	9.63
582.714	9.61
582.909	9.63
583.105	9.6
583.301	9.62
583.496	9.65
583.692	9.56
583.888	9.5
584.083	9.47
584.279	9.44
584.474	9.38
584.67	9.35
584.866	9.27
585.061	9.28
585.257	9.21
585.452	9.21
585.648	9.26
585.843	9.33
586.039	9.41
586.234	9.39
586.429	9.37
586.625	9.39
586.82	9.35
587.015	9.21
587.211	9.12
587.406	9.09
587.601	9.07
587.797	9.09
587.992	9.06
588.187	9.19
588.383	9.18
588.578	9.19
588.773	9.11
588.968	9.23
589.163	9.21
589.359	9.2
589.554	9.19
589.749	9.22
589.944	9.16
590.139	9.12
590.334	9.13
590.529	9.16
590.724	9.21
590.919	9.31
591.114	9.36
591.309	9.33
591.504	9.25
591.699	9.2
591.894	9.07
592.089	8.99
592.284	9.01
592.479	9.06
592.674	9.06
592.869	9.16
593.064	9.27
593.259	9.32
593.454	9.34
593.648	9.42
593.843	9.37
594.038	9.35
594.233	9.33
594.428	9.36
594.622	9.34
594.817	9.42
595.012	9.4
595.206	9.57
595.401	9.64
595.596	9.53
595.79	9.6
595.985	9.63
596.18	9.64
596.374	9.6
596.569	9.8
596.763	9.84
596.958	9.97
597.153	9.87
597.347	10.02
597.542	10.08
597.736	10.09
597.931	10.05
598.125	10.11
598.319	10.07
598.514	10.04
598.708	10.07
598.903	10.09
599.097	10.24
599.291	10.25
599.486	10.33
599.68	10.32
599.874	10.41
600.069	10.34
600.263	10.41
600.457	10.41
600.651	10.38
600.846	10.35
601.04	10.34
601.234	10.31
601.428	10.28
601.622	10.36
601.817	10.29
602.011	10.3
602.205	10.33
602.399	10.34
602.593	10.31
602.787	10.38
602.981	10.36
603.175	10.36
603.369	10.35
603.563	10.44
603.757	10.45
603.951	10.4
604.145	10.32
604.339	10.38
604.533	10.26
604.727	10.26
604.921	10.34
605.115	10.34
605.309	10.2
605.502	10.21
605.696	10.14
605.89	10.07
606.084	10.13
606.278	10.11
606.471	10.07
606.665	9.99
606.859	9.96
607.053	9.84
607.246	9.9
607.44	9.86
607.634	9.87
607.827	9.89
608.021	9.76
608.214	9.69
608.408	9.74
608.602	9.72
608.795	9.63
608.989	9.64
609.182	9.6
609.376	9.54
609.569	9.48
609.763	9.38
609.956	9.41
610.15	9.3
610.343	9.25
610.537	9.22
610.73	9.31
610.923	9.25
611.117	9.23
611.31	9.13
611.504	9.14
611.697	9.11
611.89	9.08
612.083	9.07
612.277	9.04
612.47	8.98
612.663	8.82
612.856	8.71
613.05	8.67
613.243	8.6
613.436	8.51
613.629	8.56
613.822	8.58
614.015	8.57
614.209	8.46
614.402	8.47
614.595	8.43
614.788	8.39
614.981	8.28
615.174	8.24
615.367	8.1
615.56	7.91
615.753	7.9
615.946	7.86
616.139	7.93
616.332	7.97
616.525	8
616.718	7.94
616.911	7.91
617.103	7.84
617.296	7.83
617.489	7.87
617.682	7.85
617.875	7.85
618.067	7.81
618.26	7.67
618.453	7.52
618.646	7.47
618.838	7.42
619.031	7.38
619.224	7.43
619.417	7.56
619.609	7.56
619.802	7.51
619.994	7.44
620.187	7.43
620.38	7.3
620.572	7.25
620.765	7.35
620.957	7.32
621.15	7.22
621.342	7.25
621.535	7.24
621.727	7.09
621.92	7.11
622.112	7.11
622.305	7.11
622.497	7.11
622.69	7.08
622.882	7.08
623.074	7.18
623.267	7.12
623.459	7.05
623.651	7.12
623.844	7.13
624.036	7.12
624.228	7.14
624.42	7.15
624.613	7.16
624.805	7.15
624.997	7.14
625.189	7.02
625.381	7.03
625.574	6.93
625.766	6.88
625.958	6.77
626.15	6.89
626.342	6.86
626.534	6.92
626.726	6.86
626.918	6.88
627.11	6.75
627.302	6.71
627.494	6.62
627.686	6.67
627.878	6.65
628.07	6.69
628.262	6.67
628.454	6.67
628.646	6.66
628.838	6.64
629.029	6.62
629.221	6.66
629.413	6.62
629.605	6.57
629.797	6.54
629.989	6.54
630.18	6.51
630.372	6.38
630.564	6.41
630.755	6.38
630.947	6.38
631.139	6.31
631.33	6.39
631.522	6.35
631.714	6.32
631.905	6.25
632.097	6.26
632.289	6.29
632.48	6.22
632.672	6.18
632.863	6.14
633.055	6.19
633.246	6.19
633.438	6.23
633.629	6.24
633.821	6.21
634.012	6.13
634.203	6.08
634.395	6.02
634.586	6.15
634.777	6.17
634.969	6.18
635.16	6.22
635.351	6.31
635.543	6.21
635.734	6.18
635.925	6.1
636.117	6.14
636.308	6.14
636.499	6.07
636.69	6.02
636.881	6.1
637.073	6.01
637.264	5.96
637.455	5.97
637.646	6.04
637.837	5.97
638.028	5.92
638.219	5.93
638.41	5.96
638.601	5.88
638.792	5.93
638.983	5.91
639.174	5.77
639.365	5.71
639.556	5.73
639.747	5.75
639.938	5.86
640.129	5.97
640.32	5.98
640.511	6.04
640.701	5.97
640.892	5.93
641.083	5.85
641.274	5.83
641.465	5.73
641.655	5.75
641.846	5.73
642.037	5.78
642.228	5.73
642.418	5.77
642.609	5.69
642.8	5.6
642.99	5.54
643.181	5.52
643.372	5.48
643.562	5.45
643.753	5.47
643.943	5.4
644.134	5.4
644.324	5.45
644.515	5.56
644.705	5.5
644.896	5.62
645.086	5.63
645.277	5.6
645.467	5.55
645.658	5.57
645.848	5.46
646.038	5.47
646.229	5.51
646.419	5.49
646.61	5.56
646.8	5.63
646.99	5.63
647.18	5.58
647.371	5.58
647.561	5.48
647.751	5.44
647.941	5.4
648.132	5.26
648.322	5.23
648.512	5.31
648.702	5.3
648.892	5.23
649.082	5.31
649.272	5.22
649.462	5.18
649.653	5.18
649.843	5.27
650.033	5.23
650.223	5.22
650.413	5.22
650.603	5.28
650.793	5.32
650.983	5.32
651.172	5.37
651.362	5.3
651.552	5.18
651.742	5.01
651.932	5.01
652.122	5.07
652.312	5.02
652.502	5.11
652.691	5.16
652.881	5.21
653.071	5.23
653.261	5.18
653.45	5.06
653.64	5.06
653.83	5
654.019	4.87
654.209	4.84
654.399	4.91
654.588	4.79
654.778	4.79
654.968	4.7
655.157	4.74
655.347	4.59
655.536	4.64
655.726	4.5
655.915	4.5
656.105	4.39
656.294	4.37
656.484	4.31
656.673	4.32
656.863	4.37
657.052	4.41
657.241	4.32
657.431	4.36
657.62	4.32
657.809	4.2
657.999	4.14
658.188	4.19
658.377	4.08
658.567	4
658.756	3.91
658.945	3.88
659.134	3.71
659.324	3.66
659.513	3.65
659.702	3.55
659.891	3.53
660.08	3.53
660.269	3.47
660.458	3.39
660.648	3.48
660.837	3.32
661.026	3.19
661.215	3.2
661.404	3.1
661.593	2.97
661.782	2.91
661.971	3.02
662.16	2.99
662.349	2.99
662.538	2.99
662.726	3.04
662.915	2.95
663.104	2.91
663.293	2.88
663.482	2.91
663.671	2.99
663.86	2.95
664.048	2.96
664.237	3.03
664.426	2.91
664.615	2.87
664.803	2.92
664.992	2.82
665.181	2.8
665.369	2.91
665.558	2.8
665.747	2.9
665.935	2.99
666.124	3.02
666.312	3
666.501	3.16
666.69	3.16
666.878	3.1
667.067	3.08
667.255	3.16
667.444	3.2
667.632	3.29
667.82	3.35
668.009	3.39
668.197	3.37
668.386	3.25
668.574	3.14
668.762	3.27
668.951	3.34
669.139	3.33
669.327	3.39
669.516	3.47
669.704	3.46
669.892	3.43
670.08	3.56
670.269	3.59
670.457	3.51
670.645	3.42
670.833	3.5
671.021	3.45
671.21	3.55
671.398	3.56
671.586	3.56
671.774	3.66
671.962	3.74
672.15	3.82
672.338	3.95
672.526	4.11
672.714	4.04
672.902	4.01
673.09	3.85
673.278	3.85
673.466	3.94
673.654	4.18
673.842	4.4
674.03	4.74
674.218	4.82
674.405	4.88
674.593	4.89
674.781	4.83
674.969	4.72
675.157	4.82
675.344	4.66
675.532	4.68
675.72	4.71
675.908	4.75
676.095	4.76
676.283	4.97
676.471	5.03
676.658	5.09
676.846	5.14
677.033	5.23
677.221	5.17
677.409	5.11
677.596	5.14
677.784	5.21
677.971	5.2
678.159	5.32
678.346	5.45
678.534	5.48
678.721	5.63
678.909	5.72
679.096	5.85
679.283	5.73
679.471	5.77
679.658	5.72
679.846	5.64
680.033	5.86
680.22	6.1
680.408	6.16
680.595	6.1
680.782	6.15
680.969	5.96
681.157	5.81
681.344	5.91
681.531	6.13
681.718	6.23
681.905	6.2
682.093	6.31
682.28	6.44
682.467	6.59
682.654	6.59
682.841	6.61
683.028	6.65
683.215	6.71
683.402	6.52
683.589	6.63
683.776	6.84
683.963	6.88
684.15	7
684.337	7.04
684.524	7.18
684.711	7.21
684.898	7.31
685.085	7.15
685.271	7.3
685.458	7.36
685.645	7.31
685.832	7.23
686.019	7.25
686.205	7.28
686.392	7.3
686.579	7.62
686.766	7.95
686.952	8.14
687.139	8.34
687.326	8.21
687.512	8.16
687.699	8.21
687.886	8.28
688.072	8.26
688.259	8.6
688.445	8.74
688.632	8.66
688.818	8.92
689.005	9.07
689.191	9.4
689.378	9.79
689.564	10.44
689.751	10.45
689.937	10.7
690.124	10.75
690.31	10.62
690.496	10.55
690.683	10.92
690.869	11.17
691.055	11.44
691.242	11.84
691.428	11.9
691.614	12.06
691.8	12.34
691.987	12.6
692.173	12.93
692.359	13.41
692.545	13.93
692.731	14.32
692.918	14.63
693.104	14.91
693.29	15.3
693.476	15.65
693.662	16.14
693.848	16.66
694.034	17.02
694.22	17.69
694.406	17.95
694.592	18.19
694.778	18.22
694.964	18.72
695.15	18.81
695.336	19.04
695.522	19.36
695.708	20.13
695.894	20.5
696.08	20.88
696.265	21.63
696.451	22.1
696.637	22.65
696.823	23.07
697.009	23.56
697.194	23.92
697.38	24.38
697.566	24.64
697.751	25.19
697.937	25.62
698.123	26.06
698.308	26.53
698.494	26.85
698.68	27.19
698.865	27.65
699.051	28.02
699.236	28.69
699.422	29.39
699.607	29.98
699.793	30.43
699.978	30.96
700.164	31.22
700.349	31.59
700.535	31.93
700.72	32.59
700.906	33.17
701.091	33.54
701.276	34.01
701.462	34.32
701.647	35
701.832	35.47
702.018	36.32
702.203	36.93
702.388	37.62
702.573	37.47
702.759	38.1
702.944	38.08
703.129	38.43
703.314	38.83
703.499	39.51
703.684	39.87
703.87	40.32
704.055	40.65
704.24	41.37
704.425	42.02
704.61	42.36
704.795	43.09
704.98	43.57
705.165	43.58
705.35	43.84
705.535	44.36
705.72	44.67
705.905	44.82
706.09	45.35
706.275	45.65
706.459	45.66
706.644	45.87
706.829	46.52
707.014	46.93
707.199	47.59
707.384	47.78
707.568	48.35
707.753	48.65
707.938	48.69
708.123	48.63
708.307	49
708.492	49.02
708.677	48.94
708.861	49.03
709.046	48.93
709.231	49.15
709.415	49.36
709.6	49.71
709.784	50.14
709.969	50.62
710.153	50.9
710.338	51.14
710.522	51.51
710.707	51.83
710.891	51.99
711.076	52.04
711.26	52.36
711.445	52.76
711.629	53.06
711.813	53.57
711.998	54.29
712.182	54.38
712.366	54.22
712.551	54
712.735	54.11
712.919	53.92
713.103	54.06
713.288	54.36
713.472	54.74
713.656	54.65
713.84	54.98
714.024	55.8
714.208	55.64
714.393	55.83
714.577	56.11
714.761	56
714.945	55.68
715.129	56.29
715.313	56.49
715.497	56.49
715.681	56.86
715.865	57.01
716.049	57.06
716.233	57.4
716.417	57.8
716.601	57.93
716.785	58.32
716.968	58.23
717.152	58
717.336	58.2
717.52	58.32
717.704	57.91
717.888	58.65
718.071	59.26
718.255	59.15
718.439	59.13
718.622	59.5
718.806	58.98
718.99	58.66
719.174	58.83
719.357	59.45
719.541	59.91
719.724	60.05
719.908	60.13
720.092	60.31
720.275	60.25
720.459	60.31
720.642	60.69
720.826	60.81
721.009	61.24
721.193	61.02
721.376	61.06
721.559	61.45
721.743	62.08
721.926	61.64
722.11	62.18
722.293	62
722.476	62.22
722.66	62.3
722.843	62.69
723.026	62.62
723.21	62.91
723.393	62.73
723.576	62.58
723.759	63
723.942	63.54
724.126	63.7
724.309	63.73
724.492	63.96
724.675	64.09
724.858	63.84
725.041	63.88
725.224	63.94
725.407	64.54
725.59	64.76
725.774	64.96
725.957	64.77
726.14	65.36
726.322	65.13
726.505	65.24
726.688	65.38
726.871	66.19
727.054	66.26
727.237	66.54
727.42	66.9
727.603	67.22
727.786	67.34
727.968	67.36
728.151	67.31
728.334	67.45
728.517	67.54
728.699	68.02
728.882	68.7
729.065	69.27
729.248	68.85
729.43	69.29
729.613	69.45
729.796	69.92
729.978	69.55
730.161	70.06
730.343	70.7
730.526	70.69
730.708	69.6
730.891	70.17
731.073	70.27
731.256	69.87
731.438	69.3
731.621	69.35
731.803	69.24
731.986	70.88
732.168	70.78
732.35	71.4
732.533	72.59
732.715	73.11
732.898	71.74
733.08	72.81
733.262	73.47
733.444	73.39
733.627	73.82
733.809	74.69
733.991	74.34
734.173	74.51
734.355	75.01
734.538	74.74
734.72	74.84
734.902	75.7
735.084	76.58
735.266	76.42
735.448	76.67
735.63	76.91
735.812	76.25
735.994	75.35
736.176	75.43
736.358	76.21
736.54	77.12
736.722	77.1
736.904	77.78
737.086	77.75
737.268	77.38
737.45	76.73
737.632	77.13
737.814	77.3
737.995	78.64
738.177	79.25
738.359	78.92
738.541	78.94
738.723	79.56
738.904	78.34
739.086	78.85
739.268	79.81
739.449	80.52
739.631	80.42
739.813	81.61
739.994	81.58
740.176	81.47
740.358	81.49
740.539	82.11
740.721	82.05
740.902	82
741.084	81.98
741.265	81.82
741.447	81.03
741.628	80.52
741.81	80.45
741.991	81.68
742.172	82.1
742.354	82.59
742.535	83.08
742.717	84.05
742.898	83.41
743.079	84.28
743.261	84.9
743.442	86.27
743.623	86.06
743.804	86.15
743.986	85.44
744.167	83.78
744.348	83.79
744.529	83.03
744.71	82.4
744.891	83.41
745.073	84.73
745.254	83.95
745.435	84.64
745.616	84.95
745.797	83.86
745.978	83.6
746.159	84.13
746.34	85.27
746.521	85.64
746.702	86.13
746.883	86.32
747.064	85.21
747.245	83.68
747.426	84.55
747.606	84.49
747.787	84.31
747.968	85.77
748.149	87.08
748.33	85.7
748.51	85.53
748.691	84.82
748.872	84.35
749.053	83.56
749.233	84.4
749.414	84.33
749.595	87.04
749.775	86.48
749.956	86.05
750.137	85.96
750.317	85.99
750.498	84.19
750.678	84.85
750.859	87.42
751.04	87.02
751.22	86.72
751.4	87.32
751.581	86.83
751.761	84.22
751.942	84.66
752.122	86.08
752.303	85.85
752.483	86.27
752.663	88.2
752.844	88.08
753.024	86.99
753.204	86.75
753.385	86.92
753.565	85.99
753.745	84.72
753.925	86.48
754.106	86.17
754.286	85.03
754.466	84.67
754.646	86.01
754.826	84.84
755.006	85.9
755.187	87.13
755.367	86.9
755.547	85.82
755.727	86.12
755.907	85.87
756.087	85.63
756.267	86.99
756.447	89.15
756.627	87.08
756.807	88.86
756.987	89.79
757.167	89.43
757.346	87.96
757.526	89.57
757.706	87.27
757.886	87.82
758.066	87.91
758.246	88.13
758.425	87.64
758.605	87.48
758.785	86.72
758.965	86.53
759.144	86.77
759.324	87.46
759.504	88.36
759.683	87.97
759.863	86.47
760.043	87.91
760.222	89.88
760.402	89.46
760.581	89.5
760.761	90.58
760.94	89.49
761.12	87.57
761.299	87.77
761.479	86.2
761.658	85.41
761.838	83.74
762.017	81.19
762.197	80.95
762.376	83.15
762.555	83.25
762.735	85.32
762.914	83.91
763.093	83.54
763.273	81.76
763.452	83.13
763.631	81.58
763.81	84.41
763.99	85.5
764.169	85.98
764.348	84.03
764.527	84.92
764.706	85.16
764.885	83.87
765.064	83.16
765.243	84.16
765.423	84.18
765.602	83.94
765.781	83.11
765.96	81.53
766.139	80.87
766.318	80.67
766.497	81.28
766.676	81.95
766.854	83.68
767.033	84.69
767.212	83.85
767.391	84.91
767.57	85.37
767.749	87.16
767.928	86.93
768.106	85.33
768.285	83.39
768.464	84.45
768.643	81.56
768.821	81.15
769	82.15
769.179	81.71
769.357	81.29
769.536	83.35
769.715	82.81
769.893	83.46
770.072	84.3
770.25	83.74
770.429	84.46
770.607	83.18
770.786	83.97
770.964	83.35
771.143	83.47
771.321	81.35
771.5	85.62
771.678	83.28
771.857	84.76
772.035	83.14
772.213	84.09
772.392	82.44
772.57	83.48
772.748	83.25
772.927	84.86
773.105	84.31
773.283	84.12
773.461	83.5
773.64	84.68
773.818	84.35
773.996	86.25
774.174	86.06
774.352	86.4
774.531	82.94
774.709	83.07
774.887	81.01
775.065	79.84
775.243	79.62
775.421	80.36
775.599	81.15
775.777	79.74
775.955	76.77
776.133	79.23
776.311	80.46
776.489	80.07
776.667	80.7
776.844	84.53
777.022	83.79
777.2	85.88
777.378	86.23
777.556	88.3
777.734	85.61
777.911	85.73
778.089	82.68
778.267	81.55
778.445	78.16
778.622	79.83
778.8	77.93
778.978	79.03
779.155	77.51
779.333	79.9
779.511	75.29
779.688	78.37
779.866	73.32
780.043	75.12
780.221	72.37
780.398	78.63
780.576	75.21
780.753	79.84
780.931	79.91
781.108	82.72
781.286	82.92
781.463	83.59
781.64	83.74
781.818	83.62
781.995	81.86
782.172	80.46
782.35	83.14
782.527	82.05
782.704	83.62
782.882	85.26
783.059	87.6
783.236	84.47
783.413	88.86
783.59	85.9
783.768	80.02
783.945	78.94
784.122	81.3
784.299	79.12
784.476	79.87
784.653	84.9
784.83	82.22
785.007	79.5
785.184	79.68
785.361	81.74
785.538	84.45
785.715	84.8
785.892	85.32
786.069	85.85
786.246	84.38
786.423	83.79
786.6	84.54
786.776	83.65
786.953	82.79
787.13	81.61
787.307	80.37
787.484	80.88
787.66	81.02
787.837	81.39
788.014	82.25
788.191	85.01
788.367	82.88
788.544	89.65
788.721	86.11
788.897	87.13
789.074	85.91
789.25	84.4
789.427	82.5
789.603	89.09
789.78	89.84
789.956	91.54
790.133	94.44
790.309	90.88
790.486	84.14
790.662	82.98
790.839	78.57
791.015	80.55
791.192	78.9
791.368	77.15
791.544	75.59
791.721	75.95
791.897	75.83
792.073	77.59
792.249	80.63
792.426	80.98
792.602	80.58
792.778	78.03
792.954	77.66
793.13	76.95
793.307	81.84
793.483	82.69
793.659	82.47
793.835	85.55
794.011	88.39
794.187	78.64
794.363	79.47
794.539	80.18
794.715	74.87
794.891	72.08
795.067	70.95
795.243	71.94
795.419	71.76
795.595	73.5
795.771	70.45
795.947	76.08
796.122	69.05
796.298	69.73
796.474	68.82
796.65	69.81
796.826	68.46
797.001	77.4
797.177	77.44
797.353	75.05
797.529	79.97
797.704	77.68
797.88	72.63
798.056	75.64
798.231	76.26
798.407	71.11
798.582	73.33
798.758	75.29
798.934	74.53
799.109	79.5
799.285	81.75
799.46	83.02
799.636	78.08
799.811	80.92
799.986	83.2
800.162	81.95
800.337	80.54
800.513	77.88
800.688	77.3
800.863	73.83
801.039	76.04
801.214	71.99
801.389	76.05
801.565	71.5
801.74	69.24
801.915	68.94
802.09	75.51
802.265	77.14
802.441	81.32
802.616	83.39
802.791	85.17
802.966	83.15
803.141	83.14
803.316	73.16
803.491	71.29
803.666	67.93
803.841	73.44
804.016	75.06
804.191	85.12
804.366	92.13
804.541	94.42
804.716	89.86
804.891	84.35
805.066	76.84
805.241	70.22
805.416	69.68
805.591	68.25
805.765	69.65
805.94	71.83
806.115	74.85
806.29	75.96
806.464	84.48
806.639	89.82
806.814	87.53
806.989	79.69
807.163	80.95
807.338	76.77
807.512	71.21
807.687	70.24
807.862	70.19
808.036	62.24
808.211	62.65
808.385	62.39
808.56	67.69
808.734	77.19
808.909	86.82
809.083	79.03
809.258	73.88
809.432	72.27
809.606	61.35
809.781	64.02
809.955	63.87
810.13	71.72
810.304	69.36
810.478	71.87
810.652	71.56
810.827	72.29
811.001	73.48
811.175	76.4
811.349	84.79
811.524	91.78
811.698	90.77
811.872	85.04
812.046	84.42
812.22	78.76
812.394	64.47
812.568	69.14
812.742	76.42
812.916	74.52
813.09	86.76
813.264	94.37
813.438	86.98
813.612	90.63
813.786	70.14
813.96	51.21
814.134	55.63
814.308	63.4
814.482	57.94
814.656	85.96
814.83	95.99
815.003	96.49
815.177	98.34
815.351	95.09
815.525	84.92
815.698	78.95
815.872	67.27
816.046	62.08
816.219	61.82
816.393	64.26
816.567	73.46
816.74	89.63
816.914	107.92
817.088	129.39
817.261	116.25
817.435	95.42
817.608	92.78
817.782	76.03
817.955	68.26
818.129	77.86
818.302	71.91
818.475	63.2
818.649	61.71
818.822	54.52
818.996	53.45
819.169	61.85
819.342	71.96
819.516	78.53
819.689	88.5
819.862	107.02
820.035	100
820.209	78.07
820.382	81.21
820.555	77.66
820.728	74.24
820.901	64.36
821.075	84.22
821.248	86.82
821.421	85.76
821.594	77.74
821.767	88.79
821.94	84.13
822.113	55.87
822.286	45.47
822.459	46.38
822.632	53.91
822.805	71.41
822.978	105.74
823.151	111.86
823.324	120.11
823.496	95.02
823.669	66.43
823.842	71.75
824.015	61.96
824.188	48.38
824.361	59.09
824.533	83.42
824.706	51.42
824.879	62.54
825.051	69.51
825.224	81.93
825.397	74.66
825.569	85.95
825.742	84.29
825.915	73.65
826.087	65.51
826.26	60.86
826.432	53.47
826.605	45.78
826.777	57.99
826.95	71.7
827.122	76.68
827.295	74.58
827.467	78.8
827.64	43.58
827.812	25.7
827.984	26.86
828.157	26.4
828.329	42.37
828.501	66.04
828.674	61.24
828.846	58.92
829.018	70.58
829.19	82.76
829.363	84.04
829.535	92.51
829.707	91.55
829.879	74.77
830.051	55.81
830.223	62.48
830.395	48.92
830.568	41.38
830.74	57.02
830.912	54.35
831.084	56.13
831.256	64.85
831.428	60.1
831.6	57.24
831.772	72.99
831.943	53.09
832.115	59
832.287	97.11
832.459	85.51
832.631	76.46
832.803	98.38
832.975	95.21
833.146	82.87
833.318	72.56
833.49	73.2
833.662	61.63
833.833	74.54
834.005	72.07
834.177	93.19
834.348	97.32
834.52	94.32
834.692	107.68
834.863	98.69
835.035	91.35
835.206	81.57
835.378	91.38
835.549	77.98
835.721	88.39
835.892	72
836.064	83.69
836.235	105.11
836.407	128.83
836.578	100.67
836.749	122.16
836.921	118.3
837.092	89.18
837.264	56.47
837.435	63.54
837.606	30.9
837.777	15.74
837.949	32.31
838.12	-30.32
838.291	10.17
838.462	70.25
838.633	46.35
838.805	47.62
838.976	129.11
839.147	105.73
839.318	108.73
839.489	78.45
839.66	112.8
839.831	85.89
840.002	65.35
840.173	17.29
840.344	76.54
840.515	43.91
840.686	44.82
840.857	54.02
841.028	76.26
841.199	74.31
841.369	76.71
841.54	54.45
841.711	65.89
841.882	32.1
842.053	35.63
842.223	46.88
842.394	68.49
842.565	86.51
842.736	103.61
842.906	88.55
843.077	93.7
843.248	84.71
843.418	62.52
843.589	59.83
843.759	102.96
843.93	-315.93
844.101	-54.57
844.271	89.82
844.442	120.05
844.612	69.64
844.783	132.85
844.953	104.85
845.123	81.93
845.294	60.91
845.464	50.84
845.635	52.79
845.805	98.56
845.975	108.71
846.146	144.83
846.316	332.31
846.486	140.46
846.656	116.51
846.827	120.86
846.997	88.06
847.167	81.79
847.337	68.26
847.507	77.72
847.677	67.47
847.848	105.98
848.018	102.15
848.188	126.83
848.358	85.14
848.528	135.93
848.698	101.14
848.868	76.92
849.038	51.59
849.208	91.57
849.378	48.64
849.548	32.48
849.718	397.63
849.887	-169.48
850.057	-1332.26
850.227	1037.34
850.397	1759.06
850.567	-141.18
850.737	-5.92
850.906	-3.62
851.076	15.67
851.246	80.17
851.415	83.37
851.585	70.96
851.755	71.9
851.924	77.41
852.094	64.09
852.264	51.17
852.433	32.62
852.603	63.81
852.772	76.36
852.942	58.47
853.111	64.07
853.281	88.68
853.45	70.78
853.62	61.45
853.789	20.98
853.959	-95.96
854.128	87.95
854.297	136.06
854.467	250.66
854.636	-17.78
854.805	104.74
854.975	42.3
855.144	48.19
855.313	77.64
855.482	113.01
855.652	94.27
855.821	115.66
855.99	158.56
856.159	238.53
856.328	101.93
856.497	52.56
856.667	102.23
856.836	108.55
857.005	118.64
857.174	90.82
857.343	123.46
857.512	87.77
857.681	23.34
857.85	-28.76
858.019	-37.14
858.188	-43.68
858.356	-104.93
858.525	-69
858.694	-42.06
858.863	-39.43
859.032	-122.52
859.201	-64.17
859.369	-18.98
859.538	10.45
859.707	-5.91
859.876	19.45
860.044	30.18
860.213	84.32
860.382	90.78
860.55	66.5
860.719	81.19
860.888	68.77
861.056	59.13
861.225	92.61
861.393	166.15
861.562	208.8
861.73	227.63
861.899	144.05
862.067	179.94
862.236	63.35
862.404	-13.62
862.572	-63.39
862.741	-341.33
862.909	2.34
863.078	53.7
863.246	80.47
863.414	146.12
863.582	115.65
863.751	130.56
863.919	112.92
864.087	109.16
864.255	59.32
864.424	-37.32
864.592	13.73
864.76	53.83
864.928	84.23
865.096	77.47
865.264	117.13
865.432	116.7
865.6	148.52
865.768	45.91
865.936	-34.64
866.104	-512.62
866.272	-91.37
866.44	-167.9
866.608	-70.11
866.776	-12.18
866.944	15.19
867.112	40.39
867.28	4.76
867.448	16.73
867.615	48.96
867.783	82.87
867.951	42.66
868.119	87.05
868.286	149.23
868.454	124.69
868.622	22.55
868.789	204.97
868.957	-350.68
869.125	223.84
869.292	-519.91
869.46	-54
869.627	-949.14
869.795	-116.58
869.963	4.09
870.13	42.63
870.298	45.08
870.465	60.45
870.632	48.46
870.8	69.17
870.967	97.54
871.135	69.26
871.302	-176.34
871.469	273.67
871.637	78.95
871.804	20.26
871.971	5.69
872.139	38.71
872.306	2.22
872.473	-147.24
872.64	-76.44
872.807	31.8
872.975	-20.31
873.142	-16.9
873.309	-16.96
873.476	22.85
873.643	2.62
873.81	26.63
873.977	12
874.144	35.64
874.311	55.29
874.478	24.92
874.645	-102.63
874.812	-224.17
874.979	-79.37
875.146	-66.89
875.313	-539.16
875.48	316.87
875.647	-16.01
875.813	-188.61
875.98	161.8
876.147	36.96
876.314	48.09
876.481	-14.49
876.647	37.81
876.814	35.5
876.981	138.88
877.147	-19.9
877.314	-71.43
877.481	-148.7
877.647	-277.64
877.814	-401.63
877.98	-136.89
878.147	-118.55
878.314	-148.86
878.48	755.87
878.647	339.01
878.813	704.32
878.979	33.36
879.146	8.99
879.312	-3
879.479	38.17
879.645	72.8
879.811	55.62
879.978	30.67
880.144	155.09
880.31	346.41
880.477	309.4
880.643	-224.32
880.809	-3968.29
880.975	431.66
881.142	-117.68
881.308	-13.03
881.474	127.03
881.64	120.32
881.806	73.03
881.972	109.41
882.138	96.89
882.304	77.28
882.47	41.15
882.636	59.19
882.802	57.93
882.968	50.37
883.134	43.94
883.3	45.6
883.466	54.16
883.632	83.44
883.798	108.74
883.964	85.76
884.129	123.09
884.295	146.45
884.461	-438.78
884.627	956.51
884.793	161.23
884.958	274.63
885.124	2404.95
885.29	-293.77
885.455	-126.07
885.621	-1.58
885.787	-9.13
885.952	3.31
886.118	125.09
886.283	70.86
886.449	123.59
886.614	89.52
886.78	116.12
886.945	98.4
887.111	77.95
887.276	80.04
887.442	90.07
887.607	32.6
887.773	-71.25
887.938	-46.23
888.103	-61.61
888.269	-76.57
888.434	1229.41
888.599	-29.34
888.764	577.67
888.93	28.18
889.095	28.39
889.26	25.21
889.425	109.06
889.59	99.18
889.756	140.63
889.921	106.64
890.086	64.65
890.251	0.3
890.416	-48.48
890.581	-42.87
890.746	18.34
890.911	115.15
891.076	207.29
891.241	98.69
891.406	-2471.43
891.571	42.98
891.736	254
891.901	248.55
892.065	74.75
892.23	296.19
892.395	372.93
892.56	2089.26
892.725	-279.61
892.889	-547.84
893.054	-1314.57
893.219	-2118.71
893.384	-344.57
893.548	-666.4
893.713	-399.59
893.878	-528.27
