Data from Ofav_SP_Phys_0AZ4_Reflection_2.txt Node
Date: Thu Aug 05 17:43:12 EDT 2021
User: Adam
Spectrometer: FLMT01687
Trigger mode: 0
Integration Time (sec): 8.000000E-1
Scans to average: 2
Electric dark correction enabled: true
Nonlinearity correction enabled: false
Boxcar width: 2
XAxis mode: Wavelengths
Number of Pixels in Spectrum: 3648
>>>>>Begin Spectral Data<<<<<
179.494	181.2
179.716	209.48
179.937	160.51
180.158	205.3
180.38	468.88
180.601	-91
180.823	-11.6
181.044	52.63
181.265	105.58
181.486	200.12
181.708	-670.47
181.929	-194.05
182.15	-275.51
182.372	27.04
182.593	85.39
182.814	15.55
183.035	40.2
183.257	195.37
183.478	-108.81
183.699	283.59
183.92	174.49
184.141	-429.15
184.363	1127.03
184.584	-122
184.805	0.14
185.026	-6.68
185.247	-5.01
185.468	24.1
185.689	31.75
185.91	14.59
186.132	-17.77
186.353	2.4
186.574	-76.17
186.795	-71.83
187.016	-91.59
187.237	-44.47
187.458	-236.52
187.679	-36.17
187.9	-35.4
188.121	-68.17
188.342	-82.04
188.563	-15.25
188.784	3.96
189.005	-92.14
189.226	1
189.447	32.06
189.667	16.66
189.888	31.91
190.109	101.2
190.33	98.97
190.551	77.93
190.772	87.92
190.993	50.63
191.214	44.32
191.434	22.21
191.655	12.67
191.876	12.93
192.097	11.31
192.318	1.87
192.538	-30.79
192.759	6.82
192.98	-11.86
193.201	-202.75
193.421	-171.61
193.642	-38.96
193.863	-36.28
194.083	-6.43
194.304	35.92
194.525	68.05
194.745	75.08
194.966	55.02
195.187	24.79
195.407	-24.18
195.628	-72.91
195.848	-87.16
196.069	-69.3
196.29	-49.68
196.51	-0.74
196.731	17.52
196.951	36.54
197.172	81.7
197.392	85.95
197.613	70.04
197.833	80.74
198.054	42.91
198.274	-9.47
198.495	-7.87
198.715	4.38
198.936	-25.7
199.156	32.89
199.377	50.93
199.597	38.82
199.817	40.32
200.038	34.83
200.258	30.68
200.479	18.89
200.699	18.78
200.919	2.69
201.14	-2.63
201.36	-8.01
201.58	-9.04
201.801	-20.51
202.021	23.5
202.241	64.97
202.461	85.73
202.682	40.26
202.902	-5.37
203.122	-34.17
203.342	-12.42
203.563	-56.01
203.783	4.33
204.003	34.76
204.223	20.76
204.443	10.63
204.663	46.55
204.884	60.79
205.104	65.5
205.324	77.16
205.544	58.22
205.764	38.22
205.984	26.43
206.204	15.04
206.424	4.91
206.644	19.21
206.864	37.23
207.084	2.22
207.304	46.66
207.525	68.61
207.745	83.51
207.964	68.04
208.184	43.24
208.404	-18.4
208.624	-80.03
208.844	-149.94
209.064	-129.15
209.284	-53.23
209.504	-47.39
209.724	5.69
209.944	-3.37
210.164	-8.26
210.384	-11.37
210.604	22.73
210.823	25.46
211.043	40.49
211.263	46.18
211.483	47.02
211.703	30.3
211.922	15.24
212.142	31.67
212.362	0.46
212.582	2.71
212.801	5.81
213.021	49.33
213.241	-9.71
213.461	-3.44
213.68	-19.26
213.9	-21.11
214.12	-53.98
214.339	-42.72
214.559	-40.42
214.779	-42.58
214.998	-58.85
215.218	-63.42
215.438	-23.34
215.657	30.5
215.877	51.58
216.096	23.95
216.316	2.65
216.535	-41.77
216.755	-93.93
216.974	-237.24
217.194	-39.38
217.413	12.94
217.633	29.47
217.852	36.51
218.072	37.58
218.291	43.22
218.511	36.51
218.73	53.48
218.95	47.55
219.169	26.96
219.389	72.46
219.608	108.14
219.827	71.91
220.047	63.36
220.266	76.73
220.485	47.24
220.705	43.02
220.924	35.02
221.143	59.12
221.363	22.08
221.582	35.8
221.801	43.53
222.021	66.54
222.24	68.18
222.459	97.46
222.678	43.62
222.897	20.24
223.117	3.1
223.336	-1.79
223.555	15.52
223.774	3.94
223.993	18.9
224.213	13.9
224.432	-26.71
224.651	-11.4
224.87	7.81
225.089	-0.45
225.308	-21.33
225.527	19.37
225.746	23.95
225.965	8.8
226.184	7
226.404	21.13
226.623	21.47
226.842	16.71
227.061	27.01
227.28	40.23
227.499	35.56
227.718	24.8
227.936	14.93
228.155	17.04
228.374	17.64
228.593	26.04
228.812	34.92
229.031	30.73
229.25	30.46
229.469	43.69
229.688	45.12
229.907	45.34
230.125	45.78
230.344	36.95
230.563	28.12
230.782	-39.66
231.001	-56.31
231.22	25.41
231.438	45.45
231.657	35.13
231.876	47.64
232.095	29.54
232.313	7.73
232.532	9.19
232.751	16.93
232.969	26.41
233.188	20.61
233.407	35.15
233.625	47.24
233.844	42.76
234.063	40.47
234.281	46.89
234.5	15.19
234.719	1.22
234.937	-28.79
235.156	-30.46
235.374	-2.08
235.593	18.28
235.811	3.21
236.03	23.69
236.249	42.15
236.467	0.31
236.686	-11.45
236.904	16.45
237.123	-15.4
237.341	0.88
237.559	9.54
237.778	16.79
237.996	19.11
238.215	29.75
238.433	41.94
238.652	44.27
238.87	25.86
239.088	6.32
239.307	19.99
239.525	3.68
239.743	6.75
239.962	40.11
240.18	18.68
240.398	-7.31
240.617	2.03
240.835	15.81
241.053	1.85
241.271	8.79
241.49	23.2
241.708	-21.57
241.926	-10.03
242.144	-34.53
242.363	-6.45
242.581	39.47
242.799	57.82
243.017	48.69
243.235	62.23
243.453	24.11
243.672	5.74
243.89	47.47
244.108	87.18
244.326	66.37
244.544	113.19
244.762	97.67
244.98	83.14
245.198	65.02
245.416	48.02
245.634	9.94
245.852	-22.91
246.07	-21.09
246.288	-28.37
246.506	-45.81
246.724	8.5
246.942	17.27
247.16	48.14
247.378	51.6
247.596	15.23
247.814	18.52
248.032	19.58
248.25	-2.39
248.468	-9.2
248.685	21.53
248.903	13.51
249.121	12.58
249.339	35.62
249.557	70.59
249.775	73.2
249.992	89.47
250.21	87.5
250.428	58.77
250.646	45.47
250.863	45.58
251.081	46.09
251.299	4.91
251.517	32.84
251.734	38.25
251.952	12.18
252.17	-6.55
252.387	2.5
252.605	-1.41
252.823	14.16
253.04	13.25
253.258	25.07
253.475	36.19
253.693	30.96
253.911	51.51
254.128	32.42
254.346	33.13
254.563	32.39
254.781	40
254.998	10.38
255.216	49.99
255.433	24.72
255.651	-8.75
255.868	-41.31
256.086	-22.42
256.303	-20.82
256.521	-18.81
256.738	-49.98
256.956	-112.98
257.173	0.39
257.39	29.19
257.608	23.86
257.825	35.67
258.043	37.84
258.26	15.56
258.477	11.67
258.695	11.55
258.912	20.15
259.129	34.79
259.346	41.43
259.564	33.57
259.781	40.4
259.998	36.63
260.216	18.95
260.433	18.24
260.65	14.56
260.867	-10.86
261.084	32.33
261.302	38.01
261.519	44.27
261.736	52.67
261.953	60.08
262.17	56.52
262.387	68.2
262.604	58.84
262.822	49.47
263.039	26.57
263.256	30.23
263.473	32.88
263.69	61.81
263.907	55.52
264.124	38.3
264.341	13.18
264.558	10.15
264.775	-21.14
264.992	-21.1
265.209	4.86
265.426	12.31
265.643	5.61
265.86	10.35
266.077	-0.63
266.294	-17.72
266.51	-17.28
266.727	-19.96
266.944	-19.02
267.161	3.82
267.378	25.74
267.595	16.41
267.812	27.16
268.028	18.7
268.245	20.19
268.462	-17.98
268.679	-32.9
268.896	-14.53
269.112	-20.53
269.329	-26.1
269.546	15.07
269.763	30.04
269.979	32.11
270.196	35.79
270.413	31.7
270.629	20.98
270.846	28.27
271.063	20.44
271.279	28.65
271.496	15.87
271.712	20.98
271.929	18.61
272.146	0.91
272.362	-0.35
272.579	-1.5
272.795	3.19
273.012	11.68
273.228	1.18
273.445	25.69
273.661	42.46
273.878	29.23
274.094	19.15
274.311	41.02
274.527	13.93
274.744	-9.7
274.96	6.51
275.177	14.69
275.393	13.72
275.609	13.62
275.826	11.89
276.042	18.21
276.259	25.75
276.475	8.46
276.691	-0.45
276.908	16.96
277.124	25.39
277.34	18.84
277.557	19.54
277.773	37.98
277.989	28.94
278.205	22.8
278.422	45.11
278.638	48.69
278.854	53.43
279.07	44.83
279.286	26.92
279.503	3.65
279.719	-22.04
279.935	-24.12
280.151	2.19
280.367	29.89
280.583	27.62
280.799	21.72
281.016	16.11
281.232	-6.78
281.448	-6.68
281.664	7.53
281.88	62.98
282.096	61.38
282.312	59.23
282.528	56.39
282.744	31.57
282.96	19.77
283.176	12.73
283.392	31.27
283.608	18.53
283.824	26.7
284.04	33.94
284.256	40.8
284.471	1.57
284.687	18.73
284.903	27.6
285.119	20.46
285.335	3.54
285.551	14.9
285.767	-9.47
285.982	-32.26
286.198	-29.31
286.414	-33.68
286.63	-8.48
286.846	14.95
287.061	20.34
287.277	27.46
287.493	48.36
287.709	29.49
287.924	34.13
288.14	35.76
288.356	24.02
288.571	30.75
288.787	29.13
289.003	15.49
289.218	-23.21
289.434	-0.35
289.65	-18.11
289.865	-0.51
290.081	13.94
290.296	6.56
290.512	2.8
290.727	18.11
290.943	11.97
291.159	12.54
291.374	33.98
291.59	24.98
291.805	6.99
292.021	12.3
292.236	2.28
292.451	1.74
292.667	8.64
292.882	-36.17
293.098	-9.86
293.313	0.33
293.529	-7.01
293.744	-5.27
293.959	-1.29
294.175	7.47
294.39	-3.72
294.605	-11.84
294.821	-10.56
295.036	17.56
295.251	3.7
295.467	15.45
295.682	12.26
295.897	24.71
296.112	21.88
296.328	21.1
296.543	30.02
296.758	18.3
296.973	12.18
297.188	14.39
297.404	23.14
297.619	17.43
297.834	12.65
298.049	-4.22
298.264	-22.75
298.479	-40.78
298.694	-18.43
298.909	8.84
299.125	23.94
299.34	46.99
299.555	29.72
299.77	7.85
299.985	26.63
300.2	19.65
300.415	10.37
300.63	7.97
300.845	-1.9
301.06	-13.61
301.275	-14.54
301.49	-12.7
301.704	-15.68
301.919	32.65
302.134	36.63
302.349	48.23
302.564	42.2
302.779	45.94
302.994	34.97
303.209	30.25
303.423	7.13
303.638	4.68
303.853	4.95
304.068	1.69
304.283	-3.47
304.497	10.55
304.712	6.08
304.927	-6.12
305.142	6.65
305.356	8.1
305.571	3.84
305.786	17.93
306	28.71
306.215	30.64
306.43	48.93
306.644	55.64
306.859	48.53
307.074	53.1
307.288	49.11
307.503	39.5
307.717	43.34
307.932	29.48
308.147	31.31
308.361	25.83
308.576	17.82
308.79	2.91
309.005	13.93
309.219	-19.69
309.434	-45.77
309.648	-66.28
309.863	-85.29
310.077	-122.68
310.292	-82.78
310.506	-49.69
310.72	-24.35
310.935	11.24
311.149	-3.56
311.364	34.2
311.578	53.62
311.792	46.63
312.007	24.19
312.221	41.35
312.435	9.61
312.649	1.45
312.864	-7.41
313.078	-0.54
313.292	10.8
313.507	30.42
313.721	20.8
313.935	27.76
314.149	16.15
314.363	-5.16
314.578	9
314.792	9.71
315.006	-5.38
315.22	10.19
315.434	0.33
315.648	-54.37
315.862	-75.78
316.077	-32.85
316.291	-70.16
316.505	-2.83
316.719	13.6
316.933	25.29
317.147	20.56
317.361	27.07
317.575	3.36
317.789	-6.81
318.003	-31.32
318.217	1.83
318.431	15.75
318.645	34.34
318.859	32.51
319.073	30.48
319.287	5.76
319.5	15.28
319.714	16.55
319.928	28.68
320.142	32.61
320.356	24.12
320.57	0.06
320.784	-9.94
320.997	-33.4
321.211	-9.58
321.425	-4.3
321.639	7.91
321.853	-1.55
322.066	-3.33
322.28	-4.21
322.494	-3.59
322.707	-3.39
322.921	2.37
323.135	16.55
323.349	17.66
323.562	11.45
323.776	16.9
323.989	4.91
324.203	2.57
324.417	14.83
324.63	14.76
324.844	13.84
325.057	32.7
325.271	7.32
325.485	6.15
325.698	12.78
325.912	17.12
326.125	18.5
326.339	41.6
326.552	46.82
326.766	24.49
326.979	41.61
327.193	33.71
327.406	30.57
327.619	26.21
327.833	34.09
328.046	33.56
328.26	43.52
328.473	22.89
328.686	19.72
328.9	30.2
329.113	9.33
329.326	-0.48
329.54	15.61
329.753	18.56
329.966	35.04
330.179	29.14
330.393	46.61
330.606	39.04
330.819	28.16
331.032	9.39
331.246	49.22
331.459	35.18
331.672	33.8
331.885	49.9
332.098	39.45
332.311	18.61
332.525	6.22
332.738	12.73
332.951	-8.16
333.164	4.9
333.377	21.4
333.59	34.82
333.803	39.45
334.016	50.36
334.229	58.63
334.442	35.26
334.655	27.96
334.868	31.8
335.081	22
335.294	17.29
335.507	19.3
335.72	24.27
335.933	17
336.146	29.16
336.359	31.99
336.572	28.89
336.785	33.96
336.997	34.53
337.21	36.72
337.423	32.68
337.636	21.97
337.849	33.57
338.062	19.57
338.274	-15.57
338.487	-34.38
338.7	-18.84
338.913	-46.18
339.125	-25.98
339.338	-0.85
339.551	0.7
339.763	27.65
339.976	40.33
340.189	45.28
340.402	27.3
340.614	36.3
340.827	25.83
341.039	12.53
341.252	5.26
341.465	11.56
341.677	10.7
341.89	8.49
342.102	19.73
342.315	11.13
342.527	28.16
342.74	17.39
342.952	9.63
343.165	5.67
343.377	19.98
343.59	-29.25
343.802	-10.49
344.015	5.76
344.227	14.15
344.44	17.67
344.652	41.29
344.864	44.98
345.077	35.33
345.289	25.83
345.502	23.56
345.714	22.75
345.926	17.89
346.139	30.71
346.351	36.97
346.563	17.8
346.775	1.78
346.988	-20.79
347.2	-49.02
347.412	-119.95
347.624	-57.96
347.837	-25.16
348.049	-15.23
348.261	16.12
348.473	25.14
348.685	28.61
348.897	21.65
349.11	13.98
349.322	-10.17
349.534	7.94
349.746	7.26
349.958	8.4
350.17	26.79
350.382	29.2
350.594	23.59
350.806	17.52
351.018	25.01
351.23	28.94
351.442	23.59
351.654	20.98
351.866	15.16
352.078	-4.11
352.29	-28.39
352.502	-10.59
352.714	-28.32
352.926	3.62
353.138	7.48
353.35	37.54
353.561	27.07
353.773	28.72
353.985	23.32
354.197	21.5
354.409	-9.19
354.621	-10.82
354.832	2.2
355.044	2.47
355.256	5.79
355.468	22.22
355.679	42.05
355.891	36.65
356.103	25.79
356.314	33.19
356.526	28.37
356.738	20.91
356.949	0.52
357.161	12.65
357.373	3.6
357.584	5.28
357.796	-11.8
358.008	-0.62
358.219	-25.55
358.431	12.69
358.642	-1.19
358.854	15.03
359.065	37.1
359.277	46.43
359.488	12.56
359.7	20.59
359.911	16.01
360.123	4.29
360.334	2.18
360.546	13.7
360.757	12.33
360.969	22.59
361.18	17.95
361.391	12.32
361.603	32.38
361.814	23.8
362.025	23.56
362.237	27.22
362.448	14.53
362.659	3.81
362.871	-6.53
363.082	-17.85
363.293	-19.85
363.504	-14.8
363.716	-19.22
363.927	16.96
364.138	25.78
364.349	21.36
364.56	23.46
364.772	33.59
364.983	22.08
365.194	25.09
365.405	20.81
365.616	30.44
365.827	18.91
366.038	12.25
366.25	-3.29
366.461	-6.79
366.672	-6.22
366.883	2.49
367.094	13.53
367.305	26.62
367.516	37.45
367.727	45.02
367.938	32.49
368.149	25.02
368.36	34.24
368.571	21.8
368.781	-14.12
368.992	10.88
369.203	25.56
369.414	-3.99
369.625	2.74
369.836	14.67
370.047	7.49
370.258	13.09
370.468	33.67
370.679	39.85
370.89	30.22
371.101	28.67
371.312	27.44
371.522	27
371.733	18.29
371.944	33.34
372.155	33.74
372.365	17.85
372.576	22.85
372.787	18.51
372.997	16.92
373.208	25.98
373.419	36.03
373.629	21.1
373.84	33.77
374.05	29.71
374.261	32.13
374.472	38
374.682	44.18
374.893	47.28
375.103	47.71
375.314	39.3
375.524	29.33
375.735	18.71
375.945	26.41
376.156	15.98
376.366	21.44
376.577	23.16
376.787	24.46
376.997	15.26
377.208	24.55
377.418	36.57
377.629	37.45
377.839	50.68
378.049	51.21
378.26	40.46
378.47	32.95
378.68	33
378.89	14.31
379.101	16.18
379.311	28.66
379.521	20.86
379.732	23.17
379.942	34.13
380.152	17.99
380.362	17.79
380.572	22.51
380.783	16.81
380.993	13.81
381.203	22.93
381.413	17.86
381.623	14.27
381.833	17.78
382.043	15.63
382.253	19.01
382.463	24.68
382.674	28.45
382.884	14.26
383.094	8.13
383.304	-2.01
383.514	0.49
383.724	-5.17
383.934	12.67
384.144	14.52
384.353	16.8
384.563	9.9
384.773	11.34
384.983	-1.78
385.193	2.22
385.403	6.5
385.613	4.35
385.823	4.42
386.033	7.75
386.242	6.54
386.452	-0.05
386.662	1.28
386.872	0.77
387.082	9.24
387.291	2.17
387.501	5.79
387.711	7.96
387.921	6.54
388.13	2.24
388.34	7.13
388.55	9.56
388.759	7.96
388.969	8.52
389.179	8.73
389.388	11.18
389.598	7.9
389.807	9.49
390.017	11.85
390.227	10.91
390.436	8.21
390.646	7.85
390.855	7.28
391.065	5.32
391.274	6.37
391.484	7.69
391.693	8.41
391.903	7.51
392.112	8.3
392.322	6.31
392.531	4.69
392.74	5.17
392.95	5.22
393.159	4.91
393.369	6.16
393.578	7.46
393.787	8.01
393.997	8.27
394.206	8.45
394.415	8.76
394.625	9.76
394.834	8.92
395.043	7.51
395.252	7.48
395.462	7.23
395.671	5.99
395.88	6.48
396.089	7.47
396.298	7.46
396.508	7.38
396.717	6.97
396.926	6.93
397.135	6.85
397.344	6.29
397.553	6.46
397.762	7.14
397.971	6.79
398.181	6.44
398.39	6.93
398.599	6.89
398.808	6.65
399.017	6.19
399.226	6.33
399.435	6.63
399.644	6.29
399.853	6.37
400.062	7.04
400.27	7.13
400.479	6.6
400.688	6.88
400.897	7.09
401.106	6.8
401.315	6.76
401.524	6.82
401.733	6.77
401.941	6.54
402.15	6.62
402.359	6.46
402.568	6.52
402.777	6.45
402.985	6.5
403.194	6.41
403.403	6.67
403.612	6.59
403.82	6.5
404.029	6.17
404.238	6.3
404.446	6.1
404.655	6.13
404.864	6.17
405.072	6.36
405.281	6.34
405.489	6.39
405.698	6.53
405.906	6.43
406.115	6.37
406.324	6.32
406.532	6.23
406.741	6.11
406.949	6.06
407.158	6.14
407.366	6.18
407.574	6.27
407.783	6.18
407.991	6.37
408.2	6.31
408.408	6.32
408.617	6.41
408.825	6.49
409.033	6.4
409.242	6.43
409.45	6.3
409.658	6
409.867	5.97
410.075	5.96
410.283	5.92
410.491	5.82
410.7	6.08
410.908	5.97
411.116	5.93
411.324	5.95
411.533	5.95
411.741	5.86
411.949	5.97
412.157	5.94
412.365	5.87
412.573	5.85
412.781	5.85
412.99	5.81
413.198	5.96
413.406	6.11
413.614	6.15
413.822	6.16
414.03	6.18
414.238	6.01
414.446	5.9
414.654	5.95
414.862	5.83
415.07	5.72
415.278	5.77
415.486	5.59
415.694	5.47
415.902	5.41
416.109	5.4
416.317	5.6
416.525	5.81
416.733	5.86
416.941	5.97
417.149	6.09
417.357	5.76
417.564	5.57
417.772	5.52
417.98	5.46
418.188	5.38
418.395	5.37
418.603	5.36
418.811	5.32
419.019	5.35
419.226	5.28
419.434	5.37
419.642	5.51
419.849	5.44
420.057	5.26
420.265	5.32
420.472	5.17
420.68	4.9
420.887	4.98
421.095	5.15
421.302	5.06
421.51	5.15
421.717	5.33
421.925	5.32
422.132	5.19
422.34	5.21
422.547	5.16
422.755	5.15
422.962	5.23
423.17	5.46
423.377	5.43
423.585	5.49
423.792	5.5
423.999	5.43
424.207	5.22
424.414	5.08
424.621	5.22
424.829	5.31
425.036	5.33
425.243	5.47
425.451	5.59
425.658	5.47
425.865	5.21
426.072	5.11
426.28	4.95
426.487	4.96
426.694	4.84
426.901	4.79
427.108	4.9
427.315	4.88
427.523	4.86
427.73	4.89
427.937	5.06
428.144	5.13
428.351	5.18
428.558	5.26
428.765	5.12
428.972	5.11
429.179	4.99
429.386	5.06
429.593	5.17
429.8	5.35
430.007	5.27
430.214	5.3
430.421	5.33
430.628	5.17
430.835	5.18
431.042	5.27
431.249	5.21
431.456	5.16
431.662	5.3
431.869	5.37
432.076	5.4
432.283	5.65
432.49	5.59
432.697	5.56
432.903	5.53
433.11	5.42
433.317	5.18
433.524	5.32
433.73	5.34
433.937	5.18
434.144	5.18
434.35	5.27
434.557	5.2
434.764	5.13
434.97	5.12
435.177	5.33
435.384	5.1
435.59	5.11
435.797	5.12
436.003	5.2
436.21	4.9
436.416	5.12
436.623	5.12
436.829	5.17
437.036	5.18
437.242	5.42
437.449	5.49
437.655	5.46
437.862	5.55
438.068	5.59
438.275	5.59
438.481	5.56
438.687	5.41
438.894	5.37
439.1	5.26
439.307	5.33
439.513	5.29
439.719	5.51
439.926	5.49
440.132	5.61
440.338	5.56
440.544	5.54
440.751	5.57
440.957	5.56
441.163	5.64
441.369	5.64
441.575	5.64
441.782	5.64
441.988	5.53
442.194	5.46
442.4	5.49
442.606	5.53
442.812	5.49
443.018	5.57
443.224	5.51
443.431	5.49
443.637	5.46
443.843	5.34
444.049	5.31
444.255	5.35
444.461	5.3
444.667	5.26
444.873	5.33
445.079	5.25
445.284	5.31
445.49	5.33
445.696	5.45
445.902	5.49
446.108	5.57
446.314	5.46
446.52	5.36
446.726	5.36
446.931	5.34
447.137	5.29
447.343	5.3
447.549	5.33
447.755	5.32
447.96	5.38
448.166	5.51
448.372	5.51
448.578	5.5
448.783	5.54
448.989	5.51
449.195	5.56
449.4	5.69
449.606	5.82
449.812	5.86
450.017	5.93
450.223	5.89
450.428	5.9
450.634	5.92
450.84	5.84
451.045	5.78
451.251	5.7
451.456	5.7
451.662	5.71
451.867	5.72
452.073	5.69
452.278	5.81
452.483	5.74
452.689	5.67
452.894	5.78
453.1	5.83
453.305	5.86
453.51	5.91
453.716	5.94
453.921	5.9
454.127	5.93
454.332	5.9
454.537	5.99
454.742	5.96
454.948	5.89
455.153	5.85
455.358	5.8
455.563	5.73
455.769	5.71
455.974	5.81
456.179	5.86
456.384	5.84
456.589	5.87
456.795	6.05
457	5.97
457.205	5.97
457.41	6.1
457.615	6.12
457.82	6
458.025	6.02
458.23	6.04
458.435	5.99
458.64	5.99
458.845	6.1
459.05	6.1
459.255	6.07
459.46	6.09
459.665	6.2
459.87	6.16
460.075	6.25
460.28	6.27
460.485	6.31
460.69	6.18
460.895	6.16
461.099	6.05
461.304	6.12
461.509	6.01
461.714	6.07
461.919	6.18
462.123	6.35
462.328	6.35
462.533	6.55
462.738	6.64
462.942	6.56
463.147	6.49
463.352	6.55
463.556	6.4
463.761	6.25
463.966	6.26
464.17	6.22
464.375	6.17
464.58	6.21
464.784	6.28
464.989	6.39
465.193	6.34
465.398	6.46
465.602	6.65
465.807	6.85
466.011	6.89
466.216	6.97
466.42	6.88
466.625	6.78
466.829	6.54
467.034	6.4
467.238	6.45
467.443	6.41
467.647	6.39
467.851	6.48
468.056	6.48
468.26	6.52
468.464	6.56
468.669	6.57
468.873	6.55
469.077	6.5
469.282	6.57
469.486	6.51
469.69	6.49
469.894	6.42
470.099	6.49
470.303	6.46
470.507	6.52
470.711	6.65
470.915	6.72
471.119	6.81
471.324	6.8
471.528	6.88
471.732	6.75
471.936	6.76
472.14	6.71
472.344	6.68
472.548	6.68
472.752	6.72
472.956	6.79
473.16	6.85
473.364	6.85
473.568	6.79
473.772	6.79
473.976	6.72
474.18	6.6
474.384	6.66
474.588	6.67
474.792	6.63
474.995	6.59
475.199	6.54
475.403	6.42
475.607	6.39
475.811	6.38
476.015	6.37
476.218	6.45
476.422	6.46
476.626	6.53
476.83	6.6
477.033	6.74
477.237	6.83
477.441	6.86
477.644	6.9
477.848	6.81
478.052	6.73
478.255	6.76
478.459	6.81
478.663	6.75
478.866	6.75
479.07	6.78
479.273	6.72
479.477	6.69
479.681	6.73
479.884	6.84
480.088	6.68
480.291	6.7
480.495	6.65
480.698	6.57
480.901	6.47
481.105	6.64
481.308	6.59
481.512	6.63
481.715	6.69
481.919	6.77
482.122	6.76
482.325	6.81
482.529	6.8
482.732	6.89
482.935	6.8
483.138	6.82
483.342	6.78
483.545	6.87
483.748	6.78
483.952	6.81
484.155	6.77
484.358	6.78
484.561	6.68
484.764	6.65
484.967	6.69
485.171	6.57
485.374	6.58
485.577	6.66
485.78	6.68
485.983	6.68
486.186	6.76
486.389	6.75
486.592	6.69
486.795	6.73
486.998	6.7
487.201	6.7
487.404	6.66
487.607	6.68
487.81	6.56
488.013	6.5
488.216	6.43
488.419	6.47
488.622	6.43
488.825	6.46
489.028	6.51
489.231	6.61
489.433	6.6
489.636	6.59
489.839	6.53
490.042	6.53
490.245	6.51
490.447	6.45
490.65	6.44
490.853	6.6
491.056	6.55
491.258	6.51
491.461	6.55
491.664	6.46
491.866	6.43
492.069	6.56
492.272	6.5
492.474	6.48
492.677	6.57
492.879	6.5
493.082	6.36
493.285	6.45
493.487	6.48
493.69	6.51
493.892	6.54
494.095	6.61
494.297	6.53
494.5	6.52
494.702	6.45
494.905	6.41
495.107	6.36
495.309	6.38
495.512	6.32
495.714	6.37
495.917	6.41
496.119	6.47
496.321	6.48
496.524	6.48
496.726	6.45
496.928	6.39
497.13	6.35
497.333	6.37
497.535	6.49
497.737	6.49
497.939	6.54
498.142	6.51
498.344	6.53
498.546	6.49
498.748	6.47
498.95	6.46
499.152	6.44
499.355	6.39
499.557	6.34
499.759	6.39
499.961	6.41
500.163	6.41
500.365	6.54
500.567	6.56
500.769	6.52
500.971	6.51
501.173	6.55
501.375	6.44
501.577	6.48
501.779	6.5
501.981	6.55
502.183	6.52
502.385	6.54
502.587	6.46
502.788	6.43
502.99	6.37
503.192	6.37
503.394	6.33
503.596	6.35
503.798	6.36
503.999	6.37
504.201	6.34
504.403	6.38
504.605	6.33
504.806	6.34
505.008	6.37
505.21	6.36
505.411	6.24
505.613	6.29
505.815	6.27
506.016	6.23
506.218	6.24
506.42	6.32
506.621	6.3
506.823	6.34
507.024	6.31
507.226	6.33
507.427	6.34
507.629	6.37
507.83	6.34
508.032	6.42
508.233	6.44
508.435	6.4
508.636	6.39
508.838	6.43
509.039	6.33
509.24	6.33
509.442	6.42
509.643	6.41
509.845	6.34
510.046	6.4
510.247	6.45
510.448	6.39
510.65	6.36
510.851	6.37
511.052	6.37
511.254	6.34
511.455	6.3
511.656	6.28
511.857	6.28
512.058	6.23
512.26	6.17
512.461	6.22
512.662	6.3
512.863	6.25
513.064	6.3
513.265	6.29
513.466	6.31
513.667	6.32
513.868	6.32
514.069	6.27
514.27	6.3
514.471	6.26
514.672	6.22
514.873	6.19
515.074	6.19
515.275	6.2
515.476	6.21
515.677	6.22
515.878	6.31
516.079	6.35
516.28	6.36
516.481	6.31
516.682	6.29
516.882	6.31
517.083	6.25
517.284	6.29
517.485	6.28
517.686	6.27
517.886	6.19
518.087	6.2
518.288	6.19
518.488	6.22
518.689	6.27
518.89	6.32
519.091	6.31
519.291	6.28
519.492	6.28
519.692	6.3
519.893	6.28
520.094	6.28
520.294	6.31
520.495	6.3
520.695	6.28
520.896	6.27
521.096	6.27
521.297	6.29
521.497	6.32
521.698	6.29
521.898	6.27
522.099	6.25
522.299	6.24
522.499	6.2
522.7	6.16
522.9	6.22
523.101	6.24
523.301	6.19
523.501	6.13
523.702	6.16
523.902	6.14
524.102	6.19
524.302	6.23
524.503	6.26
524.703	6.28
524.903	6.29
525.103	6.29
525.304	6.28
525.504	6.38
525.704	6.39
525.904	6.38
526.104	6.33
526.304	6.37
526.504	6.32
526.705	6.35
526.905	6.28
527.105	6.31
527.305	6.29
527.505	6.33
527.705	6.31
527.905	6.38
528.105	6.37
528.305	6.43
528.505	6.45
528.705	6.48
528.905	6.49
529.105	6.46
529.304	6.4
529.504	6.38
529.704	6.36
529.904	6.38
530.104	6.4
530.304	6.4
530.503	6.37
530.703	6.37
530.903	6.36
531.103	6.4
531.303	6.46
531.502	6.49
531.702	6.45
531.902	6.46
532.101	6.44
532.301	6.37
532.501	6.36
532.7	6.42
532.9	6.44
533.1	6.46
533.299	6.49
533.499	6.55
533.698	6.53
533.898	6.51
534.097	6.51
534.297	6.54
534.496	6.5
534.696	6.52
534.895	6.57
535.095	6.59
535.294	6.63
535.494	6.62
535.693	6.59
535.892	6.58
536.092	6.62
536.291	6.57
536.491	6.61
536.69	6.66
536.889	6.63
537.088	6.57
537.288	6.59
537.487	6.56
537.686	6.57
537.886	6.61
538.085	6.71
538.284	6.71
538.483	6.76
538.682	6.77
538.882	6.81
539.081	6.78
539.28	6.84
539.479	6.88
539.678	6.93
539.877	6.97
540.076	6.94
540.275	6.98
540.474	6.91
540.673	6.93
540.872	6.85
541.071	6.89
541.27	6.89
541.469	6.94
541.668	6.98
541.867	7.08
542.066	7.14
542.265	7.22
542.464	7.22
542.663	7.2
542.862	7.24
543.06	7.24
543.259	7.19
543.458	7.31
543.657	7.33
543.856	7.4
544.054	7.45
544.253	7.48
544.452	7.46
544.651	7.49
544.849	7.42
545.048	7.41
545.247	7.47
545.445	7.47
545.644	7.48
545.843	7.58
546.041	7.58
546.24	7.59
546.438	7.64
546.637	7.67
546.836	7.71
547.034	7.76
547.233	7.8
547.431	7.86
547.63	7.89
547.828	7.91
548.027	7.93
548.225	7.97
548.423	7.97
548.622	7.99
548.82	7.98
549.019	8.03
549.217	8.04
549.415	8.1
549.614	8.17
549.812	8.22
550.01	8.25
550.209	8.29
550.407	8.32
550.605	8.33
550.803	8.39
551.002	8.44
551.2	8.5
551.398	8.56
551.596	8.67
551.794	8.73
551.993	8.79
552.191	8.8
552.389	8.86
552.587	8.88
552.785	8.91
552.983	9.03
553.181	9.1
553.379	9.18
553.577	9.24
553.775	9.31
553.973	9.3
554.171	9.43
554.369	9.39
554.567	9.45
554.765	9.51
554.963	9.6
555.161	9.62
555.359	9.72
555.557	9.7
555.755	9.69
555.952	9.7
556.15	9.75
556.348	9.8
556.546	9.92
556.744	10.05
556.941	10.16
557.139	10.23
557.337	10.33
557.535	10.37
557.732	10.39
557.93	10.42
558.128	10.47
558.325	10.51
558.523	10.56
558.721	10.55
558.918	10.59
559.116	10.66
559.313	10.68
559.511	10.8
559.708	10.92
559.906	11.1
560.104	11.09
560.301	11.23
560.498	11.21
560.696	11.29
560.893	11.28
561.091	11.39
561.288	11.47
561.486	11.58
561.683	11.62
561.88	11.63
562.078	11.59
562.275	11.62
562.473	11.64
562.67	11.69
562.867	11.74
563.064	11.88
563.262	11.93
563.459	12.06
563.656	12.11
563.853	12.2
564.051	12.27
564.248	12.27
564.445	12.31
564.642	12.3
564.839	12.4
565.036	12.49
565.234	12.58
565.431	12.65
565.628	12.71
565.825	12.69
566.022	12.77
566.219	12.8
566.416	12.81
566.613	12.96
566.81	13.05
567.007	13.04
567.204	13.12
567.401	13.18
567.598	13.19
567.795	13.24
567.991	13.26
568.188	13.29
568.385	13.24
568.582	13.3
568.779	13.33
568.976	13.44
569.172	13.43
569.369	13.55
569.566	13.55
569.763	13.5
569.96	13.49
570.156	13.56
570.353	13.62
570.55	13.69
570.746	13.78
570.943	13.78
571.14	13.8
571.336	13.87
571.533	13.86
571.729	13.86
571.926	13.93
572.123	13.93
572.319	13.92
572.516	13.86
572.712	13.93
572.909	13.86
573.105	13.89
573.302	13.84
573.498	13.86
573.695	13.78
573.891	13.77
574.087	13.71
574.284	13.77
574.48	13.81
574.677	13.89
574.873	13.91
575.069	13.97
575.266	13.93
575.462	13.88
575.658	13.85
575.854	13.91
576.051	13.82
576.247	13.77
576.443	13.83
576.639	13.83
576.835	13.74
577.032	13.78
577.228	13.78
577.424	13.69
577.62	13.58
577.816	13.57
578.012	13.56
578.208	13.52
578.404	13.59
578.6	13.62
578.796	13.63
578.993	13.58
579.189	13.63
579.384	13.66
579.58	13.64
579.776	13.63
579.972	13.61
580.168	13.53
580.364	13.41
580.56	13.4
580.756	13.37
580.952	13.35
581.148	13.31
581.343	13.22
581.539	13.19
581.735	13.12
581.931	13.04
582.127	13.09
582.322	13.11
582.518	13.08
582.714	13.14
582.909	13.18
583.105	13.18
583.301	13.18
583.496	13.18
583.692	13.12
583.888	13.07
584.083	12.94
584.279	12.91
584.474	12.88
584.67	12.81
584.866	12.85
585.061	12.89
585.257	12.83
585.452	12.9
585.648	12.93
585.843	12.89
586.039	12.94
586.234	12.94
586.429	12.84
586.625	12.79
586.82	12.74
587.015	12.71
587.211	12.71
587.406	12.62
587.601	12.64
587.797	12.67
587.992	12.55
588.187	12.52
588.383	12.63
588.578	12.68
588.773	12.69
588.968	12.79
589.163	12.87
589.359	12.88
589.554	12.84
589.749	12.77
589.944	12.74
590.139	12.65
590.334	12.6
590.529	12.62
590.724	12.78
590.919	12.8
591.114	12.91
591.309	12.92
591.504	12.91
591.699	12.76
591.894	12.73
592.089	12.75
592.284	12.79
592.479	12.86
592.674	12.91
592.869	13.01
593.064	13.06
593.259	13.1
593.454	13.04
593.648	13.17
593.843	13.16
594.038	13.16
594.233	13.16
594.428	13.22
594.622	13.23
594.817	13.28
595.012	13.3
595.206	13.38
595.401	13.48
595.596	13.45
595.79	13.52
595.985	13.52
596.18	13.61
596.374	13.62
596.569	13.63
596.763	13.64
596.958	13.77
597.153	13.72
597.347	13.77
597.542	13.86
597.736	13.98
597.931	14.05
598.125	14.15
598.319	14.15
598.514	14.22
598.708	14.19
598.903	14.18
599.097	14.21
599.291	14.31
599.486	14.34
599.68	14.38
599.874	14.4
600.069	14.47
600.263	14.44
600.457	14.52
600.651	14.55
600.846	14.57
601.04	14.57
601.234	14.56
601.428	14.55
601.622	14.58
601.817	14.57
602.011	14.54
602.205	14.58
602.399	14.59
602.593	14.61
602.787	14.65
602.981	14.67
603.175	14.69
603.369	14.63
603.563	14.6
603.757	14.52
603.951	14.54
604.145	14.58
604.339	14.62
604.533	14.57
604.727	14.66
604.921	14.62
605.115	14.53
605.309	14.5
605.502	14.55
605.696	14.45
605.89	14.4
606.084	14.42
606.278	14.31
606.471	14.21
606.665	14.27
606.859	14.19
607.053	14.16
607.246	14.19
607.44	14.11
607.634	13.98
607.827	14.06
608.021	13.93
608.214	13.89
608.408	14
608.602	14.02
608.795	13.87
608.989	13.85
609.182	13.81
609.376	13.68
609.569	13.59
609.763	13.59
609.956	13.57
610.15	13.34
610.343	13.25
610.537	13.24
610.73	13.19
610.923	13.16
611.117	13.29
611.31	13.3
611.504	13.27
611.697	13.24
611.89	13.18
612.083	13.12
612.277	12.95
612.47	12.9
612.663	12.81
612.856	12.7
613.05	12.69
613.243	12.74
613.436	12.63
613.629	12.54
613.822	12.6
614.015	12.42
614.209	12.3
614.402	12.29
614.595	12.29
614.788	12.17
614.981	12.17
615.174	12.17
615.367	12.09
615.56	12.02
615.753	12.02
615.946	11.97
616.139	11.87
616.332	11.75
616.525	11.71
616.718	11.61
616.911	11.57
617.103	11.55
617.296	11.59
617.489	11.61
617.682	11.64
617.875	11.63
618.067	11.58
618.26	11.54
618.453	11.41
618.646	11.39
618.838	11.29
619.031	11.18
619.224	11.09
619.417	11.14
619.609	11.05
619.802	11.05
619.994	11.11
620.187	11.18
620.38	11.15
620.572	11.08
620.765	11.04
620.957	10.98
621.15	10.9
621.342	10.82
621.535	10.82
621.727	10.86
621.92	10.86
622.112	10.88
622.305	10.8
622.497	10.81
622.69	10.72
622.882	10.75
623.074	10.75
623.267	10.81
623.459	10.75
623.651	10.75
623.844	10.68
624.036	10.61
624.228	10.61
624.42	10.63
624.613	10.63
624.805	10.69
624.997	10.71
625.189	10.61
625.381	10.56
625.574	10.52
625.766	10.49
625.958	10.44
626.15	10.48
626.342	10.4
626.534	10.4
626.726	10.28
626.918	10.21
627.11	10.16
627.302	10.26
627.494	10.19
627.686	10.28
627.878	10.32
628.07	10.29
628.262	10.25
628.454	10.26
628.646	10.23
628.838	10.16
629.029	10.07
629.221	10.01
629.413	9.98
629.605	9.91
629.797	9.92
629.989	9.93
630.18	9.89
630.372	9.78
630.564	9.81
630.755	9.66
630.947	9.54
631.139	9.49
631.33	9.5
631.522	9.44
631.714	9.52
631.905	9.61
632.097	9.56
632.289	9.61
632.48	9.56
632.672	9.53
632.863	9.5
633.055	9.58
633.246	9.57
633.438	9.55
633.629	9.47
633.821	9.41
634.012	9.38
634.203	9.34
634.395	9.37
634.586	9.54
634.777	9.61
634.969	9.61
635.16	9.61
635.351	9.64
635.543	9.58
635.734	9.53
635.925	9.43
636.117	9.47
636.308	9.48
636.499	9.39
636.69	9.37
636.881	9.48
637.073	9.4
637.264	9.37
637.455	9.31
637.646	9.38
637.837	9.27
638.028	9.26
638.219	9.23
638.41	9.32
638.601	9.33
638.792	9.31
638.983	9.32
639.174	9.31
639.365	9.24
639.556	9.16
639.747	9.23
639.938	9.21
640.129	9.2
640.32	9.22
640.511	9.17
640.701	9.1
640.892	9.19
641.083	9.22
641.274	9.19
641.465	9.23
641.655	9.3
641.846	9.19
642.037	9.16
642.228	9.15
642.418	9.11
642.609	9.13
642.8	9.13
642.99	9
643.181	8.99
643.372	9.07
643.562	8.94
643.753	8.91
643.943	9.01
644.134	8.92
644.324	8.88
644.515	8.99
644.705	8.98
644.896	8.92
645.086	9
645.277	8.98
645.467	8.96
645.658	8.98
645.848	8.9
646.038	8.86
646.229	8.9
646.419	8.83
646.61	8.9
646.8	8.96
646.99	9.04
647.18	8.94
647.371	8.88
647.561	8.76
647.751	8.78
647.941	8.72
648.132	8.68
648.322	8.74
648.512	8.74
648.702	8.77
648.892	8.73
649.082	8.82
649.272	8.78
649.462	8.81
649.653	8.8
649.843	8.79
650.033	8.78
650.223	8.76
650.413	8.69
650.603	8.66
650.793	8.62
650.983	8.65
651.172	8.67
651.362	8.61
651.552	8.59
651.742	8.6
651.932	8.53
652.122	8.54
652.312	8.64
652.502	8.66
652.691	8.64
652.881	8.63
653.071	8.59
653.261	8.43
653.45	8.31
653.64	8.27
653.83	8.18
654.019	8.08
654.209	8.04
654.399	8.03
654.588	7.98
654.778	7.98
654.968	7.87
655.157	7.9
655.347	7.8
655.536	7.65
655.726	7.48
655.915	7.44
656.105	7.31
656.294	7.21
656.484	7.15
656.673	7.18
656.863	7.19
657.052	7.14
657.241	7.12
657.431	7.24
657.62	7.18
657.809	7.03
657.999	7
658.188	6.94
658.377	6.73
658.567	6.59
658.756	6.48
658.945	6.4
659.134	6.31
659.324	6.29
659.513	6.24
659.702	6.24
659.891	6.15
660.08	6.04
660.269	5.99
660.458	5.89
660.648	5.88
660.837	5.84
661.026	5.81
661.215	5.7
661.404	5.75
661.593	5.65
661.782	5.55
661.971	5.58
662.16	5.6
662.349	5.45
662.538	5.45
662.726	5.44
662.915	5.34
663.104	5.24
663.293	5.25
663.482	5.26
663.671	5.28
663.86	5.29
664.048	5.35
664.237	5.43
664.426	5.29
664.615	5.16
664.803	5.11
664.992	4.95
665.181	4.89
665.369	4.9
665.558	4.97
665.747	4.92
665.935	5.04
666.124	4.96
666.312	4.98
666.501	5.02
666.69	5.12
666.878	5.01
667.067	5.03
667.255	5.07
667.444	5.09
667.632	5.03
667.82	5.05
668.009	5.09
668.197	5.08
668.386	5
668.574	4.99
668.762	5.16
668.951	5.17
669.139	5.13
669.327	5.16
669.516	5.2
669.704	5.11
669.892	5.05
670.08	5.04
670.269	5.01
670.457	5.06
670.645	4.97
670.833	5.07
671.021	5.2
671.21	5.33
671.398	5.34
671.586	5.33
671.774	5.29
671.962	5.2
672.15	5.25
672.338	5.22
672.526	5.38
672.714	5.57
672.902	5.56
673.09	5.43
673.278	5.49
673.466	5.57
673.654	5.58
673.842	5.78
674.03	5.98
674.218	5.92
674.405	5.96
674.593	6
674.781	5.96
674.969	5.83
675.157	6.01
675.344	5.9
675.532	5.94
675.72	6.09
675.908	6.16
676.095	6.2
676.283	6.28
676.471	6.29
676.658	6.16
676.846	6.26
677.033	6.26
677.221	6.24
677.409	6.03
677.596	6.11
677.784	6.13
677.971	6.22
678.159	6.31
678.346	6.5
678.534	6.46
678.721	6.48
678.909	6.48
679.096	6.54
679.283	6.46
679.471	6.61
679.658	6.6
679.846	6.53
680.033	6.6
680.22	6.68
680.408	6.69
680.595	6.76
680.782	6.83
680.969	6.79
681.157	6.87
681.344	6.89
681.531	6.88
681.718	7.11
681.905	7.26
682.093	7.22
682.28	7.26
682.467	7.36
682.654	7.12
682.841	7
683.028	7.1
683.215	7.25
683.402	7.41
683.589	7.55
683.776	7.73
683.963	7.77
684.15	7.84
684.337	7.76
684.524	7.92
684.711	7.96
684.898	8.07
685.085	8.03
685.271	8.18
685.458	8.32
685.645	8.25
685.832	8.22
686.019	8.29
686.205	8.29
686.392	8.24
686.579	8.49
686.766	8.72
686.952	8.83
687.139	9.03
687.326	9
687.512	9.2
687.699	9.23
687.886	9.42
688.072	9.58
688.259	10
688.445	10.21
688.632	10.48
688.818	10.52
689.005	10.63
689.191	10.73
689.378	10.86
689.564	11.21
689.751	11.5
689.937	11.73
690.124	12.06
690.31	12.31
690.496	12.59
690.683	13.03
690.869	13.34
691.055	13.53
691.242	13.92
691.428	14.13
691.614	14.33
691.8	14.72
691.987	15.04
692.173	15.35
692.359	15.76
692.545	16.13
692.731	16.36
692.918	17.01
693.104	17.46
693.29	17.78
693.476	18.13
693.662	18.67
693.848	19.21
694.034	19.6
694.22	20.41
694.406	20.85
694.592	21.33
694.778	21.51
694.964	21.99
695.15	22.13
695.336	22.55
695.522	23.17
695.708	23.86
695.894	24.28
696.08	24.97
696.265	25.66
696.451	26.23
696.637	26.78
696.823	27.56
697.009	27.97
697.194	28.5
697.38	29.01
697.566	29.4
697.751	29.63
697.937	30.08
698.123	30.84
698.308	31.29
698.494	31.93
698.68	32.7
698.865	33.3
699.051	33.67
699.236	34.35
699.422	34.83
699.607	35.28
699.793	35.87
699.978	36.47
700.164	36.99
700.349	37.58
700.535	37.92
700.72	38.24
700.906	38.59
701.091	38.79
701.276	39.1
701.462	39.67
701.647	40.51
701.832	41.03
702.018	41.52
702.203	42.09
702.388	42.73
702.573	43.08
702.759	43.52
702.944	44.08
703.129	44.5
703.314	44.63
703.499	45.21
703.684	45.93
703.87	46.4
704.055	46.76
704.24	47.56
704.425	47.88
704.61	48.26
704.795	48.93
704.98	49.54
705.165	49.95
705.35	50.44
705.535	50.87
705.72	51.12
705.905	51.43
706.09	51.69
706.275	52.07
706.459	52.34
706.644	52.58
706.829	52.87
707.014	53.25
707.199	53.45
707.384	53.32
707.568	53.6
707.753	53.73
707.938	53.87
708.123	54.42
708.307	54.89
708.492	55.17
708.677	55.51
708.861	56.02
709.046	55.96
709.231	56.11
709.415	56.46
709.6	56.63
709.784	56.86
709.969	57.14
710.153	57.72
710.338	57.7
710.522	58.19
710.707	58.16
710.891	58.45
711.076	58.7
711.26	59.45
711.445	59.5
711.629	59.83
711.813	60.47
711.998	60.45
712.182	60.3
712.366	60.61
712.551	60.85
712.735	60.94
712.919	61
713.103	61.35
713.288	61.77
713.472	61.97
713.656	62.04
713.84	62.38
714.024	62.95
714.208	63.11
714.393	63.14
714.577	63.07
714.761	63.03
714.945	62.77
715.129	62.7
715.313	62.89
715.497	62.8
715.681	63.01
715.865	63.08
716.049	63.27
716.233	63.4
716.417	63.74
716.601	63.9
716.785	64.21
716.968	63.89
717.152	64.06
717.336	64.49
717.52	64.59
717.704	64.32
717.888	65.14
718.071	65.77
718.255	65.51
718.439	66.24
718.622	66.42
718.806	65.73
718.99	65.24
719.174	65.2
719.357	65.39
719.541	65.81
719.724	66.41
719.908	66.28
720.092	66.68
720.275	66.67
720.459	66.99
720.642	67.29
720.826	68.03
721.009	68.37
721.193	68.23
721.376	68.15
721.559	68.28
721.743	68.41
721.926	68.5
722.11	68.44
722.293	68.14
722.476	68.47
722.66	68.73
722.843	68.68
723.026	68.85
723.21	69.01
723.393	68.7
723.576	68.79
723.759	68.77
723.942	68.79
724.126	69.37
724.309	69.76
724.492	70.09
724.675	70.36
724.858	70.71
725.041	70.73
725.224	71.1
725.407	71.66
725.59	72.16
725.774	72.72
725.957	73.05
726.14	73.16
726.322	72.49
726.505	72.52
726.688	72.49
726.871	72.44
727.054	72.3
727.237	72.54
727.42	72.79
727.603	72.69
727.786	73.02
727.968	73.01
728.151	73.5
728.334	73.5
728.517	73.97
728.699	73.75
728.882	74.66
729.065	73.86
729.248	74.29
729.43	73.86
729.613	74.41
729.796	74.41
729.978	75.66
730.161	75.07
730.343	76.06
730.526	75.77
730.708	75.63
730.891	74.78
731.073	74.98
731.256	74.57
731.438	74.27
731.621	73.87
731.803	74.36
731.986	75.32
732.168	76.08
732.35	77.38
732.533	78.47
732.715	78.73
732.898	77.86
733.08	78.11
733.262	77.97
733.444	77.59
733.627	77.94
733.809	78.62
733.991	78.12
734.173	78.42
734.355	78.2
734.538	78.19
734.72	78.71
734.902	79.28
735.084	79.9
735.266	80.44
735.448	80.69
735.63	80.51
735.812	80.12
735.994	79.09
736.176	79.03
736.358	79.5
736.54	79.75
736.722	80.03
736.904	81.08
737.086	80.93
737.268	80.28
737.45	80.62
737.632	80.66
737.814	81.54
737.995	82.47
738.177	82.68
738.359	82.22
738.541	82.23
738.723	81.28
738.904	81.1
739.086	81.5
739.268	81.96
739.449	82.26
739.631	82.43
739.813	83.15
739.994	83.4
740.176	83.57
740.358	84.29
740.539	84.58
740.721	83.9
740.902	84.31
741.084	84.74
741.265	83.79
741.447	83.01
741.628	82.44
741.81	82.37
741.991	81.99
742.172	82.72
742.354	83.74
742.535	84.2
742.717	84.06
742.898	84.56
743.079	84.78
743.261	85.18
743.442	85.68
743.623	86.74
743.804	86.7
743.986	86.02
744.167	84.66
744.348	84.94
744.529	83.5
744.71	82.63
744.891	83.34
745.073	83.03
745.254	83.56
745.435	84.58
745.616	85.36
745.797	85.57
745.978	86.56
746.159	86.49
746.34	86.83
746.521	86.86
746.702	86.49
746.883	87.76
747.064	87.13
747.245	86.58
747.426	85.39
747.606	85.16
747.787	83.12
747.968	83.24
748.149	83.31
748.33	84.53
748.51	84.21
748.691	84.65
748.872	83.5
749.053	83.43
749.233	83.3
749.414	83.36
749.595	84.08
749.775	85.64
749.956	85.11
750.137	85.7
750.317	85.37
750.498	84.76
750.678	84.53
750.859	86.13
751.04	85.2
751.22	86.11
751.4	87.05
751.581	87.34
751.761	86.3
751.942	86.29
752.122	86.84
752.303	85.83
752.483	85.34
752.663	86.21
752.844	86.68
753.024	86.7
753.204	87.44
753.385	87.54
753.565	86.64
753.745	86.59
753.925	86.84
754.106	85.91
754.286	85.87
754.466	85.09
754.646	85.29
754.826	85.2
755.006	87.16
755.187	87.03
755.367	88.58
755.547	87.46
755.727	86.74
755.907	84.62
756.087	85.63
756.267	84.45
756.447	85.33
756.627	84.91
756.807	85.97
756.987	85.9
757.167	86.1
757.346	86.51
757.526	86.28
757.706	87.11
757.886	86.37
758.066	87.1
758.246	87.05
758.425	87.6
758.605	85.9
758.785	86.93
758.965	86.33
759.144	87.05
759.324	88.27
759.504	89.19
759.683	89.82
759.863	90.15
760.043	90.34
760.222	91.25
760.402	91.18
760.581	91.15
760.761	92.12
760.94	91.19
761.12	88.02
761.299	88.21
761.479	86.66
761.658	85.39
761.838	84.84
762.017	85.56
762.197	85.32
762.376	84.98
762.555	85.54
762.735	86.03
762.914	85.85
763.093	84.96
763.273	85.59
763.452	84.6
763.631	84.64
763.81	84.8
763.99	85.11
764.169	84.44
764.348	83.9
764.527	82.87
764.706	83.84
764.885	83.81
765.064	84.92
765.243	86.5
765.423	85.36
765.602	84.02
765.781	83.73
765.96	82.23
766.139	80.41
766.318	81.62
766.497	82.49
766.676	83.07
766.854	84.4
767.033	85.55
767.212	86.53
767.391	86.35
767.57	86.79
767.749	87.19
767.928	86.79
768.106	85.79
768.285	84.93
768.464	84.46
768.643	82.04
768.821	81.4
769	81.44
769.179	81.21
769.357	81.94
769.536	84.65
769.715	86.15
769.893	86.05
770.072	87.79
770.25	86.5
770.429	85.62
770.607	83.99
770.786	84.05
770.964	81.71
771.143	82.06
771.321	81.12
771.5	84.45
771.678	84.84
771.857	86.32
772.035	85.87
772.213	85.88
772.392	83.93
772.57	83.55
772.748	83.46
772.927	82.83
773.105	83.43
773.283	82.16
773.461	81.78
773.64	81.92
773.818	83.5
773.996	81.76
774.174	81.19
774.352	81.93
774.531	80.88
774.709	79.84
774.887	81.28
775.065	82.59
775.243	82.17
775.421	81.55
775.599	82.19
775.777	80.7
775.955	77.59
776.133	78.6
776.311	80.96
776.489	81.94
776.667	83.03
776.844	85.83
777.022	86.59
777.2	88.62
777.378	88.22
777.556	88.66
777.734	89.08
777.911	88.29
778.089	84.35
778.267	83.68
778.445	82.29
778.622	81.64
778.8	79.39
778.978	79.13
779.155	78.89
779.333	78.98
779.511	76.22
779.688	76.7
779.866	75.92
780.043	75.11
780.221	76.22
780.398	80.65
780.576	78.94
780.753	80.81
780.931	83.15
781.108	81.87
781.286	80.9
781.463	84.49
781.64	83.38
781.818	80.61
781.995	81.96
782.172	81.5
782.35	82.6
782.527	80.12
782.704	79.56
782.882	78.74
783.059	79.61
783.236	75.69
783.413	80.68
783.59	80.58
783.768	80.55
783.945	80.91
784.122	83.87
784.299	82.48
784.476	85.97
784.653	84.35
784.83	84.95
785.007	83.55
785.184	82.42
785.361	80.27
785.538	80.89
785.715	79.59
785.892	79.63
786.069	80.81
786.246	84.37
786.423	87.67
786.6	91.22
786.776	87.3
786.953	86.98
787.13	82.75
787.307	80.36
787.484	77.25
787.66	79.88
787.837	82.46
788.014	81.86
788.191	85.29
788.367	85.6
788.544	88.63
788.721	86.41
788.897	88.51
789.074	86.74
789.25	86.77
789.427	85.26
789.603	89.61
789.78	88.06
789.956	88.7
790.133	85.48
790.309	83.35
790.486	76.65
790.662	78.32
790.839	75.62
791.015	76.72
791.192	77.89
791.368	78.31
791.544	76.78
791.721	75.34
791.897	75.37
792.073	75.56
792.249	71.44
792.426	70.98
792.602	71.72
792.778	75.01
792.954	75.99
793.13	83.49
793.307	87.87
793.483	88.52
793.659	85.34
793.835	88.55
794.011	86.86
794.187	81.9
794.363	84.27
794.539	83.64
794.715	79.33
794.891	77.52
795.067	78.02
795.243	76.43
795.419	77.53
795.595	76.84
795.771	76.95
795.947	81.58
796.122	80.03
796.298	76.42
796.474	77.85
796.65	80.74
796.826	75.63
797.001	78.39
797.177	86.66
797.353	89.43
797.529	85.63
797.704	82.24
797.88	78.38
798.056	75.68
798.231	69.17
798.407	64.37
798.582	67.94
798.758	71.15
798.934	67.84
799.109	72.73
799.285	77.11
799.46	73.52
799.636	74.2
799.811	79.33
799.986	82.61
800.162	88.72
800.337	90.28
800.513	86.99
800.688	89.2
800.863	81.44
801.039	80.3
801.214	78.85
801.389	86.09
801.565	84.74
801.74	85.83
801.915	85.73
802.09	91.64
802.265	83.59
802.441	82.6
802.616	83.56
802.791	83.46
802.966	88.35
803.141	88.98
803.316	87.29
803.491	84.08
803.666	81.97
803.841	79.58
804.016	81.4
804.191	85.66
804.366	93.55
804.541	93.82
804.716	90.84
804.891	89.48
805.066	81.45
805.241	76.96
805.416	79.67
805.591	82.65
805.765	78.68
805.94	79.97
806.115	77.32
806.29	72.58
806.464	68.3
806.639	68.09
806.814	69.75
806.989	67.1
807.163	70.78
807.338	76.58
807.512	83.98
807.687	75.7
807.862	81.18
808.036	78.12
808.211	73.62
808.385	69.1
808.56	74.1
808.734	74.74
808.909	81.15
809.083	78.52
809.258	77.9
809.432	78.72
809.606	79.75
809.781	68.21
809.955	76.1
810.13	82.92
810.304	87.27
810.478	81.93
810.652	90.86
810.827	84.04
811.001	85.34
811.175	84.13
811.349	90.81
811.524	94.37
811.698	105.91
811.872	91.34
812.046	97.04
812.22	91.42
812.394	78.69
812.568	74.66
812.742	83.94
812.916	80.09
813.09	87.31
813.264	100.94
813.438	94.18
813.612	94.2
813.786	92.78
813.96	71.7
814.134	65.93
814.308	82.11
814.482	84.14
814.656	92.26
814.83	96.55
815.003	92.26
815.177	89.44
815.351	78.64
815.525	65.81
815.698	68.48
815.872	73.68
816.046	67.74
816.219	62.14
816.393	70.72
816.567	76.59
816.74	76.76
816.914	83.42
817.088	109.32
817.261	110.56
817.435	103.24
817.608	100.13
817.782	87.41
817.955	81.05
818.129	84.73
818.302	78.99
818.475	90.16
818.649	93.66
818.822	96.7
818.996	88.38
819.169	80.37
819.342	75.36
819.516	67.5
819.689	69.01
819.862	69.5
820.035	83.61
820.209	76.82
820.382	86.71
820.555	76.18
820.728	77.67
820.901	65.28
821.075	74.04
821.248	76.06
821.421	82.16
821.594	75.89
821.767	86.7
821.94	91.52
822.113	86.16
822.286	98.15
822.459	98.12
822.632	98.91
822.805	99.23
822.978	95.72
823.151	85.27
823.324	104.03
823.496	69.9
823.669	52.45
823.842	73.87
824.015	61.33
824.188	58.15
824.361	74.36
824.533	69.44
824.706	44.57
824.879	64.58
825.051	68.78
825.224	83.17
825.397	81.04
825.569	92.21
825.742	82.19
825.915	68.75
826.087	64.47
826.26	66.19
826.432	60.64
826.605	65.71
826.777	63.81
826.95	70.05
827.122	65.42
827.295	75.76
827.467	75.7
827.64	65.97
827.812	58.83
827.984	54.6
828.157	38.81
828.329	44.96
828.501	69.13
828.674	59.56
828.846	76.76
829.018	91.56
829.19	84.08
829.363	80.5
829.535	82.24
829.707	85.19
829.879	82.9
830.051	78.98
830.223	77.16
830.395	79.58
830.568	63.98
830.74	64.56
830.912	67.91
831.084	60.67
831.256	61.89
831.428	74.56
831.6	65.88
831.772	69.62
831.943	60.15
832.115	59.12
832.287	58.57
832.459	78.3
832.631	68.09
832.803	75.01
832.975	75.46
833.146	71.29
833.318	42.73
833.49	50.76
833.662	61.91
833.833	81.85
834.005	76.47
834.177	91.09
834.348	80.06
834.52	92.59
834.692	81.74
834.863	88.56
835.035	74.17
835.206	65.46
835.378	45.5
835.549	44.62
835.721	58.08
835.892	51.39
836.064	85.56
836.235	98.91
836.407	100.15
836.578	79.32
836.749	95.63
836.921	104.51
837.092	90.88
837.264	83.19
837.435	97.1
837.606	93.08
837.777	70.88
837.949	103.57
838.12	77.41
838.291	102.97
838.462	93.93
838.633	93.46
838.805	87.36
838.976	123.19
839.147	89.21
839.318	122.64
839.489	97.36
839.66	75.92
839.831	63.06
840.002	36.64
840.173	34.24
840.344	59.57
840.515	63.14
840.686	70.57
840.857	60.91
841.028	59.29
841.199	49.51
841.369	55.14
841.54	50.25
841.711	75.63
841.882	66.09
842.053	79.89
842.223	74.12
842.394	57.99
842.565	47.92
842.736	55.01
842.906	40.3
843.077	61.84
843.248	72.45
843.418	63.53
843.589	49.24
843.759	60.55
843.93	-474.24
844.101	-300
844.271	-12.17
844.442	16.39
844.612	34.01
844.783	82.35
844.953	61.97
845.123	80.3
845.294	88.82
845.464	87.94
845.635	61.65
845.805	78.33
845.975	60.72
846.146	83.38
846.316	43.28
846.486	64.17
846.656	157.26
846.827	161.38
846.997	92.18
847.167	84.51
847.337	80.65
847.507	48.65
847.677	25.31
847.848	31.46
848.018	46.36
848.188	60.62
848.358	46.9
848.528	76.27
848.698	76.87
848.868	89.41
849.038	76.35
849.208	97.97
849.378	120.48
849.548	154.15
849.718	317.41
849.887	-141.07
850.057	3454.84
850.227	395.28
850.397	875.84
850.567	4.61
850.737	35.41
850.906	12.61
851.076	42.86
851.246	71.8
851.415	72.39
851.585	75.97
851.755	89.39
851.924	88.57
852.094	100.34
852.264	84.41
852.433	90.55
852.603	104.02
852.772	91.56
852.942	67.51
853.111	80.47
853.281	74.37
853.45	67.39
853.62	94.58
853.789	117.49
853.959	136.7
854.128	-193.1
854.297	-215.44
854.467	-204.28
854.636	329.87
854.805	231.9
854.975	109.67
855.144	106.31
855.313	94.45
855.482	107.36
855.652	80.3
855.821	96.24
855.99	81.55
856.159	180.36
856.328	90.2
856.497	87.3
856.667	118.55
856.836	114.09
857.005	119.62
857.174	126.21
857.343	126.5
857.512	63.94
857.681	62.5
857.85	19.78
858.019	0.11
858.188	25.54
858.356	11.5
858.525	24.46
858.694	51.46
858.863	52.19
859.032	67.4
859.201	77.73
859.369	66.51
859.538	49.99
859.707	63.73
859.876	63.25
860.044	62.5
860.213	87.05
860.382	128.31
860.55	109.55
860.719	134.05
860.888	121.5
861.056	142.34
861.225	115.92
861.393	167.52
861.562	178.61
861.73	238.51
861.899	159.74
862.067	285.87
862.236	138.98
862.404	42.31
862.572	1.6
862.741	-136.08
862.909	19.8
863.078	56.37
863.246	67.56
863.414	86.71
863.582	60.58
863.751	46.12
863.919	1.71
864.087	13.07
864.255	-54.53
864.424	-99.15
864.592	3.23
864.76	7.54
864.928	10.75
865.096	50.88
865.264	69.91
865.432	53.11
865.6	53.21
865.768	59.52
865.936	32.32
866.104	-210.52
866.272	35.55
866.44	32.53
866.608	45.87
866.776	52.61
866.944	56.51
867.112	47.29
867.28	47.71
867.448	41.11
867.615	26.28
867.783	59.04
867.951	66.23
868.119	69.03
868.286	70.14
868.454	71.76
868.622	118.8
868.789	259.86
868.957	-544.34
869.125	-701.42
869.292	1127.49
869.46	-465.62
869.627	-361.71
869.795	-36.95
869.963	-10.98
870.13	-31.67
870.298	2.2
870.465	59.63
870.632	75.02
870.8	68.04
870.967	102.26
871.135	21.58
871.302	-4.73
871.469	27.75
871.637	30.41
871.804	28.38
871.971	56.61
872.139	39.52
872.306	-19.51
872.473	-348.24
872.64	-151.61
872.807	3.99
872.975	-30.3
873.142	43.07
873.309	81.56
873.476	102.52
873.643	115.37
873.81	100.2
873.977	57.07
874.144	5.11
874.311	23.04
874.478	-55.4
874.645	-57.13
874.812	-129.38
874.979	-17.3
875.146	23.2
875.313	-196.42
875.48	237.01
875.647	-136.86
875.813	170.89
875.98	189.27
876.147	43.88
876.314	30.52
876.481	10.95
876.647	20.97
876.814	24.66
876.981	51.77
877.147	63.79
877.314	78.82
877.481	80.16
877.647	33.9
877.814	54.44
877.98	60.12
878.147	-43
878.314	58.52
878.48	477.33
878.647	0.62
878.813	114.39
878.979	50.43
879.146	43.59
879.312	2.12
879.479	55.62
879.645	31.32
879.811	18.87
879.978	47.61
880.144	149.32
880.31	367.76
880.477	-1363.09
880.643	-987.57
880.809	-4690.24
880.975	495.98
881.142	-58.9
881.308	128.06
881.474	174.01
881.64	114.49
881.806	116.75
881.972	101.05
882.138	70.61
882.304	33.9
882.47	-15.2
882.636	-0.81
882.802	16.84
882.968	4.06
883.134	19.26
883.3	67.87
883.466	71.5
883.632	99.08
883.798	129.68
883.964	166.64
884.129	86.99
884.295	34.45
884.461	-135.57
884.627	333.46
884.793	110.36
884.958	20.43
885.124	92.08
885.29	-21.2
885.455	35.68
885.621	33.71
885.787	59.39
885.952	112.26
886.118	217.38
886.283	141.77
886.449	195.41
886.614	5.43
886.78	-0.33
886.945	-1.53
887.111	0.07
887.276	17.64
887.442	79.99
887.607	54.76
887.773	146.74
887.938	143.16
888.103	220.47
888.269	118.53
888.434	-1923.53
888.599	43.47
888.764	-474.76
888.93	-75.72
889.095	-14.38
889.26	26.52
889.425	26.12
889.59	32.95
889.756	104
889.921	136.03
890.086	70.22
890.251	44.79
890.416	96.64
890.581	54.18
890.746	74.08
890.911	124.87
891.076	391.61
891.241	183.13
891.406	24557.14
891.571	521.6
891.736	-46.5
891.901	82.35
892.065	48.45
892.23	97.76
892.395	113.84
892.56	86.58
892.725	86.81
892.889	14.35
893.054	232.45
893.219	2.16
893.384	90.74
893.548	249.6
893.713	197.11
893.878	240.31
