Data from Ofav_SP_Phys_9EV4_Reflection_1.txt Node
Date: Thu Aug 05 17:42:07 EDT 2021
User: Adam
Spectrometer: FLMT01687
Trigger mode: 0
Integration Time (sec): 8.000000E-1
Scans to average: 2
Electric dark correction enabled: true
Nonlinearity correction enabled: false
Boxcar width: 2
XAxis mode: Wavelengths
Number of Pixels in Spectrum: 3648
>>>>>Begin Spectral Data<<<<<
179.494	187.35
179.716	199.81
179.937	180.2
180.158	266.96
180.38	588.1
180.601	-235.23
180.823	52.1
181.044	104.36
181.265	107.48
181.486	124.04
181.708	-618.79
181.929	150.1
182.15	211.43
182.372	27.4
182.593	43.25
182.814	200.77
183.035	55.97
183.257	795.02
183.478	-875.25
183.699	1226.14
183.92	271.32
184.141	-1550.67
184.363	1032.43
184.584	-81.33
184.805	12
185.026	14.7
185.247	36.11
185.468	38.26
185.689	46.01
185.91	32.75
186.132	-41.5
186.353	-52.69
186.574	-157.33
186.795	-178.79
187.016	-192.1
187.237	-75.24
187.458	-333.16
187.679	-80.36
187.9	-66.9
188.121	-89.52
188.342	-135.24
188.563	-23.54
188.784	-52.73
189.005	-107.69
189.226	-25.9
189.447	-33.75
189.667	-100.48
189.888	-112.89
190.109	-35.48
190.33	10.12
190.551	41.2
190.772	39.93
190.993	11.45
191.214	12.72
191.434	8.9
191.655	-0.41
191.876	10
192.097	24.7
192.318	29.37
192.538	20.94
192.759	1.58
192.98	-56.53
193.201	-432.71
193.421	-280.76
193.642	-100.29
193.863	-84.54
194.083	-36.94
194.304	13.09
194.525	-4.31
194.745	1.52
194.966	7.32
195.187	15.51
195.407	3.36
195.628	25.68
195.848	33.55
196.069	11.78
196.29	-6.16
196.51	17.62
196.731	21.05
196.951	33.8
197.172	58.77
197.392	53.44
197.613	36.55
197.833	72.57
198.054	13.29
198.274	21.27
198.495	34.06
198.715	22.83
198.936	-62.53
199.156	2.36
199.377	-13.43
199.597	4.52
199.817	-5.6
200.038	1.96
200.258	9.13
200.479	8.43
200.699	6.21
200.919	19.07
201.14	11.29
201.36	-17.74
201.58	0.32
201.801	-49.69
202.021	-120.12
202.241	-69.45
202.461	-62.34
202.682	-104.47
202.902	-234.24
203.122	-197
203.342	-93.74
203.563	-49.02
203.783	29.14
204.003	50.43
204.223	43.67
204.443	15.93
204.663	8.27
204.884	11.88
205.104	-2.95
205.324	22.06
205.544	14.62
205.764	22.21
205.984	-16.48
206.204	-31.83
206.424	-48.99
206.644	-38.96
206.864	-39.78
207.084	-37.35
207.304	26.56
207.525	0.92
207.745	26.76
207.964	-11.64
208.184	5.77
208.404	-76.5
208.624	-87.23
208.844	-153.67
209.064	-92.66
209.284	-59.86
209.504	-30.79
209.724	-6.6
209.944	-6.02
210.164	-29.27
210.384	-11.78
210.604	-15.07
210.823	0.36
211.043	3
211.263	11.98
211.483	-4.63
211.703	16
211.922	3.82
212.142	31.87
212.362	2.86
212.582	9.21
212.801	-42.96
213.021	-5.31
213.241	-47.12
213.461	-55.08
213.68	-34.67
213.9	-39.65
214.12	-57.95
214.339	-45.11
214.559	-5.47
214.779	-16.28
214.998	-9.83
215.218	-33.05
215.438	-34.79
215.657	-22.43
215.877	-47.03
216.096	-69.31
216.316	-13.18
216.535	10.23
216.755	-78.42
216.974	-236.13
217.194	-19.89
217.413	-16.28
217.633	-24.02
217.852	8.81
218.072	-2.46
218.291	-11.06
218.511	7.45
218.73	1.16
218.95	-23.99
219.169	-20.11
219.389	38.48
219.608	-0.48
219.827	20.66
220.047	19.26
220.266	39.05
220.485	7.05
220.705	4.69
220.924	-3.05
221.143	12.67
221.363	4.09
221.582	-17.57
221.801	-30.17
222.021	-22.85
222.24	-26.17
222.459	-82.17
222.678	-50.31
222.897	-41.02
223.117	-34.32
223.336	-43.74
223.555	-30.65
223.774	-45.58
223.993	-48.42
224.213	-57.29
224.432	-68.12
224.651	-14.59
224.87	-0.04
225.089	-4.65
225.308	29.2
225.527	18.01
225.746	-34.25
225.965	-21.59
226.184	-1.7
226.404	-7.7
226.623	-41.53
226.842	-26.57
227.061	-11.07
227.28	-33.55
227.499	-34.21
227.718	-23.03
227.936	-16.33
228.155	-21.82
228.374	-10.41
228.593	-7.14
228.812	-10.9
229.031	-2.77
229.25	-0.44
229.469	24.61
229.688	16.49
229.907	24.99
230.125	-5.04
230.344	-12.34
230.563	-42.13
230.782	-78.67
231.001	-96.3
231.22	3.24
231.438	4.31
231.657	36.89
231.876	17.23
232.095	49.35
232.313	35.29
232.532	28.6
232.751	18.13
232.969	29.49
233.188	19.3
233.407	1.19
233.625	7.06
233.844	-40.11
234.063	-44.05
234.281	-38.12
234.5	-8.17
234.719	-33.57
234.937	-60.83
235.156	-57.68
235.374	-66.61
235.593	-104.87
235.811	-86.15
236.03	-29.91
236.249	-25.56
236.467	-25.63
236.686	-18.5
236.904	-5.72
237.123	-35.75
237.341	-0.03
237.559	-9.27
237.778	-5.87
237.996	-0.73
238.215	-0.7
238.433	-11.31
238.652	-6.72
238.87	-5.59
239.088	-6.5
239.307	-3.61
239.525	-14.56
239.743	-19.52
239.962	-6.2
240.18	-56.97
240.398	-85.03
240.617	-111.44
240.835	-67.32
241.053	-68.57
241.271	-79.63
241.49	-47.99
241.708	-38.29
241.926	-33.33
242.144	-45.86
242.363	-30.72
242.581	3.14
242.799	-46.57
243.017	-43.48
243.235	-105.76
243.453	-50.58
243.672	-109.26
243.89	-85.85
244.108	-128.13
244.326	-57.97
244.544	-42.21
244.762	5.09
244.98	2.34
245.198	-8.77
245.416	-0.83
245.634	-39.81
245.852	-81.1
246.07	-47.52
246.288	-63.45
246.506	-143.65
246.724	-61.53
246.942	-67.73
247.16	-113.79
247.378	-180.47
247.596	-72.67
247.814	-76.56
248.032	-48.45
248.25	-50.24
248.468	-16.68
248.685	-7.73
248.903	-3.82
249.121	-20.63
249.339	-5.69
249.557	-18.01
249.775	5.08
249.992	2.21
250.21	48.45
250.428	36.06
250.646	53.99
250.863	46.84
251.081	48.67
251.299	3.37
251.517	41.29
251.734	29.37
251.952	-8.91
252.17	-13.84
252.387	0.49
252.605	-9.83
252.823	-11.64
253.04	-5.77
253.258	11.7
253.475	6.27
253.693	-22.95
253.911	-2.87
254.128	13.65
254.346	7.17
254.563	6.71
254.781	27.98
254.998	12.82
255.216	-5.91
255.433	-17.3
255.651	-95.6
255.868	-113.29
256.086	-100.23
256.303	-59.14
256.521	-102.25
256.738	-137.82
256.956	-224.88
257.173	-42.92
257.39	-24.69
257.608	-30.09
257.825	10.44
258.043	-0.82
258.26	-27.02
258.477	-14.65
258.695	8.53
258.912	14.81
259.129	12.84
259.346	21.8
259.564	4.57
259.781	6.48
259.998	3.2
260.216	22.34
260.433	23.92
260.65	-0.27
260.867	-95.14
261.084	-74.74
261.302	-67.86
261.519	-54.13
261.736	0.17
261.953	33.44
262.17	45.78
262.387	77.02
262.604	54.63
262.822	38.43
263.039	23.14
263.256	14.43
263.473	-26.35
263.69	2.85
263.907	4.3
264.124	-2.97
264.341	-7.6
264.558	-5.96
264.775	-15.82
264.992	-7.77
265.209	-13.61
265.426	-26.42
265.643	-12.34
265.86	-28.02
266.077	-53.18
266.294	-63.56
266.51	-56.58
266.727	-56.13
266.944	-29.77
267.161	-13.43
267.378	6.13
267.595	13.09
267.812	1.62
268.028	-13.67
268.245	-2.91
268.462	-38.59
268.679	-54.4
268.896	-23.87
269.112	-30.3
269.329	-14.99
269.546	22.85
269.763	34.61
269.979	42.91
270.196	58.41
270.413	30.68
270.629	31.89
270.846	23.17
271.063	1.74
271.279	-44.45
271.496	-80.89
271.712	-99.28
271.929	-105.15
272.146	-66.04
272.362	-81.55
272.579	-36.8
272.795	-51.27
273.012	-38.35
273.228	-55.94
273.445	-20.99
273.661	9
273.878	16.27
274.094	8.28
274.311	6.86
274.527	-8.77
274.744	-73.12
274.96	-50.5
275.177	-33.25
275.393	-28.95
275.609	-37.18
275.826	-18.33
276.042	-26.61
276.259	-36.53
276.475	-41
276.691	-19.26
276.908	-21.02
277.124	-7.74
277.34	-13.25
277.557	-34.95
277.773	-64.25
277.989	-70.71
278.205	-86.44
278.422	-41.39
278.638	7.2
278.854	26.57
279.07	22.61
279.286	18.47
279.503	18.14
279.719	-1.54
279.935	28.46
280.151	37.04
280.367	34.71
280.583	13.75
280.799	23.15
281.016	-7.59
281.232	-35.92
281.448	-44.16
281.664	-42.83
281.88	-78.53
282.096	-25.41
282.312	6.82
282.528	29.91
282.744	51.01
282.96	59.5
283.176	40.31
283.392	38.3
283.608	31.97
283.824	13.79
284.04	16.91
284.256	12.29
284.471	-9.57
284.687	-13.04
284.903	10.28
285.119	-3.51
285.335	3.28
285.551	-4.06
285.767	-14.21
285.982	-51.33
286.198	-98.07
286.414	-81.98
286.63	-56.46
286.846	-14.06
287.061	-11.41
287.277	10.27
287.493	3.46
287.709	23.95
287.924	7.4
288.14	-0.53
288.356	-4.61
288.571	6.06
288.787	6.21
289.003	-5.66
289.218	-30.73
289.434	-55.02
289.65	-42.7
289.865	-39.81
290.081	-17.8
290.296	-9.88
290.512	-2.44
290.727	0.28
290.943	2.96
291.159	0.7
291.374	9.87
291.59	1.34
291.805	5.7
292.021	10.48
292.236	-5.07
292.451	-44.22
292.667	-84.76
292.882	-57.49
293.098	-58.24
293.313	-33.85
293.529	-11.11
293.744	3.69
293.959	-20.16
294.175	-14.24
294.39	-29.82
294.605	-21.98
294.821	-17.05
295.036	-15.89
295.251	-24.5
295.467	-7.81
295.682	-10.81
295.897	-5.51
296.112	-10.47
296.328	-9.03
296.543	-5.9
296.758	-4.4
296.973	-0.48
297.188	30.03
297.404	27.97
297.619	11.51
297.834	-12
298.049	-42.81
298.264	-99.35
298.479	-135.7
298.694	-108.43
298.909	-49.54
299.125	-8.68
299.34	15.61
299.555	8.95
299.77	15.18
299.985	-0.04
300.2	-3.02
300.415	0.58
300.63	12.36
300.845	-6.98
301.06	-1.2
301.275	-16.45
301.49	-37.58
301.704	-75.89
301.919	-11.21
302.134	-9.49
302.349	-4.17
302.564	-6.81
302.779	-11.7
302.994	-9.4
303.209	-10.87
303.423	-28.13
303.638	-19.8
303.853	-9.83
304.068	-26.69
304.283	-14.92
304.497	-15.12
304.712	-28.27
304.927	-24.23
305.142	-3.89
305.356	-11.29
305.571	1.52
305.786	-1.29
306	0.84
306.215	-1.64
306.43	-3.22
306.644	8.9
306.859	18.43
307.074	17.58
307.288	24.49
307.503	27.45
307.717	2.95
307.932	3.43
308.147	-6.32
308.361	-9.75
308.576	-20.01
308.79	-2.32
309.005	10.79
309.219	-2.4
309.434	-55.24
309.648	-91.19
309.863	-127.59
310.077	-238.12
310.292	-193.32
310.506	-100.18
310.72	-57.65
310.935	-45.99
311.149	-17.3
311.364	-2.08
311.578	9.57
311.792	11.3
312.007	11.58
312.221	6.12
312.435	24.76
312.649	12.71
312.864	15.36
313.078	18.65
313.292	38.25
313.507	34.82
313.721	24.8
313.935	10.33
314.149	8.12
314.363	-9.37
314.578	-6.96
314.792	-14.43
315.006	-18.58
315.22	-9.93
315.434	-23.33
315.648	-43.48
315.862	-11.37
316.077	-9.61
316.291	-36.64
316.505	-28.8
316.719	-26.4
316.933	-15.09
317.147	-15.87
317.361	-25
317.575	-37.26
317.789	-26.39
318.003	-46.43
318.217	-6.68
318.431	10.42
318.645	22.5
318.859	-14.13
319.073	-13.26
319.287	-49.33
319.5	-29.05
319.714	-22.89
319.928	20.77
320.142	15.99
320.356	15.06
320.57	13.83
320.784	7.84
320.997	-41.27
321.211	-10.14
321.425	-3.81
321.639	-7.89
321.853	-6.94
322.066	-8.65
322.28	-30.95
322.494	-35.33
322.707	-34.42
322.921	-23.31
323.135	-9.11
323.349	8.99
323.562	5.43
323.776	22.51
323.989	-6.11
324.203	-8.37
324.417	-4.96
324.63	-5.92
324.844	-47.71
325.057	-37.3
325.271	-70.84
325.485	-61.45
325.698	-67.33
325.912	-48.11
326.125	-21.53
326.339	-5.24
326.552	-29.76
326.766	-31.11
326.979	-33.1
327.193	-18.71
327.406	-5.58
327.619	11.21
327.833	22.59
328.046	32.62
328.26	29.22
328.473	-18.56
328.686	-61.63
328.9	-75.89
329.113	-63.89
329.326	-68.88
329.54	-45.19
329.753	-40.2
329.966	-10.22
330.179	-5.98
330.393	2.6
330.606	12.46
330.819	17.36
331.032	-2.71
331.246	16.43
331.459	17.4
331.672	-1.39
331.885	14.92
332.098	14.57
332.311	7.22
332.525	3.52
332.738	23.43
332.951	13.53
333.164	32.23
333.377	22.92
333.59	23.48
333.803	-13.71
334.016	-19.33
334.229	-43.9
334.442	-35.01
334.655	-27.73
334.868	-20.13
335.081	-6.51
335.294	7.88
335.507	-0.69
335.72	17.13
335.933	19.8
336.146	21.43
336.359	13.99
336.572	14.8
336.785	-5.25
336.997	21.52
337.21	24.73
337.423	32.15
337.636	37.32
337.849	59.44
338.062	31.27
338.274	-2.32
338.487	3.18
338.7	3.47
338.913	-7.9
339.125	7.23
339.338	22.49
339.551	1.89
339.763	20.82
339.976	7.08
340.189	13.93
340.402	3.49
340.614	5.36
340.827	12.87
341.039	27.31
341.252	18.08
341.465	28.02
341.677	40.6
341.89	28.81
342.102	38.2
342.315	19.19
342.527	9.12
342.74	5.66
342.952	-5.28
343.165	-20.96
343.377	9.8
343.59	7.95
343.802	-4.49
344.015	-14.91
344.227	-21.91
344.44	-11.78
344.652	8.74
344.864	21.54
345.077	25.37
345.289	17.32
345.502	16.6
345.714	12.79
345.926	21.23
346.139	33.1
346.351	40.93
346.563	26.77
346.775	14.02
346.988	-25
347.2	-49.61
347.412	-94.37
347.624	-60.19
347.837	-32.18
348.049	-9.29
348.261	-5.53
348.473	12.35
348.685	20.27
348.897	20.57
349.11	17.41
349.322	1.66
349.534	-25.55
349.746	-24.66
349.958	-35.16
350.17	-30.05
350.382	-15.87
350.594	-11.91
350.806	-24.53
351.018	-2.45
351.23	-0.02
351.442	1.47
351.654	7.81
351.866	5.68
352.078	-6.94
352.29	-10.24
352.502	-6.57
352.714	-26.95
352.926	-2.59
353.138	-1.85
353.35	11.68
353.561	-0.31
353.773	0.54
353.985	-16.16
354.197	-13.49
354.409	-35.65
354.621	-37.01
354.832	-37.47
355.044	-50.38
355.256	-42.75
355.468	-44.58
355.679	-6
355.891	11.58
356.103	2.1
356.314	-13.25
356.526	-10.92
356.738	-39.26
356.949	-77.25
357.161	-20.91
357.373	-30.57
357.584	-20.71
357.796	-17.37
358.008	-12.95
358.219	-50.4
358.431	-19.56
358.642	-28.57
358.854	10.4
359.065	20.12
359.277	25.28
359.488	11.26
359.7	18.64
359.911	-4.57
360.123	-1.57
360.334	-5.96
360.546	-7.32
360.757	-10.62
360.969	-3.49
361.18	-19.09
361.391	-15.32
361.603	12.84
361.814	3.15
362.025	-14.14
362.237	-3.29
362.448	-8.38
362.659	-27.95
362.871	-46.62
363.082	-45.82
363.293	-58.97
363.504	-79.68
363.716	-67.06
363.927	-21.89
364.138	-23.33
364.349	-27.2
364.56	-20.8
364.772	-13.12
364.983	-37.35
365.194	-47.39
365.405	-46.63
365.616	-18.52
365.827	-36.88
366.038	-18.2
366.25	0.11
366.461	-9.42
366.672	-13.21
366.883	1.4
367.094	-5.36
367.305	3.68
367.516	23.05
367.727	24.13
367.938	6.43
368.149	7.63
368.36	-3.87
368.571	-35.28
368.781	-48.36
368.992	-30.82
369.203	-3.82
369.414	-18.56
369.625	-19.58
369.836	-32.85
370.047	-26.97
370.258	-32.58
370.468	-29.84
370.679	-14.8
370.89	-5.51
371.101	-10.17
371.312	-8.16
371.522	-1.48
371.733	-8.69
371.944	-9.9
372.155	7.07
372.365	-0.4
372.576	10.12
372.787	14.43
372.997	17.64
373.208	19.73
373.419	20.71
373.629	3.93
373.84	4.45
374.05	-0.83
374.261	-3.93
374.472	-0.86
374.682	-10.53
374.893	-1.97
375.103	-5.84
375.314	-20.24
375.524	-23.3
375.735	-8.51
375.945	-0.53
376.156	6.92
376.366	24.23
376.577	24.97
376.787	20.71
376.997	12.32
377.208	15.5
377.418	8.05
377.629	8.75
377.839	15.96
378.049	10.48
378.26	1
378.47	3.87
378.68	7.87
378.89	-11.39
379.101	-7.72
379.311	4.01
379.521	-0.7
379.732	8.84
379.942	13.29
380.152	8.53
380.362	-1.55
380.572	-0.26
380.783	-21.4
380.993	-11.19
381.203	-4.96
381.413	-5.04
381.623	0.27
381.833	5.93
382.043	10.12
382.253	14.21
382.463	20.82
382.674	14.73
382.884	8.7
383.094	-1.65
383.304	-16.47
383.514	-16.69
383.724	-16.34
383.934	-5.64
384.144	0.65
384.353	8.68
384.563	8.04
384.773	12.69
384.983	8.28
385.193	7.01
385.403	1.64
385.613	3.26
385.823	-3.02
386.033	3.11
386.242	4.07
386.452	8.56
386.662	5.69
386.872	8.35
387.082	8.08
387.291	5.28
387.501	8.12
387.711	7.78
387.921	6.41
388.13	3.38
388.34	8.83
388.55	6.59
388.759	4.53
388.969	5.77
389.179	8.47
389.388	6.27
389.598	6.33
389.807	7.44
390.017	7.26
390.227	5.47
390.436	4.21
390.646	2.96
390.855	4.37
391.065	2.81
391.274	4.15
391.484	7.17
391.693	7.47
391.903	8.21
392.112	11.03
392.322	11.41
392.531	10.18
392.74	9.66
392.95	7.33
393.159	6.33
393.369	6.89
393.578	6.44
393.787	7.35
393.997	8.62
394.206	8.19
394.415	7.38
394.625	8.4
394.834	8.73
395.043	8.53
395.252	9.28
395.462	9.33
395.671	8.52
395.88	9.21
396.089	9.5
396.298	10.19
396.508	10.73
396.717	11.09
396.926	10.58
397.135	10.64
397.344	9.82
397.553	9.59
397.762	9.92
397.971	10.06
398.181	9.72
398.39	10.02
398.599	10.02
398.808	9.96
399.017	9.39
399.226	9.96
399.435	10.14
399.644	10.41
399.853	10.28
400.062	10.51
400.27	10.42
400.479	10.2
400.688	10.21
400.897	10.47
401.106	10.24
401.315	9.95
401.524	10.1
401.733	9.8
401.941	9.55
402.15	9.74
402.359	9.84
402.568	9.61
402.777	10.04
402.985	10.01
403.194	10.05
403.403	9.98
403.612	9.93
403.82	9.61
404.029	9.53
404.238	9.61
404.446	9.71
404.655	9.83
404.864	9.77
405.072	9.79
405.281	9.77
405.489	9.64
405.698	9.6
405.906	9.6
406.115	9.59
406.324	9.47
406.532	9.52
406.741	9.43
406.949	9.34
407.158	9.39
407.366	9.48
407.574	9.47
407.783	9.54
407.991	9.72
408.2	9.6
408.408	9.46
408.617	9.46
408.825	9.34
409.033	9.11
409.242	9.2
409.45	9.18
409.658	8.92
409.867	9.01
410.075	9.09
410.283	9.13
410.491	9.22
410.7	9.57
410.908	9.48
411.116	9.51
411.324	9.47
411.533	9.39
411.741	9.19
411.949	9.2
412.157	9.21
412.365	9.32
412.573	9.26
412.781	9.23
412.99	9.22
413.198	9.21
413.406	9.08
413.614	9.12
413.822	9.21
414.03	9.27
414.238	9.21
414.446	9.28
414.654	9.32
414.862	9.19
415.07	9.09
415.278	9.15
415.486	8.94
415.694	8.96
415.902	8.9
416.109	8.96
416.317	8.88
416.525	8.91
416.733	8.78
416.941	8.91
417.149	8.82
417.357	8.83
417.564	8.72
417.772	8.79
417.98	8.71
418.188	8.72
418.395	8.56
418.603	8.69
418.811	8.46
419.019	8.5
419.226	8.39
419.434	8.5
419.642	8.38
419.849	8.59
420.057	8.47
420.265	8.7
420.472	8.58
420.68	8.56
420.887	8.41
421.095	8.4
421.302	7.97
421.51	8
421.717	8.18
421.925	8.22
422.132	8.28
422.34	8.47
422.547	8.46
422.755	8.27
422.962	8.28
423.17	8.28
423.377	8.21
423.585	8.1
423.792	8.01
423.999	7.93
424.207	7.78
424.414	7.62
424.621	7.74
424.829	7.82
425.036	7.95
425.243	8.16
425.451	8.34
425.658	8.38
425.865	8.35
426.072	8.2
426.28	8.04
426.487	8.02
426.694	8.02
426.901	7.92
427.108	7.95
427.315	8.07
427.523	7.95
427.73	7.89
427.937	8
428.144	8.04
428.351	8.11
428.558	8.3
428.765	8.2
428.972	8.29
429.179	8.22
429.386	8.13
429.593	8.24
429.8	8.31
430.007	8.08
430.214	8.07
430.421	8.22
430.628	8.1
430.835	8.13
431.042	8.19
431.249	8.18
431.456	8.05
431.662	8.23
431.869	8.21
432.076	8.24
432.283	8.4
432.49	8.35
432.697	8.19
432.903	8.14
433.11	8.08
433.317	8.03
433.524	8.14
433.73	8.22
433.937	8.44
434.144	8.48
434.35	8.45
434.557	8.47
434.764	8.41
434.97	8.22
435.177	8.37
435.384	8.32
435.59	8.25
435.797	8.39
436.003	8.43
436.21	8.3
436.416	8.23
436.623	8.22
436.829	8.16
437.036	8.08
437.242	8.09
437.449	8.35
437.655	8.49
437.862	8.59
438.068	8.81
438.275	8.86
438.481	8.72
438.687	8.5
438.894	8.47
439.1	8.3
439.307	8.32
439.513	8.26
439.719	8.37
439.926	8.32
440.132	8.37
440.338	8.53
440.544	8.62
440.751	8.66
440.957	8.72
441.163	8.75
441.369	8.68
441.575	8.6
441.782	8.53
441.988	8.4
442.194	8.34
442.4	8.24
442.606	8.34
442.812	8.4
443.018	8.43
443.224	8.5
443.431	8.53
443.637	8.38
443.843	8.32
444.049	8.36
444.255	8.38
444.461	8.38
444.667	8.59
444.873	8.64
445.079	8.62
445.284	8.65
445.49	8.63
445.696	8.58
445.902	8.61
446.108	8.61
446.314	8.5
446.52	8.48
446.726	8.46
446.931	8.44
447.137	8.43
447.343	8.51
447.549	8.56
447.755	8.69
447.96	8.73
448.166	8.84
448.372	8.87
448.578	8.89
448.783	8.91
448.989	8.9
449.195	8.87
449.4	8.85
449.606	8.88
449.812	8.83
450.017	8.89
450.223	8.93
450.428	8.96
450.634	8.88
450.84	8.86
451.045	8.8
451.251	8.71
451.456	8.7
451.662	8.78
451.867	8.68
452.073	8.74
452.278	8.76
452.483	8.77
452.689	8.83
452.894	9.03
453.1	9.01
453.305	9.06
453.51	9.03
453.716	9.03
453.921	8.91
454.127	8.96
454.332	8.87
454.537	8.95
454.742	8.81
454.948	8.83
455.153	8.82
455.358	8.95
455.563	8.92
455.769	8.98
455.974	9.15
456.179	9.12
456.384	9.12
456.589	9.18
456.795	9.22
457	9.09
457.205	9.14
457.41	9.09
457.615	9.07
457.82	9.07
458.025	9.05
458.23	9.11
458.435	9.07
458.64	9.16
458.845	9.34
459.05	9.4
459.255	9.39
459.46	9.54
459.665	9.46
459.87	9.28
460.075	9.33
460.28	9.4
460.485	9.37
460.69	9.38
460.895	9.44
461.099	9.43
461.304	9.35
461.509	9.3
461.714	9.42
461.919	9.38
462.123	9.36
462.328	9.28
462.533	9.47
462.738	9.43
462.942	9.53
463.147	9.6
463.352	9.83
463.556	9.8
463.761	9.76
463.966	9.76
464.17	9.76
464.375	9.7
464.58	9.74
464.784	9.92
464.989	9.94
465.193	9.99
465.398	10.06
465.602	10.15
465.807	10.18
466.011	10.24
466.216	10.19
466.42	10.15
466.625	10.03
466.829	9.96
467.034	9.96
467.238	10.04
467.443	10.04
467.647	10.03
467.851	9.99
468.056	10.04
468.26	10.11
468.464	10.07
468.669	10.15
468.873	10.16
469.077	10.1
469.282	10.1
469.486	10.13
469.69	10.08
469.894	10.11
470.099	10.14
470.303	10.08
470.507	10.1
470.711	10.22
470.915	10.26
471.119	10.31
471.324	10.3
471.528	10.27
471.732	10.24
471.936	10.3
472.14	10.37
472.344	10.35
472.548	10.45
472.752	10.45
472.956	10.34
473.16	10.33
473.364	10.39
473.568	10.29
473.772	10.26
473.976	10.28
474.18	10.16
474.384	10.26
474.588	10.42
474.792	10.36
474.995	10.37
475.199	10.34
475.403	10.32
475.607	10.28
475.811	10.22
476.015	10.16
476.218	10.21
476.422	10.15
476.626	10.13
476.83	10.26
477.033	10.45
477.237	10.53
477.441	10.62
477.644	10.65
477.848	10.65
478.052	10.53
478.255	10.37
478.459	10.34
478.663	10.33
478.866	10.32
479.07	10.35
479.273	10.38
479.477	10.3
479.681	10.33
479.884	10.39
480.088	10.35
480.291	10.42
480.495	10.44
480.698	10.3
480.901	10.27
481.105	10.26
481.308	10.17
481.512	10.15
481.715	10.22
481.919	10.21
482.122	10.23
482.325	10.36
482.529	10.4
482.732	10.42
482.935	10.4
483.138	10.47
483.342	10.4
483.545	10.39
483.748	10.37
483.952	10.36
484.155	10.35
484.358	10.34
484.561	10.24
484.764	10.25
484.967	10.2
485.171	10.04
485.374	10.04
485.577	10.08
485.78	10.09
485.983	10.17
486.186	10.34
486.389	10.32
486.592	10.35
486.795	10.32
486.998	10.23
487.201	10.17
487.404	10.15
487.607	10.14
487.81	10.08
488.013	10.17
488.216	10.11
488.419	10.15
488.622	10.16
488.825	10.18
489.028	10.12
489.231	10.18
489.433	10.08
489.636	10
489.839	9.97
490.042	10.05
490.245	10
490.447	10.08
490.65	10.13
490.853	10.21
491.056	10.13
491.258	10.15
491.461	10.1
491.664	10.04
491.866	9.94
492.069	9.99
492.272	9.88
492.474	9.9
492.677	9.9
492.879	9.91
493.082	9.84
493.285	9.9
493.487	9.88
493.69	9.87
493.892	9.94
494.095	9.98
494.297	9.98
494.5	10.04
494.702	10.05
494.905	9.96
495.107	9.84
495.309	9.78
495.512	9.71
495.714	9.77
495.917	9.83
496.119	9.94
496.321	10.01
496.524	9.99
496.726	9.96
496.928	9.93
497.13	9.88
497.333	9.77
497.535	9.87
497.737	9.89
497.939	9.89
498.142	9.86
498.344	9.85
498.546	9.78
498.748	9.68
498.95	9.61
499.152	9.58
499.355	9.64
499.557	9.65
499.759	9.7
499.961	9.76
500.163	9.77
500.365	9.79
500.567	9.78
500.769	9.76
500.971	9.76
501.173	9.83
501.375	9.74
501.577	9.75
501.779	9.75
501.981	9.73
502.183	9.7
502.385	9.68
502.587	9.64
502.788	9.7
502.99	9.68
503.192	9.67
503.394	9.73
503.596	9.69
503.798	9.6
503.999	9.59
504.201	9.56
504.403	9.61
504.605	9.64
504.806	9.66
505.008	9.67
505.21	9.64
505.411	9.54
505.613	9.5
505.815	9.47
506.016	9.43
506.218	9.5
506.42	9.59
506.621	9.7
506.823	9.7
507.024	9.71
507.226	9.68
507.427	9.62
507.629	9.5
507.83	9.53
508.032	9.53
508.233	9.54
508.435	9.55
508.636	9.59
508.838	9.57
509.039	9.51
509.24	9.51
509.442	9.47
509.643	9.5
509.845	9.51
510.046	9.53
510.247	9.54
510.448	9.61
510.65	9.48
510.851	9.55
511.052	9.62
511.254	9.57
511.455	9.48
511.656	9.49
511.857	9.36
512.058	9.29
512.26	9.34
512.461	9.38
512.662	9.45
512.863	9.49
513.064	9.56
513.265	9.49
513.466	9.51
513.667	9.54
513.868	9.54
514.069	9.49
514.27	9.48
514.471	9.5
514.672	9.42
514.873	9.33
515.074	9.32
515.275	9.37
515.476	9.31
515.677	9.33
515.878	9.52
516.079	9.53
516.28	9.49
516.481	9.5
516.682	9.51
516.882	9.45
517.083	9.42
517.284	9.45
517.485	9.45
517.686	9.46
517.886	9.45
518.087	9.42
518.288	9.42
518.488	9.44
518.689	9.38
518.89	9.35
519.091	9.34
519.291	9.41
519.492	9.4
519.692	9.48
519.893	9.52
520.094	9.57
520.294	9.44
520.495	9.41
520.695	9.34
520.896	9.29
521.096	9.29
521.297	9.35
521.497	9.34
521.698	9.36
521.898	9.35
522.099	9.29
522.299	9.26
522.499	9.26
522.7	9.24
522.9	9.27
523.101	9.31
523.301	9.31
523.501	9.31
523.702	9.35
523.902	9.33
524.102	9.35
524.302	9.31
524.503	9.28
524.703	9.26
524.903	9.25
525.103	9.32
525.304	9.31
525.504	9.34
525.704	9.3
525.904	9.33
526.104	9.21
526.304	9.26
526.504	9.28
526.705	9.36
526.905	9.31
527.105	9.36
527.305	9.33
527.505	9.39
527.705	9.41
527.905	9.42
528.105	9.45
528.305	9.48
528.505	9.38
528.705	9.35
528.905	9.35
529.105	9.3
529.304	9.31
529.504	9.33
529.704	9.35
529.904	9.39
530.104	9.42
530.304	9.39
530.503	9.41
530.703	9.35
530.903	9.34
531.103	9.36
531.303	9.37
531.502	9.36
531.702	9.34
531.902	9.4
532.101	9.37
532.301	9.35
532.501	9.41
532.7	9.44
532.9	9.4
533.1	9.4
533.299	9.43
533.499	9.37
533.698	9.36
533.898	9.31
534.097	9.33
534.297	9.37
534.496	9.36
534.696	9.33
534.895	9.43
535.095	9.41
535.294	9.37
535.494	9.4
535.693	9.42
535.892	9.36
536.092	9.41
536.291	9.41
536.491	9.47
536.69	9.49
536.889	9.5
537.088	9.47
537.288	9.43
537.487	9.38
537.686	9.39
537.886	9.45
538.085	9.51
538.284	9.6
538.483	9.65
538.682	9.72
538.882	9.66
539.081	9.61
539.28	9.6
539.479	9.59
539.678	9.57
539.877	9.6
540.076	9.63
540.275	9.63
540.474	9.61
540.673	9.58
540.872	9.62
541.071	9.65
541.27	9.66
541.469	9.66
541.668	9.67
541.867	9.68
542.066	9.66
542.265	9.8
542.464	9.85
542.663	9.93
542.862	9.97
543.06	10
543.259	9.95
543.458	10.02
543.657	9.98
543.856	10.02
544.054	10.09
544.253	10.06
544.452	10.08
544.651	10.13
544.849	10.06
545.048	10.03
545.247	10.08
545.445	10.06
545.644	10.03
545.843	10.09
546.041	10.13
546.24	10.1
546.438	10.11
546.637	10.15
546.836	10.17
547.034	10.24
547.233	10.21
547.431	10.27
547.63	10.37
547.828	10.38
548.027	10.33
548.225	10.43
548.423	10.43
548.622	10.41
548.82	10.49
549.019	10.53
549.217	10.53
549.415	10.54
549.614	10.62
549.812	10.59
550.01	10.73
550.209	10.8
550.407	10.85
550.605	10.81
550.803	10.93
551.002	10.87
551.2	10.95
551.398	11.05
551.596	11.16
551.794	11.2
551.993	11.23
552.191	11.28
552.389	11.27
552.587	11.23
552.785	11.22
552.983	11.34
553.181	11.32
553.379	11.42
553.577	11.54
553.775	11.58
553.973	11.57
554.171	11.66
554.369	11.71
554.567	11.77
554.765	11.88
554.963	11.92
555.161	11.94
555.359	11.96
555.557	11.93
555.755	11.86
555.952	11.96
556.15	11.97
556.348	12.04
556.546	12.09
556.744	12.19
556.941	12.19
557.139	12.25
557.337	12.23
557.535	12.29
557.732	12.37
557.93	12.44
558.128	12.53
558.325	12.6
558.523	12.66
558.721	12.7
558.918	12.72
559.116	12.75
559.313	12.78
559.511	12.92
559.708	13
559.906	13.12
560.104	13.23
560.301	13.36
560.498	13.32
560.696	13.4
560.893	13.43
561.091	13.44
561.288	13.46
561.486	13.57
561.683	13.61
561.88	13.67
562.078	13.7
562.275	13.79
562.473	13.84
562.67	13.89
562.867	13.88
563.064	13.95
563.262	13.95
563.459	14.04
563.656	14
563.853	14.1
564.051	14.15
564.248	14.22
564.445	14.16
564.642	14.18
564.839	14.25
565.036	14.41
565.234	14.49
565.431	14.6
565.628	14.71
565.825	14.72
566.022	14.77
566.219	14.81
566.416	14.86
566.613	14.98
566.81	15.08
567.007	14.96
567.204	14.98
567.401	15.03
567.598	15.06
567.795	15.04
567.991	15.2
568.188	15.28
568.385	15.21
568.582	15.17
568.779	15.17
568.976	15.26
569.172	15.2
569.369	15.32
569.566	15.38
569.763	15.48
569.96	15.47
570.156	15.58
570.353	15.61
570.55	15.67
570.746	15.63
570.943	15.62
571.14	15.64
571.336	15.65
571.533	15.71
571.729	15.71
571.926	15.77
572.123	15.72
572.319	15.77
572.516	15.68
572.712	15.75
572.909	15.66
573.105	15.76
573.302	15.73
573.498	15.81
573.695	15.8
573.891	15.82
574.087	15.74
574.284	15.73
574.48	15.69
574.677	15.75
574.873	15.76
575.069	15.83
575.266	15.76
575.462	15.78
575.658	15.76
575.854	15.82
576.051	15.81
576.247	15.88
576.443	15.9
576.639	15.89
576.835	15.74
577.032	15.71
577.228	15.68
577.424	15.65
577.62	15.65
577.816	15.61
578.012	15.59
578.208	15.59
578.404	15.56
578.6	15.61
578.796	15.61
578.993	15.63
579.189	15.66
579.384	15.68
579.58	15.62
579.776	15.67
579.972	15.64
580.168	15.59
580.364	15.58
580.56	15.51
580.756	15.44
580.952	15.4
581.148	15.43
581.343	15.4
581.539	15.5
581.735	15.45
581.931	15.45
582.127	15.34
582.322	15.28
582.518	15.12
582.714	15.23
582.909	15.26
583.105	15.28
583.301	15.28
583.496	15.34
583.692	15.24
583.888	15.1
584.083	15.05
584.279	14.96
584.474	14.9
584.67	14.84
584.866	14.88
585.061	14.88
585.257	14.86
585.452	14.9
585.648	14.98
585.843	15
586.039	14.97
586.234	15.05
586.429	14.98
586.625	14.9
586.82	14.82
587.015	14.78
587.211	14.72
587.406	14.65
587.601	14.69
587.797	14.73
587.992	14.76
588.187	14.77
588.383	14.89
588.578	14.93
588.773	14.96
588.968	14.94
589.163	14.93
589.359	14.84
589.554	14.76
589.749	14.68
589.944	14.7
590.139	14.67
590.334	14.71
590.529	14.77
590.724	14.84
590.919	14.89
591.114	14.94
591.309	14.9
591.504	14.88
591.699	14.9
591.894	14.89
592.089	14.91
592.284	14.97
592.479	15.03
592.674	15.03
592.869	15.04
593.064	15.05
593.259	15.11
593.454	15.07
593.648	15.08
593.843	15.04
594.038	15.03
594.233	15.02
594.428	15.01
594.622	15.05
594.817	15.12
595.012	15.14
595.206	15.25
595.401	15.33
595.596	15.35
595.79	15.42
595.985	15.39
596.18	15.42
596.374	15.48
596.569	15.52
596.763	15.64
596.958	15.87
597.153	15.79
597.347	15.77
597.542	15.85
597.736	15.86
597.931	15.82
598.125	15.94
598.319	16.06
598.514	16.01
598.708	16.02
598.903	16.06
599.097	16.06
599.291	16.09
599.486	16.16
599.68	16.2
599.874	16.27
600.069	16.35
600.263	16.36
600.457	16.39
600.651	16.35
600.846	16.34
601.04	16.23
601.234	16.19
601.428	16.25
601.622	16.33
601.817	16.32
602.011	16.43
602.205	16.44
602.399	16.44
602.593	16.46
602.787	16.44
602.981	16.49
603.175	16.51
603.369	16.54
603.563	16.54
603.757	16.56
603.951	16.53
604.145	16.52
604.339	16.47
604.533	16.36
604.727	16.4
604.921	16.44
605.115	16.4
605.309	16.28
605.502	16.35
605.696	16.24
605.89	16.18
606.084	16.19
606.278	16.29
606.471	16.18
606.665	16.22
606.859	16.11
607.053	16.14
607.246	16.06
607.44	16.15
607.634	16.08
607.827	16.06
608.021	15.78
608.214	15.79
608.408	15.71
608.602	15.64
608.795	15.6
608.989	15.7
609.182	15.6
609.376	15.57
609.569	15.55
609.763	15.51
609.956	15.5
610.15	15.45
610.343	15.38
610.537	15.34
610.73	15.34
610.923	15.31
611.117	15.25
611.31	15.13
611.504	15.17
611.697	15.07
611.89	14.92
612.083	14.9
612.277	14.83
612.47	14.74
612.663	14.66
612.856	14.73
613.05	14.75
613.243	14.75
613.436	14.59
613.629	14.6
613.822	14.5
614.015	14.4
614.209	14.35
614.402	14.4
614.595	14.31
614.788	14.24
614.981	14.09
615.174	14.08
615.367	13.87
615.56	13.81
615.753	13.8
615.946	13.88
616.139	13.83
616.332	13.88
616.525	13.79
616.718	13.72
616.911	13.66
617.103	13.57
617.296	13.54
617.489	13.62
617.682	13.73
617.875	13.68
618.067	13.73
618.26	13.7
618.453	13.52
618.646	13.35
618.838	13.27
619.031	13.18
619.224	13.15
619.417	13.24
619.609	13.23
619.802	13.26
619.994	13.22
620.187	13.21
620.38	13.17
620.572	13.16
620.765	13.16
620.957	13.18
621.15	13.19
621.342	13.12
621.535	13.07
621.727	12.99
621.92	12.88
622.112	12.81
622.305	12.82
622.497	12.79
622.69	12.74
622.882	12.79
623.074	12.84
623.267	12.77
623.459	12.76
623.651	12.8
623.844	12.75
624.036	12.7
624.228	12.79
624.42	12.79
624.613	12.76
624.805	12.77
624.997	12.7
625.189	12.61
625.381	12.58
625.574	12.56
625.766	12.48
625.958	12.47
626.15	12.47
626.342	12.4
626.534	12.42
626.726	12.4
626.918	12.33
627.11	12.27
627.302	12.33
627.494	12.23
627.686	12.29
627.878	12.34
628.07	12.38
628.262	12.39
628.454	12.36
628.646	12.31
628.838	12.26
629.029	12.2
629.221	12.06
629.413	12.03
629.605	11.99
629.797	12.04
629.989	12.01
630.18	12.02
630.372	11.95
630.564	11.94
630.755	11.81
630.947	11.81
631.139	11.77
631.33	11.76
631.522	11.75
631.714	11.77
631.905	11.76
632.097	11.74
632.289	11.81
632.48	11.79
632.672	11.72
632.863	11.69
633.055	11.65
633.246	11.62
633.438	11.55
633.629	11.52
633.821	11.47
634.012	11.46
634.203	11.39
634.395	11.41
634.586	11.56
634.777	11.58
634.969	11.6
635.16	11.73
635.351	11.73
635.543	11.66
635.734	11.62
635.925	11.54
636.117	11.46
636.308	11.46
636.499	11.38
636.69	11.44
636.881	11.42
637.073	11.38
637.264	11.4
637.455	11.45
637.646	11.42
637.837	11.5
638.028	11.47
638.219	11.4
638.41	11.41
638.601	11.36
638.792	11.34
638.983	11.38
639.174	11.37
639.365	11.28
639.556	11.34
639.747	11.36
639.938	11.4
640.129	11.47
640.32	11.5
640.511	11.46
640.701	11.36
640.892	11.4
641.083	11.29
641.274	11.26
641.465	11.2
641.655	11.29
641.846	11.28
642.037	11.36
642.228	11.33
642.418	11.35
642.609	11.21
642.8	11.11
642.99	11.04
643.181	10.98
643.372	10.89
643.562	10.9
643.753	10.86
643.943	10.81
644.134	10.92
644.324	11
644.515	11.05
644.705	11.11
644.896	11.11
645.086	11.02
645.277	11.05
645.467	11.07
645.658	11.05
645.848	10.99
646.038	11.02
646.229	10.92
646.419	10.83
646.61	10.88
646.8	10.97
646.99	10.99
647.18	10.9
647.371	10.87
647.561	10.74
647.751	10.72
647.941	10.67
648.132	10.69
648.322	10.67
648.512	10.69
648.702	10.71
648.892	10.7
649.082	10.78
649.272	10.84
649.462	10.92
649.653	10.91
649.843	10.9
650.033	10.96
650.223	10.92
650.413	10.81
650.603	10.8
650.793	10.75
650.983	10.65
651.172	10.66
651.362	10.58
651.552	10.54
651.742	10.58
651.932	10.68
652.122	10.64
652.312	10.71
652.502	10.79
652.691	10.75
652.881	10.59
653.071	10.65
653.261	10.58
653.45	10.34
653.64	10.42
653.83	10.37
654.019	10.29
654.209	10.29
654.399	10.27
654.588	10.15
654.778	10.14
654.968	9.98
655.157	9.92
655.347	9.98
655.536	9.86
655.726	9.84
655.915	9.85
656.105	9.69
656.294	9.63
656.484	9.67
656.673	9.53
656.863	9.51
657.052	9.52
657.241	9.41
657.431	9.32
657.62	9.3
657.809	9.21
657.999	9.1
658.188	9.1
658.377	9.06
658.567	8.88
658.756	8.77
658.945	8.78
659.134	8.68
659.324	8.6
659.513	8.65
659.702	8.64
659.891	8.53
660.08	8.38
660.269	8.22
660.458	8.07
660.648	8
660.837	7.88
661.026	7.8
661.215	7.85
661.404	7.92
661.593	7.83
661.782	7.86
661.971	7.97
662.16	7.9
662.349	7.78
662.538	7.84
662.726	7.72
662.915	7.62
663.104	7.5
663.293	7.5
663.482	7.42
663.671	7.57
663.86	7.52
664.048	7.59
664.237	7.63
664.426	7.66
664.615	7.51
664.803	7.48
664.992	7.27
665.181	7.13
665.369	7.06
665.558	7.04
665.747	7.16
665.935	7.33
666.124	7.4
666.312	7.36
666.501	7.4
666.69	7.38
666.878	7.36
667.067	7.39
667.255	7.45
667.444	7.55
667.632	7.49
667.82	7.5
668.009	7.35
668.197	7.36
668.386	7.21
668.574	7.2
668.762	7.22
668.951	7.35
669.139	7.23
669.327	7.33
669.516	7.31
669.704	7.27
669.892	7.24
670.08	7.32
670.269	7.26
670.457	7.27
670.645	7.2
670.833	7.3
671.021	7.32
671.21	7.4
671.398	7.46
671.586	7.49
671.774	7.42
671.962	7.51
672.15	7.59
672.338	7.6
672.526	7.68
672.714	7.76
672.902	7.73
673.09	7.58
673.278	7.57
673.466	7.67
673.654	7.81
673.842	7.9
674.03	8.19
674.218	8.25
674.405	8.29
674.593	8.26
674.781	8.3
674.969	8.09
675.157	8.24
675.344	8.16
675.532	8.21
675.72	8.24
675.908	8.28
676.095	8.29
676.283	8.44
676.471	8.28
676.658	8.24
676.846	8.35
677.033	8.34
677.221	8.34
677.409	8.51
677.596	8.58
677.784	8.69
677.971	8.67
678.159	8.77
678.346	8.82
678.534	8.84
678.721	8.89
678.909	8.96
679.096	8.93
679.283	8.84
679.471	8.88
679.658	8.82
679.846	8.85
680.033	8.96
680.22	9.28
680.408	9.26
680.595	9.31
680.782	9.28
680.969	9.24
681.157	9.14
681.344	9.33
681.531	9.44
681.718	9.45
681.905	9.61
682.093	9.56
682.28	9.51
682.467	9.47
682.654	9.54
682.841	9.53
683.028	9.55
683.215	9.69
683.402	9.81
683.589	9.94
683.776	10.11
683.963	10.35
684.15	10.34
684.337	10.33
684.524	10.65
684.711	10.66
684.898	10.74
685.085	10.89
685.271	11.05
685.458	10.82
685.645	10.75
685.832	10.71
686.019	10.74
686.205	10.74
686.392	10.94
686.579	11.32
686.766	11.67
686.952	11.79
687.139	12.09
687.326	12.21
687.512	12.2
687.699	12.26
687.886	12.51
688.072	12.39
688.259	12.58
688.445	12.7
688.632	12.8
688.818	13.07
689.005	13.49
689.191	13.82
689.378	14.12
689.564	14.5
689.751	14.62
689.937	14.8
690.124	15.04
690.31	15.4
690.496	15.8
690.683	16.24
690.869	16.65
691.055	17.04
691.242	17.14
691.428	17.25
691.614	17.4
691.8	17.77
691.987	18.03
692.173	18.65
692.359	19.11
692.545	19.49
692.731	19.82
692.918	20.12
693.104	20.35
693.29	20.73
693.476	21.34
693.662	21.76
693.848	22.49
694.034	22.93
694.22	23.71
694.406	24
694.592	24.42
694.778	24.83
694.964	25.6
695.15	25.61
695.336	25.99
695.522	26.62
695.708	27.04
695.894	27.35
696.08	27.99
696.265	28.67
696.451	29.04
696.637	29.5
696.823	29.99
697.009	30.25
697.194	30.5
697.38	31.31
697.566	31.87
697.751	32.49
697.937	33.19
698.123	34.08
698.308	34.45
698.494	34.82
698.68	35.32
698.865	35.76
699.051	36.26
699.236	36.63
699.422	36.96
699.607	37.32
699.793	38.08
699.978	38.39
700.164	39.03
700.349	39.89
700.535	40.29
700.72	40.56
700.906	41.06
701.091	41.38
701.276	41.87
701.462	42.61
701.647	43.44
701.832	43.93
702.018	44.47
702.203	45.04
702.388	45.24
702.573	45.5
702.759	46.08
702.944	46.54
703.129	46.78
703.314	47.29
703.499	47.52
703.684	47.8
703.87	48.07
704.055	48.32
704.24	48.92
704.425	49.24
704.61	49.82
704.795	50.56
704.98	51.08
705.165	51.25
705.35	52.05
705.535	52.37
705.72	52.88
705.905	53.04
706.09	53.46
706.275	53.43
706.459	53.94
706.644	53.94
706.829	54.46
707.014	55.05
707.199	55.8
707.384	55.76
707.568	56.17
707.753	56.57
707.938	56.71
708.123	56.79
708.307	57.12
708.492	57.41
708.677	57.39
708.861	57.45
709.046	57.91
709.231	57.98
709.415	58.28
709.6	58.41
709.784	58.97
709.969	59.06
710.153	59.77
710.338	59.96
710.522	60.61
710.707	60.44
710.891	60.38
711.076	60.42
711.26	60.3
711.445	60.84
711.629	61.42
711.813	62.1
711.998	62.51
712.182	63.15
712.366	63.2
712.551	63.26
712.735	63.38
712.919	63.37
713.103	63.43
713.288	63.56
713.472	63.34
713.656	63.84
713.84	64.4
714.024	64.86
714.208	64.84
714.393	65.18
714.577	65.05
714.761	64.59
714.945	64.82
715.129	65.07
715.313	65.26
715.497	65.39
715.681	65.72
715.865	65.72
716.049	65.91
716.233	66.03
716.417	66.12
716.601	66.28
716.785	66.41
716.968	66.14
717.152	67.12
717.336	67.65
717.52	67.61
717.704	67.45
717.888	68.22
718.071	67.79
718.255	67.43
718.439	67.55
718.622	67.75
718.806	67.44
718.99	67.52
719.174	67.52
719.357	67.95
719.541	68.25
719.724	68.36
719.908	68.25
720.092	68.68
720.275	68.83
720.459	69.2
720.642	69.63
720.826	70.12
721.009	70.64
721.193	70.61
721.376	70.66
721.559	70.55
721.743	70.57
721.926	70.57
722.11	70.66
722.293	70.95
722.476	71.59
722.66	72.13
722.843	71.65
723.026	72.02
723.21	71.25
723.393	70.63
723.576	70.55
723.759	71.09
723.942	70.79
724.126	71.22
724.309	71.25
724.492	71.3
724.675	70.8
724.858	71.2
725.041	71.47
725.224	71.8
725.407	72.09
725.59	72.96
725.774	73.26
725.957	73.81
726.14	74.25
726.322	73.93
726.505	73.3
726.688	73.76
726.871	73.26
727.054	73.49
727.237	74.15
727.42	74.72
727.603	74.39
727.786	74.89
727.968	74.79
728.151	75.01
728.334	74.68
728.517	74.91
728.699	75.02
728.882	75.32
729.065	75.03
729.248	75.22
729.43	75.39
729.613	75.48
729.796	75.76
729.978	76.45
730.161	76.65
730.343	77.02
730.526	77.15
730.708	77.58
730.891	76.74
731.073	77.51
731.256	77.72
731.438	77.82
731.621	76.97
731.803	77.87
731.986	77.91
732.168	78.36
732.35	78.24
732.533	79.12
732.715	79.38
732.898	79.2
733.08	79.14
733.262	80.67
733.444	80.8
733.627	80.3
733.809	80.48
733.991	80.49
734.173	79.9
734.355	79.57
734.538	80.09
734.72	80.63
734.902	80.64
735.084	80.62
735.266	80.74
735.448	81.12
735.63	81.27
735.812	81.36
735.994	80.45
736.176	80.27
736.358	80.51
736.54	80.4
736.722	80.34
736.904	81.26
737.086	82.36
737.268	81.88
737.45	81.97
737.632	82.31
737.814	83.24
737.995	82.9
738.177	83.51
738.359	83.54
738.541	82.35
738.723	81.22
738.904	80.57
739.086	80.29
739.268	80.6
739.449	81.97
739.631	83.27
739.813	84.26
739.994	84.62
740.176	84.26
740.358	84.69
740.539	83.85
740.721	83.18
740.902	82.96
741.084	84.15
741.265	83.68
741.447	83.1
741.628	83.77
741.81	84.16
741.991	84.47
742.172	84.81
742.354	85.64
742.535	85.61
742.717	85.07
742.898	84.66
743.079	84.88
743.261	85.67
743.442	86.62
743.623	87.21
743.804	87.4
743.986	86.41
744.167	85.04
744.348	84.48
744.529	84.2
744.71	82.91
744.891	83.55
745.073	84.08
745.254	84.63
745.435	85.16
745.616	85.47
745.797	85.36
745.978	85.58
746.159	84.62
746.34	84.95
746.521	84.8
746.702	85.75
746.883	86.79
747.064	86.12
747.245	85
747.426	85.17
747.606	84.16
747.787	83.33
747.968	83.83
748.149	83.08
748.33	83.64
748.51	83.6
748.691	83.17
748.872	82.4
749.053	83.93
749.233	84.21
749.414	84.33
749.595	84.89
749.775	86.36
749.956	86.15
750.137	85.27
750.317	84.67
750.498	85.28
750.678	86.03
750.859	87.48
751.04	87.56
751.22	87.6
751.4	87.45
751.581	87.21
751.761	86.06
751.942	84.93
752.122	85.52
752.303	85.53
752.483	85.24
752.663	85.34
752.844	86.04
753.024	85.82
753.204	84.72
753.385	84.33
753.565	85.6
753.745	86.07
753.925	87.32
754.106	87.63
754.286	86.92
754.466	85.23
754.646	85.76
754.826	84.77
755.006	85.1
755.187	86.24
755.367	85.66
755.547	84.95
755.727	85.43
755.907	84.54
756.087	85.15
756.267	85.96
756.447	87.59
756.627	86.31
756.807	87.24
756.987	84.82
757.167	85.05
757.346	85.63
757.526	85.75
757.706	85.29
757.886	86.68
758.066	87.01
758.246	84.95
758.425	85.23
758.605	84.46
758.785	84.46
758.965	83.93
759.144	83.84
759.324	85.02
759.504	86.49
759.683	86.08
759.863	85.88
760.043	86.67
760.222	86.27
760.402	84.52
760.581	84.44
760.761	85.05
760.94	85.46
761.12	84.68
761.299	85.97
761.479	84.46
761.658	83.5
761.838	82.35
762.017	82.96
762.197	83.03
762.376	84.78
762.555	84.17
762.735	83.42
762.914	82.12
763.093	82.23
763.273	81.65
763.452	82.02
763.631	82.42
763.81	84.56
763.99	83.21
764.169	83.68
764.348	82.29
764.527	82.82
764.706	81.04
764.885	82.03
765.064	82.22
765.243	83.61
765.423	83.53
765.602	83.12
765.781	81.53
765.96	81.46
766.139	81.03
766.318	81.54
766.497	81.86
766.676	82.82
766.854	83.1
767.033	84.75
767.212	85.29
767.391	86.89
767.57	86.02
767.749	86.39
767.928	84.83
768.106	84.31
768.285	82.58
768.464	82.82
768.643	80.23
768.821	80.4
769	77.93
769.179	77.45
769.357	78.47
769.536	81.59
769.715	80.34
769.893	82.8
770.072	84.59
770.25	84.58
770.429	83.22
770.607	83.89
770.786	83.32
770.964	83.4
771.143	83.44
771.321	83.98
771.5	86.28
771.678	85.83
771.857	84.78
772.035	84.55
772.213	83.45
772.392	82.94
772.57	86.55
772.748	86.12
772.927	86.64
773.105	86.65
773.283	85.77
773.461	81.92
773.64	84.03
773.818	83.48
773.996	83.57
774.174	83.5
774.352	83.58
774.531	80.87
774.709	78.86
774.887	79.62
775.065	79.57
775.243	79.79
775.421	79.02
775.599	80.83
775.777	78.27
775.955	77.15
776.133	76.96
776.311	81.32
776.489	80.85
776.667	82.62
776.844	83.47
777.022	84.07
777.2	82.08
777.378	80.64
777.556	81.44
777.734	80.91
777.911	80.94
778.089	81.43
778.267	82.86
778.445	82.09
778.622	82.46
778.8	79.81
778.978	79.98
779.155	79.59
779.333	77.42
779.511	76.51
779.688	77.63
779.866	75.34
780.043	77.17
780.221	77.51
780.398	81.24
780.576	82.06
780.753	83.44
780.931	83
781.108	84.7
781.286	81.53
781.463	81.41
781.64	80.41
781.818	79.81
781.995	79.45
782.172	78.18
782.35	77.68
782.527	77.16
782.704	78.92
782.882	77.97
783.059	76.7
783.236	74.09
783.413	77.64
783.59	76.6
783.768	77.63
783.945	81.21
784.122	84.69
784.299	84.41
784.476	84.2
784.653	85.26
784.83	85.03
785.007	86.05
785.184	81.6
785.361	79.39
785.538	79.09
785.715	76.85
785.892	77.32
786.069	78.17
786.246	81.58
786.423	84.76
786.6	89.36
786.776	85.2
786.953	83.47
787.13	79.79
787.307	78.03
787.484	76.96
787.66	77.47
787.837	81.23
788.014	79.42
788.191	79.67
788.367	76.01
788.544	82.26
788.721	80.79
788.897	84.6
789.074	81.09
789.25	79.95
789.427	74.13
789.603	77.49
789.78	77.42
789.956	75.59
790.133	79.15
790.309	79.73
790.486	73.16
790.662	72.23
790.839	73.45
791.015	72.56
791.192	72.14
791.368	76.42
791.544	74.17
791.721	72.81
791.897	73.81
792.073	74.49
792.249	72.06
792.426	74.61
792.602	75.07
792.778	71.69
792.954	71.09
793.13	74.32
793.307	75.69
793.483	75.32
793.659	77.11
793.835	78.57
794.011	77.11
794.187	73.4
794.363	79.07
794.539	81.93
794.715	79.68
794.891	77.77
795.067	76.63
795.243	75.38
795.419	73.39
795.595	72.66
795.771	70.21
795.947	72.7
796.122	69.38
796.298	68.56
796.474	67.62
796.65	72.54
796.826	70.15
797.001	72.55
797.177	75.55
797.353	76.09
797.529	73.93
797.704	74.33
797.88	69.61
798.056	67.5
798.231	69.94
798.407	69.63
798.582	69.95
798.758	74.11
798.934	76.5
799.109	71.59
799.285	68.93
799.46	73.55
799.636	72.03
799.811	70.17
799.986	76.32
800.162	79.89
800.337	75.32
800.513	73.31
800.688	73.36
800.863	68.54
801.039	70.03
801.214	65.5
801.389	66.58
801.565	68.26
801.74	69.81
801.915	63.49
802.09	71.3
802.265	72.07
802.441	74.48
802.616	74.67
802.791	74.13
802.966	71.54
803.141	69.13
803.316	66.23
803.491	61.81
803.666	66.76
803.841	68.58
804.016	71.44
804.191	73.58
804.366	80.48
804.541	82.7
804.716	83.89
804.891	79.87
805.066	72.87
805.241	74.04
805.416	71.59
805.591	72.71
805.765	74.74
805.94	73.34
806.115	70.65
806.29	69.56
806.464	67.77
806.639	74.83
806.814	79.94
806.989	74.18
807.163	83.86
807.338	80.92
807.512	63.27
807.687	56.57
807.862	56.23
808.036	52.65
808.211	46.73
808.385	50.84
808.56	45.68
808.734	55.93
808.909	57.17
809.083	65.39
809.258	56.11
809.432	58.35
809.606	51.92
809.781	51.89
809.955	54.54
810.13	70.42
810.304	76.23
810.478	82.04
810.652	81.56
810.827	75.99
811.001	72.62
811.175	78.45
811.349	70.14
811.524	67.7
811.698	70.81
811.872	69.48
812.046	73.26
812.22	75.81
812.394	68.09
812.568	64.24
812.742	66.57
812.916	49.21
813.09	58.87
813.264	62.53
813.438	74.07
813.612	74.19
813.786	92.47
813.96	71.55
814.134	67.95
814.308	65.75
814.482	72.05
814.656	76.92
814.83	82.83
815.003	82.18
815.177	79.16
815.351	77.49
815.525	65.08
815.698	62.68
815.872	61.38
816.046	55.33
816.219	49.65
816.393	56.4
816.567	64.33
816.74	79.3
816.914	92.95
817.088	104.01
817.261	103.46
817.435	88.87
817.608	92.45
817.782	80.43
817.955	88.72
818.129	92.42
818.302	88.99
818.475	98.92
818.649	93.87
818.822	77.36
818.996	73.59
819.169	70.87
819.342	61.54
819.516	64.65
819.689	69.84
819.862	76.18
820.035	77.02
820.209	69.53
820.382	76.67
820.555	75.05
820.728	69.6
820.901	67.41
821.075	68.92
821.248	58.33
821.421	58.54
821.594	56.99
821.767	59.17
821.94	49.95
822.113	51.54
822.286	46.62
822.459	38.63
822.632	32.53
822.805	54.84
822.978	56.51
823.151	60.46
823.324	75.35
823.496	80.13
823.669	56.15
823.842	68.33
824.015	58.44
824.188	51.59
824.361	47.56
824.533	56.05
824.706	37.14
824.879	67.94
825.051	62.93
825.224	66.91
825.397	63.27
825.569	57.03
825.742	34.75
825.915	35.19
826.087	37.14
826.26	36.87
826.432	42.96
826.605	32.28
826.777	35.37
826.95	36.3
827.122	34.51
827.295	35.79
827.467	49.54
827.64	44.7
827.812	37.46
827.984	47.2
828.157	52.57
828.329	50.34
828.501	52
828.674	59.98
828.846	64.39
829.018	68.74
829.19	89.15
829.363	81.26
829.535	70.94
829.707	57.58
829.879	62.2
830.051	44.87
830.223	47.64
830.395	46.71
830.568	50.45
830.74	33.51
830.912	27.33
831.084	28.73
831.256	25.14
831.428	20.74
831.6	45.18
831.772	66.62
831.943	33.26
832.115	47.59
832.287	40.61
832.459	21.23
832.631	2.74
832.803	28.13
832.975	26.43
833.146	45.5
833.318	45.17
833.49	56.28
833.662	47.81
833.833	50.74
834.005	52.62
834.177	60.9
834.348	49.69
834.52	52.76
834.692	50.11
834.863	25.53
835.035	44.27
835.206	54.74
835.378	53.69
835.549	58.92
835.721	68.74
835.892	51.76
836.064	37.36
836.235	50.62
836.407	33.87
836.578	36.01
836.749	25.46
836.921	43.24
837.092	34.83
837.264	46.69
837.435	67.26
837.606	84.56
837.777	86.27
837.949	70.46
838.12	52.02
838.291	34.99
838.462	46.32
838.633	33.49
838.805	54.51
838.976	66.02
839.147	71.92
839.318	81.13
839.489	86.14
839.66	90.56
839.831	78.89
840.002	80.45
840.173	59.12
840.344	50.01
840.515	34.31
840.686	8.84
840.857	18.08
841.028	18.36
841.199	18.2
841.369	18.55
841.54	32.93
841.711	50.57
841.882	36.36
842.053	42.79
842.223	67.89
842.394	71.95
842.565	52.84
842.736	67.16
842.906	49.64
843.077	35.26
843.248	36.75
843.418	38.09
843.589	35.62
843.759	51.92
843.93	-306.79
844.101	-191.57
844.271	-21.2
844.442	-8.76
844.612	18.07
844.783	60.22
844.953	45.46
845.123	40.98
845.294	44.33
845.464	34.6
845.635	27.09
845.805	29.59
845.975	28.56
846.146	23.71
846.316	-69.79
846.486	27.68
846.656	15.18
846.827	55.36
846.997	4.19
847.167	11.88
847.337	-1.94
847.507	4.25
847.677	-7.9
847.848	-13.2
848.018	-1.93
848.188	22.2
848.358	18.18
848.528	19.57
848.698	47.45
848.868	54.21
849.038	35.09
849.208	36.91
849.378	-4.62
849.548	12.57
849.718	-225.33
849.887	205.37
850.057	-3141.94
850.227	891.85
850.397	2127.52
850.567	-155.75
850.737	-96.54
850.906	-71.69
851.076	-44.8
851.246	-6.33
851.415	-9.22
851.585	31.54
851.755	31.57
851.924	38.29
852.094	33.81
852.264	39.83
852.433	25.26
852.603	26.4
852.772	13.3
852.942	27.09
853.111	17.91
853.281	29.26
853.45	10.12
853.62	32.82
853.789	-29.58
853.959	-263.45
854.128	298.37
854.297	265.08
854.467	384.93
854.636	-234.14
854.805	-14.34
854.975	24.07
855.144	27.31
855.313	37.22
855.482	55.93
855.652	56.35
855.821	38.91
855.99	67.63
856.159	96.85
856.328	40.39
856.497	62.09
856.667	109.46
856.836	82.07
857.005	69.39
857.174	69.77
857.343	68.22
857.512	28.23
857.681	39.61
857.85	29.89
858.019	44.45
858.188	28.41
858.356	54.57
858.525	59.1
858.694	52.82
858.863	15.16
859.032	-31.89
859.201	-47.12
859.369	-38.39
859.538	-52.69
859.707	-25.8
859.876	-0.68
860.044	-8.52
860.213	21.68
860.382	53.22
860.55	51.74
860.719	32.07
860.888	33.23
861.056	-12.49
861.225	-0.36
861.393	18.25
861.562	20.28
861.73	-1.85
861.899	63.57
862.067	30.06
862.236	-49.02
862.404	-21.65
862.572	8.31
862.741	-479.51
862.909	-58.75
863.078	-12.3
863.246	-28.83
863.414	-34.31
863.582	8.48
863.751	-17.37
863.919	-29.77
864.087	-14.1
864.255	-33.08
864.424	-81.13
864.592	0.95
864.76	19.3
864.928	-4.4
865.096	12.82
865.264	13.78
865.432	-23.03
865.6	-101.67
865.768	-48.87
865.936	-203.21
866.104	-429.45
866.272	1.86
866.44	-53.72
866.608	17.39
866.776	41.05
866.944	35.17
867.112	-22.01
867.28	7.3
867.448	19.8
867.615	-2.53
867.783	45.4
867.951	52.31
868.119	33.83
868.286	-16.11
868.454	-15.57
868.622	-102.47
868.789	-200
868.957	657.92
869.125	654.09
869.292	-478.67
869.46	520.58
869.627	-1729.14
869.795	-250.19
869.963	-70.83
870.13	-59.21
870.298	-4.91
870.465	40.73
870.632	71.64
870.8	70.25
870.967	74.32
871.135	-19.11
871.302	76.34
871.469	-91.62
871.637	-5.54
871.804	-36.2
871.971	0.9
872.139	-28.29
872.306	-61.04
872.473	-803.02
872.64	-70.3
872.807	5
872.975	-36.75
873.142	6.13
873.309	44.45
873.476	11.11
873.643	-11.99
873.81	24.91
873.977	28.94
874.144	-58.28
874.311	-32.09
874.478	-18.37
874.645	-93.65
874.812	-814.22
874.979	-75.22
875.146	-3.84
875.313	-187.37
875.48	163.51
875.647	-279.76
875.813	-913.92
875.98	536.48
876.147	-53.13
876.314	-8.58
876.481	4.7
876.647	24.97
876.814	-19.28
876.981	-47.17
877.147	-93.42
877.314	-63.69
877.481	-99.63
877.647	-121.26
877.814	-130.91
877.98	-133
878.147	320.07
878.314	329.35
878.48	-481.78
878.647	-402.05
878.813	-1279.14
878.979	-24.56
879.146	-60.93
879.312	-29.96
879.479	13.92
879.645	21.36
879.811	5.41
879.978	5.62
880.144	-54.19
880.31	-126.08
880.477	178.52
880.643	117.84
880.809	-53.66
880.975	-332.66
881.142	-100.8
881.308	-373.15
881.474	-58.09
881.64	37.73
881.806	55.91
881.972	44.45
882.138	41.71
882.304	41.61
882.47	6.12
882.636	26.38
882.802	42.29
882.968	45.31
883.134	21.53
883.3	39.21
883.466	21.05
883.632	-11.9
883.798	36.1
883.964	19.63
884.129	-50.3
884.295	-175.23
884.461	-413.41
884.627	1133.83
884.793	241.43
884.958	336.72
885.124	1950.5
885.29	-247.43
885.455	-112.08
885.621	15.32
885.787	-7.6
885.952	9.99
886.118	53.5
886.283	16.22
886.449	-160.68
886.614	-53.28
886.78	-18.8
886.945	2.09
887.111	15.15
887.276	27.13
887.442	48.78
887.607	20.87
887.773	2.28
887.938	-54.88
888.103	-80.38
888.269	-379.84
888.434	5941.18
888.599	-113.77
888.764	-246.6
888.93	41.22
889.095	36.54
889.26	-2.04
889.425	-47.81
889.59	-27.16
889.756	-69.33
889.921	-111.83
890.086	-56.67
890.251	-3.2
890.416	25.36
890.581	12.51
890.746	11.54
890.911	1.65
891.076	-77.85
891.241	-277.04
891.406	-26771.43
891.571	-269.98
891.736	132.87
891.901	84.18
892.065	39.24
892.23	114.45
892.395	196.04
892.56	1902.01
892.725	-487.86
892.889	-782.23
893.054	-2552.32
893.219	-2453.24
893.384	-345.88
893.548	-335.02
893.713	-131.82
893.878	-99.48
