Data from Ofav_SP_Phys_2AZ2_Reflection_3.txt Node
Date: Thu Aug 05 17:53:28 EDT 2021
User: Adam
Spectrometer: FLMT01687
Trigger mode: 0
Integration Time (sec): 8.000000E-1
Scans to average: 2
Electric dark correction enabled: true
Nonlinearity correction enabled: false
Boxcar width: 2
XAxis mode: Wavelengths
Number of Pixels in Spectrum: 3648
>>>>>Begin Spectral Data<<<<<
179.494	688.85
179.716	764.8
179.937	637.78
180.158	750.67
180.38	1817.85
180.601	-772.6
180.823	-189.58
181.044	-20.11
181.265	-1.2
181.486	-56.23
181.708	169.13
181.929	-163.53
182.15	-171.43
182.372	27.25
182.593	-33.94
182.814	-260.27
183.035	-131.27
183.257	-606.41
183.478	671.19
183.699	-499.7
183.92	-194.88
184.141	1011.66
184.363	-745.95
184.584	274.87
184.805	154.97
185.026	134.09
185.247	113.28
185.468	122.03
185.689	119.33
185.91	80.81
186.132	-7.67
186.353	9.61
186.574	-90.58
186.795	-36.64
187.016	31.59
187.237	30.06
187.458	-111.48
187.679	32.21
187.9	22.8
188.121	-4.47
188.342	90.3
188.563	48.93
188.784	77.49
189.005	58.44
189.226	88.61
189.447	71.68
189.667	169.43
189.888	327.41
190.109	234.52
190.33	183.52
190.551	155.7
190.772	175.65
190.993	137.39
191.214	106.45
191.434	69.8
191.655	61.25
191.876	71.25
192.097	48.44
192.318	50.05
192.538	165.86
192.759	211.6
192.98	129.66
193.201	310.85
193.421	84.9
193.642	7.52
193.863	-84.46
194.083	-30.38
194.304	0.94
194.525	34.42
194.745	44.96
194.966	54.96
195.187	59.12
195.407	59.13
195.628	-0.71
195.848	39.04
196.069	47.3
196.29	41.21
196.51	62.64
196.731	62.67
196.951	61.76
197.172	74.73
197.392	90.36
197.613	69.97
197.833	110.33
198.054	86.42
198.274	87.55
198.495	73.59
198.715	72.25
198.936	23.33
199.156	76.66
199.377	48.18
199.597	60.42
199.817	54.94
200.038	44.57
200.258	36.3
200.479	42.11
200.699	23.93
200.919	9.08
201.14	-0
201.36	-12.52
201.58	23.23
201.801	-28.98
202.021	15.45
202.241	101.81
202.461	119.17
202.682	83.69
202.902	179.96
203.122	425.03
203.342	351.11
203.563	225.26
203.783	213.03
204.003	124.37
204.223	81.48
204.443	76.16
204.663	67.7
204.884	45.89
205.104	45.57
205.324	74.62
205.544	57.94
205.764	51.24
205.984	63.24
206.204	73.25
206.424	25.11
206.644	26.15
206.864	16.15
207.084	31.96
207.304	46.91
207.525	34.24
207.745	33.95
207.964	36.13
208.184	49.87
208.404	49.08
208.624	79.01
208.844	115.82
209.064	114.05
209.284	70.25
209.504	48.69
209.724	44.29
209.944	34.53
210.164	9.74
210.384	59.5
210.604	76.93
210.823	74.86
211.043	79.26
211.263	95.31
211.483	74.2
211.703	73.29
211.922	126.95
212.142	158.61
212.362	120.26
212.582	167.37
212.801	146.19
213.021	87.99
213.241	38.54
213.461	43.19
213.68	26.84
213.9	11.55
214.12	3.43
214.339	21.97
214.559	47.2
214.779	70.53
214.998	157.37
215.218	138.85
215.438	162.77
215.657	225.11
215.877	297.59
216.096	175.54
216.316	211.73
216.535	125.16
216.755	61.82
216.974	114.1
217.194	144.79
217.413	78.39
217.633	95.41
217.852	91.03
218.072	80.51
218.291	71.86
218.511	87.62
218.73	68.27
218.95	49.88
219.169	6.82
219.389	66.26
219.608	8.28
219.827	58.36
220.047	99.23
220.266	87.63
220.485	65.57
220.705	100.67
220.924	101.47
221.143	75.02
221.363	49.11
221.582	68.63
221.801	33.11
222.021	53.95
222.24	91.11
222.459	208.11
222.678	122.44
222.897	166.46
223.117	163.54
223.336	99.4
223.555	63.88
223.774	31.16
223.993	-3.84
224.213	34.02
224.432	57.13
224.651	74.39
224.87	99.31
225.089	107.28
225.308	112.54
225.527	80.22
225.746	81.88
225.965	95.21
226.184	83.67
226.404	84.25
226.623	64.16
226.842	60.07
227.061	36.92
227.28	28.63
227.499	12.45
227.718	50.81
227.936	38.25
228.155	42.71
228.374	43.28
228.593	63.34
228.812	61.32
229.031	82.36
229.25	100.29
229.469	91.99
229.688	81.24
229.907	68.97
230.125	63.7
230.344	47.47
230.563	47.31
230.782	34.38
231.001	8.64
231.22	13.57
231.438	39.99
231.657	25.7
231.876	26.3
232.095	41.96
232.313	50.94
232.532	48.91
232.751	61.12
232.969	58.49
233.188	76.16
233.407	60.11
233.625	64.82
233.844	68.95
234.063	44.98
234.281	40.33
234.5	43.38
234.719	48.57
234.937	9
235.156	7.56
235.374	-2.42
235.593	26.72
235.811	5.64
236.03	44.36
236.249	69.86
236.467	82.79
236.686	85.31
236.904	103.28
237.123	74.55
237.341	71.34
237.559	76.05
237.778	55.88
237.996	56.51
238.215	56.32
238.433	53.15
238.652	50.48
238.87	28.79
239.088	18.61
239.307	38.02
239.525	11.91
239.743	-7.71
239.962	34.65
240.18	29.21
240.398	20.27
240.617	5.41
240.835	74.57
241.053	39.58
241.271	54
241.49	65.99
241.708	106.57
241.926	70.41
242.144	96.43
242.363	170.49
242.581	172.43
242.799	137.19
243.017	110.55
243.235	78.98
243.453	24.65
243.672	45.18
243.89	56.36
244.108	155.88
244.326	163.52
244.544	211.54
244.762	127.03
244.98	136.37
245.198	113.96
245.416	87.53
245.634	81.84
245.852	88.82
246.07	70.44
246.288	35.23
246.506	-13.36
246.724	17.41
246.942	26.51
247.16	9.03
247.378	-16.93
247.596	33.38
247.814	12.87
248.032	-17.74
248.25	-26.73
248.468	4.32
248.685	4.25
248.903	9.46
249.121	30.59
249.339	51.34
249.557	33.81
249.775	35.35
249.992	4.51
250.21	20.72
250.428	12.49
250.646	31.64
250.863	69.5
251.081	110.34
251.299	83.05
251.517	102.88
251.734	65.02
251.952	36.33
252.17	51.57
252.387	64.76
252.605	50.91
252.823	69.84
253.04	49.75
253.258	43.2
253.475	60.05
253.693	67.71
253.911	71.72
254.128	75.49
254.346	62.66
254.563	49.19
254.781	38.91
254.998	31.82
255.216	-7.39
255.433	-30.81
255.651	-25.51
255.868	-7.23
256.086	-19.41
256.303	-4.33
256.521	41.43
256.738	14.68
256.956	-30.5
257.173	28.47
257.39	86.38
257.608	42.87
257.825	14.87
258.043	30.81
258.26	25.37
258.477	25.3
258.695	46.69
258.912	77.65
259.129	81.02
259.346	77.43
259.564	68.42
259.781	70.05
259.998	69.41
260.216	69.42
260.433	63.31
260.65	51.92
260.867	25.43
261.084	12.56
261.302	16.42
261.519	35.1
261.736	66.86
261.953	60.21
262.17	71.56
262.387	123.39
262.604	126.03
262.822	168.61
263.039	201.15
263.256	195.12
263.473	109.45
263.69	124.55
263.907	88.17
264.124	77.54
264.341	50.71
264.558	56.19
264.775	23.92
264.992	39.36
265.209	36.8
265.426	27.32
265.643	30.98
265.86	41.39
266.077	39.85
266.294	44.97
266.51	49.53
266.727	76.77
266.944	108.28
267.161	80.6
267.378	82.41
267.595	68.23
267.812	36.38
268.028	9.43
268.245	27.6
268.462	41.71
268.679	40.58
268.896	65.41
269.112	73.65
269.329	114.79
269.546	75.14
269.763	72.46
269.979	75.01
270.196	86.85
270.413	70
270.629	89.3
270.846	89.62
271.063	83.55
271.279	58.5
271.496	46.17
271.712	-47.31
271.929	-11.67
272.146	2.82
272.362	-19.2
272.579	-34.15
272.795	-6.5
273.012	0.25
273.228	2.5
273.445	26.08
273.661	74.61
273.878	77.86
274.094	86.15
274.311	60.98
274.527	41.58
274.744	45.66
274.96	44.82
275.177	31.35
275.393	43.36
275.609	64.5
275.826	43.7
276.042	58.68
276.259	66.25
276.475	62.85
276.691	55.9
276.908	69.64
277.124	71.53
277.34	81.11
277.557	66.79
277.773	72.55
277.989	84.49
278.205	86.75
278.422	45.7
278.638	76.17
278.854	88.31
279.07	68.9
279.286	37.38
279.503	58.63
279.719	71.43
279.935	70.3
280.151	100.43
280.367	121.89
280.583	92.09
280.799	85.19
281.016	88.06
281.232	110.42
281.448	123.32
281.664	107.26
281.88	149.35
282.096	108.48
282.312	83.47
282.528	79.62
282.744	91.88
282.96	90.49
283.176	91.82
283.392	80.73
283.608	78.57
283.824	80.74
284.04	78.92
284.256	78.57
284.471	81.46
284.687	95.89
284.903	77.93
285.119	84.55
285.335	80.58
285.551	74.64
285.767	38.09
285.982	33.04
286.198	-27.18
286.414	1.94
286.63	47.85
286.846	69.8
287.061	71.34
287.277	67.33
287.493	83.34
287.709	47.97
287.924	63.11
288.14	60.99
288.356	66.3
288.571	69.63
288.787	78.97
289.003	91.14
289.218	117.45
289.434	91.42
289.65	58.78
289.865	52.53
290.081	34.31
290.296	31.07
290.512	33.99
290.727	46.79
290.943	39.37
291.159	49.45
291.374	50.03
291.59	52.77
291.805	53.16
292.021	77.34
292.236	69.06
292.451	105.89
292.667	74.66
292.882	61.02
293.098	60.4
293.313	79.51
293.529	77.49
293.744	68.37
293.959	51.19
294.175	49.41
294.39	45.67
294.605	34.87
294.821	39.43
295.036	32.74
295.251	29.04
295.467	34.71
295.682	31.34
295.897	52.09
296.112	51.72
296.328	72.52
296.543	68.39
296.758	80.25
296.973	59.53
297.188	76.16
297.404	47.43
297.619	44.1
297.834	50.58
298.049	22.46
298.264	5.9
298.479	19.43
298.694	22.98
298.909	33.66
299.125	72.11
299.34	67.3
299.555	81.7
299.77	91.3
299.985	82.46
300.2	69.42
300.415	77.18
300.63	41.94
300.845	35.82
301.06	64.41
301.275	53.81
301.49	73.08
301.704	155.25
301.919	92.18
302.134	80.15
302.349	87.68
302.564	58.65
302.779	63.58
302.994	67.11
303.209	70.46
303.423	50.98
303.638	55.09
303.853	51.11
304.068	38.35
304.283	18.57
304.497	25.59
304.712	46.79
304.927	23.62
305.142	50.74
305.356	62.37
305.571	85.41
305.786	59.43
306	77.27
306.215	91.23
306.43	105.39
306.644	101.59
306.859	98.17
307.074	89.31
307.288	65.92
307.503	65.77
307.717	65.33
307.932	54.19
308.147	47.5
308.361	56.36
308.576	37.57
308.79	17.19
309.005	52.29
309.219	36.91
309.434	18.7
309.648	-10.21
309.863	-2.88
310.077	-50.09
310.292	-10.61
310.506	14.78
310.72	63.94
310.935	72.28
311.149	93.84
311.364	105.71
311.578	93.47
311.792	96.31
312.007	85.57
312.221	49.05
312.435	39.81
312.649	39.16
312.864	14.47
313.078	32.44
313.292	83.31
313.507	88.59
313.721	71.54
313.935	72.37
314.149	60.95
314.363	47.11
314.578	34.48
314.792	44.84
315.006	50.42
315.22	59.34
315.434	16.86
315.648	30.01
315.862	65.84
316.077	55.08
316.291	47.49
316.505	83.66
316.719	79.55
316.933	61.07
317.147	43.38
317.361	37.46
317.575	29.78
317.789	32.55
318.003	39.31
318.217	65.55
318.431	94.13
318.645	91.91
318.859	40.49
319.073	34.39
319.287	30.32
319.5	19.5
319.714	5.65
319.928	69.4
320.142	70.52
320.356	57.13
320.57	74.13
320.784	103.46
320.997	66.33
321.211	67.91
321.425	78.54
321.639	12.79
321.853	1.15
322.066	-5.81
322.28	-14.78
322.494	-22.53
322.707	-7.89
322.921	5.59
323.135	13.49
323.349	18.16
323.562	37.05
323.776	59.41
323.989	38.49
324.203	46.94
324.417	57.81
324.63	28.74
324.844	19.11
325.057	29.77
325.271	0.83
325.485	19.24
325.698	39.15
325.912	58.48
326.125	59.77
326.339	100.07
326.552	81.52
326.766	81.23
326.979	91.38
327.193	82.32
327.406	76.4
327.619	128.19
327.833	86.43
328.046	89.27
328.26	92.43
328.473	39
328.686	13.63
328.9	36.52
329.113	33.44
329.326	39.72
329.54	69.45
329.753	91.05
329.966	95.99
330.179	88.84
330.393	100.83
330.606	79.2
330.819	69.55
331.032	67.63
331.246	91.1
331.459	80.03
331.672	89.05
331.885	81.87
332.098	87.42
332.311	85.04
332.525	71.83
332.738	62.72
332.951	54.59
333.164	36.59
333.377	18
333.59	34.17
333.803	31.05
334.016	36.62
334.229	47.99
334.442	65.12
334.655	71.55
334.868	75.77
335.081	57.06
335.294	76.72
335.507	79.5
335.72	66.61
335.933	57.02
336.146	55.57
336.359	36.58
336.572	20.54
336.785	11.37
336.997	29.61
337.21	67.75
337.423	73.86
337.636	72.88
337.849	91.44
338.062	89.84
338.274	56.03
338.487	76.22
338.7	74.18
338.913	72.82
339.125	69.01
339.338	70.05
339.551	64.73
339.763	89.16
339.976	96.43
340.189	88.63
340.402	81.96
340.614	70.2
340.827	70.54
341.039	48.19
341.252	50.19
341.465	36.44
341.677	30.64
341.89	-16
342.102	13.94
342.315	-6.48
342.527	29.17
342.74	29.64
342.952	64.3
343.165	74.5
343.377	81.62
343.59	79.68
343.802	76.66
344.015	56.67
344.227	30.77
344.44	41.42
344.652	49.56
344.864	59.09
345.077	71.36
345.289	74.71
345.502	71.3
345.714	66.01
345.926	57.26
346.139	47.3
346.351	40.95
346.563	19.69
346.775	23.36
346.988	7.33
347.2	26.97
347.412	44.58
347.624	88.4
347.837	54.44
348.049	57.9
348.261	41.91
348.473	49.02
348.685	46.53
348.897	74.59
349.11	61.65
349.322	46.93
349.534	39.88
349.746	52.82
349.958	47.19
350.17	55.5
350.382	82.8
350.594	96.06
350.806	81.66
351.018	69.8
351.23	66.61
351.442	61.2
351.654	58.75
351.866	59.14
352.078	55.18
352.29	53.41
352.502	57.39
352.714	34.32
352.926	33.74
353.138	35.84
353.35	42.66
353.561	30.99
353.773	37.59
353.985	39.04
354.197	44.11
354.409	33.68
354.621	22.96
354.832	54.54
355.044	42.69
355.256	46.11
355.468	41.09
355.679	59.16
355.891	62.05
356.103	67.22
356.314	62.56
356.526	63.7
356.738	70.42
356.949	33.75
357.161	58.5
357.373	50.83
357.584	71.15
357.796	82.31
358.008	82.88
358.219	60.96
358.431	97.54
358.642	86.84
358.854	66.17
359.065	78.15
359.277	81.01
359.488	59.73
359.7	57.63
359.911	39.41
360.123	39.51
360.334	40.55
360.546	43.53
360.757	41.55
360.969	67.53
361.18	84.11
361.391	74.48
361.603	95.33
361.814	109.42
362.025	108.54
362.237	82.93
362.448	83.47
362.659	61.12
362.871	48.43
363.082	29.91
363.293	22.2
363.504	12.91
363.716	26.72
363.927	54.1
364.138	58.55
364.349	56.1
364.56	63.26
364.772	47.37
364.983	31.94
365.194	47.11
365.405	32.06
365.616	22.57
365.827	40.17
366.038	47.85
366.25	47.77
366.461	47.39
366.672	53.29
366.883	47.57
367.094	47.73
367.305	47.56
367.516	65.72
367.727	74.58
367.938	86.31
368.149	67.6
368.36	69.35
368.571	91.61
368.781	89.49
368.992	53.67
369.203	61.14
369.414	47.49
369.625	32.1
369.836	18.55
370.047	21.07
370.258	37.19
370.468	44.52
370.679	39.7
370.89	48.78
371.101	57.93
371.312	46.53
371.522	46
371.733	58.62
371.944	56.29
372.155	69.61
372.365	51.04
372.576	56.3
372.787	52.41
372.997	66.27
373.208	57.71
373.419	74.54
373.629	49.08
373.84	60.56
374.05	51.3
374.261	61.4
374.472	57.07
374.682	63.44
374.893	47.11
375.103	35.75
375.314	27.78
375.524	33.41
375.735	30.96
375.945	47.17
376.156	51.96
376.366	46.57
376.577	50.3
376.787	62.92
376.997	60.53
377.208	61.48
377.418	64.43
377.629	60.85
377.839	62.21
378.049	52.73
378.26	38.27
378.47	38.7
378.68	48.63
378.89	30.63
379.101	27.38
379.311	28.62
379.521	22.17
379.732	19.07
379.942	26.26
380.152	32.37
380.362	50.35
380.572	53.65
380.783	47.48
380.993	40.52
381.203	30.99
381.413	21.42
381.623	18.97
381.833	21.66
382.043	33.77
382.253	39.65
382.463	43.5
382.674	49.66
382.884	47.82
383.094	34.49
383.304	33.47
383.514	34.37
383.724	26.24
383.934	21.91
384.144	31.16
384.353	29
384.563	26.66
384.773	26.45
384.983	21.49
385.193	24.95
385.403	30.15
385.613	39.61
385.823	46.64
386.033	48.52
386.242	37.47
386.452	34.16
386.662	24.48
386.872	17.26
387.082	15.23
387.291	1.92
387.501	4.2
387.711	3.4
387.921	6.21
388.13	8.09
388.34	19.39
388.55	17.82
388.759	17.35
388.969	15.52
389.179	16.73
389.388	19.91
389.598	19.32
389.807	18.75
390.017	20.11
390.227	18.23
390.436	13.1
390.646	8.92
390.855	7.12
391.065	6.62
391.274	7.34
391.484	9.04
391.693	9.73
391.903	11.67
392.112	12.6
392.322	11.31
392.531	11.45
392.74	13.46
392.95	12.1
393.159	11.49
393.369	12.95
393.578	13.77
393.787	13.73
393.997	14
394.206	12.96
394.415	12.19
394.625	11.95
394.834	11.23
395.043	10.83
395.252	11.11
395.462	11.8
395.671	10.99
395.88	11.64
396.089	11.77
396.298	11.81
396.508	11.27
396.717	10.94
396.926	10.51
397.135	9.98
397.344	9.51
397.553	9.81
397.762	9.57
397.971	8.92
398.181	9.02
398.39	8.54
398.599	8.29
398.808	8.48
399.017	8.3
399.226	8.4
399.435	9.06
399.644	8.86
399.853	9.05
400.062	9.16
400.27	9
400.479	8.54
400.688	8.52
400.897	8.42
401.106	8.5
401.315	8.48
401.524	8.76
401.733	8.72
401.941	8.68
402.15	8.55
402.359	8.42
402.568	8.26
402.777	8.14
402.985	8.03
403.194	8.07
403.403	8.09
403.612	7.92
403.82	8.09
404.029	7.94
404.238	7.88
404.446	7.98
404.655	8.11
404.864	7.9
405.072	7.91
405.281	7.9
405.489	7.84
405.698	8
405.906	7.82
406.115	7.8
406.324	7.99
406.532	7.98
406.741	7.64
406.949	7.69
407.158	7.78
407.366	7.53
407.574	7.47
407.783	7.49
407.991	7.58
408.2	7.36
408.408	7.42
408.617	7.4
408.825	7.46
409.033	7.48
409.242	7.51
409.45	7.23
409.658	7.14
409.867	7.07
410.075	7
410.283	7.08
410.491	7.19
410.7	7.31
410.908	7.3
411.116	7.29
411.324	7.28
411.533	7.35
411.741	7.26
411.949	7.35
412.157	7.24
412.365	7.33
412.573	7.22
412.781	7.18
412.99	7.09
413.198	7.34
413.406	7.36
413.614	7.39
413.822	7.36
414.03	7.4
414.238	7.19
414.446	7.2
414.654	7.19
414.862	7.23
415.07	7.16
415.278	7.23
415.486	6.83
415.694	6.84
415.902	6.76
416.109	6.74
416.317	6.71
416.525	6.76
416.733	6.61
416.941	6.91
417.149	6.84
417.357	6.72
417.564	6.66
417.772	6.67
417.98	6.32
418.188	6.22
418.395	6.13
418.603	6.43
418.811	6.46
419.019	6.7
419.226	6.89
419.434	7.16
419.642	7.06
419.849	7.12
420.057	6.99
420.265	6.95
420.472	6.56
420.68	6.36
420.887	6.29
421.095	6.33
421.302	6.23
421.51	6.31
421.717	6.58
421.925	6.61
422.132	6.57
422.34	6.71
422.547	6.91
422.755	6.85
422.962	6.96
423.17	6.99
423.377	7.01
423.585	7.02
423.792	7
423.999	6.73
424.207	6.49
424.414	6.15
424.621	6.14
424.829	6.15
425.036	6.3
425.243	6.48
425.451	6.72
425.658	6.55
425.865	6.42
426.072	6.37
426.28	6.38
426.487	6.45
426.694	6.4
426.901	6.47
427.108	6.46
427.315	6.51
427.523	6.41
427.73	6.53
427.937	6.41
428.144	6.51
428.351	6.61
428.558	6.58
428.765	6.42
428.972	6.59
429.179	6.53
429.386	6.32
429.593	6.49
429.8	6.67
430.007	6.45
430.214	6.43
430.421	6.57
430.628	6.39
430.835	6.37
431.042	6.56
431.249	6.61
431.456	6.48
431.662	6.71
431.869	6.76
432.076	6.75
432.283	6.82
432.49	6.77
432.697	6.76
432.903	6.48
433.11	6.35
433.317	6.24
433.524	6.3
433.73	6.24
433.937	6.32
434.144	6.46
434.35	6.53
434.557	6.46
434.764	6.27
434.97	6.2
435.177	6.33
435.384	6.14
435.59	6.2
435.797	6.33
436.003	6.38
436.21	6.06
436.416	5.99
436.623	5.97
436.829	5.85
437.036	5.97
437.242	5.99
437.449	6.24
437.655	6.35
437.862	6.5
438.068	6.61
438.275	6.81
438.481	6.55
438.687	6.45
438.894	6.5
439.1	6.26
439.307	6.13
439.513	6.25
439.719	6.29
439.926	6.34
440.132	6.45
440.338	6.49
440.544	6.5
440.751	6.48
440.957	6.24
441.163	6.11
441.369	6.16
441.575	6.14
441.782	6.24
441.988	6.27
442.194	6.27
442.4	6.28
442.606	6.31
442.812	6.16
443.018	6.15
443.224	6.2
443.431	6.2
443.637	6.21
443.843	6.18
444.049	6.21
444.255	6.21
444.461	6.1
444.667	5.99
444.873	5.99
445.079	5.95
445.284	6.06
445.49	6.11
445.696	6.26
445.902	6.3
446.108	6.34
446.314	6.16
446.52	6.16
446.726	6.21
446.931	6.27
447.137	6.28
447.343	6.4
447.549	6.34
447.755	6.26
447.96	6.21
448.166	6.24
448.372	6.2
448.578	6.32
448.783	6.33
448.989	6.35
449.195	6.41
449.4	6.48
449.606	6.42
449.812	6.33
450.017	6.34
450.223	6.15
450.428	6.07
450.634	6.07
450.84	6.16
451.045	6.14
451.251	6.27
451.456	6.33
451.662	6.27
451.867	6.23
452.073	6.29
452.278	6.27
452.483	6.2
452.689	6.26
452.894	6.29
453.1	6.21
453.305	6.19
453.51	6.34
453.716	6.38
453.921	6.41
454.127	6.45
454.332	6.39
454.537	6.32
454.742	6.27
454.948	6.22
455.153	6.22
455.358	6.23
455.563	6.21
455.769	6.09
455.974	6.12
456.179	5.98
456.384	5.89
456.589	5.85
456.795	5.97
457	5.96
457.205	6.01
457.41	6.16
457.615	6.11
457.82	6.1
458.025	6.05
458.23	5.99
458.435	5.86
458.64	5.89
458.845	6.01
459.05	5.97
459.255	5.94
459.46	5.95
459.665	6.07
459.87	5.95
460.075	6.04
460.28	6.15
460.485	6.17
460.69	6.03
460.895	5.86
461.099	5.85
461.304	5.88
461.509	5.96
461.714	5.93
461.919	6.02
462.123	5.97
462.328	5.89
462.533	5.86
462.738	5.94
462.942	5.97
463.147	6.06
463.352	6.07
463.556	6.04
463.761	6.01
463.966	6
464.17	5.97
464.375	5.94
464.58	5.83
464.784	5.88
464.989	5.97
465.193	5.83
465.398	6.02
465.602	6.38
465.807	6.48
466.011	6.5
466.216	6.65
466.42	6.58
466.625	6.46
466.829	6.36
467.034	6.33
467.238	6.24
467.443	6.14
467.647	5.92
467.851	5.94
468.056	5.83
468.26	5.87
468.464	5.9
468.669	6.11
468.873	6.02
469.077	6.02
469.282	6.01
469.486	5.94
469.69	5.83
469.894	5.8
470.099	5.83
470.303	5.8
470.507	5.83
470.711	5.85
470.915	6.02
471.119	6.07
471.324	6.18
471.528	6.06
471.732	6.13
471.936	6.07
472.14	6.13
472.344	6.02
472.548	6.18
472.752	6.15
472.956	6.11
473.16	5.97
473.364	5.94
473.568	5.88
473.772	5.83
473.976	5.84
474.18	5.84
474.384	6
474.588	6.06
474.792	5.99
474.995	5.96
475.199	6.03
475.403	5.94
475.607	5.95
475.811	5.97
476.015	5.95
476.218	5.98
476.422	5.9
476.626	5.99
476.83	6.11
477.033	6.24
477.237	6.24
477.441	6.28
477.644	6.19
477.848	6.08
478.052	5.94
478.255	5.83
478.459	5.94
478.663	5.92
478.866	5.91
479.07	5.99
479.273	5.98
479.477	5.98
479.681	6.04
479.884	6.06
480.088	5.93
480.291	6.03
480.495	5.96
480.698	5.95
480.901	6.03
481.105	6.15
481.308	6.03
481.512	6.12
481.715	6.11
481.919	6.06
482.122	6.09
482.325	6.16
482.529	6.12
482.732	6.1
482.935	6.07
483.138	6.12
483.342	6.05
483.545	6.03
483.748	6
483.952	6.04
484.155	6
484.358	6
484.561	6.02
484.764	5.99
484.967	5.96
485.171	5.86
485.374	5.88
485.577	5.83
485.78	5.83
485.983	5.82
486.186	5.86
486.389	5.87
486.592	5.83
486.795	5.83
486.998	5.82
487.201	5.84
487.404	5.85
487.607	6.01
487.81	6
488.013	6.04
488.216	5.99
488.419	6.07
488.622	5.91
488.825	5.98
489.028	5.88
489.231	5.97
489.433	5.81
489.636	5.89
489.839	5.87
490.042	5.95
490.245	5.91
490.447	5.95
490.65	5.89
490.853	5.98
491.056	5.96
491.258	5.95
491.461	6
491.664	5.9
491.866	5.74
492.069	5.79
492.272	5.74
492.474	5.61
492.677	5.71
492.879	5.76
493.082	5.72
493.285	5.77
493.487	5.8
493.69	5.78
493.892	5.78
494.095	5.83
494.297	5.81
494.5	5.92
494.702	5.91
494.905	5.93
495.107	5.79
495.309	5.76
495.512	5.71
495.714	5.73
495.917	5.69
496.119	5.84
496.321	5.91
496.524	5.9
496.726	5.87
496.928	5.84
497.13	5.72
497.333	5.69
497.535	5.77
497.737	5.76
497.939	5.86
498.142	5.91
498.344	5.95
498.546	5.93
498.748	5.94
498.95	5.88
499.152	5.84
499.355	5.77
499.557	5.75
499.759	5.8
499.961	5.85
500.163	5.85
500.365	5.97
500.567	5.92
500.769	5.89
500.971	5.91
501.173	5.92
501.375	5.83
501.577	5.89
501.779	5.95
501.981	6.03
502.183	6.06
502.385	6.01
502.587	5.97
502.788	5.91
502.99	5.77
503.192	5.72
503.394	5.77
503.596	5.75
503.798	5.73
503.999	5.74
504.201	5.77
504.403	5.79
504.605	5.89
504.806	5.8
505.008	5.77
505.21	5.7
505.411	5.62
505.613	5.54
505.815	5.63
506.016	5.7
506.218	5.73
506.42	5.76
506.621	5.81
506.823	5.88
507.024	5.84
507.226	6.01
507.427	6
507.629	5.97
507.83	5.95
508.032	5.87
508.233	5.72
508.435	5.79
508.636	5.79
508.838	5.8
509.039	5.87
509.24	5.92
509.442	5.89
509.643	5.92
509.845	5.95
510.046	5.97
510.247	6.01
510.448	6.01
510.65	6
510.851	5.99
511.052	6
511.254	5.94
511.455	5.96
511.656	5.93
511.857	5.91
512.058	5.86
512.26	5.83
512.461	5.87
512.662	5.93
512.863	5.9
513.064	5.91
513.265	5.93
513.466	5.98
513.667	6
513.868	5.95
514.069	5.99
514.27	6.03
514.471	5.93
514.672	5.93
514.873	5.95
515.074	5.96
515.275	5.99
515.476	6
515.677	5.93
515.878	6.01
516.079	5.99
516.28	5.94
516.481	5.96
516.682	5.98
516.882	5.97
517.083	5.94
517.284	5.93
517.485	5.92
517.686	5.91
517.886	5.91
518.087	5.88
518.288	5.9
518.488	5.86
518.689	5.89
518.89	5.87
519.091	5.91
519.291	5.91
519.492	5.97
519.692	5.99
519.893	6.05
520.094	6.01
520.294	6.01
520.495	6.02
520.695	5.99
520.896	5.91
521.096	5.97
521.297	6.04
521.497	6.09
521.698	6.1
521.898	6.14
522.099	6.19
522.299	6.18
522.499	6.14
522.7	6.11
522.9	6.11
523.101	6.04
523.301	6.04
523.501	6
523.702	6.08
523.902	6.11
524.102	6.2
524.302	6.13
524.503	6.11
524.703	6.07
524.903	6.04
525.103	6.04
525.304	6.03
525.504	6.14
525.704	6.11
525.904	6.16
526.104	6.11
526.304	6.21
526.504	6.19
526.705	6.27
526.905	6.26
527.105	6.27
527.305	6.29
527.505	6.27
527.705	6.24
527.905	6.27
528.105	6.28
528.305	6.21
528.505	6.24
528.705	6.25
528.905	6.16
529.105	6.15
529.304	6.17
529.504	6.15
529.704	6.19
529.904	6.23
530.104	6.27
530.304	6.26
530.503	6.25
530.703	6.17
530.903	6.24
531.103	6.25
531.303	6.3
531.502	6.31
531.702	6.34
531.902	6.38
532.101	6.36
532.301	6.33
532.501	6.4
532.7	6.42
532.9	6.37
533.1	6.35
533.299	6.41
533.499	6.41
533.698	6.38
533.898	6.39
534.097	6.45
534.297	6.38
534.496	6.38
534.696	6.44
534.895	6.47
535.095	6.44
535.294	6.51
535.494	6.46
535.693	6.43
535.892	6.41
536.092	6.49
536.291	6.46
536.491	6.51
536.69	6.56
536.889	6.53
537.088	6.44
537.288	6.45
537.487	6.45
537.686	6.47
537.886	6.51
538.085	6.56
538.284	6.59
538.483	6.6
538.682	6.67
538.882	6.73
539.081	6.77
539.28	6.73
539.479	6.78
539.678	6.72
539.877	6.76
540.076	6.77
540.275	6.88
540.474	6.89
540.673	6.92
540.872	6.83
541.071	6.89
541.27	6.88
541.469	6.81
541.668	6.8
541.867	6.86
542.066	6.82
542.265	6.88
542.464	6.91
542.663	6.96
542.862	7.06
543.06	7.12
543.259	7.11
543.458	7.22
543.657	7.29
543.856	7.31
544.054	7.27
544.253	7.25
544.452	7.22
544.651	7.18
544.849	7.13
545.048	7.15
545.247	7.19
545.445	7.21
545.644	7.18
545.843	7.19
546.041	7.23
546.24	7.31
546.438	7.33
546.637	7.42
546.836	7.51
547.034	7.58
547.233	7.58
547.431	7.69
547.63	7.72
547.828	7.78
548.027	7.78
548.225	7.77
548.423	7.8
548.622	7.81
548.82	7.73
549.019	7.76
549.217	7.81
549.415	7.77
549.614	7.82
549.812	7.86
550.01	7.89
550.209	7.94
550.407	7.99
550.605	7.99
550.803	8.05
551.002	8.06
551.2	8.09
551.398	8.24
551.596	8.33
551.794	8.42
551.993	8.52
552.191	8.5
552.389	8.45
552.587	8.42
552.785	8.42
552.983	8.54
553.181	8.7
553.379	8.76
553.577	8.91
553.775	8.94
553.973	8.91
554.171	8.91
554.369	8.93
554.567	8.95
554.765	9.03
554.963	9.06
555.161	9.06
555.359	9.12
555.557	9.16
555.755	9.19
555.952	9.27
556.15	9.42
556.348	9.51
556.546	9.59
556.744	9.65
556.941	9.68
557.139	9.71
557.337	9.74
557.535	9.82
557.732	9.92
557.93	10
558.128	10.03
558.325	10.03
558.523	10.05
558.721	10.02
558.918	9.96
559.116	9.95
559.313	9.99
559.511	10.09
559.708	10.19
559.906	10.34
560.104	10.45
560.301	10.63
560.498	10.62
560.696	10.67
560.893	10.73
561.091	10.8
561.288	10.75
561.486	10.76
561.683	10.81
561.88	10.79
562.078	10.79
562.275	10.77
562.473	10.9
562.67	10.94
562.867	11
563.064	11.05
563.262	11.12
563.459	11.21
563.656	11.2
563.853	11.23
564.051	11.23
564.248	11.27
564.445	11.2
564.642	11.2
564.839	11.26
565.036	11.38
565.234	11.49
565.431	11.61
565.628	11.74
565.825	11.79
566.022	11.86
566.219	11.84
566.416	11.79
566.613	11.79
566.81	11.83
567.007	11.78
567.204	11.83
567.401	11.87
567.598	11.88
567.795	11.81
567.991	11.85
568.188	11.88
568.385	11.86
568.582	11.94
568.779	11.98
568.976	12.05
569.172	12.1
569.369	12.12
569.566	12.12
569.763	12.18
569.96	12.1
570.156	12.04
570.353	12.12
570.55	12.21
570.746	12.2
570.943	12.21
571.14	12.22
571.336	12.17
571.533	12.06
571.729	12.06
571.926	12.14
572.123	12.13
572.319	12.21
572.516	12.21
572.712	12.23
572.909	12.16
573.105	12.22
573.302	12.16
573.498	12.13
573.695	11.98
573.891	11.97
574.087	11.94
574.284	11.94
574.48	11.99
574.677	12.13
574.873	12.16
575.069	12.24
575.266	12.32
575.462	12.28
575.658	12.31
575.854	12.34
576.051	12.2
576.247	12.14
576.443	12.21
576.639	12.27
576.835	12.17
577.032	12.07
577.228	12.12
577.424	12.06
577.62	11.92
577.816	11.92
578.012	12.04
578.208	11.91
578.404	11.95
578.6	12.02
578.796	12.04
578.993	12.08
579.189	12.12
579.384	12.05
579.58	11.96
579.776	11.89
579.972	11.73
580.168	11.61
580.364	11.62
580.56	11.57
580.756	11.53
580.952	11.59
581.148	11.6
581.343	11.59
581.539	11.68
581.735	11.63
581.931	11.63
582.127	11.59
582.322	11.47
582.518	11.43
582.714	11.44
582.909	11.44
583.105	11.48
583.301	11.52
583.496	11.36
583.692	11.37
583.888	11.28
584.083	11.23
584.279	11.26
584.474	11.26
584.67	11.21
584.866	11.23
585.061	11.25
585.257	11.17
585.452	11.24
585.648	11.25
585.843	11.23
586.039	11.32
586.234	11.35
586.429	11.26
586.625	11.25
586.82	11.24
587.015	11.16
587.211	11.06
587.406	11.02
587.601	11.05
587.797	10.99
587.992	10.91
588.187	10.92
588.383	10.9
588.578	10.93
588.773	10.91
588.968	10.93
589.163	10.96
589.359	10.99
589.554	10.87
589.749	10.91
589.944	10.94
590.139	10.85
590.334	10.87
590.529	10.89
590.724	10.94
590.919	10.94
591.114	11.08
591.309	11.03
591.504	11
591.699	10.99
591.894	10.88
592.089	10.83
592.284	10.88
592.479	10.94
592.674	10.86
592.869	11.04
593.064	11.14
593.259	11.16
593.454	11.14
593.648	11.25
593.843	11.13
594.038	11.07
594.233	11.04
594.428	11.06
594.622	11.09
594.817	11.16
595.012	11.2
595.206	11.33
595.401	11.38
595.596	11.37
595.79	11.37
595.985	11.38
596.18	11.37
596.374	11.42
596.569	11.41
596.763	11.42
596.958	11.55
597.153	11.52
597.347	11.57
597.542	11.68
597.736	11.78
597.931	11.74
598.125	11.8
598.319	11.91
598.514	11.86
598.708	11.84
598.903	11.86
599.097	11.9
599.291	11.75
599.486	11.81
599.68	11.77
599.874	11.77
600.069	11.8
600.263	11.84
600.457	11.9
600.651	11.95
600.846	11.96
601.04	11.92
601.234	11.9
601.428	11.84
601.622	11.86
601.817	11.85
602.011	11.85
602.205	11.91
602.399	11.95
602.593	11.9
602.787	11.93
602.981	12.02
603.175	11.98
603.369	11.87
603.563	11.96
603.757	11.93
603.951	11.87
604.145	11.84
604.339	11.84
604.533	11.71
604.727	11.73
604.921	11.72
605.115	11.77
605.309	11.69
605.502	11.78
605.696	11.67
605.89	11.62
606.084	11.61
606.278	11.64
606.471	11.54
606.665	11.56
606.859	11.49
607.053	11.51
607.246	11.51
607.44	11.59
607.634	11.58
607.827	11.68
608.021	11.52
608.214	11.5
608.408	11.41
608.602	11.44
608.795	11.35
608.989	11.37
609.182	11.42
609.376	11.39
609.569	11.3
609.763	11.2
609.956	11.17
610.15	11.03
610.343	10.98
610.537	10.94
610.73	10.96
610.923	10.93
611.117	10.97
611.31	10.85
611.504	10.87
611.697	10.92
611.89	10.87
612.083	10.83
612.277	10.79
612.47	10.7
612.663	10.46
612.856	10.34
613.05	10.19
613.243	10.16
613.436	10.06
613.629	10.08
613.822	10.13
614.015	10.15
614.209	10.08
614.402	10.17
614.595	10.18
614.788	10.08
614.981	10.04
615.174	10.02
615.367	9.92
615.56	9.78
615.753	9.79
615.946	9.75
616.139	9.79
616.332	9.72
616.525	9.71
616.718	9.67
616.911	9.64
617.103	9.52
617.296	9.52
617.489	9.58
617.682	9.61
617.875	9.62
618.067	9.58
618.26	9.47
618.453	9.36
618.646	9.28
618.838	9.22
619.031	9.2
619.224	9.27
619.417	9.32
619.609	9.37
619.802	9.38
619.994	9.35
620.187	9.3
620.38	9.21
620.572	9.06
620.765	9.04
620.957	8.99
621.15	8.96
621.342	8.96
621.535	9.03
621.727	8.98
621.92	9.05
622.112	9
622.305	9.03
622.497	8.98
622.69	8.94
622.882	8.92
623.074	9.04
623.267	9
623.459	9.02
623.651	9.05
623.844	8.98
624.036	8.96
624.228	8.95
624.42	8.92
624.613	8.99
624.805	9.08
624.997	9.01
625.189	8.94
625.381	8.94
625.574	8.85
625.766	8.8
625.958	8.8
626.15	8.94
626.342	8.91
626.534	8.91
626.726	8.9
626.918	8.79
627.11	8.62
627.302	8.58
627.494	8.52
627.686	8.54
627.878	8.58
628.07	8.61
628.262	8.59
628.454	8.61
628.646	8.49
628.838	8.53
629.029	8.54
629.221	8.53
629.413	8.51
629.605	8.48
629.797	8.43
629.989	8.39
630.18	8.36
630.372	8.28
630.564	8.32
630.755	8.28
630.947	8.26
631.139	8.26
631.33	8.22
631.522	8.19
631.714	8.13
631.905	8.03
632.097	7.98
632.289	8.01
632.48	7.95
632.672	7.9
632.863	7.94
633.055	7.9
633.246	7.85
633.438	7.86
633.629	7.86
633.821	7.84
634.012	7.91
634.203	7.93
634.395	7.87
634.586	8.01
634.777	8.05
634.969	8.01
635.16	7.94
635.351	8.01
635.543	7.93
635.734	7.86
635.925	7.81
636.117	7.96
636.308	7.91
636.499	7.8
636.69	7.74
636.881	7.78
637.073	7.74
637.264	7.74
637.455	7.72
637.646	7.78
637.837	7.79
638.028	7.7
638.219	7.63
638.41	7.75
638.601	7.71
638.792	7.59
638.983	7.54
639.174	7.49
639.365	7.37
639.556	7.34
639.747	7.43
639.938	7.51
640.129	7.63
640.32	7.69
640.511	7.68
640.701	7.61
640.892	7.62
641.083	7.62
641.274	7.51
641.465	7.52
641.655	7.59
641.846	7.54
642.037	7.49
642.228	7.45
642.418	7.42
642.609	7.29
642.8	7.22
642.99	7.1
643.181	7.19
643.372	7.16
643.562	7.15
643.753	7.14
643.943	7.18
644.134	7.12
644.324	7.19
644.515	7.19
644.705	7.18
644.896	7.2
645.086	7.15
645.277	7.19
645.467	7.24
645.658	7.21
645.848	7.11
646.038	7.17
646.229	7.18
646.419	7.1
646.61	7.15
646.8	7.23
646.99	7.21
647.18	7.07
647.371	7.02
647.561	7
647.751	6.94
647.941	6.86
648.132	6.84
648.322	6.96
648.512	7
648.702	7.06
648.892	7.11
649.082	7.11
649.272	6.98
649.462	6.85
649.653	6.88
649.843	6.83
650.033	6.88
650.223	6.89
650.413	6.96
650.603	7.01
650.793	7.02
650.983	6.93
651.172	6.98
651.362	6.94
651.552	6.81
651.742	6.75
651.932	6.86
652.122	6.86
652.312	6.86
652.502	6.8
652.691	6.85
652.881	6.76
653.071	6.8
653.261	6.7
653.45	6.69
653.64	6.72
653.83	6.66
654.019	6.55
654.209	6.55
654.399	6.6
654.588	6.44
654.778	6.54
654.968	6.47
655.157	6.56
655.347	6.61
655.536	6.7
655.726	6.6
655.915	6.64
656.105	6.51
656.294	6.35
656.484	6.17
656.673	6.18
656.863	6.21
657.052	6.24
657.241	6.18
657.431	6.35
657.62	6.22
657.809	6.07
657.999	6.11
658.188	6.06
658.377	5.94
658.567	5.98
658.756	5.94
658.945	5.85
659.134	5.79
659.324	5.77
659.513	5.62
659.702	5.57
659.891	5.48
660.08	5.43
660.269	5.36
660.458	5.39
660.648	5.43
660.837	5.36
661.026	5.29
661.215	5.28
661.404	5.18
661.593	5.03
661.782	4.93
661.971	5.03
662.16	4.98
662.349	5.04
662.538	5.05
662.726	5.12
662.915	5.08
663.104	5.02
663.293	4.92
663.482	4.95
663.671	5.05
663.86	5.05
664.048	5.14
664.237	5.23
664.426	5.09
664.615	5.05
664.803	4.98
664.992	4.82
665.181	4.77
665.369	4.88
665.558	4.85
665.747	4.95
665.935	5.06
666.124	5.11
666.312	5.07
666.501	5.07
666.69	5.06
666.878	4.94
667.067	4.87
667.255	5.06
667.444	5.25
667.632	5.41
667.82	5.53
668.009	5.61
668.197	5.54
668.386	5.37
668.574	5.15
668.762	5.3
668.951	5.41
669.139	5.39
669.327	5.43
669.516	5.5
669.704	5.36
669.892	5.26
670.08	5.21
670.269	5.18
670.457	5.22
670.645	5.27
670.833	5.37
671.021	5.49
671.21	5.56
671.398	5.71
671.586	5.68
671.774	5.69
671.962	5.81
672.15	5.91
672.338	5.85
672.526	6
672.714	6
672.902	5.77
673.09	5.63
673.278	5.65
673.466	5.72
673.654	5.92
673.842	6.21
674.03	6.53
674.218	6.59
674.405	6.56
674.593	6.47
674.781	6.39
674.969	6.22
675.157	6.24
675.344	6.2
675.532	6.33
675.72	6.49
675.908	6.52
676.095	6.5
676.283	6.6
676.471	6.54
676.658	6.52
676.846	6.58
677.033	6.79
677.221	6.76
677.409	6.74
677.596	6.77
677.784	6.89
677.971	6.85
678.159	6.92
678.346	6.96
678.534	6.95
678.721	6.97
678.909	7.01
679.096	7.1
679.283	7.08
679.471	7.12
679.658	7.08
679.846	6.96
680.033	7.14
680.22	7.35
680.408	7.32
680.595	7.33
680.782	7.39
680.969	7.31
681.157	7.19
681.344	7.28
681.531	7.34
681.718	7.43
681.905	7.46
682.093	7.48
682.28	7.55
682.467	7.77
682.654	7.78
682.841	7.73
683.028	7.81
683.215	7.94
683.402	7.9
683.589	7.92
683.776	8.18
683.963	8.21
684.15	8.28
684.337	8.28
684.524	8.49
684.711	8.42
684.898	8.51
685.085	8.36
685.271	8.45
685.458	8.4
685.645	8.44
685.832	8.35
686.019	8.56
686.205	8.63
686.392	8.7
686.579	8.78
686.766	9.16
686.952	9.25
687.139	9.29
687.326	9.19
687.512	9.34
687.699	9.31
687.886	9.37
688.072	9.35
688.259	9.6
688.445	9.74
688.632	9.77
688.818	10.05
689.005	10.33
689.191	10.61
689.378	10.81
689.564	11.25
689.751	11.17
689.937	11.34
690.124	11.49
690.31	11.55
690.496	11.73
690.683	12.21
690.869	12.45
691.055	12.51
691.242	12.79
691.428	12.92
691.614	12.94
691.8	13.18
691.987	13.66
692.173	14.07
692.359	14.39
692.545	14.86
692.731	15.12
692.918	15.48
693.104	15.75
693.29	15.98
693.476	16.38
693.662	16.79
693.848	17.12
694.034	17.46
694.22	17.8
694.406	18.08
694.592	18.38
694.778	18.62
694.964	19.06
695.15	19.44
695.336	19.64
695.522	20.21
695.708	20.81
695.894	21.12
696.08	21.8
696.265	22.33
696.451	22.59
696.637	22.98
696.823	23.55
697.009	23.86
697.194	24.33
697.38	24.78
697.566	25.28
697.751	25.7
697.937	26.12
698.123	26.65
698.308	27.3
698.494	27.74
698.68	28.37
698.865	28.98
699.051	29.39
699.236	29.82
699.422	30.38
699.607	30.67
699.793	31.11
699.978	31.67
700.164	32.1
700.349	32.59
700.535	32.78
700.72	33.15
700.906	33.49
701.091	33.93
701.276	34.44
701.462	35.04
701.647	35.96
701.832	36.68
702.018	37.38
702.203	37.68
702.388	38.2
702.573	38.39
702.759	38.81
702.944	38.95
703.129	39.47
703.314	40.02
703.499	40.57
703.684	41.03
703.87	41.6
704.055	42.07
704.24	42.71
704.425	43.22
704.61	43.7
704.795	44.22
704.98	44.73
705.165	44.99
705.35	45.16
705.535	45.69
705.72	46.19
705.905	46.33
706.09	46.63
706.275	46.74
706.459	46.62
706.644	46.87
706.829	47.37
707.014	48.08
707.199	49
707.384	49.22
707.568	49.66
707.753	50.32
707.938	50.14
708.123	50.23
708.307	50.85
708.492	50.99
708.677	50.62
708.861	50.93
709.046	50.95
709.231	51.25
709.415	51.45
709.6	52.01
709.784	52.72
709.969	53.11
710.153	53.46
710.338	54
710.522	54.13
710.707	53.99
710.891	54.23
711.076	54.29
711.26	54.46
711.445	55.01
711.629	55.35
711.813	55.58
711.998	56.14
712.182	56.17
712.366	56.5
712.551	56.24
712.735	56.37
712.919	56.43
713.103	56.84
713.288	56.67
713.472	57.12
713.656	57.48
713.84	57.86
714.024	58.25
714.208	58.46
714.393	58.76
714.577	59.04
714.761	58.69
714.945	59.01
715.129	59.37
715.313	59.56
715.497	59.67
715.681	60.13
715.865	60.08
716.049	60.09
716.233	60.54
716.417	60.65
716.601	60.48
716.785	60.87
716.968	60.84
717.152	61.01
717.336	61.45
717.52	62.28
717.704	61.96
717.888	62.49
718.071	62.99
718.255	63.27
718.439	63.18
718.622	63.43
718.806	63.15
718.99	62.57
719.174	62.4
719.357	63.01
719.541	63.42
719.724	63.72
719.908	63.97
720.092	64.34
720.275	64.14
720.459	64.27
720.642	64.61
720.826	64.76
721.009	65.01
721.193	64.96
721.376	65.07
721.559	65.74
721.743	66.47
721.926	66.39
722.11	66.52
722.293	66.55
722.476	66.12
722.66	66.37
722.843	66.56
723.026	66.88
723.21	67.29
723.393	67.27
723.576	67.1
723.759	67.42
723.942	68.03
724.126	67.69
724.309	68.18
724.492	68.55
724.675	68.38
724.858	68.07
725.041	68.71
725.224	68.33
725.407	68.61
725.59	69.1
725.774	69.32
725.957	69.12
726.14	69.98
726.322	69.58
726.505	69.59
726.688	69.97
726.871	70.43
727.054	70.92
727.237	71.64
727.42	72.11
727.603	72.19
727.786	72.29
727.968	72.08
728.151	72.13
728.334	71.87
728.517	71.79
728.699	72.41
728.882	73.07
729.065	72.94
729.248	73.52
729.43	73.99
729.613	73.79
729.796	73.78
729.978	74.3
730.161	73.76
730.343	74.19
730.526	74.64
730.708	74.73
730.891	74.45
731.073	75.26
731.256	74.76
731.438	74.44
731.621	74.29
731.803	75.58
731.986	76.5
732.168	77.06
732.35	77.69
732.533	78.72
732.715	78.12
732.898	77.2
733.08	77.99
733.262	78.26
733.444	77.15
733.627	77.23
733.809	77.66
733.991	77.46
734.173	77.33
734.355	77.76
734.538	77.76
734.72	77.8
734.902	78.48
735.084	78.82
735.266	78.98
735.448	79.47
735.63	80.38
735.812	79.59
735.994	79.51
736.176	80.53
736.358	81.02
736.54	81.88
736.722	82
736.904	82.89
737.086	82.43
737.268	82.48
737.45	81.74
737.632	82.44
737.814	82.79
737.995	83.71
738.177	83.84
738.359	84.16
738.541	84.52
738.723	84.53
738.904	83.75
739.086	83.94
739.268	83.96
739.449	84.48
739.631	84.64
739.813	85.94
739.994	86.45
740.176	86.33
740.358	86.06
740.539	86.03
740.721	85.06
740.902	84
741.084	84.22
741.265	83.64
741.447	83.43
741.628	83.52
741.81	84.75
741.991	85.7
742.172	86.31
742.354	85.98
742.535	86.55
742.717	86.05
742.898	85.86
743.079	86.36
743.261	87.31
743.442	87.83
743.623	87.97
743.804	87.95
743.986	87.61
744.167	85.63
744.348	85.2
744.529	86.58
744.71	86.23
744.891	86.31
745.073	87.93
745.254	88.73
745.435	88.19
745.616	88.25
745.797	88.23
745.978	87.94
746.159	87.29
746.34	87.59
746.521	87.74
746.702	89.15
746.883	90.1
747.064	89.17
747.245	88.86
747.426	89.58
747.606	88.56
747.787	87.24
747.968	88.93
748.149	88.91
748.33	88.37
748.51	87.65
748.691	86.97
748.872	86.28
749.053	86.23
749.233	86.02
749.414	86.55
749.595	88.18
749.775	87.86
749.956	86.27
750.137	85.73
750.317	84.01
750.498	84.58
750.678	84.64
750.859	87.16
751.04	87.14
751.22	88.43
751.4	88.2
751.581	88.39
751.761	86.56
751.942	86.22
752.122	87.27
752.303	87.92
752.483	89.34
752.663	90.54
752.844	90.81
753.024	91
753.204	90.4
753.385	88.33
753.565	88.17
753.745	88.51
753.925	89.35
754.106	89.84
754.286	91.44
754.466	91.4
754.646	92
754.826	90.24
755.006	89.26
755.187	89.23
755.367	89.66
755.547	87.85
755.727	87.33
755.907	87.67
756.087	88.53
756.267	88.78
756.447	91.63
756.627	92.1
756.807	92.92
756.987	92.42
757.167	92.31
757.346	92.32
757.526	92.43
757.706	91.84
757.886	90.81
758.066	90.22
758.246	88.64
758.425	88.49
758.605	88.21
758.785	89.5
758.965	90
759.144	90.96
759.324	91.52
759.504	90.67
759.683	90.13
759.863	89
760.043	88.42
760.222	89.73
760.402	90.13
760.581	90.41
760.761	92.37
760.94	90.57
761.12	87.81
761.299	87.99
761.479	86.62
761.658	85.31
761.838	86.22
762.017	87.3
762.197	88.89
762.376	89.24
762.555	89.1
762.735	90.67
762.914	88.31
763.093	87.3
763.273	86.72
763.452	87.32
763.631	85.69
763.81	87.41
763.99	87.47
764.169	89.91
764.348	87.58
764.527	88.72
764.706	89.49
764.885	89.36
765.064	86.84
765.243	88.52
765.423	86.92
765.602	85.34
765.781	84.8
765.96	83.99
766.139	82.97
766.318	83.81
766.497	84.72
766.676	83.81
766.854	84.18
767.033	84.1
767.212	85.16
767.391	86.6
767.57	89.19
767.749	91.94
767.928	92.78
768.106	90.83
768.285	89
768.464	88.13
768.643	85.84
768.821	84.85
769	85.36
769.179	86.88
769.357	86.33
769.536	87.22
769.715	87.99
769.893	87.67
770.072	87.59
770.25	87.12
770.429	87.55
770.607	85.42
770.786	85.94
770.964	83.51
771.143	84.24
771.321	83.51
771.5	87.91
771.678	87.64
771.857	88.49
772.035	86.71
772.213	87.85
772.392	85.8
772.57	87.25
772.748	88.85
772.927	90.49
773.105	89.5
773.283	89.88
773.461	89.81
773.64	91.34
773.818	89.33
773.996	89.68
774.174	89.17
774.352	87.8
774.531	84.78
774.709	86
774.887	86.37
775.065	85.26
775.243	85.02
775.421	85
775.599	86.23
775.777	83.61
775.955	81.21
776.133	82.97
776.311	84.28
776.489	84.01
776.667	84.54
776.844	87.27
777.022	86.96
777.2	89.23
777.378	87.9
777.556	89.5
777.734	89.82
777.911	90.28
778.089	86.44
778.267	89.01
778.445	87.14
778.622	85.82
778.8	82.13
778.978	82.04
779.155	79.57
779.333	79.51
779.511	77.58
779.688	80.62
779.866	76.66
780.043	77.05
780.221	76.68
780.398	81.47
780.576	77.15
780.753	83.82
780.931	84.29
781.108	86.7
781.286	86.74
781.463	88.86
781.64	88.34
781.818	88.81
781.995	86.2
782.172	86
782.35	86.86
782.527	84.5
782.704	84.79
782.882	87.94
783.059	88.2
783.236	84.71
783.413	90.09
783.59	85.3
783.768	81.47
783.945	78.89
784.122	83.24
784.299	80.03
784.476	86.83
784.653	91.45
784.83	94.05
785.007	91.66
785.184	92.88
785.361	91.05
785.538	87.61
785.715	84.33
785.892	87.1
786.069	84.72
786.246	85.65
786.423	90.62
786.6	96.32
786.776	95
786.953	93.27
787.13	89.99
787.307	85.57
787.484	83.19
787.66	84.46
787.837	86.27
788.014	86.59
788.191	90.92
788.367	87.85
788.544	93.88
788.721	94.76
788.897	95.71
789.074	96.06
789.25	96.28
789.427	89.75
789.603	94.09
789.78	96.55
789.956	96.74
790.133	99.41
790.309	99.13
790.486	92.03
790.662	90.41
790.839	87.79
791.015	89.99
791.192	90.6
791.368	92.09
791.544	93.99
791.721	96.03
791.897	94.86
792.073	95.34
792.249	92.7
792.426	92.87
792.602	89.89
792.778	85.71
792.954	83.33
793.13	86.68
793.307	82.69
793.483	79.04
793.659	78.49
793.835	83.66
794.011	82.92
794.187	76.19
794.363	79.86
794.539	80.2
794.715	68.8
794.891	67.48
795.067	69.51
795.243	71.31
795.419	75.11
795.595	80.75
795.771	78.8
795.947	89.59
796.122	81.77
796.298	80.42
796.474	80.31
796.65	85.03
796.826	77.68
797.001	87.74
797.177	87.3
797.353	92.28
797.529	90.04
797.704	93.07
797.88	89.2
798.056	86.3
798.231	81.29
798.407	79.34
798.582	79.85
798.758	82.61
798.934	88.26
799.109	91.2
799.285	94.44
799.46	97.88
799.636	93.84
799.811	92.52
799.986	95.19
800.162	99.47
800.337	91.27
800.513	92.93
800.688	96.73
800.863	89.77
801.039	88.1
801.214	85.01
801.389	83.62
801.565	82.55
801.74	79.79
801.915	74.49
802.09	78.47
802.265	82.01
802.441	82.46
802.616	85.67
802.791	89.1
802.966	89.44
803.141	89.29
803.316	81.8
803.491	77.85
803.666	76.63
803.841	82.45
804.016	83.53
804.191	88.03
804.366	101.27
804.541	107.46
804.716	98.75
804.891	93.57
805.066	94.94
805.241	96.72
805.416	90.55
805.591	94.76
805.765	101.91
805.94	101.01
806.115	94.63
806.29	95
806.464	99.82
806.639	95.79
806.814	88
806.989	85.42
807.163	89.23
807.338	89.2
807.512	89.81
807.687	90.52
807.862	84.69
808.036	81.68
808.211	74.91
808.385	68.57
808.56	65.58
808.734	71.34
808.909	67.41
809.083	73.2
809.258	78.77
809.432	92.9
809.606	88.55
809.781	88.76
809.955	95.5
810.13	95.52
810.304	94.66
810.478	92.49
810.652	96.68
810.827	85.81
811.001	88.86
811.175	87.82
811.349	98.79
811.524	101.3
811.698	110.5
811.872	105.03
812.046	107.78
812.22	96.48
812.394	88.49
812.568	91.03
812.742	100.19
812.916	94.44
813.09	111.95
813.264	125.68
813.438	124.06
813.612	122.89
813.786	112.65
813.96	89.51
814.134	85.58
814.308	87.51
814.482	90.24
814.656	112.72
814.83	114.21
815.003	112.72
815.177	111.35
815.351	101.64
815.525	91.93
815.698	97.11
815.872	97.21
816.046	90.56
816.219	87.31
816.393	94.63
816.567	111.2
816.74	101.74
816.914	132.02
817.088	174.73
817.261	171.69
817.435	137.28
817.608	168.44
817.782	142.39
817.955	119.79
818.129	130.92
818.302	124.65
818.475	124.27
818.649	116.58
818.822	100.33
818.996	86.16
819.169	89.79
819.342	86.42
819.516	91.75
819.689	115.72
819.862	130.09
820.035	117.37
820.209	89.54
820.382	90.49
820.555	79.63
820.728	86.03
820.901	90.6
821.075	133.71
821.248	133.22
821.421	117.48
821.594	102.55
821.767	103.49
821.94	88.23
822.113	61.7
822.286	67.12
822.459	68.44
822.632	74.71
822.805	86.05
822.978	112.91
823.151	112.07
823.324	117.07
823.496	84.11
823.669	62.89
823.842	76.93
824.015	71.4
824.188	56.45
824.361	73.18
824.533	82.48
824.706	59.72
824.879	75.4
825.051	81.5
825.224	93.87
825.397	99.61
825.569	111.32
825.742	100.18
825.915	86.57
826.087	80.08
826.26	75.81
826.432	74.28
826.605	68.3
826.777	82.49
826.95	92.04
827.122	86.63
827.295	76.82
827.467	85.74
827.64	61.86
827.812	54.21
827.984	65.94
828.157	78.21
828.329	93.63
828.501	130.39
828.674	144.67
828.846	144.72
829.018	157.55
829.19	167.86
829.363	131.49
829.535	132.07
829.707	112.86
829.879	88.65
830.051	69.8
830.223	97.28
830.395	82.54
830.568	79.93
830.74	100.06
830.912	117.29
831.084	102.7
831.256	97.45
831.428	89.85
831.6	95.16
831.772	80.06
831.943	62.26
832.115	76.98
832.287	104.77
832.459	96.88
832.631	97.12
832.803	111.23
832.975	97.84
833.146	101.22
833.318	77.84
833.49	100.66
833.662	101.76
833.833	114.92
834.005	102.67
834.177	132.07
834.348	124.53
834.52	116.44
834.692	118.08
834.863	113.2
835.035	98.84
835.206	89.59
835.378	107.98
835.549	106.63
835.721	126.98
835.892	124.13
836.064	125.15
836.235	140.94
836.407	178.05
836.578	152.27
836.749	158.73
836.921	160.32
837.092	154.55
837.264	109.94
837.435	119.47
837.606	107.73
837.777	103.6
837.949	101.81
838.12	42.21
838.291	64.8
838.462	96.18
838.633	87.93
838.805	90.02
838.976	140
839.147	132.97
839.318	175.66
839.489	135.94
839.66	142.49
839.831	133.3
840.002	154.04
840.173	95.23
840.344	105.84
840.515	101.19
840.686	126.49
840.857	75.48
841.028	91.11
841.199	112.34
841.369	118.45
841.54	110.08
841.711	168.08
841.882	134.4
842.053	131.78
842.223	112.62
842.394	94.53
842.565	80.94
842.736	106.1
842.906	90.29
843.077	100.73
843.248	122.54
843.418	133.67
843.589	163.08
843.759	258.26
843.93	944.26
844.101	963.93
844.271	272.56
844.442	189.62
844.612	132.5
844.783	143.5
844.953	105.28
845.123	91.55
845.294	106.45
845.464	105.71
845.635	110.15
845.805	150.47
845.975	174.14
846.146	209.07
846.316	341.8
846.486	222.85
846.656	207.85
846.827	162.27
846.997	105.29
847.167	117.08
847.337	75.7
847.507	90.45
847.677	75.16
847.848	134.5
848.018	151.51
848.188	205.84
848.358	166.02
848.528	226.89
848.698	185.45
848.868	163.68
849.038	147.89
849.208	158.72
849.378	155.1
849.548	102.86
849.718	278.63
849.887	-133.59
850.057	1045.16
850.227	545.92
850.397	386.58
850.567	40.57
850.737	24.22
850.906	34.08
851.076	34.44
851.246	65.11
851.415	79.43
851.585	105.96
851.755	91.09
851.924	110.11
852.094	102.56
852.264	82.13
852.433	59.75
852.603	89.58
852.772	58.12
852.942	69.13
853.111	66.26
853.281	105.05
853.45	115.57
853.62	141.73
853.789	113.81
853.959	173.56
854.128	-61.73
854.297	1.24
854.467	120.53
854.636	63.16
854.805	184.98
854.975	81.51
855.144	77.13
855.313	86.94
855.482	170.75
855.652	107.06
855.821	104.16
855.99	153.72
856.159	458.77
856.328	129.59
856.497	222.42
856.667	234.66
856.836	195.17
857.005	149.13
857.174	167.21
857.343	141.81
857.512	103.98
857.681	112.49
857.85	81.94
858.019	8.46
858.188	46.22
858.356	36.89
858.525	36.74
858.694	75.61
858.863	125.41
859.032	30.57
859.201	44.69
859.369	65.77
859.538	57.76
859.707	23.15
859.876	69.18
860.044	72.64
860.213	85.89
860.382	115.79
860.55	123.97
860.719	129.35
860.888	146.24
861.056	173.49
861.225	124.16
861.393	169.67
861.562	220.28
861.73	202.82
861.899	159.27
862.067	316.82
862.236	203.35
862.404	72.39
862.572	-10.37
862.741	-260.6
862.909	-11.74
863.078	50.3
863.246	63.92
863.414	131.1
863.582	89.51
863.751	127.4
863.919	80.56
864.087	102.92
864.255	25.25
864.424	62.51
864.592	42.88
864.76	92.71
864.928	109.23
865.096	150.22
865.264	147.24
865.432	204.52
865.6	267.82
865.768	147.95
865.936	115.41
866.104	144.55
866.272	117.31
866.44	69.74
866.608	52.42
866.776	82.51
866.944	67.52
867.112	57.54
867.28	38.87
867.448	74.82
867.615	84.46
867.783	91.24
867.951	32.49
868.119	101.3
868.286	161.94
868.454	151.03
868.622	297.37
868.789	880.96
868.957	-2047.06
869.125	-1255.52
869.292	1120.38
869.46	-432.93
869.627	294.86
869.795	-16.73
869.963	31.97
870.13	81.65
870.298	88.6
870.465	88.63
870.632	87.68
870.8	145.48
870.967	193.75
871.135	138.33
871.302	-374.76
871.469	238.96
871.637	67.77
871.804	27.5
871.971	33.89
872.139	86.58
872.306	181.84
872.473	1411.06
872.64	175.27
872.807	100.55
872.975	37.57
873.142	29.5
873.309	15.64
873.476	59.75
873.643	47.3
873.81	85.69
873.977	70.47
874.144	136.77
874.311	211.71
874.478	221.59
874.645	30.18
874.812	443.6
874.979	85.78
875.146	16.81
875.313	-12.63
875.48	16.52
875.647	366.16
875.813	-972.15
875.98	190.56
876.147	-2.87
876.314	62.05
876.481	-8.24
876.647	37.98
876.814	62.91
876.981	203.47
877.147	261.32
877.314	208.22
877.481	321.54
877.647	408.26
877.814	379.97
877.98	117.25
878.147	-325.8
878.314	-242.53
878.48	791.9
878.647	285.83
878.813	1476.26
878.979	151.42
879.146	102.77
879.312	107.84
879.479	172.4
879.645	142.37
879.811	143.65
879.978	183.3
880.144	338.07
880.31	635.73
880.477	-902.01
880.643	-590.27
880.809	-1960.98
880.975	192.96
881.142	-236.97
881.308	-375.15
881.474	14.48
881.64	25.99
881.806	12.14
881.972	83.57
882.138	108.93
882.304	86.14
882.47	57.55
882.636	81.04
882.802	58.04
882.968	46.49
883.134	40.47
883.3	76.01
883.466	87.18
883.632	128.16
883.798	119.24
883.964	102.42
884.129	109.09
884.295	122.32
884.461	-244.9
884.627	789.59
884.793	62.15
884.958	-9.61
885.124	784.16
885.29	-175.33
885.455	92.48
885.621	36.84
885.787	19.76
885.952	39.74
886.118	130.64
886.283	96.16
886.449	259.5
886.614	145.98
886.78	137.64
886.945	107.3
887.111	53.04
887.276	11.36
887.442	53.4
887.607	31.88
887.773	45.92
887.938	78.14
888.103	203.61
888.269	127.52
888.434	-2541.18
888.599	41.68
888.764	1840.78
888.93	142.97
889.095	127.92
889.26	148.59
889.425	184.2
889.59	128.5
889.756	156.52
889.921	95.42
890.086	118.91
890.251	155.26
890.416	149.54
890.581	108.65
890.746	304.86
890.911	277.42
891.076	529.85
891.241	249.4
891.406	39600
891.571	622.03
891.736	-41.46
891.901	76.21
892.065	-57.44
892.23	-142.44
892.395	-17.8
892.56	80.54
892.725	269.87
892.889	188.61
893.054	103.31
893.219	-897.84
893.384	-170.19
893.548	-393.66
893.713	-277.69
893.878	-483.77
