Data from Ofav_SP_Phys_0DW46_Reflection_2.txt Node
Date: Thu Aug 05 17:45:36 EDT 2021
User: Adam
Spectrometer: FLMT01687
Trigger mode: 0
Integration Time (sec): 8.000000E-1
Scans to average: 2
Electric dark correction enabled: true
Nonlinearity correction enabled: false
Boxcar width: 2
XAxis mode: Wavelengths
Number of Pixels in Spectrum: 3648
>>>>>Begin Spectral Data<<<<<
179.494	374.54
179.716	408.12
179.937	309.35
180.158	348.82
180.38	798.86
180.601	-124.27
180.823	117.14
181.044	77.88
181.265	64.71
181.486	68.19
181.708	-16.78
181.929	55.09
182.15	234.69
182.372	65.51
182.593	21.86
182.814	-163.72
183.035	-142.3
183.257	-555.52
183.478	736.61
183.699	-532.83
183.92	-65.75
184.141	16.59
184.363	51.35
184.584	11
184.805	30
185.026	64.28
185.247	67.87
185.468	76.36
185.689	93.12
185.91	83.6
186.132	45.04
186.353	70.95
186.574	3.81
186.795	-4.45
187.016	15.24
187.237	57.16
187.458	-86.58
187.679	31.74
187.9	7.47
188.121	-42.1
188.342	-62.84
188.563	51.24
188.784	50.98
189.005	67.13
189.226	106.46
189.447	77.76
189.667	67.51
189.888	267.46
190.109	205.71
190.33	146.32
190.551	131.44
190.772	106.91
190.993	54.67
191.214	30.66
191.434	30.78
191.655	26.78
191.876	45.31
192.097	40.04
192.318	67.1
192.538	64.41
192.759	118.65
192.98	87.09
193.201	302.32
193.421	95.34
193.642	108.27
193.863	56.2
194.083	48.08
194.304	39.87
194.525	51.79
194.745	23.02
194.966	41.24
195.187	44.53
195.407	38.99
195.628	50.81
195.848	79.12
196.069	58.09
196.29	65.05
196.51	93.44
196.731	67.43
196.951	72.38
197.172	76.36
197.392	89.07
197.613	52.72
197.833	76.67
198.054	64.06
198.274	53.18
198.495	41.71
198.715	81.58
198.936	71.94
199.156	68.06
199.377	78.72
199.597	83.01
199.817	68.3
200.038	57.67
200.258	70.78
200.479	62.86
200.699	57.66
200.919	59.27
201.14	52.37
201.36	35.75
201.58	53.73
201.801	-19.12
202.021	-30.42
202.241	6.6
202.461	-21.36
202.682	-39.7
202.902	-82.75
203.122	-91.49
203.342	56.69
203.563	45.95
203.783	88.96
204.003	84.07
204.223	52.53
204.443	4.87
204.663	27.85
204.884	14.19
205.104	0.02
205.324	39.92
205.544	41.95
205.764	41.89
205.984	40.33
206.204	22.83
206.424	27.07
206.644	40.21
206.864	39.76
207.084	35.54
207.304	105.82
207.525	108.81
207.745	90.99
207.964	49.18
208.184	84.5
208.404	-9.22
208.624	-27.05
208.844	1.05
209.064	42.97
209.284	36.42
209.504	75.86
209.724	64.6
209.944	45.23
210.164	54.62
210.384	60.1
210.604	53.26
210.823	64.24
211.043	54.2
211.263	35.28
211.483	22.45
211.703	40.82
211.922	68.75
212.142	86.39
212.362	51.93
212.582	71.33
212.801	29.49
213.021	4.95
213.241	1.61
213.461	21.14
213.68	29.28
213.9	7.72
214.12	7.27
214.339	-4.06
214.559	21.71
214.779	4.97
214.998	27.52
215.218	43.2
215.438	106.6
215.657	137.52
215.877	199.95
216.096	142.36
216.316	122.11
216.535	38.94
216.755	-0.63
216.974	-96.83
217.194	45.26
217.413	36.16
217.633	38.83
217.852	48.34
218.072	50.06
218.291	51.9
218.511	55.69
218.73	40.08
218.95	25.18
219.169	-20
219.389	21.33
219.608	-25.63
219.827	27.65
220.047	19.93
220.266	32.45
220.485	24.9
220.705	59.14
220.924	45.27
221.143	46.67
221.363	38.29
221.582	6.68
221.801	-12.86
222.021	37.01
222.24	49.78
222.459	104.98
222.678	129.9
222.897	113.49
223.117	83.95
223.336	59.52
223.555	29.44
223.774	-27.63
223.993	-37.19
224.213	-11.04
224.432	-1.73
224.651	44.21
224.87	54.22
225.089	67.1
225.308	67.64
225.527	55.75
225.746	20.7
225.965	15.35
226.184	16.17
226.404	43.79
226.623	51.23
226.842	62.43
227.061	67.34
227.28	80.8
227.499	82.39
227.718	58.28
227.936	61.87
228.155	59.98
228.374	58.41
228.593	51.99
228.812	56.62
229.031	51.15
229.25	44.92
229.469	43.28
229.688	40.64
229.907	36.19
230.125	20.72
230.344	23.63
230.563	-5.75
230.782	-55.96
231.001	-86.37
231.22	1.13
231.438	6.75
231.657	45.53
231.876	29.93
232.095	59.77
232.313	43.61
232.532	44.88
232.751	19.78
232.969	46.8
233.188	45.48
233.407	48.84
233.625	57.05
233.844	41.4
234.063	42.05
234.281	28.51
234.5	22.39
234.719	0.78
234.937	21.04
235.156	4.75
235.374	24.71
235.593	34.67
235.811	18.73
236.03	36.86
236.249	36.07
236.467	21.85
236.686	3.65
236.904	30.88
237.123	-10.4
237.341	24.21
237.559	40.6
237.778	37.6
237.996	33.26
238.215	63.15
238.433	77.79
238.652	61.93
238.87	56.02
239.088	44.08
239.307	25.25
239.525	5.46
239.743	13.01
239.962	24.41
240.18	31.52
240.398	50.31
240.617	58.43
240.835	84.1
241.053	71.5
241.271	59.36
241.49	36.4
241.708	21.68
241.926	19.34
242.144	22
242.363	69.68
242.581	144.99
242.799	112.04
243.017	51.18
243.235	4.4
243.453	18.51
243.672	21.12
243.89	53.87
244.108	93.17
244.326	63.4
244.544	42.17
244.762	14.76
244.98	11.99
245.198	3.03
245.416	47.46
245.634	23.82
245.852	12.06
246.07	5.44
246.288	-4.84
246.506	-41.29
246.724	15.53
246.942	20.05
247.16	20.15
247.378	-1.9
247.596	-13.74
247.814	-40.31
248.032	-26.34
248.25	-42.26
248.468	-20.12
248.685	-0.19
248.903	27.56
249.121	30.89
249.339	56.31
249.557	49.42
249.775	28.63
249.992	-6.46
250.21	1.26
250.428	-12.86
250.646	-7.09
250.863	11.33
251.081	25.05
251.299	27.9
251.517	58.51
251.734	73.3
251.952	45.21
252.17	54.36
252.387	50.75
252.605	48.48
252.823	57.35
253.04	58.57
253.258	46.73
253.475	55.24
253.693	43.96
253.911	49.05
254.128	54.9
254.346	62.83
254.563	54.26
254.781	51.63
254.998	35.84
255.216	13.89
255.433	-0.28
255.651	-39.1
255.868	-104.01
256.086	-107.12
256.303	-59.33
256.521	-106.17
256.738	-92.37
256.956	-26.42
257.173	70.43
257.39	113.92
257.608	99.53
257.825	63
258.043	44.17
258.26	21.16
258.477	7.51
258.695	31.14
258.912	44.86
259.129	50.97
259.346	50.61
259.564	53.62
259.781	54.38
259.998	43.42
260.216	40.32
260.433	49.59
260.65	23.87
260.867	-9.36
261.084	3.42
261.302	13.75
261.519	12.76
261.736	41.91
261.953	31.51
262.17	37.73
262.387	101.12
262.604	94.74
262.822	116.86
263.039	174.31
263.256	154.44
263.473	91.94
263.69	104.6
263.907	71.94
264.124	75.44
264.341	40.95
264.558	23.72
264.775	-11.81
264.992	-2.94
265.209	-4.46
265.426	-0.22
265.643	7.17
265.86	13.62
266.077	30.71
266.294	10.18
266.51	1.26
266.727	11.9
266.944	34.96
267.161	5.66
267.378	8.24
267.595	-1.49
267.812	-27.32
268.028	-44.51
268.245	-26.91
268.462	-24.55
268.679	-6.62
268.896	6.71
269.112	32.1
269.329	82.51
269.546	81.13
269.763	64.49
269.979	69.5
270.196	61.85
270.413	35.97
270.629	8
270.846	6.01
271.063	17.09
271.279	21.71
271.496	22.61
271.712	-27.43
271.929	-49.09
272.146	-38.99
272.362	-72.53
272.579	-69.32
272.795	-51.2
273.012	-13.57
273.228	-25.28
273.445	-16.48
273.661	29.68
273.878	40.8
274.094	31.1
274.311	23.95
274.527	24.66
274.744	12.1
274.96	17.74
275.177	33.23
275.393	56.5
275.609	47.4
275.826	46.08
276.042	47.63
276.259	44.19
276.475	22.84
276.691	25.6
276.908	27.51
277.124	35.57
277.34	22.64
277.557	9.56
277.773	18.47
277.989	1.23
278.205	3.75
278.422	26.91
278.638	71.36
278.854	57.2
279.07	51.36
279.286	28.05
279.503	30.49
279.719	-20
279.935	-1.3
280.151	26.87
280.367	41.52
280.583	41.57
280.799	59.01
281.016	45.82
281.232	57.11
281.448	59.59
281.664	38.27
281.88	10.91
282.096	27.63
282.312	13.49
282.528	4.12
282.744	26.87
282.96	45.35
283.176	47.27
283.392	50.76
283.608	53.16
283.824	37.92
284.04	37.92
284.256	26.35
284.471	18
284.687	12.4
284.903	24.52
285.119	27.88
285.335	33.68
285.551	41.37
285.767	49.74
285.982	51.65
286.198	49.32
286.414	12.07
286.63	4.78
286.846	-3.41
287.061	7.6
287.277	17.68
287.493	58.08
287.709	52.79
287.924	74.77
288.14	69.76
288.356	58.06
288.571	38.65
288.787	39.82
289.003	5.63
289.218	-15.51
289.434	9.27
289.65	36.46
289.865	46.46
290.081	36.99
290.296	35.6
290.512	20.72
290.727	24.72
290.943	9.53
291.159	12.96
291.374	28.87
291.59	25.86
291.805	17.74
292.021	45.54
292.236	51.82
292.451	47.87
292.667	94.24
292.882	57.82
293.098	16.3
293.313	14.02
293.529	24.99
293.744	16.13
293.959	23.79
294.175	41.16
294.39	37.94
294.605	22.37
294.821	19.63
295.036	15.26
295.251	13.71
295.467	19.8
295.682	22.87
295.897	28.34
296.112	25.23
296.328	39.82
296.543	44.74
296.758	29.13
296.973	29.12
297.188	35.53
297.404	27.09
297.619	28.94
297.834	34.21
298.049	-3.83
298.264	-19.84
298.479	-47.2
298.694	-68.56
298.909	-34.2
299.125	31.64
299.34	49.31
299.555	42.43
299.77	63.23
299.985	54.76
300.2	49.21
300.415	21.89
300.63	26.76
300.845	1.32
301.06	21.8
301.275	11.65
301.49	30.8
301.704	37.5
301.919	46.81
302.134	21.19
302.349	15.32
302.564	9.91
302.779	11.04
302.994	15.23
303.209	28.47
303.423	21.03
303.638	15.16
303.853	30.04
304.068	21.38
304.283	30.3
304.497	35.16
304.712	63.28
304.927	45.86
305.142	42.54
305.356	37.5
305.571	29.38
305.786	31.99
306	40.72
306.215	60.64
306.43	63.07
306.644	63.86
306.859	57.47
307.074	64.25
307.288	37.25
307.503	42.31
307.717	57.01
307.932	54.38
308.147	47.87
308.361	43.1
308.576	22.19
308.79	9.37
309.005	25.26
309.219	-3.93
309.434	-28.32
309.648	-38.07
309.863	-41.76
310.077	-154.67
310.292	-69.1
310.506	-18.97
310.72	3.41
310.935	17.66
311.149	60.38
311.364	48.42
311.578	50.81
311.792	71.57
312.007	70.17
312.221	56.41
312.435	57.35
312.649	52.15
312.864	-27.75
313.078	-19.45
313.292	8.04
313.507	8.97
313.721	14.84
313.935	51.05
314.149	35.08
314.363	10.01
314.578	16.41
314.792	-5.45
315.006	-21.73
315.22	-14.93
315.434	-31.3
315.648	-89.53
315.862	-91.3
316.077	-45.93
316.291	-36.05
316.505	-6.43
316.719	7.52
316.933	12.1
317.147	-0.7
317.361	-0.33
317.575	-14.04
317.789	-15.48
318.003	-48.62
318.217	4
318.431	21.44
318.645	28.53
318.859	15.87
319.073	32.87
319.287	22.77
319.5	24.51
319.714	36.05
319.928	65.09
320.142	62.15
320.356	54.45
320.57	71.38
320.784	76.49
320.997	32.55
321.211	52.42
321.425	24.43
321.639	1.81
321.853	13.14
322.066	19.88
322.28	1.71
322.494	18.45
322.707	22.5
322.921	17.84
323.135	13.64
323.349	22.27
323.562	28.46
323.776	44.45
323.989	42.56
324.203	50.25
324.417	69.96
324.63	48.32
324.844	25.23
325.057	40.55
325.271	34.07
325.485	14.63
325.698	30.68
325.912	33.57
326.125	29.31
326.339	32.61
326.552	43.51
326.766	28.95
326.979	41.8
327.193	31.28
327.406	52.55
327.619	54.06
327.833	39.77
328.046	36.49
328.26	39.46
328.473	-32.36
328.686	-18.58
328.9	2.58
329.113	-2.57
329.326	0.36
329.54	23.96
329.753	10.32
329.966	26.18
330.179	24.86
330.393	38.13
330.606	31.83
330.819	36.46
331.032	27.18
331.246	74.91
331.459	40.87
331.672	52.91
331.885	52.74
332.098	58.72
332.311	23.35
332.525	20.78
332.738	5.75
332.951	-4.44
333.164	-6.58
333.377	17.66
333.59	42.02
333.803	52.62
334.016	54.22
334.229	47.24
334.442	40.52
334.655	23.73
334.868	33.58
335.081	28.99
335.294	34.69
335.507	21.41
335.72	35.16
335.933	33.41
336.146	30.11
336.359	20.89
336.572	28.53
336.785	13.43
336.997	14.82
337.21	41.73
337.423	48.96
337.636	40.15
337.849	47.07
338.062	26.2
338.274	-11.07
338.487	-2.74
338.7	1.38
338.913	15.51
339.125	35.53
339.338	41.47
339.551	23.38
339.763	50.06
339.976	43.58
340.189	45.42
340.402	36.25
340.614	50.99
340.827	47.25
341.039	35.28
341.252	18.74
341.465	30.76
341.677	20.83
341.89	2.65
342.102	11.33
342.315	1.69
342.527	2.57
342.74	2.53
342.952	-5.45
343.165	-16.17
343.377	4.34
343.59	-31.67
343.802	-2.56
344.015	5.72
344.227	6.2
344.44	19.46
344.652	26.29
344.864	22.37
345.077	24.52
345.289	21.36
345.502	15.44
345.714	23.21
345.926	27.91
346.139	26.87
346.351	27.81
346.563	19.85
346.775	18.01
346.988	-15.56
347.2	-5.32
347.412	-0.31
347.624	27.99
347.837	35.61
348.049	46.94
348.261	39.48
348.473	47
348.685	62
348.897	84.67
349.11	88.68
349.322	70.85
349.534	53.74
349.746	20.77
349.958	1.12
350.17	6.93
350.382	21.43
350.594	19.95
350.806	36.29
351.018	41.98
351.23	36.78
351.442	27.9
351.654	22.04
351.866	14.27
352.078	-2.75
352.29	-0.71
352.502	14.57
352.714	0.74
352.926	14.89
353.138	12.38
353.35	24.43
353.561	16.99
353.773	20.79
353.985	20.73
354.197	33.76
354.409	19.93
354.621	29.28
354.832	43.39
355.044	28.01
355.256	36.57
355.468	43.55
355.679	48.16
355.891	57.73
356.103	54.36
356.314	56.66
356.526	47.62
356.738	39.63
356.949	-15.7
357.161	19.39
357.373	10.06
357.584	18.08
357.796	13.24
358.008	27.87
358.219	-6.16
358.431	5.19
358.642	20.04
358.854	37.01
359.065	52.06
359.277	51.93
359.488	41.58
359.7	35.06
359.911	18.18
360.123	20.93
360.334	25.02
360.546	19.92
360.757	20.22
360.969	19.24
361.18	8.1
361.391	2.6
361.603	25.24
361.814	23.77
362.025	52.88
362.237	46.78
362.448	52.52
362.659	59.33
362.871	49.36
363.082	24.53
363.293	36.76
363.504	11
363.716	8.78
363.927	33.53
364.138	42.97
364.349	20.93
364.56	41.56
364.772	25.63
364.983	15.59
365.194	23.33
365.405	25.85
365.616	14.59
365.827	23.94
366.038	35.79
366.25	28.62
366.461	31.82
366.672	32.09
366.883	32.33
367.094	25.66
367.305	35.79
367.516	44.81
367.727	51.23
367.938	51.32
368.149	36.48
368.36	43.43
368.571	22.05
368.781	27.73
368.992	33.41
369.203	44.64
369.414	25.15
369.625	34.09
369.836	5.72
370.047	-2.28
370.258	-11.36
370.468	-3.8
370.679	0.89
370.89	6.25
371.101	27.62
371.312	46.97
371.522	46.01
371.733	54.61
371.944	58.37
372.155	43.32
372.365	17.07
372.576	20.29
372.787	6.8
372.997	17.42
373.208	22.22
373.419	42.17
373.629	22.97
373.84	35.91
374.05	31.04
374.261	22.76
374.472	14.81
374.682	19.74
374.893	28.08
375.103	16.92
375.314	17.76
375.524	33.9
375.735	29.66
375.945	28.8
376.156	29.46
376.366	34.79
376.577	30.34
376.787	28.14
376.997	31.79
377.208	49.42
377.418	43.81
377.629	36.65
377.839	43.62
378.049	31.07
378.26	6.71
378.47	14.17
378.68	33.62
378.89	19.27
379.101	20.45
379.311	37.09
379.521	26.51
379.732	19.33
379.942	28.53
380.152	31.41
380.362	37.07
380.572	33.36
380.783	26.86
380.993	22.71
381.203	26.73
381.413	23.17
381.623	34.55
381.833	38.31
382.043	47.01
382.253	40.74
382.463	41.27
382.674	31.1
382.884	29.87
383.094	22.13
383.304	17.94
383.514	20.48
383.724	21.24
383.934	15.22
384.144	16.91
384.353	22.04
384.563	17.58
384.773	24.1
384.983	18.18
385.193	19.5
385.403	20.76
385.613	24.15
385.823	17.56
386.033	19.94
386.242	21.74
386.452	21.21
386.662	21.85
386.872	22.36
387.082	23.32
387.291	14.62
387.501	13.01
387.711	8.04
387.921	5.68
388.13	6.12
388.34	7.59
388.55	3.24
388.759	0.65
388.969	2.55
389.179	5.04
389.388	9.5
389.598	12.77
389.807	17.33
390.017	19
390.227	16.49
390.436	15.17
390.646	13.39
390.855	11.78
391.065	10.37
391.274	12.7
391.484	14.11
391.693	13.99
391.903	12.51
392.112	13.78
392.322	11.38
392.531	11.01
392.74	11.83
392.95	12.51
393.159	11.52
393.369	12.22
393.578	12.03
393.787	12.56
393.997	12.96
394.206	12.9
394.415	13
394.625	12.96
394.834	12.86
395.043	12.21
395.252	12.6
395.462	12.32
395.671	11.91
395.88	12.31
396.089	12.22
396.298	12.65
396.508	13.04
396.717	13.08
396.926	12.78
397.135	12.91
397.344	11.87
397.553	12.04
397.762	12.26
397.971	12.18
398.181	11.93
398.39	12.08
398.599	11.58
398.808	11.56
399.017	10.94
399.226	11.3
399.435	11.96
399.644	12.16
399.853	12.01
400.062	12.41
400.27	12.2
400.479	11.65
400.688	11.27
400.897	11.42
401.106	11.43
401.315	11.29
401.524	11.35
401.733	11.59
401.941	11.36
402.15	11.08
402.359	11.13
402.568	10.96
402.777	11.11
402.985	11.15
403.194	11.02
403.403	11.06
403.612	11.14
403.82	10.92
404.029	10.63
404.238	10.86
404.446	10.88
404.655	10.82
404.864	10.75
405.072	10.96
405.281	10.9
405.489	10.95
405.698	11.2
405.906	11.22
406.115	11.13
406.324	11.21
406.532	11.17
406.741	11
406.949	10.9
407.158	11
407.366	10.98
407.574	10.94
407.783	10.9
407.991	10.91
408.2	10.77
408.408	10.69
408.617	10.67
408.825	10.67
409.033	10.71
409.242	10.76
409.45	10.63
409.658	10.63
409.867	10.49
410.075	10.53
410.283	10.64
410.491	10.8
410.7	10.83
410.908	10.84
411.116	10.76
411.324	10.73
411.533	10.64
411.741	10.57
411.949	10.62
412.157	10.69
412.365	10.65
412.573	10.63
412.781	10.57
412.99	10.75
413.198	10.82
413.406	10.94
413.614	11
413.822	11.13
414.03	11.01
414.238	10.84
414.446	10.73
414.654	10.65
414.862	10.55
415.07	10.52
415.278	10.64
415.486	10.39
415.694	10.41
415.902	10.41
416.109	10.36
416.317	10.36
416.525	10.42
416.733	10.46
416.941	10.46
417.149	10.55
417.357	10.42
417.564	10.44
417.772	10.45
417.98	10.38
418.188	10.25
418.395	10.16
418.603	10.18
418.811	10.2
419.019	10.31
419.226	10.31
419.434	10.38
419.642	10.44
419.849	10.3
420.057	10.21
420.265	10.33
420.472	10.21
420.68	10.16
420.887	10.34
421.095	10.27
421.302	10.11
421.51	10.21
421.717	10.12
421.925	9.93
422.132	9.99
422.34	9.96
422.547	10.01
422.755	10.07
422.962	10.18
423.17	10.26
423.377	10.25
423.585	10.16
423.792	10.08
423.999	9.91
424.207	9.63
424.414	9.46
424.621	9.52
424.829	9.57
425.036	9.73
425.243	9.93
425.451	10.29
425.658	10.31
425.865	10.13
426.072	9.96
426.28	9.76
426.487	9.63
426.694	9.54
426.901	9.72
427.108	9.79
427.315	9.84
427.523	9.71
427.73	9.68
427.937	9.78
428.144	9.85
428.351	9.99
428.558	10.08
428.765	10
428.972	9.95
429.179	9.82
429.386	9.72
429.593	9.76
429.8	9.69
430.007	9.49
430.214	9.46
430.421	9.54
430.628	9.52
430.835	9.86
431.042	10
431.249	10.09
431.456	9.88
431.662	10
431.869	9.96
432.076	9.89
432.283	9.93
432.49	10.06
432.697	9.95
432.903	9.74
433.11	9.74
433.317	9.6
433.524	9.76
433.73	9.95
433.937	9.9
434.144	10.05
434.35	9.98
434.557	9.9
434.764	9.64
434.97	9.63
435.177	9.72
435.384	9.78
435.59	9.53
435.797	9.6
436.003	9.72
436.21	9.39
436.416	9.34
436.623	9.51
436.829	9.48
437.036	9.36
437.242	9.42
437.449	9.39
437.655	9.59
437.862	9.76
438.068	9.9
438.275	10.08
438.481	10.23
438.687	10.02
438.894	9.92
439.1	9.79
439.307	9.69
439.513	9.54
439.719	9.56
439.926	9.43
440.132	9.57
440.338	9.6
440.544	9.67
440.751	9.74
440.957	9.89
441.163	9.73
441.369	9.7
441.575	9.71
441.782	9.75
441.988	9.66
442.194	9.72
442.4	9.7
442.606	9.85
442.812	9.71
443.018	9.59
443.224	9.54
443.431	9.5
443.637	9.3
443.843	9.3
444.049	9.32
444.255	9.4
444.461	9.45
444.667	9.54
444.873	9.52
445.079	9.55
445.284	9.59
445.49	9.55
445.696	9.57
445.902	9.54
446.108	9.62
446.314	9.44
446.52	9.51
446.726	9.48
446.931	9.65
447.137	9.6
447.343	9.69
447.549	9.55
447.755	9.71
447.96	9.59
448.166	9.63
448.372	9.73
448.578	9.7
448.783	9.71
448.989	9.77
449.195	9.83
449.4	9.83
449.606	10.01
449.812	9.91
450.017	9.83
450.223	9.68
450.428	9.68
450.634	9.7
450.84	9.71
451.045	9.65
451.251	9.74
451.456	9.83
451.662	9.77
451.867	9.68
452.073	9.84
452.278	9.8
452.483	9.7
452.689	9.63
452.894	9.74
453.1	9.64
453.305	9.72
453.51	9.75
453.716	9.88
453.921	9.82
454.127	9.8
454.332	9.8
454.537	9.77
454.742	9.61
454.948	9.61
455.153	9.74
455.358	9.58
455.563	9.53
455.769	9.51
455.974	9.49
456.179	9.43
456.384	9.39
456.589	9.4
456.795	9.52
457	9.48
457.205	9.5
457.41	9.68
457.615	9.84
457.82	9.84
458.025	9.92
458.23	9.84
458.435	9.82
458.64	9.58
458.845	9.66
459.05	9.62
459.255	9.67
459.46	9.74
459.665	9.97
459.87	9.91
460.075	10.07
460.28	10.12
460.485	10
460.69	9.94
460.895	9.84
461.099	9.64
461.304	9.66
461.509	9.74
461.714	9.75
461.919	9.86
462.123	9.93
462.328	9.89
462.533	9.91
462.738	9.89
462.942	9.9
463.147	10.03
463.352	10.13
463.556	10.12
463.761	10.02
463.966	10.03
464.17	10.05
464.375	10.01
464.58	9.94
464.784	10.06
464.989	10.04
465.193	9.82
465.398	9.87
465.602	10.2
465.807	10.33
466.011	10.49
466.216	10.63
466.42	10.6
466.625	10.45
466.829	10.33
467.034	10.17
467.238	10.19
467.443	10.18
467.647	10.08
467.851	10.11
468.056	10.17
468.26	10.21
468.464	10.21
468.669	10.33
468.873	10.2
469.077	10.13
469.282	10.11
469.486	10.03
469.69	9.85
469.894	9.94
470.099	9.92
470.303	9.92
470.507	10
470.711	10.1
470.915	10.13
471.119	10.2
471.324	10.19
471.528	10.19
471.732	10.24
471.936	10.17
472.14	10.19
472.344	10.23
472.548	10.22
472.752	10.13
472.956	10.22
473.16	10.3
473.364	10.22
473.568	10.29
473.772	10.34
473.976	10.21
474.18	10.13
474.384	10.24
474.588	10.15
474.792	10.12
474.995	10.16
475.199	10.16
475.403	10.04
475.607	10.03
475.811	10.1
476.015	10.07
476.218	10.06
476.422	10.04
476.626	10.08
476.83	10.04
477.033	10.14
477.237	10.16
477.441	10.16
477.644	10.16
477.848	10.2
478.052	10.12
478.255	10.11
478.459	10.05
478.663	9.95
478.866	9.85
479.07	9.91
479.273	9.85
479.477	9.94
479.681	9.96
479.884	10
480.088	9.91
480.291	10.04
480.495	10.04
480.698	10.07
480.901	10.04
481.105	10.1
481.308	9.97
481.512	9.99
481.715	10.01
481.919	9.98
482.122	10.07
482.325	10.18
482.529	10.16
482.732	10.2
482.935	10.19
483.138	10.18
483.342	10.09
483.545	10.05
483.748	10.03
483.952	10.02
484.155	9.93
484.358	9.89
484.561	9.86
484.764	9.84
484.967	9.85
485.171	9.83
485.374	9.83
485.577	9.84
485.78	9.88
485.983	9.88
486.186	9.91
486.389	9.87
486.592	9.95
486.795	9.84
486.998	9.86
487.201	9.89
487.404	9.8
487.607	9.77
487.81	9.75
488.013	9.67
488.216	9.6
488.419	9.69
488.622	9.65
488.825	9.72
489.028	9.76
489.231	9.88
489.433	9.9
489.636	9.9
489.839	9.85
490.042	9.83
490.245	9.68
490.447	9.65
490.65	9.59
490.853	9.64
491.056	9.61
491.258	9.58
491.461	9.62
491.664	9.55
491.866	9.52
492.069	9.53
492.272	9.57
492.474	9.53
492.677	9.58
492.879	9.55
493.082	9.53
493.285	9.57
493.487	9.53
493.69	9.52
493.892	9.54
494.095	9.59
494.297	9.54
494.5	9.59
494.702	9.57
494.905	9.5
495.107	9.38
495.309	9.3
495.512	9.2
495.714	9.29
495.917	9.32
496.119	9.42
496.321	9.48
496.524	9.45
496.726	9.47
496.928	9.4
497.13	9.3
497.333	9.28
497.535	9.42
497.737	9.36
497.939	9.42
498.142	9.43
498.344	9.48
498.546	9.4
498.748	9.34
498.95	9.35
499.152	9.31
499.355	9.25
499.557	9.25
499.759	9.31
499.961	9.26
500.163	9.27
500.365	9.46
500.567	9.42
500.769	9.39
500.971	9.41
501.173	9.5
501.375	9.33
501.577	9.33
501.779	9.38
501.981	9.41
502.183	9.39
502.385	9.35
502.587	9.3
502.788	9.27
502.99	9.18
503.192	9.15
503.394	9.18
503.596	9.14
503.798	9.11
503.999	9.17
504.201	9.09
504.403	9.11
504.605	9.17
504.806	9.1
505.008	9.1
505.21	9.08
505.411	9.02
505.613	9.06
505.815	9.1
506.016	9.08
506.218	9.1
506.42	9.16
506.621	9.1
506.823	9.17
507.024	9.09
507.226	9.14
507.427	9.12
507.629	9.14
507.83	9.1
508.032	9.12
508.233	9.13
508.435	9.13
508.636	9.16
508.838	9.16
509.039	9.15
509.24	9.15
509.442	9.15
509.643	9.14
509.845	9.21
510.046	9.25
510.247	9.34
510.448	9.33
510.65	9.29
510.851	9.2
511.052	9.24
511.254	9.19
511.455	9.15
511.656	9.04
511.857	9.08
512.058	8.98
512.26	8.88
512.461	8.87
512.662	8.98
512.863	8.91
513.064	9
513.265	9.01
513.466	9.06
513.667	9.1
513.868	9.15
514.069	9.08
514.27	9.04
514.471	9.03
514.672	8.96
514.873	8.8
515.074	8.79
515.275	8.81
515.476	8.81
515.677	8.78
515.878	8.89
516.079	8.9
516.28	8.86
516.481	8.78
516.682	8.81
516.882	8.82
517.083	8.78
517.284	8.86
517.485	8.94
517.686	8.97
517.886	8.96
518.087	9
518.288	8.96
518.488	8.97
518.689	8.95
518.89	8.96
519.091	8.96
519.291	8.95
519.492	8.89
519.692	8.89
519.893	8.9
520.094	8.84
520.294	8.86
520.495	8.89
520.695	8.85
520.896	8.8
521.096	8.85
521.297	8.92
521.497	8.93
521.698	9.01
521.898	9.01
522.099	8.99
522.299	8.94
522.499	8.86
522.7	8.8
522.9	8.81
523.101	8.76
523.301	8.79
523.501	8.8
523.702	8.83
523.902	8.82
524.102	8.87
524.302	8.83
524.503	8.8
524.703	8.75
524.903	8.76
525.103	8.83
525.304	8.74
525.504	8.81
525.704	8.79
525.904	8.84
526.104	8.78
526.304	8.88
526.504	8.88
526.705	8.91
526.905	8.86
527.105	8.89
527.305	8.89
527.505	8.91
527.705	8.93
527.905	8.89
528.105	8.85
528.305	8.82
528.505	8.8
528.705	8.81
528.905	8.8
529.105	8.81
529.304	8.77
529.504	8.79
529.704	8.71
529.904	8.77
530.104	8.74
530.304	8.77
530.503	8.73
530.703	8.77
530.903	8.76
531.103	8.69
531.303	8.74
531.502	8.75
531.702	8.7
531.902	8.69
532.101	8.78
532.301	8.73
532.501	8.74
532.7	8.8
532.9	8.84
533.1	8.83
533.299	8.82
533.499	8.84
533.698	8.82
533.898	8.78
534.097	8.77
534.297	8.77
534.496	8.7
534.696	8.77
534.895	8.8
535.095	8.84
535.294	8.87
535.494	8.9
535.693	8.85
535.892	8.85
536.092	8.84
536.291	8.84
536.491	8.92
536.69	8.94
536.889	8.87
537.088	8.85
537.288	8.85
537.487	8.79
537.686	8.81
537.886	8.91
538.085	8.99
538.284	9.03
538.483	9.02
538.682	9.05
538.882	9.02
539.081	9
539.28	8.99
539.479	9.08
539.678	9.09
539.877	9.09
540.076	9.14
540.275	9.17
540.474	9.11
540.673	9.1
540.872	9.05
541.071	9
541.27	9.06
541.469	9.03
541.668	9.06
541.867	9.12
542.066	9.15
542.265	9.18
542.464	9.26
542.663	9.23
542.862	9.35
543.06	9.4
543.259	9.41
543.458	9.47
543.657	9.55
543.856	9.52
544.054	9.49
544.253	9.44
544.452	9.4
544.651	9.37
544.849	9.34
545.048	9.3
545.247	9.33
545.445	9.34
545.644	9.34
545.843	9.36
546.041	9.41
546.24	9.47
546.438	9.49
546.637	9.52
546.836	9.56
547.034	9.65
547.233	9.65
547.431	9.69
547.63	9.74
547.828	9.78
548.027	9.76
548.225	9.74
548.423	9.84
548.622	9.87
548.82	9.87
549.019	9.86
549.217	9.88
549.415	9.87
549.614	9.95
549.812	9.95
550.01	9.99
550.209	10.05
550.407	10.09
550.605	10
550.803	10.03
551.002	10.14
551.2	10.18
551.398	10.24
551.596	10.39
551.794	10.46
551.993	10.49
552.191	10.53
552.389	10.54
552.587	10.49
552.785	10.49
552.983	10.56
553.181	10.57
553.379	10.64
553.577	10.84
553.775	10.91
553.973	10.91
554.171	10.96
554.369	11
554.567	10.99
554.765	11.07
554.963	11.12
555.161	11.17
555.359	11.22
555.557	11.23
555.755	11.23
555.952	11.27
556.15	11.36
556.348	11.39
556.546	11.41
556.744	11.48
556.941	11.5
557.139	11.48
557.337	11.55
557.535	11.62
557.732	11.71
557.93	11.79
558.128	11.83
558.325	11.89
558.523	11.96
558.721	11.95
558.918	12.01
559.116	12.14
559.313	12.19
559.511	12.25
559.708	12.38
559.906	12.47
560.104	12.51
560.301	12.58
560.498	12.64
560.696	12.7
560.893	12.76
561.091	12.82
561.288	12.89
561.486	12.91
561.683	12.89
561.88	12.95
562.078	12.95
562.275	12.94
562.473	13.04
562.67	13.19
562.867	13.23
563.064	13.31
563.262	13.39
563.459	13.47
563.656	13.49
563.853	13.49
564.051	13.56
564.248	13.61
564.445	13.59
564.642	13.55
564.839	13.64
565.036	13.68
565.234	13.7
565.431	13.8
565.628	13.9
565.825	13.94
566.022	14.07
566.219	14.11
566.416	14.12
566.613	14.22
566.81	14.32
567.007	14.29
567.204	14.31
567.401	14.36
567.598	14.36
567.795	14.37
567.991	14.38
568.188	14.47
568.385	14.45
568.582	14.54
568.779	14.48
568.976	14.57
569.172	14.66
569.369	14.7
569.566	14.72
569.763	14.79
569.96	14.79
570.156	14.78
570.353	14.86
570.55	14.94
570.746	14.93
570.943	14.98
571.14	15
571.336	14.99
571.533	14.91
571.729	14.96
571.926	15.08
572.123	15.03
572.319	15.09
572.516	15.12
572.712	15.16
572.909	15.04
573.105	15.14
573.302	15.14
573.498	15.1
573.695	15.1
573.891	15.08
574.087	15
574.284	14.97
574.48	14.94
574.677	14.93
574.873	14.96
575.069	14.98
575.266	14.98
575.462	15.05
575.658	14.98
575.854	15.04
576.051	15
576.247	14.95
576.443	15.03
576.639	15.09
576.835	14.97
577.032	15.03
577.228	15.07
577.424	14.94
577.62	14.89
577.816	14.85
578.012	14.83
578.208	14.79
578.404	14.87
578.6	14.96
578.796	15.04
578.993	15.06
579.189	15.08
579.384	15.02
579.58	15
579.776	14.98
579.972	14.86
580.168	14.77
580.364	14.69
580.56	14.58
580.756	14.52
580.952	14.5
581.148	14.48
581.343	14.54
581.539	14.55
581.735	14.54
581.931	14.49
582.127	14.55
582.322	14.54
582.518	14.54
582.714	14.52
582.909	14.57
583.105	14.56
583.301	14.51
583.496	14.47
583.692	14.48
583.888	14.38
584.083	14.3
584.279	14.27
584.474	14.27
584.67	14.23
584.866	14.25
585.061	14.24
585.257	14.19
585.452	14.19
585.648	14.17
585.843	14.24
586.039	14.19
586.234	14.17
586.429	14.07
586.625	14.05
586.82	13.93
587.015	13.91
587.211	13.81
587.406	13.85
587.601	13.86
587.797	13.89
587.992	13.85
588.187	13.98
588.383	14.01
588.578	14
588.773	14.01
588.968	14.08
589.163	14.04
589.359	13.99
589.554	13.94
589.749	13.9
589.944	13.89
590.139	13.89
590.334	13.89
590.529	14.01
590.724	14.1
590.919	14.11
591.114	14.21
591.309	14.22
591.504	14.18
591.699	14.16
591.894	14.09
592.089	14.09
592.284	14.04
592.479	14.05
592.674	14.06
592.869	14.18
593.064	14.18
593.259	14.29
593.454	14.33
593.648	14.38
593.843	14.32
594.038	14.35
594.233	14.39
594.428	14.43
594.622	14.48
594.817	14.71
595.012	14.78
595.206	14.85
595.401	14.94
595.596	14.93
595.79	14.9
595.985	14.84
596.18	14.82
596.374	14.76
596.569	14.77
596.763	14.91
596.958	15.07
597.153	15.1
597.347	15.2
597.542	15.27
597.736	15.23
597.931	15.19
598.125	15.31
598.319	15.35
598.514	15.39
598.708	15.39
598.903	15.43
599.097	15.45
599.291	15.56
599.486	15.63
599.68	15.68
599.874	15.69
600.069	15.72
600.263	15.72
600.457	15.81
600.651	15.82
600.846	15.87
601.04	15.82
601.234	15.78
601.428	15.73
601.622	15.83
601.817	15.91
602.011	15.97
602.205	16.06
602.399	16.15
602.593	16.11
602.787	16.01
602.981	16.01
603.175	15.91
603.369	15.76
603.563	15.74
603.757	15.76
603.951	15.82
604.145	15.9
604.339	15.98
604.533	15.87
604.727	15.96
604.921	15.92
605.115	15.87
605.309	15.81
605.502	15.84
605.696	15.72
605.89	15.69
606.084	15.69
606.278	15.68
606.471	15.69
606.665	15.62
606.859	15.45
607.053	15.41
607.246	15.35
607.44	15.33
607.634	15.38
607.827	15.41
608.021	15.29
608.214	15.29
608.408	15.26
608.602	15.15
608.795	15.12
608.989	15.14
609.182	15.13
609.376	15.02
609.569	14.96
609.763	14.9
609.956	14.83
610.15	14.6
610.343	14.64
610.537	14.67
610.73	14.65
610.923	14.68
611.117	14.7
611.31	14.54
611.504	14.45
611.697	14.42
611.89	14.26
612.083	14.2
612.277	14.2
612.47	14.18
612.663	14.09
612.856	14.04
613.05	14.05
613.243	13.98
613.436	13.81
613.629	13.78
613.822	13.78
614.015	13.65
614.209	13.61
614.402	13.68
614.595	13.6
614.788	13.53
614.981	13.54
615.174	13.45
615.367	13.37
615.56	13.26
615.753	13.22
615.946	13.17
616.139	13.16
616.332	13.13
616.525	13.15
616.718	13.11
616.911	13.04
617.103	12.98
617.296	12.99
617.489	13
617.682	12.98
617.875	12.95
618.067	12.85
618.26	12.81
618.453	12.67
618.646	12.59
618.838	12.53
619.031	12.48
619.224	12.41
619.417	12.52
619.609	12.51
619.802	12.48
619.994	12.51
620.187	12.52
620.38	12.35
620.572	12.25
620.765	12.26
620.957	12.29
621.15	12.27
621.342	12.32
621.535	12.37
621.727	12.42
621.92	12.39
622.112	12.31
622.305	12.21
622.497	12.21
622.69	12
622.882	12.03
623.074	12.04
623.267	12.09
623.459	12.08
623.651	12.22
623.844	12.12
624.036	12.19
624.228	12.2
624.42	12.15
624.613	12.15
624.805	12.17
624.997	12.19
625.189	12.07
625.381	12.06
625.574	11.91
625.766	11.89
625.958	11.75
626.15	11.83
626.342	11.74
626.534	11.8
626.726	11.72
626.918	11.68
627.11	11.65
627.302	11.67
627.494	11.68
627.686	11.73
627.878	11.72
628.07	11.64
628.262	11.59
628.454	11.58
628.646	11.49
628.838	11.52
629.029	11.52
629.221	11.49
629.413	11.46
629.605	11.45
629.797	11.4
629.989	11.4
630.18	11.44
630.372	11.29
630.564	11.29
630.755	11.22
630.947	11.2
631.139	11.13
631.33	11.15
631.522	11.14
631.714	11.16
631.905	11.11
632.097	11.11
632.289	11.16
632.48	11.17
632.672	11.08
632.863	11.04
633.055	11.02
633.246	11.01
633.438	10.92
633.629	10.95
633.821	10.98
634.012	10.95
634.203	10.88
634.395	10.93
634.586	11.02
634.777	11.01
634.969	11.02
635.16	11.07
635.351	11.13
635.543	11.08
635.734	11.07
635.925	11.02
636.117	11.01
636.308	11
636.499	10.94
636.69	10.96
636.881	11.03
637.073	11
637.264	10.96
637.455	10.99
637.646	10.97
637.837	10.93
638.028	10.89
638.219	10.93
638.41	10.97
638.601	10.96
638.792	10.96
638.983	10.91
639.174	10.72
639.365	10.64
639.556	10.59
639.747	10.66
639.938	10.78
640.129	10.93
640.32	10.95
640.511	11.03
640.701	10.88
640.892	10.83
641.083	10.71
641.274	10.61
641.465	10.5
641.655	10.59
641.846	10.56
642.037	10.67
642.228	10.72
642.418	10.81
642.609	10.75
642.8	10.74
642.99	10.65
643.181	10.6
643.372	10.52
643.562	10.5
643.753	10.59
643.943	10.57
644.134	10.55
644.324	10.6
644.515	10.67
644.705	10.52
644.896	10.55
645.086	10.62
645.277	10.54
645.467	10.51
645.658	10.58
645.848	10.53
646.038	10.51
646.229	10.54
646.419	10.49
646.61	10.54
646.8	10.62
646.99	10.61
647.18	10.58
647.371	10.55
647.561	10.44
647.751	10.41
647.941	10.37
648.132	10.37
648.322	10.35
648.512	10.32
648.702	10.32
648.892	10.3
649.082	10.3
649.272	10.27
649.462	10.33
649.653	10.31
649.843	10.3
650.033	10.35
650.223	10.29
650.413	10.23
650.603	10.28
650.793	10.28
650.983	10.19
651.172	10.29
651.362	10.27
651.552	10.21
651.742	10.17
651.932	10.2
652.122	10.14
652.312	10.12
652.502	10.06
652.691	10.08
652.881	10.08
653.071	10.12
653.261	10.07
653.45	10.01
653.64	9.95
653.83	9.91
654.019	9.78
654.209	9.7
654.399	9.68
654.588	9.58
654.778	9.48
654.968	9.38
655.157	9.46
655.347	9.36
655.536	9.31
655.726	9.23
655.915	9.24
656.105	9.12
656.294	9.1
656.484	9.07
656.673	9.06
656.863	9.09
657.052	9.08
657.241	8.98
657.431	9.01
657.62	8.93
657.809	8.77
657.999	8.77
658.188	8.67
658.377	8.57
658.567	8.49
658.756	8.45
658.945	8.32
659.134	8.28
659.324	8.31
659.513	8.26
659.702	8.23
659.891	8.11
660.08	8.12
660.269	7.98
660.458	7.9
660.648	7.81
660.837	7.74
661.026	7.53
661.215	7.52
661.404	7.58
661.593	7.5
661.782	7.43
661.971	7.56
662.16	7.51
662.349	7.43
662.538	7.49
662.726	7.53
662.915	7.55
663.104	7.41
663.293	7.26
663.482	7.17
663.671	7.26
663.86	7.18
664.048	7.22
664.237	7.38
664.426	7.36
664.615	7.26
664.803	7.25
664.992	7.16
665.181	6.99
665.369	7.02
665.558	6.95
665.747	6.96
665.935	7.06
666.124	7.16
666.312	7.2
666.501	7.29
666.69	7.37
666.878	7.38
667.067	7.36
667.255	7.46
667.444	7.55
667.632	7.57
667.82	7.6
668.009	7.64
668.197	7.59
668.386	7.44
668.574	7.39
668.762	7.53
668.951	7.66
669.139	7.6
669.327	7.68
669.516	7.72
669.704	7.57
669.892	7.43
670.08	7.52
670.269	7.54
670.457	7.57
670.645	7.59
670.833	7.67
671.021	7.69
671.21	7.64
671.398	7.63
671.586	7.67
671.774	7.71
671.962	7.76
672.15	7.94
672.338	8.01
672.526	8.16
672.714	8.32
672.902	8.22
673.09	8.16
673.278	8.15
673.466	8.18
673.654	8.17
673.842	8.41
674.03	8.6
674.218	8.72
674.405	8.74
674.593	8.81
674.781	8.85
674.969	8.81
675.157	8.87
675.344	8.83
675.532	8.91
675.72	8.89
675.908	8.94
676.095	8.92
676.283	9.12
676.471	9.03
676.658	9
676.846	9
677.033	9.19
677.221	9.16
677.409	9.2
677.596	9.25
677.784	9.34
677.971	9.25
678.159	9.38
678.346	9.47
678.534	9.54
678.721	9.56
678.909	9.67
679.096	9.63
679.283	9.65
679.471	9.7
679.658	9.72
679.846	9.68
680.033	9.68
680.22	9.76
680.408	9.76
680.595	9.87
680.782	9.83
680.969	9.96
681.157	9.92
681.344	10.05
681.531	10.16
681.718	10.31
681.905	10.27
682.093	10.37
682.28	10.47
682.467	10.53
682.654	10.52
682.841	10.49
683.028	10.52
683.215	10.55
683.402	10.46
683.589	10.56
683.776	10.76
683.963	10.89
684.15	11.02
684.337	11.13
684.524	11.36
684.711	11.44
684.898	11.36
685.085	11.22
685.271	11.32
685.458	11.27
685.645	11.18
685.832	11.23
686.019	11.32
686.205	11.46
686.392	11.57
686.579	11.92
686.766	12.16
686.952	12.44
687.139	12.47
687.326	12.47
687.512	12.52
687.699	12.71
687.886	12.78
688.072	12.82
688.259	13.08
688.445	13.29
688.632	13.37
688.818	13.57
689.005	13.83
689.191	14.07
689.378	14.38
689.564	14.72
689.751	14.86
689.937	15.1
690.124	15.29
690.31	15.27
690.496	15.52
690.683	15.82
690.869	16.09
691.055	16.52
691.242	16.89
691.428	17.11
691.614	17.41
691.8	18.01
691.987	18.17
692.173	18.7
692.359	19.15
692.545	19.61
692.731	19.76
692.918	20.23
693.104	20.71
693.29	21.01
693.476	21.62
693.662	22.09
693.848	22.76
694.034	22.98
694.22	23.94
694.406	24.27
694.592	24.71
694.778	24.84
694.964	25.47
695.15	25.57
695.336	25.87
695.522	26.47
695.708	27.12
695.894	27.55
696.08	28.04
696.265	28.56
696.451	29.24
696.637	29.74
696.823	30.31
697.009	30.87
697.194	31.46
697.38	31.83
697.566	32.32
697.751	32.95
697.937	33.67
698.123	34.41
698.308	34.77
698.494	35.35
698.68	35.61
698.865	35.87
699.051	36.07
699.236	36.8
699.422	37.55
699.607	38.32
699.793	39.01
699.978	39.52
700.164	40.03
700.349	40.18
700.535	40.35
700.72	40.59
700.906	41.16
701.091	41.61
701.276	42.23
701.462	42.81
701.647	43.59
701.832	43.95
702.018	44.55
702.203	45.03
702.388	45.52
702.573	45.85
702.759	46.5
702.944	46.72
703.129	47.09
703.314	47.5
703.499	47.91
703.684	48.37
703.87	48.76
704.055	49.12
704.24	49.68
704.425	50.11
704.61	50.36
704.795	50.83
704.98	51.04
705.165	51.25
705.35	51.49
705.535	51.95
705.72	52.3
705.905	52.62
706.09	53.1
706.275	53.52
706.459	53.72
706.644	53.96
706.829	54.73
707.014	55.01
707.199	55.51
707.384	55.77
707.568	56.19
707.753	56.06
707.938	56.07
708.123	55.82
708.307	55.98
708.492	55.92
708.677	56.25
708.861	56.74
709.046	57.15
709.231	57.44
709.415	57.88
709.6	58.29
709.784	58.55
709.969	58.57
710.153	58.82
710.338	58.81
710.522	58.85
710.707	58.62
710.891	59.36
711.076	59.72
711.26	60.02
711.445	60.4
711.629	60.85
711.813	60.56
711.998	60.63
712.182	60.42
712.366	60.1
712.551	60.09
712.735	60.62
712.919	60.44
713.103	60.79
713.288	61.44
713.472	61.26
713.656	61.3
713.84	61.84
714.024	62.61
714.208	62.25
714.393	62.56
714.577	62.16
714.761	61.98
714.945	61.75
715.129	62.29
715.313	62.67
715.497	63.42
715.681	64.07
715.865	64.11
716.049	64.2
716.233	64.3
716.417	64.03
716.601	63.48
716.785	63.68
716.968	63.15
717.152	63.37
717.336	63.44
717.52	63.85
717.704	63.98
717.888	64.47
718.071	64.85
718.255	65.16
718.439	65.53
718.622	65.68
718.806	65.78
718.99	65.56
719.174	65.52
719.357	65.46
719.541	65.84
719.724	65.79
719.908	65.87
720.092	66.04
720.275	66.27
720.459	66.32
720.642	66.71
720.826	66.63
721.009	66.96
721.193	66.68
721.376	66.53
721.559	66.73
721.743	67.57
721.926	67.58
722.11	67.7
722.293	67.86
722.476	68.42
722.66	68.21
722.843	68.54
723.026	69.02
723.21	69.15
723.393	68.32
723.576	68.04
723.759	67.95
723.942	67.7
724.126	67.77
724.309	68.35
724.492	68.86
724.675	69.14
724.858	69.68
725.041	69.45
725.224	68.86
725.407	69.3
725.59	69.45
725.774	69.33
725.957	69.83
726.14	70.78
726.322	70.54
726.505	70.5
726.688	70.6
726.871	71.09
727.054	71.23
727.237	71.29
727.42	71.58
727.603	72
727.786	71.74
727.968	71.78
728.151	71.76
728.334	71.91
728.517	71.85
728.699	72.16
728.882	72.66
729.065	73.14
729.248	72.75
729.43	73.11
729.613	73.28
729.796	73.81
729.978	74.25
730.161	74.66
730.343	75.65
730.526	75.8
730.708	75.46
730.891	75.32
731.073	75.56
731.256	75.03
731.438	74.92
731.621	74.5
731.803	74.53
731.986	75.35
732.168	75.62
732.35	75.75
732.533	76.38
732.715	76.58
732.898	75.82
733.08	76
733.262	76.7
733.444	76.67
733.627	77.29
733.809	77.34
733.991	77.01
734.173	76.64
734.355	76.66
734.538	76.63
734.72	77.32
734.902	78.22
735.084	78.91
735.266	79.45
735.448	79.87
735.63	80.76
735.812	80.56
735.994	79.65
736.176	79.32
736.358	79.46
736.54	79.53
736.722	79.94
736.904	81.06
737.086	81.66
737.268	81.68
737.45	81.15
737.632	81.07
737.814	81.33
737.995	82.28
738.177	82.38
738.359	82.16
738.541	81.89
738.723	81.69
738.904	81.21
739.086	81.2
739.268	82
739.449	82.25
739.631	82.95
739.813	82.8
739.994	82.86
740.176	82.73
740.358	83.47
740.539	83.93
740.721	83.45
740.902	83.27
741.084	83.55
741.265	82.19
741.447	81.07
741.628	81.11
741.81	80.99
741.991	81.59
742.172	83.15
742.354	83.94
742.535	84.42
742.717	85.42
742.898	85.63
743.079	85.52
743.261	85.98
743.442	86.48
743.623	86.47
743.804	86.46
743.986	86.56
744.167	85.53
744.348	84.95
744.529	84.91
744.71	84.65
744.891	84.88
745.073	85.72
745.254	87.47
745.435	88.54
745.616	88.75
745.797	88.96
745.978	89.21
746.159	88.28
746.34	88.59
746.521	88.02
746.702	88.62
746.883	88.94
747.064	88.73
747.245	87.72
747.426	88.93
747.606	86.85
747.787	85.73
747.968	86.65
748.149	85.66
748.33	84.69
748.51	85.46
748.691	86.04
748.872	84.87
749.053	85.66
749.233	85.8
749.414	85.59
749.595	86.25
749.775	87.45
749.956	87.49
750.137	87.1
750.317	86.4
750.498	85.98
750.678	85.82
750.859	87.14
751.04	87.13
751.22	88.98
751.4	89.15
751.581	89.28
751.761	87.76
751.942	87.98
752.122	87.91
752.303	87.66
752.483	88.37
752.663	89.65
752.844	89.71
753.024	89.98
753.204	89.82
753.385	88.11
753.565	87.93
753.745	87.17
753.925	86.47
754.106	86.96
754.286	88.15
754.466	87.95
754.646	88.99
754.826	89.54
755.006	89.7
755.187	89.52
755.367	88.81
755.547	87.47
755.727	86.48
755.907	86.36
756.087	86.1
756.267	86.2
756.447	87.05
756.627	87.49
756.807	87.77
756.987	87.94
757.167	88.7
757.346	88.85
757.526	88.44
757.706	87.03
757.886	87.45
758.066	87.16
758.246	87.29
758.425	86.82
758.605	87.17
758.785	86.36
758.965	86.34
759.144	86.11
759.324	87.63
759.504	88.61
759.683	90.1
759.863	89.73
760.043	91.75
760.222	91.57
760.402	90.79
760.581	90.88
760.761	90.8
760.94	89.95
761.12	89.15
761.299	88.9
761.479	86.26
761.658	86.51
761.838	86.37
762.017	85.58
762.197	86.75
762.376	89.03
762.555	88.97
762.735	89.72
762.914	90.34
763.093	89.01
763.273	88.14
763.452	87.98
763.631	87.01
763.81	87.16
763.99	86.45
764.169	87.34
764.348	86.37
764.527	85.56
764.706	85.32
764.885	86.26
765.064	85.07
765.243	85.73
765.423	85.49
765.602	85.72
765.781	86.16
765.96	85.69
766.139	84.54
766.318	84.45
766.497	84.62
766.676	82.75
766.854	83.04
767.033	83.82
767.212	84.15
767.391	84.17
767.57	85.56
767.749	86.81
767.928	87.56
768.106	87.21
768.285	85.44
768.464	86.2
768.643	84.7
768.821	83.83
769	82.84
769.179	83.1
769.357	82.42
769.536	82.7
769.715	83.01
769.893	84.02
770.072	85.32
770.25	87.79
770.429	87.43
770.607	85.61
770.786	85.33
770.964	84.84
771.143	80.68
771.321	80.74
771.5	86.02
771.678	85.03
771.857	85.67
772.035	86.84
772.213	85.56
772.392	82.05
772.57	83.8
772.748	83.02
772.927	84.18
773.105	85.97
773.283	87.25
773.461	87.59
773.64	88.33
773.818	86.3
773.996	86.26
774.174	84.43
774.352	83.86
774.531	79.88
774.709	79.9
774.887	79.86
775.065	80.21
775.243	79.19
775.421	83.29
775.599	84.62
775.777	83.78
775.955	83.27
776.133	86.87
776.311	87.43
776.489	88.84
776.667	88.87
776.844	89.89
777.022	87.09
777.2	87.96
777.378	85.8
777.556	87.88
777.734	86.54
777.911	86.06
778.089	85.42
778.267	85.47
778.445	83.24
778.622	83.89
778.8	83.69
778.978	82.87
779.155	81.32
779.333	81.54
779.511	79.02
779.688	79.7
779.866	77.67
780.043	79.04
780.221	78.67
780.398	81.1
780.576	77.01
780.753	79.35
780.931	81.22
781.108	80.49
781.286	81.14
781.463	83.43
781.64	81.21
781.818	79.77
781.995	79.62
782.172	81.44
782.35	82.26
782.527	80.48
782.704	80.54
782.882	81.53
783.059	78.81
783.236	76.31
783.413	80.29
783.59	78.54
783.768	77.97
783.945	79.1
784.122	82.17
784.299	82.53
784.476	83.2
784.653	83.76
784.83	83.18
785.007	85.48
785.184	87.05
785.361	87.68
785.538	87.86
785.715	85.23
785.892	83.01
786.069	80.38
786.246	82.41
786.423	84.87
786.6	87.13
786.776	85.14
786.953	83.19
787.13	81.78
787.307	78.83
787.484	80.93
787.66	81.62
787.837	84.34
788.014	85.97
788.191	89.81
788.367	87.16
788.544	92.37
788.721	91.38
788.897	89.83
789.074	87.28
789.25	88.55
789.427	85.09
789.603	91.39
789.78	86.95
789.956	84.69
790.133	83.33
790.309	84
790.486	74.94
790.662	77.57
790.839	75.57
791.015	72.12
791.192	69.92
791.368	69.75
791.544	73.14
791.721	73.62
791.897	78.81
792.073	79.86
792.249	81.87
792.426	83.57
792.602	83.96
792.778	81.14
792.954	79.6
793.13	82.93
793.307	82.85
793.483	84.8
793.659	86.96
793.835	89.02
794.011	87.52
794.187	80.95
794.363	79.82
794.539	76.78
794.715	71.62
794.891	70.58
795.067	73.25
795.243	75.35
795.419	77.4
795.595	82.28
795.771	76.39
795.947	79.55
796.122	73.64
796.298	72.73
796.474	71.87
796.65	73.93
796.826	70.26
797.001	75.68
797.177	79.1
797.353	80.43
797.529	85.13
797.704	83.45
797.88	84.98
798.056	78.37
798.231	74.39
798.407	70.52
798.582	69.43
798.758	69.56
798.934	73.27
799.109	76.81
799.285	78.66
799.46	79.94
799.636	78.11
799.811	75.24
799.986	80.59
800.162	81.86
800.337	85.1
800.513	87.87
800.688	93.5
800.863	81.67
801.039	81.05
801.214	75.59
801.389	73.57
801.565	71.77
801.74	77.45
801.915	76.56
802.09	84.66
802.265	84.71
802.441	83.71
802.616	86.23
802.791	91.71
802.966	86.6
803.141	83.5
803.316	80.54
803.491	76.6
803.666	70.2
803.841	71.22
804.016	77.88
804.191	78.24
804.366	82.73
804.541	84.9
804.716	82.16
804.891	77.08
805.066	76.41
805.241	75.54
805.416	72.35
805.591	77.02
805.765	76.64
805.94	72.84
806.115	66.99
806.29	65.07
806.464	68.65
806.639	75.36
806.814	83.36
806.989	82.81
807.163	94.76
807.338	89.38
807.512	77.18
807.687	70.12
807.862	69.36
808.036	66.05
808.211	65.02
808.385	65.86
808.56	68.91
808.734	71.83
808.909	71.72
809.083	77.38
809.258	76.18
809.432	73.48
809.606	75.6
809.781	66.31
809.955	60.58
810.13	66.14
810.304	66.72
810.478	64.3
810.652	76.51
810.827	72.5
811.001	74.68
811.175	79.56
811.349	78.79
811.524	77.38
811.698	85.39
811.872	79.69
812.046	81.03
812.22	88.61
812.394	84
812.568	86.57
812.742	92.56
812.916	87.41
813.09	95.79
813.264	99.08
813.438	91.27
813.612	86.36
813.786	76.75
813.96	61.37
814.134	64.17
814.308	74.1
814.482	81.17
814.656	102.29
814.83	107.18
815.003	111.26
815.177	110.97
815.351	106.36
815.525	85.75
815.698	76.89
815.872	66.79
816.046	53.46
816.219	57.86
816.393	67.26
816.567	80.8
816.74	96.82
816.914	131.48
817.088	145.35
817.261	141.42
817.435	133.45
817.608	123.07
817.782	90.83
817.955	83.92
818.129	84.71
818.302	71.98
818.475	69.14
818.649	82.89
818.822	83.5
818.996	83.12
819.169	87.84
819.342	99.17
819.516	86.76
819.689	81.11
819.862	85.19
820.035	89.04
820.209	72.11
820.382	77.24
820.555	71.11
820.728	71.66
820.901	55.8
821.075	79.67
821.248	74.59
821.421	82.87
821.594	76.32
821.767	83.56
821.94	66.97
822.113	59.94
822.286	62.7
822.459	78.08
822.632	81.75
822.805	99.49
822.978	112.62
823.151	115.05
823.324	112.84
823.496	99.06
823.669	73.71
823.842	82.96
824.015	69.36
824.188	57.46
824.361	60.97
824.533	65.51
824.706	52.79
824.879	72.49
825.051	71.65
825.224	74.99
825.397	71.56
825.569	69.66
825.742	57.57
825.915	60.84
826.087	63.79
826.26	67.88
826.432	71.16
826.605	61.43
826.777	65.31
826.95	78.78
827.122	78.23
827.295	68.49
827.467	65.35
827.64	48.41
827.812	41.27
827.984	40.32
828.157	38.27
828.329	63.59
828.501	72.75
828.674	68.94
828.846	82.89
829.018	95.98
829.19	93.76
829.363	105.4
829.535	107.74
829.707	99.51
829.879	100.43
830.051	86.56
830.223	78.39
830.395	66.07
830.568	42.79
830.74	44.05
830.912	40.52
831.084	48.49
831.256	50.97
831.428	71.4
831.6	71.53
831.772	75.03
831.943	38.71
832.115	51.93
832.287	54.93
832.459	56.83
832.631	54.01
832.803	73.16
832.975	68.86
833.146	45.56
833.318	37.86
833.49	43.98
833.662	49.04
833.833	51.07
834.005	64.01
834.177	84.6
834.348	83.82
834.52	90.56
834.692	116.88
834.863	104.7
835.035	86.85
835.206	78.11
835.378	83.74
835.549	65.7
835.721	82.15
835.892	77.72
836.064	104.36
836.235	89.07
836.407	112.11
836.578	110.19
836.749	110.13
836.921	102.95
837.092	119.99
837.264	80.69
837.435	76.58
837.606	78.06
837.777	50.45
837.949	57.56
838.12	26.21
838.291	20.05
838.462	40.15
838.633	48.95
838.805	29.76
838.976	70.75
839.147	95.64
839.318	120.68
839.489	88.12
839.66	118.88
839.831	104.31
840.002	94.62
840.173	33.42
840.344	53.23
840.515	12.64
840.686	4.7
840.857	25.57
841.028	51.56
841.199	60.51
841.369	90.26
841.54	89.22
841.711	134.22
841.882	114.12
842.053	123.44
842.223	135.62
842.394	114.18
842.565	92.28
842.736	99.9
842.906	73.87
843.077	60.32
843.248	67.77
843.418	63.06
843.589	74.37
843.759	92.6
843.93	98.59
844.101	185.71
844.271	107.63
844.442	49.89
844.612	102.96
844.783	139.38
844.953	103.79
845.123	86.37
845.294	97.49
845.464	87.39
845.635	80.6
845.805	96.98
845.975	103.89
846.146	158.79
846.316	304.93
846.486	122.04
846.656	155.32
846.827	169.44
846.997	115.56
847.167	87.29
847.337	100.14
847.507	121.87
847.677	77.14
847.848	113.3
848.018	111.44
848.188	121.76
848.358	74.62
848.528	137.09
848.698	96.44
848.868	106.15
849.038	81.27
849.208	75.89
849.378	62.48
849.548	74.42
849.718	114.25
849.887	-62.38
850.057	1551.61
850.227	76.82
850.397	-226.17
850.567	109.22
850.737	112.52
850.906	108.17
851.076	98.61
851.246	66.13
851.415	40.76
851.585	54.79
851.755	55.11
851.924	70.3
852.094	91.64
852.264	96.81
852.433	79.83
852.603	132.73
852.772	141.3
852.942	128.21
853.111	127.53
853.281	129.75
853.45	79.15
853.62	71.84
853.789	29.53
853.959	-164.07
854.128	14.93
854.297	-28.7
854.467	95.57
854.636	24.04
854.805	104.4
854.975	31.47
855.144	22.73
855.313	69.82
855.482	97.04
855.652	88.39
855.821	114.39
855.99	165.19
856.159	336.58
856.328	138.78
856.497	158.72
856.667	149.2
856.836	153.42
857.005	150.62
857.174	152.48
857.343	150.6
857.512	118.54
857.681	67.83
857.85	29.54
858.019	5.38
858.188	9.07
858.356	-9.53
858.525	7.77
858.694	26.02
858.863	2.84
859.032	-8.51
859.201	32.03
859.369	34.4
859.538	6.18
859.707	30.12
859.876	29.4
860.044	-0.32
860.213	46.36
860.382	113.42
860.55	74.62
860.719	125.32
860.888	137.8
861.056	148.28
861.225	118.64
861.393	185.77
861.562	155.47
861.73	181.3
861.899	153.66
862.067	225.26
862.236	231.35
862.404	139.07
862.572	114.07
862.741	342.73
862.909	132.06
863.078	101.13
863.246	124.68
863.414	126.85
863.582	91.6
863.751	103.87
863.919	93.54
864.087	87.88
864.255	152.95
864.424	100.51
864.592	42.4
864.76	58.49
864.928	76.93
865.096	57.26
865.264	92.59
865.432	113.98
865.6	152.72
865.768	66.86
865.936	-37.31
866.104	-204.02
866.272	40.03
866.44	-34.8
866.608	13.4
866.776	79.14
866.944	85.81
867.112	59.23
867.28	63.41
867.448	94.72
867.615	78.43
867.783	72.5
867.951	93.69
868.119	105.9
868.286	167.33
868.454	111.38
868.622	143.51
868.789	397.43
868.957	-472.85
869.125	-329.18
869.292	836.49
869.46	-430.27
869.627	364
869.795	100.46
869.963	38.4
870.13	37.55
870.298	35.22
870.465	63.5
870.632	64.31
870.8	77.12
870.967	102.15
871.135	85.22
871.302	-57.1
871.469	115.02
871.637	67.38
871.804	25.17
871.971	23.13
872.139	28.25
872.306	31.81
872.473	181.41
872.64	130.96
872.807	92.79
872.975	71.15
873.142	95.45
873.309	74.89
873.476	57.81
873.643	62.44
873.81	47.83
873.977	34.08
874.144	32.85
874.311	141.52
874.478	81.23
874.645	4.43
874.812	-625.12
874.979	-81.8
875.146	-64.09
875.313	-350.95
875.48	305.51
875.647	-202.72
875.813	-1411.39
875.98	566.09
876.147	-1.37
876.314	50.73
876.481	57.28
876.647	92.7
876.814	90.14
876.981	110.4
877.147	106.66
877.314	117.14
877.481	160.84
877.647	317.98
877.814	380.1
877.98	329.11
878.147	-423.1
878.314	-386.12
878.48	1292.71
878.647	433.88
878.813	1269.78
878.979	108.84
879.146	95.65
879.312	68.7
879.479	125.05
879.645	95.8
879.811	135
879.978	119.23
880.144	165.35
880.31	529.98
880.477	-1136.24
880.643	-785.41
880.809	-3719.51
880.975	1242.71
881.142	104.82
881.308	320.04
881.474	276.19
881.64	163.1
881.806	102.53
881.972	90.44
882.138	88.72
882.304	43.09
882.47	42.62
882.636	61.98
882.802	59.66
882.968	35.96
883.134	36
883.3	47.96
883.466	52.89
883.632	71.41
883.798	107.75
883.964	129.85
884.129	113.93
884.295	35.74
884.461	-150.15
884.627	543.87
884.793	49.28
884.958	-69.03
885.124	-1034.65
885.29	100.72
885.455	34.35
885.621	23.64
885.787	2.86
885.952	-52.74
886.118	-37.13
886.283	32.69
886.449	-4.59
886.614	43.48
886.78	156.84
886.945	133.68
887.111	146.34
887.276	164.53
887.442	171.82
887.607	102.05
887.773	110.55
887.938	130.7
888.103	154.08
888.269	19.89
888.434	3664.71
888.599	50.42
888.764	-325.24
888.93	-33.15
889.095	36.24
889.26	70.43
889.425	94.87
889.59	70.65
889.756	110.85
889.921	85.2
890.086	59.83
890.251	-30.07
890.416	6.94
890.581	-15.56
890.746	70.06
890.911	103.21
891.076	373.18
891.241	182.92
891.406	19900
891.571	376.03
891.736	-64.07
891.901	-54.36
892.065	-66.96
892.23	-100.9
892.395	19.16
892.56	579.19
892.725	-79.01
892.889	-478.13
893.054	-1262.91
893.219	-1423.74
893.384	-201.3
893.548	-256.58
893.713	-102.07
893.878	-135.6
