Data from Ofav_SP_Phys_0DW46_Reflection_3.txt Node
Date: Thu Aug 05 17:45:44 EDT 2021
User: Adam
Spectrometer: FLMT01687
Trigger mode: 0
Integration Time (sec): 8.000000E-1
Scans to average: 2
Electric dark correction enabled: true
Nonlinearity correction enabled: false
Boxcar width: 2
XAxis mode: Wavelengths
Number of Pixels in Spectrum: 3648
>>>>>Begin Spectral Data<<<<<
179.494	497.84
179.716	545.07
179.937	457.03
180.158	564.86
180.38	1232.04
180.601	-229.35
180.823	43.03
181.044	36.65
181.265	67.4
181.486	52.28
181.708	488.59
181.929	-113.63
182.15	-212.24
182.372	30.38
182.593	35.12
182.814	-5.37
183.035	119.96
183.257	229.18
183.478	17.63
183.699	221.28
183.92	64.25
184.141	-100.45
184.363	672.43
184.584	28.25
184.805	-7.3
185.026	2.53
185.247	28.79
185.468	46.84
185.689	37.86
185.91	51.22
186.132	20.62
186.353	4.73
186.574	-67.12
186.795	-77.56
187.016	-48.41
187.237	-26.39
187.458	-171.35
187.679	23.18
187.9	21.39
188.121	-22.78
188.342	-8.51
188.563	44.14
188.784	51.09
189.005	10.18
189.226	27.31
189.447	19.14
189.667	-12.89
189.888	-53.57
190.109	107.76
190.33	120.72
190.551	107.24
190.772	86.83
190.993	75.42
191.214	42.92
191.434	39.09
191.655	30.41
191.876	37.65
192.097	14.69
192.318	17.11
192.538	-30.12
192.759	-5.94
192.98	-48.42
193.201	-279.02
193.421	-305.09
193.642	-135.62
193.863	-148.56
194.083	-65.62
194.304	-11.41
194.525	20.29
194.745	19.69
194.966	36.64
195.187	16.57
195.407	-8.77
195.628	-16.46
195.848	3.85
196.069	20.06
196.29	27.58
196.51	64.87
196.731	49.82
196.951	50.42
197.172	66.73
197.392	71.48
197.613	42.25
197.833	53.57
198.054	39.41
198.274	-28.6
198.495	-12.26
198.715	16.57
198.936	-1.68
199.156	64.35
199.377	63.8
199.597	62.78
199.817	36.55
200.038	27.72
200.258	18.2
200.479	11.92
200.699	-5.55
200.919	-15.69
201.14	-35.8
201.36	-76.1
201.58	-49.38
201.801	-90.71
202.021	-70.03
202.241	-26.55
202.461	11.35
202.682	-9.16
202.902	32.91
203.122	189.74
203.342	283.35
203.563	92
203.783	104.62
204.003	55.37
204.223	30.61
204.443	4.09
204.663	18.46
204.884	23.24
205.104	19.47
205.324	41.56
205.544	35.24
205.764	32.13
205.984	2.89
206.204	-11.09
206.424	7.83
206.644	-1.81
206.864	-10.23
207.084	-11.6
207.304	26.06
207.525	-0.34
207.745	27.8
207.964	32.44
208.184	41.93
208.404	12.6
208.624	6.43
208.844	27.86
209.064	54.71
209.284	61
209.504	44.03
209.724	34.73
209.944	17.05
210.164	1.51
210.384	17.54
210.604	28.36
210.823	23.51
211.043	17.05
211.263	17.79
211.483	2.94
211.703	11.03
211.922	14.49
212.142	45.14
212.362	5.6
212.582	35.82
212.801	80.24
213.021	33.6
213.241	-0.84
213.461	18.02
213.68	8.68
213.9	-28.24
214.12	-51.67
214.339	-35.25
214.559	2.98
214.779	-13.64
214.998	10.79
215.218	27.82
215.438	59.31
215.657	55.75
215.877	44.56
216.096	-10.89
216.316	27.61
216.535	-10.73
216.755	-113.8
216.974	-218.07
217.194	2.35
217.413	33.17
217.633	29.99
217.852	58.1
218.072	77.15
218.291	70.1
218.511	71.48
218.73	75.95
218.95	90.17
219.169	43.2
219.389	78.33
219.608	43.6
219.827	51.57
220.047	46.74
220.266	48.61
220.485	19.17
220.705	44.43
220.924	44.36
221.143	27.18
221.363	-3.4
221.582	14.82
221.801	-40.7
222.021	17.06
222.24	26.85
222.459	81.09
222.678	56.03
222.897	63.83
223.117	9.56
223.336	17.82
223.555	15.55
223.774	-32.45
223.993	-28.65
224.213	8.94
224.432	-12.93
224.651	2.89
224.87	10.5
225.089	16.73
225.308	-28.72
225.527	-32.97
225.746	-67.84
225.965	-114.94
226.184	-93.44
226.404	-63.1
226.623	-70.54
226.842	-46.72
227.061	1.87
227.28	26.93
227.499	33.72
227.718	17.59
227.936	-0.87
228.155	25.83
228.374	11.8
228.593	21.38
228.812	43.55
229.031	65.07
229.25	56.86
229.469	48.03
229.688	41.83
229.907	25.41
230.125	0.53
230.344	-12.95
230.563	-15.86
230.782	-75.48
231.001	-37.83
231.22	31.67
231.438	30.36
231.657	19.9
231.876	34.34
232.095	35.94
232.313	6.28
232.532	4.65
232.751	17.21
232.969	9.72
233.188	10.24
233.407	11.12
233.625	41.99
233.844	34.25
234.063	29.33
234.281	21.81
234.5	26.06
234.719	2.38
234.937	-42.26
235.156	-45.24
235.374	-49.83
235.593	-41.6
235.811	-34.87
236.03	-1.77
236.249	3.66
236.467	6.61
236.686	-14.05
236.904	-14.69
237.123	-24.85
237.341	21.37
237.559	13.2
237.778	4.15
237.996	5.66
238.215	-3.89
238.433	-26.85
238.652	-4.24
238.87	-0.73
239.088	-1.11
239.307	18.98
239.525	16.82
239.743	-9.68
239.962	9.07
240.18	6.2
240.398	-33
240.617	-26.55
240.835	24.98
241.053	37.31
241.271	21.75
241.49	47.19
241.708	35.64
241.926	22.38
242.144	-18.49
242.363	-22.01
242.581	23.89
242.799	-8.21
243.017	12.57
243.235	-44.48
243.453	-31.94
243.672	-95.51
243.89	-67.01
244.108	-93.46
244.326	-21.37
244.544	17.34
244.762	14.85
244.98	3.87
245.198	28.66
245.416	46.74
245.634	32.6
245.852	21
246.07	31.05
246.288	4.21
246.506	-52.03
246.724	-25.48
246.942	-22.75
247.16	-43.38
247.378	-130.66
247.596	-49.1
247.814	-46.83
248.032	-22.72
248.25	-26.92
248.468	0.89
248.685	6.35
248.903	15.84
249.121	13.16
249.339	36.11
249.557	37.86
249.775	52.98
249.992	34.22
250.21	46.07
250.428	25.62
250.646	25.04
250.863	26.02
251.081	30.5
251.299	26.83
251.517	59.5
251.734	45.5
251.952	12.8
252.17	23.53
252.387	11.96
252.605	-1.14
252.823	6.67
253.04	6.57
253.258	4.56
253.475	16.93
253.693	-11.28
253.911	1.49
254.128	27.76
254.346	28.83
254.563	20.44
254.781	40.02
254.998	25.99
255.216	-3.9
255.433	-10.68
255.651	-18.78
255.868	-40.31
256.086	-30.93
256.303	-27.43
256.521	-31.65
256.738	-89.24
256.956	-181.94
257.173	-34.32
257.39	29.54
257.608	-10.53
257.825	18.79
258.043	25.47
258.26	23.83
258.477	12.43
258.695	32.42
258.912	35.83
259.129	37.81
259.346	37.56
259.564	32.73
259.781	40.92
259.998	48.12
260.216	55.02
260.433	50.75
260.65	40.54
260.867	11.48
261.084	25.91
261.302	12.2
261.519	38.83
261.736	41.55
261.953	38.93
262.17	33.36
262.387	93.5
262.604	72.98
262.822	99.57
263.039	119.04
263.256	129.78
263.473	55.53
263.69	84.96
263.907	67.67
264.124	46.82
264.341	22.98
264.558	27.51
264.775	-3.86
264.992	7.13
265.209	21.72
265.426	9.26
265.643	-2.71
265.86	-2.85
266.077	-8.63
266.294	-11.09
266.51	-18.3
266.727	5.35
266.944	19.41
267.161	-2.74
267.378	3.56
267.595	25.26
267.812	-0.16
268.028	-13.17
268.245	6.83
268.462	3.46
268.679	-17.13
268.896	4.79
269.112	0.07
269.329	13.17
269.546	23.28
269.763	30.7
269.979	29.37
270.196	37.77
270.413	25.98
270.629	20.13
270.846	11.82
271.063	11.29
271.279	-24.66
271.496	-80.63
271.712	-140.23
271.929	-128.74
272.146	-108.88
272.362	-98.63
272.579	-40.84
272.795	-11.09
273.012	-9.06
273.228	-4.91
273.445	4.09
273.661	20
273.878	18.13
274.094	11.58
274.311	3.76
274.527	-11.72
274.744	-44.25
274.96	-46.34
275.177	-26.17
275.393	-31.5
275.609	-0.37
275.826	3.73
276.042	13.14
276.259	4.16
276.475	7.92
276.691	-1.41
276.908	6.4
277.124	15.9
277.34	22.97
277.557	-1.56
277.773	-0.93
277.989	2.2
278.205	-12.16
278.422	-43.24
278.638	21.97
278.854	38.24
279.07	29.25
279.286	23.62
279.503	45.4
279.719	17.73
279.935	25.64
280.151	36.89
280.367	52.73
280.583	34.83
280.799	45.86
281.016	2.68
281.232	-4.57
281.448	-43.04
281.664	-13.5
281.88	-19.22
282.096	19.68
282.312	38.39
282.528	52.06
282.744	28.26
282.96	17.94
283.176	30.61
283.392	8.58
283.608	10.72
283.824	12.5
284.04	27.27
284.256	14.28
284.471	12.42
284.687	28.19
284.903	26.26
285.119	17.15
285.335	18.27
285.551	20.22
285.767	-5.85
285.982	-17.44
286.198	-52.48
286.414	-67.81
286.63	-38.55
286.846	-24.22
287.061	-13.08
287.277	3.37
287.493	15.1
287.709	10.1
287.924	28.07
288.14	32.23
288.356	36.87
288.571	41.37
288.787	39.7
289.003	44.4
289.218	36.42
289.434	-2.62
289.65	-25.94
289.865	-3.68
290.081	-15.25
290.296	-5.96
290.512	0.06
290.727	18.58
290.943	7.44
291.159	7.17
291.374	19.7
291.59	21.64
291.805	-0.29
292.021	8.4
292.236	6.07
292.451	-24.8
292.667	-50.94
292.882	-36.14
293.098	-39.9
293.313	-21.04
293.529	-6.75
293.744	4.13
293.959	14.25
294.175	41.21
294.39	29.26
294.605	22.42
294.821	27.09
295.036	8.1
295.251	11.2
295.467	30.38
295.682	25.35
295.897	30.97
296.112	40.69
296.328	37.57
296.543	24.17
296.758	12.88
296.973	15.73
297.188	39.5
297.404	30.04
297.619	24.4
297.834	18.02
298.049	-19.6
298.264	-70.23
298.479	-89.65
298.694	-68.48
298.909	0.94
299.125	27.37
299.34	37.15
299.555	47.5
299.77	40.25
299.985	27.56
300.2	27.33
300.415	25.04
300.63	6.33
300.845	-6.44
301.06	-14.29
301.275	-14.97
301.49	-10.43
301.704	-51.75
301.919	-13.89
302.134	-6.71
302.349	-26.61
302.564	-14.79
302.779	15.95
302.994	19.96
303.209	28.33
303.423	38.77
303.638	15
303.853	-9.72
304.068	-3.77
304.283	-3.63
304.497	3.5
304.712	12.37
304.927	11.62
305.142	19.57
305.356	12.4
305.571	22.32
305.786	31.67
306	33.88
306.215	39.78
306.43	45.58
306.644	48.58
306.859	41.64
307.074	46.49
307.288	38.84
307.503	43.18
307.717	31.24
307.932	17.89
308.147	21.02
308.361	30.47
308.576	8.13
308.79	-5.09
309.005	13.22
309.219	0.86
309.434	-58.41
309.648	-119.67
309.863	-124.89
310.077	-198.89
310.292	-173.88
310.506	-102.44
310.72	-39.24
310.935	-10.85
311.149	17.35
311.364	25.05
311.578	26.32
311.792	49.8
312.007	37.39
312.221	23.5
312.435	43.98
312.649	45.95
312.864	33.44
313.078	34.67
313.292	60.03
313.507	50.49
313.721	43.8
313.935	41.14
314.149	35.74
314.363	22.22
314.578	31.67
314.792	14.83
315.006	1.57
315.22	-2.57
315.434	-31.76
315.648	-121.28
315.862	-112.51
316.077	-71.85
316.291	-83.89
316.505	-10.55
316.719	22.08
316.933	17.25
317.147	5.1
317.361	11.86
317.575	-3.03
317.789	-4.58
318.003	20.74
318.217	57.21
318.431	70.31
318.645	70.84
318.859	57.43
319.073	30.94
319.287	20.01
319.5	38.6
319.714	11.38
319.928	20.25
320.142	29.18
320.356	16.05
320.57	3.87
320.784	13.15
320.997	-6.33
321.211	-0.63
321.425	-30.87
321.639	-40.32
321.853	-42.03
322.066	-19.43
322.28	-19.31
322.494	-1.68
322.707	3.33
322.921	5.38
323.135	3.21
323.349	15.15
323.562	25.53
323.776	26.84
323.989	5.74
324.203	10.54
324.417	-7.14
324.63	-29.89
324.844	-54.31
325.057	-22.79
325.271	-37.1
325.485	-25.28
325.698	-2.06
325.912	23.22
326.125	21.05
326.339	32.98
326.552	34.16
326.766	17
326.979	21.97
327.193	31.88
327.406	27.07
327.619	38.77
327.833	16.38
328.046	5.16
328.26	-29.78
328.473	-45.17
328.686	-19.31
328.9	-0.43
329.113	8.27
329.326	3.7
329.54	8.95
329.753	7.43
329.966	25.88
330.179	26.44
330.393	45.88
330.606	61.81
330.819	45.01
331.032	29.11
331.246	44.86
331.459	19.91
331.672	-0.45
331.885	26.52
332.098	38.17
332.311	30.65
332.525	24.38
332.738	19.17
332.951	4.34
333.164	20
333.377	28.3
333.59	42.07
333.803	52.21
334.016	55.02
334.229	31.05
334.442	14.57
334.655	24.2
334.868	22.37
335.081	20.4
335.294	36.17
335.507	39.23
335.72	35.34
335.933	39.55
336.146	37.09
336.359	17
336.572	11.14
336.785	16.46
336.997	17.12
337.21	39.01
337.423	44.83
337.636	45.51
337.849	37.14
338.062	16.51
338.274	-27.49
338.487	-19.67
338.7	-9.09
338.913	-11.25
339.125	5.72
339.338	20.79
339.551	28.58
339.763	37.4
339.976	37.25
340.189	26.8
340.402	10.61
340.614	9.95
340.827	15.28
341.039	15.92
341.252	17.09
341.465	30.51
341.677	36.02
341.89	9.2
342.102	23.51
342.315	26.4
342.527	25.84
342.74	14.44
342.952	24.24
343.165	17.47
343.377	29.61
343.59	-2.86
343.802	16.49
344.015	3.94
344.227	0.05
344.44	2.85
344.652	30.24
344.864	27.87
345.077	44.99
345.289	37.7
345.502	31.66
345.714	16.6
345.926	29.42
346.139	21.31
346.351	24.84
346.563	1.38
346.775	-9.89
346.988	-70.47
347.2	-72.57
347.412	-106.2
347.624	-20.95
347.837	25.05
348.049	51.73
348.261	53.36
348.473	59.93
348.685	52.16
348.897	37.87
349.11	33.37
349.322	11.19
349.534	-20.53
349.746	-15.4
349.958	-1.24
350.17	16.62
350.382	29.58
350.594	50.33
350.806	37.09
351.018	45.15
351.23	42.14
351.442	29.15
351.654	17.86
351.866	20.87
352.078	1.74
352.29	-13.06
352.502	2.83
352.714	4.4
352.926	19.8
353.138	25.48
353.35	27.23
353.561	27.79
353.773	27.89
353.985	28.47
354.197	35.87
354.409	40.86
354.621	48.61
354.832	63.24
355.044	60.48
355.256	56.38
355.468	56.62
355.679	53.86
355.891	44.63
356.103	36.28
356.314	35.22
356.526	25.53
356.738	12.31
356.949	-7.78
357.161	12.29
357.373	1.05
357.584	7.47
357.796	30.17
358.008	43.56
358.219	23.07
358.431	20.18
358.642	15.35
358.854	20.26
359.065	26.64
359.277	39.32
359.488	36.24
359.7	44.24
359.911	35.21
360.123	34.51
360.334	34.66
360.546	35.61
360.757	30.57
360.969	36.49
361.18	34.9
361.391	17.29
361.603	39.68
361.814	35.06
362.025	40.13
362.237	38.11
362.448	39.88
362.659	36.72
362.871	27.24
363.082	20.1
363.293	8.67
363.504	10.4
363.716	-11.97
363.927	14.26
364.138	7.56
364.349	17.07
364.56	20.83
364.772	43.56
364.983	62.89
365.194	78.59
365.405	67.65
365.616	60.49
365.827	63.11
366.038	57.35
366.25	45.55
366.461	40.99
366.672	39.06
366.883	33.14
367.094	28.51
367.305	20.88
367.516	33.58
367.727	27.25
367.938	15.01
368.149	12.38
368.36	9.86
368.571	-13.41
368.781	-17.28
368.992	-26.72
369.203	-12.43
369.414	-1.42
369.625	-0.12
369.836	0.77
370.047	15.67
370.258	12.4
370.468	11.78
370.679	25.71
370.89	31.73
371.101	21.24
371.312	21.6
371.522	21.19
371.733	4.38
371.944	3.14
372.155	21.33
372.365	16.21
372.576	21.12
372.787	24.43
372.997	33.57
373.208	26.12
373.419	41.7
373.629	41.69
373.84	54.69
374.05	41.68
374.261	47.35
374.472	48.39
374.682	48.3
374.893	44.66
375.103	38.43
375.314	33.21
375.524	24.44
375.735	23.82
375.945	20.33
376.156	26.02
376.366	33.01
376.577	38.44
376.787	41.49
376.997	39.3
377.208	39.35
377.418	34.16
377.629	30.13
377.839	32.4
378.049	26.24
378.26	16.5
378.47	24.23
378.68	33.01
378.89	20.28
379.101	15.18
379.311	21.12
379.521	9.78
379.732	4.72
379.942	11.92
380.152	28.99
380.362	26.24
380.572	31.22
380.783	18.19
380.993	22.73
381.203	13.96
381.413	14.59
381.623	19.85
381.833	28.02
382.043	21.94
382.253	29.14
382.463	35.48
382.674	34.41
382.884	31.62
383.094	31.73
383.304	21.48
383.514	11.79
383.724	-1.38
383.934	5.73
384.144	8.81
384.353	15.91
384.563	25.8
384.773	35.04
384.983	22.45
385.193	21.01
385.403	19.92
385.613	12.83
385.823	1.79
386.033	6.12
386.242	5.22
386.452	6.53
386.662	9.26
386.872	14.13
387.082	19.24
387.291	12.85
387.501	12.75
387.711	14.51
387.921	14.27
388.13	9.47
388.34	14.01
388.55	13.16
388.759	6.56
388.969	2.3
389.179	2.69
389.388	3.75
389.598	6.57
389.807	12.34
390.017	15.54
390.227	18.19
390.436	17.56
390.646	14.24
390.855	11.12
391.065	10.77
391.274	11.3
391.484	12.28
391.693	12.44
391.903	13.89
392.112	14.56
392.322	13.66
392.531	14.11
392.74	13.52
392.95	11.97
393.159	10.62
393.369	9.34
393.578	8.48
393.787	10.04
393.997	11.03
394.206	11.13
394.415	12.72
394.625	14.54
394.834	14.06
395.043	13.35
395.252	14.22
395.462	13.68
395.671	12.23
395.88	12.82
396.089	13.53
396.298	13.31
396.508	12.9
396.717	13.04
396.926	12.33
397.135	11.81
397.344	11.74
397.553	12.57
397.762	13.02
397.971	12.91
398.181	12.75
398.39	12.81
398.599	12.42
398.808	11.75
399.017	12.09
399.226	12.18
399.435	12.15
399.644	12.28
399.853	12.35
400.062	12.03
400.27	12.08
400.479	11.89
400.688	11.84
400.897	12.15
401.106	12.06
401.315	12.03
401.524	12.11
401.733	12.05
401.941	11.94
402.15	11.84
402.359	11.76
402.568	11.75
402.777	11.82
402.985	11.5
403.194	11.58
403.403	11.63
403.612	11.64
403.82	11.54
404.029	11.55
404.238	11.6
404.446	11.51
404.655	11.53
404.864	11.55
405.072	11.47
405.281	11.28
405.489	11.48
405.698	11.61
405.906	11.51
406.115	11.46
406.324	11.76
406.532	11.45
406.741	11.25
406.949	11.06
407.158	11.33
407.366	11.24
407.574	11.37
407.783	11.33
407.991	11.49
408.2	11.38
408.408	11.23
408.617	11.33
408.825	11.27
409.033	11.25
409.242	11.22
409.45	11.16
409.658	10.95
409.867	11.06
410.075	11.12
410.283	11.1
410.491	11.1
410.7	11.37
410.908	11.32
411.116	11.29
411.324	11.27
411.533	11.21
411.741	10.93
411.949	10.88
412.157	10.79
412.365	10.96
412.573	11.02
412.781	11.1
412.99	11.31
413.198	11.41
413.406	11.29
413.614	11.31
413.822	11.31
414.03	11.15
414.238	11.07
414.446	11.06
414.654	11.07
414.862	10.96
415.07	10.9
415.278	10.92
415.486	10.76
415.694	10.68
415.902	10.58
416.109	10.42
416.317	10.42
416.525	10.46
416.733	10.57
416.941	10.72
417.149	10.85
417.357	10.74
417.564	10.6
417.772	10.36
417.98	10.32
418.188	10.17
418.395	10.2
418.603	10.42
418.811	10.58
419.019	10.72
419.226	10.83
419.434	10.84
419.642	10.83
419.849	10.73
420.057	10.66
420.265	10.57
420.472	10.47
420.68	10.37
420.887	10.39
421.095	10.26
421.302	10.08
421.51	10.08
421.717	10.05
421.925	10.04
422.132	10.14
422.34	10.28
422.547	10.3
422.755	10.41
422.962	10.45
423.17	10.39
423.377	10.48
423.585	10.47
423.792	10.28
423.999	10.28
424.207	10.2
424.414	9.94
424.621	9.9
424.829	9.94
425.036	9.94
425.243	10.07
425.451	10.33
425.658	10.36
425.865	10.31
426.072	10.18
426.28	9.84
426.487	9.73
426.694	9.69
426.901	9.75
427.108	9.84
427.315	10
427.523	10.01
427.73	9.92
427.937	9.93
428.144	9.9
428.351	10.01
428.558	10.07
428.765	9.95
428.972	9.88
429.179	9.79
429.386	9.63
429.593	9.74
429.8	9.81
430.007	9.69
430.214	9.81
430.421	9.85
430.628	9.83
430.835	9.97
431.042	10.02
431.249	9.95
431.456	9.93
431.662	10.12
431.869	10.11
432.076	10.22
432.283	10.33
432.49	10.32
432.697	10.1
432.903	9.98
433.11	9.86
433.317	9.7
433.524	9.88
433.73	9.82
433.937	9.88
434.144	9.88
434.35	9.94
434.557	9.77
434.764	9.66
434.97	9.53
435.177	9.74
435.384	9.57
435.59	9.48
435.797	9.71
436.003	9.69
436.21	9.38
436.416	9.43
436.623	9.55
436.829	9.44
437.036	9.41
437.242	9.47
437.449	9.57
437.655	9.57
437.862	9.61
438.068	9.81
438.275	10.03
438.481	9.96
438.687	9.96
438.894	10.06
439.1	9.95
439.307	9.87
439.513	9.8
439.719	9.71
439.926	9.68
440.132	9.78
440.338	9.84
440.544	10.01
440.751	10.16
440.957	10.11
441.163	10.06
441.369	9.95
441.575	9.91
441.782	9.91
441.988	9.8
442.194	9.71
442.4	9.83
442.606	9.76
442.812	9.7
443.018	9.65
443.224	9.64
443.431	9.6
443.637	9.61
443.843	9.54
444.049	9.62
444.255	9.7
444.461	9.64
444.667	9.63
444.873	9.64
445.079	9.59
445.284	9.63
445.49	9.67
445.696	9.79
445.902	9.85
446.108	9.71
446.314	9.59
446.52	9.65
446.726	9.59
446.931	9.52
447.137	9.65
447.343	9.75
447.549	9.75
447.755	9.82
447.96	9.77
448.166	9.8
448.372	9.7
448.578	9.64
448.783	9.73
448.989	9.83
449.195	9.94
449.4	10.07
449.606	10.13
449.812	10
450.017	10.05
450.223	9.95
450.428	9.91
450.634	9.8
450.84	9.82
451.045	9.76
451.251	9.8
451.456	9.8
451.662	9.84
451.867	9.86
452.073	9.96
452.278	9.94
452.483	9.98
452.689	9.98
452.894	10.03
453.1	10.02
453.305	10.05
453.51	9.95
453.716	10.01
453.921	9.97
454.127	9.93
454.332	9.84
454.537	10.07
454.742	10.01
454.948	9.89
455.153	9.87
455.358	9.91
455.563	9.79
455.769	9.7
455.974	9.81
456.179	9.8
456.384	9.76
456.589	9.74
456.795	9.76
457	9.8
457.205	9.79
457.41	9.92
457.615	9.93
457.82	9.94
458.025	9.84
458.23	9.85
458.435	9.86
458.64	9.83
458.845	10.03
459.05	10.04
459.255	10.06
459.46	10.1
459.665	10.14
459.87	10.03
460.075	10.19
460.28	10.22
460.485	10.09
460.69	10.09
460.895	10.05
461.099	10.04
461.304	10.03
461.509	10.15
461.714	10.3
461.919	10.31
462.123	10.24
462.328	10.26
462.533	10.22
462.738	10.21
462.942	10.33
463.147	10.42
463.352	10.49
463.556	10.54
463.761	10.46
463.966	10.46
464.17	10.5
464.375	10.6
464.58	10.6
464.784	10.66
464.989	10.69
465.193	10.53
465.398	10.6
465.602	10.8
465.807	10.85
466.011	10.93
466.216	11.06
466.42	10.93
466.625	10.93
466.829	10.93
467.034	10.87
467.238	10.86
467.443	10.83
467.647	10.59
467.851	10.57
468.056	10.53
468.26	10.54
468.464	10.5
468.669	10.74
468.873	10.67
469.077	10.68
469.282	10.76
469.486	10.84
469.69	10.75
469.894	10.86
470.099	10.85
470.303	10.78
470.507	10.7
470.711	10.66
470.915	10.58
471.119	10.62
471.324	10.65
471.528	10.66
471.732	10.7
471.936	10.81
472.14	10.82
472.344	10.69
472.548	10.73
472.752	10.74
472.956	10.7
473.16	10.72
473.364	10.84
473.568	10.83
473.772	10.88
473.976	10.77
474.18	10.74
474.384	10.78
474.588	10.82
474.792	10.79
474.995	10.87
475.199	10.87
475.403	10.8
475.607	10.84
475.811	10.8
476.015	10.84
476.218	10.78
476.422	10.78
476.626	10.81
476.83	10.81
477.033	10.76
477.237	10.87
477.441	10.81
477.644	10.74
477.848	10.83
478.052	10.81
478.255	10.69
478.459	10.82
478.663	10.73
478.866	10.66
479.07	10.7
479.273	10.77
479.477	10.8
479.681	10.87
479.884	10.89
480.088	10.85
480.291	10.92
480.495	10.82
480.698	10.81
480.901	10.76
481.105	10.73
481.308	10.62
481.512	10.58
481.715	10.6
481.919	10.6
482.122	10.66
482.325	10.69
482.529	10.82
482.732	10.79
482.935	10.77
483.138	10.88
483.342	10.92
483.545	10.81
483.748	10.8
483.952	10.85
484.155	10.74
484.358	10.71
484.561	10.76
484.764	10.72
484.967	10.69
485.171	10.59
485.374	10.58
485.577	10.64
485.78	10.69
485.983	10.67
486.186	10.76
486.389	10.72
486.592	10.67
486.795	10.62
486.998	10.65
487.201	10.65
487.404	10.64
487.607	10.64
487.81	10.59
488.013	10.54
488.216	10.51
488.419	10.55
488.622	10.48
488.825	10.54
489.028	10.45
489.231	10.56
489.433	10.58
489.636	10.57
489.839	10.55
490.042	10.64
490.245	10.57
490.447	10.5
490.65	10.5
490.853	10.52
491.056	10.45
491.258	10.33
491.461	10.37
491.664	10.3
491.866	10.2
492.069	10.25
492.272	10.18
492.474	10.12
492.677	10.08
492.879	10.13
493.082	10.13
493.285	10.2
493.487	10.2
493.69	10.21
493.892	10.24
494.095	10.28
494.297	10.33
494.5	10.35
494.702	10.42
494.905	10.36
495.107	10.22
495.309	10.2
495.512	10.13
495.714	10.03
495.917	10.03
496.119	10.1
496.321	10.06
496.524	10.11
496.726	10.17
496.928	10.14
497.13	10.11
497.333	10.12
497.535	10.16
497.737	10.16
497.939	10.19
498.142	10.16
498.344	10.16
498.546	10.09
498.748	10.08
498.95	10.08
499.152	10.07
499.355	10.05
499.557	10.07
499.759	10.05
499.961	10.06
500.163	10.07
500.365	10.11
500.567	10.1
500.769	10.13
500.971	10.1
501.173	10.12
501.375	10
501.577	10
501.779	10.02
501.981	10.15
502.183	10.15
502.385	10.21
502.587	10.18
502.788	10.07
502.99	9.94
503.192	9.89
503.394	9.86
503.596	9.85
503.798	9.85
503.999	9.89
504.201	9.87
504.403	9.87
504.605	9.91
504.806	9.86
505.008	9.83
505.21	9.77
505.411	9.79
505.613	9.7
505.815	9.73
506.016	9.71
506.218	9.76
506.42	9.73
506.621	9.76
506.823	9.78
507.024	9.77
507.226	9.79
507.427	9.82
507.629	9.81
507.83	9.76
508.032	9.77
508.233	9.8
508.435	9.72
508.636	9.8
508.838	9.83
509.039	9.84
509.24	9.79
509.442	9.86
509.643	9.78
509.845	9.79
510.046	9.77
510.247	9.83
510.448	9.85
510.65	9.9
510.851	9.85
511.052	9.8
511.254	9.75
511.455	9.67
511.656	9.59
511.857	9.56
512.058	9.56
512.26	9.49
512.461	9.47
512.662	9.54
512.863	9.55
513.064	9.6
513.265	9.65
513.466	9.7
513.667	9.7
513.868	9.72
514.069	9.72
514.27	9.71
514.471	9.64
514.672	9.6
514.873	9.49
515.074	9.4
515.275	9.35
515.476	9.38
515.677	9.4
515.878	9.45
516.079	9.5
516.28	9.51
516.481	9.47
516.682	9.39
516.882	9.43
517.083	9.4
517.284	9.46
517.485	9.46
517.686	9.48
517.886	9.46
518.087	9.42
518.288	9.4
518.488	9.46
518.689	9.45
518.89	9.5
519.091	9.5
519.291	9.41
519.492	9.35
519.692	9.36
519.893	9.33
520.094	9.32
520.294	9.37
520.495	9.42
520.695	9.39
520.896	9.34
521.096	9.41
521.297	9.49
521.497	9.46
521.698	9.5
521.898	9.52
522.099	9.45
522.299	9.43
522.499	9.4
522.7	9.36
522.9	9.34
523.101	9.37
523.301	9.33
523.501	9.33
523.702	9.38
523.902	9.4
524.102	9.37
524.302	9.33
524.503	9.28
524.703	9.23
524.903	9.24
525.103	9.32
525.304	9.33
525.504	9.4
525.704	9.4
525.904	9.39
526.104	9.33
526.304	9.35
526.504	9.38
526.705	9.42
526.905	9.44
527.105	9.5
527.305	9.54
527.505	9.46
527.705	9.45
527.905	9.44
528.105	9.38
528.305	9.34
528.505	9.37
528.705	9.36
528.905	9.35
529.105	9.32
529.304	9.3
529.504	9.34
529.704	9.35
529.904	9.35
530.104	9.34
530.304	9.39
530.503	9.33
530.703	9.31
530.903	9.3
531.103	9.32
531.303	9.29
531.502	9.3
531.702	9.25
531.902	9.26
532.101	9.26
532.301	9.22
532.501	9.24
532.7	9.25
532.9	9.28
533.1	9.28
533.299	9.29
533.499	9.27
533.698	9.29
533.898	9.28
534.097	9.32
534.297	9.36
534.496	9.38
534.696	9.42
534.895	9.41
535.095	9.39
535.294	9.4
535.494	9.39
535.693	9.39
535.892	9.39
536.092	9.42
536.291	9.36
536.491	9.41
536.69	9.39
536.889	9.35
537.088	9.3
537.288	9.32
537.487	9.29
537.686	9.32
537.886	9.37
538.085	9.37
538.284	9.4
538.483	9.45
538.682	9.43
538.882	9.38
539.081	9.38
539.28	9.37
539.479	9.36
539.678	9.32
539.877	9.35
540.076	9.36
540.275	9.36
540.474	9.32
540.673	9.34
540.872	9.35
541.071	9.38
541.27	9.39
541.469	9.31
541.668	9.34
541.867	9.41
542.066	9.47
542.265	9.6
542.464	9.74
542.663	9.77
542.862	9.8
543.06	9.8
543.259	9.73
543.458	9.73
543.657	9.78
543.856	9.74
544.054	9.78
544.253	9.77
544.452	9.81
544.651	9.8
544.849	9.85
545.048	9.84
545.247	9.92
545.445	9.9
545.644	9.88
545.843	9.9
546.041	9.87
546.24	9.87
546.438	9.87
546.637	9.93
546.836	9.96
547.034	10.04
547.233	10.03
547.431	10.1
547.63	10.1
547.828	10.08
548.027	10.1
548.225	10.18
548.423	10.2
548.622	10.25
548.82	10.25
549.019	10.24
549.217	10.22
549.415	10.21
549.614	10.23
549.812	10.22
550.01	10.3
550.209	10.33
550.407	10.39
550.605	10.39
550.803	10.48
551.002	10.52
551.2	10.58
551.398	10.72
551.596	10.78
551.794	10.87
551.993	10.87
552.191	10.9
552.389	10.78
552.587	10.76
552.785	10.71
552.983	10.8
553.181	10.81
553.379	10.92
553.577	11.04
553.775	11.09
553.973	11.03
554.171	11.11
554.369	11.14
554.567	11.16
554.765	11.21
554.963	11.25
555.161	11.27
555.359	11.26
555.557	11.28
555.755	11.31
555.952	11.38
556.15	11.37
556.348	11.47
556.546	11.52
556.744	11.59
556.941	11.69
557.139	11.76
557.337	11.81
557.535	11.88
557.732	11.91
557.93	11.98
558.128	12
558.325	12.06
558.523	12.09
558.721	12.12
558.918	12.1
559.116	12.17
559.313	12.13
559.511	12.27
559.708	12.33
559.906	12.47
560.104	12.52
560.301	12.65
560.498	12.61
560.696	12.71
560.893	12.73
561.091	12.78
561.288	12.85
561.486	12.86
561.683	12.86
561.88	12.81
562.078	12.86
562.275	12.85
562.473	12.94
562.67	12.98
562.867	13.03
563.064	13.1
563.262	13.15
563.459	13.22
563.656	13.25
563.853	13.4
564.051	13.32
564.248	13.4
564.445	13.37
564.642	13.36
564.839	13.35
565.036	13.57
565.234	13.63
565.431	13.79
565.628	13.82
565.825	13.87
566.022	13.9
566.219	13.96
566.416	13.91
566.613	14.06
566.81	14.12
567.007	14.13
567.204	14.1
567.401	14.12
567.598	14.2
567.795	14.2
567.991	14.26
568.188	14.35
568.385	14.32
568.582	14.36
568.779	14.33
568.976	14.35
569.172	14.39
569.369	14.47
569.566	14.47
569.763	14.52
569.96	14.57
570.156	14.58
570.353	14.6
570.55	14.68
570.746	14.68
570.943	14.65
571.14	14.65
571.336	14.66
571.533	14.55
571.729	14.65
571.926	14.74
572.123	14.69
572.319	14.75
572.516	14.82
572.712	14.83
572.909	14.83
573.105	14.88
573.302	14.9
573.498	14.86
573.695	14.76
573.891	14.7
574.087	14.65
574.284	14.68
574.48	14.67
574.677	14.68
574.873	14.64
575.069	14.72
575.266	14.64
575.462	14.63
575.658	14.73
575.854	14.84
576.051	14.83
576.247	14.8
576.443	14.88
576.639	14.89
576.835	14.73
577.032	14.61
577.228	14.7
577.424	14.6
577.62	14.51
577.816	14.48
578.012	14.59
578.208	14.51
578.404	14.59
578.6	14.63
578.796	14.73
578.993	14.71
579.189	14.74
579.384	14.65
579.58	14.64
579.776	14.59
579.972	14.54
580.168	14.43
580.364	14.41
580.56	14.31
580.756	14.26
580.952	14.21
581.148	14.26
581.343	14.23
581.539	14.3
581.735	14.27
581.931	14.26
582.127	14.15
582.322	14.16
582.518	14.1
582.714	14.14
582.909	14.18
583.105	14.19
583.301	14.17
583.496	14.16
583.692	14.14
583.888	14
584.083	14.01
584.279	14.03
584.474	14
584.67	13.93
584.866	13.98
585.061	13.95
585.257	13.88
585.452	13.82
585.648	13.87
585.843	13.83
586.039	13.82
586.234	13.89
586.429	13.8
586.625	13.8
586.82	13.82
587.015	13.76
587.211	13.58
587.406	13.65
587.601	13.65
587.797	13.62
587.992	13.59
588.187	13.69
588.383	13.7
588.578	13.69
588.773	13.67
588.968	13.82
589.163	13.74
589.359	13.68
589.554	13.61
589.749	13.71
589.944	13.67
590.139	13.74
590.334	13.75
590.529	13.8
590.724	13.84
590.919	13.92
591.114	13.94
591.309	13.95
591.504	13.97
591.699	13.88
591.894	13.67
592.089	13.7
592.284	13.72
592.479	13.75
592.674	13.72
592.869	13.84
593.064	13.94
593.259	13.97
593.454	13.89
593.648	14
593.843	14.04
594.038	13.96
594.233	14.05
594.428	14.16
594.622	14.12
594.817	14.18
595.012	14.17
595.206	14.22
595.401	14.37
595.596	14.43
595.79	14.42
595.985	14.48
596.18	14.45
596.374	14.33
596.569	14.38
596.763	14.51
596.958	14.6
597.153	14.58
597.347	14.66
597.542	14.64
597.736	14.6
597.931	14.67
598.125	14.8
598.319	14.91
598.514	15.01
598.708	15.01
598.903	14.99
599.097	15.08
599.291	15.04
599.486	15.12
599.68	15.2
599.874	15.22
600.069	15.17
600.263	15.24
600.457	15.25
600.651	15.27
600.846	15.26
601.04	15.24
601.234	15.17
601.428	15.16
601.622	15.22
601.817	15.29
602.011	15.36
602.205	15.45
602.399	15.44
602.593	15.4
602.787	15.37
602.981	15.38
603.175	15.31
603.369	15.24
603.563	15.25
603.757	15.24
603.951	15.17
604.145	15.1
604.339	15.12
604.533	15.07
604.727	15.14
604.921	15.14
605.115	15.2
605.309	15.19
605.502	15.22
605.696	15.15
605.89	15.18
606.084	15.29
606.278	15.26
606.471	15.24
606.665	15.14
606.859	15.02
607.053	14.87
607.246	14.92
607.44	14.85
607.634	14.92
607.827	15
608.021	14.95
608.214	14.83
608.408	14.8
608.602	14.75
608.795	14.64
608.989	14.61
609.182	14.64
609.376	14.64
609.569	14.57
609.763	14.46
609.956	14.44
610.15	14.3
610.343	14.18
610.537	14.05
610.73	14.03
610.923	14.05
611.117	14.02
611.31	14.03
611.504	14.08
611.697	14.12
611.89	13.98
612.083	13.95
612.277	13.83
612.47	13.8
612.663	13.65
612.856	13.71
613.05	13.7
613.243	13.7
613.436	13.59
613.629	13.61
613.822	13.49
614.015	13.4
614.209	13.26
614.402	13.3
614.595	13.25
614.788	13.21
614.981	13.08
615.174	13.1
615.367	12.9
615.56	12.84
615.753	12.82
615.946	12.82
616.139	12.79
616.332	12.78
616.525	12.73
616.718	12.6
616.911	12.6
617.103	12.54
617.296	12.61
617.489	12.61
617.682	12.67
617.875	12.64
618.067	12.57
618.26	12.4
618.453	12.24
618.646	12.2
618.838	12.07
619.031	12.05
619.224	12.03
619.417	12.12
619.609	12.07
619.802	12.17
619.994	12.15
620.187	12.23
620.38	12.18
620.572	12.16
620.765	12.19
620.957	12.19
621.15	12.18
621.342	12.18
621.535	12.12
621.727	11.97
621.92	11.88
622.112	11.72
622.305	11.78
622.497	11.83
622.69	11.76
622.882	11.8
623.074	11.92
623.267	11.8
623.459	11.75
623.651	11.83
623.844	11.78
624.036	11.73
624.228	11.74
624.42	11.68
624.613	11.63
624.805	11.64
624.997	11.67
625.189	11.61
625.381	11.66
625.574	11.67
625.766	11.67
625.958	11.64
626.15	11.7
626.342	11.6
626.534	11.59
626.726	11.55
626.918	11.46
627.11	11.37
627.302	11.37
627.494	11.35
627.686	11.34
627.878	11.36
628.07	11.38
628.262	11.39
628.454	11.31
628.646	11.31
628.838	11.31
629.029	11.24
629.221	11.16
629.413	11.16
629.605	11.11
629.797	11.07
629.989	11.06
630.18	11.09
630.372	10.99
630.564	10.96
630.755	10.89
630.947	10.9
631.139	10.84
631.33	10.85
631.522	10.88
631.714	10.91
631.905	10.87
632.097	10.88
632.289	10.97
632.48	10.97
632.672	10.93
632.863	10.89
633.055	10.86
633.246	10.8
633.438	10.78
633.629	10.74
633.821	10.75
634.012	10.69
634.203	10.68
634.395	10.61
634.586	10.73
634.777	10.76
634.969	10.76
635.16	10.78
635.351	10.85
635.543	10.79
635.734	10.75
635.925	10.78
636.117	10.79
636.308	10.78
636.499	10.75
636.69	10.73
636.881	10.79
637.073	10.76
637.264	10.76
637.455	10.72
637.646	10.72
637.837	10.57
638.028	10.5
638.219	10.44
638.41	10.53
638.601	10.56
638.792	10.62
638.983	10.65
639.174	10.62
639.365	10.5
639.556	10.44
639.747	10.55
639.938	10.66
640.129	10.69
640.32	10.77
640.511	10.79
640.701	10.72
640.892	10.61
641.083	10.6
641.274	10.56
641.465	10.48
641.655	10.43
641.846	10.36
642.037	10.34
642.228	10.29
642.418	10.29
642.609	10.29
642.8	10.33
642.99	10.25
643.181	10.17
643.372	10.25
643.562	10.25
643.753	10.19
643.943	10.15
644.134	10.26
644.324	10.28
644.515	10.32
644.705	10.27
644.896	10.34
645.086	10.35
645.277	10.33
645.467	10.36
645.658	10.44
645.848	10.4
646.038	10.31
646.229	10.35
646.419	10.28
646.61	10.38
646.8	10.44
646.99	10.47
647.18	10.29
647.371	10.19
647.561	10.14
647.751	10.21
647.941	10.2
648.132	10.27
648.322	10.37
648.512	10.29
648.702	10.2
648.892	10.18
649.082	10.17
649.272	10.11
649.462	10.16
649.653	10.19
649.843	10.2
650.033	10.25
650.223	10.18
650.413	10.08
650.603	10.15
650.793	10.16
650.983	10.14
651.172	10.2
651.362	10.21
651.552	10.03
651.742	9.94
651.932	9.89
652.122	9.94
652.312	9.93
652.502	9.93
652.691	9.93
652.881	9.95
653.071	9.92
653.261	9.83
653.45	9.89
653.64	9.9
653.83	9.91
654.019	9.86
654.209	9.82
654.399	9.63
654.588	9.56
654.778	9.46
654.968	9.36
655.157	9.38
655.347	9.44
655.536	9.39
655.726	9.26
655.915	9.21
656.105	9.12
656.294	9
656.484	9.03
656.673	8.99
656.863	9.01
657.052	9.01
657.241	8.94
657.431	8.82
657.62	8.84
657.809	8.69
657.999	8.58
658.188	8.59
658.377	8.57
658.567	8.5
658.756	8.52
658.945	8.51
659.134	8.39
659.324	8.32
659.513	8.24
659.702	8.15
659.891	8.09
660.08	8.09
660.269	8.06
660.458	7.98
660.648	7.98
660.837	7.86
661.026	7.7
661.215	7.63
661.404	7.68
661.593	7.48
661.782	7.54
661.971	7.64
662.16	7.55
662.349	7.47
662.538	7.56
662.726	7.45
662.915	7.48
663.104	7.51
663.293	7.45
663.482	7.45
663.671	7.43
663.86	7.36
664.048	7.3
664.237	7.32
664.426	7.26
664.615	7.23
664.803	7.22
664.992	7.21
665.181	7.25
665.369	7.29
665.558	7.26
665.747	7.28
665.935	7.33
666.124	7.34
666.312	7.23
666.501	7.38
666.69	7.35
666.878	7.29
667.067	7.23
667.255	7.46
667.444	7.5
667.632	7.58
667.82	7.67
668.009	7.63
668.197	7.58
668.386	7.44
668.574	7.37
668.762	7.47
668.951	7.65
669.139	7.56
669.327	7.59
669.516	7.58
669.704	7.51
669.892	7.42
670.08	7.42
670.269	7.42
670.457	7.47
670.645	7.31
670.833	7.29
671.021	7.42
671.21	7.52
671.398	7.51
671.586	7.59
671.774	7.63
671.962	7.69
672.15	7.83
672.338	7.87
672.526	8.01
672.714	8.25
672.902	8.11
673.09	7.94
673.278	7.99
673.466	8.07
673.654	8.04
673.842	8.25
674.03	8.53
674.218	8.6
674.405	8.72
674.593	8.65
674.781	8.67
674.969	8.54
675.157	8.59
675.344	8.46
675.532	8.62
675.72	8.68
675.908	8.73
676.095	8.83
676.283	8.98
676.471	8.88
676.658	8.8
676.846	8.83
677.033	8.69
677.221	8.66
677.409	8.67
677.596	8.69
677.784	8.79
677.971	8.98
678.159	9.01
678.346	9.16
678.534	9.25
678.721	9.24
678.909	9.34
679.096	9.47
679.283	9.33
679.471	9.39
679.658	9.35
679.846	9.24
680.033	9.4
680.22	9.63
680.408	9.65
680.595	9.73
680.782	9.77
680.969	9.68
681.157	9.52
681.344	9.57
681.531	9.75
681.718	9.8
681.905	9.77
682.093	10.03
682.28	10.13
682.467	10.09
682.654	10.08
682.841	10.1
683.028	10.03
683.215	10.1
683.402	10.2
683.589	10.35
683.776	10.5
683.963	10.64
684.15	10.7
684.337	10.8
684.524	10.92
684.711	10.93
684.898	11.01
685.085	10.91
685.271	10.88
685.458	10.8
685.645	10.72
685.832	10.45
686.019	10.58
686.205	10.67
686.392	10.95
686.579	11.27
686.766	11.74
686.952	11.89
687.139	12.02
687.326	11.9
687.512	12.07
687.699	12.22
687.886	12.45
688.072	12.49
688.259	12.72
688.445	12.64
688.632	12.57
688.818	12.75
689.005	12.92
689.191	13.12
689.378	13.54
689.564	13.87
689.751	13.92
689.937	14.14
690.124	14.35
690.31	14.33
690.496	14.71
690.683	15.02
690.869	15.2
691.055	15.55
691.242	15.85
691.428	16.07
691.614	16.27
691.8	16.74
691.987	17.04
692.173	17.4
692.359	17.85
692.545	18.23
692.731	18.59
692.918	18.9
693.104	19.43
693.29	19.62
693.476	20.16
693.662	20.45
693.848	21.03
694.034	21.33
694.22	22.04
694.406	22.38
694.592	22.75
694.778	22.95
694.964	23.57
695.15	23.61
695.336	23.95
695.522	24.56
695.708	25.12
695.894	25.46
696.08	25.93
696.265	26.71
696.451	27.21
696.637	27.61
696.823	28.25
697.009	28.83
697.194	29.07
697.38	29.46
697.566	30.06
697.751	30.3
697.937	30.84
698.123	31.44
698.308	31.95
698.494	32.34
698.68	32.96
698.865	33.46
699.051	33.83
699.236	34.46
699.422	34.93
699.607	35.53
699.793	36.04
699.978	36.76
700.164	37.15
700.349	37.71
700.535	37.88
700.72	38.17
700.906	38.5
701.091	39.09
701.276	39.47
701.462	39.92
701.647	40.58
701.832	40.74
702.018	40.93
702.203	41.53
702.388	41.9
702.573	42.2
702.759	43.17
702.944	43.46
703.129	43.72
703.314	44.27
703.499	44.64
703.684	44.95
703.87	45.33
704.055	45.6
704.24	46.19
704.425	46.45
704.61	46.56
704.795	47.4
704.98	48.13
705.165	48.37
705.35	49
705.535	49.44
705.72	49.72
705.905	49.74
706.09	50.15
706.275	50.4
706.459	50.5
706.644	50.43
706.829	50.66
707.014	51.26
707.199	51.63
707.384	51.73
707.568	52.3
707.753	52.97
707.938	52.58
708.123	52.43
708.307	52.91
708.492	53.18
708.677	53.28
708.861	53.83
709.046	54.17
709.231	54.48
709.415	54.52
709.6	54.69
709.784	54.58
709.969	55.1
710.153	55.16
710.338	55.44
710.522	55.4
710.707	55.54
710.891	55.52
711.076	56.07
711.26	56.32
711.445	56.85
711.629	57.21
711.813	57.54
711.998	57.25
712.182	57.18
712.366	57.38
712.551	57.24
712.735	57.34
712.919	57.36
713.103	57.79
713.288	57.85
713.472	58.19
713.656	57.99
713.84	58.42
714.024	58.44
714.208	58.5
714.393	58.42
714.577	58.85
714.761	58.77
714.945	59.25
715.129	59.36
715.313	59.93
715.497	60.27
715.681	60.6
715.865	60.28
716.049	60.58
716.233	60.53
716.417	60.28
716.601	60.1
716.785	60.54
716.968	60.56
717.152	60.97
717.336	61.45
717.52	62.04
717.704	61.8
717.888	62.02
718.071	62.28
718.255	62.37
718.439	62.28
718.622	62.2
718.806	62.64
718.99	62.14
719.174	62.02
719.357	61.89
719.541	62.59
719.724	61.77
719.908	62.26
720.092	62.17
720.275	62.82
720.459	62.8
720.642	63.27
720.826	63.65
721.009	64.18
721.193	63.75
721.376	63.98
721.559	64.26
721.743	64.2
721.926	64.03
722.11	64.3
722.293	64.01
722.476	64.21
722.66	64.36
722.843	64.56
723.026	64.94
723.21	65.04
723.393	64.78
723.576	64.7
723.759	64.98
723.942	65.14
724.126	65.75
724.309	66.17
724.492	66.46
724.675	66.32
724.858	66.77
725.041	66.41
725.224	66.3
725.407	66.86
725.59	67.84
725.774	68.07
725.957	68.48
726.14	68.74
726.322	68.1
726.505	67.71
726.688	67.22
726.871	67.35
727.054	67.62
727.237	68.43
727.42	68.83
727.603	69.15
727.786	69.66
727.968	69.76
728.151	69.59
728.334	69.16
728.517	69.46
728.699	69.44
728.882	69.74
729.065	70.02
729.248	70.5
729.43	70.29
729.613	70.25
729.796	70.35
729.978	70.49
730.161	70.33
730.343	71.48
730.526	71.33
730.708	71.24
730.891	70.83
731.073	71.17
731.256	70.58
731.438	70.5
731.621	70.62
731.803	71.32
731.986	71.93
732.168	72.22
732.35	72.76
732.533	73.95
732.715	73.51
732.898	73.22
733.08	73.76
733.262	74.39
733.444	73.62
733.627	74.51
733.809	74.69
733.991	74.7
734.173	74.8
734.355	74.92
734.538	74.67
734.72	75.11
734.902	75.17
735.084	75.36
735.266	75.92
735.448	76.1
735.63	76.64
735.812	76.67
735.994	76.38
736.176	76.83
736.358	77.88
736.54	77.38
736.722	77.6
736.904	77.71
737.086	77.31
737.268	76.34
737.45	76.84
737.632	77.07
737.814	77.57
737.995	78.42
738.177	78.93
738.359	78.97
738.541	78.77
738.723	79.04
738.904	77.93
739.086	78.68
739.268	78.94
739.449	79.78
739.631	79.44
739.813	80.04
739.994	79.94
740.176	79.65
740.358	79.22
740.539	80.89
740.721	80.74
740.902	80.79
741.084	80.85
741.265	81.15
741.447	79.99
741.628	80.23
741.81	79.66
741.991	81.04
742.172	80.22
742.354	80.42
742.535	81.19
742.717	82.16
742.898	81.95
743.079	83.22
743.261	84.47
743.442	85.06
743.623	84.62
743.804	84.1
743.986	83.87
744.167	82.37
744.348	81.14
744.529	81.49
744.71	80.99
744.891	81.3
745.073	81.02
745.254	82.01
745.435	81.9
745.616	82.31
745.797	81.67
745.978	82.91
746.159	83.63
746.34	84.93
746.521	85.8
746.702	87.2
746.883	87.1
747.064	86.39
747.245	85.27
747.426	85.13
747.606	84.14
747.787	83.31
747.968	83.86
748.149	83.68
748.33	82.52
748.51	83.13
748.691	83.03
748.872	81.66
749.053	81.6
749.233	82.83
749.414	82.91
749.595	83.53
749.775	85.01
749.956	85.53
750.137	84.48
750.317	83.57
750.498	83.97
750.678	83.82
750.859	85.92
751.04	87.13
751.22	86.21
751.4	85.03
751.581	83.97
751.761	81.46
751.942	81.41
752.122	82.76
752.303	83.2
752.483	84.1
752.663	85.18
752.844	85.11
753.024	84.89
753.204	85.65
753.385	85.4
753.565	85
753.745	84.2
753.925	85.69
754.106	85.37
754.286	85.34
754.466	83.94
754.646	83.97
754.826	83.36
755.006	83.43
755.187	83.77
755.367	85.53
755.547	84.83
755.727	84.01
755.907	84.67
756.087	84.5
756.267	84.36
756.447	84.42
756.627	83.69
756.807	85.23
756.987	85.1
757.167	84.16
757.346	85.4
757.526	86.14
757.706	83.41
757.886	83.4
758.066	83.72
758.246	83.33
758.425	83.14
758.605	83.92
758.785	84.73
758.965	85.02
759.144	86.51
759.324	87.4
759.504	87.5
759.683	88.02
759.863	87.35
760.043	85.86
760.222	87.37
760.402	87.33
760.581	86.84
760.761	87.49
760.94	86.58
761.12	84.37
761.299	84.52
761.479	82.88
761.658	82.47
761.838	82.87
762.017	82.51
762.197	83.45
762.376	84.4
762.555	83.77
762.735	83.76
762.914	83.15
763.093	81.78
763.273	80.97
763.452	82.16
763.631	83.78
763.81	84.96
763.99	84.92
764.169	85.86
764.348	85.65
764.527	83.98
764.706	85.61
764.885	85.37
765.064	83.68
765.243	83.59
765.423	83.13
765.602	80.74
765.781	80.91
765.96	80.6
766.139	80.79
766.318	81.41
766.497	81.85
766.676	80.57
766.854	81.34
767.033	79.76
767.212	81.12
767.391	82.23
767.57	82.86
767.749	82.75
767.928	83.05
768.106	81.54
768.285	81.03
768.464	80.11
768.643	80.27
768.821	80.1
769	80.59
769.179	80.57
769.357	82.96
769.536	84.43
769.715	85.46
769.893	84.77
770.072	84.78
770.25	83.55
770.429	82.71
770.607	80.24
770.786	81.91
770.964	79.34
771.143	80.15
771.321	80.42
771.5	86.33
771.678	87.11
771.857	88.34
772.035	86.59
772.213	85.9
772.392	81.23
772.57	79.5
772.748	82
772.927	82.67
773.105	81.33
773.283	82.24
773.461	81.43
773.64	79.69
773.818	77.88
773.996	80.14
774.174	80.05
774.352	79.58
774.531	78.54
774.709	79.67
774.887	79.84
775.065	80.33
775.243	80.24
775.421	79.87
775.599	81.97
775.777	80.19
775.955	77.24
776.133	79.84
776.311	81.28
776.489	81.1
776.667	80.68
776.844	83.59
777.022	80.63
777.2	83.11
777.378	81.24
777.556	82.73
777.734	82.13
777.911	82.39
778.089	81.86
778.267	82.12
778.445	81.22
778.622	80.31
778.8	81.12
778.978	77.43
779.155	76.75
779.333	75.65
779.511	73.58
779.688	72.81
779.866	72.56
780.043	73.34
780.221	72.39
780.398	76.39
780.576	76.42
780.753	79.46
780.931	80.81
781.108	81.26
781.286	78.11
781.463	78.49
781.64	77.04
781.818	74.64
781.995	75.69
782.172	77.7
782.35	79.46
782.527	77.09
782.704	79.5
782.882	79.56
783.059	78.65
783.236	74.16
783.413	77.48
783.59	77.41
783.768	76.68
783.945	76.41
784.122	82.12
784.299	81.23
784.476	81.45
784.653	82.61
784.83	85.26
785.007	80.49
785.184	81.71
785.361	81.86
785.538	81.69
785.715	77.54
785.892	78.9
786.069	76.44
786.246	75.6
786.423	78.03
786.6	83.19
786.776	83.16
786.953	83.74
787.13	80.7
787.307	79.17
787.484	78.77
787.66	78.1
787.837	78.64
788.014	81.97
788.191	83.88
788.367	79.63
788.544	84.73
788.721	81.3
788.897	78.02
789.074	77.67
789.25	76.23
789.427	70.62
789.603	76.78
789.78	77.83
789.956	74.25
790.133	75.26
790.309	78.22
790.486	75.46
790.662	78.99
790.839	77.81
791.015	80.54
791.192	80.2
791.368	80.7
791.544	78.57
791.721	82.12
791.897	83.17
792.073	83.82
792.249	81.13
792.426	79.7
792.602	77.81
792.778	76.2
792.954	75.61
793.13	78.76
793.307	79.72
793.483	81.1
793.659	79.67
793.835	80.79
794.011	81.41
794.187	76.92
794.363	76.3
794.539	78.95
794.715	72.69
794.891	68.35
795.067	72.19
795.243	70.9
795.419	72.58
795.595	71.23
795.771	69.89
795.947	71.96
796.122	71.21
796.298	67.97
796.474	74.51
796.65	73.04
796.826	69.58
797.001	73.79
797.177	76.29
797.353	74.49
797.529	79.74
797.704	83.23
797.88	84.57
798.056	76.53
798.231	76.67
798.407	74.12
798.582	73.23
798.758	73.7
798.934	78.01
799.109	83.31
799.285	86.99
799.46	88.31
799.636	86.02
799.811	86.45
799.986	89.34
800.162	88.61
800.337	87.13
800.513	88.66
800.688	90.04
800.863	81.16
801.039	82.91
801.214	78.48
801.389	72.55
801.565	74.38
801.74	76.49
801.915	69.61
802.09	74.78
802.265	76.81
802.441	77.38
802.616	75.26
802.791	80.34
802.966	82.03
803.141	80.23
803.316	74.88
803.491	72.59
803.666	66.79
803.841	62.06
804.016	70.24
804.191	74.93
804.366	76.45
804.541	80.75
804.716	81.51
804.891	74.62
805.066	72.12
805.241	77.25
805.416	75.35
805.591	81.2
805.765	77.96
805.94	70.61
806.115	68.19
806.29	65.81
806.464	64.59
806.639	70.33
806.814	73.23
806.989	72.17
807.163	76.72
807.338	70.71
807.512	68.07
807.687	67.9
807.862	60.95
808.036	58.12
808.211	58.63
808.385	60.76
808.56	67.45
808.734	77.57
808.909	83.57
809.083	86.64
809.258	84.7
809.432	74.58
809.606	70.07
809.781	66.25
809.955	62.86
810.13	63.73
810.304	64.33
810.478	61.78
810.652	63.83
810.827	56.09
811.001	50.93
811.175	65
811.349	62.19
811.524	72.98
811.698	91.77
811.872	91.97
812.046	95.69
812.22	91.13
812.394	79.19
812.568	77.36
812.742	82.18
812.916	69.74
813.09	92.07
813.264	88.22
813.438	76.53
813.612	72.29
813.786	75.52
813.96	51.4
814.134	62.89
814.308	75.13
814.482	82.72
814.656	85.54
814.83	87.37
815.003	88.96
815.177	81.25
815.351	69.93
815.525	64.16
815.698	68.86
815.872	64.34
816.046	67.11
816.219	65.89
816.393	71.72
816.567	80.59
816.74	78.71
816.914	96.49
817.088	115.46
817.261	125.42
817.435	99.22
817.608	110.4
817.782	70.35
817.955	77.33
818.129	74.78
818.302	72.16
818.475	80.79
818.649	100.36
818.822	85.03
818.996	75.84
819.169	76.11
819.342	64.28
819.516	59.22
819.689	69.4
819.862	81.58
820.035	93.07
820.209	83.56
820.382	79.66
820.555	83.76
820.728	79.84
820.901	59.81
821.075	75.69
821.248	78.97
821.421	67.19
821.594	64.99
821.767	84.23
821.94	72.17
822.113	69.06
822.286	81.28
822.459	83.62
822.632	76.48
822.805	89.71
822.978	104.5
823.151	105.3
823.324	115.66
823.496	101.85
823.669	84.4
823.842	89.56
824.015	78.78
824.188	72.32
824.361	69.65
824.533	81.32
824.706	55.14
824.879	72.15
825.051	74.81
825.224	87.38
825.397	91.38
825.569	97.67
825.742	83.23
825.915	65
826.087	60.82
826.26	47.43
826.432	49.59
826.605	46.51
826.777	55.54
826.95	59.27
827.122	73.25
827.295	62.92
827.467	65.11
827.64	48.71
827.812	49.8
827.984	56.05
828.157	60.51
828.329	69.57
828.501	91.01
828.674	86.34
828.846	71.33
829.018	67.8
829.19	73.59
829.363	63.39
829.535	68.64
829.707	73.41
829.879	78.82
830.051	60.56
830.223	67.86
830.395	51.28
830.568	45.05
830.74	58.72
830.912	63.23
831.084	68.74
831.256	75.1
831.428	81.82
831.6	73.66
831.772	79.74
831.943	65.36
832.115	55.92
832.287	61.48
832.459	62.52
832.631	59.21
832.803	63.08
832.975	76.49
833.146	69.28
833.318	47.23
833.49	48.66
833.662	44.85
833.833	51.99
834.005	46.86
834.177	63.03
834.348	66.34
834.52	68.38
834.692	72.05
834.863	72.63
835.035	72.07
835.206	65.98
835.378	79.65
835.549	72.3
835.721	74.28
835.892	73.11
836.064	73.21
836.235	75.23
836.407	84.26
836.578	80.01
836.749	81.83
836.921	86.23
837.092	63.84
837.264	48.04
837.435	47.77
837.606	50.54
837.777	23.94
837.949	43.81
838.12	12.12
838.291	17.33
838.462	48.05
838.633	61.19
838.805	75.11
838.976	106.04
839.147	109.4
839.318	106.73
839.489	81.23
839.66	104.51
839.831	92.88
840.002	107.84
840.173	75.25
840.344	89.63
840.515	51.35
840.686	71.88
840.857	56.98
841.028	66.8
841.199	71.13
841.369	60.53
841.54	66.66
841.711	83.22
841.882	75.44
842.053	69.27
842.223	100.45
842.394	78.85
842.565	73.4
842.736	77.89
842.906	64.87
843.077	70.97
843.248	80.21
843.418	97.78
843.589	120.61
843.759	175.98
843.93	293.21
844.101	265.11
844.271	63.48
844.442	29.98
844.612	40.35
844.783	66.76
844.953	56.84
845.123	55.52
845.294	52.92
845.464	53.83
845.635	47.57
845.805	65.98
845.975	69.76
846.146	99.89
846.316	107.03
846.486	114.34
846.656	85.79
846.827	89.19
846.997	49.59
847.167	28.98
847.337	13.66
847.507	24.78
847.677	11.59
847.848	39.55
848.018	70.87
848.188	86.83
848.358	52.82
848.528	95.26
848.698	100.78
848.868	86.73
849.038	83.34
849.208	162.15
849.378	112.97
849.548	51.34
849.718	149.87
849.887	-136.66
850.057	361.29
850.227	343.35
850.397	-34.9
850.567	59.99
850.737	69.52
850.906	56.45
851.076	80.5
851.246	62.9
851.415	43.22
851.585	35.24
851.755	51.66
851.924	54.94
852.094	66.52
852.264	70.28
852.433	54.81
852.603	55.79
852.772	45.98
852.942	39.45
853.111	24.54
853.281	65.68
853.45	55.6
853.62	76.09
853.789	85.11
853.959	202.18
854.128	-119.45
854.297	-104.87
854.467	-36.04
854.636	85.92
854.805	138.45
854.975	72.45
855.144	62.09
855.313	63.42
855.482	71.51
855.652	32.37
855.821	20.52
855.99	79.76
856.159	365.82
856.328	161.54
856.497	230.46
856.667	205.42
856.836	150.22
857.005	131.34
857.174	118.66
857.343	119.17
857.512	52.88
857.681	45.97
857.85	-19.51
858.019	-3.41
858.188	27.57
858.356	37.04
858.525	44.22
858.694	50.01
858.863	21.37
859.032	-39.53
859.201	13.33
859.369	23.24
859.538	8.66
859.707	17.75
859.876	41.8
860.044	31.5
860.213	48.59
860.382	89.08
860.55	77.12
860.719	56.52
860.888	32.79
861.056	26.58
861.225	47.24
861.393	120.46
861.562	169.54
861.73	234.48
861.899	163.92
862.067	280.1
862.236	85.82
862.404	34.2
862.572	3.13
862.741	-43.43
862.909	3.07
863.078	49.38
863.246	64.04
863.414	80.15
863.582	59.44
863.751	123.84
863.919	139.33
864.087	105.79
864.255	81.59
864.424	34.16
864.592	-47.35
864.76	17.62
864.928	39.57
865.096	82.38
865.264	91.02
865.432	110.75
865.6	117.3
865.768	36.77
865.936	-50.93
866.104	-265.39
866.272	17.91
866.44	-22.68
866.608	24.84
866.776	55.42
866.944	75.46
867.112	47.33
867.28	41.79
867.448	50.86
867.615	42.73
867.783	58.74
867.951	38.36
868.119	83.91
868.286	142.56
868.454	88.75
868.622	35.7
868.789	338.25
868.957	-181
869.125	122.42
869.292	-151.66
869.46	-120.1
869.627	-498.29
869.795	-87.99
869.963	-14.35
870.13	25.3
870.298	34.08
870.465	67.47
870.632	76.52
870.8	119.63
870.967	161.35
871.135	195.47
871.302	-304.1
871.469	281.18
871.637	65.8
871.804	14.27
871.971	47.32
872.139	30.81
872.306	-5.72
872.473	182.91
872.64	89.19
872.807	-0.65
872.975	-11.93
873.142	18.33
873.309	31.37
873.476	27.69
873.643	62.54
873.81	59.03
873.977	41.58
874.144	22.49
874.311	15.82
874.478	-147.33
874.645	-249.58
874.812	-1072.99
874.979	-134.2
875.146	-77.63
875.313	-289.68
875.48	102.58
875.647	-45.92
875.813	-1772.15
875.98	817.17
876.147	-72.84
876.314	-14.06
876.481	-54.93
876.647	-23.65
876.814	-41.4
876.981	-77.47
877.147	-181.04
877.314	-64.11
877.481	-54.77
877.647	42.77
877.814	104.13
877.98	37.49
878.147	37.77
878.314	-17.57
878.48	118.22
878.647	25.46
878.813	408.63
878.979	64.53
879.146	49.25
879.312	17.91
879.479	47.99
879.645	61.15
879.811	39.04
879.978	16.3
880.144	17.64
880.31	-6.57
880.477	263.09
880.643	69.19
880.809	634.15
880.975	-28.14
881.142	-87.72
881.308	-321.44
881.474	44.73
881.64	78.14
881.806	62.15
881.972	77.39
882.138	80.74
882.304	43.86
882.47	14.09
882.636	27.11
882.802	23.52
882.968	13.5
883.134	18.69
883.3	52.99
883.466	62.25
883.632	67.96
883.798	79.23
883.964	69.19
884.129	28.14
884.295	-28.9
884.461	-401.17
884.627	542.75
884.793	0.61
884.958	-42.19
885.124	-1607.92
885.29	228.98
885.455	247
885.621	76.3
885.787	98
885.952	55.36
886.118	95.46
886.283	33.41
886.449	-67.1
886.614	24.2
886.78	41.09
886.945	55.2
887.111	57.91
887.276	97.85
887.442	96.17
887.607	91.69
887.773	38.88
887.938	78.51
888.103	-0.85
888.269	-303
888.434	5200
888.599	30.66
888.764	-124.27
888.93	-14.68
889.095	42.78
889.26	10.92
889.425	-5.23
889.59	14.51
889.756	40.32
889.921	22.55
890.086	10.5
890.251	43.79
890.416	57.98
890.581	12.21
890.746	0.26
890.911	21.18
891.076	8.8
891.241	-66.16
891.406	-2857.14
891.571	228.94
891.736	-104.64
891.901	-5.6
892.065	-49.45
892.23	-35.39
892.395	17.31
892.56	738.26
892.725	-37.18
892.889	-543.05
893.054	-1658.28
893.219	-2543.88
893.384	-431.84
893.548	-535.66
893.713	-239.67
893.878	-253.4
