Data from Ofav_SP_Phys_0EV1_Reflection_2.txt Node
Date: Thu Aug 05 17:54:48 EDT 2021
User: Adam
Spectrometer: FLMT01687
Trigger mode: 0
Integration Time (sec): 8.000000E-1
Scans to average: 2
Electric dark correction enabled: true
Nonlinearity correction enabled: false
Boxcar width: 2
XAxis mode: Wavelengths
Number of Pixels in Spectrum: 3648
>>>>>Begin Spectral Data<<<<<
179.494	732.61
179.716	830.17
179.937	699.37
180.158	869.2
180.38	2203.89
180.601	-1121.53
180.823	-370.25
181.044	-177.77
181.265	-28.22
181.486	-43.77
181.708	-51.68
181.929	-205.95
182.15	-374.29
182.372	12.42
182.593	-66.76
182.814	-374.09
183.035	-113.13
183.257	-800.36
183.478	705.42
183.699	-344.38
183.92	-143.42
184.141	804.04
184.363	-664.32
184.584	212.41
184.805	83.2
185.026	63.22
185.247	47.05
185.468	33.66
185.689	53.56
185.91	76.46
186.132	18.11
186.353	35.42
186.574	24.27
186.795	-24.16
187.016	-61.11
187.237	-30.86
187.458	-178.97
187.679	-24.84
187.9	-40.61
188.121	-22.72
188.342	76.23
188.563	88.86
188.784	123.9
189.005	156.34
189.226	128.87
189.447	64.52
189.667	113.85
189.888	320.53
190.109	282.44
190.33	215.63
190.551	177.79
190.772	178.42
190.993	108.64
191.214	69.33
191.434	53.99
191.655	44.93
191.876	42.15
192.097	39.26
192.318	45.26
192.538	51.62
192.759	137.22
192.98	93.3
193.201	163.97
193.421	37.7
193.642	49.31
193.863	-39.35
194.083	12.53
194.304	33.62
194.525	43.35
194.745	26.51
194.966	53.34
195.187	55.92
195.407	42.52
195.628	30.12
195.848	62.6
196.069	50.56
196.29	20.27
196.51	40.26
196.731	29.51
196.951	40.04
197.172	60.52
197.392	73.61
197.613	49.3
197.833	110.46
198.054	91.29
198.274	90.34
198.495	107.46
198.715	109.96
198.936	63.95
199.156	85.78
199.377	62.48
199.597	58.46
199.817	46.58
200.038	44.47
200.258	41.36
200.479	26.96
200.699	9.24
200.919	-5.4
201.14	-60.33
201.36	-97.42
201.58	-68.39
201.801	-151.58
202.021	-121.18
202.241	-2.7
202.461	-40.17
202.682	-64.07
202.902	-95.22
203.122	-53.44
203.342	16.65
203.563	-19.07
203.783	8.01
204.003	47.22
204.223	26.75
204.443	-15.85
204.663	-1.03
204.884	-0.36
205.104	-26.32
205.324	1.67
205.544	28.27
205.764	30.62
205.984	23.07
206.204	26.32
206.424	27.82
206.644	-2.42
206.864	23.07
207.084	15.77
207.304	84.97
207.525	78.77
207.745	94.9
207.964	91.73
208.184	98.58
208.404	-6.67
208.624	4.61
208.844	6.25
209.064	-19.49
209.284	0.15
209.504	-26.17
209.724	-27.94
209.944	-47.58
210.164	-40.19
210.384	4.7
210.604	26.6
210.823	32.79
211.043	50.63
211.263	43.73
211.483	26.73
211.703	48
211.922	78.97
212.142	78.1
212.362	73.99
212.582	97.85
212.801	106.63
213.021	59.23
213.241	38.04
213.461	16.45
213.68	8.16
213.9	-23.54
214.12	-24.6
214.339	-12.13
214.559	32.98
214.779	49.87
214.998	99.04
215.218	97.49
215.438	122.89
215.657	187.54
215.877	233.58
216.096	173
216.316	187.08
216.535	116.3
216.755	-11.39
216.974	-196.99
217.194	-3.24
217.413	-0.79
217.633	4.8
217.852	11.09
218.072	18.65
218.291	-0.36
218.511	17.33
218.73	-10.49
218.95	-12.4
219.169	-55.24
219.389	1.87
219.608	-35.01
219.827	52.29
220.047	61.62
220.266	71.18
220.485	90.9
220.705	101.91
220.924	67.34
221.143	42.54
221.363	12.57
221.582	-8.26
221.801	-94.84
222.021	-26.3
222.24	6.66
222.459	40.11
222.678	49.34
222.897	98.32
223.117	128.61
223.336	109.73
223.555	105.89
223.774	90.49
223.993	91.49
224.213	64.28
224.432	78.08
224.651	62.2
224.87	65.25
225.089	65.39
225.308	30.26
225.527	15.74
225.746	-9.37
225.965	-8.93
226.184	-29.18
226.404	-9.46
226.623	-47.83
226.842	-38.63
227.061	4.42
227.28	12.52
227.499	33.22
227.718	34.7
227.936	40
228.155	17.37
228.374	23.31
228.593	20.59
228.812	34.54
229.031	37.15
229.25	36.73
229.469	36.01
229.688	41.19
229.907	37.43
230.125	49.69
230.344	57.16
230.563	68.32
230.782	66.03
231.001	66.49
231.22	49.31
231.438	37.44
231.657	16.44
231.876	21.04
232.095	29.06
232.313	13.37
232.532	-2.68
232.751	10.12
232.969	17.34
233.188	18.48
233.407	0.35
233.625	50.03
233.844	28.7
234.063	38.22
234.281	26.06
234.5	34.21
234.719	19.74
234.937	15.16
235.156	5.17
235.374	14.61
235.593	34.48
235.811	5.96
236.03	29.22
236.249	48.01
236.467	48.02
236.686	61.08
236.904	103.73
237.123	61.1
237.341	53.02
237.559	50.15
237.778	30.65
237.996	11.62
238.215	9.33
238.433	-3.59
238.652	-5.09
238.87	-15.8
239.088	-5.21
239.307	21.72
239.525	15.62
239.743	6.38
239.962	41.18
240.18	3.57
240.398	-31.8
240.617	-53.59
240.835	27.93
241.053	27.3
241.271	36.11
241.49	67.52
241.708	86.07
241.926	60.44
242.144	56.75
242.363	89.09
242.581	55.73
242.799	46.71
243.017	15.2
243.235	-59.69
243.453	-13.74
243.672	17.1
243.89	25.99
244.108	57.91
244.326	97.03
244.544	103.8
244.762	41.39
244.98	58.59
245.198	68.68
245.416	70.87
245.634	61.64
245.852	80.48
246.07	66.16
246.288	38.98
246.506	29.81
246.724	31.13
246.942	29.45
247.16	-6.81
247.378	-64.19
247.596	-34.96
247.814	-26.28
248.032	-30.31
248.25	-43.81
248.468	-13.68
248.685	-7.01
248.903	0.51
249.121	-4.33
249.339	36.37
249.557	52.15
249.775	51.92
249.992	28.32
250.21	28.89
250.428	2.03
250.646	-19.71
250.863	5.36
251.081	14.38
251.299	19.18
251.517	67.8
251.734	83.44
251.952	24.64
252.17	65.75
252.387	71.08
252.605	50.03
252.823	41.04
253.04	47.54
253.258	39.96
253.475	52.34
253.693	44.24
253.911	74.64
254.128	84.56
254.346	75.52
254.563	71.33
254.781	69.85
254.998	58.88
255.216	31.25
255.433	18.92
255.651	-13.4
255.868	-22.92
256.086	-53.41
256.303	-20.02
256.521	-9.08
256.738	-59.84
256.956	-71.91
257.173	32.36
257.39	89.07
257.608	53.64
257.825	65.08
258.043	38.66
258.26	20.02
258.477	-11.73
258.695	3.64
258.912	5.84
259.129	31.64
259.346	30.14
259.564	41.94
259.781	51.1
259.998	44.01
260.216	37.3
260.433	38.88
260.65	17.87
260.867	-28.79
261.084	-3.59
261.302	9.26
261.519	7.39
261.736	46.31
261.953	40.26
262.17	32.82
262.387	48.17
262.604	54.01
262.822	61.45
263.039	77.94
263.256	115.93
263.473	69.41
263.69	103.9
263.907	70.5
264.124	59.59
264.341	27.23
264.558	33.89
264.775	13.91
264.992	23.3
265.209	32.74
265.426	30.25
265.643	31.46
265.86	25.54
266.077	37.89
266.294	34.91
266.51	35.58
266.727	46.29
266.944	67.75
267.161	39.34
267.378	30.91
267.595	27.43
267.812	15.79
268.028	-0.52
268.245	21.07
268.462	30.98
268.679	23.71
268.896	23.72
269.112	33.18
269.329	47.63
269.546	48.06
269.763	47.79
269.979	65.87
270.196	67.45
270.413	57.5
270.629	61.78
270.846	61.02
271.063	60.73
271.279	51.76
271.496	10.71
271.712	-59.3
271.929	-49.41
272.146	-9.08
272.362	-25.56
272.579	-3.54
272.795	27.67
273.012	40.14
273.228	17.36
273.445	29.52
273.661	76.33
273.878	59.92
274.094	70.83
274.311	58.54
274.527	69.41
274.744	33.41
274.96	32.05
275.177	37.02
275.393	57.93
275.609	52.14
275.826	38.83
276.042	52.57
276.259	30.11
276.475	27.39
276.691	8.71
276.908	19.27
277.124	41.27
277.34	50.17
277.557	15.92
277.773	50.66
277.989	26.28
278.205	12.44
278.422	-3.22
278.638	59.77
278.854	53.64
279.07	57.81
279.286	17.8
279.503	44.66
279.719	11.48
279.935	33.96
280.151	54.11
280.367	103.33
280.583	77.59
280.799	95.07
281.016	87.45
281.232	100.88
281.448	76.44
281.664	64.3
281.88	29.5
282.096	33.83
282.312	36.83
282.528	25.71
282.744	16.29
282.96	35.83
283.176	28.7
283.392	41.06
283.608	43.8
283.824	43.31
284.04	38.66
284.256	35.4
284.471	15.47
284.687	34.08
284.903	46.05
285.119	54.37
285.335	47.36
285.551	42.07
285.767	21.04
285.982	5.65
286.198	-90.37
286.414	-69.33
286.63	-12.54
286.846	11.28
287.061	13.91
287.277	42.2
287.493	87.45
287.709	65.07
287.924	54.41
288.14	75.04
288.356	81.8
288.571	79.46
288.787	86.23
289.003	133.05
289.218	137.93
289.434	104.54
289.65	54.81
289.865	52.65
290.081	34.81
290.296	23.29
290.512	25.09
290.727	24.77
290.943	11.57
291.159	17.66
291.374	29.06
291.59	26.22
291.805	40.38
292.021	67.65
292.236	57.57
292.451	69.27
292.667	55.32
292.882	-13.13
293.098	-18.09
293.313	18.07
293.529	11.17
293.744	28.06
293.959	34.02
294.175	45.89
294.39	5.84
294.605	21.21
294.821	-0.92
295.036	4.2
295.251	7.93
295.467	32.67
295.682	21.19
295.897	39.51
296.112	40.86
296.328	46.39
296.543	45.25
296.758	27.32
296.973	19.93
297.188	46.86
297.404	33.88
297.619	15.4
297.834	24.02
298.049	4.15
298.264	-20.02
298.479	-22.3
298.694	25.52
298.909	52.16
299.125	63.34
299.34	66.32
299.555	62.77
299.77	63.68
299.985	36.97
300.2	28.41
300.415	14.94
300.63	20.38
300.845	17.46
301.06	44.12
301.275	27
301.49	55.41
301.704	68.33
301.919	45.02
302.134	28.86
302.349	43.1
302.564	19.32
302.779	14.5
302.994	-1.67
303.209	19.05
303.423	13.82
303.638	24.9
303.853	42.68
304.068	43.54
304.283	26.34
304.497	19.75
304.712	11.35
304.927	0.12
305.142	5.33
305.356	24.47
305.571	73.05
305.786	74.68
306	74.03
306.215	80.4
306.43	92.89
306.644	78.58
306.859	69.78
307.074	82.14
307.288	86.6
307.503	72.67
307.717	63.63
307.932	48.2
308.147	43.04
308.361	59.36
308.576	44.98
308.79	33.89
309.005	62.82
309.219	34.43
309.434	-6.51
309.648	-32.83
309.863	1.23
310.077	-84.48
310.292	-37.15
310.506	-14.05
310.72	18.17
310.935	3.33
311.149	49.21
311.364	38.06
311.578	54.08
311.792	68.7
312.007	80.08
312.221	56.68
312.435	91.32
312.649	87.22
312.864	70.8
313.078	49.43
313.292	67.52
313.507	61.22
313.721	68.09
313.935	60.69
314.149	70.21
314.363	60.67
314.578	33.2
314.792	10.65
315.006	12.46
315.22	0.34
315.434	-21.3
315.648	-33.51
315.862	-9.24
316.077	37.48
316.291	90.9
316.505	64.74
316.719	75.54
316.933	63.49
317.147	29.41
317.361	10.85
317.575	17.25
317.789	9.17
318.003	-8.08
318.217	39.95
318.431	66.59
318.645	72.45
318.859	45.63
319.073	25
319.287	6.76
319.5	12.7
319.714	-18.27
319.928	16.97
320.142	31.91
320.356	37.45
320.57	25.32
320.784	39.87
320.997	29.43
321.211	30.88
321.425	-19.58
321.639	-65.21
321.853	-76.76
322.066	-59.14
322.28	-50.39
322.494	-40.43
322.707	2
322.921	22.95
323.135	24.42
323.349	32.26
323.562	48.04
323.776	64.2
323.989	41.21
324.203	32.86
324.417	25.48
324.63	9.77
324.844	-22.97
325.057	1.81
325.271	-12.16
325.485	8.03
325.698	23.22
325.912	48.75
326.125	54.42
326.339	69.66
326.552	64.34
326.766	61.39
326.979	56.62
327.193	38.18
327.406	30.41
327.619	45.05
327.833	27.2
328.046	31.68
328.26	17.69
328.473	8.4
328.686	-16.4
328.9	-10.11
329.113	-10.7
329.326	-11.03
329.54	19.4
329.753	33.73
329.966	44.58
330.179	44.49
330.393	65.8
330.606	53.78
330.819	46.14
331.032	48.57
331.246	86.32
331.459	77.5
331.672	106.7
331.885	96.9
332.098	94.95
332.311	96.26
332.525	76.4
332.738	63.66
332.951	67.5
333.164	57.48
333.377	17.19
333.59	29.43
333.803	7.05
334.016	10.36
334.229	3.72
334.442	57.39
334.655	75
334.868	89.11
335.081	64.69
335.294	83.62
335.507	68.04
335.72	74.75
335.933	70.38
336.146	72.44
336.359	61.44
336.572	59.55
336.785	24.68
336.997	6.08
337.21	20.83
337.423	41.98
337.636	40.92
337.849	65.34
338.062	81.22
338.274	56.15
338.487	37.29
338.7	31.23
338.913	40.09
339.125	41.65
339.338	45.47
339.551	43.81
339.763	64.22
339.976	56.77
340.189	58.09
340.402	45.63
340.614	42.3
340.827	47.61
341.039	31.8
341.252	25.85
341.465	29.52
341.677	36.53
341.89	-4.5
342.102	13.68
342.315	0.5
342.527	24.15
342.74	19.93
342.952	50.94
343.165	68.15
343.377	73.79
343.59	19.38
343.802	25.65
344.015	10.89
344.227	7.04
344.44	20.77
344.652	42
344.864	49.56
345.077	55.79
345.289	48.09
345.502	44.7
345.714	38.34
345.926	40.94
346.139	33.86
346.351	31.86
346.563	15.6
346.775	25.79
346.988	-7.23
347.2	15.65
347.412	24.49
347.624	33.8
347.837	16.31
348.049	28.72
348.261	11.68
348.473	22.97
348.685	46.61
348.897	56.53
349.11	64.49
349.322	73.5
349.534	81.23
349.746	63.17
349.958	51.67
350.17	57.39
350.382	64.15
350.594	55.65
350.806	63.32
351.018	67.29
351.23	50.55
351.442	43.65
351.654	46.64
351.866	35.51
352.078	21.12
352.29	28.7
352.502	34.08
352.714	4.95
352.926	6.47
353.138	8.35
353.35	19.56
353.561	21.85
353.773	38.22
353.985	53.23
354.197	51.28
354.409	45.57
354.621	26.71
354.832	45.25
355.044	52.24
355.256	57.46
355.468	45.45
355.679	71.81
355.891	74.68
356.103	64.88
356.314	64.96
356.526	58.07
356.738	48.68
356.949	7.26
357.161	16.07
357.373	3.43
357.584	40.56
357.796	49.34
358.008	61.46
358.219	39.88
358.431	63.23
358.642	30.64
358.854	30.22
359.065	43.9
359.277	61.58
359.488	54.56
359.7	50.31
359.911	45.33
360.123	41.24
360.334	39.72
360.546	33.89
360.757	38.78
360.969	41.13
361.18	48
361.391	57.99
361.603	59.84
361.814	76
362.025	89.62
362.237	72.65
362.448	61.45
362.659	63.3
362.871	42.23
363.082	23.04
363.293	18.45
363.504	26.13
363.716	36.23
363.927	59.44
364.138	75.05
364.349	48.95
364.56	43.32
364.772	34.36
364.983	23.73
365.194	24.88
365.405	51.76
365.616	55
365.827	60.68
366.038	55.62
366.25	53.28
366.461	42.55
366.672	37.58
366.883	49.69
367.094	57.43
367.305	55.98
367.516	61.35
367.727	64.28
367.938	47.64
368.149	21.71
368.36	6.8
368.571	-4.28
368.781	-15.48
368.992	-27.35
369.203	19.93
369.414	35.65
369.625	39.35
369.836	27.01
370.047	26.29
370.258	24.2
370.468	17.72
370.679	10.95
370.89	30.49
371.101	33.96
371.312	36.74
371.522	45.65
371.733	44.61
371.944	26.44
372.155	46.47
372.365	21.95
372.576	21.8
372.787	28.46
372.997	42.34
373.208	23.03
373.419	47.88
373.629	35.85
373.84	39.57
374.05	30.14
374.261	35.23
374.472	25.12
374.682	24.61
374.893	21.18
375.103	22.92
375.314	28.13
375.524	41.71
375.735	32.71
375.945	40
376.156	34
376.366	38.91
376.577	46.41
376.787	51.13
376.997	51.4
377.208	59.07
377.418	56.64
377.629	50.12
377.839	56.79
378.049	54.88
378.26	43.54
378.47	45
378.68	61.92
378.89	55.91
379.101	46.86
379.311	58.34
379.521	49.14
379.732	33.52
379.942	40.57
380.152	51.6
380.362	46.31
380.572	49.71
380.783	25.41
380.993	28.09
381.203	20.15
381.413	2.2
381.623	6.36
381.833	18.54
382.043	20.3
382.253	23.54
382.463	45.69
382.674	38.95
382.884	40.52
383.094	29.2
383.304	22.32
383.514	9.21
383.724	3.72
383.934	11.53
384.144	16.36
384.353	21.76
384.563	28.44
384.773	38.91
384.983	26.5
385.193	30.87
385.403	29.45
385.613	32.77
385.823	26.4
386.033	30.54
386.242	22.15
386.452	22.39
386.662	20.67
386.872	19.94
387.082	21.62
387.291	8.82
387.501	9.01
387.711	7.93
387.921	7.69
388.13	6.34
388.34	17.22
388.55	15.32
388.759	13.07
388.969	16.14
389.179	15.46
389.388	18.59
389.598	21.24
389.807	23.33
390.017	23.42
390.227	23.31
390.436	20.21
390.646	18.71
390.855	17
391.065	16.8
391.274	17.06
391.484	18.21
391.693	17.28
391.903	18.46
392.112	18.81
392.322	16.61
392.531	18.07
392.74	16.84
392.95	14.48
393.159	12.86
393.369	13.92
393.578	13.78
393.787	15.58
393.997	16.99
394.206	17.33
394.415	19.02
394.625	18.52
394.834	17.96
395.043	17.23
395.252	17.18
395.462	16.18
395.671	16.6
395.88	17.61
396.089	17.86
396.298	18.54
396.508	18.07
396.717	17.47
396.926	16.26
397.135	16.23
397.344	15.31
397.553	16.16
397.762	16.02
397.971	16.05
398.181	15.72
398.39	15.57
398.599	15.17
398.808	15.15
399.017	15.23
399.226	15.31
399.435	15.52
399.644	15.72
399.853	16.01
400.062	16.2
400.27	16.17
400.479	16.05
400.688	15.99
400.897	15.96
401.106	15.72
401.315	15.56
401.524	15.56
401.733	15.1
401.941	14.84
402.15	14.59
402.359	14.65
402.568	14.5
402.777	14.68
402.985	14.45
403.194	14.68
403.403	14.53
403.612	14.59
403.82	14.64
404.029	14.41
404.238	14.34
404.446	14.26
404.655	14.21
404.864	14.01
405.072	14.24
405.281	14.18
405.489	14.2
405.698	14.31
405.906	14.18
406.115	14.03
406.324	14.17
406.532	14.18
406.741	13.89
406.949	13.8
407.158	14
407.366	13.87
407.574	13.94
407.783	14.11
407.991	14.16
408.2	13.86
408.408	13.85
408.617	13.88
408.825	13.75
409.033	13.71
409.242	13.68
409.45	13.41
409.658	13.15
409.867	13.2
410.075	13.32
410.283	13.43
410.491	13.47
410.7	13.44
410.908	13.25
411.116	13.18
411.324	13.19
411.533	13.26
411.741	13.28
411.949	13.41
412.157	13.3
412.365	13.41
412.573	13.35
412.781	13.27
412.99	13.23
413.198	13.42
413.406	13.33
413.614	13.33
413.822	13.35
414.03	13.4
414.238	13.19
414.446	13.26
414.654	13.31
414.862	13.33
415.07	13.11
415.278	13.27
415.486	13.05
415.694	13.03
415.902	12.91
416.109	12.93
416.317	12.85
416.525	12.67
416.733	12.5
416.941	12.89
417.149	12.91
417.357	12.91
417.564	12.89
417.772	12.78
417.98	12.42
418.188	12.37
418.395	12.15
418.603	12.39
418.811	12.41
419.019	12.58
419.226	12.71
419.434	13.04
419.642	12.83
419.849	12.94
420.057	12.8
420.265	12.67
420.472	12.19
420.68	12.34
420.887	12.21
421.095	12.19
421.302	12.07
421.51	12.2
421.717	12.1
421.925	12.03
422.132	12.18
422.34	12.23
422.547	12.25
422.755	12.24
422.962	12.43
423.17	12.37
423.377	12.45
423.585	12.66
423.792	12.5
423.999	12.4
424.207	12.27
424.414	12.09
424.621	11.83
424.829	11.99
425.036	12.03
425.243	12.12
425.451	12.46
425.658	12.64
425.865	12.59
426.072	12.43
426.28	12.46
426.487	12.16
426.694	11.88
426.901	12.14
427.108	12.34
427.315	12.17
427.523	12.28
427.73	12.29
427.937	11.99
428.144	11.95
428.351	12.03
428.558	11.93
428.765	11.88
428.972	11.92
429.179	11.83
429.386	11.81
429.593	11.98
429.8	12.2
430.007	12.01
430.214	12.11
430.421	12.33
430.628	12.14
430.835	12.11
431.042	12.37
431.249	12.37
431.456	12.34
431.662	12.61
431.869	12.73
432.076	12.74
432.283	12.7
432.49	12.42
432.697	12.36
432.903	12.11
433.11	11.94
433.317	11.9
433.524	12.16
433.73	11.96
433.937	12.13
434.144	12.25
434.35	12.32
434.557	12.32
434.764	12.46
434.97	12.52
435.177	12.74
435.384	12.51
435.59	12.43
435.797	12.52
436.003	12.37
436.21	11.97
436.416	12.03
436.623	12
436.829	11.88
437.036	11.87
437.242	12.04
437.449	12.09
437.655	12.12
437.862	12.28
438.068	12.45
438.275	12.57
438.481	12.73
438.687	12.69
438.894	12.58
439.1	12.44
439.307	12.46
439.513	12.4
439.719	12.45
439.926	12.47
440.132	12.55
440.338	12.39
440.544	12.36
440.751	12.53
440.957	12.52
441.163	12.44
441.369	12.44
441.575	12.41
441.782	12.22
441.988	12.08
442.194	12.07
442.4	12.11
442.606	12.28
442.812	12.2
443.018	12.35
443.224	12.4
443.431	12.41
443.637	12.26
443.843	12.3
444.049	12.26
444.255	12.23
444.461	12.25
444.667	12.26
444.873	12.24
445.079	12.13
445.284	12.31
445.49	12.31
445.696	12.43
445.902	12.5
446.108	12.63
446.314	12.49
446.52	12.5
446.726	12.54
446.931	12.52
447.137	12.45
447.343	12.49
447.549	12.46
447.755	12.32
447.96	12.48
448.166	12.61
448.372	12.65
448.578	12.71
448.783	12.92
448.989	12.67
449.195	12.67
449.4	12.72
449.606	12.84
449.812	12.78
450.017	13.02
450.223	13
450.428	12.93
450.634	12.87
450.84	12.78
451.045	12.7
451.251	12.83
451.456	12.93
451.662	12.89
451.867	12.95
452.073	13.12
452.278	13
452.483	13.06
452.689	13.1
452.894	13.21
453.1	13.13
453.305	13.09
453.51	13.07
453.716	13.17
453.921	13.16
454.127	13.26
454.332	13.34
454.537	13.46
454.742	13.47
454.948	13.5
455.153	13.41
455.358	13.46
455.563	13.31
455.769	13.16
455.974	13.2
456.179	13.31
456.384	13.2
456.589	13.32
456.795	13.49
457	13.46
457.205	13.44
457.41	13.57
457.615	13.56
457.82	13.63
458.025	13.67
458.23	13.67
458.435	13.64
458.64	13.59
458.845	13.67
459.05	13.57
459.255	13.75
459.46	13.93
459.665	14.12
459.87	14.05
460.075	14.08
460.28	14.04
460.485	13.95
460.69	13.81
460.895	13.68
461.099	13.78
461.304	13.76
461.509	13.87
461.714	14.06
461.919	14.28
462.123	14.27
462.328	14.2
462.533	14.27
462.738	14.27
462.942	14.23
463.147	14.34
463.352	14.39
463.556	14.39
463.761	14.28
463.966	14.32
464.17	14.46
464.375	14.6
464.58	14.51
464.784	14.64
464.989	14.71
465.193	14.57
465.398	14.67
465.602	15
465.807	15.09
466.011	15.2
466.216	15.23
466.42	15.18
466.625	15.11
466.829	15.06
467.034	15.05
467.238	15.15
467.443	15.03
467.647	14.86
467.851	14.9
468.056	14.8
468.26	14.73
468.464	14.85
468.669	15.02
468.873	14.96
469.077	14.88
469.282	15.01
469.486	14.95
469.69	14.84
469.894	14.92
470.099	15.04
470.303	14.96
470.507	14.96
470.711	15.07
470.915	15.04
471.119	15.06
471.324	15.05
471.528	14.97
471.732	14.89
471.936	14.85
472.14	14.78
472.344	14.75
472.548	14.88
472.752	14.86
472.956	14.94
473.16	14.98
473.364	15.04
473.568	15
473.772	15.03
473.976	14.99
474.18	14.97
474.384	14.96
474.588	15.04
474.792	15.02
474.995	15.1
475.199	15.02
475.403	14.95
475.607	15.01
475.811	14.98
476.015	14.92
476.218	15
476.422	15
476.626	14.97
476.83	14.96
477.033	15.02
477.237	15.04
477.441	15.08
477.644	14.96
477.848	15.05
478.052	14.9
478.255	14.78
478.459	14.77
478.663	14.84
478.866	14.71
479.07	14.82
479.273	14.82
479.477	14.82
479.681	14.85
479.884	14.82
480.088	14.66
480.291	14.82
480.495	14.77
480.698	14.68
480.901	14.79
481.105	14.94
481.308	14.77
481.512	14.84
481.715	14.98
481.919	14.89
482.122	14.86
482.325	15.01
482.529	14.97
482.732	14.96
482.935	14.93
483.138	15
483.342	14.88
483.545	14.86
483.748	14.75
483.952	14.85
484.155	14.75
484.358	14.73
484.561	14.73
484.764	14.72
484.967	14.62
485.171	14.54
485.374	14.52
485.577	14.46
485.78	14.46
485.983	14.44
486.186	14.52
486.389	14.47
486.592	14.51
486.795	14.48
486.998	14.55
487.201	14.56
487.404	14.57
487.607	14.69
487.81	14.68
488.013	14.55
488.216	14.48
488.419	14.55
488.622	14.35
488.825	14.32
489.028	14.36
489.231	14.42
489.433	14.31
489.636	14.36
489.839	14.34
490.042	14.34
490.245	14.22
490.447	14.28
490.65	14.27
490.853	14.32
491.056	14.32
491.258	14.38
491.461	14.37
491.664	14.23
491.866	14.14
492.069	14.21
492.272	14
492.474	13.97
492.677	14.03
492.879	14.07
493.082	13.93
493.285	14.09
493.487	14
493.69	14.03
493.892	14
494.095	14.13
494.297	14.12
494.5	14.21
494.702	14.12
494.905	14.14
495.107	14
495.309	13.93
495.512	13.88
495.714	13.94
495.917	13.91
496.119	13.96
496.321	13.99
496.524	13.93
496.726	13.94
496.928	13.93
497.13	13.91
497.333	13.87
497.535	13.98
497.737	13.9
497.939	13.96
498.142	13.94
498.344	13.93
498.546	13.94
498.748	14.04
498.95	14.06
499.152	13.98
499.355	14.01
499.557	13.94
499.759	13.98
499.961	13.9
500.163	13.93
500.365	13.97
500.567	13.93
500.769	13.82
500.971	13.83
501.173	13.86
501.375	13.71
501.577	13.75
501.779	13.79
501.981	13.86
502.183	13.8
502.385	13.84
502.587	13.77
502.788	13.7
502.99	13.54
503.192	13.57
503.394	13.56
503.596	13.54
503.798	13.56
503.999	13.53
504.201	13.44
504.403	13.4
504.605	13.43
504.806	13.34
505.008	13.38
505.21	13.37
505.411	13.35
505.613	13.26
505.815	13.23
506.016	13.18
506.218	13.2
506.42	13.26
506.621	13.26
506.823	13.3
507.024	13.26
507.226	13.41
507.427	13.37
507.629	13.44
507.83	13.44
508.032	13.39
508.233	13.26
508.435	13.21
508.636	13.19
508.838	13.16
509.039	13.19
509.24	13.16
509.442	13.19
509.643	13.14
509.845	13.2
510.046	13.26
510.247	13.35
510.448	13.35
510.65	13.39
510.851	13.36
511.052	13.33
511.254	13.29
511.455	13.25
511.656	13.2
511.857	13.18
512.058	13.09
512.26	12.99
512.461	13.02
512.662	13.02
512.863	12.91
513.064	13
513.265	13.01
513.466	12.95
513.667	13
513.868	13
514.069	13.03
514.27	13.03
514.471	13.01
514.672	12.95
514.873	12.89
515.074	12.83
515.275	12.78
515.476	12.75
515.677	12.69
515.878	12.81
516.079	12.76
516.28	12.82
516.481	12.78
516.682	12.87
516.882	12.82
517.083	12.78
517.284	12.75
517.485	12.77
517.686	12.77
517.886	12.76
518.087	12.74
518.288	12.72
518.488	12.72
518.689	12.65
518.89	12.69
519.091	12.73
519.291	12.81
519.492	12.85
519.692	12.88
519.893	12.87
520.094	12.81
520.294	12.76
520.495	12.67
520.695	12.57
520.896	12.5
521.096	12.56
521.297	12.54
521.497	12.58
521.698	12.68
521.898	12.7
522.099	12.7
522.299	12.68
522.499	12.68
522.7	12.64
522.9	12.61
523.101	12.51
523.301	12.55
523.501	12.5
523.702	12.52
523.902	12.55
524.102	12.7
524.302	12.6
524.503	12.59
524.703	12.5
524.903	12.47
525.103	12.44
525.304	12.38
525.504	12.51
525.704	12.52
525.904	12.53
526.104	12.45
526.304	12.61
526.504	12.56
526.705	12.62
526.905	12.63
527.105	12.68
527.305	12.61
527.505	12.54
527.705	12.52
527.905	12.5
528.105	12.47
528.305	12.45
528.505	12.52
528.705	12.52
528.905	12.48
529.105	12.46
529.304	12.47
529.504	12.46
529.704	12.46
529.904	12.51
530.104	12.5
530.304	12.47
530.503	12.35
530.703	12.3
530.903	12.26
531.103	12.26
531.303	12.29
531.502	12.38
531.702	12.31
531.902	12.33
532.101	12.39
532.301	12.33
532.501	12.35
532.7	12.44
532.9	12.41
533.1	12.31
533.299	12.33
533.499	12.3
533.698	12.28
533.898	12.25
534.097	12.3
534.297	12.29
534.496	12.27
534.696	12.3
534.895	12.38
535.095	12.38
535.294	12.4
535.494	12.41
535.693	12.38
535.892	12.38
536.092	12.37
536.291	12.37
536.491	12.43
536.69	12.44
536.889	12.33
537.088	12.32
537.288	12.33
537.487	12.31
537.686	12.25
537.886	12.35
538.085	12.4
538.284	12.4
538.483	12.38
538.682	12.49
538.882	12.5
539.081	12.46
539.28	12.47
539.479	12.46
539.678	12.44
539.877	12.39
540.076	12.38
540.275	12.4
540.474	12.38
540.673	12.39
540.872	12.42
541.071	12.45
541.27	12.42
541.469	12.38
541.668	12.37
541.867	12.43
542.066	12.47
542.265	12.59
542.464	12.69
542.663	12.74
542.862	12.82
543.06	12.87
543.259	12.86
543.458	12.84
543.657	12.86
543.856	12.82
544.054	12.78
544.253	12.82
544.452	12.8
544.651	12.79
544.849	12.73
545.048	12.72
545.247	12.67
545.445	12.71
545.644	12.65
545.843	12.72
546.041	12.72
546.24	12.78
546.438	12.81
546.637	12.9
546.836	12.92
547.034	13.01
547.233	13
547.431	13.08
547.63	13.14
547.828	13.22
548.027	13.21
548.225	13.17
548.423	13.16
548.622	13.19
548.82	13.14
549.019	13.14
549.217	13.2
549.415	13.22
549.614	13.24
549.812	13.25
550.01	13.32
550.209	13.4
550.407	13.41
550.605	13.39
550.803	13.49
551.002	13.55
551.2	13.52
551.398	13.7
551.596	13.76
551.794	13.77
551.993	13.73
552.191	13.81
552.389	13.74
552.587	13.72
552.785	13.7
552.983	13.85
553.181	13.88
553.379	13.9
553.577	14.01
553.775	14.05
553.973	13.97
554.171	14.07
554.369	14.13
554.567	14.13
554.765	14.23
554.963	14.29
555.161	14.24
555.359	14.29
555.557	14.34
555.755	14.31
555.952	14.43
556.15	14.53
556.348	14.59
556.546	14.75
556.744	14.87
556.941	14.86
557.139	14.9
557.337	14.97
557.535	14.92
557.732	14.91
557.93	15.05
558.128	15.16
558.325	15.14
558.523	15.21
558.721	15.28
558.918	15.17
559.116	15.15
559.313	15.17
559.511	15.28
559.708	15.4
559.906	15.55
560.104	15.58
560.301	15.75
560.498	15.72
560.696	15.71
560.893	15.82
561.091	15.92
561.288	16.03
561.486	16.11
561.683	16.1
561.88	16.07
562.078	16.09
562.275	16.02
562.473	16.08
562.67	16.2
562.867	16.16
563.064	16.2
563.262	16.28
563.459	16.44
563.656	16.43
563.853	16.56
564.051	16.63
564.248	16.73
564.445	16.65
564.642	16.71
564.839	16.76
565.036	16.85
565.234	16.87
565.431	17.03
565.628	17.05
565.825	17.12
566.022	17.2
566.219	17.29
566.416	17.24
566.613	17.31
566.81	17.35
567.007	17.29
567.204	17.3
567.401	17.37
567.598	17.43
567.795	17.52
567.991	17.58
568.188	17.69
568.385	17.66
568.582	17.66
568.779	17.59
568.976	17.73
569.172	17.7
569.369	17.74
569.566	17.84
569.763	17.9
569.96	17.86
570.156	17.87
570.353	17.95
570.55	17.99
570.746	18.01
570.943	18.02
571.14	18
571.336	18
571.533	18
571.729	18.06
571.926	18.1
572.123	18.11
572.319	18.17
572.516	18.12
572.712	18.13
572.909	18.14
573.105	18.25
573.302	18.26
573.498	18.29
573.695	18.11
573.891	18.07
574.087	17.93
574.284	17.95
574.48	17.91
574.677	18.09
574.873	18.14
575.069	18.2
575.266	18.23
575.462	18.22
575.658	18.18
575.854	18.26
576.051	18.16
576.247	18.08
576.443	18.2
576.639	18.22
576.835	18.07
577.032	18.15
577.228	18.18
577.424	18.08
577.62	17.99
577.816	17.93
578.012	17.84
578.208	17.81
578.404	17.81
578.6	17.91
578.796	17.99
578.993	18.1
579.189	18.14
579.384	18.16
579.58	18.12
579.776	18.1
579.972	17.89
580.168	17.79
580.364	17.72
580.56	17.72
580.756	17.66
580.952	17.75
581.148	17.73
581.343	17.69
581.539	17.65
581.735	17.59
581.931	17.55
582.127	17.54
582.322	17.54
582.518	17.51
582.714	17.55
582.909	17.56
583.105	17.51
583.301	17.46
583.496	17.37
583.692	17.31
583.888	17.26
584.083	17.17
584.279	17.21
584.474	17.25
584.67	17.27
584.866	17.28
585.061	17.32
585.257	17.27
585.452	17.32
585.648	17.31
585.843	17.28
586.039	17.38
586.234	17.35
586.429	17.21
586.625	17.24
586.82	17.26
587.015	17.14
587.211	16.98
587.406	16.96
587.601	16.95
587.797	16.9
587.992	16.84
588.187	16.96
588.383	17.15
588.578	17.1
588.773	17.06
588.968	17.15
589.163	17.19
589.359	17.03
589.554	16.97
589.749	17.05
589.944	17.05
590.139	16.99
590.334	16.96
590.529	17.05
590.724	17.06
590.919	17.09
591.114	17.12
591.309	17.14
591.504	17.04
591.699	17.05
591.894	16.99
592.089	17.05
592.284	17.06
592.479	17.18
592.674	17.13
592.869	17.2
593.064	17.23
593.259	17.32
593.454	17.28
593.648	17.37
593.843	17.35
594.038	17.36
594.233	17.28
594.428	17.36
594.622	17.41
594.817	17.44
595.012	17.39
595.206	17.54
595.401	17.62
595.596	17.6
595.79	17.57
595.985	17.66
596.18	17.73
596.374	17.72
596.569	17.72
596.763	17.95
596.958	18.11
597.153	18.07
597.347	18.13
597.542	18.21
597.736	18.18
597.931	18.12
598.125	18.18
598.319	18.28
598.514	18.4
598.708	18.45
598.903	18.51
599.097	18.63
599.291	18.61
599.486	18.54
599.68	18.51
599.874	18.44
600.069	18.39
600.263	18.37
600.457	18.5
600.651	18.56
600.846	18.69
601.04	18.75
601.234	18.68
601.428	18.69
601.622	18.74
601.817	18.69
602.011	18.74
602.205	18.88
602.399	18.92
602.593	18.92
602.787	18.92
602.981	18.95
603.175	19
603.369	18.89
603.563	18.9
603.757	18.97
603.951	18.87
604.145	18.73
604.339	18.81
604.533	18.67
604.727	18.64
604.921	18.66
605.115	18.72
605.309	18.58
605.502	18.63
605.696	18.58
605.89	18.5
606.084	18.55
606.278	18.55
606.471	18.49
606.665	18.38
606.859	18.31
607.053	18.13
607.246	18.12
607.44	18.06
607.634	18.07
607.827	18.05
608.021	17.86
608.214	17.78
608.408	17.8
608.602	17.8
608.795	17.84
608.989	17.98
609.182	18.02
609.376	17.95
609.569	17.8
609.763	17.67
609.956	17.57
610.15	17.43
610.343	17.33
610.537	17.38
610.73	17.44
610.923	17.52
611.117	17.44
611.31	17.44
611.504	17.46
611.697	17.41
611.89	17.16
612.083	17.21
612.277	17.07
612.47	16.91
612.663	16.74
612.856	16.72
613.05	16.69
613.243	16.68
613.436	16.63
613.629	16.65
613.822	16.62
614.015	16.5
614.209	16.38
614.402	16.38
614.595	16.37
614.788	16.35
614.981	16.34
615.174	16.39
615.367	16.28
615.56	16.07
615.753	16.05
615.946	16.03
616.139	16.07
616.332	16.03
616.525	16.02
616.718	15.95
616.911	15.87
617.103	15.75
617.296	15.71
617.489	15.75
617.682	15.77
617.875	15.76
618.067	15.66
618.26	15.62
618.453	15.48
618.646	15.41
618.838	15.36
619.031	15.3
619.224	15.28
619.417	15.41
619.609	15.38
619.802	15.36
619.994	15.34
620.187	15.3
620.38	15.26
620.572	15.23
620.765	15.19
620.957	15.23
621.15	15.22
621.342	15.16
621.535	15.19
621.727	15.22
621.92	15.11
622.112	15.04
622.305	15.09
622.497	15.04
622.69	14.95
622.882	14.94
623.074	14.94
623.267	14.78
623.459	14.64
623.651	14.67
623.844	14.71
624.036	14.78
624.228	14.81
624.42	14.82
624.613	14.9
624.805	14.9
624.997	14.85
625.189	14.77
625.381	14.87
625.574	14.76
625.766	14.76
625.958	14.72
626.15	14.76
626.342	14.61
626.534	14.62
626.726	14.53
626.918	14.43
627.11	14.44
627.302	14.48
627.494	14.38
627.686	14.49
627.878	14.57
628.07	14.58
628.262	14.48
628.454	14.39
628.646	14.26
628.838	14.2
629.029	14.13
629.221	14.14
629.413	14.2
629.605	14.17
629.797	14.18
629.989	14.17
630.18	14.13
630.372	13.97
630.564	14.02
630.755	13.95
630.947	13.92
631.139	13.89
631.33	13.93
631.522	13.94
631.714	13.95
631.905	13.89
632.097	13.91
632.289	13.97
632.48	13.91
632.672	13.83
632.863	13.83
633.055	13.84
633.246	13.86
633.438	13.81
633.629	13.77
633.821	13.69
634.012	13.65
634.203	13.56
634.395	13.49
634.586	13.68
634.777	13.74
634.969	13.72
635.16	13.7
635.351	13.75
635.543	13.64
635.734	13.59
635.925	13.55
636.117	13.63
636.308	13.64
636.499	13.56
636.69	13.51
636.881	13.57
637.073	13.59
637.264	13.56
637.455	13.54
637.646	13.57
637.837	13.58
638.028	13.44
638.219	13.4
638.41	13.46
638.601	13.39
638.792	13.37
638.983	13.36
639.174	13.35
639.365	13.29
639.556	13.34
639.747	13.31
639.938	13.38
640.129	13.46
640.32	13.53
640.511	13.58
640.701	13.56
640.892	13.57
641.083	13.48
641.274	13.46
641.465	13.4
641.655	13.36
641.846	13.31
642.037	13.35
642.228	13.37
642.418	13.41
642.609	13.37
642.8	13.41
642.99	13.36
643.181	13.27
643.372	13.24
643.562	13.19
643.753	13.14
643.943	13.09
644.134	13.11
644.324	13.15
644.515	13.27
644.705	13.26
644.896	13.39
645.086	13.35
645.277	13.34
645.467	13.3
645.658	13.25
645.848	13.09
646.038	13.03
646.229	13.02
646.419	12.98
646.61	13.01
646.8	13.08
646.99	13.21
647.18	13.1
647.371	13.08
647.561	13.12
647.751	13.07
647.941	12.95
648.132	12.99
648.322	13.07
648.512	13.01
648.702	13.05
648.892	13.03
649.082	13.01
649.272	12.93
649.462	12.85
649.653	12.86
649.843	12.9
650.033	12.92
650.223	12.86
650.413	12.87
650.603	12.95
650.793	12.87
650.983	12.79
651.172	12.72
651.362	12.77
651.552	12.61
651.742	12.6
651.932	12.67
652.122	12.72
652.312	12.69
652.502	12.71
652.691	12.67
652.881	12.68
653.071	12.76
653.261	12.61
653.45	12.51
653.64	12.52
653.83	12.33
654.019	12.18
654.209	12.22
654.399	12.24
654.588	12.21
654.778	12.23
654.968	12.2
655.157	12.25
655.347	12.23
655.536	12.16
655.726	12.04
655.915	12.01
656.105	11.84
656.294	11.66
656.484	11.65
656.673	11.65
656.863	11.69
657.052	11.69
657.241	11.63
657.431	11.55
657.62	11.43
657.809	11.19
657.999	11.19
658.188	11.18
658.377	11.11
658.567	11.08
658.756	11.11
658.945	10.92
659.134	10.9
659.324	10.79
659.513	10.73
659.702	10.55
659.891	10.59
660.08	10.46
660.269	10.39
660.458	10.31
660.648	10.42
660.837	10.22
661.026	10.15
661.215	10.17
661.404	10.11
661.593	10.03
661.782	10.05
661.971	10.05
662.16	9.95
662.349	9.91
662.538	9.81
662.726	9.79
662.915	9.79
663.104	9.79
663.293	9.76
663.482	9.75
663.671	9.81
663.86	9.8
664.048	9.86
664.237	9.96
664.426	9.85
664.615	9.7
664.803	9.58
664.992	9.44
665.181	9.28
665.369	9.37
665.558	9.42
665.747	9.46
665.935	9.61
666.124	9.67
666.312	9.75
666.501	9.84
666.69	9.85
666.878	9.65
667.067	9.58
667.255	9.6
667.444	9.63
667.632	9.66
667.82	9.71
668.009	9.77
668.197	9.69
668.386	9.51
668.574	9.46
668.762	9.64
668.951	9.79
669.139	9.71
669.327	9.75
669.516	9.77
669.704	9.61
669.892	9.43
670.08	9.47
670.269	9.49
670.457	9.52
670.645	9.49
670.833	9.51
671.021	9.6
671.21	9.63
671.398	9.58
671.586	9.7
671.774	9.77
671.962	9.86
672.15	9.79
672.338	9.95
672.526	10.05
672.714	10.08
672.902	9.87
673.09	9.99
673.278	9.94
673.466	9.93
673.654	10.08
673.842	10.2
674.03	10.26
674.218	10.31
674.405	10.21
674.593	10.14
674.781	10.17
674.969	10.1
675.157	10.16
675.344	10.19
675.532	10.26
675.72	10.34
675.908	10.44
676.095	10.39
676.283	10.44
676.471	10.4
676.658	10.4
676.846	10.33
677.033	10.45
677.221	10.47
677.409	10.44
677.596	10.53
677.784	10.49
677.971	10.53
678.159	10.64
678.346	10.87
678.534	10.75
678.721	10.99
678.909	10.9
679.096	10.84
679.283	10.7
679.471	10.76
679.658	10.69
679.846	10.82
680.033	11.09
680.22	11.21
680.408	11.32
680.595	11.36
680.782	11.27
680.969	11.22
681.157	11.16
681.344	11.32
681.531	11.4
681.718	11.5
681.905	11.48
682.093	11.53
682.28	11.43
682.467	11.54
682.654	11.72
682.841	11.69
683.028	11.67
683.215	11.87
683.402	11.72
683.589	11.61
683.776	11.8
683.963	11.94
684.15	11.92
684.337	12.04
684.524	12.2
684.711	12.28
684.898	12.26
685.085	12.22
685.271	12.41
685.458	12.62
685.645	12.56
685.832	12.7
686.019	12.78
686.205	12.91
686.392	12.73
686.579	13.04
686.766	13.19
686.952	13.39
687.139	13.42
687.326	13.46
687.512	13.33
687.699	13.52
687.886	13.65
688.072	13.71
688.259	14.17
688.445	14.47
688.632	14.49
688.818	14.74
689.005	14.92
689.191	15.2
689.378	15.51
689.564	16.06
689.751	16.18
689.937	16.58
690.124	16.63
690.31	16.72
690.496	16.97
690.683	17.46
690.869	17.71
691.055	18.06
691.242	18.49
691.428	18.55
691.614	18.56
691.8	18.9
691.987	19.17
692.173	19.68
692.359	20.27
692.545	20.86
692.731	21.28
692.918	21.83
693.104	22.01
693.29	22.23
693.476	22.7
693.662	23.14
693.848	23.51
694.034	24.02
694.22	24.84
694.406	25.26
694.592	25.67
694.778	26.1
694.964	26.69
695.15	26.78
695.336	27
695.522	27.72
695.708	28.52
695.894	29.09
696.08	29.74
696.265	30.73
696.451	31.23
696.637	31.76
696.823	32.33
697.009	33.21
697.194	33.54
697.38	33.95
697.566	34.36
697.751	34.76
697.937	35.15
698.123	35.92
698.308	36.32
698.494	36.78
698.68	37.49
698.865	37.91
699.051	38.31
699.236	39.06
699.422	39.95
699.607	40.31
699.793	41.15
699.978	41.64
700.164	42.48
700.349	42.89
700.535	43.37
700.72	43.64
700.906	44.18
701.091	44.33
701.276	44.72
701.462	45.22
701.647	46.04
701.832	46.63
702.018	47.22
702.203	48.08
702.388	48.89
702.573	49.09
702.759	49.79
702.944	50.44
703.129	50.62
703.314	51.08
703.499	51.58
703.684	51.88
703.87	52.15
704.055	52.62
704.24	53.25
704.425	53.58
704.61	54.19
704.795	54.64
704.98	54.96
705.165	55.1
705.35	55.86
705.535	55.99
705.72	56.59
705.905	56.88
706.09	57.24
706.275	57.36
706.459	57.71
706.644	57.71
706.829	58.47
707.014	59.1
707.199	59.63
707.384	59.74
707.568	60.34
707.753	60.7
707.938	60.51
708.123	60.64
708.307	61.1
708.492	61.42
708.677	61.19
708.861	61.59
709.046	61.47
709.231	61.66
709.415	62.05
709.6	62.56
709.784	62.89
709.969	63.69
710.153	64.06
710.338	64.26
710.522	64.47
710.707	64.54
710.891	64.28
711.076	64.47
711.26	64.67
711.445	65.26
711.629	65.63
711.813	66.37
711.998	66.82
712.182	66.35
712.366	66.24
712.551	66.39
712.735	66.62
712.919	66.57
713.103	67.1
713.288	67.18
713.472	67.18
713.656	67.32
713.84	67.78
714.024	68.59
714.208	68.78
714.393	68.75
714.577	68.53
714.761	68.16
714.945	67.84
715.129	68.33
715.313	69.33
715.497	69.91
715.681	70.62
715.865	70.84
716.049	70.71
716.233	69.95
716.417	70
716.601	69.57
716.785	69.88
716.968	69.54
717.152	70.41
717.336	70.36
717.52	70.58
717.704	70.31
717.888	71.56
718.071	71.81
718.255	72.02
718.439	72.43
718.622	72.65
718.806	72
718.99	71.73
719.174	71.76
719.357	72.03
719.541	72.6
719.724	72.22
719.908	72.29
720.092	72.5
720.275	72.18
720.459	72.25
720.642	72.85
720.826	73.13
721.009	73.65
721.193	73.96
721.376	74.03
721.559	74.66
721.743	74.83
721.926	74.56
722.11	75.11
722.293	74.74
722.476	74.78
722.66	75.16
722.843	75.34
723.026	75.33
723.21	75.96
723.393	75.57
723.576	75.48
723.759	75.28
723.942	75.36
724.126	75.54
724.309	76.14
724.492	76.65
724.675	76.83
724.858	76.85
725.041	77.03
725.224	76.39
725.407	76.52
725.59	77.41
725.774	77.49
725.957	77.3
726.14	78.26
726.322	77.75
726.505	76.92
726.688	77.22
726.871	77.69
727.054	77.39
727.237	77.51
727.42	78.13
727.603	78.52
727.786	78.45
727.968	78.82
728.151	78.94
728.334	79
728.517	79.7
728.699	79.46
728.882	79.85
729.065	80.23
729.248	79.88
729.43	78.76
729.613	79.14
729.796	79.91
729.978	80.33
730.161	81.3
730.343	82.51
730.526	82.97
730.708	81.98
730.891	81.28
731.073	80.88
731.256	80.45
731.438	80.21
731.621	80.66
731.803	81.5
731.986	82.85
732.168	82.82
732.35	83.09
732.533	83.47
732.715	83.25
732.898	82.33
733.08	82.71
733.262	83.43
733.444	82.58
733.627	83.18
733.809	83.12
733.991	83.05
734.173	82.65
734.355	83.22
734.538	83.05
734.72	83.7
734.902	84.69
735.084	85.01
735.266	85.31
735.448	85.9
735.63	85.98
735.812	85.62
735.994	85.3
736.176	85.55
736.358	85.86
736.54	86.16
736.722	86.32
736.904	87.54
737.086	87.21
737.268	86.34
737.45	86.47
737.632	86.26
737.814	85.71
737.995	87.01
738.177	87.84
738.359	87.34
738.541	87.18
738.723	87.29
738.904	85.89
739.086	85.65
739.268	86.56
739.449	86.87
739.631	87.32
739.813	89.14
739.994	89.72
740.176	89.94
740.358	90.24
740.539	89.95
740.721	88.61
740.902	88.39
741.084	88.09
741.265	87.78
741.447	87.49
741.628	87.09
741.81	86.89
741.991	87.31
742.172	88.11
742.354	88.78
742.535	89.46
742.717	89.93
742.898	89.92
743.079	89.29
743.261	88.9
743.442	89.6
743.623	88.95
743.804	88.93
743.986	88.56
744.167	88.02
744.348	87.66
744.529	88.38
744.71	88.09
744.891	88.27
745.073	88.69
745.254	89.46
745.435	89.45
745.616	89.61
745.797	90.53
745.978	90.6
746.159	90.44
746.34	90.51
746.521	90.95
746.702	91.59
746.883	91.65
747.064	89.28
747.245	89.02
747.426	89.72
747.606	89.61
747.787	89.88
747.968	91.72
748.149	90.88
748.33	89.38
748.51	88.18
748.691	87.35
748.872	87.33
749.053	88.69
749.233	88.91
749.414	89.47
749.595	91.65
749.775	91.74
749.956	91.23
750.137	90.54
750.317	89.42
750.498	87.22
750.678	86.96
750.859	88.96
751.04	90.19
751.22	90.4
751.4	91.27
751.581	91.09
751.761	88.7
751.942	88.07
752.122	88.28
752.303	88.02
752.483	89.71
752.663	91.37
752.844	91.22
753.024	92.19
753.204	92.94
753.385	90.7
753.565	89.23
753.745	89.98
753.925	89.96
754.106	89.69
754.286	91.07
754.466	90.67
754.646	90.03
754.826	89.55
755.006	89.27
755.187	88.68
755.367	90.56
755.547	89.5
755.727	88.45
755.907	88.13
756.087	87.85
756.267	86.52
756.447	88.02
756.627	88.2
756.807	89.78
756.987	89.8
757.167	90.03
757.346	89.57
757.526	91.14
757.706	90.06
757.886	90.3
758.066	91.07
758.246	89.55
758.425	88.39
758.605	87.15
758.785	88.72
758.965	89.11
759.144	90.87
759.324	91.48
759.504	92.82
759.683	92.46
759.863	90.96
760.043	90.53
760.222	91.87
760.402	91.85
760.581	91.44
760.761	91.87
760.94	92.46
761.12	89.47
761.299	90.02
761.479	87.53
761.658	86.77
761.838	86.61
762.017	86.86
762.197	86.91
762.376	90.16
762.555	90.82
762.735	90.2
762.914	89.39
763.093	89.27
763.273	87.92
763.452	87.46
763.631	87.78
763.81	89.88
763.99	88.34
764.169	89.41
764.348	88.75
764.527	87.9
764.706	88.24
764.885	88.78
765.064	87.61
765.243	88.07
765.423	88.24
765.602	86.95
765.781	87.43
765.96	85.26
766.139	84.83
766.318	85.42
766.497	85.78
766.676	84.2
766.854	85.8
767.033	85.33
767.212	85.94
767.391	86.72
767.57	87.65
767.749	88.14
767.928	88.85
768.106	86.43
768.285	84.66
768.464	84.03
768.643	84.47
768.821	84.22
769	84.83
769.179	85.68
769.357	86.25
769.536	85.68
769.715	85.81
769.893	87.01
770.072	86.16
770.25	85.78
770.429	87.62
770.607	86.19
770.786	86.77
770.964	86.93
771.143	88.58
771.321	87.24
771.5	90.16
771.678	87.72
771.857	88.16
772.035	84.18
772.213	84
772.392	83.21
772.57	85.54
772.748	86.36
772.927	88.65
773.105	87.8
773.283	88.66
773.461	88.29
773.64	88.58
773.818	87.45
773.996	88.22
774.174	86.85
774.352	84.07
774.531	81.5
774.709	83.03
774.887	84.39
775.065	83.54
775.243	86.13
775.421	87.77
775.599	88.79
775.777	85.36
775.955	83.69
776.133	83.76
776.311	83.98
776.489	83.48
776.667	85.28
776.844	88.23
777.022	88.27
777.2	88.96
777.378	87.49
777.556	86.46
777.734	85.3
777.911	83.68
778.089	83.01
778.267	83.63
778.445	83.86
778.622	84.06
778.8	85.92
778.978	85.19
779.155	82.87
779.333	82.5
779.511	77.75
779.688	74.86
779.866	72.75
780.043	74.34
780.221	74.82
780.398	81.03
780.576	81.55
780.753	85.53
780.931	84.52
781.108	84.15
781.286	83.73
781.463	84.36
781.64	81.55
781.818	82.26
781.995	80.36
782.172	79.96
782.35	79.91
782.527	79.33
782.704	80.61
782.882	83.58
783.059	82.3
783.236	77.94
783.413	81.22
783.59	79.38
783.768	76.65
783.945	78.7
784.122	84.83
784.299	80.77
784.476	83.5
784.653	86.93
784.83	87.94
785.007	84.76
785.184	87.4
785.361	86.35
785.538	89.69
785.715	84.49
785.892	88.15
786.069	88.81
786.246	88.72
786.423	84.2
786.6	91.56
786.776	88.53
786.953	86.06
787.13	81.95
787.307	84.33
787.484	83.14
787.66	85.83
787.837	88.04
788.014	91.21
788.191	90.27
788.367	85.13
788.544	87.55
788.721	87.39
788.897	90.18
789.074	89.37
789.25	89.65
789.427	86.77
789.603	91.61
789.78	91.18
789.956	91.32
790.133	89.7
790.309	88.65
790.486	79.69
790.662	80.52
790.839	78.56
791.015	82.71
791.192	81.5
791.368	85.9
791.544	79.1
791.721	81.81
791.897	85.33
792.073	86.49
792.249	83.03
792.426	87.77
792.602	86.58
792.778	79.74
792.954	79
793.13	83.18
793.307	85.14
793.483	84.31
793.659	85.34
793.835	87.61
794.011	88.03
794.187	78.45
794.363	79.7
794.539	78.11
794.715	71.08
794.891	69.52
795.067	74.29
795.243	76.57
795.419	78.83
795.595	84.93
795.771	80.76
795.947	87.25
796.122	80.03
796.298	82.05
796.474	78.71
796.65	83.46
796.826	77.02
797.001	86.65
797.177	83.52
797.353	87.81
797.529	86.46
797.704	89.38
797.88	87.08
798.056	90.09
798.231	85.8
798.407	83.93
798.582	83.7
798.758	85.94
798.934	91.26
799.109	96.59
799.285	97.58
799.46	96.99
799.636	87.64
799.811	81.18
799.986	80.95
800.162	85.18
800.337	86.26
800.513	86.16
800.688	89.45
800.863	80.17
801.039	81.18
801.214	73.06
801.389	78.56
801.565	81.97
801.74	87.38
801.915	81.6
802.09	89.9
802.265	84.35
802.441	83.48
802.616	82.82
802.791	87.89
802.966	86.75
803.141	90.05
803.316	75.48
803.491	67.51
803.666	57.14
803.841	64.32
804.016	69.79
804.191	78.7
804.366	88.32
804.541	98.9
804.716	91.59
804.891	85.12
805.066	83.15
805.241	87.6
805.416	82.19
805.591	84.81
805.765	87.89
805.94	92.12
806.115	84.26
806.29	83.6
806.464	90.48
806.639	87.65
806.814	81.65
806.989	80
807.163	86.46
807.338	80.89
807.512	81.26
807.687	74.48
807.862	73.27
808.036	71.9
808.211	65.7
808.385	62.45
808.56	70.93
808.734	80.56
808.909	80.8
809.083	78.61
809.258	83.17
809.432	82.88
809.606	67.81
809.781	64.88
809.955	73.85
810.13	79.12
810.304	81.42
810.478	82.93
810.652	85.73
810.827	79.8
811.001	69.74
811.175	68.55
811.349	78.11
811.524	87.62
811.698	94.96
811.872	98.22
812.046	99.77
812.22	97
812.394	76.57
812.568	71.13
812.742	76.56
812.916	70.95
813.09	83.33
813.264	97.36
813.438	93.71
813.612	97.92
813.786	88.64
813.96	65.17
814.134	68.99
814.308	81.13
814.482	74.77
814.656	91.31
814.83	97.25
815.003	95.01
815.177	90.04
815.351	87.27
815.525	82.3
815.698	77.1
815.872	67.87
816.046	63.24
816.219	61.89
816.393	72.61
816.567	80.96
816.74	95.18
816.914	119.99
817.088	144.69
817.261	151.71
817.435	152.57
817.608	149.72
817.782	127.58
817.955	115.71
818.129	104.82
818.302	86.28
818.475	89.48
818.649	80.7
818.822	71.33
818.996	72.93
819.169	77.62
819.342	83.03
819.516	86.44
819.689	105.79
819.862	111.34
820.035	114.64
820.209	83.16
820.382	89.34
820.555	68.99
820.728	63.2
820.901	47.76
821.075	81.51
821.248	92.45
821.421	84.63
821.594	86.47
821.767	90.93
821.94	75
822.113	38.04
822.286	35.21
822.459	32.6
822.632	30.06
822.805	52.04
822.978	64.61
823.151	76.41
823.324	75.45
823.496	43.84
823.669	35.94
823.842	73.17
824.015	73.36
824.188	58.35
824.361	83.35
824.533	80.11
824.706	49.95
824.879	60.81
825.051	70.3
825.224	75.84
825.397	78.45
825.569	78.54
825.742	75.77
825.915	73.15
826.087	63.27
826.26	56.02
826.432	68.9
826.605	54.05
826.777	56.95
826.95	76.35
827.122	87.73
827.295	74.28
827.467	87.12
827.64	46.14
827.812	23.11
827.984	26.55
828.157	27.91
828.329	36.23
828.501	80.92
828.674	99.32
828.846	103.98
829.018	108.87
829.19	102.35
829.363	94.32
829.535	100.31
829.707	73.23
829.879	53.77
830.051	53.11
830.223	64.96
830.395	44.1
830.568	40.03
830.74	64.45
830.912	77.76
831.084	79.76
831.256	74.8
831.428	76.23
831.6	87.29
831.772	64.21
831.943	22.36
832.115	36.06
832.287	68.18
832.459	59.52
832.631	82.76
832.803	97.94
832.975	116.35
833.146	86.66
833.318	59.62
833.49	66.22
833.662	67.52
833.833	76.43
834.005	83.55
834.177	115.12
834.348	114.65
834.52	114.34
834.692	134.14
834.863	116.79
835.035	98.56
835.206	64.81
835.378	69.25
835.549	51.75
835.721	79.92
835.892	63.8
836.064	88.42
836.235	112.83
836.407	133.4
836.578	118.55
836.749	132.14
836.921	140.95
837.092	141.44
837.264	112.5
837.435	93.78
837.606	77.88
837.777	33.99
837.949	54.83
838.12	5.06
838.291	45.45
838.462	73.44
838.633	79.84
838.805	85.5
838.976	134.88
839.147	120.13
839.318	148.5
839.489	108.5
839.66	131.14
839.831	117.99
840.002	113.03
840.173	52.51
840.344	61.33
840.515	16.48
840.686	-2.37
840.857	15.42
841.028	44.15
841.199	50.99
841.369	74.66
841.54	68.74
841.711	101.08
841.882	83.86
842.053	79.18
842.223	80.55
842.394	75.24
842.565	68.63
842.736	73.49
842.906	71.35
843.077	71.48
843.248	76.74
843.418	88.05
843.589	80.76
843.759	96.55
843.93	1.17
844.101	214.75
844.271	54.82
844.442	108.04
844.612	110.19
844.783	90.06
844.953	44.12
845.123	54.63
845.294	42.64
845.464	33.73
845.635	71.47
845.805	134.48
845.975	152.81
846.146	205.15
846.316	406.04
846.486	154.86
846.656	63.22
846.827	42.43
846.997	7.42
847.167	39.99
847.337	43.79
847.507	69.09
847.677	62.65
847.848	90.39
848.018	114.22
848.188	135.61
848.358	79.2
848.528	106.6
848.698	100.52
848.868	57.08
849.038	27.99
849.208	45.14
849.378	44.52
849.548	-60.44
849.718	-334.3
849.887	326.1
850.057	-4319.35
850.227	1213.3
850.397	1027.52
850.567	-46.9
850.737	46.15
850.906	13.71
851.076	2.94
851.246	30.21
851.415	11.34
851.585	14.88
851.755	28.63
851.924	68.01
852.094	82.01
852.264	75.47
852.433	39.34
852.603	71.72
852.772	39.88
852.942	24.58
853.111	24.56
853.281	81.38
853.45	54.97
853.62	66.3
853.789	63.93
853.959	69.83
854.128	-38.27
854.297	-53.99
854.467	89.66
854.636	-16.36
854.805	105.99
854.975	40.42
855.144	19.04
855.313	43.32
855.482	88.5
855.652	65.27
855.821	72.99
855.99	142.01
856.159	502.7
856.328	153.87
856.497	225.08
856.667	216.14
856.836	162.13
857.005	113.46
857.174	111.11
857.343	79.63
857.512	33.42
857.681	12.1
857.85	-14.32
858.019	-19.41
858.188	-6.89
858.356	-37.15
858.525	-14.53
858.694	1.3
858.863	8.18
859.032	10.65
859.201	25.13
859.369	60.29
859.538	68.16
859.707	29.93
859.876	42.46
860.044	69.97
860.213	109.21
860.382	117.56
860.55	114.45
860.719	111.82
860.888	99.37
861.056	75.09
861.225	117.2
861.393	181.03
861.562	245.15
861.73	257.84
861.899	196.33
862.067	224.61
862.236	194.98
862.404	49.1
862.572	-18.06
862.741	-242.91
862.909	25.32
863.078	32.89
863.246	29.62
863.414	102.58
863.582	80.86
863.751	92.94
863.919	55.03
864.087	88.59
864.255	22.74
864.424	-51.84
864.592	-28.71
864.76	55.63
864.928	70.75
865.096	75.62
865.264	87.43
865.432	119.13
865.6	116.71
865.768	15.07
865.936	-89.31
866.104	-81.64
866.272	0.27
866.44	-84.69
866.608	13.06
866.776	39.99
866.944	13.18
867.112	32.46
867.28	7.5
867.448	22.16
867.615	52.51
867.783	62.72
867.951	19.66
868.119	75.56
868.286	112.36
868.454	49.58
868.622	60.64
868.789	367.24
868.957	-670.14
869.125	-31.67
869.292	184.36
869.46	-18.64
869.627	-1258.86
869.795	-244.07
869.963	-48.85
870.13	-23.21
870.298	5.59
870.465	30.38
870.632	33
870.8	20.43
870.967	27.93
871.135	-95.27
871.302	236.91
871.469	73.67
871.637	33.85
871.804	4.48
871.971	-42.04
872.139	-29.96
872.306	-128.31
872.473	-865.83
872.64	-200.49
872.807	1.33
872.975	-25.31
873.142	14.72
873.309	33.2
873.476	52.67
873.643	66.94
873.81	82.51
873.977	83.09
874.144	128.98
874.311	209.35
874.478	190.62
874.645	-33.89
874.812	-219.43
874.979	-58.08
875.146	-27.14
875.313	-362.74
875.48	121
875.647	498.19
875.813	568.35
875.98	203.86
876.147	82.69
876.314	82.49
876.481	-10.23
876.647	-3.17
876.814	26.34
876.981	-46.65
877.147	-69.26
877.314	-85.78
877.481	27.91
877.647	-12.52
877.814	140.3
877.98	-73.68
878.147	-130.35
878.314	64.5
878.48	230.36
878.647	-196.1
878.813	443.88
878.979	34.64
879.146	21.69
879.312	-12.76
879.479	54.34
879.645	40.63
879.811	-12.16
879.978	-9.77
880.144	42.57
880.31	193.22
880.477	-156.38
880.643	-502.16
880.809	-3963.41
880.975	285.93
881.142	-302.53
881.308	-393.39
881.474	61.22
881.64	60.69
881.806	39.25
881.972	72.85
882.138	63.91
882.304	23.53
882.47	-42.45
882.636	-14.56
882.802	14.22
882.968	4.68
883.134	-1.37
883.3	24.2
883.466	41.74
883.632	43.54
883.798	39.91
883.964	21.04
884.129	17.05
884.295	-62.84
884.461	-446.36
884.627	564.68
884.793	65.42
884.958	-96.8
885.124	-634.65
885.29	16.41
885.455	15.32
885.621	16.24
885.787	-36.97
885.952	-55.51
886.118	2.96
886.283	64.93
886.449	212.98
886.614	144.04
886.78	133.47
886.945	98.89
887.111	65.38
887.276	59.33
887.442	68.06
887.607	48.01
887.773	-19.34
887.938	-4
888.103	93.43
888.269	331.61
888.434	-1441.18
888.599	214.73
888.764	3185.44
888.93	120.89
889.095	65.34
889.26	96.5
889.425	119.22
889.59	83.1
889.756	139.17
889.921	121.64
890.086	121.1
890.251	27.22
890.416	1.28
890.581	-91.6
890.746	-9.01
890.911	38.13
891.076	0.69
891.241	-126.12
891.406	-7300
891.571	-390.28
891.736	339.49
891.901	322.39
892.065	84.96
892.23	207.73
892.395	39.43
892.56	1067.79
892.725	-20.84
892.889	-389.75
893.054	-1760.93
893.219	-3423.74
893.384	-565.41
893.548	-875.91
893.713	-476.86
893.878	-615.18
