Data from Ofav_SP_Phys_2AZ7_Reflection_1.txt Node
Date: Thu Aug 05 17:44:28 EDT 2021
User: Adam
Spectrometer: FLMT01687
Trigger mode: 0
Integration Time (sec): 8.000000E-1
Scans to average: 2
Electric dark correction enabled: true
Nonlinearity correction enabled: false
Boxcar width: 2
XAxis mode: Wavelengths
Number of Pixels in Spectrum: 3648
>>>>>Begin Spectral Data<<<<<
179.494	243.26
179.716	272.92
179.937	206.81
180.158	203.32
180.38	491.99
180.601	-26.22
180.823	130.76
181.044	52.07
181.265	-9.77
181.486	140.32
181.708	-232.21
181.929	-4.22
182.15	-126.53
182.372	29.95
182.593	75.78
182.814	-91.75
183.035	2.37
183.257	116.01
183.478	125.42
183.699	62.61
183.92	100.79
184.141	26.01
184.363	591.35
184.584	-22
184.805	66.73
185.026	33.46
185.247	39.4
185.468	71.8
185.689	87.28
185.91	43.45
186.132	13.72
186.353	1.75
186.574	-83.97
186.795	-140.22
187.016	-91.85
187.237	-13.11
187.458	-131.87
187.679	12.19
187.9	65.13
188.121	62.48
188.342	66.53
188.563	70.73
188.784	78.7
189.005	53.02
189.226	87.2
189.447	41.81
189.667	76.35
189.888	256.57
190.109	188.94
190.33	144.44
190.551	155.97
190.772	162.13
190.993	99.3
191.214	71.35
191.434	59.85
191.655	44.26
191.876	44.91
192.097	25.2
192.318	10.02
192.538	-52.71
192.759	26.08
192.98	35.32
193.201	192.47
193.421	111.65
193.642	52.03
193.863	31.82
194.083	36.84
194.304	55.99
194.525	70.21
194.745	63.99
194.966	58.11
195.187	49.19
195.407	33.44
195.628	57.77
195.848	100.76
196.069	74.58
196.29	55.51
196.51	54.56
196.731	24.66
196.951	29.32
197.172	55.78
197.392	79.52
197.613	75.19
197.833	141.49
198.054	135.84
198.274	100.54
198.495	104.1
198.715	90.07
198.936	33.32
199.156	25.15
199.377	33.68
199.597	16.83
199.817	-9.38
200.038	-6.32
200.258	-7.52
200.479	-35.37
200.699	-37.49
200.919	-26.8
201.14	-52.93
201.36	-77.75
201.58	-46.52
201.801	-120.92
202.021	-88.34
202.241	-32.09
202.461	-42.4
202.682	-87.14
202.902	-143.46
203.122	-336.67
203.342	-105.29
203.563	-29.09
203.783	22.58
204.003	36.62
204.223	50.14
204.443	19.63
204.663	3.11
204.884	7.16
205.104	3.6
205.324	34.91
205.544	30.17
205.764	34.64
205.984	19.48
206.204	0.31
206.424	-23.88
206.644	-18.55
206.864	3.5
207.084	14.15
207.304	49.51
207.525	41.21
207.745	51.9
207.964	25.45
208.184	20.14
208.404	6.37
208.624	-14.9
208.844	-41.88
209.064	-10.81
209.284	0.3
209.504	-4.46
209.724	-13.15
209.944	-17.63
210.164	-55.69
210.384	-28.08
210.604	-7.17
210.823	35.43
211.043	40.61
211.263	53.15
211.483	58.44
211.703	68.58
211.922	78.36
212.142	99.08
212.362	73.41
212.582	131.12
212.801	131.12
213.021	103.37
213.241	64.39
213.461	70.01
213.68	35.92
213.9	1.05
214.12	9.46
214.339	3.66
214.559	29.92
214.779	8.76
214.998	16.33
215.218	-43.23
215.438	-3.01
215.657	1.05
215.877	14.68
216.096	0.46
216.316	66.53
216.535	10.23
216.755	-72.24
216.974	-205.71
217.194	35.9
217.413	28.73
217.633	40.74
217.852	71.58
218.072	72.61
218.291	68.61
218.511	63.62
218.73	59.42
218.95	53.46
219.169	44.26
219.389	70.59
219.608	87.69
219.827	85.24
220.047	51.05
220.266	34.97
220.485	3.5
220.705	9.71
220.924	8.26
221.143	31.58
221.363	61.17
221.582	73.48
221.801	85.49
222.021	70.59
222.24	96.66
222.459	108.35
222.678	71.78
222.897	65.62
223.117	48.73
223.336	20.65
223.555	38.57
223.774	-5.31
223.993	-19.64
224.213	27.61
224.432	18.98
224.651	31
224.87	36.8
225.089	53.47
225.308	29.61
225.527	43.74
225.746	-1.66
225.965	31.39
226.184	21.36
226.404	31.96
226.623	18.09
226.842	57.68
227.061	51.91
227.28	33.7
227.499	12.93
227.718	2.37
227.936	-29.08
228.155	-44.73
228.374	-18.97
228.593	8.29
228.812	15.96
229.031	44.16
229.25	43.26
229.469	65.06
229.688	65.03
229.907	71.47
230.125	55.7
230.344	62.68
230.563	50.29
230.782	42.16
231.001	95.54
231.22	102.29
231.438	102.1
231.657	90.16
231.876	93.61
232.095	50.41
232.313	17.33
232.532	-6.63
232.751	3.91
232.969	20.21
233.188	24.86
233.407	48.05
233.625	76.92
233.844	59.7
234.063	34.09
234.281	37.74
234.5	42.44
234.719	29.31
234.937	19.82
235.156	23.56
235.374	22.5
235.593	2.01
235.811	-16.95
236.03	-0.76
236.249	-1.83
236.467	-8.32
236.686	-27.4
236.904	6.25
237.123	-3.21
237.341	28.92
237.559	12.35
237.778	26.45
237.996	42.48
238.215	41.1
238.433	34.71
238.652	41.16
238.87	31.34
239.088	2.32
239.307	20.43
239.525	1.18
239.743	15.6
239.962	25.88
240.18	31.81
240.398	19.42
240.617	16.95
240.835	29.91
241.053	44.55
241.271	44.39
241.49	45.36
241.708	64.22
241.926	34.71
242.144	15.95
242.363	73.74
242.581	120.61
242.799	68.78
243.017	42.27
243.235	30.96
243.453	-14.22
243.672	-75.75
243.89	-53.54
244.108	-45.13
244.326	-29.92
244.544	-2.22
244.762	19.45
244.98	56
245.198	23.1
245.416	30.62
245.634	22.01
245.852	18.7
246.07	14.41
246.288	19.15
246.506	-3.83
246.724	19.81
246.942	26.46
247.16	4.45
247.378	-43.73
247.596	-2.12
247.814	4.46
248.032	7.31
248.25	8.41
248.468	25.24
248.685	34.41
248.903	37.6
249.121	39.72
249.339	41.41
249.557	30.07
249.775	17.23
249.992	-14.71
250.21	10.33
250.428	8.94
250.646	19.77
250.863	55.94
251.081	76.65
251.299	57.98
251.517	74.97
251.734	82.26
251.952	40.12
252.17	40.22
252.387	17.76
252.605	5.83
252.823	21.8
253.04	26.18
253.258	35.93
253.475	51.31
253.693	47.91
253.911	37.65
254.128	43.95
254.346	40.42
254.563	37.88
254.781	42.97
254.998	38.31
255.216	36.3
255.433	9.19
255.651	19.48
255.868	-3.45
256.086	3.04
256.303	13.71
256.521	9.59
256.738	-7.84
256.956	3.88
257.173	27.17
257.39	44.09
257.608	43.13
257.825	32.1
258.043	27.29
258.26	14.26
258.477	27.89
258.695	49.77
258.912	51.24
259.129	65.96
259.346	67.39
259.564	53.07
259.781	60.18
259.998	70.09
260.216	62.83
260.433	49.17
260.65	13.76
260.867	-97.1
261.084	-66.25
261.302	-37.45
261.519	-25.53
261.736	21.63
261.953	34.26
262.17	31.61
262.387	50.75
262.604	64.64
262.822	60.57
263.039	75.26
263.256	91.03
263.473	35.59
263.69	57.76
263.907	52.39
264.124	65.55
264.341	43.78
264.558	67.57
264.775	61.11
264.992	60.47
265.209	48.46
265.426	76.74
265.643	40.48
265.86	13.96
266.077	27.45
266.294	24.86
266.51	-9.11
266.727	14.92
266.944	31.67
267.161	19.7
267.378	14.15
267.595	18.48
267.812	9
268.028	-4.45
268.245	5.05
268.462	-6.12
268.679	-1.52
268.896	19.87
269.112	38.1
269.329	53.88
269.546	57.86
269.763	59.82
269.979	59.32
270.196	68.59
270.413	57.56
270.629	66.83
270.846	38.4
271.063	43.77
271.279	8.2
271.496	-20.03
271.712	-121.15
271.929	-86.66
272.146	-75.29
272.362	-68.44
272.579	-27.68
272.795	1.26
273.012	19.73
273.228	4.13
273.445	21.81
273.661	32.63
273.878	46.43
274.094	39.12
274.311	31.26
274.527	15.36
274.744	2.56
274.96	-3.53
275.177	-3.06
275.393	8.52
275.609	0.41
275.826	8.57
276.042	19.01
276.259	29.73
276.475	17.93
276.691	24.75
276.908	24.22
277.124	32.78
277.34	26.13
277.557	17.02
277.773	20.69
277.989	3.86
278.205	-1.92
278.422	26.49
278.638	51.21
278.854	50.28
279.07	50.01
279.286	29.56
279.503	12.25
279.719	-14.1
279.935	0.28
280.151	28.9
280.367	37.56
280.583	35.33
280.799	46.71
281.016	23.57
281.232	5.56
281.448	-5.85
281.664	-2.97
281.88	-14.26
282.096	21.13
282.312	15.01
282.528	40.92
282.744	44.57
282.96	41.07
283.176	49.34
283.392	54.62
283.608	46.01
283.824	57.21
284.04	61.27
284.256	48.44
284.471	38.09
284.687	35.85
284.903	31.07
285.119	40.51
285.335	24.62
285.551	15.23
285.767	16.68
285.982	-21.74
286.198	-63.52
286.414	-47.82
286.63	11.35
286.846	18.83
287.061	33.4
287.277	18.73
287.493	56.27
287.709	20.9
287.924	25.12
288.14	39.9
288.356	43.06
288.571	29.27
288.787	37.22
289.003	24.35
289.218	-35.48
289.434	-24.09
289.65	-15.8
289.865	12.14
290.081	23.86
290.296	25.37
290.512	20.5
290.727	35.65
290.943	24.14
291.159	18.3
291.374	27.6
291.59	31.91
291.805	30.37
292.021	52.34
292.236	70.57
292.451	66.17
292.667	81.59
292.882	41.58
293.098	6.57
293.313	15.8
293.529	22.57
293.744	11.13
293.959	7.45
294.175	5.69
294.39	-26.05
294.605	-23.41
294.821	-11.44
295.036	-13.21
295.251	-11.9
295.467	23.33
295.682	21.83
295.897	23.58
296.112	20.21
296.328	33.26
296.543	21.46
296.758	14.37
296.973	5.47
297.188	30.2
297.404	34.71
297.619	40.28
297.834	30.23
298.049	24.99
298.264	5.86
298.479	-27.18
298.694	-39.5
298.909	-15.6
299.125	8.61
299.34	19.9
299.555	17.93
299.77	19.28
299.985	24.93
300.2	23.6
300.415	25.97
300.63	13.18
300.845	10.82
301.06	12.47
301.275	9.08
301.49	-14.81
301.704	-10.46
301.919	19.05
302.134	5.72
302.349	2.86
302.564	8.22
302.779	24.95
302.994	21.23
303.209	27.65
303.423	4.13
303.638	17.84
303.853	18.07
304.068	16.04
304.283	32.27
304.497	42.56
304.712	55.37
304.927	47.48
305.142	58.93
305.356	53.76
305.571	82.04
305.786	69.34
306	61.04
306.215	63.4
306.43	67.45
306.644	56.58
306.859	56.74
307.074	87.2
307.288	75.96
307.503	75.9
307.717	78.8
307.932	53.64
308.147	42.58
308.361	41.36
308.576	4.73
308.79	1.11
309.005	18.36
309.219	-11.09
309.434	-20.56
309.648	-43.27
309.863	-33.2
310.077	-98.93
310.292	-75.48
310.506	-53.43
310.72	3.35
310.935	14.37
311.149	48.02
311.364	56
311.578	60.15
311.792	47.39
312.007	29.68
312.221	29.16
312.435	37.27
312.649	35.88
312.864	58.76
313.078	52.47
313.292	60.12
313.507	64.61
313.721	47.04
313.935	43.03
314.149	24.83
314.363	12.99
314.578	9.78
314.792	0.52
315.006	-19.32
315.22	9.85
315.434	-17.18
315.648	-55.48
315.862	7.02
316.077	0.36
316.291	-43.77
316.505	7.38
316.719	16.16
316.933	0.6
317.147	0.33
317.361	13.31
317.575	-4.38
317.789	-6.46
318.003	-22.39
318.217	11.04
318.431	16.64
318.645	43.43
318.859	32.66
319.073	34.36
319.287	10.06
319.5	23.97
319.714	19.74
319.928	19.53
320.142	24.86
320.356	33.75
320.57	37.53
320.784	11.78
320.997	28.28
321.211	34.03
321.425	16.22
321.639	-20.46
321.853	-7.17
322.066	5.78
322.28	-7.16
322.494	-7.12
322.707	8.46
322.921	8.44
323.135	-6.08
323.349	-3.07
323.562	4.27
323.776	19.99
323.989	18.61
324.203	38.56
324.417	50.01
324.63	30.96
324.844	14.94
325.057	29.17
325.271	4.95
325.485	8.11
325.698	21.18
325.912	15.67
326.125	8.61
326.339	33.71
326.552	16.14
326.766	-2.82
326.979	24.76
327.193	28.46
327.406	31.42
327.619	70.22
327.833	69.48
328.046	71.64
328.26	80.36
328.473	1.6
328.686	-12.36
328.9	-18.68
329.113	-18.37
329.326	-18.93
329.54	17.93
329.753	31.93
329.966	58.25
330.179	47.96
330.393	88.22
330.606	87.21
330.819	64.16
331.032	61.99
331.246	87.97
331.459	36.27
331.672	29.64
331.885	41
332.098	52.68
332.311	44.53
332.525	42.06
332.738	35.76
332.951	11.39
333.164	-2.8
333.377	-3.38
333.59	1.57
333.803	-0.97
334.016	23.4
334.229	30.92
334.442	34.71
334.655	40.25
334.868	43.58
335.081	50.73
335.294	57.28
335.507	55.11
335.72	59.93
335.933	57.54
336.146	53.72
336.359	46.08
336.572	39.74
336.785	22.15
336.997	33.7
337.21	27.51
337.423	39.87
337.636	29.48
337.849	41.91
338.062	22.8
338.274	1.09
338.487	-10.14
338.7	5.22
338.913	-6.51
339.125	-9.52
339.338	-3.25
339.551	-5.39
339.763	6.52
339.976	5.99
340.189	14.77
340.402	5.07
340.614	15.56
340.827	19.86
341.039	33.18
341.252	18.7
341.465	22.46
341.677	19.45
341.89	-0.91
342.102	2.27
342.315	4.98
342.527	31.48
342.74	17.29
342.952	10.91
343.165	22.04
343.377	39.81
343.59	-1.23
343.802	2.54
344.015	35.23
344.227	17.89
344.44	10.89
344.652	35.6
344.864	44.81
345.077	39.59
345.289	28.73
345.502	29.63
345.714	28.68
345.926	38.2
346.139	29.97
346.351	38.42
346.563	24.4
346.775	14.49
346.988	-10.8
347.2	-11.95
347.412	-33.67
347.624	17.99
347.837	23.59
348.049	27.52
348.261	21.53
348.473	32.88
348.685	43.27
348.897	59.58
349.11	70.61
349.322	71.06
349.534	51.5
349.746	32.04
349.958	11.16
350.17	17.26
350.382	23.55
350.594	26.05
350.806	15.92
351.018	28.24
351.23	21.03
351.442	28.14
351.654	20.93
351.866	22.05
352.078	9.5
352.29	3.07
352.502	3.57
352.714	-10.87
352.926	3.06
353.138	2.37
353.35	14.2
353.561	4.36
353.773	16.79
353.985	12.98
354.197	22.62
354.409	10.17
354.621	20.48
354.832	25.35
355.044	19.9
355.256	22.49
355.468	24.58
355.679	30.34
355.891	40.64
356.103	53.47
356.314	50.08
356.526	49.92
356.738	43.98
356.949	21.92
357.161	2.6
357.373	-4.37
357.584	11.06
357.796	15.24
358.008	35.97
358.219	55.02
358.431	63.64
358.642	19.48
358.854	31.59
359.065	34.46
359.277	35.17
359.488	30.26
359.7	40.62
359.911	30.89
360.123	18.05
360.334	23.98
360.546	31.16
360.757	31.77
360.969	35.98
361.18	62.52
361.391	67.12
361.603	65.84
361.814	82.24
362.025	79.73
362.237	51.09
362.448	40.6
362.659	33.93
362.871	18
363.082	6.91
363.293	0.92
363.504	-9.72
363.716	-14.49
363.927	9.55
364.138	21.04
364.349	11.3
364.56	18.66
364.772	18.03
364.983	4.25
365.194	-7.4
365.405	-1.65
365.616	6.55
365.827	13.59
366.038	26.59
366.25	27.65
366.461	21.74
366.672	29.61
366.883	31.13
367.094	33.03
367.305	34.38
367.516	50.41
367.727	54.65
367.938	36.33
368.149	20.79
368.36	25.52
368.571	10.23
368.781	-23.14
368.992	9.11
369.203	21.44
369.414	5.5
369.625	21.13
369.836	8
370.047	16.17
370.258	11.91
370.468	20.04
370.679	9.5
370.89	19.32
371.101	10.64
371.312	19.82
371.522	18.88
371.733	14.82
371.944	17.22
372.155	47.12
372.365	37.28
372.576	54.81
372.787	60.69
372.997	59.93
373.208	45.81
373.419	53.43
373.629	27.37
373.84	43.23
374.05	49.8
374.261	46.31
374.472	43.92
374.682	52.63
374.893	33.47
375.103	27.56
375.314	29.79
375.524	24.67
375.735	15
375.945	33.33
376.156	40.36
376.366	34.09
376.577	42.31
376.787	49.08
376.997	32.67
377.208	24.38
377.418	26.03
377.629	28.85
377.839	36.34
378.049	44.09
378.26	35.64
378.47	34.31
378.68	33.2
378.89	17.02
379.101	9.32
379.311	21.32
379.521	32.56
379.732	24.47
379.942	33.49
380.152	38.46
380.362	32.95
380.572	18.59
380.783	15.14
380.993	6.87
381.203	7.06
381.413	9.62
381.623	21.31
381.833	27.32
382.043	36.13
382.253	40.05
382.463	44.48
382.674	38.81
382.884	36.41
383.094	31.86
383.304	24.95
383.514	20.27
383.724	13.1
383.934	12.3
384.144	6.62
384.353	8.3
384.563	7.9
384.773	15.05
384.983	11.46
385.193	18.85
385.403	18.83
385.613	18.66
385.823	13.13
386.033	8.93
386.242	10.92
386.452	12.43
386.662	14.27
386.872	15.68
387.082	23.5
387.291	12.82
387.501	9.8
387.711	8.81
387.921	8.04
388.13	-0.05
388.34	5.39
388.55	6.91
388.759	2.6
388.969	2.02
389.179	4.68
389.388	2.67
389.598	3.61
389.807	8.95
390.017	11.56
390.227	10.81
390.436	10.39
390.646	8.5
390.855	4.01
391.065	3.23
391.274	2.75
391.484	5.97
391.693	4.96
391.903	7.84
392.112	8.44
392.322	8.02
392.531	6.23
392.74	8.23
392.95	6.92
393.159	6.38
393.369	7.72
393.578	8.99
393.787	9.06
393.997	8.9
394.206	8.42
394.415	8.54
394.625	8.23
394.834	7.99
395.043	7.64
395.252	8.39
395.462	8.29
395.671	7.8
395.88	8.57
396.089	8.88
396.298	8.71
396.508	8.55
396.717	8.81
396.926	7.93
397.135	7.41
397.344	7.33
397.553	7.49
397.762	7.52
397.971	7.45
398.181	7.78
398.39	7.79
398.599	7.91
398.808	7.75
399.017	7.62
399.226	7.75
399.435	7.64
399.644	7.63
399.853	7.85
400.062	8.17
400.27	8.11
400.479	8.01
400.688	7.66
400.897	7.62
401.106	7.43
401.315	7.13
401.524	7.04
401.733	7.21
401.941	7.09
402.15	7.08
402.359	7.13
402.568	7.1
402.777	7.19
402.985	7.28
403.194	7.25
403.403	7.51
403.612	7.51
403.82	7.51
404.029	7.33
404.238	7.44
404.446	7.44
404.655	7.7
404.864	7.66
405.072	7.55
405.281	7.49
405.489	7.42
405.698	7.39
405.906	7.22
406.115	7.02
406.324	7.04
406.532	6.95
406.741	6.85
406.949	6.8
407.158	7.14
407.366	7.15
407.574	7.26
407.783	7.24
407.991	7.29
408.2	7.17
408.408	7.04
408.617	6.92
408.825	6.92
409.033	6.93
409.242	6.93
409.45	6.8
409.658	6.61
409.867	6.56
410.075	6.6
410.283	6.67
410.491	6.81
410.7	7.05
410.908	6.98
411.116	6.93
411.324	6.84
411.533	6.67
411.741	6.57
411.949	6.58
412.157	6.59
412.365	6.69
412.573	6.74
412.781	6.66
412.99	6.81
413.198	6.88
413.406	6.83
413.614	6.9
413.822	6.97
414.03	6.92
414.238	6.74
414.446	6.71
414.654	6.75
414.862	6.74
415.07	6.74
415.278	6.88
415.486	6.82
415.694	6.81
415.902	6.74
416.109	6.38
416.317	6.39
416.525	6.37
416.733	6.36
416.941	6.49
417.149	6.66
417.357	6.62
417.564	6.52
417.772	6.49
417.98	6.36
418.188	6.36
418.395	6.22
418.603	6.25
418.811	6.2
419.019	6.37
419.226	6.43
419.434	6.59
419.642	6.54
419.849	6.59
420.057	6.43
420.265	6.45
420.472	6.25
420.68	6.31
420.887	6.25
421.095	6.33
421.302	6.26
421.51	6.44
421.717	6.44
421.925	6.31
422.132	6.29
422.34	6.3
422.547	6.35
422.755	6.27
422.962	6.32
423.17	6.39
423.377	6.36
423.585	6.12
423.792	6.21
423.999	6.21
424.207	6
424.414	5.9
424.621	6.02
424.829	6.04
425.036	6.17
425.243	6.32
425.451	6.47
425.658	6.41
425.865	6.19
426.072	6.02
426.28	5.78
426.487	5.76
426.694	5.77
426.901	5.97
427.108	6.16
427.315	6.26
427.523	6.24
427.73	6.11
427.937	5.97
428.144	5.85
428.351	6
428.558	6.07
428.765	6
428.972	6.11
429.179	6.21
429.386	6.07
429.593	6.06
429.8	6.14
430.007	6
430.214	5.88
430.421	6.01
430.628	5.78
430.835	5.92
431.042	6.04
431.249	6.01
431.456	5.94
431.662	6.15
431.869	6.12
432.076	6.13
432.283	6.27
432.49	6.2
432.697	6.15
432.903	6.02
433.11	5.88
433.317	5.77
433.524	5.86
433.73	5.87
433.937	5.85
434.144	6.01
434.35	5.93
434.557	5.92
434.764	5.85
434.97	5.89
435.177	5.89
435.384	5.91
435.59	5.89
435.797	5.9
436.003	5.93
436.21	5.73
436.416	5.75
436.623	5.72
436.829	5.69
437.036	5.56
437.242	5.65
437.449	5.71
437.655	5.79
437.862	5.9
438.068	6.16
438.275	6.22
438.481	6.3
438.687	6.18
438.894	6.24
439.1	6.02
439.307	5.99
439.513	5.84
439.719	5.9
439.926	5.8
440.132	5.93
440.338	6.05
440.544	6.18
440.751	6.15
440.957	6.03
441.163	5.94
441.369	5.83
441.575	5.72
441.782	5.71
441.988	5.74
442.194	5.73
442.4	5.8
442.606	5.88
442.812	5.8
443.018	5.85
443.224	5.92
443.431	5.85
443.637	5.77
443.843	5.77
444.049	5.73
444.255	5.73
444.461	5.77
444.667	5.8
444.873	5.8
445.079	5.74
445.284	5.75
445.49	5.75
445.696	5.81
445.902	5.85
446.108	5.87
446.314	5.74
446.52	5.71
446.726	5.65
446.931	5.62
447.137	5.67
447.343	5.78
447.549	5.74
447.755	5.83
447.96	5.88
448.166	5.86
448.372	5.79
448.578	5.84
448.783	5.87
448.989	5.77
449.195	5.87
449.4	6.03
449.606	6.07
449.812	6.02
450.017	6.22
450.223	6.13
450.428	6.1
450.634	6.09
450.84	6.03
451.045	5.89
451.251	5.9
451.456	5.88
451.662	5.76
451.867	5.84
452.073	5.92
452.278	6.05
452.483	6.09
452.689	6.21
452.894	6.23
453.1	6.21
453.305	6.1
453.51	6.09
453.716	6.12
453.921	6.08
454.127	6.03
454.332	6.04
454.537	6.08
454.742	5.99
454.948	5.96
455.153	5.94
455.358	5.9
455.563	5.81
455.769	5.75
455.974	5.87
456.179	5.93
456.384	5.94
456.589	5.88
456.795	5.99
457	5.84
457.205	5.76
457.41	5.88
457.615	5.99
457.82	5.98
458.025	5.91
458.23	6.02
458.435	5.86
458.64	5.81
458.845	5.88
459.05	6.03
459.255	5.98
459.46	6.04
459.665	6.05
459.87	5.91
460.075	5.91
460.28	6.05
460.485	6.04
460.69	6
460.895	5.99
461.099	6.03
461.304	5.97
461.509	6
461.714	6.1
461.919	6.19
462.123	6.15
462.328	6.13
462.533	6.23
462.738	6.2
462.942	6.28
463.147	6.34
463.352	6.41
463.556	6.37
463.761	6.31
463.966	6.32
464.17	6.41
464.375	6.4
464.58	6.42
464.784	6.61
464.989	6.62
465.193	6.51
465.398	6.72
465.602	6.79
465.807	6.78
466.011	6.78
466.216	6.81
466.42	6.72
466.625	6.73
466.829	6.74
467.034	6.64
467.238	6.64
467.443	6.52
467.647	6.36
467.851	6.24
468.056	6.37
468.26	6.32
468.464	6.3
468.669	6.41
468.873	6.47
469.077	6.39
469.282	6.45
469.486	6.56
469.69	6.51
469.894	6.53
470.099	6.48
470.303	6.44
470.507	6.44
470.711	6.49
470.915	6.5
471.119	6.64
471.324	6.72
471.528	6.66
471.732	6.58
471.936	6.52
472.14	6.46
472.344	6.37
472.548	6.37
472.752	6.45
472.956	6.54
473.16	6.62
473.364	6.69
473.568	6.63
473.772	6.61
473.976	6.46
474.18	6.36
474.384	6.36
474.588	6.41
474.792	6.41
474.995	6.5
475.199	6.52
475.403	6.51
475.607	6.55
475.811	6.5
476.015	6.42
476.218	6.43
476.422	6.35
476.626	6.34
476.83	6.36
477.033	6.45
477.237	6.57
477.441	6.63
477.644	6.65
477.848	6.72
478.052	6.63
478.255	6.45
478.459	6.4
478.663	6.36
478.866	6.27
479.07	6.34
479.273	6.32
479.477	6.41
479.681	6.37
479.884	6.38
480.088	6.35
480.291	6.4
480.495	6.34
480.698	6.36
480.901	6.38
481.105	6.49
481.308	6.51
481.512	6.56
481.715	6.63
481.919	6.63
482.122	6.66
482.325	6.68
482.529	6.64
482.732	6.6
482.935	6.54
483.138	6.63
483.342	6.59
483.545	6.66
483.748	6.63
483.952	6.7
484.155	6.53
484.358	6.48
484.561	6.44
484.764	6.37
484.967	6.33
485.171	6.25
485.374	6.29
485.577	6.27
485.78	6.39
485.983	6.47
486.186	6.61
486.389	6.55
486.592	6.57
486.795	6.55
486.998	6.5
487.201	6.46
487.404	6.57
487.607	6.69
487.81	6.64
488.013	6.67
488.216	6.69
488.419	6.66
488.622	6.6
488.825	6.68
489.028	6.69
489.231	6.7
489.433	6.71
489.636	6.78
489.839	6.69
490.042	6.75
490.245	6.79
490.447	6.79
490.65	6.75
490.853	6.96
491.056	6.94
491.258	6.96
491.461	7.08
491.664	7.03
491.866	6.96
492.069	7.1
492.272	7.11
492.474	7.06
492.677	7.21
492.879	7.27
493.082	7.23
493.285	7.33
493.487	7.39
493.69	7.38
493.892	7.45
494.095	7.52
494.297	7.54
494.5	7.68
494.702	7.74
494.905	7.73
495.107	7.71
495.309	7.75
495.512	7.71
495.714	7.79
495.917	7.88
496.119	8.04
496.321	8.08
496.524	8.15
496.726	8.25
496.928	8.31
497.13	8.27
497.333	8.39
497.535	8.56
497.737	8.61
497.939	8.74
498.142	8.86
498.344	8.93
498.546	8.95
498.748	8.9
498.95	8.95
499.152	8.97
499.355	8.93
499.557	9.07
499.759	9.25
499.961	9.29
500.163	9.36
500.365	9.67
500.567	9.6
500.769	9.61
500.971	9.65
501.173	9.71
501.375	9.59
501.577	9.65
501.779	9.65
501.981	9.77
502.183	9.84
502.385	9.84
502.587	9.8
502.788	9.86
502.99	9.77
503.192	9.77
503.394	9.78
503.596	9.89
503.798	9.86
503.999	9.94
504.201	9.83
504.403	9.9
504.605	9.89
504.806	9.92
505.008	9.91
505.21	9.98
505.411	9.89
505.613	9.82
505.815	9.77
506.016	9.68
506.218	9.64
506.42	9.68
506.621	9.7
506.823	9.64
507.024	9.63
507.226	9.65
507.427	9.67
507.629	9.59
507.83	9.65
508.032	9.69
508.233	9.6
508.435	9.46
508.636	9.47
508.838	9.43
509.039	9.27
509.24	9.26
509.442	9.3
509.643	9.36
509.845	9.27
510.046	9.36
510.247	9.36
510.448	9.28
510.65	9.09
510.851	9.13
511.052	9.04
511.254	9.03
511.455	9.04
511.656	9.03
511.857	9.03
512.058	8.96
512.26	8.83
512.461	8.83
512.662	8.9
512.863	8.79
513.064	8.91
513.265	8.94
513.466	8.87
513.667	8.8
513.868	8.75
514.069	8.66
514.27	8.61
514.471	8.56
514.672	8.48
514.873	8.38
515.074	8.34
515.275	8.33
515.476	8.36
515.677	8.36
515.878	8.44
516.079	8.4
516.28	8.33
516.481	8.26
516.682	8.22
516.882	8.21
517.083	8.16
517.284	8.21
517.485	8.21
517.686	8.24
517.886	8.17
518.087	8.15
518.288	8.16
518.488	8.12
518.689	8.11
518.89	8.09
519.091	8.11
519.291	8.06
519.492	8.04
519.692	7.99
519.893	8.05
520.094	7.99
520.294	7.96
520.495	7.99
520.695	7.97
520.896	7.87
521.096	7.87
521.297	7.9
521.497	7.86
521.698	7.83
521.898	7.9
522.099	7.89
522.299	7.84
522.499	7.85
522.7	7.82
522.9	7.82
523.101	7.83
523.301	7.82
523.501	7.73
523.702	7.75
523.902	7.71
524.102	7.65
524.302	7.64
524.503	7.66
524.703	7.68
524.903	7.7
525.103	7.77
525.304	7.74
525.504	7.8
525.704	7.71
525.904	7.67
526.104	7.59
526.304	7.66
526.504	7.62
526.705	7.69
526.905	7.7
527.105	7.73
527.305	7.73
527.505	7.74
527.705	7.69
527.905	7.68
528.105	7.65
528.305	7.63
528.505	7.63
528.705	7.64
528.905	7.66
529.105	7.68
529.304	7.63
529.504	7.6
529.704	7.63
529.904	7.63
530.104	7.6
530.304	7.64
530.503	7.64
530.703	7.58
530.903	7.56
531.103	7.55
531.303	7.52
531.502	7.5
531.702	7.58
531.902	7.61
532.101	7.68
532.301	7.69
532.501	7.75
532.7	7.7
532.9	7.72
533.1	7.67
533.299	7.65
533.499	7.6
533.698	7.63
533.898	7.59
534.097	7.56
534.297	7.54
534.496	7.59
534.696	7.57
534.895	7.58
535.095	7.62
535.294	7.71
535.494	7.67
535.693	7.63
535.892	7.6
536.092	7.55
536.291	7.51
536.491	7.58
536.69	7.6
536.889	7.57
537.088	7.6
537.288	7.59
537.487	7.52
537.686	7.54
537.886	7.61
538.085	7.67
538.284	7.68
538.483	7.71
538.682	7.79
538.882	7.79
539.081	7.74
539.28	7.77
539.479	7.79
539.678	7.75
539.877	7.76
540.076	7.8
540.275	7.76
540.474	7.69
540.673	7.68
540.872	7.65
541.071	7.62
541.27	7.66
541.469	7.68
541.668	7.69
541.867	7.73
542.066	7.72
542.265	7.77
542.464	7.79
542.663	7.79
542.862	7.83
543.06	7.87
543.259	7.82
543.458	7.84
543.657	7.82
543.856	7.81
544.054	7.79
544.253	7.84
544.452	7.76
544.651	7.82
544.849	7.78
545.048	7.76
545.247	7.73
545.445	7.81
545.644	7.76
545.843	7.8
546.041	7.84
546.24	7.83
546.438	7.86
546.637	7.9
546.836	7.89
547.034	7.93
547.233	8.02
547.431	8.08
547.63	8.14
547.828	8.26
548.027	8.28
548.225	8.2
548.423	8.13
548.622	8.07
548.82	7.99
549.019	7.98
549.217	7.96
549.415	7.99
549.614	8.03
549.812	8.11
550.01	8.15
550.209	8.27
550.407	8.33
550.605	8.32
550.803	8.28
551.002	8.34
551.2	8.36
551.398	8.42
551.596	8.56
551.794	8.67
551.993	8.63
552.191	8.58
552.389	8.54
552.587	8.46
552.785	8.43
552.983	8.51
553.181	8.65
553.379	8.75
553.577	8.87
553.775	8.94
553.973	8.89
554.171	8.93
554.369	8.92
554.567	9.01
554.765	8.96
554.963	9.04
555.161	9.05
555.359	9.12
555.557	9.07
555.755	9.14
555.952	9.21
556.15	9.17
556.348	9.21
556.546	9.24
556.744	9.29
556.941	9.32
557.139	9.44
557.337	9.42
557.535	9.48
557.732	9.46
557.93	9.51
558.128	9.57
558.325	9.62
558.523	9.68
558.721	9.75
558.918	9.75
559.116	9.69
559.313	9.74
559.511	9.84
559.708	9.99
559.906	10.07
560.104	10.2
560.301	10.37
560.498	10.31
560.696	10.29
560.893	10.39
561.091	10.42
561.288	10.42
561.486	10.5
561.683	10.54
561.88	10.49
562.078	10.56
562.275	10.51
562.473	10.61
562.67	10.71
562.867	10.79
563.064	10.82
563.262	10.98
563.459	11.03
563.656	11.02
563.853	11.1
564.051	11.16
564.248	11.15
564.445	11.16
564.642	11.18
564.839	11.23
565.036	11.29
565.234	11.32
565.431	11.45
565.628	11.54
565.825	11.57
566.022	11.68
566.219	11.84
566.416	11.86
566.613	11.9
566.81	12.03
567.007	12.02
567.204	11.97
567.401	12.03
567.598	12.11
567.795	12.17
567.991	12.24
568.188	12.37
568.385	12.26
568.582	12.32
568.779	12.26
568.976	12.35
569.172	12.37
569.369	12.57
569.566	12.61
569.763	12.6
569.96	12.56
570.156	12.55
570.353	12.56
570.55	12.61
570.746	12.74
570.943	12.77
571.14	12.83
571.336	12.83
571.533	12.87
571.729	12.86
571.926	13.03
572.123	13.08
572.319	13.15
572.516	13.1
572.712	13.17
572.909	13.07
573.105	13.09
573.302	13.1
573.498	13.1
573.695	13.06
573.891	13.05
574.087	13.02
574.284	13.03
574.48	13.11
574.677	13.17
574.873	13.26
575.069	13.33
575.266	13.29
575.462	13.31
575.658	13.35
575.854	13.39
576.051	13.32
576.247	13.35
576.443	13.36
576.639	13.42
576.835	13.24
577.032	13.21
577.228	13.23
577.424	13.22
577.62	13.17
577.816	13.24
578.012	13.35
578.208	13.26
578.404	13.23
578.6	13.23
578.796	13.27
578.993	13.24
579.189	13.38
579.384	13.42
579.58	13.41
579.776	13.37
579.972	13.31
580.168	13.16
580.364	13.11
580.56	13.07
580.756	13.04
580.952	13.11
581.148	13.18
581.343	13.16
581.539	13.16
581.735	13.13
581.931	13.1
582.127	13.15
582.322	13.2
582.518	13.23
582.714	13.29
582.909	13.36
583.105	13.25
583.301	13.2
583.496	13.12
583.692	13.07
583.888	12.97
584.083	12.94
584.279	12.91
584.474	12.98
584.67	12.94
584.866	12.88
585.061	12.9
585.257	12.88
585.452	12.84
585.648	12.94
585.843	12.91
586.039	12.89
586.234	12.83
586.429	12.75
586.625	12.64
586.82	12.64
587.015	12.64
587.211	12.62
587.406	12.64
587.601	12.7
587.797	12.76
587.992	12.68
588.187	12.7
588.383	12.72
588.578	12.75
588.773	12.71
588.968	12.83
589.163	12.82
589.359	12.81
589.554	12.71
589.749	12.72
589.944	12.68
590.139	12.68
590.334	12.67
590.529	12.75
590.724	12.87
590.919	12.92
591.114	13
591.309	13.02
591.504	13.04
591.699	12.94
591.894	12.96
592.089	12.92
592.284	12.93
592.479	12.94
592.674	12.98
592.869	13.01
593.064	13.07
593.259	13.1
593.454	13.05
593.648	13.17
593.843	13.16
594.038	13.24
594.233	13.29
594.428	13.37
594.622	13.33
594.817	13.39
595.012	13.32
595.206	13.44
595.401	13.51
595.596	13.5
595.79	13.53
595.985	13.62
596.18	13.55
596.374	13.55
596.569	13.61
596.763	13.73
596.958	13.91
597.153	13.95
597.347	14.01
597.542	14.11
597.736	14.07
597.931	13.99
598.125	14.1
598.319	14.15
598.514	14.08
598.708	14.02
598.903	14.02
599.097	14.1
599.291	14.07
599.486	14.19
599.68	14.33
599.874	14.39
600.069	14.34
600.263	14.44
600.457	14.42
600.651	14.44
600.846	14.46
601.04	14.46
601.234	14.43
601.428	14.48
601.622	14.56
601.817	14.6
602.011	14.63
602.205	14.66
602.399	14.66
602.593	14.55
602.787	14.49
602.981	14.54
603.175	14.55
603.369	14.58
603.563	14.62
603.757	14.69
603.951	14.64
604.145	14.56
604.339	14.55
604.533	14.51
604.727	14.52
604.921	14.5
605.115	14.52
605.309	14.49
605.502	14.55
605.696	14.44
605.89	14.39
606.084	14.42
606.278	14.32
606.471	14.17
606.665	14.14
606.859	14.03
607.053	13.97
607.246	13.96
607.44	13.95
607.634	13.91
607.827	13.95
608.021	13.75
608.214	13.71
608.408	13.78
608.602	13.74
608.795	13.64
608.989	13.66
609.182	13.57
609.376	13.49
609.569	13.45
609.763	13.44
609.956	13.52
610.15	13.44
610.343	13.32
610.537	13.26
610.73	13.25
610.923	13.12
611.117	13.15
611.31	13.08
611.504	13.07
611.697	13.01
611.89	12.98
612.083	12.94
612.277	12.89
612.47	12.78
612.663	12.67
612.856	12.62
613.05	12.54
613.243	12.53
613.436	12.57
613.629	12.48
613.822	12.47
614.015	12.4
614.209	12.28
614.402	12.26
614.595	12.28
614.788	12.13
614.981	12.04
615.174	12
615.367	11.88
615.56	11.83
615.753	11.87
615.946	11.9
616.139	11.91
616.332	11.85
616.525	11.78
616.718	11.73
616.911	11.66
617.103	11.59
617.296	11.62
617.489	11.69
617.682	11.65
617.875	11.63
618.067	11.56
618.26	11.44
618.453	11.18
618.646	11.16
618.838	11.09
619.031	11.06
619.224	11.06
619.417	11.24
619.609	11.23
619.802	11.29
619.994	11.27
620.187	11.26
620.38	11.14
620.572	11
620.765	10.9
620.957	10.82
621.15	10.8
621.342	10.81
621.535	10.92
621.727	10.9
621.92	10.93
622.112	10.88
622.305	10.88
622.497	10.79
622.69	10.65
622.882	10.67
623.074	10.67
623.267	10.66
623.459	10.65
623.651	10.8
623.844	10.75
624.036	10.79
624.228	10.69
624.42	10.73
624.613	10.71
624.805	10.68
624.997	10.61
625.189	10.64
625.381	10.62
625.574	10.6
625.766	10.62
625.958	10.53
626.15	10.57
626.342	10.44
626.534	10.45
626.726	10.39
626.918	10.42
627.11	10.26
627.302	10.31
627.494	10.19
627.686	10.22
627.878	10.2
628.07	10.26
628.262	10.27
628.454	10.21
628.646	10.17
628.838	10.17
629.029	10.09
629.221	10.02
629.413	10.08
629.605	10.04
629.797	10.01
629.989	9.95
630.18	9.95
630.372	9.79
630.564	9.8
630.755	9.73
630.947	9.81
631.139	9.81
631.33	9.91
631.522	9.93
631.714	9.91
631.905	9.79
632.097	9.7
632.289	9.7
632.48	9.61
632.672	9.59
632.863	9.62
633.055	9.66
633.246	9.63
633.438	9.65
633.629	9.68
633.821	9.66
634.012	9.6
634.203	9.57
634.395	9.48
634.586	9.55
634.777	9.57
634.969	9.63
635.16	9.68
635.351	9.67
635.543	9.63
635.734	9.56
635.925	9.5
636.117	9.54
636.308	9.59
636.499	9.51
636.69	9.52
636.881	9.55
637.073	9.51
637.264	9.51
637.455	9.54
637.646	9.51
637.837	9.49
638.028	9.37
638.219	9.33
638.41	9.28
638.601	9.36
638.792	9.36
638.983	9.48
639.174	9.5
639.365	9.49
639.556	9.41
639.747	9.4
639.938	9.36
640.129	9.33
640.32	9.35
640.511	9.42
640.701	9.38
640.892	9.38
641.083	9.42
641.274	9.39
641.465	9.31
641.655	9.32
641.846	9.28
642.037	9.19
642.228	9.11
642.418	9.11
642.609	9.1
642.8	9.06
642.99	9.06
643.181	9.08
643.372	9.05
643.562	8.97
643.753	9.02
643.943	9
644.134	9.02
644.324	9
644.515	9.04
644.705	8.94
644.896	9.03
645.086	8.97
645.277	8.95
645.467	8.95
645.658	9.03
645.848	8.86
646.038	8.96
646.229	9
646.419	9.03
646.61	9.02
646.8	9.12
646.99	9.1
647.18	9
647.371	8.88
647.561	8.84
647.751	8.77
647.941	8.71
648.132	8.73
648.322	8.8
648.512	8.79
648.702	8.93
648.892	8.88
649.082	8.89
649.272	8.84
649.462	8.79
649.653	8.7
649.843	8.77
650.033	8.8
650.223	8.71
650.413	8.69
650.603	8.7
650.793	8.66
650.983	8.62
651.172	8.7
651.362	8.67
651.552	8.58
651.742	8.45
651.932	8.49
652.122	8.54
652.312	8.56
652.502	8.53
652.691	8.55
652.881	8.48
653.071	8.42
653.261	8.32
653.45	8.28
653.64	8.3
653.83	8.34
654.019	8.22
654.209	8.19
654.399	8.19
654.588	8.12
654.778	8.01
654.968	7.96
655.157	7.96
655.347	7.94
655.536	7.85
655.726	7.74
655.915	7.73
656.105	7.61
656.294	7.54
656.484	7.56
656.673	7.54
656.863	7.49
657.052	7.48
657.241	7.39
657.431	7.32
657.62	7.25
657.809	7.19
657.999	7.12
658.188	7.1
658.377	7.08
658.567	7.02
658.756	6.93
658.945	6.88
659.134	6.79
659.324	6.72
659.513	6.67
659.702	6.65
659.891	6.65
660.08	6.6
660.269	6.49
660.458	6.41
660.648	6.34
660.837	6.19
661.026	6.05
661.215	6.04
661.404	6.01
661.593	5.91
661.782	5.88
661.971	5.91
662.16	5.91
662.349	5.88
662.538	5.92
662.726	5.94
662.915	5.98
663.104	5.82
663.293	5.68
663.482	5.64
663.671	5.7
663.86	5.63
664.048	5.71
664.237	5.84
664.426	5.79
664.615	5.68
664.803	5.68
664.992	5.56
665.181	5.59
665.369	5.68
665.558	5.62
665.747	5.69
665.935	5.77
666.124	5.7
666.312	5.61
666.501	5.8
666.69	5.76
666.878	5.78
667.067	5.81
667.255	5.95
667.444	5.91
667.632	5.96
667.82	5.94
668.009	5.99
668.197	5.91
668.386	5.88
668.574	5.87
668.762	6.11
668.951	6.18
669.139	6.11
669.327	6.24
669.516	6.21
669.704	6.1
669.892	6.06
670.08	6.2
670.269	6.15
670.457	6.25
670.645	6.2
670.833	6.26
671.021	6.27
671.21	6.27
671.398	6.24
671.586	6.35
671.774	6.31
671.962	6.44
672.15	6.57
672.338	6.63
672.526	6.72
672.714	6.93
672.902	6.89
673.09	6.82
673.278	6.94
673.466	6.95
673.654	7.02
673.842	7.2
674.03	7.38
674.218	7.53
674.405	7.61
674.593	7.53
674.781	7.53
674.969	7.4
675.157	7.41
675.344	7.35
675.532	7.47
675.72	7.53
675.908	7.58
676.095	7.62
676.283	7.72
676.471	7.71
676.658	7.63
676.846	7.76
677.033	7.78
677.221	7.87
677.409	7.84
677.596	8
677.784	8.07
677.971	8.1
678.159	8.24
678.346	8.47
678.534	8.49
678.721	8.6
678.909	8.53
679.096	8.52
679.283	8.35
679.471	8.42
679.658	8.4
679.846	8.53
680.033	8.66
680.22	8.93
680.408	8.9
680.595	8.95
680.782	8.91
680.969	8.78
681.157	8.72
681.344	8.91
681.531	9.09
681.718	9.27
681.905	9.42
682.093	9.48
682.28	9.39
682.467	9.37
682.654	9.28
682.841	9.28
683.028	9.19
683.215	9.47
683.402	9.56
683.589	9.71
683.776	9.96
683.963	10.21
684.15	10.24
684.337	10.33
684.524	10.53
684.711	10.54
684.898	10.64
685.085	10.69
685.271	10.75
685.458	10.7
685.645	10.59
685.832	10.65
686.019	10.72
686.205	10.84
686.392	10.88
686.579	11.23
686.766	11.47
686.952	11.63
687.139	11.88
687.326	12.12
687.512	12.24
687.699	12.33
687.886	12.45
688.072	12.51
688.259	12.78
688.445	13.12
688.632	13.35
688.818	13.56
689.005	13.7
689.191	14
689.378	14.1
689.564	14.54
689.751	14.88
689.937	15.13
690.124	15.44
690.31	15.81
690.496	16.06
690.683	16.44
690.869	17.03
691.055	17.51
691.242	17.87
691.428	18.29
691.614	18.57
691.8	18.92
691.987	19.15
692.173	19.58
692.359	19.9
692.545	20.38
692.731	20.81
692.918	21.42
693.104	21.86
693.29	22.29
693.476	22.74
693.662	23.36
693.848	23.88
694.034	24.36
694.22	25.07
694.406	25.65
694.592	25.99
694.778	26.49
694.964	27.14
695.15	27.49
695.336	27.96
695.522	28.65
695.708	29.21
695.894	29.64
696.08	30.18
696.265	30.66
696.451	31.28
696.637	31.73
696.823	32.54
697.009	33.05
697.194	33.65
697.38	34.04
697.566	34.44
697.751	34.76
697.937	35.44
698.123	36.59
698.308	37.32
698.494	38.13
698.68	38.84
698.865	39.41
699.051	39.51
699.236	40.07
699.422	40.84
699.607	41.54
699.793	42.21
699.978	42.85
700.164	43.41
700.349	43.85
700.535	44.3
700.72	44.95
700.906	45.36
701.091	45.74
701.276	46.28
701.462	46.58
701.647	47.17
701.832	47.82
702.018	48.37
702.203	49.01
702.388	49.67
702.573	50.05
702.759	50.91
702.944	51.35
703.129	51.68
703.314	52.27
703.499	52.76
703.684	53.14
703.87	53.81
704.055	54.06
704.24	54.77
704.425	55.15
704.61	55.39
704.795	55.91
704.98	56.6
705.165	57
705.35	57.33
705.535	57.72
705.72	58.18
705.905	58.36
706.09	58.4
706.275	58.97
706.459	59.53
706.644	59.58
706.829	60.11
707.014	60.93
707.199	61.31
707.384	61.38
707.568	61.59
707.753	61.94
707.938	61.83
708.123	61.85
708.307	62.09
708.492	62.64
708.677	62.96
708.861	63.47
709.046	63.98
709.231	64.4
709.415	64.82
709.6	65.09
709.784	65.28
709.969	65.34
710.153	65.76
710.338	65.98
710.522	66.41
710.707	66.28
710.891	66.6
711.076	66.99
711.26	67.23
711.445	67.77
711.629	68.82
711.813	69.5
711.998	69.68
712.182	70.3
712.366	70
712.551	69.62
712.735	69.56
712.919	69.43
713.103	69.3
713.288	69.62
713.472	69.75
713.656	70.01
713.84	70.42
714.024	70.84
714.208	70.96
714.393	71.08
714.577	71.24
714.761	71.19
714.945	71.15
715.129	71.33
715.313	71.86
715.497	72.26
715.681	72.59
715.865	72.51
716.049	72.66
716.233	72.67
716.417	72.73
716.601	72.58
716.785	73.03
716.968	73.11
717.152	73.76
717.336	73.37
717.52	74.25
717.704	74.03
717.888	74.61
718.071	74.79
718.255	75.11
718.439	74.91
718.622	75.37
718.806	75.27
718.99	74.54
719.174	74.72
719.357	74.77
719.541	74.99
719.724	74.62
719.908	74.93
720.092	75.28
720.275	76.03
720.459	76.11
720.642	76.6
720.826	76.97
721.009	77.02
721.193	76.68
721.376	76.67
721.559	76.92
721.743	77.04
721.926	77.25
722.11	77.37
722.293	77.46
722.476	77.7
722.66	78.46
722.843	78.49
723.026	78.5
723.21	78.52
723.393	77.92
723.576	77.56
723.759	77.51
723.942	77.82
724.126	77.97
724.309	78.95
724.492	79.2
724.675	79.71
724.858	79.71
725.041	80.19
725.224	79.91
725.407	79.65
725.59	79.76
725.774	80.59
725.957	81.27
726.14	81.15
726.322	82.1
726.505	82.08
726.688	81.42
726.871	81.32
727.054	81.94
727.237	81.7
727.42	81.46
727.603	82.06
727.786	82.02
727.968	81.89
728.151	81.95
728.334	82.63
728.517	82.41
728.699	82.63
728.882	83.39
729.065	83.08
729.248	82.43
729.43	82.49
729.613	82.28
729.796	82.22
729.978	83.05
730.161	84.28
730.343	84.46
730.526	85.19
730.708	84.83
730.891	84.43
731.073	83.73
731.256	83.8
731.438	83.08
731.621	82.97
731.803	83.59
731.986	84.43
732.168	85.03
732.35	85.71
732.533	86.93
732.715	86.95
732.898	86.71
733.08	87.27
733.262	87.6
733.444	86.99
733.627	87.15
733.809	87.06
733.991	86.38
734.173	86.35
734.355	86.11
734.538	85.8
734.72	86.24
734.902	86.77
735.084	86.74
735.266	87.3
735.448	88.43
735.63	89.05
735.812	88.87
735.994	88.13
736.176	87.75
736.358	88.04
736.54	87.5
736.722	87.78
736.904	89.32
737.086	90.17
737.268	89.18
737.45	90.11
737.632	89.44
737.814	89.22
737.995	89.81
738.177	90.11
738.359	89.59
738.541	89.8
738.723	89.95
738.904	89.03
739.086	89.13
739.268	89.12
739.449	90.16
739.631	90.42
739.813	90.74
739.994	91.13
740.176	91.21
740.358	91.08
740.539	91.21
740.721	90.69
740.902	90.52
741.084	91.19
741.265	91.27
741.447	90.38
741.628	90.7
741.81	90.36
741.991	90.63
742.172	90.89
742.354	91.02
742.535	91.25
742.717	91.56
742.898	92.16
743.079	92.53
743.261	93.24
743.442	93.31
743.623	93.02
743.804	91.74
743.986	91.44
744.167	90.18
744.348	91.05
744.529	91.64
744.71	91.77
744.891	91.74
745.073	92.11
745.254	92.46
745.435	92.51
745.616	92.8
745.797	92.55
745.978	93.43
746.159	92.35
746.34	92.21
746.521	92.33
746.702	92.78
746.883	92.2
747.064	91.68
747.245	90.86
747.426	90.03
747.606	89.83
747.787	89.98
747.968	91.03
748.149	91.02
748.33	91.52
748.51	90.76
748.691	90.32
748.872	89.8
749.053	90.64
749.233	91.38
749.414	92.12
749.595	92.29
749.775	93.04
749.956	93.35
750.137	90.28
750.317	89.8
750.498	90.46
750.678	90.51
750.859	90.76
751.04	92.01
751.22	91.74
751.4	91.09
751.581	90.37
751.761	90.38
751.942	91.34
752.122	92.13
752.303	92.37
752.483	92.66
752.663	92.2
752.844	91.89
753.024	91.26
753.204	90.71
753.385	89.19
753.565	88.48
753.745	87.98
753.925	89.45
754.106	90.51
754.286	89.89
754.466	89.73
754.646	90.55
754.826	89
755.006	89.67
755.187	92.11
755.367	93.46
755.547	92.61
755.727	92.55
755.907	91.08
756.087	90.91
756.267	90.87
756.447	92.11
756.627	92.15
756.807	93.26
756.987	92.04
757.167	91.16
757.346	89.92
757.526	90.52
757.706	90.54
757.886	92.49
758.066	93.82
758.246	94.58
758.425	94.63
758.605	92.49
758.785	91.38
758.965	91.67
759.144	90.64
759.324	90.65
759.504	90.94
759.683	90.32
759.863	88.44
760.043	89.28
760.222	90.09
760.402	89.83
760.581	90.96
760.761	91.39
760.94	92.42
761.12	90.89
761.299	92.29
761.479	90.98
761.658	90.35
761.838	89.02
762.017	88.96
762.197	89.58
762.376	91.66
762.555	90.59
762.735	90.94
762.914	89.63
763.093	88.52
763.273	86.02
763.452	88.31
763.631	88.93
763.81	90.52
763.99	90.03
764.169	91.47
764.348	90.18
764.527	89.17
764.706	88.77
764.885	90.25
765.064	90.98
765.243	92.44
765.423	92.43
765.602	89.7
765.781	86.97
765.96	84.15
766.139	82.75
766.318	81.87
766.497	83.56
766.676	84.56
766.854	85.2
767.033	85.3
767.212	84.84
767.391	86.22
767.57	84.93
767.749	86.4
767.928	85.79
768.106	86.58
768.285	84.64
768.464	86.27
768.643	83.91
768.821	84.49
769	84.46
769.179	85.22
769.357	86.78
769.536	88.03
769.715	85.52
769.893	85.83
770.072	86.77
770.25	85.1
770.429	85.83
770.607	87.15
770.786	89.22
770.964	87.77
771.143	87.81
771.321	86.32
771.5	89.97
771.678	86.97
771.857	88.4
772.035	87.59
772.213	88.2
772.392	85.7
772.57	86.37
772.748	85.05
772.927	85.15
773.105	85.56
773.283	86.68
773.461	85.63
773.64	87.68
773.818	86.8
773.996	85.62
774.174	83.94
774.352	85.38
774.531	82.38
774.709	82.2
774.887	82.81
775.065	83.39
775.243	82.89
775.421	83.82
775.599	86.67
775.777	87.29
775.955	83.74
776.133	85.55
776.311	87.36
776.489	87.8
776.667	86.2
776.844	88.79
777.022	86.62
777.2	87.03
777.378	84.38
777.556	84.67
777.734	85.04
777.911	84.86
778.089	84.25
778.267	84.64
778.445	87.39
778.622	85.96
778.8	84.88
778.978	82.04
779.155	81.89
779.333	78.46
779.511	78.13
779.688	79.16
779.866	78.63
780.043	79.84
780.221	78.32
780.398	80.3
780.576	78.39
780.753	82.16
780.931	82.7
781.108	84.67
781.286	84.77
781.463	86.28
781.64	83.04
781.818	81.54
781.995	83.84
782.172	82.86
782.35	81.81
782.527	81.86
782.704	81.84
782.882	79.25
783.059	78.19
783.236	78.35
783.413	79.96
783.59	78.77
783.768	78.53
783.945	81.1
784.122	83
784.299	84.09
784.476	87.12
784.653	86.27
784.83	84.88
785.007	85.2
785.184	84.17
785.361	81.56
785.538	81.52
785.715	79.19
785.892	80.84
786.069	80.83
786.246	85.12
786.423	90.3
786.6	94.74
786.776	90.66
786.953	90.72
787.13	85.32
787.307	83.19
787.484	82.53
787.66	84.03
787.837	84.1
788.014	86.07
788.191	90.81
788.367	85.7
788.544	87.89
788.721	87.37
788.897	87.31
789.074	82.64
789.25	82.92
789.427	81.03
789.603	85.67
789.78	85.71
789.956	84.64
790.133	86.14
790.309	84.79
790.486	78.37
790.662	74.65
790.839	73.26
791.015	73.64
791.192	73.03
791.368	72.71
791.544	73.01
791.721	72.13
791.897	72.47
792.073	76.67
792.249	76.01
792.426	79.41
792.602	79.61
792.778	81.02
792.954	77.44
793.13	80.08
793.307	79.87
793.483	82.83
793.659	80.85
793.835	85.6
794.011	84.34
794.187	78.11
794.363	80.22
794.539	82.87
794.715	75.06
794.891	74.19
795.067	79.46
795.243	74.48
795.419	71.61
795.595	72.91
795.771	71.27
795.947	75.62
796.122	74.46
796.298	77.39
796.474	79.9
796.65	82.21
796.826	73.25
797.001	77.79
797.177	78.76
797.353	78.26
797.529	78.95
797.704	78.68
797.88	75.5
798.056	73.18
798.231	69.68
798.407	69.07
798.582	70.83
798.758	74.4
798.934	75.32
799.109	78.29
799.285	79.02
799.46	82.71
799.636	77.13
799.811	75.28
799.986	76.95
800.162	79.83
800.337	74.57
800.513	78.02
800.688	84.68
800.863	80.14
801.039	78.38
801.214	78.29
801.389	79.72
801.565	75.79
801.74	79.9
801.915	73.66
802.09	72.53
802.265	65.86
802.441	62.02
802.616	59.68
802.791	67.56
802.966	71.73
803.141	78.29
803.316	74.71
803.491	69.48
803.666	64.86
803.841	69.67
804.016	71.24
804.191	80.17
804.366	90.38
804.541	92.39
804.716	84.43
804.891	83.26
805.066	81.36
805.241	78.83
805.416	82.56
805.591	84
805.765	81.76
805.94	79.56
806.115	74.8
806.29	65.99
806.464	74.21
806.639	75.35
806.814	74.14
806.989	76.24
807.163	85.09
807.338	81.58
807.512	75.83
807.687	78.76
807.862	76.68
808.036	73.12
808.211	68.2
808.385	70.97
808.56	70.67
808.734	67.05
808.909	62.02
809.083	63.06
809.258	61.69
809.432	66.81
809.606	68.78
809.781	74.28
809.955	73.24
810.13	75.62
810.304	69.45
810.478	71.61
810.652	67.53
810.827	67.41
811.001	63.13
811.175	64.04
811.349	68.01
811.524	69.78
811.698	67.84
811.872	66.26
812.046	67.31
812.22	70.62
812.394	63.35
812.568	70.09
812.742	74.12
812.916	69.02
813.09	73.7
813.264	84.78
813.438	73.88
813.612	73.78
813.786	82.01
813.96	66.61
814.134	64.14
814.308	83.61
814.482	83.28
814.656	86.08
814.83	91.82
815.003	93.1
815.177	94.95
815.351	93.42
815.525	87.13
815.698	80.25
815.872	74.17
816.046	62.37
816.219	66.91
816.393	74.52
816.567	93.34
816.74	106.12
816.914	106.98
817.088	109.06
817.261	96.44
817.435	79.88
817.608	78.97
817.782	81.7
817.955	84.85
818.129	97.82
818.302	87.46
818.475	95.28
818.649	98.33
818.822	94.6
818.996	81.75
819.169	86.54
819.342	80.4
819.516	72.58
819.689	71.23
819.862	68.6
820.035	68.17
820.209	71.78
820.382	79.93
820.555	78.17
820.728	82.54
820.901	69.61
821.075	61.62
821.248	68.61
821.421	66.88
821.594	62.78
821.767	74.91
821.94	75.27
822.113	63.22
822.286	60.32
822.459	60.32
822.632	60.46
822.805	58.89
822.978	72.38
823.151	84.18
823.324	92.85
823.496	81.16
823.669	68.76
823.842	57.57
824.015	50.2
824.188	38.1
824.361	54.41
824.533	65.26
824.706	60.71
824.879	70.38
825.051	77.07
825.224	78.22
825.397	72.73
825.569	73.5
825.742	73.89
825.915	57.9
826.087	57.77
826.26	55.74
826.432	57.25
826.605	47.55
826.777	57.52
826.95	56.42
827.122	61.07
827.295	59.85
827.467	64.91
827.64	58.43
827.812	49.74
827.984	41.58
828.157	36.52
828.329	57.93
828.501	62.1
828.674	74.09
828.846	77.56
829.018	80.54
829.19	60.61
829.363	58.82
829.535	66.52
829.707	80.19
829.879	92.71
830.051	80.47
830.223	93.64
830.395	87.9
830.568	74.58
830.74	69.96
830.912	72.83
831.084	80.82
831.256	67.66
831.428	73.5
831.6	78.1
831.772	79.45
831.943	60.49
832.115	58.33
832.287	65.72
832.459	57.72
832.631	69
832.803	68.45
832.975	76.86
833.146	82.02
833.318	62.02
833.49	60.52
833.662	69.28
833.833	88.41
834.005	71.8
834.177	82.51
834.348	74.47
834.52	78.16
834.692	63.25
834.863	59.84
835.035	62.98
835.206	63.53
835.378	48.3
835.549	42.91
835.721	65.75
835.892	80.46
836.064	98.66
836.235	111.29
836.407	114.13
836.578	94.01
836.749	91
836.921	98.9
837.092	63.69
837.264	62.68
837.435	65.02
837.606	42.26
837.777	4.09
837.949	14.34
838.12	4.57
838.291	32.77
838.462	54.85
838.633	48.15
838.805	66.79
838.976	64.86
839.147	59.47
839.318	68.61
839.489	51.91
839.66	82.02
839.831	83.86
840.002	123.06
840.173	68.99
840.344	95.21
840.515	89.87
840.686	119.63
840.857	65.92
841.028	73.75
841.199	63.57
841.369	52.14
841.54	60.88
841.711	80.44
841.882	72.29
842.053	83.08
842.223	83.46
842.394	68.07
842.565	47.62
842.736	64.35
842.906	49.27
843.077	46.03
843.248	44.68
843.418	58.24
843.589	45.52
843.759	41.78
843.93	-112.88
844.101	89.46
844.271	37.67
844.442	60.59
844.612	68.16
844.783	78.39
844.953	40.3
845.123	69.46
845.294	93.99
845.464	115.09
845.635	117.97
845.805	135.46
845.975	109.41
846.146	96.45
846.316	39.7
846.486	38.55
846.656	54.92
846.827	120.47
846.997	81.78
847.167	75.28
847.337	67.24
847.507	79.94
847.677	47.35
847.848	62.12
848.018	62.12
848.188	90.26
848.358	73.71
848.528	102.41
848.698	88.41
848.868	100.67
849.038	72.89
849.208	75.3
849.378	72.43
849.548	61.63
849.718	100.79
849.887	-211.52
850.057	3477.42
850.227	145.06
850.397	41.61
850.567	39.7
850.737	32.77
850.906	45.15
851.076	42.3
851.246	71.99
851.415	72.93
851.585	81.98
851.755	79.64
851.924	91.51
852.094	100.05
852.264	84.69
852.433	83.48
852.603	98.27
852.772	92.28
852.942	86.38
853.111	103.02
853.281	84.4
853.45	69.88
853.62	67.97
853.789	21.72
853.959	-33.9
854.128	19.82
854.297	35.03
854.467	92.47
854.636	1.42
854.805	-22.47
854.975	-1.27
855.144	-10.82
855.313	9.65
855.482	27.14
855.652	57.85
855.821	82.61
855.99	134.43
856.159	384.71
856.328	123.24
856.497	153.08
856.667	165.12
856.836	179.9
857.005	147.24
857.174	118.46
857.343	84.68
857.512	35.87
857.681	-8.92
857.85	-8.97
858.019	22.63
858.188	33.44
858.356	26.34
858.525	35.13
858.694	15.31
858.863	23.17
859.032	58.58
859.201	63.43
859.369	59.1
859.538	89.49
859.707	59.27
859.876	49.22
860.044	41.9
860.213	100.8
860.382	108.51
860.55	100.43
860.719	104.12
860.888	115.54
861.056	82.87
861.225	83.44
861.393	101.59
861.562	125.86
861.73	160.17
861.899	154.69
862.067	248.42
862.236	284.36
862.404	162.92
862.572	134.18
862.741	413.66
862.909	147.89
863.078	88.8
863.246	94.41
863.414	80.32
863.582	51.74
863.751	30.5
863.919	27.23
864.087	39.25
864.255	77.03
864.424	82.84
864.592	33.49
864.76	66.96
864.928	105.23
865.096	62.18
865.264	61.87
865.432	59.2
865.6	0.54
865.768	-42.51
865.936	-80.32
866.104	-190.82
866.272	49.04
866.44	36.43
866.608	55.93
866.776	50.94
866.944	43.33
867.112	34.29
867.28	13.95
867.448	24.87
867.615	46.08
867.783	71.1
867.951	68.37
868.119	110
868.286	124.47
868.454	76.4
868.622	32.35
868.789	224.01
868.957	76.92
869.125	-293.95
869.292	926.07
869.46	-650.36
869.627	334.86
869.795	142.99
869.963	93.29
870.13	88.19
870.298	77.02
870.465	105.92
870.632	113.7
870.8	104.94
870.967	150.59
871.135	113.3
871.302	-162.15
871.469	85.96
871.637	47.07
871.804	6.61
871.971	21.53
872.139	44.18
872.306	28.16
872.473	366.83
872.64	74.59
872.807	67.36
872.975	39.28
873.142	74.23
873.309	95.57
873.476	98.77
873.643	99.7
873.81	91.66
873.977	71.42
874.144	45.07
874.311	116.65
874.478	86.98
874.645	50.06
874.812	306.16
874.979	127.54
875.146	51.58
875.313	14.74
875.48	29.26
875.647	13.9
875.813	-868.35
875.98	299.57
876.147	80.84
876.314	68.47
876.481	84.93
876.647	74.64
876.814	104.4
876.981	159.91
877.147	220.15
877.314	162.93
877.481	176.61
877.647	187.85
877.814	198
877.98	137.39
878.147	-157.5
878.314	-105.1
878.48	1165.18
878.647	223.82
878.813	309.35
878.979	62.49
879.146	62.8
879.312	4.38
879.479	57.24
879.645	87.34
879.811	115.67
879.978	143.33
880.144	330.33
880.31	901.44
880.477	-2374.5
880.643	-1601.08
880.809	-3800
880.975	728.64
881.142	-41.56
881.308	-216.83
881.474	-10.78
881.64	52.86
881.806	38.04
881.972	64.99
882.138	51.57
882.304	45.16
882.47	46.11
882.636	53.98
882.802	44.15
882.968	28.19
883.134	30.23
883.3	41.94
883.466	48.89
883.632	57.9
883.798	116
883.964	114.38
884.129	94.63
884.295	97.29
884.461	41.4
884.627	652.04
884.793	116.22
884.958	170.09
885.124	881.19
885.29	-175.57
885.455	-65.27
885.621	15.32
885.787	30.5
885.952	23.63
886.118	120.98
886.283	126.37
886.449	196.33
886.614	75.48
886.78	72.67
886.945	80.1
887.111	55.67
887.276	76.34
887.442	135.29
887.607	140.65
887.773	136.3
887.938	121.49
888.103	146.13
888.269	-206.54
888.434	6929.41
888.599	45.75
888.764	1629.13
888.93	54.77
889.095	71.94
889.26	57.11
889.425	-16.41
889.59	-34.14
889.756	6.85
889.921	-39.96
890.086	-16.18
890.251	19.13
890.416	10.52
890.581	-26.51
890.746	51.2
890.911	104.23
891.076	135.08
891.241	80.74
891.406	9571.43
891.571	434.99
891.736	-9.28
891.901	-34.66
892.065	-32.09
892.23	-87.12
892.395	135.23
892.56	702.01
892.725	-56.07
892.889	-134.4
893.054	-478.15
893.219	-571.22
893.384	-83.65
893.548	-83.99
893.713	-41.32
893.878	-99.48
