Data from Ofav_SP_Phys_9DW32_Reflection_3.txt Node
Date: Thu Aug 05 17:51:44 EDT 2021
User: Adam
Spectrometer: FLMT01687
Trigger mode: 0
Integration Time (sec): 8.000000E-1
Scans to average: 2
Electric dark correction enabled: true
Nonlinearity correction enabled: false
Boxcar width: 2
XAxis mode: Wavelengths
Number of Pixels in Spectrum: 3648
>>>>>Begin Spectral Data<<<<<
179.494	649.42
179.716	755.51
179.937	648.36
180.158	763.13
180.38	1997.03
180.601	-996.28
180.823	-188.07
181.044	-47.26
181.265	-72.08
181.486	32.18
181.708	-432.89
181.929	74.28
182.15	-194.69
182.372	-15.97
182.593	5.83
182.814	-70.83
183.035	-65.36
183.257	77.94
183.478	-196.27
183.699	372.95
183.92	65.93
184.141	181.61
184.363	-244.86
184.584	239.46
184.805	157.13
185.026	106.85
185.247	79.43
185.468	95.29
185.689	68.06
185.91	53.78
186.132	-2.17
186.353	12.24
186.574	-80.29
186.795	-70.86
187.016	-49.97
187.237	-0.63
187.458	-71.61
187.679	-14.96
187.9	-12.33
188.121	-41.03
188.342	-25.69
188.563	11.01
188.784	28.15
189.005	15.77
189.226	101.41
189.447	85.39
189.667	99.31
189.888	287.98
190.109	177.33
190.33	131.1
190.551	117.36
190.772	109.78
190.993	74.25
191.214	69.74
191.434	39.16
191.655	13.9
191.876	37.73
192.097	32.25
192.318	20.06
192.538	-0.77
192.759	114.57
192.98	51.48
193.201	3.04
193.421	-53.06
193.642	-20.17
193.863	-144.33
194.083	-64.56
194.304	-32.88
194.525	-28.23
194.745	-2.68
194.966	40.67
195.187	34.09
195.407	26.23
195.628	-0.79
195.848	-14.68
196.069	10.71
196.29	-7.71
196.51	51.06
196.731	58.25
196.951	77.61
197.172	77.44
197.392	84.76
197.613	6.95
197.833	15.99
198.054	-24.06
198.274	-23.19
198.495	-8.09
198.715	50.34
198.936	38.31
199.156	84.86
199.377	62.03
199.597	46.91
199.817	44.43
200.038	37.73
200.258	27.76
200.479	27.03
200.699	15.76
200.919	1.85
201.14	-20.85
201.36	-64.16
201.58	-32.85
201.801	-87.56
202.021	-51.75
202.241	18.37
202.461	-4.5
202.682	-37.3
202.902	-29.66
203.122	-55.94
203.342	2.02
203.563	22.8
203.783	59.52
204.003	39.98
204.223	40.55
204.443	35.58
204.663	46.4
204.884	29.63
205.104	47.2
205.324	51.34
205.544	49.99
205.764	39.41
205.984	43.63
206.204	35.78
206.424	-12.96
206.644	-29.74
206.864	-28.18
207.084	-52.29
207.304	-5.07
207.525	8.43
207.745	17.5
207.964	29.75
208.184	35.83
208.404	-21.42
208.624	-30.88
208.844	-6.17
209.064	-4.14
209.284	21.16
209.504	2.29
209.724	27.06
209.944	-20.8
210.164	-42.51
210.384	-0.07
210.604	7.07
210.823	22.21
211.043	37.15
211.263	50.85
211.483	31.78
211.703	52.12
211.922	82.59
212.142	82.58
212.362	73.74
212.582	87.17
212.801	64.44
213.021	30.45
213.241	17.29
213.461	-5.52
213.68	6.91
213.9	-24.27
214.12	-32.09
214.339	-26.9
214.559	22.88
214.779	-13.84
214.998	28.26
215.218	36.14
215.438	38.98
215.657	61.15
215.877	114.25
216.096	102.31
216.316	65.23
216.535	45.42
216.755	-90.84
216.974	-164.03
217.194	31.61
217.413	53.2
217.633	67.91
217.852	88.6
218.072	74.21
218.291	56.42
218.511	59.6
218.73	28.14
218.95	47.35
219.169	35.7
219.389	72.9
219.608	28.46
219.827	72.43
220.047	36.47
220.266	25.08
220.485	-25.6
220.705	0.77
220.924	-25.7
221.143	-7.26
221.363	17.46
221.582	19.17
221.801	-20.32
222.021	2.16
222.24	19.82
222.459	6.3
222.678	33.88
222.897	66.89
223.117	32.86
223.336	8.19
223.555	48.95
223.774	8.67
223.993	18.71
224.213	56.07
224.432	66.91
224.651	37.4
224.87	57.86
225.089	64.45
225.308	44.01
225.527	46.47
225.746	8.65
225.965	-0.52
226.184	-25.78
226.404	-8.82
226.623	-23.74
226.842	10.08
227.061	9.91
227.28	9.27
227.499	19
227.718	7.83
227.936	7.5
228.155	21.42
228.374	24.97
228.593	23.09
228.812	30.92
229.031	43.42
229.25	37.61
229.469	52.81
229.688	46.2
229.907	46.61
230.125	18.82
230.344	37.57
230.563	30.74
230.782	62.75
231.001	85.12
231.22	95.29
231.438	65.11
231.657	28.57
231.876	-8.38
232.095	-14.67
232.313	-39.24
232.532	-35.29
232.751	2.57
232.969	11.84
233.188	20.01
233.407	13.68
233.625	56.98
233.844	33.73
234.063	61.97
234.281	69.87
234.5	72.7
234.719	104.2
234.937	66.68
235.156	36.76
235.374	25.16
235.593	13.73
235.811	-20.12
236.03	11.68
236.249	17.86
236.467	2.7
236.686	10.79
236.904	26.06
237.123	30.88
237.341	44.61
237.559	51.69
237.778	48.82
237.996	56.29
238.215	55.38
238.433	62.3
238.652	68.11
238.87	53.76
239.088	31.88
239.307	40.7
239.525	18.92
239.743	-5.33
239.962	-6.99
240.18	-44.48
240.398	-83.11
240.617	-79.76
240.835	-30.8
241.053	-15.73
241.271	-0.07
241.49	22.77
241.708	41.53
241.926	37.06
242.144	29.32
242.363	105.5
242.581	120.03
242.799	63.7
243.017	42.75
243.235	66.32
243.453	44.29
243.672	41.7
243.89	55.19
244.108	159.3
244.326	111.71
244.544	114.69
244.762	56.61
244.98	82.28
245.198	48.33
245.416	48.42
245.634	28.08
245.852	57.24
246.07	43.28
246.288	11.84
246.506	-15.97
246.724	-12.85
246.942	-17.56
247.16	-44.85
247.378	-60.07
247.596	-8
247.814	27.38
248.032	-17.04
248.25	-39.35
248.468	-29.65
248.685	-19.5
248.903	-28.44
249.121	-12.31
249.339	37.86
249.557	39.82
249.775	28.54
249.992	12.34
250.21	27.92
250.428	-15.27
250.646	-8.45
250.863	-11.38
251.081	2.09
251.299	1.07
251.517	41.26
251.734	31.67
251.952	15.58
252.17	35.51
252.387	29.35
252.605	21.48
252.823	23.83
253.04	26.17
253.258	41.2
253.475	35.35
253.693	46.84
253.911	76.13
254.128	86.35
254.346	69.65
254.563	74.42
254.781	58.55
254.998	40.83
255.216	9.78
255.433	-5.31
255.651	1.04
255.868	-1.08
256.086	-26.88
256.303	-18.4
256.521	-32.69
256.738	-66.17
256.956	-117.39
257.173	16.19
257.39	74.46
257.608	65.01
257.825	47.7
258.043	27.76
258.26	21.7
258.477	6.33
258.695	15.37
258.912	25.35
259.129	49.58
259.346	46.84
259.564	48.63
259.781	53.66
259.998	51.97
260.216	45.07
260.433	39.32
260.65	13.97
260.867	-15.75
261.084	-7.55
261.302	14.2
261.519	29.06
261.736	57.32
261.953	46.38
262.17	41.53
262.387	67.83
262.604	73.35
262.822	78.94
263.039	96
263.256	120.56
263.473	77.42
263.69	67.2
263.907	52.59
264.124	44.28
264.341	19.07
264.558	14.65
264.775	-6.97
264.992	0.85
265.209	6.15
265.426	13.13
265.643	9.88
265.86	9.67
266.077	12.54
266.294	17.21
266.51	4.49
266.727	10.06
266.944	49
267.161	56.33
267.378	58.11
267.595	69.26
267.812	66.51
268.028	23.62
268.245	26.03
268.462	16.63
268.679	13.96
268.896	34.43
269.112	54.03
269.329	71.48
269.546	48.29
269.763	45.92
269.979	36.63
270.196	47.49
270.413	40.05
270.629	69.84
270.846	54.61
271.063	36.62
271.279	26.07
271.496	7.74
271.712	-78.47
271.929	-69.19
272.146	-17.4
272.362	-57.24
272.579	-49.6
272.795	-8.13
273.012	-3.52
273.228	-7.86
273.445	-2.95
273.661	47.91
273.878	14.77
274.094	24.66
274.311	25.25
274.527	13.8
274.744	-39.55
274.96	-0.34
275.177	9.7
275.393	2.88
275.609	33.09
275.826	20.61
276.042	21.65
276.259	26.35
276.475	29.51
276.691	6.15
276.908	12.65
277.124	26.98
277.34	19.95
277.557	-4.52
277.773	21.68
277.989	38.41
278.205	42.35
278.422	31.17
278.638	40.95
278.854	39.41
279.07	35.23
279.286	-6.28
279.503	-6.21
279.719	-16.51
279.935	-0.08
280.151	30.69
280.367	66.33
280.583	41.9
280.799	61.21
281.016	63.45
281.232	64.18
281.448	75.26
281.664	78.99
281.88	67.94
282.096	71.17
282.312	67.55
282.528	65.99
282.744	55.43
282.96	63.72
283.176	37.79
283.392	35.44
283.608	38.71
283.824	64.3
284.04	57.46
284.256	59.71
284.471	52.81
284.687	51.15
284.903	39.51
285.119	63.45
285.335	44.84
285.551	32.39
285.767	10.74
285.982	-11.1
286.198	-125.29
286.414	-71.14
286.63	-20.99
286.846	0.5
287.061	10.64
287.277	31.23
287.493	71.01
287.709	39.63
287.924	38.26
288.14	43.76
288.356	48.85
288.571	51.62
288.787	68.38
289.003	85.74
289.218	111.3
289.434	92.23
289.65	49.57
289.865	19.37
290.081	14.25
290.296	3.47
290.512	-11.09
290.727	-11.16
290.943	-6
291.159	-5.56
291.374	11.51
291.59	10.45
291.805	21.67
292.021	52.8
292.236	76.51
292.451	33.42
292.667	63.51
292.882	18.58
293.098	2.14
293.313	5.22
293.529	40.92
293.744	15.54
293.959	7.43
294.175	-1.75
294.39	-11.57
294.605	-25.28
294.821	-2.85
295.036	1.39
295.251	1.96
295.467	25.58
295.682	34.61
295.897	48.09
296.112	53.29
296.328	64.44
296.543	55.31
296.758	24.42
296.973	9.42
297.188	28.13
297.404	22.15
297.619	15.14
297.834	16.66
298.049	-19.09
298.264	-35.5
298.479	-36.92
298.694	-4.54
298.909	33.3
299.125	51.36
299.34	35.95
299.555	19.17
299.77	14.19
299.985	4.52
300.2	18.26
300.415	27.6
300.63	32.49
300.845	25.13
301.06	38.41
301.275	26.62
301.49	45.48
301.704	78.41
301.919	60
302.134	49.48
302.349	63.02
302.564	39.36
302.779	35.32
302.994	44.82
303.209	42.93
303.423	12.43
303.638	-2.16
303.853	-2.61
304.068	-10.46
304.283	-20.46
304.497	-6.73
304.712	-6.34
304.927	-9.63
305.142	-12.96
305.356	-5.15
305.571	23.08
305.786	36.08
306	44.4
306.215	56.76
306.43	78.24
306.644	59.76
306.859	65.69
307.074	69.37
307.288	72
307.503	55.4
307.717	61.31
307.932	26.79
308.147	21.26
308.361	19.73
308.576	-1.88
308.79	-24.69
309.005	17.27
309.219	-0.25
309.434	-38.38
309.648	-30.74
309.863	-19.54
310.077	-98.97
310.292	-88.87
310.506	-29.33
310.72	5.59
310.935	-3.04
311.149	8.54
311.364	27.7
311.578	27.48
311.792	38.35
312.007	50.44
312.221	41.65
312.435	63.18
312.649	41.65
312.864	-4.96
313.078	-5.36
313.292	38.78
313.507	27.79
313.721	40.73
313.935	55.18
314.149	61.92
314.363	25.57
314.578	27.17
314.792	28.39
315.006	38
315.22	43.6
315.434	29.38
315.648	31.28
315.862	19.43
316.077	12.03
316.291	12.7
316.505	33.84
316.719	48.54
316.933	51.48
317.147	33.97
317.361	31.43
317.575	26.62
317.789	13.01
318.003	-2.62
318.217	49.99
318.431	73.89
318.645	81.69
318.859	71.12
319.073	43.6
319.287	-7.66
319.5	1.37
319.714	-7.6
319.928	24.25
320.142	48.26
320.356	56.01
320.57	66
320.784	69.71
320.997	43.39
321.211	49.76
321.425	38.41
321.639	-29.23
321.853	-45.62
322.066	-24.22
322.28	-36.4
322.494	-32.82
322.707	7.26
322.921	27.16
323.135	29.97
323.349	42.24
323.562	58.02
323.776	53.07
323.989	16.97
324.203	-1.79
324.417	13.6
324.63	-4.54
324.844	-27.63
325.057	-5.81
325.271	-19.16
325.485	-19.28
325.698	-4.1
325.912	12.51
326.125	32.64
326.339	64.66
326.552	61.14
326.766	50.1
326.979	57.14
327.193	42.87
327.406	21.78
327.619	23.51
327.833	12.99
328.046	25.39
328.26	15.33
328.473	-6.36
328.686	-8.19
328.9	17.3
329.113	7.5
329.326	5.51
329.54	33.31
329.753	54.2
329.966	61.8
330.179	59.18
330.393	78.63
330.606	81.04
330.819	68.95
331.032	86.73
331.246	123.46
331.459	100.52
331.672	99.51
331.885	88.15
332.098	71.97
332.311	56.71
332.525	49.34
332.738	38.18
332.951	16.19
333.164	8.45
333.377	-3.75
333.59	-4.87
333.803	-16.28
334.016	-13.49
334.229	-20.45
334.442	-4.43
334.655	19.67
334.868	37.13
335.081	50.53
335.294	68.23
335.507	60.03
335.72	63.32
335.933	56.44
336.146	56.51
336.359	58.12
336.572	55.37
336.785	18.03
336.997	19.07
337.21	23.7
337.423	34.78
337.636	55.76
337.849	106.25
338.062	85.93
338.274	58.24
338.487	24.51
338.7	19.42
338.913	-5.37
339.125	23.15
339.338	33.73
339.551	29.52
339.763	59.52
339.976	69.95
340.189	78
340.402	60.11
340.614	50.36
340.827	49.84
341.039	26.71
341.252	9.48
341.465	23.16
341.677	28.1
341.89	-10.6
342.102	22.76
342.315	14.16
342.527	32.1
342.74	38.02
342.952	45.77
343.165	38.8
343.377	42.91
343.59	2.3
343.802	11.19
344.015	2.6
344.227	-3.69
344.44	20.82
344.652	33.51
344.864	36.25
345.077	64.22
345.289	57.18
345.502	39.36
345.714	33.69
345.926	46.89
346.139	35.95
346.351	45.67
346.563	41.11
346.775	58.04
346.988	41.4
347.2	24.96
347.412	28.72
347.624	51.94
347.837	27.28
348.049	37.4
348.261	22.94
348.473	29.13
348.685	30.14
348.897	47.29
349.11	30.76
349.322	34.63
349.534	26.25
349.746	36.16
349.958	21.24
350.17	26.34
350.382	32.71
350.594	34.3
350.806	24.45
351.018	33.22
351.23	43.67
351.442	45.46
351.654	31.03
351.866	31.58
352.078	19.02
352.29	6.15
352.502	21.54
352.714	16.57
352.926	28.7
353.138	35.52
353.35	51.06
353.561	50.06
353.773	60.31
353.985	66.31
354.197	57.69
354.409	44.33
354.621	39.04
354.832	49.99
355.044	36.8
355.256	43.93
355.468	44.3
355.679	61.79
355.891	51.39
356.103	46.81
356.314	58.01
356.526	49.74
356.738	30.19
356.949	29.99
357.161	49.05
357.373	36.59
357.584	57.82
357.796	59.45
358.008	71.5
358.219	55.29
358.431	41.81
358.642	35.97
358.854	37.12
359.065	39.76
359.277	37.05
359.488	29.69
359.7	18.63
359.911	9.93
360.123	14.43
360.334	19.68
360.546	17.35
360.757	35.44
360.969	32.93
361.18	27.86
361.391	23.41
361.603	41.1
361.814	6.73
362.025	28.55
362.237	27.43
362.448	27.14
362.659	30.75
362.871	37.54
363.082	23.24
363.293	14.11
363.504	24.48
363.716	23.38
363.927	51.19
364.138	57.89
364.349	42.56
364.56	37.15
364.772	27.97
364.983	20.6
365.194	27.17
365.405	50.45
365.616	37.28
365.827	39.43
366.038	35.45
366.25	32.56
366.461	28.94
366.672	49.04
366.883	45.08
367.094	39.99
367.305	46.57
367.516	57.37
367.727	48.4
367.938	52.63
368.149	38.59
368.36	50.66
368.571	50.72
368.781	46.08
368.992	25.12
369.203	49.05
369.414	27.2
369.625	17.71
369.836	14.58
370.047	22.18
370.258	-2.42
370.468	1.52
370.679	-2.41
370.89	3.09
371.101	-2.99
371.312	20.66
371.522	16.62
371.733	32.59
371.944	28.7
372.155	44.75
372.365	19.44
372.576	33.05
372.787	34.91
372.997	51.41
373.208	52
373.419	87.69
373.629	73.27
373.84	51.72
374.05	27.9
374.261	20.34
374.472	17.64
374.682	-0.75
374.893	26.37
375.103	32.26
375.314	39.23
375.524	42.71
375.735	59.27
375.945	60.58
376.156	57.71
376.366	50.96
376.577	60.2
376.787	48.45
376.997	39.62
377.208	43.46
377.418	40.2
377.629	31.29
377.839	47.79
378.049	54.36
378.26	45.62
378.47	53.77
378.68	60.81
378.89	51.1
379.101	37.69
379.311	48.76
379.521	44.86
379.732	35.29
379.942	41.92
380.152	44.44
380.362	43.03
380.572	49.99
380.783	46.08
380.993	32.29
381.203	35.9
381.413	29.09
381.623	26.59
381.833	32.98
382.043	39.59
382.253	36.78
382.463	48.29
382.674	45.02
382.884	38.99
383.094	28.74
383.304	23.83
383.514	13.04
383.724	6.68
383.934	18.08
384.144	26.75
384.353	24.11
384.563	24.29
384.773	25.78
384.983	12.39
385.193	13.1
385.403	17.24
385.613	20.72
385.823	22.6
386.033	24.32
386.242	22.9
386.452	26.09
386.662	25.43
386.872	23.43
387.082	25.54
387.291	11.67
387.501	9.11
387.711	6.66
387.921	6.32
388.13	5.56
388.34	15.71
388.55	13.06
388.759	9.07
388.969	10.45
389.179	8.11
389.388	7.02
389.598	9.94
389.807	15.2
390.017	15.83
390.227	17.41
390.436	16.37
390.646	12
390.855	9.28
391.065	8.01
391.274	6.21
391.484	7.36
391.693	8.5
391.903	9.42
392.112	10.55
392.322	8.33
392.531	8.08
392.74	9
392.95	7.11
393.159	6.73
393.369	8.49
393.578	9.14
393.787	9.38
393.997	11.13
394.206	11.25
394.415	12.63
394.625	13.03
394.834	11.97
395.043	11.32
395.252	11.53
395.462	11.38
395.671	10.59
395.88	11.64
396.089	11.62
396.298	11.84
396.508	10.67
396.717	10.1
396.926	9.46
397.135	8.95
397.344	8.2
397.553	9.23
397.762	9.58
397.971	9.7
398.181	10.09
398.39	9.64
398.599	9.41
398.808	9.42
399.017	9.57
399.226	9.45
399.435	9.79
399.644	9.88
399.853	10.02
400.062	10.01
400.27	10.11
400.479	10.16
400.688	10.02
400.897	10.03
401.106	9.75
401.315	9.49
401.524	9.54
401.733	9.43
401.941	9.38
402.15	9.39
402.359	9.43
402.568	9.26
402.777	9.39
402.985	9.04
403.194	9.22
403.403	9.27
403.612	9.17
403.82	8.97
404.029	8.99
404.238	8.98
404.446	8.9
404.655	9.15
404.864	9.15
405.072	9.15
405.281	8.97
405.489	8.99
405.698	8.76
405.906	8.72
406.115	8.72
406.324	8.83
406.532	8.79
406.741	8.84
406.949	8.72
407.158	8.86
407.366	8.79
407.574	8.91
407.783	8.8
407.991	8.74
408.2	8.55
408.408	8.53
408.617	8.57
408.825	8.66
409.033	8.81
409.242	8.82
409.45	8.67
409.658	8.43
409.867	8.4
410.075	8.46
410.283	8.44
410.491	8.44
410.7	8.56
410.908	8.5
411.116	8.36
411.324	8.4
411.533	8.39
411.741	8.25
411.949	8.19
412.157	8.24
412.365	8.41
412.573	8.3
412.781	8.38
412.99	8.53
413.198	8.52
413.406	8.45
413.614	8.64
413.822	8.62
414.03	8.74
414.238	8.64
414.446	8.59
414.654	8.6
414.862	8.54
415.07	8.4
415.278	8.55
415.486	8.44
415.694	8.48
415.902	8.46
416.109	8.3
416.317	8.26
416.525	8.27
416.733	8.12
416.941	8.24
417.149	8.33
417.357	8.25
417.564	8.05
417.772	8.01
417.98	7.95
418.188	7.8
418.395	7.76
418.603	8
418.811	7.93
419.019	7.83
419.226	8.07
419.434	8.19
419.642	8.05
419.849	8.12
420.057	8.08
420.265	7.98
420.472	7.6
420.68	7.6
420.887	7.64
421.095	7.9
421.302	7.8
421.51	7.95
421.717	8
421.925	7.86
422.132	7.76
422.34	7.71
422.547	7.7
422.755	7.73
422.962	7.84
423.17	7.78
423.377	7.8
423.585	7.89
423.792	7.65
423.999	7.62
424.207	7.36
424.414	7.13
424.621	7.1
424.829	7.21
425.036	7.28
425.243	7.62
425.451	7.93
425.658	7.99
425.865	7.98
426.072	7.77
426.28	7.47
426.487	7.35
426.694	7.25
426.901	7.35
427.108	7.39
427.315	7.62
427.523	7.61
427.73	7.54
427.937	7.43
428.144	7.67
428.351	7.67
428.558	7.71
428.765	7.74
428.972	7.78
429.179	7.52
429.386	7.43
429.593	7.52
429.8	7.62
430.007	7.71
430.214	7.8
430.421	7.96
430.628	7.83
430.835	7.84
431.042	7.86
431.249	7.9
431.456	7.84
431.662	8.02
431.869	8.14
432.076	8.14
432.283	8.23
432.49	8.12
432.697	8.09
432.903	7.74
433.11	7.53
433.317	7.25
433.524	7.36
433.73	7.34
433.937	7.43
434.144	7.69
434.35	7.69
434.557	7.6
434.764	7.56
434.97	7.6
435.177	7.51
435.384	7.46
435.59	7.43
435.797	7.41
436.003	7.41
436.21	7.16
436.416	7.17
436.623	7.17
436.829	7.06
437.036	7.05
437.242	7.23
437.449	7.33
437.655	7.47
437.862	7.73
438.068	7.93
438.275	8.1
438.481	8.09
438.687	7.92
438.894	8
439.1	7.8
439.307	7.76
439.513	7.88
439.719	7.91
439.926	7.78
440.132	7.87
440.338	7.89
440.544	7.87
440.751	7.94
440.957	7.8
441.163	7.66
441.369	7.57
441.575	7.33
441.782	7.37
441.988	7.37
442.194	7.29
442.4	7.3
442.606	7.51
442.812	7.49
443.018	7.47
443.224	7.6
443.431	7.63
443.637	7.49
443.843	7.44
444.049	7.45
444.255	7.48
444.461	7.49
444.667	7.63
444.873	7.56
445.079	7.57
445.284	7.67
445.49	7.53
445.696	7.56
445.902	7.63
446.108	7.68
446.314	7.54
446.52	7.67
446.726	7.65
446.931	7.68
447.137	7.7
447.343	7.83
447.549	7.82
447.755	7.85
447.96	7.84
448.166	7.89
448.372	7.81
448.578	7.82
448.783	7.9
448.989	7.91
449.195	7.97
449.4	8.07
449.606	8.16
449.812	8.06
450.017	8.2
450.223	8.12
450.428	8.08
450.634	7.97
450.84	7.91
451.045	7.7
451.251	7.7
451.456	7.69
451.662	7.71
451.867	7.85
452.073	8.08
452.278	8.07
452.483	8.07
452.689	8.04
452.894	8.03
453.1	8.03
453.305	8.1
453.51	8.23
453.716	8.33
453.921	8.31
454.127	8.27
454.332	8.19
454.537	8.03
454.742	8
454.948	7.98
455.153	7.97
455.358	7.98
455.563	8.13
455.769	8
455.974	8
456.179	7.86
456.384	7.72
456.589	7.75
456.795	7.84
457	7.85
457.205	7.99
457.41	8.24
457.615	8.13
457.82	8.17
458.025	8.17
458.23	8.11
458.435	7.98
458.64	7.98
458.845	8.13
459.05	8.12
459.255	8.15
459.46	8.27
459.665	8.44
459.87	8.33
460.075	8.39
460.28	8.51
460.485	8.53
460.69	8.4
460.895	8.3
461.099	8.28
461.304	8.18
461.509	8.25
461.714	8.21
461.919	8.33
462.123	8.25
462.328	8.31
462.533	8.32
462.738	8.48
462.942	8.42
463.147	8.6
463.352	8.57
463.556	8.57
463.761	8.52
463.966	8.58
464.17	8.61
464.375	8.66
464.58	8.47
464.784	8.53
464.989	8.61
465.193	8.57
465.398	8.63
465.602	8.95
465.807	9.06
466.011	9.07
466.216	9.05
466.42	9.13
466.625	9.13
466.829	9.07
467.034	9.04
467.238	9.08
467.443	8.87
467.647	8.55
467.851	8.45
468.056	8.42
468.26	8.38
468.464	8.51
468.669	8.77
468.873	8.87
469.077	8.78
469.282	8.91
469.486	8.8
469.69	8.71
469.894	8.67
470.099	8.79
470.303	8.69
470.507	8.68
470.711	8.7
470.915	8.6
471.119	8.63
471.324	8.69
471.528	8.65
471.732	8.61
471.936	8.68
472.14	8.67
472.344	8.62
472.548	8.75
472.752	8.79
472.956	8.73
473.16	8.76
473.364	8.79
473.568	8.71
473.772	8.69
473.976	8.85
474.18	8.82
474.384	8.84
474.588	8.97
474.792	8.9
474.995	8.84
475.199	8.85
475.403	8.79
475.607	8.76
475.811	8.83
476.015	8.81
476.218	8.8
476.422	8.82
476.626	8.86
476.83	8.93
477.033	8.94
477.237	8.94
477.441	8.86
477.644	8.74
477.848	8.76
478.052	8.71
478.255	8.65
478.459	8.73
478.663	8.76
478.866	8.6
479.07	8.66
479.273	8.7
479.477	8.73
479.681	8.78
479.884	8.81
480.088	8.72
480.291	8.8
480.495	8.69
480.698	8.69
480.901	8.69
481.105	8.85
481.308	8.73
481.512	8.79
481.715	8.78
481.919	8.84
482.122	8.85
482.325	8.91
482.529	8.91
482.732	8.91
482.935	8.81
483.138	8.85
483.342	8.81
483.545	8.87
483.748	8.91
483.952	9.06
484.155	8.95
484.358	8.88
484.561	8.77
484.764	8.69
484.967	8.67
485.171	8.58
485.374	8.68
485.577	8.75
485.78	8.77
485.983	8.72
486.186	8.77
486.389	8.72
486.592	8.67
486.795	8.67
486.998	8.6
487.201	8.6
487.404	8.57
487.607	8.65
487.81	8.57
488.013	8.55
488.216	8.48
488.419	8.5
488.622	8.35
488.825	8.45
489.028	8.46
489.231	8.58
489.433	8.54
489.636	8.62
489.839	8.47
490.042	8.47
490.245	8.41
490.447	8.42
490.65	8.38
490.853	8.53
491.056	8.46
491.258	8.46
491.461	8.45
491.664	8.39
491.866	8.26
492.069	8.4
492.272	8.28
492.474	8.23
492.677	8.25
492.879	8.28
493.082	8.25
493.285	8.33
493.487	8.32
493.69	8.35
493.892	8.31
494.095	8.35
494.297	8.33
494.5	8.45
494.702	8.41
494.905	8.36
495.107	8.24
495.309	8.21
495.512	8.04
495.714	8.09
495.917	8.23
496.119	8.27
496.321	8.34
496.524	8.34
496.726	8.32
496.928	8.23
497.13	8.22
497.333	8.12
497.535	8.32
497.737	8.29
497.939	8.37
498.142	8.35
498.344	8.39
498.546	8.29
498.748	8.28
498.95	8.26
499.152	8.22
499.355	8.18
499.557	8.2
499.759	8.26
499.961	8.19
500.163	8.19
500.365	8.4
500.567	8.41
500.769	8.38
500.971	8.34
501.173	8.39
501.375	8.3
501.577	8.26
501.779	8.23
501.981	8.35
502.183	8.37
502.385	8.27
502.587	8.17
502.788	8.18
502.99	8.12
503.192	8.04
503.394	8
503.596	8.01
503.798	7.98
503.999	7.98
504.201	7.98
504.403	8.15
504.605	8.23
504.806	8.19
505.008	8.17
505.21	8.11
505.411	7.98
505.613	7.94
505.815	8
506.016	8.05
506.218	8.07
506.42	8.07
506.621	8.05
506.823	8.1
507.024	8.08
507.226	8.14
507.427	8.09
507.629	8.12
507.83	8.09
508.032	8.02
508.233	8.05
508.435	8.05
508.636	8.01
508.838	7.98
509.039	8.05
509.24	8.03
509.442	8.09
509.643	8.15
509.845	8.17
510.046	8.12
510.247	8.19
510.448	8.18
510.65	8.11
510.851	8.06
511.052	8.09
511.254	7.99
511.455	8.03
511.656	7.98
511.857	7.95
512.058	7.9
512.26	7.87
512.461	7.8
512.662	7.88
512.863	7.86
513.064	7.95
513.265	7.94
513.466	7.98
513.667	8.02
513.868	8.06
514.069	8.06
514.27	8.05
514.471	8
514.672	7.96
514.873	7.86
515.074	7.84
515.275	7.84
515.476	7.92
515.677	7.91
515.878	8
516.079	7.97
516.28	7.95
516.481	7.88
516.682	7.85
516.882	7.84
517.083	7.81
517.284	7.86
517.485	7.81
517.686	7.84
517.886	7.83
518.087	7.84
518.288	7.8
518.488	7.8
518.689	7.79
518.89	7.83
519.091	7.82
519.291	7.77
519.492	7.85
519.692	7.86
519.893	7.91
520.094	7.87
520.294	7.88
520.495	7.82
520.695	7.8
520.896	7.67
521.096	7.7
521.297	7.74
521.497	7.77
521.698	7.78
521.898	7.83
522.099	7.79
522.299	7.82
522.499	7.82
522.7	7.79
522.9	7.74
523.101	7.77
523.301	7.75
523.501	7.69
523.702	7.72
523.902	7.76
524.102	7.84
524.302	7.81
524.503	7.78
524.703	7.74
524.903	7.75
525.103	7.7
525.304	7.63
525.504	7.75
525.704	7.76
525.904	7.73
526.104	7.68
526.304	7.74
526.504	7.68
526.705	7.72
526.905	7.7
527.105	7.77
527.305	7.79
527.505	7.79
527.705	7.76
527.905	7.76
528.105	7.73
528.305	7.74
528.505	7.76
528.705	7.77
528.905	7.73
529.105	7.69
529.304	7.7
529.504	7.7
529.704	7.7
529.904	7.75
530.104	7.79
530.304	7.74
530.503	7.7
530.703	7.66
530.903	7.71
531.103	7.66
531.303	7.67
531.502	7.7
531.702	7.71
531.902	7.67
532.101	7.75
532.301	7.75
532.501	7.76
532.7	7.76
532.9	7.73
533.1	7.68
533.299	7.66
533.499	7.73
533.698	7.74
533.898	7.77
534.097	7.78
534.297	7.81
534.496	7.71
534.696	7.73
534.895	7.76
535.095	7.72
535.294	7.73
535.494	7.7
535.693	7.65
535.892	7.63
536.092	7.67
536.291	7.68
536.491	7.78
536.69	7.84
536.889	7.8
537.088	7.76
537.288	7.74
537.487	7.73
537.686	7.77
537.886	7.82
538.085	7.91
538.284	7.94
538.483	7.93
538.682	7.94
538.882	8.02
539.081	7.98
539.28	8
539.479	8
539.678	7.96
539.877	7.89
540.076	7.9
540.275	7.89
540.474	7.81
540.673	7.84
540.872	7.85
541.071	7.9
541.27	7.94
541.469	8.03
541.668	7.99
541.867	8.02
542.066	8
542.265	8.06
542.464	8.06
542.663	8.11
542.862	8.19
543.06	8.22
543.259	8.22
543.458	8.27
543.657	8.35
543.856	8.29
544.054	8.27
544.253	8.23
544.452	8.21
544.651	8.12
544.849	8.18
545.048	8.15
545.247	8.15
545.445	8.18
545.644	8.12
545.843	8.07
546.041	8.13
546.24	8.17
546.438	8.23
546.637	8.34
546.836	8.41
547.034	8.5
547.233	8.54
547.431	8.58
547.63	8.64
547.828	8.68
548.027	8.61
548.225	8.51
548.423	8.44
548.622	8.42
548.82	8.36
549.019	8.41
549.217	8.46
549.415	8.53
549.614	8.58
549.812	8.61
550.01	8.65
550.209	8.77
550.407	8.78
550.605	8.79
550.803	8.83
551.002	8.85
551.2	8.82
551.398	8.92
551.596	9
551.794	9.12
551.993	9.11
552.191	9.16
552.389	9.17
552.587	9.15
552.785	9.08
552.983	9.17
553.181	9.2
553.379	9.2
553.577	9.33
553.775	9.37
553.973	9.36
554.171	9.41
554.369	9.47
554.567	9.5
554.765	9.59
554.963	9.66
555.161	9.68
555.359	9.71
555.557	9.67
555.755	9.73
555.952	9.74
556.15	9.77
556.348	9.82
556.546	9.93
556.744	9.9
556.941	9.95
557.139	10.02
557.337	10.04
557.535	10.01
557.732	10.13
557.93	10.19
558.128	10.2
558.325	10.22
558.523	10.3
558.721	10.24
558.918	10.25
559.116	10.33
559.313	10.32
559.511	10.42
559.708	10.56
559.906	10.64
560.104	10.65
560.301	10.8
560.498	10.81
560.696	10.82
560.893	10.84
561.091	10.98
561.288	11.06
561.486	11.08
561.683	11.13
561.88	11.11
562.078	11.09
562.275	11.06
562.473	11.08
562.67	11.14
562.867	11.24
563.064	11.24
563.262	11.2
563.459	11.35
563.656	11.29
563.853	11.29
564.051	11.33
564.248	11.41
564.445	11.33
564.642	11.41
564.839	11.5
565.036	11.63
565.234	11.67
565.431	11.78
565.628	11.82
565.825	11.86
566.022	11.94
566.219	11.99
566.416	11.97
566.613	12.01
566.81	12.08
567.007	11.96
567.204	11.95
567.401	11.96
567.598	12.01
567.795	11.99
567.991	12.01
568.188	12.06
568.385	12.08
568.582	12.13
568.779	12.07
568.976	12.21
569.172	12.23
569.369	12.3
569.566	12.34
569.763	12.43
569.96	12.36
570.156	12.35
570.353	12.36
570.55	12.29
570.746	12.28
570.943	12.31
571.14	12.34
571.336	12.34
571.533	12.38
571.729	12.51
571.926	12.58
572.123	12.63
572.319	12.63
572.516	12.56
572.712	12.53
572.909	12.53
573.105	12.61
573.302	12.62
573.498	12.61
573.695	12.48
573.891	12.45
574.087	12.36
574.284	12.36
574.48	12.39
574.677	12.51
574.873	12.52
575.069	12.53
575.266	12.56
575.462	12.64
575.658	12.62
575.854	12.69
576.051	12.67
576.247	12.59
576.443	12.56
576.639	12.58
576.835	12.45
577.032	12.4
577.228	12.58
577.424	12.55
577.62	12.46
577.816	12.4
578.012	12.48
578.208	12.31
578.404	12.37
578.6	12.44
578.796	12.5
578.993	12.51
579.189	12.5
579.384	12.41
579.58	12.37
579.776	12.3
579.972	12.21
580.168	12.12
580.364	12.09
580.56	12.01
580.756	11.94
580.952	11.94
581.148	12.02
581.343	12.06
581.539	12.17
581.735	12.23
581.931	12.2
582.127	12.14
582.322	12.05
582.518	11.93
582.714	11.97
582.909	11.98
583.105	12.01
583.301	12.07
583.496	12.11
583.692	12.05
583.888	11.98
584.083	11.88
584.279	11.89
584.474	11.77
584.67	11.71
584.866	11.7
585.061	11.74
585.257	11.69
585.452	11.81
585.648	11.88
585.843	11.88
586.039	11.92
586.234	11.92
586.429	11.78
586.625	11.78
586.82	11.77
587.015	11.66
587.211	11.51
587.406	11.52
587.601	11.48
587.797	11.49
587.992	11.36
588.187	11.48
588.383	11.56
588.578	11.6
588.773	11.5
588.968	11.69
589.163	11.68
589.359	11.59
589.554	11.54
589.749	11.63
589.944	11.61
590.139	11.6
590.334	11.63
590.529	11.66
590.724	11.72
590.919	11.73
591.114	11.71
591.309	11.71
591.504	11.71
591.699	11.63
591.894	11.56
592.089	11.58
592.284	11.55
592.479	11.58
592.674	11.66
592.869	11.82
593.064	11.9
593.259	12
593.454	11.95
593.648	11.96
593.843	11.83
594.038	11.81
594.233	11.85
594.428	11.88
594.622	11.94
594.817	12.04
595.012	12
595.206	12.07
595.401	12.21
595.596	12.05
595.79	12.05
595.985	12.1
596.18	12.07
596.374	12.07
596.569	12.2
596.763	12.29
596.958	12.51
597.153	12.41
597.347	12.4
597.542	12.52
597.736	12.49
597.931	12.41
598.125	12.58
598.319	12.62
598.514	12.54
598.708	12.57
598.903	12.57
599.097	12.61
599.291	12.6
599.486	12.65
599.68	12.63
599.874	12.65
600.069	12.64
600.263	12.73
600.457	12.79
600.651	12.81
600.846	12.86
601.04	12.75
601.234	12.63
601.428	12.6
601.622	12.62
601.817	12.57
602.011	12.69
602.205	12.73
602.399	12.72
602.593	12.8
602.787	12.81
602.981	12.82
603.175	12.98
603.369	12.98
603.563	12.97
603.757	12.94
603.951	12.86
604.145	12.71
604.339	12.71
604.533	12.65
604.727	12.74
604.921	12.77
605.115	12.74
605.309	12.72
605.502	12.79
605.696	12.62
605.89	12.57
606.084	12.66
606.278	12.67
606.471	12.51
606.665	12.53
606.859	12.43
607.053	12.35
607.246	12.28
607.44	12.36
607.634	12.41
607.827	12.46
608.021	12.35
608.214	12.32
608.408	12.29
608.602	12.24
608.795	12.17
608.989	12.22
609.182	12.2
609.376	12.1
609.569	12.07
609.763	12.04
609.956	12.05
610.15	12.04
610.343	11.98
610.537	11.96
610.73	11.98
610.923	11.88
611.117	11.81
611.31	11.71
611.504	11.64
611.697	11.61
611.89	11.63
612.083	11.61
612.277	11.62
612.47	11.59
612.663	11.43
612.856	11.38
613.05	11.31
613.243	11.32
613.436	11.27
613.629	11.3
613.822	11.21
614.015	11.16
614.209	11.04
614.402	11.07
614.595	11.03
614.788	11.13
614.981	11.06
615.174	11.05
615.367	10.93
615.56	10.86
615.753	10.73
615.946	10.74
616.139	10.68
616.332	10.63
616.525	10.58
616.718	10.49
616.911	10.48
617.103	10.5
617.296	10.54
617.489	10.48
617.682	10.52
617.875	10.5
618.067	10.44
618.26	10.29
618.453	10.25
618.646	10.21
618.838	10.14
619.031	10.1
619.224	10.2
619.417	10.32
619.609	10.27
619.802	10.32
619.994	10.28
620.187	10.3
620.38	10.22
620.572	10.21
620.765	10.13
620.957	10.17
621.15	10.16
621.342	10.15
621.535	10.12
621.727	10.11
621.92	10.07
622.112	9.96
622.305	9.98
622.497	9.92
622.69	9.8
622.882	9.72
623.074	9.78
623.267	9.71
623.459	9.74
623.651	9.78
623.844	9.79
624.036	9.78
624.228	9.8
624.42	9.77
624.613	9.79
624.805	9.84
624.997	9.84
625.189	9.83
625.381	9.86
625.574	9.83
625.766	9.75
625.958	9.72
626.15	9.76
626.342	9.65
626.534	9.68
626.726	9.72
626.918	9.63
627.11	9.49
627.302	9.52
627.494	9.46
627.686	9.43
627.878	9.43
628.07	9.47
628.262	9.4
628.454	9.4
628.646	9.42
628.838	9.5
629.029	9.44
629.221	9.44
629.413	9.4
629.605	9.33
629.797	9.28
629.989	9.32
630.18	9.33
630.372	9.23
630.564	9.26
630.755	9.09
630.947	9.09
631.139	9.02
631.33	9.03
631.522	8.99
631.714	9.1
631.905	9.01
632.097	9
632.289	9.07
632.48	9.03
632.672	8.97
632.863	8.93
633.055	8.99
633.246	9
633.438	8.95
633.629	8.96
633.821	9.02
634.012	8.91
634.203	8.86
634.395	8.89
634.586	8.97
634.777	8.93
634.969	8.94
635.16	8.96
635.351	8.9
635.543	8.83
635.734	8.82
635.925	8.77
636.117	8.8
636.308	8.85
636.499	8.76
636.69	8.72
636.881	8.83
637.073	8.72
637.264	8.7
637.455	8.7
637.646	8.72
637.837	8.71
638.028	8.67
638.219	8.63
638.41	8.72
638.601	8.74
638.792	8.71
638.983	8.73
639.174	8.63
639.365	8.52
639.556	8.48
639.747	8.46
639.938	8.5
640.129	8.62
640.32	8.67
640.511	8.69
640.701	8.62
640.892	8.68
641.083	8.75
641.274	8.71
641.465	8.61
641.655	8.7
641.846	8.59
642.037	8.53
642.228	8.53
642.418	8.55
642.609	8.42
642.8	8.37
642.99	8.23
643.181	8.21
643.372	8.18
643.562	8.2
643.753	8.28
643.943	8.34
644.134	8.36
644.324	8.41
644.515	8.47
644.705	8.41
644.896	8.47
645.086	8.38
645.277	8.37
645.467	8.39
645.658	8.37
645.848	8.23
646.038	8.31
646.229	8.32
646.419	8.32
646.61	8.46
646.8	8.54
646.99	8.57
647.18	8.51
647.371	8.45
647.561	8.34
647.751	8.38
647.941	8.26
648.132	8.26
648.322	8.33
648.512	8.31
648.702	8.24
648.892	8.29
649.082	8.32
649.272	8.22
649.462	8.19
649.653	8.27
649.843	8.18
650.033	8.21
650.223	8.2
650.413	8.2
650.603	8.2
650.793	8.23
650.983	8.11
651.172	8.04
651.362	8.06
651.552	7.98
651.742	7.93
651.932	7.99
652.122	8.1
652.312	8.11
652.502	8.02
652.691	8.09
652.881	8.09
653.071	8.09
653.261	7.95
653.45	7.95
653.64	8
653.83	7.98
654.019	7.89
654.209	7.92
654.399	7.95
654.588	7.78
654.778	7.7
654.968	7.58
655.157	7.59
655.347	7.5
655.536	7.6
655.726	7.49
655.915	7.5
656.105	7.37
656.294	7.34
656.484	7.28
656.673	7.31
656.863	7.4
657.052	7.42
657.241	7.38
657.431	7.33
657.62	7.25
657.809	7.11
657.999	7.14
658.188	7.1
658.377	7.09
658.567	7.06
658.756	7.02
658.945	6.9
659.134	6.82
659.324	6.74
659.513	6.7
659.702	6.64
659.891	6.63
660.08	6.65
660.269	6.58
660.458	6.53
660.648	6.58
660.837	6.44
661.026	6.31
661.215	6.36
661.404	6.31
661.593	6.1
661.782	6.1
661.971	6.16
662.16	6.08
662.349	6.11
662.538	6.18
662.726	6.19
662.915	6.22
663.104	6.18
663.293	6.11
663.482	6.12
663.671	6.28
663.86	6.24
664.048	6.29
664.237	6.39
664.426	6.29
664.615	6.14
664.803	6.12
664.992	6.02
665.181	5.93
665.369	6.03
665.558	6
665.747	6.13
665.935	6.29
666.124	6.34
666.312	6.27
666.501	6.4
666.69	6.38
666.878	6.25
667.067	6.2
667.255	6.4
667.444	6.48
667.632	6.52
667.82	6.58
668.009	6.63
668.197	6.57
668.386	6.45
668.574	6.31
668.762	6.32
668.951	6.53
669.139	6.49
669.327	6.52
669.516	6.61
669.704	6.6
669.892	6.47
670.08	6.43
670.269	6.41
670.457	6.4
670.645	6.35
670.833	6.38
671.021	6.5
671.21	6.53
671.398	6.63
671.586	6.73
671.774	6.81
671.962	6.9
672.15	7
672.338	6.93
672.526	7.12
672.714	7.17
672.902	6.99
673.09	6.89
673.278	6.98
673.466	6.94
673.654	7.15
673.842	7.36
674.03	7.58
674.218	7.61
674.405	7.63
674.593	7.53
674.781	7.61
674.969	7.57
675.157	7.7
675.344	7.67
675.532	7.67
675.72	7.69
675.908	7.72
676.095	7.66
676.283	7.76
676.471	7.79
676.658	7.79
676.846	7.78
677.033	7.89
677.221	7.9
677.409	7.95
677.596	8
677.784	8.11
677.971	8.13
678.159	8.23
678.346	8.27
678.534	8.36
678.721	8.42
678.909	8.5
679.096	8.58
679.283	8.52
679.471	8.51
679.658	8.55
679.846	8.47
680.033	8.61
680.22	8.87
680.408	8.89
680.595	8.77
680.782	8.73
680.969	8.58
681.157	8.39
681.344	8.52
681.531	8.66
681.718	8.72
681.905	8.83
682.093	8.91
682.28	8.82
682.467	8.96
682.654	9.03
682.841	9.01
683.028	8.99
683.215	9.12
683.402	9.08
683.589	9.19
683.776	9.21
683.963	9.34
684.15	9.48
684.337	9.41
684.524	9.53
684.711	9.63
684.898	9.73
685.085	9.53
685.271	9.8
685.458	9.87
685.645	9.76
685.832	9.5
686.019	9.56
686.205	9.51
686.392	9.54
686.579	9.73
686.766	10.08
686.952	10.3
687.139	10.4
687.326	10.25
687.512	10.32
687.699	10.44
687.886	10.52
688.072	10.37
688.259	10.71
688.445	10.97
688.632	10.91
688.818	11.06
689.005	11.41
689.191	11.63
689.378	11.76
689.564	12.06
689.751	12.14
689.937	12.27
690.124	12.46
690.31	12.6
690.496	13
690.683	13.27
690.869	13.47
691.055	13.73
691.242	13.98
691.428	13.95
691.614	14.25
691.8	14.57
691.987	14.79
692.173	15.19
692.359	15.76
692.545	16.01
692.731	16.45
692.918	16.74
693.104	16.95
693.29	17.14
693.476	17.61
693.662	18.03
693.848	18.53
694.034	18.76
694.22	19.51
694.406	19.69
694.592	19.95
694.778	20.04
694.964	20.66
695.15	20.61
695.336	20.92
695.522	21.35
695.708	21.82
695.894	22.22
696.08	22.71
696.265	23.29
696.451	23.69
696.637	24.18
696.823	24.66
697.009	25.08
697.194	25.5
697.38	25.92
697.566	26.3
697.751	26.63
697.937	27.1
698.123	27.67
698.308	28.13
698.494	28.67
698.68	28.99
698.865	29.34
699.051	29.6
699.236	30.07
699.422	30.67
699.607	31.2
699.793	31.98
699.978	32.6
700.164	33.01
700.349	33.28
700.535	33.82
700.72	34.25
700.906	34.7
701.091	35.03
701.276	35.43
701.462	35.68
701.647	36.26
701.832	36.58
702.018	37.21
702.203	37.66
702.388	38.06
702.573	38.16
702.759	38.69
702.944	38.94
703.129	39.53
703.314	40.01
703.499	40.49
703.684	40.86
703.87	41.07
704.055	41.55
704.24	42.16
704.425	42.55
704.61	43.08
704.795	43.68
704.98	43.96
705.165	44.21
705.35	44.75
705.535	45.14
705.72	45.74
705.905	45.85
706.09	46.31
706.275	46.27
706.459	46.33
706.644	46.36
706.829	47.09
707.014	47.35
707.199	47.58
707.384	48.04
707.568	48.55
707.753	48.79
707.938	49.13
708.123	49.89
708.307	50.11
708.492	50.56
708.677	50.36
708.861	50.32
709.046	50.24
709.231	50.63
709.415	50.58
709.6	50.83
709.784	51.18
709.969	51.57
710.153	51.83
710.338	52.37
710.522	52.86
710.707	53.19
710.891	53.07
711.076	53.11
711.26	53.29
711.445	53.91
711.629	54.26
711.813	54.97
711.998	55.43
712.182	55.15
712.366	55
712.551	55.02
712.735	55.01
712.919	54.77
713.103	55.4
713.288	55.8
713.472	56.16
713.656	56.25
713.84	56.64
714.024	56.54
714.208	56.42
714.393	56.5
714.577	57.05
714.761	56.72
714.945	57.34
715.129	57.69
715.313	57.97
715.497	57.79
715.681	58.02
715.865	58.32
716.049	58.76
716.233	58.88
716.417	59.21
716.601	59.85
716.785	59.62
716.968	59.23
717.152	59.45
717.336	59.89
717.52	60.41
717.704	60.22
717.888	60.89
718.071	61.41
718.255	61.38
718.439	61.05
718.622	61.49
718.806	60.92
718.99	60.19
719.174	59.93
719.357	60.39
719.541	60.72
719.724	61.07
719.908	61.32
720.092	61.91
720.275	62.02
720.459	61.99
720.642	62.11
720.826	62.67
721.009	62.73
721.193	62.38
721.376	62.63
721.559	63.15
721.743	63.44
721.926	63.39
722.11	63.79
722.293	63.7
722.476	63.64
722.66	63.63
722.843	63.8
723.026	64.03
723.21	64.45
723.393	64.4
723.576	64.45
723.759	64.17
723.942	64.28
724.126	64.53
724.309	64.85
724.492	65.05
724.675	65.41
724.858	65.58
725.041	65.39
725.224	65.25
725.407	65.58
725.59	66.21
725.774	65.89
725.957	66.06
726.14	66.31
726.322	66.13
726.505	66.26
726.688	66.87
726.871	67
727.054	67.88
727.237	68.58
727.42	68.73
727.603	68.84
727.786	69.17
727.968	68.91
728.151	68.54
728.334	68.49
728.517	69.19
728.699	69.22
728.882	69.53
729.065	69.6
729.248	69.72
729.43	68.89
729.613	69.73
729.796	69.79
729.978	70.56
730.161	70.92
730.343	72.31
730.526	71.85
730.708	72.14
730.891	71.69
731.073	71.61
731.256	70.71
731.438	70.94
731.621	70.53
731.803	71.06
731.986	72.09
732.168	72.56
732.35	73.35
732.533	74.08
732.715	73.71
732.898	72.71
733.08	73.27
733.262	73.08
733.444	72.76
733.627	73.82
733.809	74.48
733.991	74.21
734.173	74.56
734.355	75.44
734.538	75.7
734.72	76.23
734.902	76.8
735.084	76.64
735.266	76.76
735.448	76.93
735.63	77.01
735.812	77.53
735.994	77.01
736.176	77.2
736.358	77.42
736.54	78.31
736.722	77.79
736.904	78.5
737.086	78.14
737.268	77.66
737.45	77.46
737.632	78.28
737.814	78.92
737.995	79.51
738.177	79.73
738.359	79.1
738.541	78.46
738.723	78.05
738.904	77.83
739.086	77.89
739.268	77.87
739.449	78.12
739.631	78.93
739.813	79.27
739.994	79.49
740.176	80.86
740.358	81.74
740.539	81.76
740.721	81.26
740.902	81.69
741.084	81.89
741.265	81.61
741.447	81.09
741.628	82.16
741.81	81.31
741.991	81.12
742.172	81.54
742.354	82.2
742.535	82.36
742.717	83.78
742.898	84.02
743.079	83.8
743.261	83.94
743.442	84.61
743.623	84.1
743.804	83.12
743.986	82.88
744.167	82.23
744.348	81.95
744.529	81.85
744.71	81.56
744.891	82.65
745.073	83.24
745.254	83.17
745.435	84.52
745.616	86.1
745.797	85.79
745.978	85.68
746.159	85.27
746.34	85.22
746.521	84.5
746.702	84.44
746.883	84.25
747.064	83.6
747.245	82.7
747.426	83.33
747.606	82.81
747.787	84.25
747.968	85.93
748.149	85.65
748.33	85.26
748.51	85.02
748.691	83.99
748.872	82.88
749.053	82.95
749.233	83.09
749.414	83.49
749.595	83.82
749.775	84.28
749.956	84.11
750.137	83.08
750.317	83.43
750.498	82.26
750.678	83.46
750.859	84.8
751.04	86.41
751.22	85.94
751.4	87.17
751.581	85.96
751.761	85.66
751.942	85.09
752.122	86.25
752.303	85.65
752.483	86.32
752.663	85.61
752.844	85.98
753.024	85.87
753.204	86.32
753.385	84.34
753.565	84.75
753.745	83.99
753.925	85.66
754.106	85.87
754.286	86.28
754.466	86.1
754.646	86.53
754.826	85.34
755.006	85.84
755.187	87.93
755.367	87.97
755.547	86.75
755.727	84.98
755.907	85.08
756.087	83.94
756.267	84.31
756.447	85.76
756.627	86.28
756.807	86.74
756.987	87.3
757.167	88.31
757.346	88.92
757.526	90.45
757.706	89.91
757.886	90.17
758.066	89.96
758.246	88.95
758.425	88.03
758.605	86.66
758.785	87.12
758.965	87.48
759.144	88.32
759.324	87.59
759.504	87.62
759.683	87.21
759.863	85.6
760.043	85.98
760.222	87.84
760.402	88.99
760.581	88.02
760.761	89.83
760.94	87.6
761.12	86.91
761.299	87.19
761.479	86.81
761.658	84.47
761.838	85.28
762.017	83.92
762.197	83.92
762.376	85.3
762.555	85.63
762.735	87.09
762.914	85.32
763.093	84.49
763.273	83.21
763.452	84.41
763.631	83.05
763.81	84.6
763.99	85.85
764.169	86.47
764.348	84.66
764.527	84.46
764.706	85.81
764.885	84.38
765.064	82.97
765.243	83.56
765.423	83.06
765.602	81.7
765.781	82.54
765.96	82.26
766.139	82.75
766.318	83.33
766.497	83.89
766.676	80.85
766.854	82.74
767.033	81.89
767.212	82.08
767.391	81.72
767.57	85.43
767.749	85.9
767.928	86.34
768.106	85.5
768.285	86.23
768.464	86.07
768.643	86.96
768.821	87.02
769	86.46
769.179	85.03
769.357	83.73
769.536	83.43
769.715	83.07
769.893	82.89
770.072	83.36
770.25	83.19
770.429	81.79
770.607	80.16
770.786	82.67
770.964	82.55
771.143	81.94
771.321	79.53
771.5	85.09
771.678	82.8
771.857	83.57
772.035	83.41
772.213	86.65
772.392	82.89
772.57	85.2
772.748	86.05
772.927	88.59
773.105	86.29
773.283	87.32
773.461	86.56
773.64	86.32
773.818	83.25
773.996	85.58
774.174	84.86
774.352	84.65
774.531	82.74
774.709	83.63
774.887	84.4
775.065	83.39
775.243	83.46
775.421	84.06
775.599	85
775.777	81.77
775.955	79.87
776.133	79.57
776.311	79.03
776.489	79.92
776.667	79.53
776.844	83.01
777.022	83.44
777.2	86.05
777.378	83.56
777.556	85.16
777.734	82.97
777.911	83.6
778.089	81.69
778.267	80.51
778.445	80.71
778.622	81.26
778.8	80.56
778.978	79.82
779.155	81.33
779.333	79.04
779.511	75.5
779.688	75.23
779.866	73.28
780.043	72.43
780.221	73.36
780.398	78.19
780.576	73.68
780.753	75.3
780.931	75.28
781.108	76.91
781.286	77.46
781.463	79.12
781.64	81.2
781.818	83.42
781.995	83.23
782.172	82.31
782.35	84.72
782.527	81.58
782.704	82.58
782.882	82.65
783.059	82.2
783.236	79.28
783.413	84.95
783.59	82.59
783.768	77.23
783.945	79.24
784.122	83.86
784.299	79.82
784.476	79.96
784.653	86.14
784.83	83.93
785.007	82.84
785.184	83.79
785.361	84.72
785.538	85.07
785.715	82.57
785.892	82.15
786.069	80.64
786.246	81.45
786.423	82.8
786.6	86.13
786.776	83.91
786.953	82.29
787.13	79.38
787.307	77.93
787.484	79.15
787.66	83.16
787.837	87.47
788.014	89.35
788.191	91.73
788.367	87.73
788.544	90.3
788.721	88.34
788.897	90.02
789.074	86.27
789.25	85.4
789.427	79.75
789.603	85.31
789.78	84.39
789.956	85.63
790.133	88.47
790.309	88.62
790.486	80.13
790.662	78.89
790.839	76.5
791.015	77.56
791.192	75.34
791.368	77.79
791.544	76.56
791.721	78.75
791.897	79.94
792.073	84
792.249	82.41
792.426	83.56
792.602	83.12
792.778	77.59
792.954	76.63
793.13	76.88
793.307	78.58
793.483	77.73
793.659	81.45
793.835	81.37
794.011	85.32
794.187	79.41
794.363	80.95
794.539	77.23
794.715	73.12
794.891	68.55
795.067	68.64
795.243	70.19
795.419	71.52
795.595	74.95
795.771	73.54
795.947	80.66
796.122	74.18
796.298	76.44
796.474	78.63
796.65	80.82
796.826	77.23
797.001	80.64
797.177	83.05
797.353	81.99
797.529	84.13
797.704	81.63
797.88	79.9
798.056	74.92
798.231	74.53
798.407	71.53
798.582	75.72
798.758	82.93
798.934	85.38
799.109	91.99
799.285	96.52
799.46	97.81
799.636	93.24
799.811	93.49
799.986	89.25
800.162	90.47
800.337	84.77
800.513	77.3
800.688	82.58
800.863	79.96
801.039	77.24
801.214	74.06
801.389	80.35
801.565	77.47
801.74	79.09
801.915	76.92
802.09	82.62
802.265	78.54
802.441	83.19
802.616	81.28
802.791	84.08
802.966	88.06
803.141	93.43
803.316	83.12
803.491	75.13
803.666	76.61
803.841	78
804.016	79.68
804.191	86.13
804.366	100.08
804.541	97.83
804.716	86.51
804.891	84.1
805.066	78.15
805.241	75.3
805.416	67.86
805.591	80.88
805.765	80.24
805.94	79.48
806.115	75.28
806.29	83.33
806.464	84.14
806.639	82.62
806.814	87.54
806.989	81.29
807.163	92.01
807.338	83.15
807.512	79.65
807.687	70.25
807.862	67.46
808.036	59.74
808.211	60.04
808.385	62.25
808.56	61.35
808.734	69.38
808.909	70.08
809.083	65.22
809.258	70.25
809.432	80.09
809.606	82.91
809.781	80.53
809.955	83.86
810.13	80.95
810.304	84.13
810.478	76.75
810.652	75.86
810.827	70.26
811.001	69.15
811.175	65.88
811.349	71.65
811.524	86.56
811.698	89.46
811.872	95.86
812.046	96.57
812.22	95.31
812.394	75.46
812.568	82.31
812.742	82.67
812.916	76.35
813.09	89.94
813.264	98.37
813.438	95.67
813.612	97.65
813.786	90.32
813.96	73.69
814.134	76.31
814.308	79.28
814.482	76.33
814.656	96.12
814.83	95.62
815.003	91.24
815.177	85.78
815.351	78.19
815.525	70.82
815.698	70.18
815.872	68.17
816.046	67.24
816.219	71.27
816.393	80.91
816.567	93.09
816.74	104.43
816.914	124.2
817.088	138.08
817.261	145.56
817.435	134.31
817.608	138.96
817.782	109.66
817.955	111.06
818.129	114.55
818.302	102.26
818.475	99.6
818.649	109.59
818.822	97.71
818.996	74.31
819.169	82.27
819.342	86.26
819.516	81.35
819.689	91.43
819.862	105.78
820.035	93.48
820.209	71.46
820.382	75.58
820.555	65.19
820.728	71.14
820.901	63.97
821.075	92.88
821.248	101.47
821.421	98.92
821.594	89.46
821.767	91.82
821.94	76.05
822.113	45.98
822.286	44.11
822.459	42.74
822.632	58.56
822.805	69.85
822.978	86.42
823.151	85.79
823.324	82.53
823.496	51.8
823.669	46.31
823.842	64.67
824.015	57.86
824.188	65.89
824.361	81.61
824.533	105.76
824.706	80.21
824.879	87.94
825.051	84.95
825.224	90.81
825.397	82.18
825.569	81.97
825.742	81.35
825.915	67.24
826.087	71.07
826.26	68.39
826.432	70.91
826.605	51.8
826.777	63.87
826.95	62.25
827.122	65.93
827.295	57.92
827.467	73.65
827.64	42.93
827.812	31.12
827.984	26.6
828.157	33.09
828.329	56.1
828.501	93.57
828.674	103.43
828.846	118.2
829.018	130.31
829.19	129.36
829.363	111.66
829.535	114.15
829.707	95.12
829.879	84.51
830.051	78.77
830.223	86.13
830.395	77.26
830.568	74.86
830.74	78.33
830.912	53.17
831.084	51.55
831.256	44.01
831.428	38.04
831.6	31.92
831.772	65.83
831.943	34.1
832.115	34.51
832.287	58.12
832.459	49.62
832.631	44.26
832.803	64.58
832.975	77.85
833.146	63.07
833.318	58.24
833.49	60.69
833.662	64.19
833.833	73.68
834.005	84.37
834.177	106.16
834.348	109.5
834.52	109.05
834.692	134.61
834.863	106.59
835.035	96.68
835.206	94.11
835.378	101.11
835.549	90.93
835.721	102.49
835.892	103.54
836.064	103.14
836.235	107.8
836.407	107.65
836.578	102.72
836.749	108.86
836.921	114.71
837.092	108.17
837.264	91.92
837.435	85.18
837.606	85.59
837.777	67.94
837.949	80.02
838.12	35.35
838.291	64.73
838.462	70.98
838.633	43.16
838.805	37.3
838.976	101.5
839.147	110.75
839.318	130.41
839.489	128.57
839.66	144.05
839.831	94.29
840.002	67.77
840.173	21.53
840.344	37.12
840.515	21.67
840.686	-4.78
840.857	19.22
841.028	48.07
841.199	70.03
841.369	72.49
841.54	75.36
841.711	109.18
841.882	81.37
842.053	65.32
842.223	70.93
842.394	86.95
842.565	66.96
842.736	85.19
842.906	65.5
843.077	62.09
843.248	56.28
843.418	64.51
843.589	64.38
843.759	101.76
843.93	128.57
844.101	474.24
844.271	119.02
844.442	90.88
844.612	98.09
844.783	101.33
844.953	34.21
845.123	37.59
845.294	53.82
845.464	48.84
845.635	65.32
845.805	104.36
845.975	105.03
846.146	128.9
846.316	129.84
846.486	103.12
846.656	114.77
846.827	146.88
846.997	87.71
847.167	92.52
847.337	71.02
847.507	82.6
847.677	52.65
847.848	87.8
848.018	116.46
848.188	138.67
848.358	91.35
848.528	157.61
848.698	139.01
848.868	92.86
849.038	94.75
849.208	126.77
849.378	94.54
849.548	59.47
849.718	493.14
849.887	-103.07
850.057	570.97
850.227	686.27
850.397	1081.21
850.567	-56.98
850.737	55.32
850.906	58.68
851.076	85.02
851.246	98.4
851.415	103.45
851.585	106.92
851.755	107.72
851.924	108.06
852.094	133.67
852.264	108.14
852.433	56.86
852.603	64.11
852.772	48.32
852.942	19.62
853.111	6.99
853.281	43.75
853.45	30.45
853.62	39.59
853.789	-7.22
853.959	-159.1
854.128	31.99
854.297	134.61
854.467	518.02
854.636	-183.07
854.805	2.54
854.975	-22.97
855.144	-15.79
855.313	48.38
855.482	78.38
855.652	61.15
855.821	85.13
855.99	138.05
856.159	292.8
856.328	90.45
856.497	137.46
856.667	133.91
856.836	151.84
857.005	130.4
857.174	110.44
857.343	126.32
857.512	122.62
857.681	84.65
857.85	68.24
858.019	31.06
858.188	25.03
858.356	-16.51
858.525	-7.06
858.694	11.44
858.863	71.62
859.032	81.15
859.201	66.68
859.369	70.97
859.538	53.57
859.707	4.85
859.876	-5.13
860.044	37.29
860.213	48.02
860.382	105.68
860.55	101.44
860.719	108.73
860.888	100.92
861.056	117.3
861.225	102.21
861.393	175.18
861.562	218
861.73	183.44
861.899	128.3
862.067	167.42
862.236	111.49
862.404	35.36
862.572	20.12
862.741	131.87
862.909	69.89
863.078	66.01
863.246	94.38
863.414	131.35
863.582	94.52
863.751	101.9
863.919	19.57
864.087	17.11
864.255	-26.83
864.424	-126.3
864.592	-62.12
864.76	27.09
864.928	10.15
865.096	20.3
865.264	55.92
865.432	102.16
865.6	105.93
865.768	38.58
865.936	-80.41
866.104	-402.1
866.272	-40.14
866.44	-55.49
866.608	21.97
866.776	70.07
866.944	66.13
867.112	31.36
867.28	-20.05
867.448	27.37
867.615	25.97
867.783	68.1
867.951	47.69
868.119	100.06
868.286	155.26
868.454	100.08
868.622	94.42
868.789	631.39
868.957	-1274.66
869.125	-532.74
869.292	459.24
869.46	-374.09
869.627	-481.71
869.795	-30.91
869.963	46.79
870.13	96.1
870.298	66.07
870.465	93.2
870.632	71.61
870.8	46.61
870.967	50.28
871.135	-47.59
871.302	549.84
871.469	15.34
871.637	33.57
871.804	-26.02
871.971	-27.14
872.139	27.12
872.306	39.24
872.473	233.67
872.64	165.63
872.807	95
872.975	15.99
873.142	29.04
873.309	57.96
873.476	45.88
873.643	34.48
873.81	54.05
873.977	50.83
874.144	14.7
874.311	94.68
874.478	-11.2
874.645	-121.08
874.812	-820.38
874.979	-156.21
875.146	-133.42
875.313	-536.21
875.48	275.22
875.647	46.22
875.813	-186.08
875.98	-142.92
876.147	118.75
876.314	71.27
876.481	32.85
876.647	47.9
876.814	72.37
876.981	94.72
877.147	106.32
877.314	14.01
877.481	16.65
877.647	-130.13
877.814	-167.08
877.98	-313.76
878.147	401.18
878.314	397.01
878.48	-40.08
878.647	-91.79
878.813	861.15
878.979	88.74
879.146	92.42
879.312	39.89
879.479	82.02
879.645	76.03
879.811	93.67
879.978	82.51
880.144	215.75
880.31	519.3
880.477	-1157.72
880.643	-445.95
880.809	-2890.24
880.975	101.01
881.142	-154.65
881.308	-325.25
881.474	69.27
881.64	112.84
881.806	100.06
881.972	106.32
882.138	121.31
882.304	81.11
882.47	25.28
882.636	27.53
882.802	39.34
882.968	28.17
883.134	35.9
883.3	54.58
883.466	60.11
883.632	66.94
883.798	74.23
883.964	86.4
884.129	85.8
884.295	248.9
884.461	-49.85
884.627	371.38
884.793	138.23
884.958	266.36
885.124	2913.86
885.29	-289.22
885.455	-176.12
885.621	5.99
885.787	-4.35
885.952	-9.64
886.118	59.48
886.283	65.13
886.449	98.69
886.614	79.91
886.78	83.52
886.945	94.72
887.111	82.47
887.276	74.94
887.442	106.28
887.607	57.27
887.773	-32.57
887.938	-196.74
888.103	-206.47
888.269	-658.04
888.434	12582.35
888.599	-146.95
888.764	1721.36
888.93	155.67
889.095	90.81
889.26	125.01
889.425	141.17
889.59	94.32
889.756	85.76
889.921	58.43
890.086	24.91
890.251	-6.36
890.416	-44.68
890.581	-101.6
890.746	-35.97
890.911	63.96
891.076	113.48
891.241	-19.91
891.406	-1071.43
891.571	12.31
891.736	230.11
891.901	345.21
892.065	98.63
892.23	209.97
892.395	141.29
892.56	1918.79
892.725	-345.88
892.889	-787.93
893.054	-2338.41
893.219	-4059.71
893.384	-642.98
893.548	-749.76
893.713	-419.01
893.878	-654.97
