Data from Ofav_SP_Phys_0DW46_Reflection_1.txt Node
Date: Thu Aug 05 17:45:16 EDT 2021
User: Adam
Spectrometer: FLMT01687
Trigger mode: 0
Integration Time (sec): 8.000000E-1
Scans to average: 2
Electric dark correction enabled: true
Nonlinearity correction enabled: false
Boxcar width: 2
XAxis mode: Wavelengths
Number of Pixels in Spectrum: 3648
>>>>>Begin Spectral Data<<<<<
179.494	350.92
179.716	434.04
179.937	373.43
180.158	458.34
180.38	1097.71
180.601	-619.37
180.823	-108.4
181.044	139.78
181.265	176.17
181.486	123.18
181.708	-614.09
181.929	-214.78
182.15	8.57
182.372	123.28
182.593	83.26
182.814	-78.89
183.035	8.48
183.257	443.06
183.478	-426.1
183.699	553.5
183.92	258.16
184.141	-1198.65
184.363	1256.76
184.584	-86.88
184.805	-15.99
185.026	-5.09
185.247	20.1
185.468	45.76
185.689	31.75
185.91	12.86
186.132	-46.91
186.353	-78.57
186.574	-211.67
186.795	-134.17
187.016	-112.86
187.237	-60
187.458	-290.71
187.679	-45.38
187.9	-63.5
188.121	-69.45
188.342	-24.75
188.563	10.19
188.784	-8.03
189.005	-94.8
189.226	-40.41
189.447	-65.1
189.667	-54.08
189.888	-44.68
190.109	50.69
190.33	74.58
190.551	84.25
190.772	83.43
190.993	66.97
191.214	54.95
191.434	35.27
191.655	33.22
191.876	35.31
192.097	31.32
192.318	57.86
192.538	94.22
192.759	99.81
192.98	45.77
193.201	-30.82
193.421	-80.5
193.642	-17.41
193.863	-36.73
194.083	27.05
194.304	27.49
194.525	21.69
194.745	31.95
194.966	12.82
195.187	1.24
195.407	-31.36
195.628	-52.1
195.848	-47.1
196.069	-9.92
196.29	-33.81
196.51	6.22
196.731	20.56
196.951	33.89
197.172	49.18
197.392	40.64
197.613	23.49
197.833	33.14
198.054	9.92
198.274	-7.73
198.495	37.35
198.715	63.4
198.936	80.87
199.156	79.86
199.377	61.37
199.597	56.15
199.817	28.08
200.038	22.57
200.258	15.86
200.479	13.81
200.699	-8.48
200.919	3.17
201.14	-8.03
201.36	-36.36
201.58	-34.56
201.801	-136.43
202.021	-120.38
202.241	-111.15
202.461	-109.32
202.682	-125.43
202.902	-144.72
203.122	-202.38
203.342	-4.33
203.563	-23.4
203.783	15.07
204.003	33.91
204.223	28.78
204.443	-19.61
204.663	-20.58
204.884	-9.39
205.104	-2.85
205.324	9.98
205.544	27.11
205.764	22.51
205.984	10.62
206.204	-20.46
206.424	-29.86
206.644	-14.91
206.864	7.51
207.084	-8.08
207.304	38.01
207.525	-7.43
207.745	21.06
207.964	-22.52
208.184	-7.08
208.404	-62.66
208.624	-44.05
208.844	-130.3
209.064	-95.15
209.284	-73.76
209.504	-93.68
209.724	-71.04
209.944	-60.82
210.164	-51.72
210.384	-24.24
210.604	21.46
210.823	32.95
211.043	42.91
211.263	45.99
211.483	44.14
211.703	32.74
211.922	43.97
212.142	50.49
212.362	-3.93
212.582	45.59
212.801	42.49
213.021	15.84
213.241	-15.4
213.461	-7.92
213.68	-46.63
213.9	-61.54
214.12	-71.88
214.339	-28.58
214.559	-8.85
214.779	7.85
214.998	44.88
215.218	45.71
215.438	44.6
215.657	74.03
215.877	38.73
216.096	-12.04
216.316	-40.94
216.535	-50.89
216.755	-56.84
216.974	-81.3
217.194	30.55
217.413	62.54
217.633	43.32
217.852	44.49
218.072	49.29
218.291	62.04
218.511	29.27
218.73	25.56
218.95	11.05
219.169	-34.85
219.389	-6.64
219.608	-29.7
219.827	-9.93
220.047	-0.82
220.266	25.83
220.485	-13.81
220.705	31.58
220.924	19.38
221.143	5.3
221.363	2.95
221.582	7.09
221.801	-42.89
222.021	-0.49
222.24	21.85
222.459	-26.23
222.678	7.17
222.897	32.92
223.117	19.8
223.336	2.35
223.555	46.13
223.774	44.21
223.993	11.61
224.213	19.43
224.432	17.01
224.651	5.66
224.87	-9.81
225.089	18.75
225.308	-16.8
225.527	-21.05
225.746	-54.36
225.965	-42.95
226.184	-64.81
226.404	-22.09
226.623	-49.5
226.842	-19.7
227.061	0.95
227.28	-2.61
227.499	-8.67
227.718	-10.46
227.936	-21.19
228.155	-9.26
228.374	15.16
228.593	12.03
228.812	47.43
229.031	47.89
229.25	34.89
229.469	36.73
229.688	33.73
229.907	25.4
230.125	5.52
230.344	16.54
230.563	8.6
230.782	19.77
231.001	-6.19
231.22	51.82
231.438	38.39
231.657	15.59
231.876	-48.54
232.095	-32.33
232.313	-71.19
232.532	-90.16
232.751	-95.57
232.969	-36.9
233.188	-52.17
233.407	-49.99
233.625	-8.42
233.844	-29.47
234.063	-35.7
234.281	-0.21
234.5	25.59
234.719	-2.17
234.937	-28.42
235.156	-30.78
235.374	-22.48
235.593	-46.61
235.811	-23.16
236.03	6.83
236.249	12.82
236.467	-10.47
236.686	-29.23
236.904	-8.42
237.123	-22.98
237.341	13.29
237.559	-12.09
237.778	9.01
237.996	4.77
238.215	19.85
238.433	0.29
238.652	14.08
238.87	-2.33
239.088	-15.82
239.307	-9.85
239.525	-12.46
239.743	-9.29
239.962	20.09
240.18	48.28
240.398	-16.27
240.617	-38.58
240.835	-3.56
241.053	-7.31
241.271	-21.3
241.49	40.4
241.708	30.19
241.926	17.9
242.144	12.75
242.363	12.16
242.581	3.37
242.799	30.38
243.017	53.34
243.235	-18.38
243.453	-30.42
243.672	-104.96
243.89	-107.24
244.108	-144.62
244.326	-75.3
244.544	-63.53
244.762	15.93
244.98	55.45
245.198	36.46
245.416	64.27
245.634	58.11
245.852	34.77
246.07	26.64
246.288	10.75
246.506	-22.02
246.724	3.6
246.942	8.53
247.16	-23.71
247.378	-90.34
247.596	-81.47
247.814	-113.27
248.032	-90.92
248.25	-122.69
248.468	-73.32
248.685	-54.65
248.903	-24.76
249.121	-37.47
249.339	11.84
249.557	22.78
249.775	28.13
249.992	-11.21
250.21	9.38
250.428	-27.46
250.646	-39.98
250.863	-58.68
251.081	-14.73
251.299	-28.37
251.517	14.47
251.734	18.9
251.952	5.98
252.17	-7.93
252.387	-15.58
252.605	-12.91
252.823	-8.36
253.04	-3.78
253.258	-3.08
253.475	21.17
253.693	19.19
253.911	25.78
254.128	41.08
254.346	45.6
254.563	48.22
254.781	44.39
254.998	44.72
255.216	19.18
255.433	2.85
255.651	-81.12
255.868	-93.82
256.086	-97.35
256.303	-43.49
256.521	-100.07
256.738	-131.59
256.956	-278.33
257.173	-54.37
257.39	-31.27
257.608	-24.64
257.825	4.27
258.043	11.48
258.26	-10.82
258.477	-7.82
258.695	12.8
258.912	20.48
259.129	35.96
259.346	30.43
259.564	15.19
259.781	10.38
259.998	4.53
260.216	-17.11
260.433	-21.12
260.65	-52.33
260.867	-125.5
261.084	-89.87
261.302	-56.18
261.519	-49.08
261.736	-5.93
261.953	5.95
262.17	-21.29
262.387	2.79
262.604	20.09
262.822	12.69
263.039	0.1
263.256	71.25
263.473	25.24
263.69	39.74
263.907	24.32
264.124	16.26
264.341	-8.4
264.558	13.66
264.775	-10.79
264.992	6.65
265.209	2.97
265.426	-12.19
265.643	-27.95
265.86	-24.44
266.077	-52.62
266.294	-44.4
266.51	-21.62
266.727	-8.3
266.944	3.04
267.161	4.05
267.378	10.53
267.595	6.08
267.812	-28.95
268.028	-29.43
268.245	-8.25
268.462	-41.87
268.679	-55.77
268.896	-23.4
269.112	-27.8
269.329	-37.04
269.546	9.61
269.763	19.83
269.979	6.68
270.196	31.32
270.413	24.7
270.629	16.88
270.846	-8.67
271.063	20.7
271.279	-24.69
271.496	-67.56
271.712	-85.33
271.929	-72.36
272.146	-58.63
272.362	-74.33
272.579	-43.73
272.795	-53.76
273.012	-23.17
273.228	-39.7
273.445	-22.01
273.661	-5.73
273.878	-2.16
274.094	-29.55
274.311	-25.71
274.527	-42.29
274.744	-47.54
274.96	-39.66
275.177	-26.42
275.393	-23.76
275.609	12.29
275.826	-7.05
276.042	-1.94
276.259	7.98
276.475	-10.05
276.691	-26.04
276.908	-12.65
277.124	9.68
277.34	9.44
277.557	-5.63
277.773	5.12
277.989	-3.53
278.205	-21.87
278.422	-5.29
278.638	46.07
278.854	36.78
279.07	45.32
279.286	22.44
279.503	10.82
279.719	-44.46
279.935	-15.17
280.151	-22.24
280.367	3.7
280.583	6.44
280.799	28.88
281.016	-2.54
281.232	-32.99
281.448	-59.81
281.664	-65.38
281.88	-113.78
282.096	-36.19
282.312	-4.95
282.528	10.56
282.744	32.68
282.96	25.85
283.176	13.3
283.392	22.4
283.608	21.91
283.824	12.88
284.04	15.88
284.256	18.02
284.471	11.32
284.687	8.87
284.903	13.06
285.119	11.12
285.335	3.17
285.551	-24.54
285.767	-40.15
285.982	-115.2
286.198	-182.21
286.414	-131.12
286.63	-73.44
286.846	-37.12
287.061	3.62
287.277	16.05
287.493	33.35
287.709	25.35
287.924	25.86
288.14	21.94
288.356	16.84
288.571	13.2
288.787	7.39
289.003	1.19
289.218	-49.98
289.434	-49.75
289.65	-18.11
289.865	-17.05
290.081	-18.74
290.296	-12.99
290.512	-12.55
290.727	-19.88
290.943	2.45
291.159	13.27
291.374	33.84
291.59	31.82
291.805	35.66
292.021	34.82
292.236	15.77
292.451	-10.94
292.667	-7.39
292.882	5.12
293.098	-8.48
293.313	21.46
293.529	26.2
293.744	15.1
293.959	9.63
294.175	4.93
294.39	-9.28
294.605	-17.18
294.821	-4.55
295.036	-21.98
295.251	0.23
295.467	1.01
295.682	1.19
295.897	2.63
296.112	8.39
296.328	-18.51
296.543	-25.35
296.758	-45.36
296.973	-42.72
297.188	-11.06
297.404	4.02
297.619	1.46
297.834	3.98
298.049	-19.41
298.264	-43.41
298.479	-61.88
298.694	-22.55
298.909	2.62
299.125	28.49
299.34	30.27
299.555	29.51
299.77	30.68
299.985	25.71
300.2	24.33
300.415	42.98
300.63	31.58
300.845	15.47
301.06	18.13
301.275	21.72
301.49	-4.44
301.704	6.43
301.919	17.98
302.134	15.26
302.349	10.8
302.564	7.56
302.779	6.2
302.994	10.97
303.209	18.83
303.423	-3.28
303.638	5.52
303.853	9.64
304.068	-19.68
304.283	-27.9
304.497	-26.12
304.712	-52.73
304.927	-65.74
305.142	-41.62
305.356	-24.56
305.571	-10.62
305.786	5.28
306	18.24
306.215	32.41
306.43	40.96
306.644	38.62
306.859	38.52
307.074	31.76
307.288	9.91
307.503	13.53
307.717	28.84
307.932	20.99
308.147	20.13
308.361	37.56
308.576	30.29
308.79	11.32
309.005	21.32
309.219	17.22
309.434	-8.07
309.648	-43.11
309.863	-59.71
310.077	-121.8
310.292	-132.27
310.506	-102.46
310.72	-62.3
310.935	-57.32
311.149	-67.23
311.364	-30.25
311.578	-2.51
311.792	13.69
312.007	0.28
312.221	5.81
312.435	18.03
312.649	-2.03
312.864	-20.24
313.078	-5.26
313.292	31.58
313.507	28.28
313.721	35.26
313.935	22.58
314.149	19.01
314.363	-4.94
314.578	-7.06
314.792	-21.28
315.006	-19.22
315.22	-1.15
315.434	-23.49
315.648	-41.9
315.862	6.08
316.077	7.05
316.291	-25.52
316.505	-4.76
316.719	11.91
316.933	9.81
317.147	-5.17
317.361	3.98
317.575	-14.63
317.789	-28.95
318.003	-42.63
318.217	19.32
318.431	18.99
318.645	38.93
318.859	17.42
319.073	-8.76
319.287	-34.67
319.5	4.58
319.714	-6.06
319.928	30.94
320.142	43.46
320.356	20.89
320.57	14.69
320.784	17.37
320.997	3.3
321.211	8.99
321.425	-6.18
321.639	-34.73
321.853	-38.37
322.066	-39.87
322.28	-22.38
322.494	-11.46
322.707	-1.6
322.921	12.13
323.135	8.29
323.349	17.66
323.562	17.74
323.776	25.73
323.989	0.46
324.203	18.86
324.417	17.3
324.63	13.37
324.844	8.32
325.057	17.91
325.271	-15.52
325.485	-11.42
325.698	-10.17
325.912	-21.34
326.125	-9.78
326.339	14.06
326.552	-21.8
326.766	-23.52
326.979	-12.46
327.193	-3.47
327.406	-9.02
327.619	22.97
327.833	12.28
328.046	8.75
328.26	-13.79
328.473	-36.27
328.686	-38.72
328.9	-39.01
329.113	-28.2
329.326	-8.63
329.54	4.15
329.753	-7.31
329.966	26.04
330.179	24.04
330.393	23.89
330.606	44.35
330.819	41.67
331.032	49.59
331.246	76.24
331.459	48.08
331.672	25.16
331.885	27.66
332.098	27.61
332.311	18.61
332.525	12.39
332.738	12.03
332.951	4.33
333.164	0.91
333.377	0.4
333.59	-7.79
333.803	-28.67
334.016	-22.16
334.229	-42.25
334.442	-38.37
334.655	-3.3
334.868	16.13
335.081	13.9
335.294	27.17
335.507	28.84
335.72	27.81
335.933	24.47
336.146	25.26
336.359	12.37
336.572	3.46
336.785	-14.49
336.997	-5.01
337.21	-16.87
337.423	-3.91
337.636	11.13
337.849	38.23
338.062	12.39
338.274	9.17
338.487	33.58
338.7	17.96
338.913	14.39
339.125	40
339.338	48.29
339.551	27.7
339.763	56.25
339.976	46.35
340.189	38.39
340.402	21.85
340.614	24.51
340.827	13.56
341.039	23.99
341.252	11.4
341.465	23.09
341.677	27.02
341.89	9.37
342.102	9.72
342.315	-6.22
342.527	-2.93
342.74	-22.97
342.952	-15.68
343.165	-62.06
343.377	-20.82
343.59	-61.84
343.802	-24.56
344.015	-32.36
344.227	-13.6
344.44	-6.68
344.652	11.67
344.864	14.86
345.077	32.28
345.289	20.64
345.502	18.01
345.714	19.5
345.926	26.45
346.139	23.48
346.351	32.84
346.563	19.58
346.775	4.77
346.988	-25.83
347.2	-33.95
347.412	-59.25
347.624	-7.74
347.837	-13.21
348.049	-22.55
348.261	-23.34
348.473	-9.29
348.685	-7.68
348.897	-10.73
349.11	-1.57
349.322	-24.67
349.534	-25.71
349.746	-26.2
349.958	-12.9
350.17	12.24
350.382	21.1
350.594	18.5
350.806	21.51
351.018	31.3
351.23	24.55
351.442	23.73
351.654	23.87
351.866	17.02
352.078	13.26
352.29	1.5
352.502	10.34
352.714	-3.39
352.926	13.63
353.138	3.97
353.35	12.49
353.561	6.55
353.773	11.91
353.985	-17.37
354.197	11.88
354.409	6.52
354.621	10.73
354.832	26.14
355.044	34.89
355.256	39.79
355.468	43.38
355.679	41.73
355.891	20.44
356.103	12.91
356.314	-3.07
356.526	-15.71
356.738	-27.89
356.949	-29.3
357.161	-4.28
357.373	-11.77
357.584	-11.91
357.796	-17.73
358.008	-21.46
358.219	-38.5
358.431	-37.51
358.642	-25.21
358.854	11.94
359.065	25.34
359.277	18.22
359.488	16
359.7	21.42
359.911	-8.02
360.123	-4.74
360.334	3.7
360.546	-13.24
360.757	-16.22
360.969	-5.46
361.18	-27.47
361.391	-39.98
361.603	10.54
361.814	-3.76
362.025	12.27
362.237	28.99
362.448	27.2
362.659	15.43
362.871	12.41
363.082	-7.05
363.293	-32.67
363.504	-31.59
363.716	-33.89
363.927	-8.74
364.138	-14.54
364.349	-15.2
364.56	-9.58
364.772	-18.02
364.983	-45.56
365.194	-15.15
365.405	-7.55
365.616	-5.29
365.827	11.92
366.038	30
366.25	20.12
366.461	15.74
366.672	12.54
366.883	13.73
367.094	1.96
367.305	15.66
367.516	35.58
367.727	45.81
367.938	39.46
368.149	29.51
368.36	24.25
368.571	0.37
368.781	-33.29
368.992	-32.64
369.203	-1.59
369.414	-16.77
369.625	-26.32
369.836	-37.42
370.047	-26.34
370.258	-41.64
370.468	-28.65
370.679	-6.23
370.89	7.02
371.101	-0.61
371.312	19.31
371.522	5.32
371.733	-10.17
371.944	-5.12
372.155	-0.55
372.365	-18.43
372.576	1.77
372.787	4.43
372.997	8.03
373.208	17.85
373.419	37.06
373.629	22.05
373.84	30.46
374.05	22.6
374.261	24.87
374.472	16.51
374.682	13.38
374.893	13.24
375.103	6.13
375.314	-5.34
375.524	-0.91
375.735	7.22
375.945	12.46
376.156	23.82
376.366	25.63
376.577	23.27
376.787	12.49
376.997	6.34
377.208	6.81
377.418	11.09
377.629	17.13
377.839	42.69
378.049	42.92
378.26	25.47
378.47	22.92
378.68	34.27
378.89	3.64
379.101	-1.99
379.311	10.31
379.521	8.42
379.732	0.89
379.942	4.78
380.152	18.11
380.362	20.48
380.572	28.79
380.783	10.97
380.993	12.86
381.203	8.34
381.413	1.97
381.623	2.19
381.833	10.72
382.043	12.8
382.253	9.64
382.463	16.62
382.674	17.52
382.884	15.82
383.094	13.37
383.304	8.53
383.514	5.12
383.724	-4.22
383.934	0.93
384.144	2.76
384.353	10.81
384.563	14.81
384.773	19.85
384.983	13.87
385.193	15.12
385.403	15.55
385.613	15.82
385.823	10.23
386.033	13.78
386.242	10.95
386.452	6.46
386.662	7.34
386.872	10.16
387.082	14.95
387.291	6.26
387.501	9.45
387.711	5.97
387.921	7.52
388.13	2.36
388.34	10.21
388.55	7.52
388.759	7.12
388.969	4.73
389.179	6.16
389.388	7.1
389.598	8.02
389.807	10.07
390.017	10.68
390.227	8.73
390.436	4.64
390.646	3.12
390.855	3.52
391.065	5.15
391.274	7.39
391.484	11.44
391.693	12.98
391.903	12.94
392.112	14.24
392.322	13.93
392.531	13.84
392.74	14.01
392.95	12.41
393.159	10.21
393.369	10.54
393.578	10.26
393.787	9.84
393.997	10.09
394.206	10.56
394.415	11.15
394.625	11.59
394.834	10.95
395.043	11.08
395.252	10.95
395.462	10.93
395.671	10.19
395.88	11.08
396.089	10.53
396.298	11.07
396.508	10.85
396.717	11.41
396.926	11.48
397.135	11.44
397.344	10.99
397.553	11.12
397.762	10.73
397.971	10.31
398.181	10.76
398.39	10.59
398.599	10.26
398.808	10.25
399.017	10.4
399.226	10.02
399.435	10.25
399.644	10.51
399.853	10.6
400.062	10.01
400.27	10.04
400.479	9.9
400.688	9.82
400.897	9.84
401.106	10.15
401.315	10.14
401.524	10.13
401.733	10.15
401.941	10.03
402.15	10.01
402.359	9.94
402.568	10.13
402.777	10.18
402.985	10.16
403.194	10
403.403	10.28
403.612	10.21
403.82	10.04
404.029	9.98
404.238	10.11
404.446	9.98
404.655	9.89
404.864	9.93
405.072	9.95
405.281	10.02
405.489	10.14
405.698	10.27
405.906	10.26
406.115	10.03
406.324	9.93
406.532	9.73
406.741	9.57
406.949	9.44
407.158	9.73
407.366	9.85
407.574	9.95
407.783	9.99
407.991	10.07
408.2	9.89
408.408	9.82
408.617	9.85
408.825	9.8
409.033	9.74
409.242	9.84
409.45	9.57
409.658	9.54
409.867	9.58
410.075	9.6
410.283	9.58
410.491	9.85
410.7	9.96
410.908	9.9
411.116	9.87
411.324	9.72
411.533	9.64
411.741	9.49
411.949	9.43
412.157	9.41
412.365	9.77
412.573	9.7
412.781	9.61
412.99	9.75
413.198	9.85
413.406	9.71
413.614	9.72
413.822	9.83
414.03	9.88
414.238	9.66
414.446	9.53
414.654	9.53
414.862	9.44
415.07	9.3
415.278	9.51
415.486	9.57
415.694	9.58
415.902	9.58
416.109	9.45
416.317	9.43
416.525	9.34
416.733	9.22
416.941	9.22
417.149	9.34
417.357	9.21
417.564	9.23
417.772	9.22
417.98	9.08
418.188	8.99
418.395	8.9
418.603	8.93
418.811	8.89
419.019	9
419.226	8.88
419.434	9.11
419.642	8.95
419.849	9.13
420.057	9.07
420.265	9.22
420.472	9.08
420.68	9.09
420.887	9.03
421.095	9.21
421.302	9.06
421.51	9.06
421.717	9.08
421.925	9.05
422.132	8.99
422.34	9.14
422.547	9.14
422.755	9.19
422.962	9.26
423.17	9.1
423.377	9
423.585	8.92
423.792	8.68
423.999	8.78
424.207	8.65
424.414	8.43
424.621	8.5
424.829	8.64
425.036	8.66
425.243	8.97
425.451	9.38
425.658	9.41
425.865	9.4
426.072	9.14
426.28	8.82
426.487	8.76
426.694	8.58
426.901	8.52
427.108	8.58
427.315	8.83
427.523	8.87
427.73	8.99
427.937	8.97
428.144	9.1
428.351	9.14
428.558	8.96
428.765	8.78
428.972	8.79
429.179	8.61
429.386	8.46
429.593	8.49
429.8	8.62
430.007	8.57
430.214	8.66
430.421	8.64
430.628	8.62
430.835	8.74
431.042	8.82
431.249	8.78
431.456	8.83
431.662	9.07
431.869	9.12
432.076	9.19
432.283	9.3
432.49	9.21
432.697	8.98
432.903	8.68
433.11	8.61
433.317	8.51
433.524	8.61
433.73	8.74
433.937	8.91
434.144	8.9
434.35	8.84
434.557	8.8
434.764	8.55
434.97	8.53
435.177	8.58
435.384	8.53
435.59	8.49
435.797	8.8
436.003	8.87
436.21	8.7
436.416	8.81
436.623	8.85
436.829	8.75
437.036	8.64
437.242	8.77
437.449	8.72
437.655	8.85
437.862	8.8
438.068	8.92
438.275	8.95
438.481	8.98
438.687	8.78
438.894	8.83
439.1	8.67
439.307	8.73
439.513	8.75
439.719	8.88
439.926	8.95
440.132	9.05
440.338	9.01
440.544	9.01
440.751	8.94
440.957	8.93
441.163	8.87
441.369	8.81
441.575	8.72
441.782	8.8
441.988	8.79
442.194	8.72
442.4	8.72
442.606	8.79
442.812	8.77
443.018	8.63
443.224	8.69
443.431	8.71
443.637	8.63
443.843	8.63
444.049	8.68
444.255	8.77
444.461	8.79
444.667	8.91
444.873	8.84
445.079	8.73
445.284	8.75
445.49	8.75
445.696	8.71
445.902	8.76
446.108	8.84
446.314	8.71
446.52	8.69
446.726	8.66
446.931	8.65
447.137	8.65
447.343	8.71
447.549	8.74
447.755	8.71
447.96	8.67
448.166	8.73
448.372	8.62
448.578	8.58
448.783	8.71
448.989	8.62
449.195	8.55
449.4	8.62
449.606	8.66
449.812	8.62
450.017	8.78
450.223	8.78
450.428	8.9
450.634	8.85
450.84	8.83
451.045	8.77
451.251	8.88
451.456	8.81
451.662	8.81
451.867	8.81
452.073	8.86
452.278	8.86
452.483	8.86
452.689	8.91
452.894	8.95
453.1	8.89
453.305	8.8
453.51	8.83
453.716	8.96
453.921	8.9
454.127	8.95
454.332	8.99
454.537	9
454.742	8.83
454.948	8.85
455.153	8.77
455.358	8.74
455.563	8.72
455.769	8.78
455.974	8.74
456.179	8.71
456.384	8.65
456.589	8.65
456.795	8.69
457	8.76
457.205	8.77
457.41	8.97
457.615	8.98
457.82	8.98
458.025	8.89
458.23	8.98
458.435	8.84
458.64	8.78
458.845	8.79
459.05	8.86
459.255	8.89
459.46	8.88
459.665	8.98
459.87	8.88
460.075	8.92
460.28	8.87
460.485	8.87
460.69	8.86
460.895	8.91
461.099	8.97
461.304	9.14
461.509	9.27
461.714	9.27
461.919	9.26
462.123	9.14
462.328	8.94
462.533	8.91
462.738	8.9
462.942	8.93
463.147	8.99
463.352	9.16
463.556	9.16
463.761	9.17
463.966	9.16
464.17	9.11
464.375	9.04
464.58	9.03
464.784	9.07
464.989	9.15
465.193	9.1
465.398	9.17
465.602	9.34
465.807	9.44
466.011	9.4
466.216	9.46
466.42	9.42
466.625	9.45
466.829	9.38
467.034	9.32
467.238	9.43
467.443	9.42
467.647	9.21
467.851	9.19
468.056	9.23
468.26	9.13
468.464	9.01
468.669	9.04
468.873	8.94
469.077	8.94
469.282	9.09
469.486	9.22
469.69	9.21
469.894	9.3
470.099	9.25
470.303	9.13
470.507	9.1
470.711	9.23
470.915	9.2
471.119	9.23
471.324	9.25
471.528	9.29
471.732	9.11
471.936	9.09
472.14	9.17
472.344	9.18
472.548	9.14
472.752	9.21
472.956	9.21
473.16	9.26
473.364	9.32
473.568	9.34
473.772	9.32
473.976	9.28
474.18	9.1
474.384	9.09
474.588	9.13
474.792	9.05
474.995	9.09
475.199	9.15
475.403	9.03
475.607	8.96
475.811	9.05
476.015	9.05
476.218	9.1
476.422	9.11
476.626	9.17
476.83	9.21
477.033	9.34
477.237	9.36
477.441	9.47
477.644	9.44
477.848	9.41
478.052	9.28
478.255	9.22
478.459	9.21
478.663	9.18
478.866	9.14
479.07	9.12
479.273	9.06
479.477	9.08
479.681	9.11
479.884	9.11
480.088	9.02
480.291	9.05
480.495	9
480.698	8.99
480.901	9
481.105	9.09
481.308	9.11
481.512	9.04
481.715	9.04
481.919	9.04
482.122	9.05
482.325	9.06
482.529	9.04
482.732	9.03
482.935	9.01
483.138	9.11
483.342	9.06
483.545	9.13
483.748	9.07
483.952	9.01
484.155	8.94
484.358	8.99
484.561	8.98
484.764	9.01
484.967	9.12
485.171	9.04
485.374	9.03
485.577	8.99
485.78	9.02
485.983	8.96
486.186	9.01
486.389	8.96
486.592	8.98
486.795	9.02
486.998	9.01
487.201	8.97
487.404	8.96
487.607	9
487.81	8.81
488.013	8.77
488.216	8.81
488.419	8.78
488.622	8.74
488.825	8.84
489.028	8.81
489.231	8.9
489.433	8.95
489.636	8.93
489.839	8.88
490.042	8.98
490.245	8.93
490.447	8.88
490.65	8.87
490.853	8.88
491.056	8.88
491.258	8.78
491.461	8.82
491.664	8.73
491.866	8.73
492.069	8.74
492.272	8.65
492.474	8.65
492.677	8.7
492.879	8.67
493.082	8.63
493.285	8.78
493.487	8.75
493.69	8.75
493.892	8.81
494.095	8.86
494.297	8.81
494.5	8.85
494.702	8.85
494.905	8.75
495.107	8.62
495.309	8.62
495.512	8.54
495.714	8.54
495.917	8.61
496.119	8.65
496.321	8.66
496.524	8.66
496.726	8.68
496.928	8.62
497.13	8.58
497.333	8.6
497.535	8.73
497.737	8.68
497.939	8.76
498.142	8.75
498.344	8.68
498.546	8.63
498.748	8.58
498.95	8.49
499.152	8.45
499.355	8.49
499.557	8.47
499.759	8.62
499.961	8.58
500.163	8.54
500.365	8.56
500.567	8.54
500.769	8.47
500.971	8.49
501.173	8.59
501.375	8.43
501.577	8.45
501.779	8.47
501.981	8.52
502.183	8.52
502.385	8.6
502.587	8.5
502.788	8.45
502.99	8.4
503.192	8.41
503.394	8.42
503.596	8.35
503.798	8.39
503.999	8.44
504.201	8.37
504.403	8.37
504.605	8.47
504.806	8.33
505.008	8.25
505.21	8.25
505.411	8.21
505.613	8.19
505.815	8.21
506.016	8.22
506.218	8.22
506.42	8.29
506.621	8.3
506.823	8.31
507.024	8.29
507.226	8.29
507.427	8.28
507.629	8.23
507.83	8.25
508.032	8.25
508.233	8.26
508.435	8.24
508.636	8.27
508.838	8.28
509.039	8.24
509.24	8.26
509.442	8.24
509.643	8.3
509.845	8.31
510.046	8.38
510.247	8.45
510.448	8.47
510.65	8.36
510.851	8.33
511.052	8.31
511.254	8.19
511.455	8.16
511.656	8.19
511.857	8.18
512.058	8.17
512.26	8.13
512.461	8.14
512.662	8.13
512.863	8.15
513.064	8.19
513.265	8.22
513.466	8.2
513.667	8.2
513.868	8.17
514.069	8.16
514.27	8.14
514.471	8.2
514.672	8.23
514.873	8.2
515.074	8.17
515.275	8.2
515.476	8.16
515.677	8.12
515.878	8.16
516.079	8.19
516.28	8.16
516.481	8.11
516.682	8.13
516.882	8.1
517.083	8.07
517.284	8.13
517.485	8.14
517.686	8.15
517.886	8.17
518.087	8.14
518.288	8.09
518.488	8.08
518.689	8.01
518.89	7.98
519.091	7.94
519.291	7.89
519.492	7.89
519.692	7.92
519.893	7.96
520.094	7.91
520.294	7.95
520.495	7.99
520.695	8.01
520.896	8.02
521.096	8.1
521.297	8.11
521.497	8.1
521.698	8.13
521.898	8.03
522.099	7.99
522.299	7.97
522.499	7.95
522.7	7.91
522.9	7.95
523.101	7.93
523.301	7.93
523.501	7.88
523.702	7.91
523.902	7.87
524.102	7.92
524.302	7.95
524.503	7.95
524.703	7.9
524.903	7.94
525.103	7.97
525.304	7.88
525.504	7.98
525.704	7.96
525.904	7.98
526.104	7.94
526.304	8.02
526.504	7.96
526.705	8.02
526.905	7.99
527.105	8.02
527.305	7.98
527.505	8
527.705	7.95
527.905	7.95
528.105	7.92
528.305	7.94
528.505	7.93
528.705	7.94
528.905	7.9
529.105	7.91
529.304	7.88
529.504	7.92
529.704	7.97
529.904	8.02
530.104	7.98
530.304	8.02
530.503	7.95
530.703	7.87
530.903	7.86
531.103	7.9
531.303	7.91
531.502	7.94
531.702	7.95
531.902	7.96
532.101	7.92
532.301	7.88
532.501	7.89
532.7	7.91
532.9	7.95
533.1	7.96
533.299	7.97
533.499	7.95
533.698	7.95
533.898	7.89
534.097	7.9
534.297	7.89
534.496	7.89
534.696	7.93
534.895	8
535.095	7.99
535.294	7.99
535.494	8.01
535.693	7.96
535.892	7.91
536.092	7.93
536.291	7.95
536.491	7.98
536.69	8.03
536.889	8.01
537.088	7.96
537.288	7.91
537.487	7.9
537.686	7.9
537.886	7.94
538.085	8.01
538.284	8.06
538.483	8.04
538.682	8.05
538.882	8.04
539.081	8.03
539.28	8.03
539.479	8.05
539.678	8.08
539.877	8.09
540.076	8.12
540.275	8.13
540.474	8.07
540.673	8.02
540.872	8.04
541.071	8.04
541.27	8.06
541.469	8.06
541.668	8.07
541.867	8.05
542.066	8.11
542.265	8.19
542.464	8.28
542.663	8.31
542.862	8.39
543.06	8.34
543.259	8.32
543.458	8.26
543.657	8.33
543.856	8.34
544.054	8.36
544.253	8.31
544.452	8.39
544.651	8.35
544.849	8.32
545.048	8.32
545.247	8.39
545.445	8.39
545.644	8.38
545.843	8.41
546.041	8.44
546.24	8.45
546.438	8.5
546.637	8.48
546.836	8.47
547.034	8.47
547.233	8.5
547.431	8.53
547.63	8.59
547.828	8.67
548.027	8.65
548.225	8.65
548.423	8.69
548.622	8.7
548.82	8.66
549.019	8.71
549.217	8.7
549.415	8.69
549.614	8.78
549.812	8.81
550.01	8.89
550.209	8.94
550.407	8.94
550.605	8.93
550.803	8.94
551.002	8.94
551.2	9
551.398	9.07
551.596	9.1
551.794	9.21
551.993	9.27
552.191	9.25
552.389	9.24
552.587	9.27
552.785	9.24
552.983	9.27
553.181	9.32
553.379	9.4
553.577	9.45
553.775	9.5
553.973	9.48
554.171	9.49
554.369	9.5
554.567	9.51
554.765	9.52
554.963	9.59
555.161	9.61
555.359	9.66
555.557	9.69
555.755	9.65
555.952	9.71
556.15	9.8
556.348	9.8
556.546	9.85
556.744	9.99
556.941	10.01
557.139	10.01
557.337	10.09
557.535	10.11
557.732	10.13
557.93	10.19
558.128	10.25
558.325	10.31
558.523	10.38
558.721	10.35
558.918	10.37
559.116	10.43
559.313	10.48
559.511	10.56
559.708	10.73
559.906	10.75
560.104	10.75
560.301	10.79
560.498	10.82
560.696	10.78
560.893	10.91
561.091	10.95
561.288	11.04
561.486	11.06
561.683	11.15
561.88	11.09
562.078	11.14
562.275	11.09
562.473	11.07
562.67	11.13
562.867	11.16
563.064	11.2
563.262	11.27
563.459	11.4
563.656	11.43
563.853	11.53
564.051	11.57
564.248	11.65
564.445	11.66
564.642	11.61
564.839	11.69
565.036	11.78
565.234	11.75
565.431	11.84
565.628	11.91
565.825	11.9
566.022	11.98
566.219	12.04
566.416	12.03
566.613	12.09
566.81	12.17
567.007	12.15
567.204	12.15
567.401	12.19
567.598	12.29
567.795	12.33
567.991	12.34
568.188	12.37
568.385	12.31
568.582	12.35
568.779	12.28
568.976	12.39
569.172	12.51
569.369	12.64
569.566	12.67
569.763	12.79
569.96	12.73
570.156	12.74
570.353	12.72
570.55	12.7
570.746	12.66
570.943	12.65
571.14	12.62
571.336	12.62
571.533	12.64
571.729	12.66
571.926	12.73
572.123	12.74
572.319	12.79
572.516	12.7
572.712	12.77
572.909	12.78
573.105	12.75
573.302	12.78
573.498	12.83
573.695	12.71
573.891	12.7
574.087	12.72
574.284	12.65
574.48	12.67
574.677	12.79
574.873	12.79
575.069	12.87
575.266	12.91
575.462	12.97
575.658	12.94
575.854	12.93
576.051	12.9
576.247	12.89
576.443	12.85
576.639	12.81
576.835	12.74
577.032	12.69
577.228	12.62
577.424	12.6
577.62	12.6
577.816	12.6
578.012	12.72
578.208	12.8
578.404	12.83
578.6	12.81
578.796	12.9
578.993	12.84
579.189	12.76
579.384	12.7
579.58	12.74
579.776	12.62
579.972	12.49
580.168	12.5
580.364	12.49
580.56	12.39
580.756	12.32
580.952	12.35
581.148	12.37
581.343	12.3
581.539	12.31
581.735	12.39
581.931	12.36
582.127	12.27
582.322	12.32
582.518	12.37
582.714	12.32
582.909	12.38
583.105	12.44
583.301	12.41
583.496	12.31
583.692	12.34
583.888	12.23
584.083	12.11
584.279	12.04
584.474	12.08
584.67	11.98
584.866	11.95
585.061	12.02
585.257	11.97
585.452	12
585.648	12.11
585.843	12.09
586.039	12.07
586.234	12.07
586.429	11.97
586.625	11.93
586.82	11.94
587.015	11.91
587.211	11.87
587.406	11.89
587.601	11.91
587.797	12.01
587.992	11.96
588.187	12.01
588.383	12.07
588.578	12.01
588.773	11.97
588.968	12.01
589.163	12.02
589.359	11.98
589.554	11.99
589.749	11.95
589.944	11.97
590.139	11.95
590.334	11.87
590.529	11.89
590.724	11.93
590.919	11.94
591.114	12.01
591.309	12.08
591.504	12.09
591.699	12.1
591.894	12.07
592.089	12.02
592.284	12.01
592.479	12.02
592.674	12.01
592.869	12.04
593.064	12.15
593.259	12.2
593.454	12.15
593.648	12.2
593.843	12.19
594.038	12.14
594.233	12.12
594.428	12.18
594.622	12.17
594.817	12.23
595.012	12.17
595.206	12.24
595.401	12.35
595.596	12.35
595.79	12.43
595.985	12.6
596.18	12.68
596.374	12.62
596.569	12.7
596.763	12.72
596.958	12.82
597.153	12.76
597.347	12.84
597.542	12.84
597.736	12.89
597.931	12.85
598.125	12.91
598.319	12.99
598.514	13.05
598.708	13.07
598.903	13.1
599.097	13.23
599.291	13.22
599.486	13.27
599.68	13.24
599.874	13.18
600.069	13.14
600.263	13.17
600.457	13.18
600.651	13.2
600.846	13.32
601.04	13.22
601.234	13.18
601.428	13.18
601.622	13.25
601.817	13.24
602.011	13.4
602.205	13.45
602.399	13.5
602.593	13.46
602.787	13.47
602.981	13.51
603.175	13.47
603.369	13.37
603.563	13.41
603.757	13.39
603.951	13.32
604.145	13.35
604.339	13.48
604.533	13.43
604.727	13.47
604.921	13.49
605.115	13.5
605.309	13.43
605.502	13.49
605.696	13.41
605.89	13.31
606.084	13.32
606.278	13.3
606.471	13.23
606.665	13.11
606.859	13.08
607.053	13.03
607.246	13.01
607.44	12.91
607.634	13.02
607.827	13.11
608.021	13
608.214	12.94
608.408	13
608.602	12.89
608.795	12.82
608.989	12.82
609.182	12.81
609.376	12.71
609.569	12.68
609.763	12.5
609.956	12.56
610.15	12.43
610.343	12.36
610.537	12.3
610.73	12.4
610.923	12.26
611.117	12.17
611.31	12.17
611.504	12.14
611.697	12.13
611.89	12.09
612.083	12.15
612.277	12.07
612.47	12.01
612.663	11.82
612.856	11.82
613.05	11.82
613.243	11.76
613.436	11.77
613.629	11.78
613.822	11.7
614.015	11.58
614.209	11.58
614.402	11.52
614.595	11.55
614.788	11.53
614.981	11.46
615.174	11.37
615.367	11.34
615.56	11.24
615.753	11.19
615.946	11.19
616.139	11.2
616.332	11.16
616.525	11.07
616.718	11.07
616.911	11
617.103	10.93
617.296	10.86
617.489	10.89
617.682	10.91
617.875	10.94
618.067	10.96
618.26	10.95
618.453	10.8
618.646	10.71
618.838	10.61
619.031	10.54
619.224	10.52
619.417	10.6
619.609	10.61
619.802	10.7
619.994	10.72
620.187	10.72
620.38	10.67
620.572	10.62
620.765	10.66
620.957	10.63
621.15	10.59
621.342	10.58
621.535	10.53
621.727	10.43
621.92	10.42
622.112	10.44
622.305	10.46
622.497	10.45
622.69	10.35
622.882	10.33
623.074	10.29
623.267	10.21
623.459	10.23
623.651	10.29
623.844	10.2
624.036	10.19
624.228	10.16
624.42	10.2
624.613	10.19
624.805	10.29
624.997	10.26
625.189	10.32
625.381	10.34
625.574	10.24
625.766	10.09
625.958	10.05
626.15	10.04
626.342	9.89
626.534	9.94
626.726	10.01
626.918	9.95
627.11	9.86
627.302	9.92
627.494	9.87
627.686	9.89
627.878	9.92
628.07	9.94
628.262	9.88
628.454	9.79
628.646	9.75
628.838	9.75
629.029	9.73
629.221	9.72
629.413	9.8
629.605	9.67
629.797	9.68
629.989	9.66
630.18	9.61
630.372	9.49
630.564	9.6
630.755	9.53
630.947	9.55
631.139	9.51
631.33	9.51
631.522	9.41
631.714	9.43
631.905	9.28
632.097	9.29
632.289	9.32
632.48	9.35
632.672	9.25
632.863	9.37
633.055	9.39
633.246	9.39
633.438	9.32
633.629	9.4
633.821	9.26
634.012	9.2
634.203	9.16
634.395	9.27
634.586	9.3
634.777	9.41
634.969	9.45
635.16	9.51
635.351	9.43
635.543	9.38
635.734	9.36
635.925	9.35
636.117	9.36
636.308	9.4
636.499	9.28
636.69	9.25
636.881	9.18
637.073	9.12
637.264	9.1
637.455	9.16
637.646	9.18
637.837	9.13
638.028	9.13
638.219	9.05
638.41	9.04
638.601	8.96
638.792	9.07
638.983	9.08
639.174	9.07
639.365	9.08
639.556	9.08
639.747	9.15
639.938	9.18
640.129	9.24
640.32	9.26
640.511	9.26
640.701	9.1
640.892	9.06
641.083	9.05
641.274	8.97
641.465	8.98
641.655	9.08
641.846	9.04
642.037	9.01
642.228	9.07
642.418	9.06
642.609	9.04
642.8	8.98
642.99	8.94
643.181	8.86
643.372	8.81
643.562	8.72
643.753	8.65
643.943	8.67
644.134	8.75
644.324	8.82
644.515	8.9
644.705	8.9
644.896	8.9
645.086	8.83
645.277	8.91
645.467	8.9
645.658	9.01
645.848	8.96
646.038	8.96
646.229	8.83
646.419	8.78
646.61	8.78
646.8	8.85
646.99	8.92
647.18	8.97
647.371	8.94
647.561	8.92
647.751	8.86
647.941	8.8
648.132	8.71
648.322	8.76
648.512	8.76
648.702	8.82
648.892	8.8
649.082	8.84
649.272	8.76
649.462	8.8
649.653	8.77
649.843	8.77
650.033	8.78
650.223	8.75
650.413	8.66
650.603	8.7
650.793	8.65
650.983	8.6
651.172	8.66
651.362	8.67
651.552	8.63
651.742	8.66
651.932	8.68
652.122	8.7
652.312	8.63
652.502	8.67
652.691	8.65
652.881	8.68
653.071	8.67
653.261	8.66
653.45	8.52
653.64	8.53
653.83	8.5
654.019	8.47
654.209	8.44
654.399	8.36
654.588	8.32
654.778	8.19
654.968	8.09
655.157	8.13
655.347	8.18
655.536	8.06
655.726	8.03
655.915	8
656.105	7.89
656.294	7.79
656.484	7.79
656.673	7.79
656.863	7.77
657.052	7.74
657.241	7.75
657.431	7.7
657.62	7.58
657.809	7.53
657.999	7.53
658.188	7.41
658.377	7.37
658.567	7.34
658.756	7.28
658.945	7.21
659.134	7.2
659.324	7.2
659.513	7.21
659.702	7.19
659.891	7.18
660.08	7.15
660.269	7.06
660.458	6.99
660.648	7.01
660.837	6.87
661.026	6.79
661.215	6.73
661.404	6.74
661.593	6.62
661.782	6.68
661.971	6.71
662.16	6.66
662.349	6.62
662.538	6.65
662.726	6.49
662.915	6.42
663.104	6.53
663.293	6.53
663.482	6.54
663.671	6.67
663.86	6.76
664.048	6.75
664.237	6.81
664.426	6.83
664.615	6.73
664.803	6.65
664.992	6.57
665.181	6.45
665.369	6.41
665.558	6.47
665.747	6.58
665.935	6.68
666.124	6.78
666.312	6.78
666.501	6.95
666.69	7
666.878	6.87
667.067	6.9
667.255	6.99
667.444	6.92
667.632	6.91
667.82	7.05
668.009	7.08
668.197	7.14
668.386	7.12
668.574	7.11
668.762	7.25
668.951	7.37
669.139	7.38
669.327	7.5
669.516	7.57
669.704	7.44
669.892	7.34
670.08	7.27
670.269	7.23
670.457	7.23
670.645	7.27
670.833	7.36
671.021	7.52
671.21	7.64
671.398	7.81
671.586	7.87
671.774	7.89
671.962	7.95
672.15	8.02
672.338	8.04
672.526	8.06
672.714	8.21
672.902	8.18
673.09	8.06
673.278	8.07
673.466	8.3
673.654	8.4
673.842	8.6
674.03	8.94
674.218	8.97
674.405	8.92
674.593	8.87
674.781	8.83
674.969	8.69
675.157	8.9
675.344	8.97
675.532	9.03
675.72	9.09
675.908	9.18
676.095	9.02
676.283	9.11
676.471	9.1
676.658	9.03
676.846	9.07
677.033	9.11
677.221	9.1
677.409	9.09
677.596	9.25
677.784	9.33
677.971	9.38
678.159	9.52
678.346	9.71
678.534	9.7
678.721	9.77
678.909	9.84
679.096	9.85
679.283	9.9
679.471	9.97
679.658	9.97
679.846	9.96
680.033	10.08
680.22	10.12
680.408	10.2
680.595	10.15
680.782	10.23
680.969	10.15
681.157	10.13
681.344	10.14
681.531	10.31
681.718	10.31
681.905	10.28
682.093	10.26
682.28	10.46
682.467	10.52
682.654	10.64
682.841	10.8
683.028	10.78
683.215	10.62
683.402	10.71
683.589	10.66
683.776	10.6
683.963	10.79
684.15	10.87
684.337	10.88
684.524	11.05
684.711	11.08
684.898	11.09
685.085	11.14
685.271	11.07
685.458	11.17
685.645	11.13
685.832	11.02
686.019	11.15
686.205	11.29
686.392	11.28
686.579	11.67
686.766	11.9
686.952	11.96
687.139	12
687.326	11.95
687.512	11.86
687.699	11.86
687.886	11.92
688.072	12.07
688.259	12.42
688.445	12.55
688.632	12.74
688.818	12.94
689.005	13.05
689.191	13.19
689.378	13.49
689.564	13.79
689.751	13.91
689.937	14.13
690.124	14.09
690.31	14.25
690.496	14.5
690.683	14.75
690.869	14.96
691.055	15.55
691.242	15.88
691.428	16.03
691.614	16.25
691.8	16.62
691.987	16.67
692.173	16.96
692.359	17.4
692.545	17.71
692.731	18.04
692.918	18.31
693.104	18.74
693.29	18.83
693.476	19.2
693.662	19.44
693.848	20.13
694.034	20.41
694.22	20.85
694.406	21.16
694.592	21.43
694.778	21.5
694.964	21.84
695.15	22.21
695.336	22.6
695.522	23.05
695.708	23.75
695.894	23.98
696.08	24.65
696.265	25.29
696.451	25.9
696.637	26.21
696.823	26.93
697.009	27.33
697.194	27.89
697.38	28.39
697.566	28.82
697.751	29.17
697.937	29.48
698.123	29.83
698.308	30.08
698.494	30.56
698.68	30.99
698.865	31.37
699.051	31.78
699.236	32.4
699.422	32.92
699.607	33.57
699.793	34.16
699.978	34.65
700.164	35.01
700.349	35.42
700.535	35.69
700.72	36.13
700.906	36.37
701.091	36.98
701.276	37.23
701.462	37.46
701.647	38.37
701.832	38.87
702.018	39.02
702.203	39.55
702.388	39.82
702.573	39.85
702.759	40.48
702.944	40.9
703.129	41.16
703.314	41.84
703.499	42.06
703.684	42.46
703.87	42.81
704.055	43.23
704.24	43.79
704.425	44.33
704.61	44.55
704.795	44.95
704.98	45.27
705.165	45.38
705.35	45.75
705.535	46.11
705.72	46.64
705.905	47.09
706.09	47.54
706.275	47.66
706.459	47.89
706.644	47.77
706.829	47.92
707.014	48.37
707.199	48.62
707.384	48.45
707.568	48.86
707.753	49.27
707.938	49.19
708.123	49.27
708.307	49.67
708.492	49.99
708.677	50.1
708.861	50.31
709.046	50.29
709.231	50.29
709.415	50.58
709.6	50.69
709.784	51
709.969	51.97
710.153	52.62
710.338	52.73
710.522	53.04
710.707	52.93
710.891	52.61
711.076	52.86
711.26	52.96
711.445	53.29
711.629	53.7
711.813	54.16
711.998	53.96
712.182	54.27
712.366	54.22
712.551	54.05
712.735	53.92
712.919	53.91
713.103	53.71
713.288	53.97
713.472	54.29
713.656	54.68
713.84	55.16
714.024	55.56
714.208	55.41
714.393	55.49
714.577	55.3
714.761	54.69
714.945	54.97
715.129	55.2
715.313	55.53
715.497	55.69
715.681	56.61
715.865	56.69
716.049	57.07
716.233	57.26
716.417	57.41
716.601	57.1
716.785	57.13
716.968	56.83
717.152	56.96
717.336	57.48
717.52	58.03
717.704	57.84
717.888	58.37
718.071	58.82
718.255	58.45
718.439	58.29
718.622	58.58
718.806	58.62
718.99	57.83
719.174	58.06
719.357	58.49
719.541	59.11
719.724	58.93
719.908	59.48
720.092	59.35
720.275	59.29
720.459	59.02
720.642	59.31
720.826	59.46
721.009	59.72
721.193	59.81
721.376	59.94
721.559	60.07
721.743	60.3
721.926	60.65
722.11	60.94
722.293	61.04
722.476	61.18
722.66	61.28
722.843	61.18
723.026	61.11
723.21	61.47
723.393	61.28
723.576	61.06
723.759	61.65
723.942	61.71
724.126	62.22
724.309	62.79
724.492	63.22
724.675	62.87
724.858	63.2
725.041	62.6
725.224	61.91
725.407	62.36
725.59	62.5
725.774	62.92
725.957	63.53
726.14	64.02
726.322	63.46
726.505	63.48
726.688	63.49
726.871	63.31
727.054	63.33
727.237	64.17
727.42	65.07
727.603	65.32
727.786	65.67
727.968	66.53
728.151	66.22
728.334	65.68
728.517	65.69
728.699	65.8
728.882	66.04
729.065	65.87
729.248	66.25
729.43	66.55
729.613	66.07
729.796	66.5
729.978	67.65
730.161	67.67
730.343	67.9
730.526	68.21
730.708	67.69
730.891	66.86
731.073	67.17
731.256	67.09
731.438	67.22
731.621	67.35
731.803	68.29
731.986	68.96
732.168	69.17
732.35	70.31
732.533	71.07
732.715	71.35
732.898	70.22
733.08	70.99
733.262	71.16
733.444	70.18
733.627	69.83
733.809	71
733.991	70.23
734.173	69.95
734.355	70.88
734.538	71
734.72	71.05
734.902	72.09
735.084	72.08
735.266	72.06
735.448	72.76
735.63	72.75
735.812	72.45
735.994	72.33
736.176	72.29
736.358	72.22
736.54	72.47
736.722	72.34
736.904	73.2
737.086	73.19
737.268	73.14
737.45	73.49
737.632	74.18
737.814	74.1
737.995	75.54
738.177	75.56
738.359	75.43
738.541	74.75
738.723	74.94
738.904	73.95
739.086	74.74
739.268	75.02
739.449	76.36
739.631	76.6
739.813	77.51
739.994	77.43
740.176	77.57
740.358	76.8
740.539	76.35
740.721	75.86
740.902	76.52
741.084	76.59
741.265	76.92
741.447	77.47
741.628	77.12
741.81	76.59
741.991	77.46
742.172	77.58
742.354	77.22
742.535	77.6
742.717	78.46
742.898	78.63
743.079	78.91
743.261	79.89
743.442	80.84
743.623	80
743.804	79.23
743.986	78.92
744.167	77.74
744.348	77.5
744.529	77.53
744.71	77.14
744.891	77.24
745.073	77.57
745.254	78.76
745.435	79.52
745.616	80.25
745.797	80.58
745.978	81.14
746.159	80.44
746.34	79.72
746.521	79.74
746.702	79.69
746.883	79.44
747.064	79.27
747.245	78.9
747.426	79.58
747.606	79.8
747.787	79.93
747.968	79.93
748.149	80.14
748.33	79.19
748.51	78.75
748.691	78.17
748.872	77.01
749.053	78.21
749.233	78.61
749.414	79.29
749.595	80.94
749.775	81.31
749.956	80.9
750.137	79.8
750.317	79.02
750.498	78.81
750.678	80.61
750.859	81.82
751.04	82.15
751.22	81.7
751.4	81.26
751.581	80.51
751.761	78.98
751.942	78.19
752.122	78.9
752.303	78.86
752.483	78.77
752.663	79.11
752.844	79.9
753.024	80.25
753.204	80.2
753.385	79.38
753.565	79.4
753.745	78.58
753.925	79.73
754.106	79.61
754.286	80.41
754.466	80.54
754.646	81.72
754.826	80.1
755.006	80.58
755.187	80.8
755.367	81.83
755.547	80.49
755.727	79.54
755.907	78.55
756.087	78.37
756.267	76.89
756.447	78.73
756.627	79.27
756.807	79.82
756.987	79.37
757.167	79.87
757.346	79.89
757.526	80.79
757.706	80.9
757.886	80.8
758.066	80.8
758.246	80.9
758.425	80.58
758.605	80.35
758.785	80.19
758.965	81.27
759.144	81.14
759.324	81.29
759.504	81.28
759.683	81.88
759.863	81.16
760.043	81.63
760.222	81.78
760.402	80.73
760.581	80.85
760.761	81.58
760.94	79.86
761.12	79.16
761.299	79.62
761.479	78.99
761.658	76.47
761.838	77.15
762.017	76.78
762.197	78.4
762.376	78.23
762.555	77.61
762.735	78.56
762.914	77.68
763.093	76.29
763.273	76.93
763.452	79.99
763.631	78.46
763.81	80.12
763.99	81.4
764.169	82.32
764.348	80.07
764.527	80.13
764.706	81.31
764.885	79.94
765.064	78.91
765.243	79.79
765.423	78.61
765.602	76.06
765.781	75.79
765.96	74.94
766.139	74.78
766.318	75.17
766.497	76.31
766.676	75.82
766.854	76.55
767.033	75.37
767.212	76.62
767.391	76.39
767.57	76.76
767.749	77.15
767.928	77.3
768.106	76.11
768.285	77.38
768.464	78.19
768.643	76.07
768.821	76.92
769	77.1
769.179	76.34
769.357	75.24
769.536	77.91
769.715	77.71
769.893	79.33
770.072	80.13
770.25	80.23
770.429	78.72
770.607	76.98
770.786	76.17
770.964	74.29
771.143	74.48
771.321	74.67
771.5	77.49
771.678	77.68
771.857	78.06
772.035	77.64
772.213	76.14
772.392	74.17
772.57	74.53
772.748	74.83
772.927	75.83
773.105	75.46
773.283	75.92
773.461	76.37
773.64	77.48
773.818	76.21
773.996	77.23
774.174	77.96
774.352	74.76
774.531	73.67
774.709	75.72
774.887	76.61
775.065	76.33
775.243	77.35
775.421	75.02
775.599	75.67
775.777	72.72
775.955	69.71
776.133	70
776.311	73.57
776.489	71.91
776.667	74.16
776.844	76.8
777.022	77.77
777.2	77.46
777.378	75.76
777.556	74.51
777.734	74.14
777.911	74.34
778.089	73.58
778.267	72.53
778.445	74.13
778.622	74.42
778.8	73.24
778.978	72.37
779.155	73.37
779.333	71.37
779.511	68.13
779.688	69.35
779.866	68.34
780.043	70.71
780.221	70.6
780.398	73.49
780.576	68.95
780.753	68.42
780.931	68.24
781.108	69.57
781.286	69.91
781.463	73.75
781.64	74.54
781.818	70.78
781.995	70.28
782.172	68.95
782.35	68.19
782.527	67.55
782.704	69.79
782.882	71.93
783.059	73.14
783.236	71.18
783.413	72.9
783.59	73.85
783.768	72.97
783.945	74.25
784.122	77.1
784.299	75.31
784.476	74.64
784.653	73.22
784.83	73.59
785.007	72.13
785.184	70.72
785.361	69.27
785.538	72.77
785.715	69.55
785.892	71.96
786.069	75.26
786.246	77.22
786.423	76.93
786.6	80.45
786.776	77.18
786.953	75.91
787.13	72.72
787.307	70.93
787.484	69.84
787.66	70.05
787.837	71.38
788.014	74.94
788.191	76.53
788.367	72.6
788.544	76.62
788.721	75.86
788.897	75.34
789.074	71.96
789.25	74.37
789.427	71.15
789.603	71.16
789.78	67.49
789.956	69.8
790.133	67.93
790.309	66.56
790.486	64.94
790.662	69.6
790.839	66.67
791.015	67.52
791.192	66.02
791.368	63.24
791.544	61.5
791.721	61.06
791.897	61.39
792.073	63.91
792.249	65.83
792.426	66.44
792.602	67.64
792.778	65.76
792.954	63.53
793.13	66.95
793.307	67.06
793.483	67.2
793.659	68.36
793.835	71.81
794.011	70.87
794.187	66.11
794.363	67.73
794.539	65.89
794.715	61.8
794.891	60.29
795.067	63.86
795.243	62.78
795.419	65.3
795.595	69.27
795.771	65.49
795.947	67.67
796.122	67.23
796.298	66.64
796.474	63.49
796.65	69.58
796.826	65.54
797.001	68.12
797.177	69.32
797.353	65.83
797.529	62.22
797.704	62.87
797.88	58.51
798.056	54.86
798.231	62.21
798.407	62.57
798.582	61.49
798.758	62.37
798.934	63.78
799.109	61.95
799.285	62.08
799.46	65.11
799.636	64.1
799.811	61.6
799.986	63.4
800.162	67.37
800.337	67.48
800.513	66.12
800.688	73.33
800.863	71.01
801.039	68.81
801.214	60.32
801.389	62.77
801.565	60.15
801.74	54.03
801.915	51.85
802.09	54.46
802.265	54.2
802.441	58.31
802.616	60.33
802.791	64.4
802.966	71.24
803.141	65.14
803.316	57.04
803.491	59.2
803.666	55.75
803.841	58.15
804.016	70.49
804.191	70.78
804.366	78.41
804.541	79.52
804.716	72.43
804.891	65.81
805.066	64.22
805.241	59.22
805.416	51.18
805.591	56.58
805.765	59.63
805.94	65.28
806.115	64.86
806.29	67.85
806.464	68.16
806.639	64.23
806.814	61.34
806.989	59.28
807.163	68.22
807.338	62.19
807.512	60.88
807.687	59
807.862	58.78
808.036	52.35
808.211	52.95
808.385	45.24
808.56	41.42
808.734	36.78
808.909	34.35
809.083	31.03
809.258	35.28
809.432	44.6
809.606	48.67
809.781	50.61
809.955	57.33
810.13	61.37
810.304	57.55
810.478	56.06
810.652	58.92
810.827	56.74
811.001	64.05
811.175	66.68
811.349	68.76
811.524	69.09
811.698	74.34
811.872	65.79
812.046	65.78
812.22	62.78
812.394	61.99
812.568	58.35
812.742	57.36
812.916	53.63
813.09	65.41
813.264	64.81
813.438	66.59
813.612	67.44
813.786	64.93
813.96	51.71
814.134	58.53
814.308	60.03
814.482	59.85
814.656	63.4
814.83	67.24
815.003	64.77
815.177	65.94
815.351	67.32
815.525	61.8
815.698	51.19
815.872	45.28
816.046	39.12
816.219	39.09
816.393	53.2
816.567	62.03
816.74	62.63
816.914	77.3
817.088	70.73
817.261	46.58
817.435	37.25
817.608	49.23
817.782	26.93
817.955	57.45
818.129	74.63
818.302	72.42
818.475	77.42
818.649	79.5
818.822	67.78
818.996	51.58
819.169	54.55
819.342	49.74
819.516	63.23
819.689	67.74
819.862	71.47
820.035	78.4
820.209	62.23
820.382	51.95
820.555	42.19
820.728	49.76
820.901	28.13
821.075	39.35
821.248	59.99
821.421	59.2
821.594	53.97
821.767	78.94
821.94	67.89
822.113	53
822.286	52.62
822.459	37.62
822.632	25.4
822.805	46.1
822.978	48.71
823.151	58.74
823.324	77.22
823.496	46.04
823.669	48.19
823.842	55.46
824.015	39.97
824.188	30.35
824.361	52.03
824.533	42.21
824.706	22.3
824.879	44.2
825.051	52.2
825.224	64.86
825.397	62.45
825.569	78.4
825.742	72.4
825.915	54.55
826.087	48.28
826.26	50.85
826.432	45.72
826.605	34.72
826.777	39.87
826.95	38.98
827.122	34.28
827.295	34.62
827.467	46.02
827.64	31.17
827.812	24.04
827.984	23.5
828.157	25.32
828.329	38.02
828.501	65.48
828.674	77.56
828.846	77.19
829.018	70.01
829.19	52.96
829.363	44.26
829.535	36.29
829.707	38.98
829.879	47.27
830.051	43.8
830.223	55.9
830.395	47.07
830.568	39.71
830.74	61.24
830.912	69.72
831.084	65.6
831.256	63.73
831.428	61.04
831.6	29.56
831.772	27.84
831.943	-0.81
832.115	6.31
832.287	27.32
832.459	51.4
832.631	49.5
832.803	74.81
832.975	69.15
833.146	69.04
833.318	44.34
833.49	58.28
833.662	58.19
833.833	71.7
834.005	55.13
834.177	68.46
834.348	67.28
834.52	68.04
834.692	78.5
834.863	79.17
835.035	85.82
835.206	79.15
835.378	69.04
835.549	56.63
835.721	77.61
835.892	57.92
836.064	68.97
836.235	89.92
836.407	97.39
836.578	65.67
836.749	50.59
836.921	54.38
837.092	21.42
837.264	37.69
837.435	32.88
837.606	47.62
837.777	17.35
837.949	34.2
838.12	-1.16
838.291	20.37
838.462	31.19
838.633	-0.19
838.805	-9.21
838.976	27.72
839.147	48.62
839.318	57.76
839.489	100.21
839.66	104.82
839.831	85.01
840.002	53.49
840.173	35.38
840.344	36.4
840.515	29.86
840.686	0.11
840.857	10.51
841.028	21.01
841.199	26.71
841.369	26.25
841.54	45.25
841.711	70.28
841.882	51.86
842.053	47.2
842.223	64.16
842.394	39.33
842.565	53.15
842.736	61.22
842.906	57.1
843.077	52.56
843.248	46.51
843.418	38.83
843.589	39.65
843.759	5.6
843.93	-507.96
844.101	-316.86
844.271	0.18
844.442	16.39
844.612	58.07
844.783	79.17
844.953	60.76
845.123	37.74
845.294	32.03
845.464	36.49
845.635	44.56
845.805	50.99
845.975	52.63
846.146	44.49
846.316	-184.59
846.486	-69.3
846.656	-24.3
846.827	-9.03
846.997	-22.91
847.167	34.29
847.337	38.05
847.507	43.01
847.677	23.35
847.848	70.61
848.018	65.73
848.188	82.55
848.358	72.7
848.528	123.51
848.698	103.32
848.868	109.49
849.038	109.51
849.208	119.98
849.378	98.83
849.548	58.68
849.718	-148.02
849.887	331.09
850.057	-5912.9
850.227	1291.42
850.397	2075.84
850.567	-114.87
850.737	-42.59
850.906	-27.73
851.076	-40.68
851.246	-11.48
851.415	-17.91
851.585	14.07
851.755	20.03
851.924	40.2
852.094	45.45
852.264	43.52
852.433	32.33
852.603	40.88
852.772	29.55
852.942	17.82
853.111	23.63
853.281	46.51
853.45	33.57
853.62	40.54
853.789	31.4
853.959	-94.71
854.128	196.86
854.297	233.47
854.467	378.88
854.636	-308.53
854.805	12.37
854.975	9.23
855.144	15.21
855.313	52.47
855.482	106.97
855.652	58.58
855.821	82.4
855.99	105.34
856.159	124.59
856.328	35.77
856.497	-0.58
856.667	40.63
856.836	70.4
857.005	40.66
857.174	47.59
857.343	66.62
857.512	51.32
857.681	-1.44
857.85	11.82
858.019	-4.34
858.188	8.79
858.356	8.77
858.525	43.02
858.694	26.36
858.863	48.18
859.032	72.29
859.201	62.21
859.369	51.97
859.538	34.26
859.707	30.17
859.876	0.71
860.044	-27.06
860.213	-4.19
860.382	38.96
860.55	20.46
860.719	66.34
860.888	66.33
861.056	71.82
861.225	78.95
861.393	130.15
861.562	125.55
861.73	153.42
861.899	111.92
862.067	192.28
862.236	115.42
862.404	66.28
862.572	53.43
862.741	-75.13
862.909	8.49
863.078	34.6
863.246	40.22
863.414	81.44
863.582	65.87
863.751	82.57
863.919	79.99
864.087	68.03
864.255	-8.94
864.424	-40.73
864.592	-31.38
864.76	7.91
864.928	22.18
865.096	67.33
865.264	85.07
865.432	76.07
865.6	70.03
865.768	2.25
865.936	-192.07
866.104	-476.67
866.272	-23.43
866.44	-124.81
866.608	-38.42
866.776	19.55
866.944	28.13
867.112	15.01
867.28	34.75
867.448	43.22
867.615	12.91
867.783	49.82
867.951	26.86
868.119	76.26
868.286	136.58
868.454	141.95
868.622	154.18
868.789	502.74
868.957	-490.05
869.125	-48.04
869.292	-83.89
869.46	77.72
869.627	-1006.29
869.795	-117.82
869.963	-36.98
870.13	-13.13
870.298	20.71
870.465	51.33
870.632	47.47
870.8	60.82
870.967	81.96
871.135	-55.27
871.302	604.73
871.469	-170.73
871.637	-44.93
871.804	-73.75
871.971	-54.89
872.139	-21.28
872.306	-47.82
872.473	-306.03
872.64	-74.49
872.807	2.05
872.975	-32.09
873.142	-6.46
873.309	3.98
873.476	29.96
873.643	58.53
873.81	56.6
873.977	83.7
874.144	105.36
874.311	134.37
874.478	-13.02
874.645	-11.14
874.812	-169.19
874.979	-16.33
875.146	-32.85
875.313	-274.74
875.48	216.35
875.647	-368.88
875.813	-1758.23
875.98	786.7
876.147	-74.33
876.314	-27.88
876.481	-36.32
876.647	-19.93
876.814	-14.26
876.981	62.62
877.147	18.7
877.314	-26.55
877.481	7.33
877.647	-20.05
877.814	-83.73
877.98	-30.81
878.147	-57.17
878.314	39.54
878.48	360.73
878.647	165.71
878.813	209.35
878.979	-18.02
879.146	-27.99
879.312	-33.02
879.479	-2.59
879.645	18.3
879.811	45.41
879.978	18.16
880.144	-12.69
880.31	-95.48
880.477	279.87
880.643	582.16
880.809	1543.9
880.975	-661.81
881.142	-327.55
881.308	-535.67
881.474	-81.82
881.64	16.66
881.806	57.07
881.972	98.76
882.138	69.31
882.304	63.95
882.47	43.65
882.636	36.78
882.802	12.58
882.968	11.77
883.134	-12.22
883.3	1.3
883.466	10.76
883.632	-17.65
883.798	16
883.964	25.88
884.129	44.79
884.295	-16.65
884.461	-51.6
884.627	355.76
884.793	165.19
884.958	350.47
885.124	3062.38
885.29	-396.29
885.455	-343.39
885.621	-39.25
885.787	-65.27
885.952	-86.46
886.118	-71.59
886.283	22.88
886.449	-172.61
886.614	-11.79
886.78	24.07
886.945	11.52
887.111	-10.65
887.276	27.27
887.442	36.53
887.607	5.58
887.773	-9.62
887.938	13.67
888.103	-54.4
888.269	-342.51
888.434	6264.71
888.599	65.03
888.764	760.19
888.93	15.08
889.095	31.08
889.26	71
889.425	31.56
889.59	18.17
889.756	66.6
889.921	50.28
890.086	4.66
890.251	10.51
890.416	17.63
890.581	-23.86
890.746	11.86
890.911	82.32
891.076	132.46
891.241	32.97
891.406	-2357.14
891.571	29.16
891.736	222.41
891.901	245.1
892.065	75.59
892.23	162.26
892.395	134.61
892.56	755.03
892.725	-267.62
892.889	-679.95
893.054	-1865.56
893.219	-3312.95
893.384	-638.64
893.548	-630.9
893.713	-349.59
893.878	-538.74
