Data from Ofav_SP_Phys_2JQ31_Reflection_3.txt Node
Date: Thu Aug 05 17:46:24 EDT 2021
User: Adam
Spectrometer: FLMT01687
Trigger mode: 0
Integration Time (sec): 8.000000E-1
Scans to average: 2
Electric dark correction enabled: true
Nonlinearity correction enabled: false
Boxcar width: 2
XAxis mode: Wavelengths
Number of Pixels in Spectrum: 3648
>>>>>Begin Spectral Data<<<<<
179.494	428.62
179.716	490.14
179.937	365.62
180.158	419.68
180.38	1156.98
180.601	-616.05
180.823	-123.7
181.044	-146.59
181.265	-57.83
181.486	73.49
181.708	-673.83
181.929	-171.98
182.15	-542.04
182.372	-5.68
182.593	-22.39
182.814	-383.88
183.035	-194.35
183.257	-229.18
183.478	405.42
183.699	-286.93
183.92	25.77
184.141	165.02
184.363	-451.89
184.584	192.13
184.805	114.45
185.026	127.97
185.247	97.33
185.468	101.61
185.689	85.95
185.91	57.21
186.132	-4.26
186.353	14.94
186.574	19.96
186.795	58.28
187.016	91.54
187.237	92.53
187.458	59.87
187.679	36.64
187.9	69.29
188.121	89.2
188.342	108.77
188.563	98.07
188.784	104.32
189.005	60.21
189.226	76.88
189.447	65.92
189.667	86.91
189.888	304.38
190.109	237.16
190.33	170.96
190.551	176.21
190.772	192.71
190.993	144.2
191.214	108.69
191.434	92.07
191.655	76.27
191.876	81.93
192.097	58.47
192.318	68.03
192.538	93.24
192.759	114.52
192.98	78.44
193.201	74.1
193.421	61.78
193.642	85.01
193.863	50.17
194.083	50.74
194.304	71.89
194.525	67.88
194.745	74.67
194.966	83.34
195.187	94.6
195.407	108.23
195.628	91.21
195.848	68.12
196.069	42.48
196.29	35.61
196.51	47.56
196.731	43.23
196.951	60.88
197.172	92.41
197.392	103.97
197.613	110.56
197.833	141.75
198.054	123.99
198.274	84.36
198.495	80.09
198.715	76.78
198.936	120.86
199.156	109.35
199.377	88.51
199.597	73.8
199.817	41.08
200.038	20.32
200.258	28.08
200.479	28.5
200.699	23.03
200.919	32.65
201.14	9.62
201.36	-6.38
201.58	37.19
201.801	8.68
202.021	22.36
202.241	91.41
202.461	72.31
202.682	3.24
202.902	0.53
203.122	32.54
203.342	163.62
203.563	62
203.783	128.69
204.003	82.82
204.223	60.96
204.443	25.58
204.663	47.53
204.884	35.46
205.104	44.27
205.324	54.03
205.544	51.32
205.764	43.54
205.984	40.51
206.204	13.33
206.424	18.25
206.644	11.37
206.864	-3.34
207.084	-7.58
207.304	43.47
207.525	43.64
207.745	62.73
207.964	69.69
208.184	58.26
208.404	-8.98
208.624	-25.35
208.844	-86.78
209.064	-31.9
209.284	-0.84
209.504	15.83
209.724	32.96
209.944	53.57
210.164	40.22
210.384	52.54
210.604	58.76
210.823	58.05
211.043	67.87
211.263	76.38
211.483	75.28
211.703	81.54
211.922	136.53
212.142	116.49
212.362	86.51
212.582	138.79
212.801	144.47
213.021	112.5
213.241	80.13
213.461	59.72
213.68	34.8
213.9	26.04
214.12	2.92
214.339	35.62
214.559	72.28
214.779	45.37
214.998	70.78
215.218	70.72
215.438	111.28
215.657	157.33
215.877	251.74
216.096	224.64
216.316	289.98
216.535	235.54
216.755	203.78
216.974	459.59
217.194	177.05
217.413	79.2
217.633	73.82
217.852	71.98
218.072	52.19
218.291	35.51
218.511	33.12
218.73	23.87
218.95	2.7
219.169	-21.46
219.389	39.02
219.608	15.18
219.827	33.73
220.047	29.31
220.266	49.97
220.485	30.58
220.705	51.22
220.924	58.44
221.143	48.49
221.363	26.04
221.582	21.24
221.801	20.49
222.021	21.32
222.24	54
222.459	124.67
222.678	119.14
222.897	105.88
223.117	116.3
223.336	109.44
223.555	102.7
223.774	45.4
223.993	45.54
224.213	57.16
224.432	16.81
224.651	4.38
224.87	40.76
225.089	37.29
225.308	-13.74
225.527	22.86
225.746	19.34
225.965	0.69
226.184	22.95
226.404	81.15
226.623	67.62
226.842	40.74
227.061	56.22
227.28	43.2
227.499	12.09
227.718	22.27
227.936	36.51
228.155	28.75
228.374	35.09
228.593	41.35
228.812	52.85
229.031	49.43
229.25	38.6
229.469	41.51
229.688	26.37
229.907	19.21
230.125	9.25
230.344	16.15
230.563	15.59
230.782	9.17
231.001	22.28
231.22	79.85
231.438	83.56
231.657	75.13
231.876	79.14
232.095	63.64
232.313	24.93
232.532	7.77
232.751	13.08
232.969	30.02
233.188	27
233.407	31.57
233.625	70.47
233.844	25.17
234.063	22.22
234.281	31.21
234.5	43.53
234.719	-0.13
234.937	18.63
235.156	-5.14
235.374	8.23
235.593	5.19
235.811	-4.81
236.03	15.52
236.249	37.54
236.467	11.46
236.686	0.55
236.904	33.59
237.123	43.49
237.341	65.9
237.559	64.06
237.778	64.77
237.996	54.7
238.215	59.54
238.433	33.98
238.652	41.99
238.87	23.96
239.088	26.77
239.307	31.99
239.525	24.95
239.743	24.09
239.962	46.37
240.18	58.68
240.398	48.98
240.617	44.34
240.835	70.06
241.053	47.16
241.271	33.37
241.49	18.24
241.708	3.61
241.926	-1.88
242.144	-7.94
242.363	25.61
242.581	77.95
242.799	87.17
243.017	71.63
243.235	57.01
243.453	17.77
243.672	0.63
243.89	3.83
244.108	59.05
244.326	57.06
244.544	79.83
244.762	92.3
244.98	123.27
245.198	96.42
245.416	109.46
245.634	103.51
245.852	104.63
246.07	64.93
246.288	47.78
246.506	16.97
246.724	17.05
246.942	0.47
247.16	-12.45
247.378	-120.67
247.596	-20.42
247.814	-7.07
248.032	14.11
248.25	-4.46
248.468	40.42
248.685	31.94
248.903	29.58
249.121	21.88
249.339	40.2
249.557	24.21
249.775	38.23
249.992	48.7
250.21	58.99
250.428	39.73
250.646	42.76
250.863	38.52
251.081	25.21
251.299	-6.64
251.517	17.35
251.734	9.98
251.952	-20.48
252.17	1.56
252.387	11.51
252.605	19.99
252.823	35.64
253.04	37.25
253.258	32.97
253.475	46.27
253.693	34.2
253.911	54.23
254.128	69.37
254.346	74.92
254.563	73.56
254.781	68.98
254.998	63.35
255.216	65.21
255.433	27.01
255.651	7.51
255.868	-7.87
256.086	8.41
256.303	-22.76
256.521	-56.86
256.738	-82.19
256.956	-158.39
257.173	-48.92
257.39	27.73
257.608	59.66
257.825	52.46
258.043	56.97
258.26	48.87
258.477	32.55
258.695	25.63
258.912	35.06
259.129	27.01
259.346	27.59
259.564	32.45
259.781	44.31
259.998	43.52
260.216	57.79
260.433	68.27
260.65	55.12
260.867	65.6
261.084	78.64
261.302	74.99
261.519	70.12
261.736	89.49
261.953	75.57
262.17	70.4
262.387	111.42
262.604	102.59
262.822	119.1
263.039	137.5
263.256	126.56
263.473	68.91
263.69	109.74
263.907	83.55
264.124	67.36
264.341	45.3
264.558	47.78
264.775	30.98
264.992	36.55
265.209	47.4
265.426	43.02
265.643	40.84
265.86	41.13
266.077	35.88
266.294	37.52
266.51	55.24
266.727	64.16
266.944	73.01
267.161	61.95
267.378	46.58
267.595	35.01
267.812	24.17
268.028	12.77
268.245	27.71
268.462	33.29
268.679	37.79
268.896	40.12
269.112	29.8
269.329	61.85
269.546	51.17
269.763	52.13
269.979	74.77
270.196	97.69
270.413	72.65
270.629	93.12
270.846	89.29
271.063	66.14
271.279	59.76
271.496	61.22
271.712	64.43
271.929	79.61
272.146	117.73
272.362	106.59
272.579	51.53
272.795	26.7
273.012	24.39
273.228	-1.21
273.445	31.14
273.661	51.36
273.878	61.22
274.094	66
274.311	54.69
274.527	37.13
274.744	6.41
274.96	24.87
275.177	17.57
275.393	27.75
275.609	20.17
275.826	45.35
276.042	34.47
276.259	44.33
276.475	30.8
276.691	25.37
276.908	33.14
277.124	42.26
277.34	44.62
277.557	38.5
277.773	44.66
277.989	36.58
278.205	30.03
278.422	15.68
278.638	44.15
278.854	67.26
279.07	51.13
279.286	55.43
279.503	55.73
279.719	44.43
279.935	55.93
280.151	80.72
280.367	60.6
280.583	71.25
280.799	85.5
281.016	68.38
281.232	70.39
281.448	67.51
281.664	55.95
281.88	79.24
282.096	72.43
282.312	58.02
282.528	56.75
282.744	41.21
282.96	35.51
283.176	39.51
283.392	40.04
283.608	51.31
283.824	62.51
284.04	70.15
284.256	60.53
284.471	62.11
284.687	65.82
284.903	62.15
285.119	53.62
285.335	51.08
285.551	66.09
285.767	39.71
285.982	45.66
286.198	72.3
286.414	63.93
286.63	48.69
286.846	77.71
287.061	53.65
287.277	36
287.493	37.96
287.709	21.95
287.924	26.94
288.14	31.28
288.356	52.5
288.571	55.57
288.787	62.13
289.003	63.57
289.218	84.49
289.434	59.41
289.65	34.63
289.865	20.8
290.081	19.54
290.296	22.33
290.512	22.2
290.727	27.9
290.943	41.17
291.159	50.71
291.374	52.04
291.59	33.1
291.805	47.89
292.021	55.23
292.236	46.35
292.451	48.93
292.667	116.08
292.882	60.19
293.098	22.8
293.313	37.16
293.529	39.73
293.744	25.27
293.959	23.9
294.175	43.19
294.39	26.34
294.605	30.29
294.821	35.76
295.036	32.47
295.251	32.26
295.467	46.82
295.682	29.86
295.897	33.76
296.112	41.71
296.328	40.5
296.543	66.15
296.758	77.99
296.973	54.6
297.188	53.56
297.404	47.69
297.619	21.45
297.834	16.49
298.049	12.55
298.264	8.77
298.479	7.26
298.694	30.75
298.909	52.23
299.125	58.16
299.34	50.72
299.555	58.65
299.77	61.78
299.985	71.62
300.2	75.31
300.415	75.46
300.63	44.03
300.845	40.53
301.06	45.34
301.275	22.5
301.49	28.2
301.704	72.06
301.919	55.56
302.134	40.83
302.349	55.76
302.564	31.65
302.779	46.49
302.994	43.05
303.209	64.78
303.423	42.17
303.638	54.18
303.853	29.74
304.068	35.55
304.283	32.07
304.497	38.33
304.712	20.82
304.927	24.94
305.142	21.03
305.356	-17.76
305.571	10.38
305.786	39.68
306	42.67
306.215	53.81
306.43	69.73
306.644	58.91
306.859	43.08
307.074	42.62
307.288	28.84
307.503	43.9
307.717	47
307.932	48.77
308.147	55.83
308.361	62.49
308.576	60.24
308.79	59.53
309.005	55.84
309.219	26.98
309.434	-22.12
309.648	-79.08
309.863	-60.64
310.077	-73.73
310.292	-30.77
310.506	9.85
310.72	34.72
310.935	38.92
311.149	56.92
311.364	68.69
311.578	72.49
311.792	86.38
312.007	81.7
312.221	64.27
312.435	66.58
312.649	73.6
312.864	-1.01
313.078	-2.03
313.292	31.11
313.507	14.34
313.721	0.49
313.935	35.02
314.149	27.04
314.363	2.75
314.578	13.97
314.792	12.15
315.006	34.77
315.22	57.57
315.434	60.41
315.648	98.19
315.862	153.44
316.077	82.26
316.291	93.39
316.505	75.48
316.719	45.86
316.933	44.04
317.147	53.4
317.361	50.92
317.575	59.07
317.789	74.11
318.003	64.67
318.217	50.86
318.431	70.89
318.645	65.53
318.859	64.05
319.073	44.46
319.287	26.74
319.5	20.84
319.714	-3.85
319.928	21.35
320.142	28.27
320.356	49.89
320.57	38.24
320.784	54.51
320.997	41.75
321.211	55.61
321.425	28.06
321.639	15.41
321.853	25.47
322.066	32.92
322.28	23.05
322.494	33.99
322.707	36.13
322.921	30.14
323.135	20.6
323.349	35.21
323.562	31.87
323.776	41.08
323.989	24.65
324.203	35.82
324.417	34.81
324.63	22.97
324.844	9.98
325.057	27.21
325.271	-9.62
325.485	0.86
325.698	15.36
325.912	27.21
326.125	36.18
326.339	63.67
326.552	48.88
326.766	44.94
326.979	61.37
327.193	52.29
327.406	50.81
327.619	72.56
327.833	68.83
328.046	69.69
328.26	93.86
328.473	96.06
328.686	80.63
328.9	64.78
329.113	54.07
329.326	47.64
329.54	59.47
329.753	48.29
329.966	56.52
330.179	65.64
330.393	58.14
330.606	43.22
330.819	46.74
331.032	50.77
331.246	63.99
331.459	66.81
331.672	73.31
331.885	75.28
332.098	75.04
332.311	49.62
332.525	36.04
332.738	34.69
332.951	19.03
333.164	26.13
333.377	31.89
333.59	35.91
333.803	18.92
334.016	11.88
334.229	-3.18
334.442	10.74
334.655	17.56
334.868	32.89
335.081	24.42
335.294	38.39
335.507	37.64
335.72	57.35
335.933	54.8
336.146	66.38
336.359	48.3
336.572	38.41
336.785	13.54
336.997	42.48
337.21	63.62
337.423	95.83
337.636	104.17
337.849	109.56
338.062	67.42
338.274	49.96
338.487	47.91
338.7	30.31
338.913	38.07
339.125	62.28
339.338	52.3
339.551	23.93
339.763	47
339.976	50.62
340.189	44.51
340.402	43.03
340.614	55.01
340.827	76.08
341.039	62.54
341.252	55.51
341.465	51.48
341.677	41.24
341.89	5.92
342.102	17.01
342.315	5.15
342.527	37.83
342.74	44.61
342.952	51.91
343.165	69.1
343.377	82.74
343.59	31
343.802	32.74
344.015	34.79
344.227	23.58
344.44	30.46
344.652	49.41
344.864	55.06
345.077	61.67
345.289	50.06
345.502	34.55
345.714	21.84
345.926	12.05
346.139	14.4
346.351	24.5
346.563	13.27
346.775	21.41
346.988	18.48
347.2	5.26
347.412	2.63
347.624	49.51
347.837	46.38
348.049	45.35
348.261	50.99
348.473	57.78
348.685	62.11
348.897	86.28
349.11	89.38
349.322	77.27
349.534	33.55
349.746	16.5
349.958	0.59
350.17	17.77
350.382	10.56
350.594	21.13
350.806	12.66
351.018	21.79
351.23	21.81
351.442	26.76
351.654	32.35
351.866	25.75
352.078	16.24
352.29	6.14
352.502	25.62
352.714	8.79
352.926	35.1
353.138	35.93
353.35	50.68
353.561	40
353.773	43.34
353.985	35.86
354.197	32.81
354.409	17.11
354.621	22.9
354.832	34.86
355.044	42.83
355.256	49.44
355.468	55.06
355.679	52.18
355.891	57.25
356.103	53.59
356.314	61.89
356.526	45.54
356.738	47.01
356.949	21.88
357.161	26.09
357.373	7.22
357.584	44.75
357.796	46.67
358.008	43.4
358.219	46.13
358.431	58.71
358.642	31.7
358.854	36.62
359.065	48.45
359.277	49.55
359.488	59.14
359.7	64.72
359.911	66.46
360.123	61.02
360.334	60.97
360.546	44.68
360.757	33.02
360.969	38.41
361.18	37.66
361.391	26.4
361.603	49.22
361.814	49.76
362.025	54.3
362.237	57.73
362.448	48.02
362.659	36.62
362.871	28.52
363.082	11.97
363.293	0.89
363.504	7.25
363.716	25.77
363.927	45.27
364.138	52.81
364.349	46.46
364.56	54.51
364.772	46.57
364.983	38.56
365.194	49.23
365.405	46.74
365.616	45.62
365.827	52.51
366.038	60.6
366.25	57.3
366.461	55.46
366.672	52.43
366.883	56.58
367.094	56.43
367.305	51.22
367.516	57.09
367.727	72.94
367.938	63.15
368.149	52.06
368.36	58.72
368.571	46
368.781	8.76
368.992	28.69
369.203	31.32
369.414	3.34
369.625	28.99
369.836	23.13
370.047	17.73
370.258	24.23
370.468	41.5
370.679	48.54
370.89	53.35
371.101	52.36
371.312	63.76
371.522	55.87
371.733	39.85
371.944	36.79
372.155	49.61
372.365	26.05
372.576	40.24
372.787	40.81
372.997	55.14
373.208	42.95
373.419	70.88
373.629	59.8
373.84	56.18
374.05	37.16
374.261	47.12
374.472	26.82
374.682	11.02
374.893	19.27
375.103	35.43
375.314	23.22
375.524	40.96
375.735	43.84
375.945	54.36
376.156	44.84
376.366	55.25
376.577	54.84
376.787	56.09
376.997	43.68
377.208	46.78
377.418	49.87
377.629	45.82
377.839	55.98
378.049	59.33
378.26	43.34
378.47	32.41
378.68	31.91
378.89	12.43
379.101	19.01
379.311	33.13
379.521	34.16
379.732	37
379.942	47.49
380.152	49.8
380.362	51.07
380.572	57.84
380.783	44.95
380.993	45.11
381.203	39.26
381.413	39.33
381.623	37.06
381.833	50.45
382.043	48.71
382.253	37.28
382.463	34.42
382.674	36.57
382.884	32.68
383.094	25.86
383.304	28.82
383.514	29.8
383.724	20.54
383.934	17
384.144	24.09
384.353	26.05
384.563	29.63
384.773	32.78
384.983	28.75
385.193	24.58
385.403	25.63
385.613	21.98
385.823	17.38
386.033	20.69
386.242	22.7
386.452	20.92
386.662	21.94
386.872	21.96
387.082	23.4
387.291	14.4
387.501	16.38
387.711	14.69
387.921	14.2
388.13	10.76
388.34	19.38
388.55	17.73
388.759	13.2
388.969	12.43
389.179	13.61
389.388	13.36
389.598	17.57
389.807	22.43
390.017	24.92
390.227	24.11
390.436	21.1
390.646	15.07
390.855	13.19
391.065	10.63
391.274	11.38
391.484	13.57
391.693	15.58
391.903	14.81
392.112	17.38
392.322	16.5
392.531	15.63
392.74	14.18
392.95	13.1
393.159	10.91
393.369	11.86
393.578	12.55
393.787	13.41
393.997	14.03
394.206	14.1
394.415	13.63
394.625	13.7
394.834	13.47
395.043	12.44
395.252	12.9
395.462	13.18
395.671	12.32
395.88	12.71
396.089	13.61
396.298	14.05
396.508	14.05
396.717	13.46
396.926	13.03
397.135	12.82
397.344	12.4
397.553	12.04
397.762	12.13
397.971	11.43
398.181	11.05
398.39	10.74
398.599	10.71
398.808	10.82
399.017	10.94
399.226	11.48
399.435	11.31
399.644	11.27
399.853	11.23
400.062	11.27
400.27	10.89
400.479	10.84
400.688	10.77
400.897	11.07
401.106	11
401.315	10.98
401.524	10.99
401.733	10.78
401.941	10.58
402.15	10.7
402.359	10.7
402.568	10.66
402.777	10.9
402.985	10.64
403.194	10.46
403.403	10.56
403.612	10.38
403.82	10.19
404.029	10.34
404.238	10.47
404.446	10.22
404.655	10.35
404.864	10.4
405.072	10.3
405.281	10.18
405.489	10.21
405.698	10.25
405.906	10.2
406.115	10.08
406.324	10.16
406.532	10.05
406.741	9.93
406.949	9.8
407.158	9.92
407.366	9.87
407.574	10.13
407.783	10.11
407.991	10.15
408.2	9.93
408.408	9.81
408.617	9.71
408.825	9.85
409.033	9.84
409.242	9.94
409.45	9.78
409.658	9.72
409.867	9.57
410.075	9.61
410.283	9.68
410.491	9.88
410.7	9.84
410.908	9.74
411.116	9.64
411.324	9.56
411.533	9.46
411.741	9.46
411.949	9.52
412.157	9.58
412.365	9.78
412.573	9.67
412.781	9.58
412.99	9.64
413.198	9.65
413.406	9.54
413.614	9.64
413.822	9.67
414.03	9.7
414.238	9.68
414.446	9.56
414.654	9.51
414.862	9.51
415.07	9.36
415.278	9.26
415.486	9.27
415.694	9.29
415.902	9.27
416.109	9.09
416.317	9.21
416.525	9.13
416.733	9.07
416.941	9.22
417.149	9.52
417.357	9.38
417.564	9.38
417.772	9.46
417.98	9.32
418.188	9.18
418.395	9.11
418.603	9.23
418.811	9.02
419.019	9.05
419.226	9.13
419.434	9.29
419.642	9.21
419.849	9.4
420.057	9.28
420.265	9.18
420.472	8.88
420.68	8.73
420.887	8.78
421.095	8.73
421.302	8.59
421.51	8.9
421.717	8.97
421.925	8.82
422.132	8.75
422.34	8.89
422.547	8.81
422.755	8.83
422.962	9.04
423.17	9.21
423.377	9.13
423.585	9.13
423.792	9.01
423.999	8.89
424.207	8.86
424.414	8.74
424.621	8.6
424.829	8.69
425.036	8.72
425.243	8.79
425.451	9.12
425.658	9.17
425.865	9.17
426.072	8.99
426.28	8.71
426.487	8.57
426.694	8.51
426.901	8.66
427.108	8.71
427.315	8.77
427.523	8.87
427.73	9.01
427.937	8.84
428.144	8.8
428.351	9.04
428.558	8.91
428.765	8.65
428.972	8.62
429.179	8.82
429.386	8.59
429.593	8.7
429.8	8.93
430.007	8.85
430.214	8.89
430.421	9.18
430.628	9.11
430.835	9.15
431.042	9.32
431.249	9.26
431.456	9.01
431.662	9.1
431.869	9.09
432.076	9.02
432.283	9.15
432.49	9.1
432.697	9.01
432.903	8.85
433.11	8.76
433.317	8.52
433.524	8.6
433.73	8.63
433.937	8.75
434.144	9.01
434.35	9.04
434.557	9.07
434.764	9.02
434.97	8.99
435.177	9
435.384	9.01
435.59	9.01
435.797	9.18
436.003	9.21
436.21	8.93
436.416	8.75
436.623	8.61
436.829	8.39
437.036	8.27
437.242	8.37
437.449	8.59
437.655	8.76
437.862	9.09
438.068	9.3
438.275	9.37
438.481	9.41
438.687	9.33
438.894	9.32
439.1	9.03
439.307	8.95
439.513	8.83
439.719	8.94
439.926	8.85
440.132	9.16
440.338	9.34
440.544	9.38
440.751	9.36
440.957	9.29
441.163	9.18
441.369	9.05
441.575	9.07
441.782	9.13
441.988	9.12
442.194	9.03
442.4	9.05
442.606	9.18
442.812	9.04
443.018	8.97
443.224	9.03
443.431	9.07
443.637	8.91
443.843	8.92
444.049	8.89
444.255	8.96
444.461	8.91
444.667	8.95
444.873	8.93
445.079	9.07
445.284	9.08
445.49	9.15
445.696	9.29
445.902	9.4
446.108	9.3
446.314	9.24
446.52	9.27
446.726	9.24
446.931	9.25
447.137	9.25
447.343	9.38
447.549	9.38
447.755	9.32
447.96	9.25
448.166	9.36
448.372	9.2
448.578	9.17
448.783	9.3
448.989	9.26
449.195	9.28
449.4	9.39
449.606	9.48
449.812	9.34
450.017	9.42
450.223	9.4
450.428	9.47
450.634	9.5
450.84	9.6
451.045	9.56
451.251	9.55
451.456	9.55
451.662	9.53
451.867	9.55
452.073	9.74
452.278	9.7
452.483	9.67
452.689	9.6
452.894	9.58
453.1	9.52
453.305	9.62
453.51	9.71
453.716	9.77
453.921	9.78
454.127	9.86
454.332	9.78
454.537	9.74
454.742	9.67
454.948	9.65
455.153	9.64
455.358	9.79
455.563	9.85
455.769	9.87
455.974	9.83
456.179	9.83
456.384	9.73
456.589	9.67
456.795	9.74
457	9.84
457.205	9.83
457.41	9.87
457.615	10.02
457.82	10.07
458.025	10.06
458.23	10.11
458.435	10.14
458.64	9.95
458.845	10.01
459.05	10.05
459.255	10.06
459.46	10.03
459.665	10.14
459.87	10.03
460.075	9.99
460.28	9.98
460.485	10.01
460.69	9.92
460.895	9.89
461.099	9.97
461.304	10.06
461.509	10.09
461.714	10.2
461.919	10.35
462.123	10.31
462.328	10.2
462.533	10.28
462.738	10.3
462.942	10.25
463.147	10.35
463.352	10.51
463.556	10.55
463.761	10.43
463.966	10.49
464.17	10.49
464.375	10.46
464.58	10.32
464.784	10.45
464.989	10.51
465.193	10.37
465.398	10.54
465.602	10.79
465.807	10.92
466.011	10.9
466.216	11.04
466.42	11
466.625	10.98
466.829	10.93
467.034	10.91
467.238	10.88
467.443	10.76
467.647	10.54
467.851	10.51
468.056	10.58
468.26	10.65
468.464	10.71
468.669	10.96
468.873	10.88
469.077	10.74
469.282	10.79
469.486	10.78
469.69	10.66
469.894	10.71
470.099	10.82
470.303	10.77
470.507	10.76
470.711	10.86
470.915	10.84
471.119	10.85
471.324	10.95
471.528	10.92
471.732	10.91
471.936	10.97
472.14	10.94
472.344	10.86
472.548	10.99
472.752	10.9
472.956	10.87
473.16	10.96
473.364	10.97
473.568	10.78
473.772	10.83
473.976	10.82
474.18	10.71
474.384	10.72
474.588	10.87
474.792	10.87
474.995	10.95
475.199	10.92
475.403	10.91
475.607	10.88
475.811	10.79
476.015	10.75
476.218	10.82
476.422	10.87
476.626	10.87
476.83	10.95
477.033	11.03
477.237	11.17
477.441	11.15
477.644	11.19
477.848	11.21
478.052	11.12
478.255	10.97
478.459	10.92
478.663	10.86
478.866	10.74
479.07	10.83
479.273	10.83
479.477	10.88
479.681	10.81
479.884	10.91
480.088	10.82
480.291	10.82
480.495	10.7
480.698	10.83
480.901	10.79
481.105	10.81
481.308	10.78
481.512	10.87
481.715	10.93
481.919	10.91
482.122	10.93
482.325	10.92
482.529	10.89
482.732	10.82
482.935	10.84
483.138	10.86
483.342	10.81
483.545	10.86
483.748	10.82
483.952	10.73
484.155	10.74
484.358	10.78
484.561	10.7
484.764	10.7
484.967	10.79
485.171	10.72
485.374	10.76
485.577	10.88
485.78	10.88
485.983	10.9
486.186	10.91
486.389	10.87
486.592	10.76
486.795	10.81
486.998	10.69
487.201	10.73
487.404	10.76
487.607	10.84
487.81	10.81
488.013	10.87
488.216	10.83
488.419	10.91
488.622	10.87
488.825	10.89
489.028	10.91
489.231	11.07
489.433	11.03
489.636	11.04
489.839	11.13
490.042	11.26
490.245	11.2
490.447	11.29
490.65	11.4
490.853	11.43
491.056	11.51
491.258	11.57
491.461	11.59
491.664	11.63
491.866	11.66
492.069	11.69
492.272	11.67
492.474	11.74
492.677	11.79
492.879	11.83
493.082	11.9
493.285	12.08
493.487	12.18
493.69	12.25
493.892	12.41
494.095	12.48
494.297	12.6
494.5	12.71
494.702	12.75
494.905	12.76
495.107	12.74
495.309	12.77
495.512	12.83
495.714	13.02
495.917	13.21
496.119	13.44
496.321	13.57
496.524	13.61
496.726	13.68
496.928	13.74
497.13	13.85
497.333	13.93
497.535	14.17
497.737	14.24
497.939	14.38
498.142	14.44
498.344	14.55
498.546	14.55
498.748	14.65
498.95	14.66
499.152	14.66
499.355	14.77
499.557	14.91
499.759	15.04
499.961	15.08
500.163	15.1
500.365	15.24
500.567	15.26
500.769	15.26
500.971	15.37
501.173	15.53
501.375	15.41
501.577	15.41
501.779	15.51
501.981	15.59
502.183	15.57
502.385	15.64
502.587	15.67
502.788	15.64
502.99	15.54
503.192	15.57
503.394	15.56
503.596	15.53
503.798	15.46
503.999	15.5
504.201	15.42
504.403	15.48
504.605	15.48
504.806	15.53
505.008	15.56
505.21	15.52
505.411	15.4
505.613	15.37
505.815	15.23
506.016	15.17
506.218	15.13
506.42	15.12
506.621	15.04
506.823	15.07
507.024	14.95
507.226	14.96
507.427	14.8
507.629	14.77
507.83	14.68
508.032	14.67
508.233	14.59
508.435	14.63
508.636	14.64
508.838	14.6
509.039	14.55
509.24	14.54
509.442	14.46
509.643	14.31
509.845	14.27
510.046	14.22
510.247	14.2
510.448	14.13
510.65	14.13
510.851	14.04
511.052	13.97
511.254	13.96
511.455	13.83
511.656	13.68
511.857	13.71
512.058	13.61
512.26	13.47
512.461	13.5
512.662	13.45
512.863	13.24
513.064	13.27
513.265	13.22
513.466	13.17
513.667	13.18
513.868	13.24
514.069	13.16
514.27	13.1
514.471	13.05
514.672	13.03
514.873	12.88
515.074	12.84
515.275	12.84
515.476	12.81
515.677	12.74
515.878	12.76
516.079	12.73
516.28	12.68
516.481	12.64
516.682	12.59
516.882	12.59
517.083	12.49
517.284	12.51
517.485	12.48
517.686	12.5
517.886	12.47
518.087	12.49
518.288	12.39
518.488	12.33
518.689	12.28
518.89	12.2
519.091	12.18
519.291	12.12
519.492	12.12
519.692	12.08
519.893	12.1
520.094	12.03
520.294	12.03
520.495	12.03
520.695	12.02
520.896	12
521.096	12.01
521.297	11.96
521.497	11.9
521.698	11.9
521.898	11.89
522.099	11.84
522.299	11.86
522.499	11.86
522.7	11.78
522.9	11.76
523.101	11.74
523.301	11.72
523.501	11.68
523.702	11.66
523.902	11.64
524.102	11.68
524.302	11.66
524.503	11.58
524.703	11.58
524.903	11.57
525.103	11.55
525.304	11.48
525.504	11.6
525.704	11.57
525.904	11.57
526.104	11.49
526.304	11.52
526.504	11.38
526.705	11.36
526.905	11.28
527.105	11.29
527.305	11.28
527.505	11.33
527.705	11.32
527.905	11.37
528.105	11.38
528.305	11.41
528.505	11.38
528.705	11.41
528.905	11.39
529.105	11.31
529.304	11.31
529.504	11.34
529.704	11.3
529.904	11.31
530.104	11.34
530.304	11.31
530.503	11.23
530.703	11.17
530.903	11.1
531.103	11.09
531.303	11.12
531.502	11.19
531.702	11.17
531.902	11.24
532.101	11.25
532.301	11.19
532.501	11.16
532.7	11.2
532.9	11.16
533.1	11.12
533.299	11.1
533.499	11.11
533.698	11.09
533.898	11.04
534.097	11.07
534.297	11.07
534.496	11.03
534.696	11.03
534.895	11.09
535.095	11.12
535.294	11.14
535.494	11.1
535.693	11.13
535.892	11.14
536.092	11.1
536.291	11.03
536.491	11.11
536.69	11.03
536.889	10.96
537.088	10.91
537.288	10.95
537.487	10.95
537.686	10.99
537.886	11.09
538.085	11.1
538.284	11.1
538.483	11.1
538.682	11.18
538.882	11.15
539.081	11.13
539.28	11.16
539.479	11.14
539.678	11.11
539.877	11.06
540.076	11.11
540.275	11.08
540.474	11.05
540.673	10.99
540.872	10.99
541.071	10.96
541.27	10.97
541.469	10.95
541.668	10.99
541.867	10.95
542.066	10.98
542.265	11.02
542.464	11.06
542.663	11.06
542.862	11.18
543.06	11.18
543.259	11.19
543.458	11.16
543.657	11.17
543.856	11.13
544.054	11.11
544.253	11.07
544.452	11.13
544.651	11.08
544.849	11.02
545.048	11.01
545.247	11.03
545.445	11.04
545.644	11.05
545.843	11.12
546.041	11.14
546.24	11.09
546.438	11.03
546.637	11.04
546.836	11.05
547.034	11.08
547.233	11.15
547.431	11.24
547.63	11.28
547.828	11.29
548.027	11.25
548.225	11.22
548.423	11.2
548.622	11.17
548.82	11.14
549.019	11.12
549.217	11.12
549.415	11.11
549.614	11.13
549.812	11.17
550.01	11.27
550.209	11.29
550.407	11.26
550.605	11.31
550.803	11.33
551.002	11.34
551.2	11.43
551.398	11.55
551.596	11.51
551.794	11.56
551.993	11.58
552.191	11.53
552.389	11.55
552.587	11.54
552.785	11.55
552.983	11.58
553.181	11.63
553.379	11.63
553.577	11.76
553.775	11.76
553.973	11.76
554.171	11.79
554.369	11.8
554.567	11.83
554.765	11.97
554.963	12.02
555.161	12.05
555.359	12.07
555.557	12.04
555.755	12
555.952	11.99
556.15	12
556.348	12.08
556.546	12.21
556.744	12.22
556.941	12.31
557.139	12.34
557.337	12.33
557.535	12.3
557.732	12.36
557.93	12.42
558.128	12.48
558.325	12.55
558.523	12.59
558.721	12.5
558.918	12.49
559.116	12.49
559.313	12.49
559.511	12.55
559.708	12.71
559.906	12.84
560.104	12.9
560.301	13.01
560.498	12.99
560.696	13.04
560.893	13.03
561.091	13.12
561.288	13.18
561.486	13.21
561.683	13.27
561.88	13.17
562.078	13.2
562.275	13.11
562.473	13.23
562.67	13.23
562.867	13.31
563.064	13.32
563.262	13.42
563.459	13.49
563.656	13.42
563.853	13.54
564.051	13.58
564.248	13.67
564.445	13.64
564.642	13.71
564.839	13.77
565.036	13.8
565.234	13.72
565.431	13.78
565.628	13.83
565.825	13.82
566.022	13.94
566.219	14.05
566.416	14.05
566.613	14.13
566.81	14.19
567.007	14.11
567.204	14.14
567.401	14.18
567.598	14.21
567.795	14.19
567.991	14.2
568.188	14.2
568.385	14.17
568.582	14.17
568.779	14.21
568.976	14.3
569.172	14.34
569.369	14.43
569.566	14.46
569.763	14.42
569.96	14.44
570.156	14.4
570.353	14.38
570.55	14.41
570.746	14.46
570.943	14.45
571.14	14.48
571.336	14.51
571.533	14.46
571.729	14.51
571.926	14.52
572.123	14.52
572.319	14.54
572.516	14.55
572.712	14.58
572.909	14.62
573.105	14.63
573.302	14.66
573.498	14.61
573.695	14.53
573.891	14.53
574.087	14.49
574.284	14.52
574.48	14.58
574.677	14.62
574.873	14.54
575.069	14.6
575.266	14.58
575.462	14.52
575.658	14.51
575.854	14.59
576.051	14.51
576.247	14.43
576.443	14.5
576.639	14.54
576.835	14.43
577.032	14.42
577.228	14.45
577.424	14.47
577.62	14.41
577.816	14.4
578.012	14.48
578.208	14.49
578.404	14.5
578.6	14.52
578.796	14.58
578.993	14.64
579.189	14.61
579.384	14.55
579.58	14.57
579.776	14.56
579.972	14.39
580.168	14.32
580.364	14.23
580.56	14.16
580.756	14.04
580.952	14
581.148	14.08
581.343	14.1
581.539	14.15
581.735	14.13
581.931	14.06
582.127	13.98
582.322	14.01
582.518	13.94
582.714	13.96
582.909	14.11
583.105	14.09
583.301	14.13
583.496	14.12
583.692	14.14
583.888	14.01
584.083	14.01
584.279	13.95
584.474	13.95
584.67	13.99
584.866	14.12
585.061	14.05
585.257	13.9
585.452	13.86
585.648	13.81
585.843	13.71
586.039	13.76
586.234	13.87
586.429	13.8
586.625	13.77
586.82	13.78
587.015	13.67
587.211	13.56
587.406	13.53
587.601	13.58
587.797	13.58
587.992	13.61
588.187	13.64
588.383	13.73
588.578	13.79
588.773	13.8
588.968	13.84
589.163	13.86
589.359	13.83
589.554	13.72
589.749	13.75
589.944	13.83
590.139	13.77
590.334	13.8
590.529	13.78
590.724	13.81
590.919	13.77
591.114	13.89
591.309	13.9
591.504	13.88
591.699	13.85
591.894	13.78
592.089	13.8
592.284	13.77
592.479	13.88
592.674	13.85
592.869	13.92
593.064	13.96
593.259	14
593.454	14.05
593.648	14.1
593.843	14.03
594.038	14.01
594.233	14.03
594.428	13.97
594.622	14.01
594.817	14.13
595.012	14.14
595.206	14.23
595.401	14.32
595.596	14.29
595.79	14.24
595.985	14.22
596.18	14.23
596.374	14.22
596.569	14.37
596.763	14.54
596.958	14.67
597.153	14.68
597.347	14.73
597.542	14.74
597.736	14.66
597.931	14.62
598.125	14.66
598.319	14.65
598.514	14.6
598.708	14.71
598.903	14.65
599.097	14.71
599.291	14.7
599.486	14.85
599.68	14.82
599.874	15
600.069	14.95
600.263	14.95
600.457	14.88
600.651	14.84
600.846	14.8
601.04	14.82
601.234	14.9
601.428	14.87
601.622	14.99
601.817	15.03
602.011	15.09
602.205	15.14
602.399	15.26
602.593	15.27
602.787	15.27
602.981	15.25
603.175	15.24
603.369	15.16
603.563	15.18
603.757	15.17
603.951	15.11
604.145	15.08
604.339	15.08
604.533	15.01
604.727	15.01
604.921	15.05
605.115	15.02
605.309	14.88
605.502	14.9
605.696	14.85
605.89	14.77
606.084	14.82
606.278	14.85
606.471	14.8
606.665	14.73
606.859	14.72
607.053	14.56
607.246	14.61
607.44	14.61
607.634	14.63
607.827	14.58
608.021	14.53
608.214	14.42
608.408	14.33
608.602	14.32
608.795	14.33
608.989	14.36
609.182	14.4
609.376	14.33
609.569	14.24
609.763	14.17
609.956	14.17
610.15	14.07
610.343	14.07
610.537	14.07
610.73	14.04
610.923	13.95
611.117	13.96
611.31	13.86
611.504	13.77
611.697	13.76
611.89	13.64
612.083	13.6
612.277	13.56
612.47	13.58
612.663	13.43
612.856	13.38
613.05	13.33
613.243	13.25
613.436	13.16
613.629	13.1
613.822	13.13
614.015	13.13
614.209	13.08
614.402	13.01
614.595	13.04
614.788	13.01
614.981	12.82
615.174	12.87
615.367	12.87
615.56	12.8
615.753	12.75
615.946	12.81
616.139	12.73
616.332	12.69
616.525	12.72
616.718	12.67
616.911	12.58
617.103	12.47
617.296	12.47
617.489	12.5
617.682	12.54
617.875	12.54
618.067	12.48
618.26	12.37
618.453	12.16
618.646	12.09
618.838	12.01
619.031	12.1
619.224	12.13
619.417	12.25
619.609	12.16
619.802	12.19
619.994	12.11
620.187	12.13
620.38	12.01
620.572	12.01
620.765	12
620.957	12.02
621.15	12.01
621.342	11.99
621.535	12.01
621.727	11.95
621.92	11.93
622.112	11.84
622.305	11.89
622.497	11.9
622.69	11.83
622.882	11.84
623.074	11.83
623.267	11.78
623.459	11.73
623.651	11.79
623.844	11.67
624.036	11.7
624.228	11.73
624.42	11.71
624.613	11.71
624.805	11.8
624.997	11.81
625.189	11.76
625.381	11.83
625.574	11.85
625.766	11.87
625.958	11.8
626.15	11.8
626.342	11.69
626.534	11.69
626.726	11.61
626.918	11.54
627.11	11.4
627.302	11.41
627.494	11.3
627.686	11.29
627.878	11.38
628.07	11.46
628.262	11.47
628.454	11.43
628.646	11.43
628.838	11.39
629.029	11.32
629.221	11.23
629.413	11.24
629.605	11.26
629.797	11.22
629.989	11.28
630.18	11.33
630.372	11.31
630.564	11.25
630.755	11.18
630.947	11.14
631.139	11.09
631.33	11.04
631.522	11.06
631.714	11.06
631.905	10.98
632.097	10.92
632.289	10.97
632.48	10.9
632.672	10.85
632.863	10.83
633.055	10.91
633.246	10.81
633.438	10.8
633.629	10.83
633.821	10.85
634.012	10.81
634.203	10.87
634.395	10.93
634.586	11.03
634.777	11.08
634.969	11.13
635.16	11.15
635.351	11.17
635.543	11.07
635.734	10.98
635.925	10.95
636.117	10.9
636.308	10.95
636.499	10.93
636.69	10.91
636.881	10.97
637.073	11.04
637.264	11.03
637.455	10.98
637.646	11.02
637.837	11
638.028	10.9
638.219	10.86
638.41	10.92
638.601	10.99
638.792	10.9
638.983	10.96
639.174	10.89
639.365	10.86
639.556	10.79
639.747	10.83
639.938	10.88
640.129	11
640.32	11.07
640.511	11.13
640.701	11.1
640.892	11.08
641.083	11.01
641.274	10.96
641.465	10.81
641.655	10.87
641.846	10.82
642.037	10.82
642.228	10.77
642.418	10.89
642.609	10.84
642.8	10.78
642.99	10.69
643.181	10.69
643.372	10.62
643.562	10.57
643.753	10.66
643.943	10.73
644.134	10.74
644.324	10.8
644.515	10.88
644.705	10.82
644.896	10.8
645.086	10.79
645.277	10.79
645.467	10.85
645.658	10.81
645.848	10.73
646.038	10.7
646.229	10.72
646.419	10.66
646.61	10.85
646.8	11
646.99	11.07
647.18	10.98
647.371	10.83
647.561	10.7
647.751	10.61
647.941	10.56
648.132	10.57
648.322	10.66
648.512	10.62
648.702	10.73
648.892	10.73
649.082	10.71
649.272	10.73
649.462	10.73
649.653	10.67
649.843	10.7
650.033	10.75
650.223	10.62
650.413	10.61
650.603	10.66
650.793	10.6
650.983	10.57
651.172	10.65
651.362	10.57
651.552	10.35
651.742	10.36
651.932	10.32
652.122	10.32
652.312	10.29
652.502	10.38
652.691	10.39
652.881	10.43
653.071	10.45
653.261	10.44
653.45	10.37
653.64	10.32
653.83	10.33
654.019	10.23
654.209	10.16
654.399	10.2
654.588	10.05
654.778	9.89
654.968	9.78
655.157	9.9
655.347	9.79
655.536	9.81
655.726	9.78
655.915	9.82
656.105	9.62
656.294	9.57
656.484	9.51
656.673	9.51
656.863	9.48
657.052	9.56
657.241	9.55
657.431	9.54
657.62	9.42
657.809	9.33
657.999	9.27
658.188	9.21
658.377	9.15
658.567	9.16
658.756	9.09
658.945	9.12
659.134	9
659.324	8.98
659.513	8.86
659.702	8.79
659.891	8.63
660.08	8.63
660.269	8.56
660.458	8.45
660.648	8.53
660.837	8.44
661.026	8.36
661.215	8.34
661.404	8.47
661.593	8.37
661.782	8.36
661.971	8.4
662.16	8.37
662.349	8.24
662.538	8.24
662.726	8.21
662.915	8.17
663.104	8.13
663.293	8.11
663.482	8.05
663.671	8.22
663.86	8.22
664.048	8.25
664.237	8.36
664.426	8.31
664.615	8.19
664.803	8.14
664.992	8.08
665.181	7.98
665.369	8.1
665.558	8.08
665.747	8.16
665.935	8.27
666.124	8.26
666.312	8.15
666.501	8.24
666.69	8.21
666.878	8.11
667.067	8.12
667.255	8.29
667.444	8.43
667.632	8.49
667.82	8.6
668.009	8.69
668.197	8.64
668.386	8.53
668.574	8.48
668.762	8.57
668.951	8.64
669.139	8.6
669.327	8.64
669.516	8.66
669.704	8.64
669.892	8.54
670.08	8.62
670.269	8.59
670.457	8.61
670.645	8.63
670.833	8.69
671.021	8.72
671.21	8.81
671.398	8.83
671.586	8.78
671.774	8.84
671.962	8.89
672.15	8.92
672.338	9.04
672.526	9.19
672.714	9.32
672.902	9.26
673.09	9.12
673.278	9.04
673.466	9.11
673.654	9.21
673.842	9.42
674.03	9.69
674.218	9.83
674.405	9.77
674.593	9.71
674.781	9.67
674.969	9.54
675.157	9.7
675.344	9.82
675.532	10.02
675.72	10.08
675.908	10.11
676.095	10.03
676.283	10.11
676.471	10.06
676.658	10.01
676.846	10.22
677.033	10.26
677.221	10.23
677.409	10.16
677.596	10.3
677.784	10.33
677.971	10.35
678.159	10.37
678.346	10.42
678.534	10.43
678.721	10.43
678.909	10.48
679.096	10.56
679.283	10.56
679.471	10.56
679.658	10.44
679.846	10.46
680.033	10.64
680.22	10.83
680.408	10.83
680.595	10.98
680.782	10.95
680.969	10.78
681.157	10.64
681.344	10.74
681.531	10.8
681.718	10.94
681.905	11.03
682.093	11.07
682.28	11.08
682.467	11.22
682.654	11.28
682.841	11.21
683.028	11.26
683.215	11.47
683.402	11.38
683.589	11.34
683.776	11.48
683.963	11.55
684.15	11.43
684.337	11.61
684.524	11.85
684.711	11.95
684.898	12.05
685.085	12.12
685.271	12.09
685.458	12.03
685.645	11.9
685.832	11.99
686.019	12.02
686.205	12.08
686.392	12.09
686.579	12.36
686.766	12.42
686.952	12.44
687.139	12.62
687.326	12.72
687.512	12.86
687.699	13.01
687.886	13.33
688.072	13.22
688.259	13.36
688.445	13.44
688.632	13.41
688.818	13.5
689.005	13.85
689.191	14.05
689.378	14.24
689.564	14.74
689.751	14.92
689.937	15.03
690.124	15.24
690.31	15.4
690.496	15.66
690.683	16.05
690.869	16.51
691.055	16.83
691.242	17.13
691.428	17.09
691.614	17.15
691.8	17.2
691.987	17.42
692.173	17.93
692.359	18.54
692.545	18.87
692.731	19.34
692.918	19.73
693.104	19.99
693.29	20.08
693.476	20.34
693.662	20.64
693.848	21.25
694.034	21.52
694.22	22.09
694.406	22.75
694.592	23
694.778	23.04
694.964	23.65
695.15	24
695.336	24.28
695.522	24.86
695.708	25.44
695.894	25.68
696.08	26.14
696.265	26.58
696.451	27.17
696.637	27.84
696.823	28.35
697.009	28.84
697.194	29.28
697.38	29.39
697.566	29.64
697.751	30.13
697.937	30.44
698.123	30.9
698.308	31.47
698.494	31.66
698.68	32.07
698.865	32.51
699.051	32.93
699.236	33.62
699.422	34.3
699.607	34.74
699.793	35.3
699.978	35.77
700.164	36.06
700.349	36.57
700.535	36.87
700.72	37.09
700.906	37.57
701.091	37.81
701.276	38.19
701.462	38.64
701.647	39.48
701.832	39.74
702.018	40.4
702.203	40.7
702.388	40.99
702.573	41.22
702.759	41.99
702.944	42.28
703.129	42.69
703.314	43.08
703.499	43.23
703.684	43.33
703.87	43.63
704.055	43.9
704.24	44.42
704.425	44.62
704.61	45.03
704.795	45.58
704.98	46
705.165	46.33
705.35	46.95
705.535	47.29
705.72	47.57
705.905	47.78
706.09	48.01
706.275	48.18
706.459	48.36
706.644	48.36
706.829	48.79
707.014	49.34
707.199	49.93
707.384	49.86
707.568	50.21
707.753	50.48
707.938	50.17
708.123	49.77
708.307	50.04
708.492	50.3
708.677	50.13
708.861	50.74
709.046	51.01
709.231	51.39
709.415	51.43
709.6	51.77
709.784	51.9
709.969	52.27
710.153	52.51
710.338	53.08
710.522	53.33
710.707	53.17
710.891	53.23
711.076	53.46
711.26	53.64
711.445	53.81
711.629	54.36
711.813	54.57
711.998	54.96
712.182	54.69
712.366	54.8
712.551	54.46
712.735	54.76
712.919	54.3
713.103	54.39
713.288	54.29
713.472	54.54
713.656	54.72
713.84	54.84
714.024	55.35
714.208	55.4
714.393	55.74
714.577	56.07
714.761	56.09
714.945	56.1
715.129	56.74
715.313	56.88
715.497	56.54
715.681	57.06
715.865	57.02
716.049	57.1
716.233	57.07
716.417	56.98
716.601	57.07
716.785	57.39
716.968	56.84
717.152	57.13
717.336	58.01
717.52	58.5
717.704	58.57
717.888	59.42
718.071	59.6
718.255	59.08
718.439	58.88
718.622	59.07
718.806	58.77
718.99	58.29
719.174	58.47
719.357	58.72
719.541	58.97
719.724	59.05
719.908	59.35
720.092	59.37
720.275	59.55
720.459	59.53
720.642	59.57
720.826	59.46
721.009	60.01
721.193	59.72
721.376	60.12
721.559	60.88
721.743	61.66
721.926	61.57
722.11	61.84
722.293	61.31
722.476	60.96
722.66	61.29
722.843	61.49
723.026	61.45
723.21	61.71
723.393	61.81
723.576	61.69
723.759	61.82
723.942	62.13
724.126	62.53
724.309	62.32
724.492	62.86
724.675	62.69
724.858	63.17
725.041	62.83
725.224	63.35
725.407	62.86
725.59	63.62
725.774	63.44
725.957	63.85
726.14	64.1
726.322	64.48
726.505	63.78
726.688	64.1
726.871	64.18
727.054	64.38
727.237	64.26
727.42	65.29
727.603	65.25
727.786	65.82
727.968	65.9
728.151	65.98
728.334	65.58
728.517	65.89
728.699	65.82
728.882	66.61
729.065	67.33
729.248	67.61
729.43	67.64
729.613	67.61
729.796	67.18
729.978	67.5
730.161	67.29
730.343	68.18
730.526	68.43
730.708	68.53
730.891	68.3
731.073	68.88
731.256	68.67
731.438	68.68
731.621	68.58
731.803	69.26
731.986	69.93
732.168	70.33
732.35	70.72
732.533	71.77
732.715	71.33
732.898	71
733.08	71.25
733.262	71.81
733.444	71.28
733.627	71.87
733.809	72.15
733.991	71.77
734.173	71.77
734.355	72.49
734.538	72.75
734.72	73.67
734.902	74.38
735.084	74.96
735.266	75.47
735.448	76.25
735.63	75.63
735.812	75.86
735.994	75.94
736.176	76.47
736.358	76.67
736.54	77.82
736.722	76.54
736.904	76.55
737.086	75.98
737.268	75.42
737.45	75.13
737.632	76.63
737.814	77.21
737.995	77.49
738.177	77.85
738.359	77.91
738.541	77.38
738.723	77.29
738.904	76.76
739.086	77.32
739.268	77.18
739.449	78.65
739.631	78.7
739.813	79.14
739.994	79.22
740.176	80.13
740.358	79.54
740.539	80.4
740.721	79.94
740.902	79.68
741.084	80.22
741.265	79.9
741.447	78.41
741.628	79.17
741.81	79.52
741.991	80.02
742.172	80.25
742.354	81.83
742.535	82.16
742.717	81.65
742.898	80.95
743.079	81.69
743.261	82.02
743.442	82.99
743.623	83.98
743.804	83.54
743.986	82.79
744.167	81.19
744.348	80.6
744.529	80.48
744.71	80.42
744.891	81.32
745.073	82.02
745.254	82.95
745.435	83.33
745.616	84.44
745.797	84.17
745.978	85.05
746.159	84.46
746.34	84.11
746.521	83.18
746.702	83.81
746.883	84.37
747.064	83.86
747.245	83.63
747.426	85.45
747.606	84.9
747.787	84.36
747.968	85.32
748.149	84.75
748.33	83.38
748.51	83.12
748.691	82.54
748.872	81.43
749.053	82.28
749.233	82.17
749.414	83.49
749.595	84.76
749.775	85.62
749.956	85.39
750.137	85.4
750.317	84.09
750.498	83.66
750.678	84.8
750.859	85.58
751.04	85.3
751.22	85.88
751.4	85.93
751.581	83.62
751.761	83.65
751.942	84.3
752.122	85.45
752.303	84.66
752.483	86.59
752.663	87.21
752.844	86.35
753.024	85.57
753.204	86.27
753.385	84.51
753.565	83.46
753.745	84.02
753.925	83.92
754.106	83.21
754.286	84.29
754.466	84.72
754.646	84.93
754.826	85.61
755.006	85.18
755.187	85.37
755.367	84.96
755.547	83.56
755.727	82.04
755.907	83.11
756.087	83.31
756.267	83.03
756.447	83.54
756.627	83.49
756.807	84.24
756.987	82.9
757.167	83.24
757.346	84.36
757.526	86.06
757.706	85.84
757.886	87.47
758.066	88.05
758.246	88.44
758.425	86.9
758.605	85.31
758.785	85.02
758.965	85.32
759.144	84.87
759.324	85.49
759.504	86.55
759.683	86.99
759.863	85.34
760.043	86.7
760.222	88.12
760.402	86.51
760.581	87.16
760.761	89.5
760.94	88.29
761.12	86.08
761.299	88.04
761.479	86.63
761.658	83.79
761.838	81.86
762.017	81.21
762.197	82.01
762.376	81.61
762.555	83.05
762.735	84.88
762.914	84.1
763.093	82.64
763.273	83.6
763.452	83.65
763.631	83.61
763.81	86.02
763.99	86.63
764.169	87.18
764.348	85.8
764.527	84.95
764.706	83.98
764.885	82.9
765.064	82
765.243	83.97
765.423	84.13
765.602	83.79
765.781	83.03
765.96	81.68
766.139	79.53
766.318	80.1
766.497	80.99
766.676	81.4
766.854	80.89
767.033	82.49
767.212	82.03
767.391	81.64
767.57	81.32
767.749	83.25
767.928	83.75
768.106	82.39
768.285	83.03
768.464	83.92
768.643	83.1
768.821	82.32
769	83.41
769.179	82.8
769.357	83.2
769.536	84.73
769.715	84.19
769.893	82.96
770.072	83.46
770.25	82.37
770.429	81.89
770.607	81.66
770.786	84.38
770.964	83.64
771.143	84.71
771.321	84.15
771.5	86.6
771.678	85.78
771.857	86.67
772.035	85.87
772.213	85.29
772.392	82.97
772.57	83.76
772.748	82.74
772.927	83.78
773.105	83.33
773.283	84.53
773.461	84.55
773.64	87.17
773.818	85.05
773.996	86.57
774.174	85.32
774.352	83.2
774.531	80.3
774.709	81.55
774.887	82.41
775.065	80.96
775.243	81.94
775.421	81.6
775.599	81.69
775.777	79.8
775.955	81.99
776.133	82.66
776.311	85.83
776.489	86.63
776.667	85.6
776.844	83.43
777.022	83.46
777.2	82.95
777.378	83.28
777.556	85.14
777.734	87.66
777.911	85.82
778.089	85.48
778.267	84.05
778.445	83.16
778.622	81.12
778.8	80.47
778.978	78.72
779.155	79.39
779.333	77.24
779.511	75.07
779.688	77.76
779.866	75.97
780.043	76.36
780.221	76.45
780.398	79.5
780.576	76.95
780.753	79.17
780.931	78.75
781.108	79.76
781.286	80.57
781.463	81.12
781.64	82.57
781.818	80.67
781.995	80.34
782.172	80.13
782.35	83.15
782.527	77.92
782.704	79.36
782.882	78.63
783.059	78.98
783.236	72.95
783.413	77.16
783.59	76.95
783.768	75.25
783.945	75.66
784.122	82.31
784.299	83.82
784.476	83.45
784.653	87.59
784.83	87.79
785.007	83.77
785.184	79.28
785.361	78.7
785.538	78.59
785.715	77.79
785.892	80.19
786.069	85.01
786.246	88.78
786.423	89.58
786.6	91.7
786.776	88.85
786.953	86.58
787.13	83.24
787.307	82.75
787.484	81.51
787.66	82.54
787.837	83.52
788.014	87.2
788.191	90.32
788.367	87.66
788.544	90.99
788.721	87.05
788.897	85.68
789.074	81.89
789.25	81.92
789.427	77.93
789.603	81.21
789.78	78.3
789.956	78.9
790.133	81.06
790.309	79.53
790.486	77.31
790.662	78.59
790.839	77.71
791.015	78.38
791.192	78.83
791.368	81.02
791.544	82.86
791.721	85.73
791.897	87.17
792.073	91.22
792.249	87.75
792.426	86.52
792.602	83.68
792.778	79.52
792.954	75.01
793.13	76.4
793.307	75.31
793.483	74.39
793.659	74.96
793.835	81.88
794.011	86.39
794.187	81.43
794.363	85.11
794.539	84.41
794.715	76.58
794.891	70.78
795.067	75.25
795.243	74.77
795.419	77.84
795.595	82.65
795.771	82.8
795.947	85.8
796.122	79.91
796.298	74.5
796.474	73.37
796.65	74.18
796.826	69.11
797.001	76.88
797.177	84.95
797.353	82.85
797.529	83.53
797.704	87.94
797.88	85.01
798.056	76.94
798.231	78.48
798.407	77.63
798.582	74.65
798.758	77.51
798.934	79.98
799.109	84.23
799.285	81.8
799.46	83.83
799.636	79.59
799.811	82.88
799.986	82.29
800.162	88.75
800.337	91.75
800.513	94.28
800.688	101.38
800.863	96.68
801.039	91.01
801.214	86.57
801.389	83.54
801.565	80.84
801.74	81.8
801.915	81.87
802.09	81.45
802.265	81.73
802.441	76.71
802.616	77.15
802.791	77.05
802.966	84.7
803.141	83.35
803.316	80.44
803.491	73.87
803.666	72.86
803.841	69.53
804.016	76.56
804.191	80.6
804.366	93.91
804.541	96.54
804.716	94.56
804.891	89.38
805.066	91
805.241	85.22
805.416	85.59
805.591	87.74
805.765	89.87
805.94	85.92
806.115	80.61
806.29	80.34
806.464	84.13
806.639	87.6
806.814	83.04
806.989	88.15
807.163	95.8
807.338	98.19
807.512	90.72
807.687	91.12
807.862	92.08
808.036	86.16
808.211	90.76
808.385	86.1
808.56	90.17
808.734	85.9
808.909	83.78
809.083	74.13
809.258	78.58
809.432	76.1
809.606	74.32
809.781	75.14
809.955	79.04
810.13	82.47
810.304	84.4
810.478	83.09
810.652	88.09
810.827	85.87
811.001	95.31
811.175	97.73
811.349	108.01
811.524	110.39
811.698	115.28
811.872	99.07
812.046	93.21
812.22	83.57
812.394	73.73
812.568	75.61
812.742	84.28
812.916	85.64
813.09	100.26
813.264	109.92
813.438	102.9
813.612	104.74
813.786	100.14
813.96	82.28
814.134	76.96
814.308	79.93
814.482	74.18
814.656	90.94
814.83	99.23
815.003	107.13
815.177	111.12
815.351	107.92
815.525	96.96
815.698	91.95
815.872	84.39
816.046	74.64
816.219	78.56
816.393	87.31
816.567	93.9
816.74	97.68
816.914	118.49
817.088	127.6
817.261	119.87
817.435	112.48
817.608	130.02
817.782	112
817.955	109.81
818.129	119.52
818.302	117.48
818.475	117.92
818.649	119.68
818.822	114.27
818.996	94.16
819.169	94.48
819.342	91.47
819.516	85
819.689	85.23
819.862	83.87
820.035	85.47
820.209	72.17
820.382	75.46
820.555	75.75
820.728	78.32
820.901	72.32
821.075	83.93
821.248	84.37
821.421	80.86
821.594	93.88
821.767	85.78
821.94	84.7
822.113	78.3
822.286	78.15
822.459	59.38
822.632	83.39
822.805	100.16
822.978	103.79
823.151	101.64
823.324	109.17
823.496	84.22
823.669	53.99
823.842	68.3
824.015	70.59
824.188	63.72
824.361	73.12
824.533	100.22
824.706	78.76
824.879	86.22
825.051	81.23
825.224	89.4
825.397	77.28
825.569	74.94
825.742	73.1
825.915	77.55
826.087	75.72
826.26	75.24
826.432	84.78
826.605	80.37
826.777	81.68
826.95	91.11
827.122	92.63
827.295	79.23
827.467	80.53
827.64	74.86
827.812	67.11
827.984	67.19
828.157	82.25
828.329	104.14
828.501	128.18
828.674	119.31
828.846	126.92
829.018	122.42
829.19	118.45
829.363	90.71
829.535	102.23
829.707	80.55
829.879	81.09
830.051	59.62
830.223	76.39
830.395	65.56
830.568	65.67
830.74	74.2
830.912	73.26
831.084	78.82
831.256	74.69
831.428	87.15
831.6	96.8
831.772	131.5
831.943	101.32
832.115	96.43
832.287	96.58
832.459	85.72
832.631	65.6
832.803	88.27
832.975	82.62
833.146	92.13
833.318	84.41
833.49	93.27
833.662	92.58
833.833	103.1
834.005	104
834.177	112.27
834.348	106.64
834.52	98.18
834.692	106.08
834.863	85.59
835.035	87.31
835.206	80.07
835.378	87.98
835.549	102.2
835.721	124.81
835.892	127.55
836.064	161.33
836.235	147.2
836.407	134.38
836.578	94.64
836.749	99.54
836.921	88.2
837.092	72.96
837.264	76.16
837.435	89.93
837.606	97.13
837.777	100.72
837.949	107.64
838.12	87.09
838.291	119.49
838.462	112.7
838.633	111.2
838.805	115.3
838.976	127.09
839.147	100.52
839.318	141.38
839.489	122.84
839.66	133.52
839.831	129.04
840.002	164.18
840.173	109.14
840.344	105.46
840.515	82.31
840.686	96.64
840.857	77.49
841.028	91.04
841.199	107.46
841.369	98.68
841.54	94.84
841.711	119.64
841.882	95.35
842.053	102.81
842.223	115.09
842.394	102.93
842.565	101.54
842.736	108.64
842.906	77.12
843.077	86.76
843.248	90.72
843.418	90.7
843.589	97.33
843.759	146.53
843.93	367.21
844.101	625.76
844.271	182.92
844.442	189.44
844.612	184.03
844.783	194.74
844.953	139.47
845.123	155.75
845.294	131.45
845.464	115.81
845.635	99.21
845.805	134.55
845.975	123.66
846.146	149.9
846.316	231.81
846.486	132.06
846.656	149.57
846.827	132.6
846.997	91.51
847.167	93.75
847.337	88.09
847.507	111.56
847.677	103.67
847.848	136.19
848.018	131.51
848.188	142.9
848.358	104.79
848.528	141.28
848.698	127.33
848.868	130.6
849.038	110.31
849.208	128.6
849.378	124.21
849.548	138.02
849.718	597.36
849.887	-524.38
850.057	9238.71
850.227	-878.97
850.397	-1165.1
850.567	72.03
850.737	54.05
850.906	16.57
851.076	25.21
851.246	42.52
851.415	88.49
851.585	95.44
851.755	110.77
851.924	100.85
852.094	94.45
852.264	81.73
852.433	61.64
852.603	71.27
852.772	64.98
852.942	53.93
853.111	63.8
853.281	96.54
853.45	87.88
853.62	88.69
853.789	132.48
853.959	137.48
854.128	-109.41
854.297	-5.8
854.467	-82.72
854.636	165.01
854.805	135.29
854.975	53.93
855.144	48.51
855.313	43.39
855.482	55.87
855.652	50.57
855.821	57.78
855.99	89.06
856.159	388.01
856.328	157.85
856.497	220.61
856.667	162.82
856.836	191.21
857.005	136.95
857.174	127.97
857.343	128.74
857.512	112.27
857.681	57.66
857.85	46.66
858.019	39.93
858.188	25.68
858.356	52.68
858.525	77.6
858.694	70.79
858.863	72.79
859.032	65.21
859.201	22.89
859.369	30.63
859.538	1.94
859.707	21.61
859.876	39.06
860.044	53.13
860.213	77.22
860.382	106.44
860.55	99.68
860.719	120.57
860.888	126.88
861.056	173.36
861.225	172.12
861.393	211.77
861.562	264.58
861.73	306.36
861.899	199.06
862.067	329.16
862.236	255.42
862.404	132.64
862.572	59.07
862.741	-38.53
862.909	44.71
863.078	45.21
863.246	36.46
863.414	87.51
863.582	70.57
863.751	76.83
863.919	109.18
864.087	81.72
864.255	81.12
864.424	32.45
864.592	31.34
864.76	67.64
864.928	91.36
865.096	95.02
865.264	128.03
865.432	184.77
865.6	215.85
865.768	118.6
865.936	79.79
866.104	191.97
866.272	57.45
866.44	22.68
866.608	67.67
866.776	81.79
866.944	62.19
867.112	85.55
867.28	81.82
867.448	91.16
867.615	117.67
867.783	137.25
867.951	120.29
868.119	119.45
868.286	148.69
868.454	96.65
868.622	37.93
868.789	174.27
868.957	-144.8
869.125	-438.43
869.292	441.71
869.46	-251.82
869.627	-331.43
869.795	-15.18
869.963	26.29
870.13	69.58
870.298	52.69
870.465	83.66
870.632	96.47
870.8	119.79
870.967	172.63
871.135	211.23
871.302	-699.05
871.469	233.3
871.637	108.87
871.804	61.15
871.971	49.94
872.139	44.1
872.306	76.91
872.473	142.71
872.64	3.12
872.807	57.94
872.975	16.4
873.142	47.95
873.309	72.96
873.476	95.76
873.643	134.61
873.81	116.56
873.977	139.48
874.144	182.36
874.311	333.69
874.478	359.23
874.645	447.9
874.812	1516.59
874.979	303.82
875.146	164.19
875.313	403.37
875.48	-381.41
875.647	625.98
875.813	1605.06
875.98	-235.19
876.147	87.16
876.314	50.15
876.481	49.73
876.647	42.02
876.814	49.4
876.981	129.92
877.147	168.74
877.314	105.92
877.481	188.9
877.647	218.23
877.814	221.78
877.98	25.92
878.147	31.03
878.314	217.93
878.48	343.32
878.647	85.42
878.813	1067.63
878.979	117.26
879.146	146.57
879.312	118.21
879.479	155.1
879.645	133.3
879.811	133.89
879.978	110.01
880.144	156.26
880.31	208.62
880.477	-5.37
880.643	-601.08
880.809	-4614.63
880.975	1674.37
881.142	309.53
881.308	665.33
881.474	334.67
881.64	206.38
881.806	102.05
881.972	114.86
882.138	81.09
882.304	75.17
882.47	60.04
882.636	88.57
882.802	95.76
882.968	105.73
883.134	104.52
883.3	105.73
883.466	101.71
883.632	117.38
883.798	132.63
883.964	148.79
884.129	75.38
884.295	11.87
884.461	-529.45
884.627	978.44
884.793	237.93
884.958	130.31
885.124	-174.26
885.29	48.38
885.455	104.66
885.621	82.86
885.787	88.28
885.952	97.68
886.118	252.34
886.283	184.56
886.449	364.35
886.614	207.86
886.78	183.23
886.945	126.11
887.111	122.37
887.276	132.38
887.442	163.78
887.607	120.08
887.773	189.45
887.938	91.16
888.103	196.82
888.269	-79.56
888.434	7082.35
888.599	-72.34
888.764	438.83
888.93	2.48
889.095	42.91
889.26	56.05
889.425	60.19
889.59	44.61
889.756	44.17
889.921	47.51
890.086	-34.28
890.251	-63.52
890.416	-76.54
890.581	-73.44
890.746	-47.7
890.911	73.24
891.076	362.59
891.241	262.02
891.406	31485.71
891.571	444.92
891.736	-48.17
891.901	107.64
892.065	-12.41
892.23	71.67
892.395	6.43
892.56	115.44
892.725	-9.6
892.889	-386.33
893.054	-1019.87
893.219	-1401.44
893.384	-40.52
893.548	168.62
893.713	138.02
893.878	303.66
