Data from Ofav_SP_Phys_9DW32_Reflection_1.txt Node
Date: Thu Aug 05 17:51:32 EDT 2021
User: Adam
Spectrometer: FLMT01687
Trigger mode: 0
Integration Time (sec): 8.000000E-1
Scans to average: 2
Electric dark correction enabled: true
Nonlinearity correction enabled: false
Boxcar width: 2
XAxis mode: Wavelengths
Number of Pixels in Spectrum: 3648
>>>>>Begin Spectral Data<<<<<
179.494	583.03
179.716	688.78
179.937	555.09
180.158	596.55
180.38	1373
180.601	-514.29
180.823	38.32
181.044	-37.54
181.265	-117.25
181.486	-82.86
181.708	821.48
181.929	87.52
182.15	-210.61
182.372	35.77
182.593	19.8
182.814	-391.55
183.035	-153.14
183.257	106.76
183.478	4.07
183.699	98.48
183.92	133.45
184.141	-575.78
184.363	64.86
184.584	94.45
184.805	45.51
185.026	25.94
185.247	51.41
185.468	55.73
185.689	57.9
185.91	25.55
186.132	-16.87
186.353	-10.52
186.574	-59.89
186.795	-55.28
187.016	-12.76
187.237	30.06
187.458	-77.42
187.679	3.58
187.9	22.27
188.121	33.85
188.342	66.63
188.563	42.08
188.784	72.35
189.005	94.3
189.226	126.01
189.447	103.63
189.667	245.1
189.888	343.93
190.109	269.87
190.33	144.51
190.551	133.07
190.772	108.38
190.993	83.25
191.214	48.53
191.434	45.98
191.655	20.92
191.876	40.46
192.097	34.65
192.318	21.67
192.538	-14.85
192.759	26.73
192.98	-61.83
193.201	-118.09
193.421	-96.29
193.642	-44.09
193.863	-42.68
194.083	12.4
194.304	18.05
194.525	32.42
194.745	39.21
194.966	37.29
195.187	32.5
195.407	19.48
195.628	-2.82
195.848	28.51
196.069	27.33
196.29	26.86
196.51	45.24
196.731	40.26
196.951	40.36
197.172	64.81
197.392	61.65
197.613	26.93
197.833	55.94
198.054	46.35
198.274	-10.02
198.495	19.06
198.715	41.13
198.936	-20.81
199.156	14.16
199.377	52.2
199.597	39.22
199.817	28.25
200.038	29.82
200.258	30.8
200.479	8.04
200.699	7.07
200.919	-9.79
201.14	-57.21
201.36	-103.47
201.58	-60.93
201.801	-171.92
202.021	-131.52
202.241	-16.42
202.461	15.57
202.682	0.85
202.902	35.04
203.122	184.73
203.342	212.51
203.563	74.28
203.783	63.25
204.003	60.35
204.223	36.73
204.443	-0.86
204.663	-13.2
204.884	3.37
205.104	-9.45
205.324	14.2
205.544	11.72
205.764	26.17
205.984	-12.4
206.204	13.83
206.424	6.76
206.644	35.08
206.864	25.52
207.084	19.89
207.304	35.93
207.525	8.06
207.745	2.51
207.964	2.41
208.184	41.33
208.404	-14.88
208.624	-18.92
208.844	-53.38
209.064	-61.27
209.284	-21.98
209.504	0
209.724	11.54
209.944	-13.18
210.164	-19.12
210.384	-22.6
210.604	-21.14
210.823	0.59
211.043	22.04
211.263	36.03
211.483	19.56
211.703	17.46
211.922	41.54
212.142	65.86
212.362	28.14
212.582	91.95
212.801	144.12
213.021	76.17
213.241	43.27
213.461	27.51
213.68	19.32
213.9	-24.2
214.12	-45.7
214.339	-29.79
214.559	26.15
214.779	30.68
214.998	111.27
215.218	105.06
215.438	142.24
215.657	169.55
215.877	155.54
216.096	81.96
216.316	67.88
216.535	21.27
216.755	-48.08
216.974	-174.96
217.194	6.36
217.413	41.34
217.633	26.45
217.852	53.71
218.072	60.74
218.291	53.03
218.511	47.93
218.73	52.49
218.95	21.09
219.169	-4.26
219.389	27.44
219.608	2.07
219.827	21.76
220.047	17.83
220.266	51.12
220.485	41.67
220.705	75.3
220.924	68.87
221.143	63.6
221.363	13.07
221.582	4.2
221.801	-66.64
222.021	-15.57
222.24	21.46
222.459	11.14
222.678	32.56
222.897	39.01
223.117	-4.28
223.336	-33.51
223.555	-7.72
223.774	-49.37
223.993	-42.98
224.213	-1.38
224.432	-15.16
224.651	-14.26
224.87	-0
225.089	9.99
225.308	-42.05
225.527	-45.32
225.746	-89.43
225.965	-91.07
226.184	-96.51
226.404	-49.51
226.623	-50.55
226.842	-9.1
227.061	-1.63
227.28	27.08
227.499	42.9
227.718	47.09
227.936	43.67
228.155	61.37
228.374	30.21
228.593	14.41
228.812	21.94
229.031	35.98
229.25	25.78
229.469	32.17
229.688	34.51
229.907	23.67
230.125	12.06
230.344	14.27
230.563	25.3
230.782	37.33
231.001	33.99
231.22	13.21
231.438	8.06
231.657	-6.42
231.876	-35.3
232.095	-9.56
232.313	-19.14
232.532	2.03
232.751	16.07
232.969	16.15
233.188	9.91
233.407	4.42
233.625	27.03
233.844	-8.86
234.063	14.12
234.281	21.43
234.5	37.51
234.719	39.91
234.937	47.26
235.156	28.02
235.374	35.43
235.593	31.42
235.811	5.19
236.03	9.16
236.249	24.63
236.467	-0.75
236.686	-9.88
236.904	-3.78
237.123	2.21
237.341	9.1
237.559	8.5
237.778	17.13
237.996	36.22
238.215	41.14
238.433	38.89
238.652	56.08
238.87	40.31
239.088	18.8
239.307	19.26
239.525	12.71
239.743	-10.15
239.962	6.42
240.18	9.86
240.398	-13.64
240.617	-20.88
240.835	42.4
241.053	25.1
241.271	-2.25
241.49	16.36
241.708	1.35
241.926	-31.49
242.144	-74.46
242.363	-93.05
242.581	-36.1
242.799	-45.36
243.017	-58.89
243.235	-49.57
243.453	-12.02
243.672	-48.95
243.89	-35.54
244.108	18.73
244.326	81.58
244.544	118.67
244.762	103.1
244.98	154.83
245.198	128.99
245.416	84.12
245.634	74.29
245.852	101.92
246.07	50.57
246.288	29.16
246.506	35.48
246.724	38.09
246.942	16.36
247.16	20.94
247.378	0.65
247.596	-2.41
247.814	-42.77
248.032	-25.34
248.25	-68.2
248.468	-35.35
248.685	-16.61
248.903	6.73
249.121	-17.24
249.339	23.32
249.557	8.19
249.775	-5.67
249.992	-48.23
250.21	-7.25
250.428	-16.97
250.646	-7.53
250.863	2.48
251.081	37.14
251.299	23.61
251.517	31.23
251.734	34.06
251.952	7.09
252.17	17.38
252.387	15.38
252.605	15.17
252.823	22.98
253.04	41.14
253.258	44.76
253.475	57.45
253.693	55.09
253.911	58.75
254.128	57.31
254.346	59.62
254.563	52.06
254.781	59.95
254.998	54.78
255.216	37.59
255.433	5.55
255.651	15.42
255.868	-52.51
256.086	-38.05
256.303	-52.22
256.521	-77.24
256.738	-102.34
256.956	-158.13
257.173	4.07
257.39	95.97
257.608	68.21
257.825	37.83
258.043	36.69
258.26	21.95
258.477	-5.06
258.695	12.61
258.912	31.49
259.129	48.28
259.346	39.61
259.564	28.42
259.781	34.86
259.998	15.6
260.216	6.17
260.433	-0.37
260.65	6.78
260.867	-53.21
261.084	-15.28
261.302	-13.73
261.519	15.34
261.736	36.73
261.953	44.78
262.17	49.12
262.387	100.35
262.604	95.74
262.822	103.21
263.039	92.43
263.256	86.55
263.473	27.72
263.69	38.36
263.907	7.37
264.124	16.46
264.341	14.68
264.558	-7.02
264.775	-31.56
264.992	1.14
265.209	-2.92
265.426	-17.9
265.643	-5.56
265.86	-16.13
266.077	-39.4
266.294	-60.72
266.51	-46.02
266.727	-20.68
266.944	6.94
267.161	11.04
267.378	37.81
267.595	42.19
267.812	13.31
268.028	-2.41
268.245	3.89
268.462	-9.24
268.679	-26.81
268.896	4.73
269.112	-2.02
269.329	13.88
269.546	26.64
269.763	36.55
269.979	44.05
270.196	70.77
270.413	63.16
270.629	83.26
270.846	81.38
271.063	60.37
271.279	26.84
271.496	-39.88
271.712	-154.13
271.929	-125.5
272.146	-65.97
272.362	-95.51
272.579	-62.83
272.795	-30.16
273.012	-10.63
273.228	-28.64
273.445	-8.69
273.661	26.65
273.878	11.12
274.094	-9.06
274.311	-9.2
274.527	-26.44
274.744	-23.81
274.96	-15.57
275.177	-23.22
275.393	-47.38
275.609	-7.56
275.826	-13.35
276.042	17.72
276.259	31.69
276.475	32.17
276.691	10.1
276.908	13.02
277.124	21.36
277.34	16.31
277.557	-10.56
277.773	-2.78
277.989	-36.68
278.205	-96.43
278.422	-78.63
278.638	16.08
278.854	28.23
279.07	36.25
279.286	10.12
279.503	3.07
279.719	-28.09
279.935	-2.98
280.151	15.08
280.367	57.58
280.583	37.16
280.799	40.52
281.016	4.72
281.232	10.61
281.448	-4.51
281.664	28.52
281.88	49.63
282.096	70.93
282.312	68.68
282.528	61.45
282.744	63.25
282.96	61
283.176	58.97
283.392	38.33
283.608	54.21
283.824	31.39
284.04	26.31
284.256	21.73
284.471	26.65
284.687	16.16
284.903	34.48
285.119	32.93
285.335	15.27
285.551	5.3
285.767	8.46
285.982	-14.45
286.198	-74.19
286.414	-24.85
286.63	-5.39
286.846	-0.29
287.061	5.35
287.277	28.51
287.493	48.55
287.709	29.44
287.924	37.29
288.14	53.74
288.356	49.19
288.571	46.14
288.787	49.87
289.003	67.59
289.218	57.86
289.434	32.78
289.65	19.04
289.865	43.82
290.081	18.79
290.296	12.2
290.512	7.94
290.727	17.45
290.943	14.78
291.159	16.29
291.374	24.88
291.59	29.2
291.805	22.93
292.021	46.01
292.236	46.14
292.451	17.58
292.667	54.11
292.882	33.38
293.098	7.45
293.313	27.21
293.529	47.34
293.744	14.35
293.959	-6.52
294.175	-23.96
294.39	-35.55
294.605	-25.64
294.821	-17.81
295.036	-10.5
295.251	17.71
295.467	26.44
295.682	15.67
295.897	33.2
296.112	44.97
296.328	43.63
296.543	52.11
296.758	64.48
296.973	33.29
297.188	47.64
297.404	35.19
297.619	24.03
297.834	23.01
298.049	10.48
298.264	-25.23
298.479	-54.26
298.694	-26.41
298.909	-6.79
299.125	13.19
299.34	24.22
299.555	28.84
299.77	33.95
299.985	28.86
300.2	39.61
300.415	28.48
300.63	34.18
300.845	17.15
301.06	18.77
301.275	15.5
301.49	50.3
301.704	104.25
301.919	75.65
302.134	68.44
302.349	62.66
302.564	30.61
302.779	28.38
302.994	24.58
303.209	22.07
303.423	7.07
303.638	14.3
303.853	-4.26
304.068	1.1
304.283	12.05
304.497	20.63
304.712	22.74
304.927	23.62
305.142	12.07
305.356	-22.22
305.571	8.23
305.786	24.03
306	36.55
306.215	48.26
306.43	70.85
306.644	69.58
306.859	59.01
307.074	57.19
307.288	55.19
307.503	50.95
307.717	28.79
307.932	22.68
308.147	15.89
308.361	23.78
308.576	10.63
308.79	-4.2
309.005	2.52
309.219	-16.19
309.434	-47.95
309.648	-95.06
309.863	-57.64
310.077	-108.16
310.292	-47.53
310.506	-41.32
310.72	3.16
310.935	20.12
311.149	56.7
311.364	55.02
311.578	70
311.792	68.82
312.007	56.97
312.221	28.6
312.435	29.8
312.649	30.82
312.864	14.23
313.078	18.29
313.292	39.19
313.507	34.46
313.721	13.34
313.935	13.16
314.149	18.55
314.363	2.61
314.578	5.07
314.792	2.73
315.006	-3.21
315.22	-16.64
315.434	-36.4
315.648	-96.96
315.862	-75.93
316.077	-51.17
316.291	-50.81
316.505	-0.32
316.719	16.2
316.933	18.66
317.147	1.98
317.361	-2.74
317.575	-14.27
317.789	-12.4
318.003	-48.08
318.217	18.16
318.431	42.58
318.645	35.69
318.859	8.05
319.073	-1.76
319.287	-34.11
319.5	-28.53
319.714	-28.97
319.928	10.09
320.142	25.89
320.356	29.65
320.57	36.56
320.784	60.68
320.997	53.77
321.211	38.3
321.425	11.58
321.639	-37.93
321.853	-46.02
322.066	-41.79
322.28	-35.85
322.494	-38.29
322.707	-21.14
322.921	-2.99
323.135	-6.19
323.349	9.41
323.562	13.89
323.776	39.87
323.989	11.14
324.203	11.25
324.417	-2.84
324.63	5.71
324.844	-15.56
325.057	-3.46
325.271	-26.16
325.485	-11.28
325.698	-0.77
325.912	6.28
326.125	28.28
326.339	63.56
326.552	58.79
326.766	36.01
326.979	55.86
327.193	44.21
327.406	30.15
327.619	75.66
327.833	56.26
328.046	58.74
328.26	53.3
328.473	23.8
328.686	-41.41
328.9	-35.75
329.113	-39.26
329.326	-29.83
329.54	-1.2
329.753	25.02
329.966	40.95
330.179	27.57
330.393	48.07
330.606	32.5
330.819	22.57
331.032	20.24
331.246	74.37
331.459	45.63
331.672	62.6
331.885	59.43
332.098	64.71
332.311	45.97
332.525	46.58
332.738	28.84
332.951	29.08
333.164	10.06
333.377	-3
333.59	-7.03
333.803	-6.02
334.016	-27.83
334.229	-31.22
334.442	-2.53
334.655	9.44
334.868	13.47
335.081	12.42
335.294	28.93
335.507	30.94
335.72	39.12
335.933	35.43
336.146	53.01
336.359	53.25
336.572	33.08
336.785	11.18
336.997	15.37
337.21	10.87
337.423	16.98
337.636	29.29
337.849	46.38
338.062	46.46
338.274	14.79
338.487	5.05
338.7	6.43
338.913	-0.46
339.125	9.48
339.338	8.4
339.551	13.29
339.763	35.74
339.976	41.2
340.189	34.48
340.402	27.96
340.614	13.4
340.827	16
341.039	5
341.252	1.84
341.465	14.66
341.677	22.98
341.89	-6.68
342.102	17.22
342.315	11.91
342.527	-3.41
342.74	-17.78
342.952	4.33
343.165	17.37
343.377	34.09
343.59	22.51
343.802	39.62
344.015	26.91
344.227	0.95
344.44	7.7
344.652	28.7
344.864	34.11
345.077	52.18
345.289	32.61
345.502	9.59
345.714	-0.81
345.926	7.08
346.139	-11.18
346.351	9.02
346.563	9.77
346.775	15.15
346.988	-19.93
347.2	-15.06
347.412	-45.61
347.624	1.8
347.837	8.23
348.049	27.55
348.261	32.75
348.473	49.19
348.685	45.99
348.897	51.03
349.11	42.01
349.322	32.71
349.534	-2.44
349.746	27.1
349.958	15.58
350.17	13.65
350.382	7.56
350.594	27.99
350.806	8.36
351.018	14.13
351.23	25.31
351.442	27.89
351.654	29.74
351.866	20.33
352.078	6.3
352.29	0.55
352.502	25.67
352.714	4.52
352.926	25.27
353.138	32.46
353.35	38.51
353.561	29.86
353.773	35.33
353.985	27.31
354.197	34.78
354.409	21.05
354.621	34.7
354.832	44.28
355.044	35.04
355.256	50.79
355.468	44.14
355.679	32.25
355.891	47.23
356.103	53.5
356.314	45.13
356.526	49.95
356.738	50.71
356.949	25.89
357.161	26.52
357.373	31.13
357.584	67.45
357.796	65.67
358.008	56.39
358.219	42.99
358.431	61.1
358.642	30.78
358.854	39.11
359.065	62.84
359.277	68.5
359.488	37.3
359.7	33.98
359.911	23.88
360.123	5.81
360.334	5.94
360.546	8.09
360.757	12.58
360.969	15.18
361.18	13.09
361.391	9.69
361.603	31.16
361.814	15.48
362.025	22.39
362.237	40.78
362.448	38.27
362.659	28.83
362.871	14.67
363.082	-1.08
363.293	-26.41
363.504	-25.4
363.716	-9.42
363.927	22.02
364.138	22.08
364.349	16.03
364.56	26.44
364.772	20.27
364.983	8.86
365.194	39.26
365.405	30.44
365.616	4.98
365.827	0.52
366.038	19.2
366.25	12.91
366.461	21.25
366.672	32.08
366.883	35.42
367.094	27.28
367.305	29.88
367.516	34.6
367.727	36.63
367.938	35.17
368.149	16.65
368.36	26.51
368.571	12.33
368.781	33.03
368.992	5.56
369.203	30.69
369.414	12.14
369.625	13.09
369.836	-4.28
370.047	-2.29
370.258	-0.98
370.468	3.53
370.679	7.26
370.89	4.37
371.101	16.18
371.312	22.55
371.522	15.2
371.733	20.88
371.944	21.81
372.155	20.99
372.365	-4.84
372.576	10.54
372.787	-5.03
372.997	7.74
373.208	15.1
373.419	35.81
373.629	25.17
373.84	44.12
374.05	30.89
374.261	22.33
374.472	20.77
374.682	-0.71
374.893	6.95
375.103	-5.68
375.314	-2.33
375.524	-12.03
375.735	-1.96
375.945	7.35
376.156	23.92
376.366	27.99
376.577	45.17
376.787	49.96
376.997	37.95
377.208	39.55
377.418	35.73
377.629	25.54
377.839	38.88
378.049	41.01
378.26	36
378.47	40.94
378.68	47.74
378.89	30.07
379.101	24.22
379.311	24.07
379.521	25.96
379.732	28.43
379.942	40.76
380.152	35.43
380.362	38.08
380.572	36.49
380.783	22.87
380.993	16.16
381.203	17.07
381.413	11.79
381.623	13.4
381.833	23.89
382.043	31.86
382.253	40.06
382.463	48.73
382.674	45.22
382.884	35.82
383.094	23.02
383.304	16.64
383.514	17.04
383.724	9.72
383.934	14.39
384.144	17.49
384.353	18.36
384.563	19.77
384.773	28.93
384.983	24.74
385.193	24.46
385.403	26.84
385.613	21.21
385.823	12.34
386.033	12.42
386.242	15.41
386.452	12.05
386.662	14.64
386.872	18.07
387.082	22.55
387.291	9.52
387.501	7.59
387.711	6.71
387.921	4.45
388.13	-1.45
388.34	10.79
388.55	8.95
388.759	6.47
388.969	7.57
389.179	10.87
389.388	8.53
389.598	11.59
389.807	13.98
390.017	14.81
390.227	14.25
390.436	12.39
390.646	9.12
390.855	6.61
391.065	5.96
391.274	5.94
391.484	7.56
391.693	9.15
391.903	8.02
392.112	10.73
392.322	8.67
392.531	7.64
392.74	6.27
392.95	5.65
393.159	2.7
393.369	4.77
393.578	5.62
393.787	7.21
393.997	8.49
394.206	8.8
394.415	8.07
394.625	8.58
394.834	7.59
395.043	7.24
395.252	7.47
395.462	7.55
395.671	6.9
395.88	8.23
396.089	8.24
396.298	8.6
396.508	8.84
396.717	8.51
396.926	8.09
397.135	7.91
397.344	7.4
397.553	7.08
397.762	7.17
397.971	6.7
398.181	6.38
398.39	6.14
398.599	6.3
398.808	6.49
399.017	6.22
399.226	6.86
399.435	7.17
399.644	7.26
399.853	7.28
400.062	7.35
400.27	6.96
400.479	6.67
400.688	6.57
400.897	6.72
401.106	6.71
401.315	6.88
401.524	7.14
401.733	7.08
401.941	6.53
402.15	6.37
402.359	6.25
402.568	5.95
402.777	6.06
402.985	6.29
403.194	6.5
403.403	6.51
403.612	6.61
403.82	6.37
404.029	6.25
404.238	6.31
404.446	6.12
404.655	6.17
404.864	6.08
405.072	6.12
405.281	5.97
405.489	6.09
405.698	5.98
405.906	6.03
406.115	5.96
406.324	6.06
406.532	5.99
406.741	5.98
406.949	5.86
407.158	5.99
407.366	6.05
407.574	6.14
407.783	6.14
407.991	6.14
408.2	6
408.408	5.8
408.617	5.84
408.825	5.85
409.033	5.98
409.242	6
409.45	5.86
409.658	5.65
409.867	5.64
410.075	5.62
410.283	5.62
410.491	5.78
410.7	5.84
410.908	5.82
411.116	5.8
411.324	5.78
411.533	5.67
411.741	5.6
411.949	5.57
412.157	5.52
412.365	5.64
412.573	5.65
412.781	5.74
412.99	5.79
413.198	5.97
413.406	5.86
413.614	5.79
413.822	5.75
414.03	5.7
414.238	5.53
414.446	5.56
414.654	5.64
414.862	5.53
415.07	5.54
415.278	5.56
415.486	5.45
415.694	5.47
415.902	5.58
416.109	5.43
416.317	5.49
416.525	5.42
416.733	5.41
416.941	5.52
417.149	5.65
417.357	5.65
417.564	5.52
417.772	5.38
417.98	5.25
418.188	5.26
418.395	5.08
418.603	5.23
418.811	5.25
419.019	5.37
419.226	5.39
419.434	5.41
419.642	5.41
419.849	5.49
420.057	5.3
420.265	5.41
420.472	5.3
420.68	5.37
420.887	5.3
421.095	5.3
421.302	5.03
421.51	4.99
421.717	4.91
421.925	5
422.132	5.11
422.34	5.18
422.547	5.33
422.755	5.4
422.962	5.41
423.17	5.39
423.377	5.3
423.585	5.49
423.792	5.4
423.999	5.42
424.207	5.27
424.414	5.09
424.621	4.92
424.829	4.93
425.036	4.72
425.243	4.85
425.451	5.15
425.658	5.16
425.865	5.07
426.072	5.29
426.28	5.25
426.487	5.08
426.694	5.01
426.901	5.11
427.108	4.96
427.315	5.05
427.523	5.2
427.73	5.16
427.937	5.18
428.144	5.27
428.351	5.21
428.558	5.27
428.765	5.04
428.972	5.1
429.179	5.05
429.386	4.99
429.593	4.97
429.8	5.17
430.007	5.21
430.214	5.2
430.421	5.26
430.628	5.14
430.835	5.24
431.042	5.17
431.249	5.24
431.456	5.19
431.662	5.32
431.869	5.49
432.076	5.47
432.283	5.48
432.49	5.35
432.697	5.43
432.903	5.09
433.11	4.95
433.317	4.89
433.524	5.12
433.73	4.97
433.937	5.03
434.144	5.23
434.35	5.32
434.557	5.2
434.764	5.19
434.97	5.34
435.177	5.47
435.384	5.19
435.59	5.15
435.797	5.2
436.003	5.19
436.21	4.84
436.416	4.92
436.623	4.94
436.829	5.02
437.036	4.91
437.242	5.07
437.449	5.18
437.655	5.23
437.862	5.23
438.068	5.39
438.275	5.45
438.481	5.38
438.687	5.33
438.894	5.38
439.1	5.25
439.307	5.18
439.513	5.29
439.719	5.38
439.926	5.31
440.132	5.35
440.338	5.42
440.544	5.41
440.751	5.5
440.957	5.45
441.163	5.38
441.369	5.38
441.575	5.21
441.782	5.09
441.988	5.1
442.194	5.09
442.4	5.04
442.606	5.14
442.812	5.05
443.018	4.96
443.224	5.03
443.431	4.97
443.637	4.93
443.843	4.9
444.049	4.87
444.255	4.84
444.461	4.94
444.667	4.95
444.873	5
445.079	5.01
445.284	5.04
445.49	5.04
445.696	5.23
445.902	5.3
446.108	5.32
446.314	5.24
446.52	5.28
446.726	5.12
446.931	5.02
447.137	5.08
447.343	5.17
447.549	5.11
447.755	5.18
447.96	5.34
448.166	5.37
448.372	5.38
448.578	5.41
448.783	5.49
448.989	5.48
449.195	5.51
449.4	5.56
449.606	5.57
449.812	5.53
450.017	5.53
450.223	5.5
450.428	5.49
450.634	5.44
450.84	5.39
451.045	5.37
451.251	5.34
451.456	5.38
451.662	5.47
451.867	5.46
452.073	5.47
452.278	5.46
452.483	5.39
452.689	5.38
452.894	5.41
453.1	5.33
453.305	5.33
453.51	5.37
453.716	5.42
453.921	5.54
454.127	5.67
454.332	5.7
454.537	5.72
454.742	5.69
454.948	5.51
455.153	5.46
455.358	5.42
455.563	5.44
455.769	5.33
455.974	5.37
456.179	5.26
456.384	5.24
456.589	5.21
456.795	5.23
457	5.28
457.205	5.37
457.41	5.45
457.615	5.45
457.82	5.49
458.025	5.4
458.23	5.37
458.435	5.33
458.64	5.23
458.845	5.39
459.05	5.36
459.255	5.32
459.46	5.37
459.665	5.56
459.87	5.38
460.075	5.52
460.28	5.7
460.485	5.6
460.69	5.51
460.895	5.49
461.099	5.46
461.304	5.34
461.509	5.43
461.714	5.43
461.919	5.48
462.123	5.49
462.328	5.56
462.533	5.57
462.738	5.72
462.942	5.7
463.147	5.74
463.352	5.79
463.556	5.82
463.761	5.64
463.966	5.75
464.17	5.83
464.375	5.83
464.58	5.74
464.784	5.87
464.989	5.97
465.193	5.89
465.398	6.02
465.602	6.22
465.807	6.28
466.011	6.23
466.216	6.17
466.42	6.06
466.625	6.03
466.829	5.99
467.034	6.05
467.238	6.11
467.443	5.98
467.647	5.8
467.851	5.76
468.056	5.65
468.26	5.68
468.464	5.75
468.669	5.98
468.873	5.91
469.077	5.82
469.282	5.86
469.486	5.8
469.69	5.63
469.894	5.7
470.099	5.78
470.303	5.73
470.507	5.83
470.711	5.91
470.915	5.91
471.119	5.97
471.324	5.96
471.528	5.87
471.732	5.89
471.936	5.87
472.14	5.8
472.344	5.8
472.548	5.93
472.752	5.92
472.956	5.94
473.16	6.07
473.364	6.04
473.568	5.93
473.772	5.96
473.976	5.91
474.18	5.71
474.384	5.8
474.588	5.87
474.792	5.84
474.995	5.93
475.199	6
475.403	5.9
475.607	5.9
475.811	5.92
476.015	5.76
476.218	5.78
476.422	5.83
476.626	5.87
476.83	5.83
477.033	5.97
477.237	6.09
477.441	6.09
477.644	6.15
477.848	6.18
478.052	6.14
478.255	6.02
478.459	6.01
478.663	5.92
478.866	5.85
479.07	5.89
479.273	5.84
479.477	5.84
479.681	5.85
479.884	5.85
480.088	5.78
480.291	5.89
480.495	5.83
480.698	5.86
480.901	5.91
481.105	5.99
481.308	5.89
481.512	5.97
481.715	6
481.919	6.03
482.122	6.05
482.325	6.14
482.529	6.19
482.732	6.13
482.935	6.08
483.138	6.15
483.342	6
483.545	5.96
483.748	6
483.952	5.94
484.155	5.92
484.358	5.94
484.561	5.92
484.764	5.85
484.967	5.96
485.171	5.85
485.374	5.92
485.577	5.99
485.78	6.07
485.983	6.02
486.186	6.12
486.389	6.12
486.592	6.1
486.795	6.03
486.998	6
487.201	5.97
487.404	5.95
487.607	6.06
487.81	6.09
488.013	6.08
488.216	6.14
488.419	6.18
488.622	6.02
488.825	6.04
489.028	6.04
489.231	6.08
489.433	6.1
489.636	6.13
489.839	6.11
490.042	6.17
490.245	6.06
490.447	6.02
490.65	6.05
490.853	6.08
491.056	6.08
491.258	6.14
491.461	6.18
491.664	6.11
491.866	6.08
492.069	6.12
492.272	6.06
492.474	6.06
492.677	6.15
492.879	6.19
493.082	6.19
493.285	6.27
493.487	6.24
493.69	6.3
493.892	6.33
494.095	6.42
494.297	6.41
494.5	6.52
494.702	6.46
494.905	6.46
495.107	6.37
495.309	6.33
495.512	6.25
495.714	6.34
495.917	6.42
496.119	6.52
496.321	6.62
496.524	6.68
496.726	6.7
496.928	6.61
497.13	6.57
497.333	6.57
497.535	6.69
497.737	6.68
497.939	6.75
498.142	6.83
498.344	6.82
498.546	6.8
498.748	6.84
498.95	6.93
499.152	6.85
499.355	6.93
499.557	6.95
499.759	7.06
499.961	7.02
500.163	7.07
500.365	7.13
500.567	7.08
500.769	6.99
500.971	7.07
501.173	7.08
501.375	6.98
501.577	7.02
501.779	7.11
501.981	7.16
502.183	7.25
502.385	7.24
502.587	7.25
502.788	7.17
502.99	7.09
503.192	7.06
503.394	7.12
503.596	7.04
503.798	7.08
503.999	7.13
504.201	7.08
504.403	7.09
504.605	7.2
504.806	7.14
505.008	7.1
505.21	7.09
505.411	6.98
505.613	6.86
505.815	6.87
506.016	6.81
506.218	6.88
506.42	6.96
506.621	6.99
506.823	7.02
507.024	7.01
507.226	7.02
507.427	6.99
507.629	6.95
507.83	6.93
508.032	6.92
508.233	6.86
508.435	6.84
508.636	6.92
508.838	6.87
509.039	6.9
509.24	6.89
509.442	6.93
509.643	6.84
509.845	6.87
510.046	6.83
510.247	6.89
510.448	6.85
510.65	6.89
510.851	6.89
511.052	6.9
511.254	6.83
511.455	6.82
511.656	6.74
511.857	6.75
512.058	6.7
512.26	6.65
512.461	6.65
512.662	6.72
512.863	6.63
513.064	6.66
513.265	6.6
513.466	6.6
513.667	6.54
513.868	6.57
514.069	6.59
514.27	6.59
514.471	6.49
514.672	6.48
514.873	6.38
515.074	6.29
515.275	6.32
515.476	6.34
515.677	6.29
515.878	6.33
516.079	6.34
516.28	6.34
516.481	6.35
516.682	6.39
516.882	6.48
517.083	6.45
517.284	6.43
517.485	6.43
517.686	6.43
517.886	6.38
518.087	6.37
518.288	6.36
518.488	6.32
518.689	6.3
518.89	6.26
519.091	6.27
519.291	6.24
519.492	6.27
519.692	6.3
519.893	6.34
520.094	6.35
520.294	6.36
520.495	6.36
520.695	6.28
520.896	6.2
521.096	6.2
521.297	6.25
521.497	6.25
521.698	6.29
521.898	6.31
522.099	6.3
522.299	6.3
522.499	6.29
522.7	6.21
522.9	6.24
523.101	6.19
523.301	6.18
523.501	6.13
523.702	6.2
523.902	6.19
524.102	6.25
524.302	6.24
524.503	6.23
524.703	6.22
524.903	6.25
525.103	6.27
525.304	6.26
525.504	6.34
525.704	6.27
525.904	6.21
526.104	6.15
526.304	6.2
526.504	6.14
526.705	6.17
526.905	6.2
527.105	6.2
527.305	6.21
527.505	6.26
527.705	6.27
527.905	6.26
528.105	6.26
528.305	6.18
528.505	6.11
528.705	6.15
528.905	6.07
529.105	6.06
529.304	6.06
529.504	6.15
529.704	6.1
529.904	6.16
530.104	6.19
530.304	6.23
530.503	6.11
530.703	6.12
530.903	6.14
531.103	6.1
531.303	6.09
531.502	6.17
531.702	6.15
531.902	6.21
532.101	6.21
532.301	6.18
532.501	6.2
532.7	6.26
532.9	6.21
533.1	6.23
533.299	6.23
533.499	6.22
533.698	6.17
533.898	6.15
534.097	6.12
534.297	6.14
534.496	6.08
534.696	6.13
534.895	6.2
535.095	6.22
535.294	6.3
535.494	6.29
535.693	6.23
535.892	6.19
536.092	6.24
536.291	6.2
536.491	6.25
536.69	6.35
536.889	6.29
537.088	6.19
537.288	6.17
537.487	6.15
537.686	6.11
537.886	6.21
538.085	6.31
538.284	6.3
538.483	6.33
538.682	6.4
538.882	6.36
539.081	6.33
539.28	6.38
539.479	6.37
539.678	6.34
539.877	6.34
540.076	6.38
540.275	6.38
540.474	6.34
540.673	6.33
540.872	6.35
541.071	6.35
541.27	6.36
541.469	6.4
541.668	6.4
541.867	6.44
542.066	6.5
542.265	6.57
542.464	6.61
542.663	6.65
542.862	6.73
543.06	6.71
543.259	6.7
543.458	6.72
543.657	6.78
543.856	6.74
544.054	6.77
544.253	6.73
544.452	6.72
544.651	6.69
544.849	6.65
545.048	6.58
545.247	6.61
545.445	6.68
545.644	6.66
545.843	6.7
546.041	6.74
546.24	6.78
546.438	6.75
546.637	6.77
546.836	6.81
547.034	6.87
547.233	6.87
547.431	6.91
547.63	7.01
547.828	7.06
548.027	7.01
548.225	6.99
548.423	6.98
548.622	6.98
548.82	6.94
549.019	7.02
549.217	7.01
549.415	7.06
549.614	7.06
549.812	7.05
550.01	7.1
550.209	7.2
550.407	7.29
550.605	7.3
550.803	7.35
551.002	7.38
551.2	7.39
551.398	7.46
551.596	7.53
551.794	7.6
551.993	7.64
552.191	7.68
552.389	7.59
552.587	7.5
552.785	7.51
552.983	7.56
553.181	7.6
553.379	7.66
553.577	7.83
553.775	7.88
553.973	7.86
554.171	7.89
554.369	7.9
554.567	7.94
554.765	7.99
554.963	8.08
555.161	8.07
555.359	8.16
555.557	8.14
555.755	8.18
555.952	8.2
556.15	8.27
556.348	8.31
556.546	8.4
556.744	8.39
556.941	8.41
557.139	8.45
557.337	8.45
557.535	8.44
557.732	8.48
557.93	8.56
558.128	8.56
558.325	8.64
558.523	8.7
558.721	8.74
558.918	8.72
559.116	8.79
559.313	8.83
559.511	8.98
559.708	9.06
559.906	9.14
560.104	9.19
560.301	9.34
560.498	9.25
560.696	9.34
560.893	9.39
561.091	9.51
561.288	9.48
561.486	9.5
561.683	9.47
561.88	9.42
562.078	9.44
562.275	9.41
562.473	9.53
562.67	9.61
562.867	9.7
563.064	9.68
563.262	9.72
563.459	9.79
563.656	9.79
563.853	9.8
564.051	9.81
564.248	9.85
564.445	9.77
564.642	9.82
564.839	9.85
565.036	9.98
565.234	10.05
565.431	10.16
565.628	10.15
565.825	10.19
566.022	10.27
566.219	10.32
566.416	10.3
566.613	10.37
566.81	10.48
567.007	10.39
567.204	10.3
567.401	10.39
567.598	10.42
567.795	10.42
567.991	10.44
568.188	10.49
568.385	10.44
568.582	10.47
568.779	10.4
568.976	10.53
569.172	10.6
569.369	10.71
569.566	10.75
569.763	10.81
569.96	10.77
570.156	10.83
570.353	10.78
570.55	10.84
570.746	10.82
570.943	10.83
571.14	10.83
571.336	10.87
571.533	10.79
571.729	10.88
571.926	10.87
572.123	10.84
572.319	10.89
572.516	10.9
572.712	10.84
572.909	10.83
573.105	10.85
573.302	10.81
573.498	10.81
573.695	10.8
573.891	10.82
574.087	10.8
574.284	10.79
574.48	10.83
574.677	10.85
574.873	10.84
575.069	10.87
575.266	10.94
575.462	10.91
575.658	10.99
575.854	11.08
576.051	11.02
576.247	10.91
576.443	10.98
576.639	10.96
576.835	10.8
577.032	10.8
577.228	10.86
577.424	10.76
577.62	10.69
577.816	10.69
578.012	10.75
578.208	10.73
578.404	10.82
578.6	10.79
578.796	10.81
578.993	10.82
579.189	10.78
579.384	10.72
579.58	10.75
579.776	10.79
579.972	10.59
580.168	10.57
580.364	10.61
580.56	10.55
580.756	10.43
580.952	10.53
581.148	10.57
581.343	10.55
581.539	10.62
581.735	10.65
581.931	10.64
582.127	10.59
582.322	10.48
582.518	10.41
582.714	10.44
582.909	10.41
583.105	10.39
583.301	10.47
583.496	10.5
583.692	10.46
583.888	10.41
584.083	10.37
584.279	10.3
584.474	10.27
584.67	10.22
584.866	10.24
585.061	10.26
585.257	10.29
585.452	10.21
585.648	10.24
585.843	10.26
586.039	10.31
586.234	10.27
586.429	10.26
586.625	10.29
586.82	10.25
587.015	10.08
587.211	10.05
587.406	10.01
587.601	9.97
587.797	9.96
587.992	9.97
588.187	10
588.383	10.11
588.578	10.16
588.773	10.13
588.968	10.24
589.163	10.24
589.359	10.19
589.554	10.06
589.749	10.08
589.944	10.02
590.139	10
590.334	9.96
590.529	10.06
590.724	10.17
590.919	10.21
591.114	10.31
591.309	10.34
591.504	10.37
591.699	10.25
591.894	10.17
592.089	10.11
592.284	10.09
592.479	10.1
592.674	10.12
592.869	10.15
593.064	10.2
593.259	10.24
593.454	10.21
593.648	10.29
593.843	10.34
594.038	10.35
594.233	10.35
594.428	10.43
594.622	10.46
594.817	10.49
595.012	10.47
595.206	10.65
595.401	10.66
595.596	10.53
595.79	10.55
595.985	10.61
596.18	10.52
596.374	10.52
596.569	10.72
596.763	10.79
596.958	10.9
597.153	10.86
597.347	10.94
597.542	11.02
597.736	11.12
597.931	11.08
598.125	11.16
598.319	11.19
598.514	11.09
598.708	11.01
598.903	10.98
599.097	11.08
599.291	11.08
599.486	11.14
599.68	11.17
599.874	11.25
600.069	11.24
600.263	11.32
600.457	11.38
600.651	11.4
600.846	11.41
601.04	11.34
601.234	11.26
601.428	11.19
601.622	11.22
601.817	11.21
602.011	11.32
602.205	11.32
602.399	11.36
602.593	11.29
602.787	11.28
602.981	11.24
603.175	11.3
603.369	11.23
603.563	11.31
603.757	11.31
603.951	11.3
604.145	11.26
604.339	11.38
604.533	11.25
604.727	11.34
604.921	11.36
605.115	11.37
605.309	11.21
605.502	11.33
605.696	11.16
605.89	11.05
606.084	10.99
606.278	11.07
606.471	10.98
606.665	11.01
606.859	10.92
607.053	10.93
607.246	10.87
607.44	10.85
607.634	10.81
607.827	10.83
608.021	10.65
608.214	10.63
608.408	10.61
608.602	10.68
608.795	10.74
608.989	10.8
609.182	10.82
609.376	10.78
609.569	10.7
609.763	10.61
609.956	10.66
610.15	10.57
610.343	10.53
610.537	10.44
610.73	10.48
610.923	10.42
611.117	10.39
611.31	10.33
611.504	10.35
611.697	10.3
611.89	10.15
612.083	10.13
612.277	10.07
612.47	9.94
612.663	9.74
612.856	9.74
613.05	9.69
613.243	9.71
613.436	9.69
613.629	9.73
613.822	9.72
614.015	9.61
614.209	9.45
614.402	9.47
614.595	9.5
614.788	9.42
614.981	9.33
615.174	9.38
615.367	9.32
615.56	9.15
615.753	9.14
615.946	9.24
616.139	9.23
616.332	9.27
616.525	9.3
616.718	9.24
616.911	9.25
617.103	9.2
617.296	9.17
617.489	9.18
617.682	9.19
617.875	9.16
618.067	9.07
618.26	8.96
618.453	8.87
618.646	8.83
618.838	8.75
619.031	8.75
619.224	8.76
619.417	8.87
619.609	8.9
619.802	8.93
619.994	8.96
620.187	8.95
620.38	8.87
620.572	8.79
620.765	8.78
620.957	8.78
621.15	8.73
621.342	8.66
621.535	8.68
621.727	8.56
621.92	8.5
622.112	8.51
622.305	8.56
622.497	8.53
622.69	8.52
622.882	8.54
623.074	8.52
623.267	8.5
623.459	8.45
623.651	8.5
623.844	8.43
624.036	8.45
624.228	8.45
624.42	8.45
624.613	8.43
624.805	8.47
624.997	8.47
625.189	8.42
625.381	8.46
625.574	8.48
625.766	8.45
625.958	8.34
626.15	8.38
626.342	8.27
626.534	8.25
626.726	8.25
626.918	8.25
627.11	8.19
627.302	8.22
627.494	8.17
627.686	8.16
627.878	8.16
628.07	8.13
628.262	8.11
628.454	8.03
628.646	8.02
628.838	8.07
629.029	8.07
629.221	8.03
629.413	8.02
629.605	7.96
629.797	7.91
629.989	7.92
630.18	7.94
630.372	7.86
630.564	7.93
630.755	7.8
630.947	7.84
631.139	7.81
631.33	7.84
631.522	7.79
631.714	7.86
631.905	7.75
632.097	7.74
632.289	7.79
632.48	7.72
632.672	7.66
632.863	7.68
633.055	7.65
633.246	7.61
633.438	7.57
633.629	7.56
633.821	7.49
634.012	7.45
634.203	7.45
634.395	7.5
634.586	7.62
634.777	7.68
634.969	7.69
635.16	7.77
635.351	7.76
635.543	7.67
635.734	7.58
635.925	7.56
636.117	7.58
636.308	7.56
636.499	7.47
636.69	7.48
636.881	7.59
637.073	7.5
637.264	7.54
637.455	7.6
637.646	7.68
637.837	7.56
638.028	7.49
638.219	7.41
638.41	7.42
638.601	7.33
638.792	7.4
638.983	7.39
639.174	7.36
639.365	7.34
639.556	7.34
639.747	7.32
639.938	7.39
640.129	7.47
640.32	7.44
640.511	7.51
640.701	7.44
640.892	7.41
641.083	7.38
641.274	7.33
641.465	7.21
641.655	7.2
641.846	7.24
642.037	7.23
642.228	7.21
642.418	7.25
642.609	7.24
642.8	7.17
642.99	7.07
643.181	7.14
643.372	7.09
643.562	7.04
643.753	7.02
643.943	7.08
644.134	7.02
644.324	7.15
644.515	7.24
644.705	7.25
644.896	7.32
645.086	7.28
645.277	7.2
645.467	7.22
645.658	7.2
645.848	6.99
646.038	7.07
646.229	7.07
646.419	6.95
646.61	7
646.8	7.15
646.99	7.14
647.18	7.09
647.371	7.08
647.561	7.04
647.751	7.04
647.941	6.95
648.132	6.97
648.322	7.02
648.512	6.98
648.702	6.97
648.892	7.02
649.082	7.07
649.272	7
649.462	7.01
649.653	6.98
649.843	6.98
650.033	6.92
650.223	6.91
650.413	6.93
650.603	6.98
650.793	6.88
650.983	6.86
651.172	6.9
651.362	6.88
651.552	6.78
651.742	6.79
651.932	6.86
652.122	6.85
652.312	6.83
652.502	6.9
652.691	6.94
652.881	6.92
653.071	6.99
653.261	6.85
653.45	6.76
653.64	6.71
653.83	6.69
654.019	6.6
654.209	6.63
654.399	6.65
654.588	6.56
654.778	6.53
654.968	6.38
655.157	6.39
655.347	6.39
655.536	6.38
655.726	6.21
655.915	6.33
656.105	6.3
656.294	6.15
656.484	6.15
656.673	6.14
656.863	6.09
657.052	6.02
657.241	5.97
657.431	5.93
657.62	5.91
657.809	5.82
657.999	5.88
658.188	5.89
658.377	5.94
658.567	5.87
658.756	5.81
658.945	5.69
659.134	5.64
659.324	5.58
659.513	5.58
659.702	5.53
659.891	5.53
660.08	5.48
660.269	5.4
660.458	5.35
660.648	5.42
660.837	5.29
661.026	5.14
661.215	5.06
661.404	5.12
661.593	4.98
661.782	4.88
661.971	5.01
662.16	5.03
662.349	4.9
662.538	4.9
662.726	4.95
662.915	4.92
663.104	4.87
663.293	4.89
663.482	4.91
663.671	4.99
663.86	4.94
664.048	5.03
664.237	5.1
664.426	5.05
664.615	4.88
664.803	4.86
664.992	4.7
665.181	4.58
665.369	4.59
665.558	4.65
665.747	4.72
665.935	4.82
666.124	4.89
666.312	4.88
666.501	5
666.69	5
666.878	4.95
667.067	4.88
667.255	5.04
667.444	5.09
667.632	5.23
667.82	5.34
668.009	5.41
668.197	5.37
668.386	5.25
668.574	5.04
668.762	5.12
668.951	5.27
669.139	5.14
669.327	5.25
669.516	5.44
669.704	5.35
669.892	5.26
670.08	5.37
670.269	5.29
670.457	5.2
670.645	5.17
670.833	5.14
671.021	5.25
671.21	5.41
671.398	5.44
671.586	5.49
671.774	5.71
671.962	5.74
672.15	5.83
672.338	5.97
672.526	6.14
672.714	6.17
672.902	6.06
673.09	5.91
673.278	6.03
673.466	6.15
673.654	6.28
673.842	6.51
674.03	6.75
674.218	6.71
674.405	6.62
674.593	6.58
674.781	6.57
674.969	6.45
675.157	6.59
675.344	6.57
675.532	6.61
675.72	6.68
675.908	6.79
676.095	6.67
676.283	6.8
676.471	6.72
676.658	6.65
676.846	6.62
677.033	6.74
677.221	6.73
677.409	6.75
677.596	6.92
677.784	7
677.971	7.07
678.159	7.19
678.346	7.33
678.534	7.3
678.721	7.4
678.909	7.41
679.096	7.38
679.283	7.32
679.471	7.37
679.658	7.3
679.846	7.24
680.033	7.42
680.22	7.51
680.408	7.4
680.595	7.52
680.782	7.53
680.969	7.43
681.157	7.37
681.344	7.6
681.531	7.76
681.718	7.99
681.905	8.07
682.093	8.15
682.28	8.25
682.467	8.22
682.654	8.13
682.841	8.09
683.028	8.18
683.215	8.16
683.402	8.09
683.589	8.12
683.776	8.24
683.963	8.32
684.15	8.45
684.337	8.71
684.524	8.86
684.711	8.98
684.898	8.98
685.085	8.8
685.271	8.87
685.458	8.9
685.645	8.75
685.832	8.78
686.019	8.9
686.205	8.86
686.392	8.98
686.579	9.21
686.766	9.42
686.952	9.48
687.139	9.6
687.326	9.47
687.512	9.48
687.699	9.55
687.886	9.85
688.072	9.91
688.259	10.29
688.445	10.56
688.632	10.49
688.818	10.59
689.005	10.65
689.191	10.72
689.378	10.94
689.564	11.3
689.751	11.26
689.937	11.51
690.124	11.72
690.31	11.77
690.496	12.09
690.683	12.46
690.869	12.69
691.055	12.86
691.242	13.16
691.428	13.27
691.614	13.43
691.8	13.73
691.987	14.08
692.173	14.46
692.359	14.79
692.545	15.25
692.731	15.45
692.918	15.72
693.104	16.07
693.29	16.24
693.476	16.57
693.662	17
693.848	17.36
694.034	17.52
694.22	18.21
694.406	18.44
694.592	18.78
694.778	19.12
694.964	19.66
695.15	19.79
695.336	20.11
695.522	20.54
695.708	20.97
695.894	21.25
696.08	21.61
696.265	22.07
696.451	22.54
696.637	22.93
696.823	23.42
697.009	23.87
697.194	24.18
697.38	24.56
697.566	24.97
697.751	25.29
697.937	25.71
698.123	26.33
698.308	26.69
698.494	27.08
698.68	27.65
698.865	28.06
699.051	28.54
699.236	29.16
699.422	29.69
699.607	30.18
699.793	30.82
699.978	31.25
700.164	31.57
700.349	32.11
700.535	32.13
700.72	32.33
700.906	32.78
701.091	33.26
701.276	33.75
701.462	34.24
701.647	35.06
701.832	35.48
702.018	36.07
702.203	36.45
702.388	37.07
702.573	37.28
702.759	37.82
702.944	38.08
703.129	38.21
703.314	38.84
703.499	39.14
703.684	39.46
703.87	39.78
704.055	40.45
704.24	40.77
704.425	41.4
704.61	41.72
704.795	42.14
704.98	42.44
705.165	42.71
705.35	42.8
705.535	43.2
705.72	43.44
705.905	43.66
706.09	44.03
706.275	44.33
706.459	44.67
706.644	45.06
706.829	45.67
707.014	46.1
707.199	46.76
707.384	46.72
707.568	46.72
707.753	47
707.938	47.2
708.123	47.36
708.307	48.06
708.492	48.7
708.677	48.45
708.861	48.53
709.046	48.46
709.231	48.55
709.415	48.69
709.6	49.15
709.784	49.65
709.969	50.26
710.153	50.67
710.338	51.06
710.522	51.39
710.707	51.2
710.891	50.98
711.076	51
711.26	51.34
711.445	51.95
711.629	52.65
711.813	53.39
711.998	53.73
712.182	53.43
712.366	53.13
712.551	53.01
712.735	52.97
712.919	53.33
713.103	53.75
713.288	54.18
713.472	54.71
713.656	55.13
713.84	55.33
714.024	56.04
714.208	55.99
714.393	55.94
714.577	55.77
714.761	55.58
714.945	55.66
715.129	56.14
715.313	56.39
715.497	56.73
715.681	56.94
715.865	56.91
716.049	56.74
716.233	56.62
716.417	56.83
716.601	56.96
716.785	57.16
716.968	57.42
717.152	57.74
717.336	58.12
717.52	58.42
717.704	58.35
717.888	58.69
718.071	59.51
718.255	59.34
718.439	59.67
718.622	59.8
718.806	59.78
718.99	59.25
719.174	59.02
719.357	58.99
719.541	59.44
719.724	59.57
719.908	59.84
720.092	60.75
720.275	61.05
720.459	61.28
720.642	61.53
720.826	61.59
721.009	61.53
721.193	61.25
721.376	60.95
721.559	61.43
721.743	61.87
721.926	62
722.11	62.37
722.293	62.57
722.476	62.42
722.66	62.48
722.843	62.49
723.026	62.76
723.21	62.65
723.393	62.35
723.576	62.07
723.759	62.11
723.942	62.01
724.126	62.65
724.309	63.52
724.492	64.49
724.675	64.69
724.858	65.23
725.041	64.79
725.224	64.24
725.407	64.05
725.59	64.74
725.774	64.83
725.957	65.53
726.14	65.97
726.322	66.03
726.505	65.81
726.688	65.95
726.871	65.95
727.054	65.99
727.237	65.99
727.42	66.85
727.603	67.07
727.786	67.53
727.968	67.91
728.151	67.91
728.334	67.53
728.517	67.64
728.699	67.9
728.882	68.12
729.065	68.95
729.248	68.39
729.43	68.37
729.613	68.37
729.796	69.21
729.978	69.42
730.161	70.18
730.343	71.13
730.526	71.14
730.708	70.48
730.891	70.18
731.073	70.37
731.256	69.85
731.438	70.06
731.621	70.35
731.803	70.97
731.986	72.01
732.168	72.96
732.35	73.45
732.533	74.29
732.715	73.91
732.898	73.65
733.08	74.06
733.262	74.41
733.444	74.01
733.627	74.77
733.809	74.17
733.991	72.91
734.173	72.65
734.355	72.88
734.538	73.21
734.72	73.86
734.902	75.03
735.084	75.35
735.266	75.03
735.448	75.03
735.63	75.54
735.812	75.1
735.994	74.64
736.176	75.2
736.358	75.47
736.54	75.84
736.722	75.5
736.904	76.66
737.086	76.85
737.268	76.47
737.45	76.45
737.632	77.78
737.814	77.08
737.995	78.08
738.177	78.58
738.359	77.74
738.541	77.4
738.723	78.17
738.904	77.07
739.086	77.21
739.268	78.37
739.449	79.52
739.631	80.19
739.813	80.76
739.994	81.48
740.176	82.08
740.358	82.03
740.539	82.18
740.721	82.22
740.902	81.98
741.084	82.57
741.265	82.19
741.447	82.11
741.628	82.46
741.81	82.34
741.991	82
742.172	82.21
742.354	82.21
742.535	82.17
742.717	82.34
742.898	81.88
743.079	82.34
743.261	81.8
743.442	82.33
743.623	83.29
743.804	83.26
743.986	82.55
744.167	82.23
744.348	82.31
744.529	81.44
744.71	81.72
744.891	81.98
745.073	82.18
745.254	83.44
745.435	83.94
745.616	83.41
745.797	84.05
745.978	84.97
746.159	83.49
746.34	83
746.521	83.48
746.702	83.63
746.883	83.81
747.064	83.73
747.245	84
747.426	84.82
747.606	83.92
747.787	83.12
747.968	84.35
748.149	84.08
748.33	83.19
748.51	83.49
748.691	83.44
748.872	82.46
749.053	83.03
749.233	83.53
749.414	84.13
749.595	85.15
749.775	85.18
749.956	84.67
750.137	84.59
750.317	82.32
750.498	82.35
750.678	82.33
750.859	84.02
751.04	83.74
751.22	85.13
751.4	85.09
751.581	84.69
751.761	84.23
751.942	84.86
752.122	85.9
752.303	86.11
752.483	87.79
752.663	86.98
752.844	86.35
753.024	86.48
753.204	87.57
753.385	86.78
753.565	86.77
753.745	86.76
753.925	87.6
754.106	85.81
754.286	85.58
754.466	85.81
754.646	85.98
754.826	85.81
755.006	86.05
755.187	87.74
755.367	88.71
755.547	87.92
755.727	86.26
755.907	85.79
756.087	84.72
756.267	83.8
756.447	84.94
756.627	84.96
756.807	86.41
756.987	86.73
757.167	86.87
757.346	86.8
757.526	87.52
757.706	87.54
757.886	87
758.066	86.75
758.246	86.76
758.425	86.24
758.605	84.57
758.785	86.82
758.965	87.56
759.144	87.37
759.324	88.21
759.504	89.25
759.683	88.15
759.863	86.51
760.043	87.08
760.222	87.57
760.402	86.62
760.581	87.18
760.761	87.67
760.94	87.17
761.12	85.28
761.299	86
761.479	82.41
761.658	82.8
761.838	81.25
762.017	81.49
762.197	81.64
762.376	85.47
762.555	84.75
762.735	85.83
762.914	84.18
763.093	84.25
763.273	82.31
763.452	81.79
763.631	81.12
763.81	82.45
763.99	83.45
764.169	83.84
764.348	83.37
764.527	84.46
764.706	85.66
764.885	83.71
765.064	82.7
765.243	85.14
765.423	82.63
765.602	81.6
765.781	82.52
765.96	80.66
766.139	79.39
766.318	80.93
766.497	82.3
766.676	80.71
766.854	82.53
767.033	82.44
767.212	82.22
767.391	81.98
767.57	82.61
767.749	84.4
767.928	85.79
768.106	84.74
768.285	81.93
768.464	81.86
768.643	79.23
768.821	77.34
769	78.91
769.179	79.95
769.357	80.08
769.536	82.58
769.715	83.38
769.893	82.17
770.072	83.62
770.25	82.46
770.429	81.41
770.607	78.3
770.786	81.12
770.964	80.07
771.143	82.61
771.321	80.6
771.5	87.6
771.678	87.08
771.857	86.29
772.035	85.16
772.213	85.83
772.392	81.16
772.57	81.13
772.748	81.98
772.927	82.83
773.105	82.77
773.283	84.88
773.461	82.82
773.64	83
773.818	82.04
773.996	82.58
774.174	81.74
774.352	82.39
774.531	80.59
774.709	79.76
774.887	80.69
775.065	79.28
775.243	81.1
775.421	82.28
775.599	84.01
775.777	82.33
775.955	81.5
776.133	82.22
776.311	83.38
776.489	80.96
776.667	80.36
776.844	84.37
777.022	81.53
777.2	82.55
777.378	82.89
777.556	83.41
777.734	80.44
777.911	81.51
778.089	79.18
778.267	81.31
778.445	81.97
778.622	81.91
778.8	80.99
778.978	81.21
779.155	78.91
779.333	76.78
779.511	70.86
779.688	70.24
779.866	66.83
780.043	65.05
780.221	66.47
780.398	72.44
780.576	70.68
780.753	73.03
780.931	74.63
781.108	77.53
781.286	78.79
781.463	80.15
781.64	81.59
781.818	84.01
781.995	82.11
782.172	79.84
782.35	81.81
782.527	80.17
782.704	79.02
782.882	77.7
783.059	78.11
783.236	76.82
783.413	79.78
783.59	78.36
783.768	75.79
783.945	78.78
784.122	80.03
784.299	78.52
784.476	79.05
784.653	84.35
784.83	81.41
785.007	81.42
785.184	82.2
785.361	82.47
785.538	81.68
785.715	81.19
785.892	80.11
786.069	81.58
786.246	82.41
786.423	81.3
786.6	81.92
786.776	79.26
786.953	76.63
787.13	75.84
787.307	77.05
787.484	75.82
787.66	79.93
787.837	76.81
788.014	75.28
788.191	74.82
788.367	75.87
788.544	79.64
788.721	83.13
788.897	83.56
789.074	82.75
789.25	83.95
789.427	79
789.603	85.57
789.78	89.36
789.956	89.28
790.133	88.33
790.309	89.4
790.486	80.83
790.662	80.02
790.839	76.62
791.015	79.33
791.192	76.46
791.368	79.28
791.544	77.01
791.721	79.52
791.897	80.31
792.073	80.55
792.249	75.15
792.426	77.08
792.602	77.91
792.778	74.89
792.954	78.14
793.13	82.33
793.307	81.73
793.483	78.66
793.659	77.25
793.835	80.17
794.011	80.01
794.187	71.08
794.363	73.63
794.539	72.83
794.715	64.24
794.891	61.85
795.067	66.51
795.243	68.18
795.419	69.28
795.595	75.34
795.771	75.37
795.947	80.35
796.122	73.32
796.298	77.59
796.474	74.9
796.65	73.98
796.826	71.04
797.001	81.08
797.177	79.09
797.353	76.1
797.529	73.78
797.704	76.89
797.88	72.36
798.056	68.18
798.231	72.22
798.407	77.75
798.582	78.4
798.758	81.79
798.934	87.54
799.109	89.24
799.285	86.76
799.46	82.77
799.636	82.19
799.811	81.49
799.986	84.21
800.162	92.38
800.337	94.67
800.513	86.73
800.688	87.03
800.863	83.94
801.039	78.66
801.214	72.93
801.389	82.19
801.565	84.66
801.74	81.82
801.915	79.69
802.09	82.77
802.265	78.3
802.441	82.03
802.616	86.04
802.791	84.29
802.966	86.34
803.141	87.65
803.316	71.72
803.491	60.82
803.666	61.58
803.841	68.59
804.016	68.46
804.191	75.22
804.366	88.03
804.541	88.93
804.716	80.01
804.891	77.73
805.066	74.84
805.241	78.7
805.416	81.48
805.591	84.85
805.765	89.96
805.94	92.46
806.115	83.06
806.29	78.47
806.464	84.16
806.639	77.36
806.814	74.08
806.989	69.3
807.163	81.15
807.338	76.97
807.512	74.6
807.687	71.97
807.862	67.98
808.036	59.95
808.211	61.01
808.385	56.42
808.56	55.08
808.734	59.09
808.909	59.34
809.083	49.25
809.258	58.22
809.432	65.67
809.606	63.1
809.781	65.86
809.955	74.88
810.13	75.49
810.304	72.5
810.478	69.79
810.652	66.45
810.827	65.05
811.001	61.64
811.175	70.37
811.349	78.34
811.524	88.93
811.698	89.28
811.872	83.21
812.046	79.14
812.22	80.63
812.394	67.62
812.568	73.33
812.742	83.77
812.916	84.08
813.09	96.2
813.264	109.85
813.438	107.95
813.612	106.22
813.786	88.21
813.96	67.38
814.134	72.32
814.308	72.43
814.482	71.87
814.656	95.46
814.83	94.86
815.003	88.14
815.177	86.49
815.351	82.72
815.525	70.41
815.698	77.8
815.872	65.28
816.046	61.39
816.219	63.1
816.393	77.79
816.567	78.44
816.74	90.2
816.914	101.45
817.088	98.45
817.261	87.65
817.435	85.23
817.608	89.82
817.782	79.92
817.955	100.33
818.129	108.08
818.302	93.21
818.475	93.48
818.649	92.84
818.822	76.57
818.996	63.86
819.169	70.43
819.342	77.24
819.516	81.63
819.689	88.18
819.862	94.87
820.035	100.17
820.209	83.62
820.382	81.04
820.555	68.58
820.728	76.92
820.901	62.5
821.075	82.94
821.248	89.34
821.421	90.72
821.594	81.88
821.767	90.34
821.94	69.77
822.113	52.03
822.286	44.15
822.459	40.48
822.632	36.5
822.805	75.08
822.978	80.87
823.151	98.43
823.324	106.12
823.496	76.73
823.669	36.69
823.842	57.97
824.015	42.36
824.188	43.29
824.361	64.21
824.533	85.14
824.706	55.81
824.879	67.6
825.051	61.33
825.224	73.35
825.397	66.99
825.569	73.04
825.742	80.48
825.915	71.15
826.087	61.34
826.26	56.94
826.432	58
826.605	34.15
826.777	34.37
826.95	33.69
827.122	37.93
827.295	38.27
827.467	59.64
827.64	37.66
827.812	34.66
827.984	53.85
828.157	52.6
828.329	45.58
828.501	75.55
828.674	91.47
828.846	77.44
829.018	98.02
829.19	109
829.363	97.41
829.535	94.28
829.707	94.38
829.879	62.4
830.051	57.7
830.223	78.38
830.395	55.72
830.568	51.66
830.74	62.14
830.912	65
831.084	49.29
831.256	54.18
831.428	52.75
831.6	59.97
831.772	61.41
831.943	44.32
832.115	67.85
832.287	85.26
832.459	79.01
832.631	76.15
832.803	92.99
832.975	67.58
833.146	39.45
833.318	27.08
833.49	38.18
833.662	34.15
833.833	50.32
834.005	69.37
834.177	100.75
834.348	98.01
834.52	95.73
834.692	120.1
834.863	90.69
835.035	77.66
835.206	60.18
835.378	68.09
835.549	55.86
835.721	77.21
835.892	71.4
836.064	89.99
836.235	114.59
836.407	131
836.578	108.6
836.749	111.06
836.921	107.13
837.092	85.39
837.264	60.01
837.435	70.95
837.606	67.53
837.777	43.51
837.949	64.3
838.12	4.62
838.291	20.86
838.462	29.06
838.633	42.23
838.805	37.37
838.976	110.02
839.147	118.53
839.318	164.27
839.489	102.35
839.66	118.52
839.831	100.11
840.002	81.47
840.173	45.53
840.344	83.81
840.515	55.02
840.686	39.9
840.857	43.43
841.028	60.31
841.199	46.33
841.369	58
841.54	54.52
841.711	80.48
841.882	54.6
842.053	59.56
842.223	62.82
842.394	81.68
842.565	61.8
842.736	72.61
842.906	59.46
843.077	62.96
843.248	45.1
843.418	48.31
843.589	43.17
843.759	111.17
843.93	59.02
844.101	303.51
844.271	131.56
844.442	121.35
844.612	112.78
844.783	117.03
844.953	83.44
845.123	90.64
845.294	89.81
845.464	45.85
845.635	44.77
845.805	75.09
845.975	69.97
846.146	64.51
846.316	-84.34
846.486	83.34
846.656	98.42
846.827	76.3
846.997	69.48
847.167	117.08
847.337	64.03
847.507	79.45
847.677	68.99
847.848	84.28
848.018	85.04
848.188	139.08
848.358	109.93
848.528	182.31
848.698	144.77
848.868	127.1
849.038	68.64
849.208	33.24
849.378	-55.9
849.548	-65.93
849.718	-427.44
849.887	304.03
850.057	-1083.87
850.227	417.17
850.397	563.76
850.567	2.21
850.737	29.15
850.906	-2.78
851.076	1.58
851.246	63.12
851.415	64.84
851.585	94.25
851.755	91.31
851.924	97.22
852.094	89.97
852.264	67.29
852.433	36.2
852.603	75.47
852.772	51.45
852.942	40.81
853.111	26.8
853.281	75.45
853.45	24.3
853.62	61.61
853.789	59.56
853.959	134.37
854.128	-27.1
854.297	-16.17
854.467	187.89
854.636	-51.21
854.805	106.38
854.975	48.84
855.144	61.41
855.313	99.86
855.482	153.4
855.652	103.14
855.821	112.17
855.99	124.44
856.159	264.47
856.328	93.46
856.497	98.77
856.667	155.84
856.836	165.73
857.005	119.52
857.174	124.51
857.343	151.97
857.512	85.25
857.681	65.49
857.85	37.92
858.019	-8.01
858.188	-17.42
858.356	-46.45
858.525	-47.18
858.694	-3.54
858.863	26.84
859.032	23.84
859.201	44.69
859.369	63.78
859.538	62.2
859.707	13.6
859.876	34.43
860.044	74.76
860.213	111.55
860.382	178.3
860.55	181.99
860.719	189.25
860.888	145.37
861.056	143.84
861.225	107.21
861.393	181.63
861.562	207.41
861.73	222.05
861.899	162.66
862.067	213.48
862.236	82.04
862.404	-15.34
862.572	-28.14
862.741	-254.29
862.909	7.13
863.078	38.54
863.246	35.16
863.414	84.33
863.582	69.49
863.751	81.74
863.919	71.44
864.087	80.83
864.255	35.77
864.424	29.72
864.592	9.81
864.76	50.64
864.928	35.49
865.096	41.49
865.264	61.27
865.432	53.84
865.6	76.33
865.768	53.03
865.936	20.3
866.104	-316.63
866.272	13.11
866.44	-92.7
866.608	-13.88
866.776	9.58
866.944	18.27
867.112	9.52
867.28	-30.81
867.448	-26.63
867.615	-44.96
867.783	11.86
867.951	-46.26
868.119	33.89
868.286	45.67
868.454	1.45
868.622	-37.29
868.789	224.36
868.957	108.6
869.125	439.86
869.292	-68.25
869.46	58.11
869.627	-864
869.795	-169.17
869.963	-3.41
870.13	1.77
870.298	13.05
870.465	34.43
870.632	37.62
870.8	-18.31
870.967	28.91
871.135	-46.11
871.302	427.76
871.469	49.62
871.637	33.67
871.804	-1.18
871.971	-32.91
872.139	29.19
872.306	6.86
872.473	301.51
872.64	-36.22
872.807	70.93
872.975	18.34
873.142	35.69
873.309	35.18
873.476	51.22
873.643	23.85
873.81	49.91
873.977	23.94
874.144	-19.19
874.311	-53.84
874.478	-95.66
874.645	-336.29
874.812	-1467.3
874.979	-176.44
875.146	-120.19
875.313	-730.11
875.48	313.94
875.647	10.88
875.813	-637.97
875.98	128.76
876.147	59.46
876.314	66.1
876.481	9.54
876.647	37.98
876.814	75.17
876.981	170.91
877.147	91.2
877.314	95.33
877.481	96.82
877.647	83.11
877.814	-4.51
877.98	-72.98
878.147	178.08
878.314	390.16
878.48	-548.99
878.647	-320.33
878.813	-751.08
878.979	25.84
879.146	13.8
879.312	19.39
879.479	57.31
879.645	61.06
879.811	30.19
879.978	28.97
880.144	46.44
880.31	221.77
880.477	96.64
880.643	97.3
880.809	-1229.27
880.975	-54.27
881.142	-336.17
881.308	-437.68
881.474	37.65
881.64	75.62
881.806	52.94
881.972	67.89
882.138	60.17
882.304	19.4
882.47	-47.47
882.636	-44.63
882.802	-8.25
882.968	-25.96
883.134	-16.79
883.3	28.32
883.466	45
883.632	23.66
883.798	38.95
883.964	31.77
884.129	-43.8
884.295	-61.94
884.461	-391.84
884.627	673.61
884.793	154.46
884.958	150.6
885.124	1259.41
885.29	-178.2
885.455	-23.98
885.621	18.96
885.787	14.11
885.952	-23.13
886.118	51.91
886.283	81.59
886.449	146.26
886.614	136.99
886.78	144.61
886.945	135.52
887.111	84.93
887.276	99.11
887.442	99.34
887.607	72.87
887.773	-105.48
887.938	-107.16
888.103	-61.08
888.269	-320.44
888.434	9952.94
888.599	34.49
888.764	1759.22
888.93	61.66
889.095	83.27
889.26	92.38
889.425	93
889.59	66.51
889.756	117.74
889.921	48.31
890.086	73.27
890.251	32.71
890.416	-24.39
890.581	-75.64
890.746	-23.33
890.911	36.13
891.076	31.36
891.241	43.09
891.406	8400
891.571	362.85
891.736	40.28
891.901	65.88
892.065	-33.46
892.23	-45.69
892.395	155.75
892.56	1562.42
892.725	-217.69
892.889	-563.1
893.054	-2328.48
893.219	-2356.83
893.384	-250.07
893.548	-317.59
893.713	-195.87
893.878	-150.79
