Data from Ofav_SP_Phys_2JQ31_Reflection_2.txt Node
Date: Thu Aug 05 17:46:18 EDT 2021
User: Adam
Spectrometer: FLMT01687
Trigger mode: 0
Integration Time (sec): 8.000000E-1
Scans to average: 2
Electric dark correction enabled: true
Nonlinearity correction enabled: false
Boxcar width: 2
XAxis mode: Wavelengths
Number of Pixels in Spectrum: 3648
>>>>>Begin Spectral Data<<<<<
179.494	461.56
179.716	525.53
179.937	415.76
180.158	458.4
180.38	1163.84
180.601	-499.8
180.823	-5.71
181.044	-44.02
181.265	-40.48
181.486	-58.94
181.708	-291.28
181.929	-124.76
182.15	-211.43
182.372	-20.58
182.593	-36.18
182.814	52.59
183.035	5.29
183.257	-69.04
183.478	-458.98
183.699	696.05
183.92	194.7
184.141	-1091.48
184.363	1918.92
184.584	-169.32
184.805	-17.19
185.026	12.04
185.247	18.58
185.468	65.82
185.689	62.12
185.91	70.5
186.132	42.01
186.353	9.23
186.574	-107.67
186.795	-96.95
187.016	-92.25
187.237	-26.47
187.458	-194.84
187.679	-52.58
187.9	-44.45
188.121	-89.3
188.342	-62.79
188.563	8.21
188.784	37.32
189.005	-49.7
189.226	15.21
189.447	-2.09
189.667	34.68
189.888	16.77
190.109	162.48
190.33	122.42
190.551	67.59
190.772	29.59
190.993	33.24
191.214	19.34
191.434	11.77
191.655	15.49
191.876	25.63
192.097	12.81
192.318	4.69
192.538	-117.48
192.759	-41.11
192.98	-49.72
193.201	-261.94
193.421	-90.94
193.642	34.15
193.863	2.32
194.083	6.25
194.304	19.96
194.525	-10.19
194.745	-27.14
194.966	-30.63
195.187	-42.12
195.407	-72.74
195.628	-82.81
195.848	-51.2
196.069	-21.24
196.29	-29.56
196.51	-7.72
196.731	5.54
196.951	19.19
197.172	28.41
197.392	62.22
197.613	72.94
197.833	118.72
198.054	129.69
198.274	97.21
198.495	57.7
198.715	35.47
198.936	-6.83
199.156	12.49
199.377	20.92
199.597	35.84
199.817	34.07
200.038	23.55
200.258	18.01
200.479	16.75
200.699	1.91
200.919	-4.98
201.14	-21.27
201.36	-48.91
201.58	-55.16
201.801	-152.19
202.021	-100.11
202.241	-44.27
202.461	-33.97
202.682	-36.28
202.902	-83.48
203.122	-277.6
203.342	-95.67
203.563	-50.63
203.783	-50.62
204.003	47.14
204.223	41.43
204.443	-2.52
204.663	-14.3
204.884	8.81
205.104	-22.74
205.324	-3.34
205.544	10.41
205.764	12.68
205.984	-15.14
206.204	-5.54
206.424	11.32
206.644	2.6
206.864	-4.15
207.084	-22.67
207.304	16.36
207.525	0.08
207.745	36.12
207.964	39.58
208.184	59.38
208.404	12.94
208.624	-18.11
208.844	-31.64
209.064	-31.68
209.284	-5.34
209.504	-16.69
209.724	11.28
209.944	-21.92
210.164	-31.24
210.384	-9.11
210.604	15.07
210.823	20.72
211.043	28.34
211.263	34.34
211.483	33.01
211.703	40.03
211.922	19.48
212.142	41.05
212.362	38.07
212.582	46.06
212.801	19.72
213.021	35.84
213.241	11.11
213.461	-9.54
213.68	-26.26
213.9	-50.56
214.12	-93.24
214.339	-78.13
214.559	-34.39
214.779	-28.86
214.998	1.4
215.218	11.06
215.438	33.32
215.657	72.27
215.877	110.02
216.096	64.33
216.316	92.27
216.535	41.42
216.755	-26.67
216.974	-157.53
217.194	55.21
217.413	49.04
217.633	66.04
217.852	71.22
218.072	59.96
218.291	25.06
218.511	33.49
218.73	-7.84
218.95	-39.68
219.169	-61.74
219.389	11.43
219.608	-27.25
219.827	-6.85
220.047	6.59
220.266	33.33
220.485	7.16
220.705	1.44
220.924	-8.93
221.143	26.47
221.363	5.79
221.582	-10.45
221.801	-11.11
222.021	5.89
222.24	-17.98
222.459	-56.77
222.678	10.32
222.897	3.96
223.117	-8.92
223.336	-26.67
223.555	-23.12
223.774	-58.77
223.993	-56.73
224.213	-27.06
224.432	-67.29
224.651	-44.7
224.87	-38.4
225.089	-27.1
225.308	-69.6
225.527	-14.65
225.746	-23.39
225.965	-31.39
226.184	-28.93
226.404	-4.88
226.623	-25.87
226.842	9.92
227.061	35.32
227.28	47.09
227.499	59.63
227.718	72.09
227.936	53.63
228.155	49.54
228.374	37.69
228.593	22.37
228.812	35.31
229.031	50.25
229.25	28.63
229.469	30.32
229.688	25.62
229.907	-0.65
230.125	-36.36
230.344	-19.88
230.563	-13.16
230.782	-55.91
231.001	-52.33
231.22	36.75
231.438	19.88
231.657	4.06
231.876	-1.38
232.095	14.12
232.313	-12.32
232.532	-10.35
232.751	-13.13
232.969	19.9
233.188	27.85
233.407	2.99
233.625	25.69
233.844	6.29
234.063	-10.12
234.281	-10.67
234.5	34.16
234.719	50.14
234.937	43.58
235.156	18
235.374	10.51
235.593	-16.69
235.811	-45.28
236.03	-15.18
236.249	-2.2
236.467	-16.27
236.686	-17.4
236.904	15.48
237.123	-8.79
237.341	11.61
237.559	9.76
237.778	-17.1
237.996	-8.89
238.215	-20.42
238.433	-44.14
238.652	-44.62
238.87	-26.18
239.088	-53.44
239.307	-16.51
239.525	-9.45
239.743	0.24
239.962	4.41
240.18	49.76
240.398	9.42
240.617	-11.15
240.835	23.09
241.053	31.95
241.271	-3.05
241.49	15.56
241.708	-5.36
241.926	-17.18
242.144	-44.62
242.363	-49.12
242.581	-47.87
242.799	-51.42
243.017	-45.37
243.235	-52.75
243.453	-12.58
243.672	-5.96
243.89	-7.84
244.108	-4.47
244.326	-10.14
244.544	-15.84
244.762	-7.67
244.98	31.16
245.198	13.28
245.416	41.19
245.634	27.04
245.852	21.65
246.07	17.85
246.288	4.66
246.506	-14.54
246.724	21.81
246.942	6.82
247.16	-12.66
247.378	-44.17
247.596	-34.7
247.814	-28.8
248.032	-25.05
248.25	-49.06
248.468	-19.9
248.685	-6.45
248.903	-19.94
249.121	-22.48
249.339	17
249.557	21.97
249.775	25.95
249.992	22.04
250.21	27.18
250.428	13.49
250.646	7.78
250.863	20.18
251.081	43.91
251.299	32.76
251.517	32.51
251.734	29.46
251.952	-12.06
252.17	-14.57
252.387	-24.24
252.605	-15.38
252.823	0.04
253.04	13.81
253.258	12.74
253.475	31.17
253.693	32.84
253.911	49.67
254.128	41.41
254.346	44.94
254.563	49.22
254.781	50.44
254.998	34.8
255.216	42.57
255.433	37.95
255.651	-21.85
255.868	-33.16
256.086	-28.66
256.303	-38.17
256.521	-46.6
256.738	-50.45
256.956	-107.42
257.173	-7.77
257.39	77.79
257.608	48.87
257.825	45.75
258.043	26.55
258.26	17.15
258.477	-8.78
258.695	4.85
258.912	9.59
259.129	18.4
259.346	28.16
259.564	23
259.781	23.21
259.998	15.99
260.216	32.24
260.433	20.27
260.65	4.72
260.867	-59.41
261.084	-42.72
261.302	-27.94
261.519	-27.52
261.736	19.64
261.953	41.7
262.17	35.54
262.387	47.86
262.604	57.28
262.822	39.23
263.039	31.01
263.256	58.26
263.473	19
263.69	45.24
263.907	42.07
264.124	28.19
264.341	33.4
264.558	47.89
264.775	16.31
264.992	22.1
265.209	10.52
265.426	5.69
265.643	0.03
265.86	-12.4
266.077	-27.22
266.294	-16.47
266.51	-17.3
266.727	-9.86
266.944	40.68
267.161	13.9
267.378	9.49
267.595	1.97
267.812	-9
268.028	-20.22
268.245	10.7
268.462	7.93
268.679	4.47
268.896	17.76
269.112	-3.4
269.329	-6.63
269.546	6.35
269.763	8.96
269.979	14.77
270.196	31.3
270.413	26.44
270.629	48.36
270.846	39.98
271.063	14.31
271.279	-5.1
271.496	-18.28
271.712	-87.41
271.929	-45.64
272.146	-13.61
272.362	-39.25
272.579	-19.77
272.795	-14
273.012	-2.68
273.228	-4.96
273.445	14.75
273.661	17.18
273.878	3.25
274.094	-4.85
274.311	0.96
274.527	-13.82
274.744	-32.56
274.96	-12.57
275.177	-6.23
275.393	-30.74
275.609	-16.87
275.826	-5.35
276.042	13.32
276.259	13.48
276.475	14.06
276.691	15.35
276.908	23.46
277.124	28.83
277.34	26.91
277.557	26.63
277.773	16.22
277.989	8.77
278.205	4.16
278.422	1.4
278.638	31.39
278.854	47.62
279.07	44.48
279.286	35.86
279.503	41.78
279.719	31.73
279.935	57.09
280.151	47.1
280.367	33.24
280.583	36.19
280.799	48.28
281.016	36.63
281.232	29.69
281.448	8.75
281.664	-2.86
281.88	-40.09
282.096	4.55
282.312	44.42
282.528	71.73
282.744	72.61
282.96	62.88
283.176	53.24
283.392	33.74
283.608	35.05
283.824	25.3
284.04	38.16
284.256	22.81
284.471	6.97
284.687	13.25
284.903	20.99
285.119	15.07
285.335	25.05
285.551	32.9
285.767	22.89
285.982	32.75
286.198	10.29
286.414	-36.04
286.63	-8.5
286.846	-9.11
287.061	-14.68
287.277	-0.34
287.493	30.57
287.709	8.32
287.924	19.27
288.14	36.08
288.356	51.51
288.571	43.61
288.787	52.46
289.003	83.9
289.218	84.27
289.434	79.95
289.65	29.87
289.865	33.13
290.081	19.64
290.296	16.73
290.512	-7.91
290.727	7.75
290.943	-6.23
291.159	-12.19
291.374	-4.79
291.59	-9.56
291.805	-0.67
292.021	31.37
292.236	19.2
292.451	10.29
292.667	13.61
292.882	-23.99
293.098	-53.46
293.313	-31.92
293.529	-8.68
293.744	14.02
293.959	6.55
294.175	28.45
294.39	20.69
294.605	0.03
294.821	-7.17
295.036	12.6
295.251	11.17
295.467	28.41
295.682	24.9
295.897	30.94
296.112	29.26
296.328	19.17
296.543	20.23
296.758	15.28
296.973	7.31
297.188	8.91
297.404	11.35
297.619	-8.04
297.834	-0.92
298.049	-17.29
298.264	-41.56
298.479	-38.12
298.694	-1.31
298.909	-3.91
299.125	19.6
299.34	19.11
299.555	24.06
299.77	27.74
299.985	38.52
300.2	34.53
300.415	38.21
300.63	15.71
300.845	-0.83
301.06	2.82
301.275	-0.65
301.49	-14.72
301.704	-38.74
301.919	4.23
302.134	2.29
302.349	-4.72
302.564	0.58
302.779	20.46
302.994	5.3
303.209	18.42
303.423	8.77
303.638	17.7
303.853	-4.44
304.068	4.78
304.283	-8
304.497	20.09
304.712	6.84
304.927	10.73
305.142	12.66
305.356	20.39
305.571	21.17
305.786	35.8
306	43.17
306.215	49.47
306.43	66.8
306.644	56.3
306.859	55.76
307.074	72.98
307.288	51.72
307.503	39.66
307.717	26.44
307.932	13.01
308.147	1.95
308.361	26.89
308.576	10.48
308.79	12.45
309.005	34.47
309.219	6.15
309.434	-17.74
309.648	-27.82
309.863	-69.11
310.077	-120.06
310.292	-60.43
310.506	-70.82
310.72	-34.31
310.935	-5.42
311.149	-11.88
311.364	-2
311.578	27.78
311.792	46.2
312.007	37.8
312.221	37.76
312.435	51.91
312.649	36.65
312.864	4.24
313.078	11.04
313.292	39.22
313.507	20.09
313.721	28.2
313.935	30.54
314.149	39.78
314.363	15.45
314.578	24.37
314.792	30.84
315.006	40.58
315.22	3.42
315.434	-10.13
315.648	-17.93
315.862	-75.83
316.077	-61.08
316.291	-70.68
316.505	-22.88
316.719	-10.11
316.933	-5.27
317.147	4.17
317.361	22.61
317.575	13.48
317.789	-2.84
318.003	-23.14
318.217	-4.83
318.431	-4.69
318.645	8.21
318.859	-12.79
319.073	1.8
319.287	-35.33
319.5	-9.23
319.714	-20.22
319.928	3.95
320.142	13.85
320.356	23.39
320.57	-5.76
320.784	-16.33
320.997	-11.86
321.211	-7.48
321.425	-37.5
321.639	-26.22
321.853	-27.34
322.066	-27.89
322.28	-32.42
322.494	-23.14
322.707	-17.69
322.921	1.32
323.135	-6.45
323.349	-3.95
323.562	-4.6
323.776	8.22
323.989	-32.79
324.203	-10.64
324.417	-5.47
324.63	-15.9
324.844	-34.64
325.057	-10.92
325.271	-37.97
325.485	-30.86
325.698	-25.42
325.912	-13.31
326.125	5.28
326.339	43.87
326.552	32.82
326.766	28.33
326.979	29.31
327.193	25.74
327.406	5.4
327.619	36.35
327.833	21.84
328.046	31.84
328.26	29.32
328.473	-3.91
328.686	-21.71
328.9	-9.15
329.113	4.78
329.326	5.75
329.54	23.64
329.753	31.36
329.966	48.96
330.179	48.02
330.393	55.61
330.606	66.74
330.819	79.76
331.032	88.44
331.246	96.03
331.459	52.6
331.672	52.13
331.885	46.81
332.098	46.74
332.311	24.78
332.525	21.54
332.738	14.28
332.951	-3.89
333.164	4.54
333.377	12.74
333.59	23.35
333.803	14.17
334.016	2.24
334.229	-14.66
334.442	-12.39
334.655	2.97
334.868	23.55
335.081	32.07
335.294	45.49
335.507	55.66
335.72	57.71
335.933	42.92
336.146	34.63
336.359	16.84
336.572	1.01
336.785	-24.38
336.997	-1.47
337.21	32.4
337.423	51.41
337.636	53.32
337.849	69.28
338.062	18.78
338.274	-5.36
338.487	-22.92
338.7	-28.78
338.913	-37.87
339.125	-0.37
339.338	-1.04
339.551	0.68
339.763	12.15
339.976	20.45
340.189	17.18
340.402	7.06
340.614	17.5
340.827	35.92
341.039	32.06
341.252	31.49
341.465	35.32
341.677	27.17
341.89	4.43
342.102	10.03
342.315	-20.86
342.527	-15.51
342.74	-8.4
342.952	-9.31
343.165	-11.44
343.377	31.73
343.59	0.05
343.802	7.31
344.015	0.24
344.227	-7.27
344.44	-6.97
344.652	17.42
344.864	26.26
345.077	38.37
345.289	32.49
345.502	28.79
345.714	19.33
345.926	18.62
346.139	10.93
346.351	15.05
346.563	1.36
346.775	4.13
346.988	-33.4
347.2	-46.85
347.412	-91.51
347.624	-42.65
347.837	-33.68
348.049	-13.31
348.261	-1.19
348.473	34.46
348.685	41.71
348.897	58.68
349.11	72.06
349.322	55.51
349.534	24.19
349.746	9.73
349.958	-19.06
350.17	5.31
350.382	34.59
350.594	27.18
350.806	35.16
351.018	46.84
351.23	25.34
351.442	15.32
351.654	12.9
351.866	-5.81
352.078	-30.1
352.29	-34.06
352.502	-20.08
352.714	-30.68
352.926	-6.01
353.138	-0.4
353.35	9.46
353.561	0.02
353.773	6.81
353.985	5.53
354.197	21.78
354.409	3.27
354.621	-7.16
354.832	12.09
355.044	7.69
355.256	-6.76
355.468	8.37
355.679	19.38
355.891	19.73
356.103	19.7
356.314	31.15
356.526	25.51
356.738	29.88
356.949	-3.43
357.161	27.68
357.373	-2.13
357.584	15.92
357.796	7.11
358.008	28.57
358.219	-37.64
358.431	-11.43
358.642	-19.98
358.854	3.61
359.065	6.63
359.277	30.86
359.488	18.05
359.7	25.57
359.911	29.91
360.123	16.93
360.334	18.72
360.546	22.32
360.757	19.95
360.969	7.83
361.18	34.68
361.391	30.17
361.603	36.6
361.814	15.73
362.025	33.14
362.237	15.66
362.448	2.24
362.659	-1.18
362.871	-8.22
363.082	-25.26
363.293	-29.63
363.504	-34.62
363.716	-43.33
363.927	-1.41
364.138	10.97
364.349	18.21
364.56	35.72
364.772	54.03
364.983	49.97
365.194	35.13
365.405	37.63
365.616	35.76
365.827	27.1
366.038	39
366.25	41.4
366.461	23.84
366.672	25.17
366.883	27.94
367.094	17.52
367.305	17.98
367.516	38.38
367.727	35.85
367.938	28.57
368.149	21.01
368.36	15.21
368.571	-7.88
368.781	-26.22
368.992	-39.21
369.203	-13.42
369.414	-12.32
369.625	-15.75
369.836	-16.56
370.047	-6.43
370.258	-4.19
370.468	6.67
370.679	18.3
370.89	16.86
371.101	21.98
371.312	20.29
371.522	8.75
371.733	-3.07
371.944	3.71
372.155	6.08
372.365	3.2
372.576	13.9
372.787	16.49
372.997	25.29
373.208	24.29
373.419	41.33
373.629	39.93
373.84	44.86
374.05	34.27
374.261	29.75
374.472	24.97
374.682	15.64
374.893	17.95
375.103	10.97
375.314	8.17
375.524	3.51
375.735	7.47
375.945	13.34
376.156	23.94
376.366	31.29
376.577	34.71
376.787	28.64
376.997	23.13
377.208	18.01
377.418	20.19
377.629	27.56
377.839	40.06
378.049	46.12
378.26	43.51
378.47	36.12
378.68	34.01
378.89	16.65
379.101	6.71
379.311	5.75
379.521	21.79
379.732	21.06
379.942	28.66
380.152	25.92
380.362	26.73
380.572	26.85
380.783	11.58
380.993	16.66
381.203	20.45
381.413	21.65
381.623	20.68
381.833	25.4
382.043	23.02
382.253	27.7
382.463	36.54
382.674	30.67
382.884	28.5
383.094	29.51
383.304	18.23
383.514	14.28
383.724	7.38
383.934	12.08
384.144	9.63
384.353	10.88
384.563	8.36
384.773	13.37
384.983	4.12
385.193	4.97
385.403	8.08
385.613	7.48
385.823	1.11
386.033	9.45
386.242	7.52
386.452	8.9
386.662	9.37
386.872	12.11
387.082	11.14
387.291	2.99
387.501	2
387.711	6.26
387.921	7.07
388.13	3.93
388.34	9.9
388.55	9.12
388.759	2.46
388.969	1.58
389.179	5.55
389.388	6.21
389.598	6.75
389.807	12.13
390.017	15.29
390.227	14.45
390.436	14.67
390.646	12.83
390.855	11.02
391.065	10.98
391.274	11.3
391.484	12.85
391.693	12.89
391.903	12.35
392.112	12.45
392.322	11.7
392.531	10.87
392.74	11.39
392.95	10.03
393.159	8.8
393.369	9.55
393.578	10.58
393.787	11.47
393.997	11.68
394.206	11.86
394.415	12.11
394.625	11.96
394.834	12.22
395.043	11.94
395.252	11.96
395.462	11.78
395.671	11.12
395.88	11.5
396.089	11.76
396.298	12.16
396.508	11.8
396.717	11.74
396.926	10.95
397.135	10.87
397.344	10.31
397.553	10.28
397.762	10.14
397.971	9.85
398.181	9.79
398.39	9.75
398.599	10.02
398.808	10.26
399.017	10.38
399.226	10.63
399.435	10.69
399.644	11.02
399.853	10.8
400.062	10.96
400.27	10.99
400.479	10.93
400.688	10.51
400.897	10.66
401.106	10.5
401.315	10.31
401.524	10.28
401.733	10.27
401.941	10.21
402.15	10.08
402.359	10.07
402.568	10.02
402.777	10.26
402.985	10.19
403.194	10.37
403.403	10.35
403.612	10.28
403.82	9.97
404.029	9.94
404.238	9.84
404.446	9.92
404.655	10.2
404.864	10.22
405.072	10.15
405.281	10.18
405.489	10.22
405.698	10.17
405.906	10.24
406.115	10.03
406.324	10.02
406.532	9.88
406.741	9.72
406.949	9.46
407.158	9.74
407.366	9.73
407.574	9.78
407.783	9.77
407.991	9.86
408.2	9.75
408.408	9.67
408.617	9.6
408.825	9.68
409.033	9.68
409.242	9.64
409.45	9.57
409.658	9.44
409.867	9.39
410.075	9.37
410.283	9.44
410.491	9.52
410.7	9.6
410.908	9.55
411.116	9.5
411.324	9.39
411.533	9.21
411.741	9.18
411.949	9.15
412.157	9.18
412.365	9.41
412.573	9.55
412.781	9.54
412.99	9.58
413.198	9.77
413.406	9.61
413.614	9.5
413.822	9.55
414.03	9.62
414.238	9.37
414.446	9.36
414.654	9.47
414.862	9.14
415.07	8.94
415.278	8.94
415.486	8.83
415.694	8.71
415.902	8.83
416.109	8.84
416.317	8.91
416.525	9.03
416.733	9.04
416.941	9.28
417.149	9.29
417.357	9.21
417.564	9.01
417.772	9.05
417.98	8.89
418.188	8.81
418.395	8.76
418.603	8.89
418.811	8.81
419.019	8.85
419.226	8.85
419.434	9
419.642	8.87
419.849	8.91
420.057	8.69
420.265	8.73
420.472	8.44
420.68	8.38
420.887	8.23
421.095	8.45
421.302	8.43
421.51	8.52
421.717	8.63
421.925	8.67
422.132	8.75
422.34	8.74
422.547	8.84
422.755	8.74
422.962	8.93
423.17	8.88
423.377	8.88
423.585	8.86
423.792	9.03
423.999	8.73
424.207	8.52
424.414	8.37
424.621	8.45
424.829	8.44
425.036	8.72
425.243	8.74
425.451	9.01
425.658	8.92
425.865	8.8
426.072	8.65
426.28	8.68
426.487	8.43
426.694	8.39
426.901	8.32
427.108	8.19
427.315	8.25
427.523	8.33
427.73	8.35
427.937	8.6
428.144	8.77
428.351	8.99
428.558	9
428.765	8.89
428.972	8.77
429.179	8.83
429.386	8.6
429.593	8.79
429.8	8.94
430.007	8.97
430.214	8.84
430.421	8.97
430.628	8.77
430.835	8.8
431.042	8.73
431.249	8.79
431.456	8.73
431.662	8.98
431.869	8.95
432.076	9.03
432.283	9.16
432.49	9.16
432.697	9.01
432.903	8.94
433.11	8.83
433.317	8.72
433.524	8.82
433.73	8.93
433.937	8.93
434.144	8.99
434.35	8.89
434.557	8.81
434.764	8.64
434.97	8.62
435.177	8.63
435.384	8.72
435.59	8.62
435.797	8.76
436.003	8.8
436.21	8.72
436.416	8.66
436.623	8.67
436.829	8.56
437.036	8.46
437.242	8.39
437.449	8.52
437.655	8.57
437.862	8.82
438.068	9.13
438.275	9.43
438.481	9.49
438.687	9.45
438.894	9.31
439.1	9.09
439.307	8.9
439.513	8.79
439.719	8.88
439.926	8.88
440.132	9.02
440.338	9.19
440.544	9.21
440.751	9.29
440.957	9.2
441.163	9.15
441.369	9.06
441.575	8.99
441.782	8.94
441.988	8.92
442.194	8.81
442.4	8.83
442.606	8.92
442.812	8.83
443.018	8.76
443.224	8.84
443.431	8.72
443.637	8.62
443.843	8.61
444.049	8.78
444.255	8.8
444.461	8.89
444.667	8.93
444.873	8.91
445.079	8.81
445.284	8.87
445.49	8.96
445.696	9.04
445.902	9.16
446.108	9.23
446.314	9.19
446.52	9.14
446.726	9.22
446.931	9.19
447.137	9.25
447.343	9.28
447.549	9.33
447.755	9.33
447.96	9.4
448.166	9.35
448.372	9.31
448.578	9.3
448.783	9.41
448.989	9.32
449.195	9.35
449.4	9.46
449.606	9.54
449.812	9.48
450.017	9.58
450.223	9.53
450.428	9.5
450.634	9.38
450.84	9.37
451.045	9.3
451.251	9.4
451.456	9.4
451.662	9.45
451.867	9.4
452.073	9.63
452.278	9.63
452.483	9.8
452.689	9.88
452.894	9.91
453.1	9.77
453.305	9.75
453.51	9.65
453.716	9.69
453.921	9.67
454.127	9.84
454.332	9.89
454.537	9.89
454.742	9.87
454.948	9.87
455.153	9.69
455.358	9.68
455.563	9.61
455.769	9.48
455.974	9.58
456.179	9.71
456.384	9.59
456.589	9.72
456.795	9.9
457	9.89
457.205	9.86
457.41	10.01
457.615	9.97
457.82	9.9
458.025	9.81
458.23	9.75
458.435	9.71
458.64	9.64
458.845	9.7
459.05	9.81
459.255	9.9
459.46	9.94
459.665	10.06
459.87	10.11
460.075	10.11
460.28	10.19
460.485	10.31
460.69	10.33
460.895	10.18
461.099	10.21
461.304	10.17
461.509	10.08
461.714	10.02
461.919	10.08
462.123	10.06
462.328	10.01
462.533	10.13
462.738	10.3
462.942	10.41
463.147	10.46
463.352	10.57
463.556	10.54
463.761	10.51
463.966	10.49
464.17	10.53
464.375	10.56
464.58	10.56
464.784	10.56
464.989	10.63
465.193	10.62
465.398	10.68
465.602	10.78
465.807	10.88
466.011	10.89
466.216	10.98
466.42	11.02
466.625	10.99
466.829	10.93
467.034	10.89
467.238	10.95
467.443	10.85
467.647	10.74
467.851	10.7
468.056	10.83
468.26	10.75
468.464	10.75
468.669	10.94
468.873	10.94
469.077	10.91
469.282	10.87
469.486	10.87
469.69	10.75
469.894	10.81
470.099	10.79
470.303	10.83
470.507	10.85
470.711	10.96
470.915	10.95
471.119	10.99
471.324	11.09
471.528	11.09
471.732	11.1
471.936	11.12
472.14	11.05
472.344	10.91
472.548	11.03
472.752	10.95
472.956	10.9
473.16	10.99
473.364	11.02
473.568	10.9
473.772	10.98
473.976	10.93
474.18	10.86
474.384	10.87
474.588	10.93
474.792	10.86
474.995	10.94
475.199	10.91
475.403	10.9
475.607	10.78
475.811	10.71
476.015	10.65
476.218	10.73
476.422	10.77
476.626	10.88
476.83	11.05
477.033	11.1
477.237	11.13
477.441	11.05
477.644	11
477.848	10.99
478.052	10.98
478.255	10.97
478.459	11.06
478.663	11.06
478.866	10.98
479.07	10.98
479.273	10.86
479.477	10.77
479.681	10.8
479.884	10.84
480.088	10.77
480.291	10.79
480.495	10.8
480.698	10.79
480.901	10.73
481.105	10.91
481.308	10.9
481.512	11
481.715	11.06
481.919	11.11
482.122	11.05
482.325	11.08
482.529	11
482.732	10.88
482.935	10.78
483.138	10.73
483.342	10.73
483.545	10.77
483.748	10.77
483.952	10.82
484.155	10.85
484.358	10.81
484.561	10.76
484.764	10.73
484.967	10.75
485.171	10.65
485.374	10.64
485.577	10.7
485.78	10.77
485.983	10.82
486.186	10.94
486.389	10.96
486.592	10.95
486.795	10.93
486.998	10.86
487.201	10.76
487.404	10.8
487.607	10.84
487.81	10.86
488.013	10.78
488.216	10.86
488.419	10.85
488.622	10.76
488.825	10.79
489.028	10.85
489.231	10.97
489.433	10.92
489.636	11.02
489.839	10.99
490.042	11.1
490.245	11.05
490.447	11.11
490.65	11.12
490.853	11.26
491.056	11.25
491.258	11.24
491.461	11.31
491.664	11.27
491.866	11.27
492.069	11.33
492.272	11.29
492.474	11.34
492.677	11.39
492.879	11.32
493.082	11.31
493.285	11.44
493.487	11.47
493.69	11.58
493.892	11.73
494.095	11.88
494.297	11.92
494.5	12.01
494.702	12.02
494.905	11.99
495.107	11.98
495.309	12.05
495.512	12.04
495.714	12.14
495.917	12.24
496.119	12.36
496.321	12.37
496.524	12.43
496.726	12.51
496.928	12.56
497.13	12.55
497.333	12.62
497.535	12.8
497.737	12.79
497.939	12.9
498.142	12.93
498.344	13.03
498.546	13
498.748	13.06
498.95	13.14
499.152	13.21
499.355	13.23
499.557	13.27
499.759	13.41
499.961	13.49
500.163	13.51
500.365	13.69
500.567	13.76
500.769	13.76
500.971	13.73
501.173	13.8
501.375	13.74
501.577	13.72
501.779	13.77
501.981	13.92
502.183	13.93
502.385	13.93
502.587	13.96
502.788	13.89
502.99	13.72
503.192	13.68
503.394	13.67
503.596	13.67
503.798	13.68
503.999	13.8
504.201	13.83
504.403	13.82
504.605	13.77
504.806	13.76
505.008	13.64
505.21	13.54
505.411	13.42
505.613	13.53
505.815	13.47
506.016	13.51
506.218	13.47
506.42	13.51
506.621	13.37
506.823	13.34
507.024	13.26
507.226	13.34
507.427	13.32
507.629	13.29
507.83	13.28
508.032	13.24
508.233	13.21
508.435	13.17
508.636	13.18
508.838	13.13
509.039	13.1
509.24	12.99
509.442	12.9
509.643	12.74
509.845	12.75
510.046	12.69
510.247	12.75
510.448	12.74
510.65	12.8
510.851	12.73
511.052	12.67
511.254	12.62
511.455	12.56
511.656	12.42
511.857	12.34
512.058	12.32
512.26	12.16
512.461	12.22
512.662	12.26
512.863	12.23
513.064	12.26
513.265	12.25
513.466	12.13
513.667	12.11
513.868	12
514.069	11.91
514.27	11.86
514.471	11.78
514.672	11.72
514.873	11.68
515.074	11.64
515.275	11.65
515.476	11.7
515.677	11.68
515.878	11.7
516.079	11.69
516.28	11.63
516.481	11.62
516.682	11.59
516.882	11.66
517.083	11.58
517.284	11.57
517.485	11.53
517.686	11.5
517.886	11.44
518.087	11.39
518.288	11.37
518.488	11.36
518.689	11.32
518.89	11.23
519.091	11.28
519.291	11.26
519.492	11.19
519.692	11.15
519.893	11.17
520.094	11.1
520.294	11.1
520.495	11.12
520.695	11.12
520.896	11.06
521.096	11.06
521.297	11.07
521.497	11.04
521.698	11.08
521.898	11.04
522.099	11.04
522.299	10.97
522.499	10.91
522.7	10.84
522.9	10.9
523.101	10.86
523.301	10.84
523.501	10.82
523.702	10.82
523.902	10.78
524.102	10.81
524.302	10.8
524.503	10.78
524.703	10.78
524.903	10.8
525.103	10.8
525.304	10.76
525.504	10.86
525.704	10.78
525.904	10.77
526.104	10.73
526.304	10.77
526.504	10.69
526.705	10.73
526.905	10.74
527.105	10.74
527.305	10.75
527.505	10.73
527.705	10.7
527.905	10.66
528.105	10.64
528.305	10.57
528.505	10.6
528.705	10.54
528.905	10.45
529.105	10.45
529.304	10.44
529.504	10.43
529.704	10.5
529.904	10.57
530.104	10.57
530.304	10.58
530.503	10.56
530.703	10.51
530.903	10.45
531.103	10.43
531.303	10.47
531.502	10.48
531.702	10.44
531.902	10.47
532.101	10.53
532.301	10.49
532.501	10.5
532.7	10.57
532.9	10.58
533.1	10.5
533.299	10.49
533.499	10.51
533.698	10.45
533.898	10.43
534.097	10.43
534.297	10.44
534.496	10.38
534.696	10.43
534.895	10.44
535.095	10.41
535.294	10.42
535.494	10.44
535.693	10.37
535.892	10.34
536.092	10.41
536.291	10.37
536.491	10.4
536.69	10.45
536.889	10.45
537.088	10.39
537.288	10.4
537.487	10.36
537.686	10.3
537.886	10.34
538.085	10.42
538.284	10.41
538.483	10.37
538.682	10.47
538.882	10.46
539.081	10.37
539.28	10.38
539.479	10.46
539.678	10.41
539.877	10.38
540.076	10.37
540.275	10.35
540.474	10.28
540.673	10.29
540.872	10.3
541.071	10.35
541.27	10.39
541.469	10.33
541.668	10.28
541.867	10.35
542.066	10.32
542.265	10.38
542.464	10.43
542.663	10.49
542.862	10.43
543.06	10.48
543.259	10.45
543.458	10.54
543.657	10.52
543.856	10.57
544.054	10.56
544.253	10.57
544.452	10.48
544.651	10.5
544.849	10.44
545.048	10.4
545.247	10.4
545.445	10.43
545.644	10.38
545.843	10.44
546.041	10.47
546.24	10.47
546.438	10.52
546.637	10.54
546.836	10.53
547.034	10.57
547.233	10.6
547.431	10.6
547.63	10.74
547.828	10.81
548.027	10.77
548.225	10.75
548.423	10.77
548.622	10.71
548.82	10.64
549.019	10.66
549.217	10.62
549.415	10.59
549.614	10.64
549.812	10.71
550.01	10.71
550.209	10.78
550.407	10.82
550.605	10.73
550.803	10.74
551.002	10.79
551.2	10.78
551.398	10.87
551.596	11.01
551.794	11.05
551.993	11.05
552.191	11.1
552.389	11.06
552.587	11.03
552.785	11.02
552.983	11.07
553.181	11.1
553.379	11.13
553.577	11.21
553.775	11.25
553.973	11.22
554.171	11.26
554.369	11.31
554.567	11.32
554.765	11.35
554.963	11.46
555.161	11.49
555.359	11.49
555.557	11.47
555.755	11.46
555.952	11.45
556.15	11.52
556.348	11.57
556.546	11.67
556.744	11.71
556.941	11.78
557.139	11.77
557.337	11.83
557.535	11.86
557.732	11.93
557.93	11.97
558.128	12.04
558.325	12.03
558.523	12.07
558.721	12.07
558.918	12.11
559.116	12.09
559.313	12.08
559.511	12.13
559.708	12.28
559.906	12.29
560.104	12.31
560.301	12.45
560.498	12.45
560.696	12.46
560.893	12.53
561.091	12.58
561.288	12.63
561.486	12.67
561.683	12.66
561.88	12.62
562.078	12.7
562.275	12.63
562.473	12.6
562.67	12.68
562.867	12.72
563.064	12.72
563.262	12.77
563.459	12.89
563.656	12.89
563.853	12.91
564.051	12.93
564.248	13.03
564.445	12.99
564.642	13.01
564.839	13.14
565.036	13.22
565.234	13.18
565.431	13.32
565.628	13.33
565.825	13.28
566.022	13.39
566.219	13.5
566.416	13.43
566.613	13.47
566.81	13.59
567.007	13.52
567.204	13.5
567.401	13.52
567.598	13.6
567.795	13.6
567.991	13.64
568.188	13.65
568.385	13.64
568.582	13.67
568.779	13.64
568.976	13.67
569.172	13.74
569.369	13.83
569.566	13.82
569.763	13.81
569.96	13.79
570.156	13.73
570.353	13.75
570.55	13.79
570.746	13.84
570.943	13.92
571.14	14.02
571.336	14.01
571.533	14
571.729	14.03
571.926	14.04
572.123	14.02
572.319	14.06
572.516	14.05
572.712	14.1
572.909	14.08
573.105	14.06
573.302	14.03
573.498	14.02
573.695	13.96
573.891	13.96
574.087	13.93
574.284	13.97
574.48	14.01
574.677	14.03
574.873	13.99
575.069	14.08
575.266	14.08
575.462	14.08
575.658	14.1
575.854	14.15
576.051	14.02
576.247	13.92
576.443	13.94
576.639	13.99
576.835	13.93
577.032	13.93
577.228	14
577.424	13.93
577.62	13.85
577.816	13.87
578.012	13.94
578.208	13.89
578.404	13.96
578.6	13.9
578.796	13.82
578.993	13.79
579.189	13.76
579.384	13.7
579.58	13.76
579.776	13.84
579.972	13.79
580.168	13.79
580.364	13.8
580.56	13.75
580.756	13.78
580.952	13.78
581.148	13.77
581.343	13.81
581.539	13.81
581.735	13.64
581.931	13.62
582.127	13.65
582.322	13.63
582.518	13.64
582.714	13.7
582.909	13.68
583.105	13.69
583.301	13.6
583.496	13.62
583.692	13.58
583.888	13.55
584.083	13.41
584.279	13.45
584.474	13.35
584.67	13.32
584.866	13.35
585.061	13.37
585.257	13.3
585.452	13.32
585.648	13.38
585.843	13.4
586.039	13.46
586.234	13.46
586.429	13.49
586.625	13.54
586.82	13.51
587.015	13.39
587.211	13.36
587.406	13.28
587.601	13.22
587.797	13.14
587.992	13.17
588.187	13.19
588.383	13.18
588.578	13.17
588.773	13.17
588.968	13.18
589.163	13.25
589.359	13.3
589.554	13.26
589.749	13.31
589.944	13.34
590.139	13.28
590.334	13.24
590.529	13.25
590.724	13.33
590.919	13.32
591.114	13.36
591.309	13.31
591.504	13.28
591.699	13.2
591.894	13.18
592.089	13.19
592.284	13.32
592.479	13.43
592.674	13.49
592.869	13.49
593.064	13.48
593.259	13.46
593.454	13.36
593.648	13.36
593.843	13.37
594.038	13.36
594.233	13.38
594.428	13.43
594.622	13.46
594.817	13.43
595.012	13.45
595.206	13.56
595.401	13.67
595.596	13.64
595.79	13.74
595.985	13.84
596.18	13.85
596.374	13.84
596.569	13.94
596.763	14.05
596.958	14.06
597.153	13.95
597.347	14.04
597.542	14.07
597.736	14.12
597.931	14.14
598.125	14.27
598.319	14.31
598.514	14.29
598.708	14.28
598.903	14.32
599.097	14.41
599.291	14.37
599.486	14.38
599.68	14.33
599.874	14.28
600.069	14.28
600.263	14.23
600.457	14.35
600.651	14.4
600.846	14.49
601.04	14.39
601.234	14.43
601.428	14.38
601.622	14.43
601.817	14.49
602.011	14.47
602.205	14.51
602.399	14.65
602.593	14.63
602.787	14.53
602.981	14.69
603.175	14.74
603.369	14.68
603.563	14.72
603.757	14.8
603.951	14.72
604.145	14.55
604.339	14.5
604.533	14.4
604.727	14.33
604.921	14.36
605.115	14.4
605.309	14.32
605.502	14.35
605.696	14.31
605.89	14.27
606.084	14.36
606.278	14.39
606.471	14.38
606.665	14.33
606.859	14.22
607.053	14.17
607.246	14.16
607.44	14.08
607.634	14.07
607.827	14.12
608.021	14.02
608.214	13.91
608.408	13.92
608.602	13.95
608.795	13.94
608.989	13.91
609.182	13.89
609.376	13.86
609.569	13.71
609.763	13.61
609.956	13.59
610.15	13.46
610.343	13.38
610.537	13.33
610.73	13.3
610.923	13.34
611.117	13.42
611.31	13.41
611.504	13.4
611.697	13.44
611.89	13.27
612.083	13.17
612.277	13.09
612.47	13.05
612.663	12.93
612.856	12.95
613.05	12.93
613.243	12.87
613.436	12.81
613.629	12.73
613.822	12.7
614.015	12.7
614.209	12.64
614.402	12.66
614.595	12.74
614.788	12.62
614.981	12.46
615.174	12.44
615.367	12.33
615.56	12.23
615.753	12.27
615.946	12.32
616.139	12.29
616.332	12.26
616.525	12.13
616.718	12.01
616.911	11.98
617.103	11.89
617.296	11.94
617.489	12.02
617.682	12.06
617.875	12.09
618.067	12.11
618.26	12.02
618.453	11.89
618.646	11.89
618.838	11.75
619.031	11.72
619.224	11.63
619.417	11.72
619.609	11.65
619.802	11.69
619.994	11.65
620.187	11.71
620.38	11.65
620.572	11.59
620.765	11.63
620.957	11.63
621.15	11.65
621.342	11.62
621.535	11.65
621.727	11.53
621.92	11.46
622.112	11.42
622.305	11.42
622.497	11.4
622.69	11.37
622.882	11.41
623.074	11.39
623.267	11.28
623.459	11.31
623.651	11.37
623.844	11.28
624.036	11.33
624.228	11.43
624.42	11.38
624.613	11.33
624.805	11.43
624.997	11.35
625.189	11.33
625.381	11.4
625.574	11.41
625.766	11.37
625.958	11.32
626.15	11.35
626.342	11.16
626.534	11.15
626.726	11.12
626.918	11.07
627.11	10.93
627.302	11.03
627.494	10.97
627.686	10.98
627.878	11.07
628.07	11.09
628.262	11.06
628.454	11.03
628.646	11.08
628.838	11.06
629.029	11.04
629.221	10.97
629.413	10.98
629.605	10.88
629.797	10.8
629.989	10.83
630.18	10.83
630.372	10.75
630.564	10.74
630.755	10.74
630.947	10.74
631.139	10.68
631.33	10.71
631.522	10.75
631.714	10.68
631.905	10.64
632.097	10.7
632.289	10.75
632.48	10.75
632.672	10.74
632.863	10.66
633.055	10.62
633.246	10.59
633.438	10.5
633.629	10.49
633.821	10.55
634.012	10.55
634.203	10.5
634.395	10.56
634.586	10.71
634.777	10.75
634.969	10.76
635.16	10.8
635.351	10.7
635.543	10.6
635.734	10.55
635.925	10.56
636.117	10.53
636.308	10.67
636.499	10.66
636.69	10.63
636.881	10.63
637.073	10.64
637.264	10.6
637.455	10.55
637.646	10.55
637.837	10.51
638.028	10.47
638.219	10.37
638.41	10.43
638.601	10.48
638.792	10.52
638.983	10.56
639.174	10.6
639.365	10.55
639.556	10.52
639.747	10.57
639.938	10.61
640.129	10.62
640.32	10.7
640.511	10.7
640.701	10.62
640.892	10.61
641.083	10.66
641.274	10.58
641.465	10.56
641.655	10.61
641.846	10.63
642.037	10.62
642.228	10.63
642.418	10.6
642.609	10.53
642.8	10.45
642.99	10.34
643.181	10.33
643.372	10.33
643.562	10.32
643.753	10.32
643.943	10.33
644.134	10.35
644.324	10.41
644.515	10.43
644.705	10.44
644.896	10.52
645.086	10.47
645.277	10.4
645.467	10.39
645.658	10.38
645.848	10.28
646.038	10.35
646.229	10.36
646.419	10.36
646.61	10.38
646.8	10.48
646.99	10.51
647.18	10.46
647.371	10.39
647.561	10.37
647.751	10.31
647.941	10.22
648.132	10.29
648.322	10.34
648.512	10.39
648.702	10.46
648.892	10.4
649.082	10.29
649.272	10.31
649.462	10.27
649.653	10.2
649.843	10.26
650.033	10.35
650.223	10.28
650.413	10.22
650.603	10.21
650.793	10.16
650.983	10.09
651.172	10.15
651.362	10.1
651.552	10.06
651.742	9.96
651.932	10
652.122	9.95
652.312	9.98
652.502	9.97
652.691	10.06
652.881	10.09
653.071	10.13
653.261	10.05
653.45	9.94
653.64	9.88
653.83	9.79
654.019	9.66
654.209	9.64
654.399	9.63
654.588	9.63
654.778	9.6
654.968	9.59
655.157	9.63
655.347	9.65
655.536	9.54
655.726	9.43
655.915	9.4
656.105	9.24
656.294	9.09
656.484	9.05
656.673	9.01
656.863	9.04
657.052	9.11
657.241	9.18
657.431	9.21
657.62	9.26
657.809	9.12
657.999	9.08
658.188	9.06
658.377	8.96
658.567	8.83
658.756	8.79
658.945	8.73
659.134	8.59
659.324	8.56
659.513	8.54
659.702	8.49
659.891	8.43
660.08	8.37
660.269	8.31
660.458	8.19
660.648	8.23
660.837	8.14
661.026	8.09
661.215	8.1
661.404	8.17
661.593	8.1
661.782	8.06
661.971	8.14
662.16	8.12
662.349	8.02
662.538	8.01
662.726	7.96
662.915	7.89
663.104	7.83
663.293	7.76
663.482	7.65
663.671	7.83
663.86	7.83
664.048	7.94
664.237	8.1
664.426	8.19
664.615	8.06
664.803	8.05
664.992	7.88
665.181	7.79
665.369	7.73
665.558	7.71
665.747	7.75
665.935	7.89
666.124	7.85
666.312	7.83
666.501	7.91
666.69	7.91
666.878	7.87
667.067	7.93
667.255	8.11
667.444	8.16
667.632	8.22
667.82	8.2
668.009	8.28
668.197	8.16
668.386	8.09
668.574	8.08
668.762	8.29
668.951	8.43
669.139	8.44
669.327	8.47
669.516	8.45
669.704	8.39
669.892	8.23
670.08	8.27
670.269	8.31
670.457	8.39
670.645	8.36
670.833	8.5
671.021	8.62
671.21	8.81
671.398	8.76
671.586	8.67
671.774	8.61
671.962	8.64
672.15	8.59
672.338	8.7
672.526	8.84
672.714	9.07
672.902	9.01
673.09	8.93
673.278	9
673.466	9.18
673.654	9.26
673.842	9.47
674.03	9.72
674.218	9.76
674.405	9.74
674.593	9.75
674.781	9.75
674.969	9.61
675.157	9.71
675.344	9.66
675.532	9.75
675.72	9.92
675.908	10.02
676.095	10.07
676.283	10.26
676.471	10.09
676.658	9.97
676.846	10.04
677.033	10.12
677.221	10.15
677.409	10.21
677.596	10.38
677.784	10.41
677.971	10.36
678.159	10.42
678.346	10.57
678.534	10.52
678.721	10.65
678.909	10.79
679.096	10.8
679.283	10.77
679.471	10.74
679.658	10.71
679.846	10.63
680.033	10.77
680.22	10.79
680.408	10.83
680.595	10.88
680.782	10.88
680.969	10.74
681.157	10.67
681.344	10.82
681.531	10.89
681.718	10.92
681.905	11.17
682.093	11.37
682.28	11.46
682.467	11.53
682.654	11.67
682.841	11.49
683.028	11.53
683.215	11.55
683.402	11.51
683.589	11.52
683.776	11.77
683.963	11.85
684.15	11.9
684.337	11.92
684.524	12.18
684.711	12.1
684.898	12.15
685.085	12.18
685.271	12.34
685.458	12.29
685.645	12.26
685.832	12.06
686.019	11.96
686.205	11.97
686.392	11.9
686.579	12.14
686.766	12.44
686.952	12.72
687.139	12.89
687.326	13.05
687.512	13
687.699	13
687.886	13.08
688.072	13.06
688.259	13.16
688.445	13.29
688.632	13.52
688.818	13.65
689.005	13.79
689.191	14.04
689.378	14.39
689.564	14.55
689.751	14.67
689.937	15.03
690.124	15.01
690.31	14.97
690.496	15.46
690.683	15.78
690.869	15.86
691.055	16.27
691.242	16.84
691.428	16.79
691.614	16.93
691.8	17.39
691.987	17.83
692.173	18.12
692.359	18.57
692.545	18.93
692.731	19.17
692.918	19.4
693.104	19.68
693.29	19.88
693.476	20.37
693.662	20.73
693.848	21.14
694.034	21.46
694.22	22.06
694.406	22.43
694.592	22.68
694.778	22.93
694.964	23.4
695.15	23.79
695.336	24.01
695.522	24.61
695.708	25.02
695.894	25.33
696.08	25.82
696.265	26.39
696.451	26.94
696.637	27.5
696.823	28.02
697.009	28.34
697.194	28.54
697.38	28.88
697.566	29.54
697.751	29.99
697.937	30.31
698.123	31.28
698.308	31.51
698.494	31.85
698.68	32.22
698.865	32.9
699.051	33.12
699.236	33.79
699.422	34.04
699.607	34.33
699.793	34.46
699.978	34.88
700.164	35.31
700.349	35.9
700.535	36.31
700.72	36.81
700.906	37.14
701.091	37.38
701.276	37.65
701.462	38.37
701.647	39.09
701.832	39.39
702.018	40.04
702.203	40.6
702.388	40.81
702.573	41.16
702.759	41.79
702.944	41.79
703.129	41.94
703.314	42.39
703.499	42.44
703.684	42.63
703.87	43.04
704.055	43.46
704.24	43.92
704.425	44.14
704.61	44.63
704.795	45.27
704.98	45.57
705.165	45.64
705.35	46.27
705.535	46.45
705.72	46.52
705.905	46.74
706.09	47.14
706.275	47.22
706.459	47.34
706.644	47.73
706.829	48.12
707.014	48.34
707.199	48.93
707.384	49.07
707.568	49.33
707.753	49.29
707.938	49.41
708.123	49.07
708.307	49.37
708.492	49.34
708.677	49.77
708.861	50.04
709.046	50.25
709.231	50.47
709.415	50.53
709.6	50.66
709.784	50.85
709.969	51.15
710.153	51.26
710.338	51.74
710.522	52.16
710.707	52.18
710.891	52.5
711.076	52.99
711.26	52.94
711.445	53.08
711.629	53.53
711.813	53.62
711.998	53.79
712.182	53.71
712.366	53.88
712.551	53.78
712.735	53.88
712.919	53.5
713.103	54.32
713.288	54.12
713.472	54.02
713.656	54.31
713.84	54.66
714.024	54.7
714.208	54.74
714.393	54.63
714.577	54.56
714.761	54.71
714.945	54.97
715.129	55.35
715.313	56.21
715.497	56.33
715.681	56.74
715.865	56.56
716.049	56.51
716.233	56.24
716.417	56.62
716.601	56.6
716.785	56.88
716.968	56.89
717.152	57.38
717.336	57.67
717.52	57.8
717.704	57.78
717.888	58.2
718.071	58.62
718.255	58.5
718.439	58.58
718.622	58.32
718.806	58.52
718.99	57.95
719.174	57.31
719.357	57.36
719.541	57.82
719.724	57.28
719.908	57.48
720.092	58.14
720.275	58.03
720.459	58.18
720.642	58.75
720.826	59.03
721.009	59.4
721.193	59.48
721.376	59.76
721.559	60.35
721.743	60.74
721.926	60.58
722.11	60.81
722.293	60.42
722.476	60.43
722.66	60.33
722.843	60.73
723.026	61.18
723.21	61.59
723.393	61.43
723.576	61.53
723.759	61.35
723.942	61.46
724.126	61.94
724.309	62.13
724.492	62.36
724.675	62.66
724.858	63.13
725.041	62.78
725.224	62.58
725.407	63.01
725.59	63.65
725.774	63.47
725.957	63.96
726.14	64.62
726.322	64.28
726.505	64.05
726.688	64.44
726.871	64.59
727.054	64.64
727.237	65.06
727.42	65.34
727.603	65.49
727.786	65.76
727.968	65.64
728.151	65.67
728.334	65.69
728.517	65.51
728.699	65.1
728.882	65.65
729.065	66.08
729.248	66.09
729.43	66.51
729.613	67.47
729.796	68.07
729.978	68.31
730.161	68.25
730.343	69
730.526	69.42
730.708	68.82
730.891	68.59
731.073	68.89
731.256	68.63
731.438	67.27
731.621	67.54
731.803	67.89
731.986	68.77
732.168	68.77
732.35	69.51
732.533	69.96
732.715	70.36
732.898	69.66
733.08	70.64
733.262	71.49
733.444	71.47
733.627	71.84
733.809	72.77
733.991	72.66
734.173	72.99
734.355	73.32
734.538	72.82
734.72	73.16
734.902	73.36
735.084	73.64
735.266	74.08
735.448	75.06
735.63	75.52
735.812	75.42
735.994	74.39
736.176	74.36
736.358	74.74
736.54	73.89
736.722	73.88
736.904	75.12
737.086	74.93
737.268	74.2
737.45	74.86
737.632	74.94
737.814	74.49
737.995	75.87
738.177	76.4
738.359	76.36
738.541	75.84
738.723	76.16
738.904	74.92
739.086	75.46
739.268	75.94
739.449	77.03
739.631	77.24
739.813	78.45
739.994	78.45
740.176	78.38
740.358	78.45
740.539	78.49
740.721	77.64
740.902	77.44
741.084	77.57
741.265	76.97
741.447	77.02
741.628	77.51
741.81	78.12
741.991	79.18
742.172	79.7
742.354	80.04
742.535	80.1
742.717	79.79
742.898	79.39
743.079	79.57
743.261	79.89
743.442	80.68
743.623	80.97
743.804	81.11
743.986	80.95
744.167	80.81
744.348	80.98
744.529	80.57
744.71	81.32
744.891	82.46
745.073	81.92
745.254	82.29
745.435	83.06
745.616	82.51
745.797	82.23
745.978	83.16
746.159	82.7
746.34	83.4
746.521	83.76
746.702	83.96
746.883	84.37
747.064	83.48
747.245	81.44
747.426	81.49
747.606	80.85
747.787	80.44
747.968	82.13
748.149	82.6
748.33	81.14
748.51	80.75
748.691	79.83
748.872	78.3
749.053	78.56
749.233	79.49
749.414	80.45
749.595	81.4
749.775	82.1
749.956	82.24
750.137	81.24
750.317	80.3
750.498	80.02
750.678	81.02
750.859	82.94
751.04	83.08
751.22	83.81
751.4	84.2
751.581	83.6
751.761	82.56
751.942	83.87
752.122	84.91
752.303	84.36
752.483	84.7
752.663	85.1
752.844	84.85
753.024	84.34
753.204	85.39
753.385	83.95
753.565	84.25
753.745	84.52
753.925	85.29
754.106	83.64
754.286	83.95
754.466	83.04
754.646	83.6
754.826	83.35
755.006	84.61
755.187	85.12
755.367	86.12
755.547	83.24
755.727	81.5
755.907	81.19
756.087	81.85
756.267	80.76
756.447	82.78
756.627	83.34
756.807	85.07
756.987	83.89
757.167	84.27
757.346	84.79
757.526	85.71
757.706	83.59
757.886	84.47
758.066	83.45
758.246	82.57
758.425	82.87
758.605	83.4
758.785	83.87
758.965	86.53
759.144	87.21
759.324	86.67
759.504	87.26
759.683	86.77
759.863	84.33
760.043	83.94
760.222	84.55
760.402	84.23
760.581	85.52
760.761	86.56
760.94	86.08
761.12	85.48
761.299	86.89
761.479	85.11
761.658	83.91
761.838	83.06
762.017	82.51
762.197	81.01
762.376	81.93
762.555	81.16
762.735	82.24
762.914	80.6
763.093	80.6
763.273	78.97
763.452	80.43
763.631	81.7
763.81	83.78
763.99	84.83
764.169	84.89
764.348	83.72
764.527	81.86
764.706	81.89
764.885	81.54
765.064	82.05
765.243	81.39
765.423	81.23
765.602	80.68
765.781	79.61
765.96	79
766.139	80.12
766.318	80.89
766.497	80.61
766.676	80.58
766.854	80.82
767.033	80.61
767.212	81.53
767.391	81.59
767.57	81.71
767.749	83.49
767.928	83.9
768.106	81.92
768.285	82.45
768.464	82.49
768.643	80.94
768.821	79.45
769	79.95
769.179	79.49
769.357	79.56
769.536	80.28
769.715	80.95
769.893	80.51
770.072	82.09
770.25	80.64
770.429	81.09
770.607	80.46
770.786	82.63
770.964	81.88
771.143	84.21
771.321	84.23
771.5	87.93
771.678	85.93
771.857	84.8
772.035	82.23
772.213	81.54
772.392	78.63
772.57	81.11
772.748	79.98
772.927	83.01
773.105	81.54
773.283	82.49
773.461	80.39
773.64	82.53
773.818	79.51
773.996	79.43
774.174	78.39
774.352	77.29
774.531	74.75
774.709	77.36
774.887	78.05
775.065	78.42
775.243	79.05
775.421	78.03
775.599	75.97
775.777	74.83
775.955	72.85
776.133	74.26
776.311	76.59
776.489	80.08
776.667	80.67
776.844	83.35
777.022	83.22
777.2	85.68
777.378	82.39
777.556	81.64
777.734	81.81
777.911	81.29
778.089	79.28
778.267	80.35
778.445	83.67
778.622	81.75
778.8	81.7
778.978	79
779.155	76.46
779.333	73.98
779.511	72.07
779.688	70.1
779.866	71.39
780.043	74.31
780.221	72.44
780.398	76.21
780.576	73.88
780.753	75.26
780.931	77.17
781.108	78.32
781.286	77.44
781.463	81.06
781.64	81.44
781.818	80.12
781.995	81.09
782.172	80.23
782.35	80.02
782.527	77.62
782.704	77.53
782.882	78.34
783.059	77.38
783.236	76.6
783.413	81.19
783.59	77.96
783.768	74.75
783.945	78.75
784.122	82.06
784.299	80.12
784.476	80.61
784.653	84.41
784.83	84.49
785.007	82.97
785.184	82.57
785.361	82.1
785.538	82.71
785.715	80.57
785.892	78.74
786.069	76.85
786.246	79.6
786.423	79.89
786.6	80.84
786.776	78.81
786.953	81.6
787.13	78.94
787.307	77.03
787.484	78.67
787.66	81.17
787.837	80.02
788.014	80.37
788.191	82.8
788.367	77.84
788.544	77.8
788.721	79.13
788.897	79.03
789.074	76.95
789.25	76.68
789.427	76.54
789.603	78.7
789.78	80.65
789.956	80.94
790.133	80.82
790.309	81.58
790.486	78.12
790.662	76.56
790.839	76.9
791.015	80.87
791.192	80.41
791.368	82.53
791.544	80.92
791.721	81.88
791.897	79.75
792.073	76.6
792.249	73.1
792.426	78.35
792.602	76.22
792.778	74.04
792.954	75.26
793.13	74.29
793.307	70.99
793.483	72.33
793.659	73.09
793.835	76.34
794.011	80.51
794.187	78.04
794.363	80.28
794.539	85.42
794.715	76.51
794.891	70.85
795.067	71.66
795.243	68.57
795.419	65.38
795.595	71.61
795.771	71.83
795.947	73.32
796.122	68.24
796.298	67.11
796.474	67.53
796.65	71.76
796.826	71.49
797.001	74.1
797.177	76.17
797.353	74.7
797.529	77.93
797.704	81.42
797.88	84.15
798.056	79.27
798.231	77.77
798.407	71.6
798.582	64.93
798.758	66.11
798.934	67.99
799.109	71.51
799.285	72.92
799.46	80.58
799.636	85.53
799.811	87.58
799.986	87.49
800.162	91.35
800.337	86.37
800.513	77.86
800.688	75.66
800.863	75.96
801.039	76.88
801.214	75.43
801.389	77.57
801.565	80.51
801.74	76.72
801.915	72.17
802.09	67.28
802.265	67.45
802.441	70.08
802.616	69
802.791	74.93
802.966	84.09
803.141	80.55
803.316	75.8
803.491	71.7
803.666	63.1
803.841	57.5
804.016	61.85
804.191	64.62
804.366	77.1
804.541	79.33
804.716	83.24
804.891	81.58
805.066	80.79
805.241	74.14
805.416	71.41
805.591	71.13
805.765	66.94
805.94	65.95
806.115	62.49
806.29	63.4
806.464	69.44
806.639	74.11
806.814	71.63
806.989	75
807.163	84.96
807.338	83.84
807.512	83.66
807.687	82.73
807.862	84.56
808.036	80.56
808.211	77.26
808.385	76.85
808.56	79.34
808.734	80.94
808.909	79.44
809.083	81.57
809.258	80.96
809.432	75.14
809.606	68.73
809.781	64.71
809.955	65.68
810.13	65.38
810.304	71.17
810.478	72.76
810.652	76.28
810.827	68.58
811.001	66.17
811.175	64.48
811.349	65.99
811.524	69.26
811.698	79.87
811.872	85.93
812.046	95.98
812.22	94.87
812.394	83.84
812.568	81.58
812.742	79.31
812.916	68.59
813.09	76.81
813.264	85.29
813.438	79.12
813.612	85.24
813.786	84.32
813.96	72.23
814.134	63.2
814.308	66.12
814.482	60.14
814.656	66.32
814.83	56
815.003	65.64
815.177	67.3
815.351	66.71
815.525	65.46
815.698	65.18
815.872	59.47
816.046	59.15
816.219	61.96
816.393	77.31
816.567	101.83
816.74	113.55
816.914	121.62
817.088	143.2
817.261	140.43
817.435	123.75
817.608	101.44
817.782	93.2
817.955	78.14
818.129	89.98
818.302	79.68
818.475	88.19
818.649	97.06
818.822	93.56
818.996	68.14
819.169	68.95
819.342	78.15
819.516	67.74
819.689	80.24
819.862	89.42
820.035	85.9
820.209	73.65
820.382	78.34
820.555	73.17
820.728	78.26
820.901	72.12
821.075	83.56
821.248	81.26
821.421	77.24
821.594	68.38
821.767	74.84
821.94	73.96
822.113	58.54
822.286	51.37
822.459	46.01
822.632	56.58
822.805	60.38
822.978	72.73
823.151	79.04
823.324	87.83
823.496	70.06
823.669	58.82
823.842	59.27
824.015	39.76
824.188	40.82
824.361	49.74
824.533	52.02
824.706	53.52
824.879	70.42
825.051	66.22
825.224	65.79
825.397	62.44
825.569	57.43
825.742	60.67
825.915	45.31
826.087	46.38
826.26	44.52
826.432	58.54
826.605	46.93
826.777	65.83
826.95	87.83
827.122	92.12
827.295	73.02
827.467	75.96
827.64	46.11
827.812	28.74
827.984	35.01
828.157	32.3
828.329	50.39
828.501	84.52
828.674	82.58
828.846	66.16
829.018	74.78
829.19	50.37
829.363	36.93
829.535	46.66
829.707	57.84
829.879	38.05
830.051	39.85
830.223	61.03
830.395	44.21
830.568	33.33
830.74	61.76
830.912	61.54
831.084	51.29
831.256	53.43
831.428	63.33
831.6	60.57
831.772	89.23
831.943	56.03
832.115	50.69
832.287	52.05
832.459	37.09
832.631	16.25
832.803	46.23
832.975	37.87
833.146	44.9
833.318	47.74
833.49	51.52
833.662	53.78
833.833	70.95
834.005	68.47
834.177	75.42
834.348	95.83
834.52	97.59
834.692	107.4
834.863	115.43
835.035	105.4
835.206	85.56
835.378	82.14
835.549	79.36
835.721	70.73
835.892	64.9
836.064	81.6
836.235	104
836.407	115.36
836.578	118.94
836.749	122.54
836.921	102.59
837.092	93.56
837.264	83.66
837.435	62.87
837.606	59.16
837.777	23.54
837.949	35.58
838.12	-7.96
838.291	34.25
838.462	66.23
838.633	82.01
838.805	93.34
838.976	128.11
839.147	104.63
839.318	106.29
839.489	63.74
839.66	58.5
839.831	48.4
840.002	-8.35
840.173	-45.84
840.344	27.51
840.515	-3.71
840.686	-14.79
840.857	23.5
841.028	35.75
841.199	18.52
841.369	26.68
841.54	27.81
841.711	35.48
841.882	28.97
842.053	42.62
842.223	44.99
842.394	36.15
842.565	35.29
842.736	43.36
842.906	20.16
843.077	33
843.248	39.52
843.418	39.68
843.589	29.43
843.759	55.02
843.93	-387.35
844.101	-370.49
844.271	11.02
844.442	53.72
844.612	62.37
844.783	104.65
844.953	86.52
845.123	81.81
845.294	69.51
845.464	62.96
845.635	53.76
845.805	83.48
845.975	59.76
846.146	93.4
846.316	19.48
846.486	74.38
846.656	55.73
846.827	68.25
846.997	46.54
847.167	73.82
847.337	61.9
847.507	70.63
847.677	53.89
847.848	78.66
848.018	79.17
848.188	113.28
848.358	106.33
848.528	155.75
848.698	111.83
848.868	112.77
849.038	74.99
849.208	38
849.378	40.37
849.548	57.05
849.718	-31.13
849.887	121.69
850.057	-845.16
850.227	998.28
850.397	1303.36
850.567	-2.83
850.737	31.68
850.906	37.96
851.076	78.06
851.246	73.09
851.415	41.47
851.585	66.27
851.755	56.23
851.924	49.06
852.094	51.42
852.264	54.03
852.433	26.2
852.603	47.27
852.772	47.6
852.942	48.29
853.111	24.49
853.281	52.58
853.45	41.42
853.62	74.9
853.789	24.28
853.959	9.64
854.128	41.91
854.297	98.03
854.467	205.32
854.636	-102.13
854.805	71.94
854.975	54.08
855.144	54.18
855.313	38.29
855.482	50.54
855.652	33.22
855.821	35.75
855.99	45.83
856.159	119.04
856.328	110.88
856.497	75.57
856.667	100.71
856.836	122.6
857.005	106.43
857.174	76.69
857.343	135.22
857.512	118.19
857.681	107.16
857.85	112.91
858.019	99.37
858.188	61.68
858.356	19.66
858.525	17.85
858.694	5.96
858.863	-6.74
859.032	-22.52
859.201	11.37
859.369	16.25
859.538	27.06
859.707	27.54
859.876	22.48
860.044	26.51
860.213	47.82
860.382	71.79
860.55	46.68
860.719	65.16
860.888	70.98
861.056	81.4
861.225	62.59
861.393	145.44
861.562	228.41
861.73	248.96
861.899	185.69
862.067	355.97
862.236	199.13
862.404	36.04
862.572	-16.21
862.741	-277.06
862.909	17.25
863.078	57.85
863.246	87.07
863.414	114.03
863.582	96.45
863.751	102.06
863.919	112.6
864.087	69.6
864.255	37.29
864.424	-59.27
864.592	-24.19
864.76	-11.48
864.928	-2.69
865.096	20.45
865.264	30.36
865.432	73.11
865.6	118.49
865.768	50.99
865.936	60.02
866.104	53.15
866.272	66.3
866.44	11.2
866.608	111.61
866.776	64.64
866.944	62.68
867.112	22.42
867.28	3.91
867.448	-36.7
867.615	-13.87
867.783	41.89
867.951	43.26
868.119	74.33
868.286	101.53
868.454	26.7
868.622	9.72
868.789	195.88
868.957	-131.22
869.125	-81.85
869.292	905.21
869.46	-328.81
869.627	-396.57
869.795	-54.69
869.963	4.33
870.13	0.07
870.298	27.66
870.465	57.42
870.632	48.63
870.8	38.62
870.967	42.54
871.135	-113.3
871.302	317.35
871.469	1.52
871.637	21.54
871.804	-23.11
871.971	-34.79
872.139	-24.73
872.306	-20.44
872.473	-451.26
872.64	-25.51
872.807	49.95
872.975	-15.58
873.142	-2.85
873.309	34.93
873.476	41.09
873.643	65.25
873.81	71.31
873.977	72.55
874.144	54.56
874.311	88.67
874.478	-108.78
874.645	-176.53
874.812	-1335.55
874.979	-195.78
875.146	-87.7
875.313	-449.26
875.48	305.34
875.647	-235.05
875.813	-1045.57
875.98	761.37
876.147	-56.48
876.314	-16.15
876.481	17.85
876.647	26.37
876.814	25.14
876.981	100.53
877.147	54.48
877.314	-30.8
877.481	-31.83
877.647	-15.8
877.814	-133.42
877.98	-60.82
878.147	27.99
878.314	79.79
878.48	481.78
878.647	10.27
878.813	-576.98
878.979	18.21
879.146	5.2
879.312	-13.26
879.479	50.62
879.645	76.15
879.811	35.3
879.978	9.58
880.144	-81.91
880.31	-154.83
880.477	1222.82
880.643	407.57
880.809	-912.2
880.975	332.66
881.142	-145.81
881.308	-155.91
881.474	-8.53
881.64	20.87
881.806	17.59
881.972	81.06
882.138	89.52
882.304	94.93
882.47	74.18
882.636	92.83
882.802	95.1
882.968	93.89
883.134	74.09
883.3	112.32
883.466	122.94
883.632	125.86
883.798	110.57
883.964	107.99
884.129	75.78
884.295	-139.1
884.461	-541.69
884.627	918.22
884.793	109.52
884.958	145.53
885.124	-512.87
885.29	39.04
885.455	105.23
885.621	30.82
885.787	8.55
885.952	-61.59
886.118	-40.52
886.283	-9.23
886.449	-45.35
886.614	40.55
886.78	118.55
886.945	114.53
887.111	109.41
887.276	109.84
887.442	147.02
887.607	123.49
887.773	147.88
887.938	104
888.103	113.47
888.269	-32.15
888.434	5847.06
888.599	-55.81
888.764	1.94
888.93	63.81
889.095	64.43
889.26	119.35
889.425	157.12
889.59	108.04
889.756	96.11
889.921	62.3
890.086	14.25
890.251	-23.8
890.416	-36.5
890.581	-87.54
890.746	-88.53
890.911	-36.04
891.076	-85.56
891.241	-118.61
891.406	1228.57
891.571	288.12
891.736	-105.63
891.901	-36.38
892.065	-41.14
892.23	84.43
892.395	182.2
892.56	1867.11
892.725	-352.32
892.889	-773.12
893.054	-1945.7
893.219	-2761.15
893.384	-506.8
893.548	-615.85
893.713	-287.19
893.878	-371.73
