Data from Ofav_PP_Phys_3JQ1_Reflection_2.txt Node
Date: Tue Aug 03 18:10:20 EDT 2021
User: Adam
Spectrometer: FLMT01687
Trigger mode: 0
Integration Time (sec): 8.750000E-1
Scans to average: 2
Electric dark correction enabled: true
Nonlinearity correction enabled: false
Boxcar width: 2
XAxis mode: Wavelengths
Number of Pixels in Spectrum: 3648
>>>>>Begin Spectral Data<<<<<
179.494	148.65
179.716	162.43
179.937	206.72
180.158	233.86
180.38	605.26
180.601	55.56
180.823	123.84
181.044	29.68
181.265	115.57
181.486	-132.84
181.708	39.82
181.929	101.5
182.15	27.2
182.372	175.95
182.593	-13.92
182.814	3.3
183.035	593.62
183.257	805.88
183.478	-23.18
183.699	-340.96
183.92	-86.07
184.141	-73.71
184.363	-48.04
184.584	-161.48
184.805	-20.77
185.026	-41.59
185.247	-16.7
185.468	-1.93
185.689	11.37
185.91	15.54
186.132	-6.09
186.353	-0.97
186.574	-32.87
186.795	6.39
187.016	-11.59
187.237	10.77
187.458	17.02
187.679	8.19
187.9	-8.8
188.121	-2.33
188.342	-36.28
188.563	-39.21
188.784	-24.93
189.005	-43.39
189.226	-55.74
189.447	-31.81
189.667	-29.3
189.888	-47.9
190.109	-10.77
190.33	3.94
190.551	6.47
190.772	17.11
190.993	12.64
191.214	-7.99
191.434	-12.55
191.655	-26.68
191.876	-27.53
192.097	-5.42
192.318	14.72
192.538	15.49
192.759	45.4
192.98	55.28
193.201	40.2
193.421	46.16
193.642	35.32
193.863	26.6
194.083	10.04
194.304	23.37
194.525	-23.54
194.745	19.29
194.966	19.52
195.187	41.44
195.407	45.22
195.628	39.21
195.848	37.81
196.069	48.24
196.29	17.83
196.51	-4.76
196.731	29.81
196.951	20.84
197.172	14.25
197.392	40.25
197.613	52.8
197.833	38.57
198.054	64.75
198.274	29.69
198.495	22.69
198.715	32.77
198.936	33.93
199.156	12.05
199.377	-0.75
199.597	13.52
199.817	8.61
200.038	-6.29
200.258	-43.11
200.479	-71.18
200.699	-100
200.919	-143.03
201.14	-24.69
201.36	4.64
201.58	5.38
201.801	-11.06
202.021	-2.8
202.241	-35.52
202.461	-37.77
202.682	-13.02
202.902	-16.36
203.122	-6.4
203.342	2.82
203.563	4.87
203.783	1.02
204.003	17.07
204.223	14.84
204.443	-17.75
204.663	-14.82
204.884	-18.98
205.104	-38.65
205.324	-35.08
205.544	-2.91
205.764	-4.8
205.984	-34.07
206.204	9
206.424	-23.99
206.644	-5.07
206.864	-19.92
207.084	-5.51
207.304	-25.6
207.525	-0.53
207.745	-5.91
207.964	-16.19
208.184	-3.41
208.404	-8.53
208.624	-8.96
208.844	-8.88
209.064	8.39
209.284	16.51
209.504	14.58
209.724	-7.83
209.944	-20.26
210.164	-81.5
210.384	-93.3
210.604	-98.12
210.823	-120.08
211.043	-35.37
211.263	-3.84
211.483	-13.59
211.703	16.6
211.922	5.06
212.142	-6.74
212.362	-20.11
212.582	2.81
212.801	-34.46
213.021	-27.94
213.241	-39.71
213.461	5.47
213.68	5.35
213.9	14.8
214.12	9.75
214.339	6.45
214.559	-9.53
214.779	2.92
214.998	7.6
215.218	31.63
215.438	38.3
215.657	33.26
215.877	28.77
216.096	8.73
216.316	-17.67
216.535	-41.86
216.755	-48.46
216.974	-48.22
217.194	-11.53
217.413	11.59
217.633	7.95
217.852	20.23
218.072	19.4
218.291	-7.31
218.511	-18.04
218.73	-6.13
218.95	1.05
219.169	0.29
219.389	7.11
219.608	6.89
219.827	-6.58
220.047	-29.69
220.266	-4.19
220.485	17.4
220.705	27.93
220.924	24.66
221.143	36.57
221.363	36.48
221.582	-3.76
221.801	-31.38
222.021	-3.33
222.24	-0.89
222.459	-38.96
222.678	9.25
222.897	16.94
223.117	-10.65
223.336	-248.2
223.555	-124.07
223.774	-73.82
223.993	-46.64
224.213	-40.52
224.432	18.79
224.651	23.41
224.87	-0.75
225.089	0.52
225.308	-13.53
225.527	-38.56
225.746	-71.81
225.965	-31.61
226.184	-93.12
226.404	7.67
226.623	39.97
226.842	36.67
227.061	-10.97
227.28	13.18
227.499	5.34
227.718	11.05
227.936	23.2
228.155	44.93
228.374	54.64
228.593	56.12
228.812	32.82
229.031	9.65
229.25	38.5
229.469	-0.95
229.688	-67.09
229.907	-144.86
230.125	-101.25
230.344	-113.51
230.563	-56.68
230.782	-16.74
231.001	26.31
231.22	16.62
231.438	5.6
231.657	-28.14
231.876	-24.3
232.095	-29.32
232.313	-28.1
232.532	-40.74
232.751	-3.68
232.969	-8.4
233.188	3.39
233.407	-10.16
233.625	31.56
233.844	17.71
234.063	33.9
234.281	16.34
234.5	18.51
234.719	8.46
234.937	11.32
235.156	-33.57
235.374	-25.46
235.593	-21.61
235.811	-27.7
236.03	-2.38
236.249	23.56
236.467	18.17
236.686	14.26
236.904	12.78
237.123	2.14
237.341	5.02
237.559	18.13
237.778	29.6
237.996	25.88
238.215	9.63
238.433	14.63
238.652	9.12
238.87	12.92
239.088	22.03
239.307	32.4
239.525	13.98
239.743	25.46
239.962	23.46
240.18	15.59
240.398	38.96
240.617	59.42
240.835	33.03
241.053	19.02
241.271	-31.42
241.49	-40.58
241.708	-19.57
241.926	-12.25
242.144	-4.75
242.363	33.16
242.581	16.14
242.799	4.64
243.017	2.34
243.235	23.11
243.453	10.8
243.672	22.98
243.89	31.22
244.108	32.12
244.326	-8.02
244.544	-11.45
244.762	-7.43
244.98	-32.48
245.198	-12.62
245.416	20.49
245.634	20.56
245.852	0.11
246.07	-6.92
246.288	-26.79
246.506	-13.22
246.724	-12.34
246.942	3.98
247.16	9.31
247.378	-8.7
247.596	-23.95
247.814	-5.92
248.032	-5.62
248.25	0.5
248.468	1.69
248.685	-0.26
248.903	-42.76
249.121	-57.27
249.339	-34.53
249.557	-12.7
249.775	-35.71
249.992	3.31
250.21	8.37
250.428	-2.61
250.646	-31.32
250.863	-14.32
251.081	-17.1
251.299	-37.15
251.517	-15.54
251.734	6.83
251.952	18.29
252.17	-1.35
252.387	-5.3
252.605	-46.93
252.823	-51.17
253.04	-54.29
253.258	5.4
253.475	32.56
253.693	22.56
253.911	38.24
254.128	55.56
254.346	43.09
254.563	34.46
254.781	56.18
254.998	27.31
255.216	15.01
255.433	-16.69
255.651	-13.37
255.868	-65.42
256.086	-69.94
256.303	-48.59
256.521	-29.79
256.738	-56.35
256.956	-16.16
257.173	-0.33
257.39	3
257.608	8.77
257.825	-11.54
258.043	-68.32
258.26	-32.11
258.477	-36.92
258.695	-28.85
258.912	-23.8
259.129	11.44
259.346	9.53
259.564	17.59
259.781	4.39
259.998	42.9
260.216	29.13
260.433	12.95
260.65	-3.67
260.867	-1.16
261.084	-26.7
261.302	-30.86
261.519	-19.05
261.736	4.5
261.953	-1.87
262.17	-5.6
262.387	1.37
262.604	3.32
262.822	-4.31
263.039	11.58
263.256	21.81
263.473	18.74
263.69	38.28
263.907	34.49
264.124	0.32
264.341	-27.76
264.558	-59.4
264.775	-78.27
264.992	-59.83
265.209	-46.77
265.426	-61.73
265.643	-30.56
265.86	-24.73
266.077	-18.23
266.294	-9.3
266.51	9.18
266.727	17.09
266.944	21.78
267.161	20.27
267.378	6.93
267.595	4.9
267.812	6.33
268.028	-7.72
268.245	-0.71
268.462	34.8
268.679	47.83
268.896	38.08
269.112	53.01
269.329	14.75
269.546	-41.02
269.763	-49.11
269.979	-21.05
270.196	-13.54
270.413	14.2
270.629	10.91
270.846	32.92
271.063	18.71
271.279	14.34
271.496	11.47
271.712	3.52
271.929	-9.21
272.146	13.88
272.362	7.1
272.579	-2.81
272.795	-4.45
273.012	1.98
273.228	-1.83
273.445	11.97
273.661	10.33
273.878	24.81
274.094	15.46
274.311	7.09
274.527	-7.69
274.744	22.97
274.96	3.81
275.177	-26.7
275.393	-10.71
275.609	-2.71
275.826	-40.72
276.042	-30.9
276.259	-2.76
276.475	-12.99
276.691	-20.48
276.908	-6.36
277.124	6.55
277.34	-8.16
277.557	-14.34
277.773	1.39
277.989	1.1
278.205	4.96
278.422	17.61
278.638	22.8
278.854	21.1
279.07	33.4
279.286	25.33
279.503	35.45
279.719	43.16
279.935	38.64
280.151	24.73
280.367	21.01
280.583	-14.84
280.799	4.05
281.016	-0.64
281.232	-3.59
281.448	-12.24
281.664	-25.97
281.88	-48.02
282.096	-17.57
282.312	-25.65
282.528	-28.59
282.744	-11.38
282.96	1.87
283.176	-8.73
283.392	4.24
283.608	19.66
283.824	18.48
284.04	16.6
284.256	9.21
284.471	7.28
284.687	6.8
284.903	18.03
285.119	-9.21
285.335	-8.63
285.551	-18.28
285.767	-22.13
285.982	-35.54
286.198	-1.64
286.414	-6.35
286.63	1.92
286.846	-0.24
287.061	-8.71
287.277	-34.14
287.493	-29.83
287.709	-64.59
287.924	-56.32
288.14	-45.18
288.356	-51.27
288.571	-42.56
288.787	-11.79
289.003	-27.01
289.218	-36.53
289.434	-12.2
289.65	-32.19
289.865	-30.22
290.081	-58.14
290.296	-20.1
290.512	-20.69
290.727	-6.24
290.943	-0.13
291.159	24.5
291.374	6.36
291.59	16.37
291.805	32.74
292.021	45.26
292.236	42.74
292.451	44.73
292.667	48.05
292.882	29.12
293.098	1.91
293.313	6.18
293.529	21.94
293.744	23.13
293.959	48.03
294.175	44.62
294.39	30.88
294.605	14.18
294.821	-1.07
295.036	-19.07
295.251	-25.52
295.467	-16.72
295.682	9.78
295.897	-6.47
296.112	0.08
296.328	-3.68
296.543	6.93
296.758	-14.33
296.973	1.13
297.188	-10.04
297.404	14.86
297.619	4.73
297.834	7.28
298.049	2.69
298.264	22.65
298.479	-13.54
298.694	-14.73
298.909	-2.1
299.125	17.75
299.34	1.95
299.555	5.98
299.77	-19.83
299.985	9.38
300.2	9.91
300.415	-3.72
300.63	10.18
300.845	38.62
301.06	1.09
301.275	-28.64
301.49	6.57
301.704	1.37
301.919	9.14
302.134	18.93
302.349	25.12
302.564	18.03
302.779	6.95
302.994	-4.08
303.209	-12.33
303.423	-24.94
303.638	-12.13
303.853	18.03
304.068	25.23
304.283	40.13
304.497	45.5
304.712	45.42
304.927	35.82
305.142	39.98
305.356	29.56
305.571	29.95
305.786	30.48
306	23.73
306.215	7.96
306.43	5.55
306.644	-4.26
306.859	-9.69
307.074	-9.09
307.288	9.55
307.503	14.53
307.717	21.88
307.932	-1.95
308.147	1.96
308.361	-21.8
308.576	-21.07
308.79	2.57
309.005	35.44
309.219	30.43
309.434	31.85
309.648	24.42
309.863	-2.12
310.077	-31.35
310.292	-22.9
310.506	-2.25
310.72	16.03
310.935	6.23
311.149	4.33
311.364	-8.84
311.578	-21.11
311.792	-19.45
312.007	-19.52
312.221	14.29
312.435	8.56
312.649	33.2
312.864	40.95
313.078	31.36
313.292	29.87
313.507	35.65
313.721	25.46
313.935	7.96
314.149	17.03
314.363	8.42
314.578	3.6
314.792	-12.96
315.006	-33.98
315.22	-30.68
315.434	-40.06
315.648	-106.52
315.862	-43.32
316.077	-19.25
316.291	-3.45
316.505	-0.87
316.719	20.32
316.933	16.94
317.147	11.7
317.361	-2.45
317.575	5.68
317.789	-0.24
318.003	1.65
318.217	0.7
318.431	5.88
318.645	-18.51
318.859	-14.32
319.073	-28.64
319.287	-2.43
319.5	7.83
319.714	43.75
319.928	54.87
320.142	52.79
320.356	39.13
320.57	39.94
320.784	8.4
320.997	-4.04
321.211	19.05
321.425	20.96
321.639	7.51
321.853	1.84
322.066	-19.24
322.28	-16.86
322.494	-52.61
322.707	-69.76
322.921	-46.23
323.135	-34.68
323.349	-53.94
323.562	-14.37
323.776	16.01
323.989	9.63
324.203	24.11
324.417	24.96
324.63	27.19
324.844	20.52
325.057	28.89
325.271	10.37
325.485	4.82
325.698	-21.15
325.912	-37.25
326.125	-22.08
326.339	-9.62
326.552	-25.25
326.766	6.64
326.979	12.23
327.193	-14.94
327.406	-14.11
327.619	29.6
327.833	-23.06
328.046	-14.87
328.26	3.84
328.473	2.3
328.686	-11.02
328.9	-1.29
329.113	4.62
329.326	19.44
329.54	15
329.753	12
329.966	36.58
330.179	33.74
330.393	12
330.606	27.3
330.819	38.36
331.032	30.57
331.246	11.49
331.459	-0.64
331.672	-25.86
331.885	-40.02
332.098	-42.6
332.311	0.5
332.525	34.55
332.738	30.79
332.951	35.41
333.164	38.5
333.377	39.11
333.59	16.4
333.803	27.14
334.016	14.17
334.229	6.2
334.442	-49.38
334.655	-36.24
334.868	-52.51
335.081	-53.33
335.294	-54.04
335.507	-3.79
335.72	-2.78
335.933	0.23
336.146	0.93
336.359	-4.18
336.572	-5.81
336.785	-1.37
336.997	31.51
337.21	27.63
337.423	32.34
337.636	19.38
337.849	7.55
338.062	-19.02
338.274	-21.86
338.487	-2.41
338.7	3.44
338.913	17.34
339.125	23.44
339.338	28.11
339.551	18.75
339.763	24.42
339.976	20.91
340.189	7.27
340.402	-1.56
340.614	-9.74
340.827	-0.22
341.039	6.33
341.252	27.41
341.465	32.28
341.677	30.6
341.89	32.08
342.102	25.25
342.315	13.04
342.527	21.4
342.74	31.42
342.952	19.44
343.165	23.15
343.377	-11.14
343.59	-10.76
343.802	-27.72
344.015	-61.62
344.227	-67.94
344.44	-11.03
344.652	-8.7
344.864	-15.93
345.077	3.77
345.289	-20.11
345.502	-65.48
345.714	-73.86
345.926	-27.95
346.139	-13.7
346.351	-16.32
346.563	-11.47
346.775	0.48
346.988	-13.09
347.2	-10.3
347.412	-3.97
347.624	-0.89
347.837	-11.59
348.049	-11.67
348.261	-32.25
348.473	-19.22
348.685	-2.26
348.897	8.49
349.11	-4.31
349.322	1.93
349.534	-18.97
349.746	-20.58
349.958	-21.13
350.17	2.16
350.382	5.28
350.594	19.55
350.806	22.54
351.018	20.81
351.23	1.61
351.442	-6.94
351.654	-17.4
351.866	-17.78
352.078	-24.49
352.29	-19.27
352.502	-21.42
352.714	-17.07
352.926	-21.06
353.138	-27.73
353.35	-15.13
353.561	-0.63
353.773	-4.46
353.985	0.84
354.197	11.21
354.409	26.15
354.621	25.94
354.832	39.67
355.044	49.27
355.256	48.73
355.468	24.63
355.679	27.34
355.891	20.08
356.103	21.99
356.314	19.14
356.526	28.71
356.738	31.58
356.949	29.87
357.161	13.83
357.373	20.58
357.584	24.16
357.796	16.42
358.008	-3.16
358.219	-8.36
358.431	-9.67
358.642	-34.72
358.854	-62.4
359.065	-20.59
359.277	-1.64
359.488	-17.1
359.7	-9.81
359.911	-5.08
360.123	1.59
360.334	-11.68
360.546	-8.41
360.757	-3.53
360.969	11.97
361.18	4.95
361.391	19.08
361.603	22.86
361.814	11.15
362.025	15.75
362.237	15.13
362.448	4.19
362.659	-1.59
362.871	10.89
363.082	-7.71
363.293	-10.13
363.504	-5.52
363.716	17.44
363.927	10.11
364.138	14.85
364.349	10.21
364.56	9.71
364.772	0.7
364.983	-2.68
365.194	2.21
365.405	11.66
365.616	14.07
365.827	20.07
366.038	24.31
366.25	25.05
366.461	27.86
366.672	4.13
366.883	-3.49
367.094	-3.76
367.305	1.45
367.516	-11.31
367.727	6.95
367.938	5.99
368.149	2.76
368.36	-2.24
368.571	-2.67
368.781	1.92
368.992	-3.68
369.203	13
369.414	12.89
369.625	23.53
369.836	22.17
370.047	17.1
370.258	-8.89
370.468	1.57
370.679	16.47
370.89	15.25
371.101	21.5
371.312	35.21
371.522	27.22
371.733	16
371.944	22.79
372.155	20.63
372.365	11.85
372.576	29.2
372.787	28.74
372.997	24.49
373.208	23.08
373.419	13.03
373.629	1.12
373.84	-4.93
374.05	-12.14
374.261	-10.34
374.472	3.48
374.682	-2.17
374.893	-3.9
375.103	-5.25
375.314	7.98
375.524	24
375.735	17
375.945	22.14
376.156	20.33
376.366	10.02
376.577	0.06
376.787	-2.78
376.997	-16.43
377.208	-4.92
377.418	-8.32
377.629	-3.64
377.839	-5.59
378.049	5.23
378.26	-6.52
378.47	-7.91
378.68	-11.65
378.89	1.37
379.101	2.86
379.311	1.95
379.521	13.76
379.732	11.99
379.942	13.73
380.152	9.99
380.362	7.81
380.572	10.4
380.783	9.29
380.993	2.89
381.203	9.65
381.413	4.96
381.623	-0.55
381.833	6.3
382.043	9.12
382.253	9.31
382.463	15.86
382.674	21.65
382.884	19.98
383.094	12.54
383.304	4.12
383.514	3.48
383.724	-9.65
383.934	-4.34
384.144	-2.84
384.353	-7.98
384.563	-10.96
384.773	-9.75
384.983	-17.66
385.193	-14.27
385.403	-2.37
385.613	2.73
385.823	6.46
386.033	8.47
386.242	11.04
386.452	8.06
386.662	8.21
386.872	5.29
387.082	-1.07
387.291	-2.66
387.501	-6.19
387.711	-6.95
387.921	-1
388.13	3.6
388.34	0.05
388.55	5.18
388.759	6.81
388.969	4.15
389.179	2.8
389.388	4.26
389.598	4.63
389.807	2.01
390.017	4.09
390.227	5.31
390.436	4.84
390.646	0.62
390.855	0.88
391.065	-0.69
391.274	0.4
391.484	3.33
391.693	3.83
391.903	3.93
392.112	4.17
392.322	2.76
392.531	0.58
392.74	1.55
392.95	3.04
393.159	2.36
393.369	3.25
393.578	3.18
393.787	3.39
393.997	2.24
394.206	3.55
394.415	2.75
394.625	2.99
394.834	3.66
395.043	3.86
395.252	3.47
395.462	4.03
395.671	3.53
395.88	3.01
396.089	2.86
396.298	2.82
396.508	2.89
396.717	3.84
396.926	3.49
397.135	2.63
397.344	2.48
397.553	1.78
397.762	1.34
397.971	1.26
398.181	1.88
398.39	2.28
398.599	2.7
398.808	2.69
399.017	2.75
399.226	2.41
399.435	1.79
399.644	1.95
399.853	1.98
400.062	2.12
400.27	2.46
400.479	2.76
400.688	2.46
400.897	2.66
401.106	2.61
401.315	2.55
401.524	2.79
401.733	2.48
401.941	2.16
402.15	2.21
402.359	2.47
402.568	2.02
402.777	2.24
402.985	2.25
403.194	2.21
403.403	1.9
403.612	2.21
403.82	2.29
404.029	2.28
404.238	2.52
404.446	2.57
404.655	2.39
404.864	2.44
405.072	2.58
405.281	2.24
405.489	2.27
405.698	2.42
405.906	2.4
406.115	2.24
406.324	2.34
406.532	2.27
406.741	2.24
406.949	2.13
407.158	2.26
407.366	2.22
407.574	2.19
407.783	2.17
407.991	2.27
408.2	2.08
408.408	2
408.617	2.12
408.825	2.15
409.033	2.16
409.242	2.22
409.45	2.11
409.658	2.11
409.867	1.96
410.075	1.9
410.283	1.94
410.491	2.07
410.7	1.99
410.908	2.01
411.116	1.93
411.324	1.95
411.533	1.88
411.741	1.76
411.949	1.73
412.157	1.82
412.365	1.68
412.573	1.75
412.781	1.82
412.99	1.86
413.198	1.89
413.406	1.95
413.614	1.88
413.822	1.97
414.03	1.99
414.238	1.91
414.446	1.98
414.654	2.14
414.862	2.13
415.07	2.07
415.278	2.02
415.486	2.05
415.694	2.02
415.902	1.9
416.109	1.95
416.317	1.96
416.525	1.87
416.733	1.85
416.941	1.91
417.149	1.87
417.357	1.85
417.564	1.83
417.772	1.63
417.98	1.84
418.188	1.9
418.395	1.82
418.603	1.85
418.811	1.99
419.019	1.73
419.226	1.69
419.434	1.75
419.642	1.68
419.849	1.67
420.057	1.74
420.265	1.62
420.472	1.76
420.68	1.7
420.887	1.65
421.095	1.64
421.302	1.83
421.51	1.49
421.717	1.46
421.925	1.43
422.132	1.36
422.34	1.31
422.547	1.35
422.755	1.45
422.962	1.63
423.17	1.71
423.377	1.75
423.585	1.95
423.792	1.83
423.999	1.65
424.207	1.62
424.414	1.26
424.621	1.28
424.829	1.49
425.036	1.58
425.243	1.57
425.451	1.81
425.658	1.82
425.865	1.8
426.072	1.67
426.28	1.56
426.487	1.7
426.694	1.51
426.901	1.39
427.108	1.65
427.315	1.92
427.523	1.66
427.73	1.79
427.937	1.96
428.144	1.73
428.351	1.55
428.558	1.58
428.765	1.5
428.972	1.48
429.179	1.54
429.386	1.44
429.593	1.58
429.8	1.92
430.007	1.9
430.214	1.88
430.421	2
430.628	1.98
430.835	1.84
431.042	1.8
431.249	1.82
431.456	1.93
431.662	1.93
431.869	1.96
432.076	1.97
432.283	1.98
432.49	1.88
432.697	1.93
432.903	1.89
433.11	1.8
433.317	1.8
433.524	1.65
433.73	1.77
433.937	1.59
434.144	1.72
434.35	1.78
434.557	2.08
434.764	2.04
434.97	2.24
435.177	2.23
435.384	2.33
435.59	2.2
435.797	2.12
436.003	1.96
436.21	1.9
436.416	1.77
436.623	1.75
436.829	1.82
437.036	1.99
437.242	2.02
437.449	1.98
437.655	2.02
437.862	1.99
438.068	1.96
438.275	1.9
438.481	1.84
438.687	1.84
438.894	1.95
439.1	2.01
439.307	1.94
439.513	1.99
439.719	2
439.926	1.9
440.132	1.97
440.338	2.2
440.544	2.19
440.751	2.27
440.957	2.3
441.163	2.33
441.369	2.28
441.575	2.52
441.782	2.52
441.988	2.56
442.194	2.54
442.4	2.65
442.606	2.6
442.812	2.62
443.018	2.53
443.224	2.45
443.431	2.31
443.637	2.34
443.843	2.37
444.049	2.47
444.255	2.55
444.461	2.7
444.667	2.68
444.873	2.53
445.079	2.45
445.284	2.48
445.49	2.46
445.696	2.46
445.902	2.48
446.108	2.54
446.314	2.52
446.52	2.58
446.726	2.59
446.931	2.65
447.137	2.65
447.343	2.74
447.549	2.72
447.755	2.68
447.96	2.66
448.166	2.67
448.372	2.49
448.578	2.48
448.783	2.51
448.989	2.56
449.195	2.53
449.4	2.62
449.606	2.59
449.812	2.61
450.017	2.55
450.223	2.58
450.428	2.67
450.634	2.69
450.84	2.65
451.045	2.81
451.251	2.88
451.456	2.85
451.662	2.72
451.867	2.74
452.073	2.64
452.278	2.48
452.483	2.39
452.689	2.48
452.894	2.45
453.1	2.55
453.305	2.71
453.51	2.77
453.716	2.81
453.921	2.93
454.127	2.88
454.332	2.94
454.537	2.99
454.742	3.02
454.948	2.93
455.153	2.93
455.358	2.82
455.563	2.66
455.769	2.67
455.974	2.74
456.179	2.74
456.384	2.71
456.589	2.89
456.795	2.89
457	2.92
457.205	2.88
457.41	2.98
457.615	3.02
457.82	2.96
458.025	2.87
458.23	2.92
458.435	2.87
458.64	2.82
458.845	2.89
459.05	2.98
459.255	3.07
459.46	3.03
459.665	3.05
459.87	3.02
460.075	3
460.28	3.05
460.485	3.14
460.69	3.13
460.895	3.17
461.099	3.19
461.304	3.08
461.509	3.02
461.714	3.13
461.919	3.14
462.123	3.18
462.328	3.19
462.533	3.31
462.738	3.25
462.942	3.26
463.147	3.34
463.352	3.26
463.556	3.21
463.761	3.13
463.966	3.05
464.17	2.97
464.375	3.09
464.58	3.05
464.784	3.09
464.989	3.24
465.193	3.21
465.398	3.26
465.602	3.22
465.807	3.23
466.011	3.16
466.216	3.2
466.42	3.1
466.625	3.27
466.829	3.32
467.034	3.3
467.238	3.24
467.443	3.25
467.647	3.29
467.851	3.36
468.056	3.42
468.26	3.49
468.464	3.49
468.669	3.42
468.873	3.33
469.077	3.34
469.282	3.44
469.486	3.35
469.69	3.31
469.894	3.32
470.099	3.3
470.303	3.16
470.507	3.36
470.711	3.42
470.915	3.45
471.119	3.53
471.324	3.68
471.528	3.65
471.732	3.62
471.936	3.61
472.14	3.47
472.344	3.37
472.548	3.34
472.752	3.31
472.956	3.32
473.16	3.38
473.364	3.48
473.568	3.6
473.772	3.6
473.976	3.65
474.18	3.76
474.384	3.74
474.588	3.74
474.792	3.92
474.995	3.89
475.199	3.84
475.403	3.74
475.607	3.72
475.811	3.65
476.015	3.62
476.218	3.63
476.422	3.7
476.626	3.69
476.83	3.67
477.033	3.74
477.237	3.71
477.441	3.71
477.644	3.73
477.848	3.79
478.052	3.81
478.255	3.86
478.459	3.9
478.663	3.84
478.866	3.87
479.07	3.81
479.273	3.75
479.477	3.68
479.681	3.71
479.884	3.65
480.088	3.68
480.291	3.74
480.495	3.76
480.698	3.78
480.901	3.78
481.105	3.73
481.308	3.76
481.512	3.84
481.715	3.84
481.919	3.8
482.122	3.86
482.325	3.86
482.529	3.88
482.732	3.9
482.935	3.97
483.138	3.91
483.342	3.92
483.545	3.91
483.748	3.8
483.952	3.79
484.155	3.76
484.358	3.75
484.561	3.72
484.764	3.77
484.967	3.78
485.171	3.81
485.374	3.78
485.577	3.77
485.78	3.83
485.983	3.78
486.186	3.8
486.389	3.83
486.592	3.82
486.795	3.77
486.998	3.82
487.201	3.85
487.404	3.81
487.607	3.81
487.81	3.78
488.013	3.8
488.216	3.76
488.419	3.71
488.622	3.73
488.825	3.81
489.028	3.77
489.231	3.85
489.433	3.93
489.636	3.94
489.839	3.9
490.042	3.99
490.245	3.99
490.447	3.99
490.65	3.98
490.853	3.94
491.056	3.85
491.258	3.82
491.461	3.79
491.664	3.76
491.866	3.8
492.069	3.83
492.272	3.77
492.474	3.78
492.677	3.75
492.879	3.73
493.082	3.63
493.285	3.6
493.487	3.65
493.69	3.73
493.892	3.74
494.095	3.77
494.297	3.82
494.5	3.74
494.702	3.74
494.905	3.8
495.107	3.82
495.309	3.79
495.512	3.83
495.714	3.83
495.917	3.77
496.119	3.75
496.321	3.74
496.524	3.75
496.726	3.76
496.928	3.76
497.13	3.87
497.333	3.94
497.535	3.95
497.737	3.97
497.939	3.95
498.142	3.91
498.344	3.88
498.546	3.88
498.748	3.83
498.95	3.85
499.152	3.87
499.355	3.9
499.557	3.78
499.759	3.76
499.961	3.76
500.163	3.74
500.365	3.7
500.567	3.74
500.769	3.83
500.971	3.85
501.173	3.85
501.375	3.82
501.577	3.92
501.779	3.9
501.981	3.88
502.183	3.9
502.385	3.93
502.587	3.94
502.788	3.9
502.99	3.92
503.192	3.94
503.394	3.99
503.596	3.94
503.798	3.96
503.999	4.02
504.201	3.96
504.403	3.92
504.605	3.97
504.806	4.05
505.008	4.04
505.21	4
505.411	4.03
505.613	3.99
505.815	3.94
506.016	3.84
506.218	3.96
506.42	3.99
506.621	3.97
506.823	4.01
507.024	4.05
507.226	4.07
507.427	4.05
507.629	4.1
507.83	4.05
508.032	3.98
508.233	3.95
508.435	3.94
508.636	3.96
508.838	3.94
509.039	4.03
509.24	4.02
509.442	3.99
509.643	3.97
509.845	3.97
510.046	3.94
510.247	3.92
510.448	3.93
510.65	3.98
510.851	3.96
511.052	3.97
511.254	4.05
511.455	4.01
511.656	3.93
511.857	3.93
512.058	3.97
512.26	3.9
512.461	3.96
512.662	3.95
512.863	4.02
513.064	4.06
513.265	4.04
513.466	4.02
513.667	4.05
513.868	4
514.069	3.9
514.27	3.85
514.471	3.84
514.672	3.84
514.873	3.86
515.074	3.85
515.275	3.94
515.476	4
515.677	3.94
515.878	3.96
516.079	4.05
516.28	4.03
516.481	3.95
516.682	4.04
516.882	4.05
517.083	4.04
517.284	4.09
517.485	4.12
517.686	4.06
517.886	4.06
518.087	3.97
518.288	3.88
518.488	3.91
518.689	3.94
518.89	3.92
519.091	3.99
519.291	3.95
519.492	3.9
519.692	3.9
519.893	3.83
520.094	3.87
520.294	3.95
520.495	4.02
520.695	4.03
520.896	4.08
521.096	4.04
521.297	4.05
521.497	4.02
521.698	4.01
521.898	3.98
522.099	4.04
522.299	4.02
522.499	4.04
522.7	4.04
522.9	4.12
523.101	4.03
523.301	4.07
523.501	4.04
523.702	4.08
523.902	4.03
524.102	4.07
524.302	4.08
524.503	4.1
524.703	4.07
524.903	4.09
525.103	4.11
525.304	4.04
525.504	4.01
525.704	3.94
525.904	3.98
526.104	3.95
526.304	4.01
526.504	3.95
526.705	3.99
526.905	3.94
527.105	3.94
527.305	3.92
527.505	3.95
527.705	4.01
527.905	4.04
528.105	4.03
528.305	4.03
528.505	4.08
528.705	4.05
528.905	4.05
529.105	4.07
529.304	4.04
529.504	4.02
529.704	4.03
529.904	4.03
530.104	4.03
530.304	4.09
530.503	4.13
530.703	4.11
530.903	4.12
531.103	4.11
531.303	4.08
531.502	4.1
531.702	4.08
531.902	4.08
532.101	4.1
532.301	4.11
532.501	4.1
532.7	4.21
532.9	4.25
533.1	4.25
533.299	4.27
533.499	4.23
533.698	4.16
533.898	4.12
534.097	4.12
534.297	4.01
534.496	4.03
534.696	4.1
534.895	4.1
535.095	4.15
535.294	4.27
535.494	4.24
535.693	4.19
535.892	4.19
536.092	4.19
536.291	4.22
536.491	4.31
536.69	4.29
536.889	4.33
537.088	4.29
537.288	4.29
537.487	4.29
537.686	4.31
537.886	4.24
538.085	4.27
538.284	4.21
538.483	4.23
538.682	4.25
538.882	4.3
539.081	4.32
539.28	4.38
539.479	4.42
539.678	4.43
539.877	4.44
540.076	4.47
540.275	4.42
540.474	4.31
540.673	4.34
540.872	4.37
541.071	4.4
541.27	4.49
541.469	4.51
541.668	4.49
541.867	4.54
542.066	4.58
542.265	4.59
542.464	4.74
542.663	4.77
542.862	4.74
543.06	4.75
543.259	4.74
543.458	4.69
543.657	4.75
543.856	4.8
544.054	4.8
544.253	4.88
544.452	4.93
544.651	4.89
544.849	4.94
545.048	4.99
545.247	4.96
545.445	4.92
545.644	4.99
545.843	5
546.041	4.99
546.24	5.01
546.438	5.05
546.637	5.1
546.836	5.1
547.034	5.12
547.233	5.2
547.431	5.31
547.63	5.35
547.828	5.39
548.027	5.44
548.225	5.46
548.423	5.45
548.622	5.44
548.82	5.46
549.019	5.47
549.217	5.41
549.415	5.46
549.614	5.54
549.812	5.54
550.01	5.62
550.209	5.73
550.407	5.76
550.605	5.74
550.803	5.78
551.002	5.86
551.2	5.98
551.398	5.98
551.596	6.04
551.794	6.12
551.993	6.13
552.191	6.12
552.389	6.17
552.587	6.23
552.785	6.31
552.983	6.33
553.181	6.31
553.379	6.36
553.577	6.46
553.775	6.43
553.973	6.49
554.171	6.53
554.369	6.66
554.567	6.69
554.765	6.79
554.963	6.78
555.161	6.96
555.359	7
555.557	6.98
555.755	7.01
555.952	7.08
556.15	7.07
556.348	7.09
556.546	7.17
556.744	7.23
556.941	7.29
557.139	7.37
557.337	7.46
557.535	7.56
557.732	7.69
557.93	7.74
558.128	7.8
558.325	7.8
558.523	7.84
558.721	7.81
558.918	7.93
559.116	7.96
559.313	8.03
559.511	8.13
559.708	8.21
559.906	8.29
560.104	8.3
560.301	8.34
560.498	8.39
560.696	8.46
560.893	8.53
561.091	8.65
561.288	8.76
561.486	8.75
561.683	8.78
561.88	8.85
562.078	8.83
562.275	8.87
562.473	8.94
562.67	8.92
562.867	8.92
563.064	9.03
563.262	9.09
563.459	9.21
563.656	9.27
563.853	9.28
564.051	9.35
564.248	9.33
564.445	9.33
564.642	9.45
564.839	9.54
565.036	9.58
565.234	9.6
565.431	9.68
565.628	9.76
565.825	9.73
566.022	9.72
566.219	9.87
566.416	9.87
566.613	9.95
566.81	10.07
567.007	10.15
567.204	10.21
567.401	10.21
567.598	10.17
567.795	10.14
567.991	10.12
568.188	10.06
568.385	10.02
568.582	10.08
568.779	10.1
568.976	10.14
569.172	10.2
569.369	10.31
569.566	10.33
569.763	10.27
569.96	10.37
570.156	10.35
570.353	10.39
570.55	10.45
570.746	10.6
570.943	10.58
571.14	10.62
571.336	10.65
571.533	10.57
571.729	10.56
571.926	10.6
572.123	10.59
572.319	10.62
572.516	10.7
572.712	10.65
572.909	10.61
573.105	10.64
573.302	10.61
573.498	10.57
573.695	10.59
573.891	10.6
574.087	10.57
574.284	10.56
574.48	10.58
574.677	10.64
574.873	10.65
575.069	10.68
575.266	10.74
575.462	10.74
575.658	10.65
575.854	10.67
576.051	10.63
576.247	10.55
576.443	10.56
576.639	10.68
576.835	10.63
577.032	10.6
577.228	10.59
577.424	10.47
577.62	10.37
577.816	10.34
578.012	10.32
578.208	10.27
578.404	10.38
578.6	10.42
578.796	10.43
578.993	10.48
579.189	10.54
579.384	10.49
579.58	10.39
579.776	10.32
579.972	10.31
580.168	10.25
580.364	10.23
580.56	10.27
580.756	10.28
580.952	10.23
581.148	10.26
581.343	10.22
581.539	10.08
581.735	10.07
581.931	9.96
582.127	9.91
582.322	9.98
582.518	10.11
582.714	10.16
582.909	10.27
583.105	10.28
583.301	10.21
583.496	10.03
583.692	9.96
583.888	9.93
584.083	9.83
584.279	9.79
584.474	9.83
584.67	9.8
584.866	9.78
585.061	9.88
585.257	9.94
585.452	10.01
585.648	10
585.843	9.98
586.039	9.93
586.234	9.88
586.429	9.84
586.625	9.77
586.82	9.78
587.015	9.77
587.211	9.78
587.406	9.85
587.601	9.92
587.797	9.94
587.992	9.97
588.187	9.94
588.383	9.86
588.578	9.84
588.773	9.82
588.968	9.77
589.163	9.82
589.359	9.84
589.554	9.82
589.749	9.81
589.944	9.81
590.139	9.76
590.334	9.8
590.529	9.9
590.724	9.95
590.919	9.96
591.114	10.03
591.309	9.98
591.504	9.99
591.699	9.98
591.894	10.01
592.089	10
592.284	10.03
592.479	10.03
592.674	10.09
592.869	10.14
593.064	10.21
593.259	10.22
593.454	10.19
593.648	10.2
593.843	10.25
594.038	10.27
594.233	10.42
594.428	10.48
594.622	10.46
594.817	10.44
595.012	10.5
595.206	10.48
595.401	10.53
595.596	10.54
595.79	10.65
595.985	10.68
596.18	10.77
596.374	10.83
596.569	10.96
596.763	11.02
596.958	11.04
597.153	11.06
597.347	11.09
597.542	11.19
597.736	11.19
597.931	11.16
598.125	11.21
598.319	11.31
598.514	11.32
598.708	11.4
598.903	11.48
599.097	11.52
599.291	11.52
599.486	11.49
599.68	11.51
599.874	11.56
600.069	11.61
600.263	11.63
600.457	11.69
600.651	11.7
600.846	11.87
601.04	11.86
601.234	11.84
601.428	11.88
601.622	11.87
601.817	11.74
602.011	11.85
602.205	11.93
602.399	11.88
602.593	11.95
602.787	11.95
602.981	11.87
603.175	11.89
603.369	11.91
603.563	11.78
603.757	11.76
603.951	11.72
604.145	11.7
604.339	11.74
604.533	11.78
604.727	11.84
604.921	11.85
605.115	11.81
605.309	11.76
605.502	11.78
605.696	11.72
605.89	11.74
606.084	11.71
606.278	11.77
606.471	11.73
606.665	11.7
606.859	11.62
607.053	11.63
607.246	11.47
607.44	11.42
607.634	11.34
607.827	11.34
608.021	11.28
608.214	11.35
608.408	11.29
608.602	11.38
608.795	11.36
608.989	11.33
609.182	11.27
609.376	11.26
609.569	11.18
609.763	11.06
609.956	10.98
610.15	10.92
610.343	10.89
610.537	10.84
610.73	10.82
610.923	10.78
611.117	10.75
611.31	10.64
611.504	10.54
611.697	10.54
611.89	10.5
612.083	10.45
612.277	10.36
612.47	10.34
612.663	10.22
612.856	10.13
613.05	10.08
613.243	10.12
613.436	9.96
613.629	9.88
613.822	9.84
614.015	9.76
614.209	9.68
614.402	9.73
614.595	9.8
614.788	9.75
614.981	9.75
615.174	9.69
615.367	9.63
615.56	9.57
615.753	9.62
615.946	9.58
616.139	9.57
616.332	9.54
616.525	9.47
616.718	9.33
616.911	9.28
617.103	9.23
617.296	9.15
617.489	9.16
617.682	9.22
617.875	9.08
618.067	9.05
618.26	9.08
618.453	9.04
618.646	8.9
618.838	8.91
619.031	8.82
619.224	8.77
619.417	8.77
619.609	8.84
619.802	8.87
619.994	8.93
620.187	8.93
620.38	8.91
620.572	8.84
620.765	8.8
620.957	8.82
621.15	8.81
621.342	8.78
621.535	8.7
621.727	8.65
621.92	8.57
622.112	8.61
622.305	8.54
622.497	8.67
622.69	8.66
622.882	8.62
623.074	8.52
623.267	8.49
623.459	8.44
623.651	8.39
623.844	8.42
624.036	8.46
624.228	8.51
624.42	8.48
624.613	8.44
624.805	8.45
624.997	8.35
625.189	8.29
625.381	8.21
625.574	8.23
625.766	8.18
625.958	8.25
626.15	8.23
626.342	8.21
626.534	8.21
626.726	8.23
626.918	8.13
627.11	8.14
627.302	8.09
627.494	8.07
627.686	8.03
627.878	8.05
628.07	7.99
628.262	7.99
628.454	7.99
628.646	7.92
628.838	7.9
629.029	7.94
629.221	7.9
629.413	7.87
629.605	7.88
629.797	7.85
629.989	7.76
630.18	7.79
630.372	7.76
630.564	7.73
630.755	7.69
630.947	7.7
631.139	7.75
631.33	7.74
631.522	7.7
631.714	7.67
631.905	7.7
632.097	7.57
632.289	7.6
632.48	7.6
632.672	7.65
632.863	7.66
633.055	7.62
633.246	7.59
633.438	7.55
633.629	7.48
633.821	7.4
634.012	7.44
634.203	7.45
634.395	7.49
634.586	7.55
634.777	7.56
634.969	7.57
635.16	7.58
635.351	7.64
635.543	7.63
635.734	7.59
635.925	7.61
636.117	7.53
636.308	7.48
636.499	7.45
636.69	7.46
636.881	7.45
637.073	7.4
637.264	7.37
637.455	7.37
637.646	7.37
637.837	7.4
638.028	7.46
638.219	7.42
638.41	7.41
638.601	7.37
638.792	7.32
638.983	7.36
639.174	7.4
639.365	7.29
639.556	7.32
639.747	7.3
639.938	7.23
640.129	7.2
640.32	7.24
640.511	7.22
640.701	7.24
640.892	7.27
641.083	7.21
641.274	7.24
641.465	7.21
641.655	7.18
641.846	7.2
642.037	7.27
642.228	7.17
642.418	7.1
642.609	7.05
642.8	6.97
642.99	6.92
643.181	6.96
643.372	7.04
643.562	7.01
643.753	6.95
643.943	6.91
644.134	6.92
644.324	6.89
644.515	6.92
644.705	6.95
644.896	6.93
645.086	6.9
645.277	6.83
645.467	6.88
645.658	6.87
645.848	6.91
646.038	6.86
646.229	6.87
646.419	6.78
646.61	6.8
646.8	6.85
646.99	6.83
647.18	6.86
647.371	6.82
647.561	6.8
647.751	6.74
647.941	6.87
648.132	6.88
648.322	6.93
648.512	6.94
648.702	6.94
648.892	6.83
649.082	6.77
649.272	6.81
649.462	6.78
649.653	6.8
649.843	6.83
650.033	6.84
650.223	6.73
650.413	6.72
650.603	6.69
650.793	6.66
650.983	6.7
651.172	6.67
651.362	6.6
651.552	6.58
651.742	6.57
651.932	6.47
652.122	6.57
652.312	6.55
652.502	6.43
652.691	6.41
652.881	6.47
653.071	6.36
653.261	6.36
653.45	6.33
653.64	6.25
653.83	6.18
654.019	6.16
654.209	6.07
654.399	6.02
654.588	5.99
654.778	5.86
654.968	5.75
655.157	5.67
655.347	5.67
655.536	5.63
655.726	5.53
655.915	5.46
656.105	5.44
656.294	5.38
656.484	5.25
656.673	5.32
656.863	5.26
657.052	5.26
657.241	5.25
657.431	5.25
657.62	5.14
657.809	5.1
657.999	5.05
658.188	4.97
658.377	4.9
658.567	4.87
658.756	4.84
658.945	4.79
659.134	4.7
659.324	4.66
659.513	4.62
659.702	4.54
659.891	4.52
660.08	4.52
660.269	4.48
660.458	4.41
660.648	4.4
660.837	4.35
661.026	4.31
661.215	4.24
661.404	4.24
661.593	4.14
661.782	4.03
661.971	3.94
662.16	3.97
662.349	3.89
662.538	3.89
662.726	3.97
662.915	4.05
663.104	4
663.293	3.99
663.482	3.99
663.671	3.93
663.86	3.87
664.048	3.89
664.237	3.9
664.426	3.88
664.615	3.88
664.803	3.82
664.992	3.75
665.181	3.72
665.369	3.77
665.558	3.77
665.747	3.76
665.935	3.75
666.124	3.8
666.312	3.74
666.501	3.82
666.69	3.93
666.878	3.99
667.067	3.97
667.255	4.03
667.444	3.8
667.632	3.68
667.82	3.57
668.009	3.6
668.197	3.71
668.386	3.88
668.574	3.87
668.762	3.94
668.951	3.96
669.139	3.9
669.327	4
669.516	4.03
669.704	4.17
669.892	4.26
670.08	4.24
670.269	4.25
670.457	4.26
670.645	4.28
670.833	4.21
671.021	4.16
671.21	4.12
671.398	4.2
671.586	4.15
671.774	4.26
671.962	4.42
672.15	4.52
672.338	4.66
672.526	4.81
672.714	4.82
672.902	4.81
673.09	4.82
673.278	4.73
673.466	4.65
673.654	4.69
673.842	4.9
674.03	4.91
674.218	5.04
674.405	5.18
674.593	5.16
674.781	5.02
674.969	4.98
675.157	4.91
675.344	4.98
675.532	4.99
675.72	5.14
675.908	5.22
676.095	5.38
676.283	5.36
676.471	5.32
676.658	5.27
676.846	5.31
677.033	5.28
677.221	5.36
677.409	5.52
677.596	5.65
677.784	5.68
677.971	5.77
678.159	5.76
678.346	5.72
678.534	5.66
678.721	5.66
678.909	5.64
679.096	5.75
679.283	5.83
679.471	5.9
679.658	6.05
679.846	6.13
680.033	6.06
680.22	6.19
680.408	6.2
680.595	6.24
680.782	6.24
680.969	6.29
681.157	6.24
681.344	6.24
681.531	6.21
681.718	6.32
681.905	6.29
682.093	6.36
682.28	6.37
682.467	6.42
682.654	6.35
682.841	6.46
683.028	6.41
683.215	6.58
683.402	6.64
683.589	6.65
683.776	6.76
683.963	6.88
684.15	6.77
684.337	6.92
684.524	7.12
684.711	7.08
684.898	7.19
685.085	7.32
685.271	7.25
685.458	7.25
685.645	7.42
685.832	7.45
686.019	7.59
686.205	7.74
686.392	8.01
686.579	8.16
686.766	8.29
686.952	8.4
687.139	8.38
687.326	8.35
687.512	8.39
687.699	8.43
687.886	8.54
688.072	8.82
688.259	9.18
688.445	9.39
688.632	9.74
688.818	9.9
689.005	10.12
689.191	10.17
689.378	10.44
689.564	10.57
689.751	10.92
689.937	11.29
690.124	11.6
690.31	11.83
690.496	12.34
690.683	12.57
690.869	12.67
691.055	12.99
691.242	13.27
691.428	13.4
691.614	13.69
691.8	14.19
691.987	14.46
692.173	15.08
692.359	15.53
692.545	16.15
692.731	16.68
692.918	17.14
693.104	17.42
693.29	17.83
693.476	18.37
693.662	18.6
693.848	19.14
694.034	19.7
694.22	20.33
694.406	20.69
694.592	21.34
694.778	22.11
694.964	22.54
695.15	23.07
695.336	23.55
695.522	23.89
695.708	24.28
695.894	24.64
696.08	25.19
696.265	25.9
696.451	26.48
696.637	26.87
696.823	27.62
697.009	28.33
697.194	28.7
697.38	29.4
697.566	30.18
697.751	30.8
697.937	31.04
698.123	31.74
698.308	32.16
698.494	32.77
698.68	33.42
698.865	34.13
699.051	34.47
699.236	35.31
699.422	35.69
699.607	36.44
699.793	36.85
699.978	37.4
700.164	37.93
700.349	38.63
700.535	38.95
700.72	39.55
700.906	40.27
701.091	40.52
701.276	40.87
701.462	41.19
701.647	41.88
701.832	42.31
702.018	42.91
702.203	43.67
702.388	44.58
702.573	45.24
702.759	45.79
702.944	46.51
703.129	46.78
703.314	47.06
703.499	47.4
703.684	47.86
703.87	47.77
704.055	48.45
704.24	48.74
704.425	49.25
704.61	49.83
704.795	50.76
704.98	50.97
705.165	51.56
705.35	51.98
705.535	52.41
705.72	53.05
705.905	53.46
706.09	53.75
706.275	54.23
706.459	54.65
706.644	54.88
706.829	55.24
707.014	55.6
707.199	55.77
707.384	55.75
707.568	55.81
707.753	56.01
707.938	55.99
708.123	56.05
708.307	56.62
708.492	57.14
708.677	57.28
708.861	57.82
709.046	58.37
709.231	58.6
709.415	58.85
709.6	59.42
709.784	59.74
709.969	59.66
710.153	60.05
710.338	60.41
710.522	60.58
710.707	60.68
710.891	60.87
711.076	60.7
711.26	60.83
711.445	61.02
711.629	61.54
711.813	62
711.998	62.49
712.182	62.46
712.366	62.57
712.551	62.39
712.735	62.63
712.919	62.58
713.103	62.82
713.288	63.3
713.472	63.53
713.656	63.77
713.84	64.51
714.024	64.7
714.208	65.05
714.393	65.37
714.577	65.36
714.761	64.78
714.945	64.86
715.129	64.62
715.313	64.75
715.497	64.94
715.681	65.33
715.865	65.51
716.049	65.68
716.233	65.54
716.417	65.46
716.601	65.48
716.785	65.96
716.968	65.88
717.152	66.1
717.336	66.35
717.52	66.78
717.704	66.51
717.888	67.22
718.071	67.25
718.255	67.17
718.439	67.37
718.622	67.56
718.806	67.02
718.99	67.4
719.174	67.79
719.357	67.7
719.541	68.02
719.724	68.28
719.908	68.61
720.092	68.67
720.275	68.95
720.459	69.14
720.642	69.52
720.826	69.85
721.009	69.91
721.193	70.32
721.376	70.59
721.559	70.32
721.743	70.22
721.926	70.33
722.11	70.04
722.293	69.94
722.476	70.16
722.66	70.04
722.843	70.39
723.026	71.06
723.21	71.17
723.393	71.69
723.576	72.14
723.759	72.48
723.942	72.35
724.126	72.2
724.309	72.37
724.492	72.95
724.675	73.49
724.858	73.47
725.041	73.46
725.224	73.89
725.407	73.86
725.59	73.49
725.774	73.95
725.957	74.89
726.14	74.93
726.322	74.81
726.505	75.07
726.688	75.23
726.871	74.89
727.054	75.14
727.237	75.93
727.42	76.42
727.603	76.74
727.786	77.83
727.968	77.89
728.151	77.92
728.334	78.1
728.517	77.95
728.699	77.08
728.882	77.33
729.065	77.56
729.248	77.28
729.43	77.36
729.613	78.14
729.796	78.51
729.978	78.66
730.161	78.9
730.343	79.63
730.526	79.71
730.708	80.02
730.891	80.55
731.073	81.42
731.256	81.47
731.438	82.29
731.621	82.44
731.803	81.52
731.986	81.62
732.168	82.5
732.35	82.62
732.533	83
732.715	84.06
732.898	83.8
733.08	83.2
733.262	83.07
733.444	83.34
733.627	82.84
733.809	83.21
733.991	83.43
734.173	83.44
734.355	83.65
734.538	84.53
734.72	85.08
734.902	85.41
735.084	85.34
735.266	84.94
735.448	85.07
735.63	86.07
735.812	86.46
735.994	87.24
736.176	87.52
736.358	86.5
736.54	84.84
736.722	84.8
736.904	85.17
737.086	84.89
737.268	85.81
737.45	86.75
737.632	86.48
737.814	85.94
737.995	86.34
738.177	86.84
738.359	87.9
738.541	88.48
738.723	88.59
738.904	88.92
739.086	89.17
739.268	88.14
739.449	88.35
739.631	88.48
739.813	88.9
739.994	89.1
740.176	89.14
740.358	88.87
740.539	88.88
740.721	88.77
740.902	88.53
741.084	88.34
741.265	89.23
741.447	90.13
741.628	90.4
741.81	90.78
741.991	91.54
742.172	90.87
742.354	90.97
742.535	91.87
742.717	91.94
742.898	92.57
743.079	93.11
743.261	93.1
743.442	92.56
743.623	92.52
743.804	91.84
743.986	92.07
744.167	91.73
744.348	91.94
744.529	91.97
744.71	92.52
744.891	91.89
745.073	93.07
745.254	92.43
745.435	93.4
745.616	93.89
745.797	94.94
745.978	95.54
746.159	96.37
746.34	95.46
746.521	94.39
746.702	94.4
746.883	93.72
747.064	93.26
747.245	94.08
747.426	94.23
747.606	93.06
747.787	92.12
747.968	92.26
748.149	91.84
748.33	91.6
748.51	91.72
748.691	91.94
748.872	92.39
749.053	92.32
749.233	94.7
749.414	95.51
749.595	95.4
749.775	95.57
749.956	95.49
750.137	93.55
750.317	93.2
750.498	93.56
750.678	92.87
750.859	92.63
751.04	93.19
751.22	94.6
751.4	93.78
751.581	94.79
751.761	93.68
751.942	94.6
752.122	93.99
752.303	95.45
752.483	94.79
752.663	95.9
752.844	95.66
753.024	96.49
753.204	96.51
753.385	96.21
753.565	96.52
753.745	95.44
753.925	94.02
754.106	93.17
754.286	93.2
754.466	93.5
754.646	93.94
754.826	93.39
755.006	93.67
755.187	93.5
755.367	92.7
755.547	93.92
755.727	94.21
755.907	95.17
756.087	94.79
756.267	95.06
756.447	94.3
756.627	95.12
756.807	93.59
756.987	95.7
757.167	95.98
757.346	95.2
757.526	93.44
757.706	93.01
757.886	92.7
758.066	91.85
758.246	92.11
758.425	95.37
758.605	96.87
758.785	96.34
758.965	97.18
759.144	97.74
759.324	95.9
759.504	93.84
759.683	94.18
759.863	93.86
760.043	94.1
760.222	94.45
760.402	96.47
760.581	96.03
760.761	95.25
760.94	95.14
761.12	93.83
761.299	93.85
761.479	92.71
761.658	94.82
761.838	93.89
762.017	95.23
762.197	94.08
762.376	96.41
762.555	95.35
762.735	93.94
762.914	92.62
763.093	92.16
763.273	91.17
763.452	90.39
763.631	91.39
763.81	92.77
763.99	94.33
764.169	94.84
764.348	94.31
764.527	95.08
764.706	94.42
764.885	93.93
765.064	92.28
765.243	94.55
765.423	94.97
765.602	94.24
765.781	96.73
765.96	97.62
766.139	97.8
766.318	97.31
766.497	97.92
766.676	95.27
766.854	94.8
767.033	93.1
767.212	91.29
767.391	92.46
767.57	92.12
767.749	92.41
767.928	91.35
768.106	93.7
768.285	93.91
768.464	95.43
768.643	94.96
768.821	93.47
769	91.65
769.179	91.58
769.357	92.84
769.536	93.56
769.715	93.93
769.893	93.42
770.072	92.75
770.25	90.19
770.429	89.02
770.607	91.77
770.786	93.59
770.964	91.02
771.143	90.79
771.321	89.47
771.5	87.75
771.678	87.84
771.857	89.61
772.035	88.61
772.213	89.64
772.392	90.43
772.57	88.2
772.748	88.36
772.927	90.16
773.105	92.06
773.283	92.44
773.461	95.1
773.64	95.73
773.818	95.08
773.996	93.57
774.174	91.97
774.352	88.65
774.531	88.14
774.709	87.18
774.887	87.14
775.065	89.06
775.243	93.82
775.421	93.14
775.599	93.77
775.777	93.38
775.955	94.17
776.133	92.52
776.311	91.48
776.489	92.75
776.667	93.19
776.844	93.19
777.022	93.26
777.2	93.72
777.378	92.69
777.556	94.29
777.734	93.81
777.911	93.19
778.089	94.21
778.267	96.05
778.445	95.71
778.622	95.07
778.8	92.94
778.978	91.04
779.155	87.54
779.333	85.62
779.511	84.11
779.688	83.03
779.866	86.4
780.043	88.14
780.221	87.93
780.398	88.44
780.576	87.22
780.753	86.73
780.931	86.38
781.108	86.06
781.286	87.32
781.463	90.02
781.64	88.13
781.818	86.55
781.995	86.03
782.172	85.15
782.35	87.33
782.527	86.57
782.704	87.94
782.882	89
783.059	86.93
783.236	88.24
783.413	90.72
783.59	92.02
783.768	94.45
783.945	96.5
784.122	93.06
784.299	92.51
784.476	90.91
784.653	90.98
784.83	90.11
785.007	91.27
785.184	88.98
785.361	90.37
785.538	87.15
785.715	91.02
785.892	90.28
786.069	91.92
786.246	91.78
786.423	94.15
786.6	91.46
786.776	93.8
786.953	92.16
787.13	90.04
787.307	91.05
787.484	91.75
787.66	91.17
787.837	94.01
788.014	98.26
788.191	97.79
788.367	93.94
788.544	92.36
788.721	91.72
788.897	89.84
789.074	87.5
789.25	89.1
789.427	89.48
789.603	86.34
789.78	85.39
789.956	85.4
790.133	87.31
790.309	84.64
790.486	81.56
790.662	85.01
790.839	88.15
791.015	84.54
791.192	85.25
791.368	90.23
791.544	88.28
791.721	87.03
791.897	89.08
792.073	92.05
792.249	90.2
792.426	87.23
792.602	84.39
792.778	84.68
792.954	82.76
793.13	86.55
793.307	88.31
793.483	90.18
793.659	92.4
793.835	93.58
794.011	90.62
794.187	89.57
794.363	88.85
794.539	88.72
794.715	88.1
794.891	86.57
795.067	87.75
795.243	90.58
795.419	89.27
795.595	89.97
795.771	92.76
795.947	88.74
796.122	87.19
796.298	83.78
796.474	78.23
796.65	77.38
796.826	80
797.001	79.84
797.177	79.02
797.353	81.89
797.529	81.8
797.704	81.13
797.88	80.67
798.056	85.45
798.231	84.8
798.407	79.49
798.582	79.27
798.758	79.43
798.934	73.93
799.109	72.26
799.285	76.08
799.46	75.09
799.636	72.6
799.811	77.99
799.986	79.8
800.162	82.47
800.337	84.46
800.513	95.97
800.688	97.87
800.863	102.11
801.039	93.44
801.214	96.95
801.389	87.89
801.565	84.85
801.74	84.27
801.915	82.81
802.09	70.77
802.265	68.79
802.441	68.75
802.616	67.38
802.791	74.55
802.966	82.27
803.141	87.58
803.316	91.52
803.491	89.76
803.666	85.43
803.841	92.22
804.016	89.12
804.191	86.12
804.366	92.45
804.541	95.27
804.716	82.04
804.891	78.58
805.066	75.12
805.241	74.24
805.416	70.59
805.591	75.74
805.765	79.51
805.94	83.82
806.115	81.56
806.29	85.21
806.464	84.03
806.639	85.05
806.814	83.3
806.989	87.22
807.163	85.84
807.338	87.91
807.512	81.62
807.687	81.24
807.862	71.91
808.036	63.65
808.211	65.99
808.385	68.16
808.56	56.9
808.734	64.13
808.909	71.32
809.083	71.93
809.258	69.89
809.432	80.92
809.606	77.68
809.781	78.81
809.955	77.43
810.13	76.83
810.304	74.6
810.478	80.75
810.652	82.67
810.827	85.59
811.001	92.26
811.175	90.39
811.349	94.42
811.524	89.69
811.698	81.44
811.872	74.25
812.046	77.06
812.22	68.37
812.394	72.32
812.568	84.04
812.742	87.22
812.916	89.79
813.09	88.45
813.264	87.85
813.438	88.95
813.612	90.06
813.786	95.19
813.96	86.35
814.134	92.12
814.308	80.61
814.482	85.72
814.656	81.58
814.83	85.15
815.003	82.96
815.177	90.68
815.351	85.56
815.525	85.74
815.698	89.74
815.872	87.84
816.046	77.12
816.219	77.15
816.393	68.67
816.567	72.25
816.74	68.71
816.914	71.22
817.088	72.84
817.261	76.14
817.435	73.78
817.608	74.97
817.782	71.68
817.955	73.89
818.129	79.06
818.302	85.48
818.475	90.62
818.649	87.89
818.822	85
818.996	68.17
819.169	66.72
819.342	59.63
819.516	66.92
819.689	58.97
819.862	84.69
820.035	78.41
820.209	68.57
820.382	64.97
820.555	69.39
820.728	48.94
820.901	56.72
821.075	65.06
821.248	62.21
821.421	72.77
821.594	92.71
821.767	76.62
821.94	67.31
822.113	71.09
822.286	57.76
822.459	49
822.632	60.9
822.805	72.46
822.978	76.19
823.151	83.92
823.324	100.31
823.496	96.71
823.669	93.72
823.842	98.81
824.015	100.14
824.188	85.18
824.361	85.18
824.533	79.35
824.706	79.16
824.879	75.9
825.051	67.18
825.224	74.12
825.397	77.17
825.569	60.44
825.742	62.28
825.915	66.81
826.087	61.56
826.26	63.9
826.432	86
826.605	77.06
826.777	70.58
826.95	68.06
827.122	67.56
827.295	64.2
827.467	76.47
827.64	72.33
827.812	80.24
827.984	75.49
828.157	70.87
828.329	73.57
828.501	94.04
828.674	81.71
828.846	97.1
829.018	86.82
829.19	70.24
829.363	60.33
829.535	69.71
829.707	61.12
829.879	63.7
830.051	72.34
830.223	69.3
830.395	65.8
830.568	64.54
830.74	52.21
830.912	42.59
831.084	42.19
831.256	51.14
831.428	52.77
831.6	73.1
831.772	90.79
831.943	89.97
832.115	86.35
832.287	78.94
832.459	73.91
832.631	69.17
832.803	79.6
832.975	80.15
833.146	84.35
833.318	115.29
833.49	90.96
833.662	84.17
833.833	85.95
834.005	78.95
834.177	71.06
834.348	72.32
834.52	64.41
834.692	56.68
834.863	80.86
835.035	73.57
835.206	74.58
835.378	70.93
835.549	77.51
835.721	62.89
835.892	62.61
836.064	51.91
836.235	59.84
836.407	51.22
836.578	51.14
836.749	49.36
836.921	59.17
837.092	73.61
837.264	81.71
837.435	82.05
837.606	72.62
837.777	70.06
837.949	51.6
838.12	67.63
838.291	73.24
838.462	71.92
838.633	69.52
838.805	83.4
838.976	74.44
839.147	66.15
839.318	84.92
839.489	94.42
839.66	92.54
839.831	80.49
840.002	83.19
840.173	75.92
840.344	61.82
840.515	43.04
840.686	33.53
840.857	27.48
841.028	29.38
841.199	33.15
841.369	46.11
841.54	67.15
841.711	92.82
841.882	101.43
842.053	92.78
842.223	113.61
842.394	108.5
842.565	97.99
842.736	75.99
842.906	80.74
843.077	56.04
843.248	63.32
843.418	55.91
843.589	73.35
843.759	68.79
843.93	82.66
844.101	57.89
844.271	52.25
844.442	35.8
844.612	27.98
844.783	46.55
844.953	65.51
845.123	50.33
845.294	45.34
845.464	23.81
845.635	9.07
845.805	5.29
845.975	22.01
846.146	50.05
846.316	72.68
846.486	71.68
846.656	82.8
846.827	90.19
846.997	88.42
847.167	73.74
847.337	85.74
847.507	81.04
847.677	78.23
847.848	78.05
848.018	98.47
848.188	87.14
848.358	98.71
848.528	89.28
848.698	93.12
848.868	103.7
849.038	95.51
849.208	89.58
849.378	79.08
849.548	85.07
849.718	77.03
849.887	54.78
850.057	55.1
850.227	76.63
850.397	63.26
850.567	58.66
850.737	52.74
850.906	34.13
851.076	36.5
851.246	41.49
851.415	42.46
851.585	86.7
851.755	149.73
851.924	137.06
852.094	98.29
852.264	118.95
852.433	100.29
852.603	63.9
852.772	75.31
852.942	75.52
853.111	45.04
853.281	46.77
853.45	45.63
853.62	36.22
853.789	47.9
853.959	38.57
854.128	48.8
854.297	59.42
854.467	45.8
854.636	2.89
854.805	17.52
854.975	-38.39
855.144	22.07
855.313	14.48
855.482	70.66
855.652	82.73
855.821	99.8
855.99	76.08
856.159	82.48
856.328	69.23
856.497	52.02
856.667	29.57
856.836	18.82
857.005	33.41
857.174	22.72
857.343	31.65
857.512	28.68
857.681	59.46
857.85	54.65
858.019	82.82
858.188	80.44
858.356	92.76
858.525	102.36
858.694	199.34
858.863	117.53
859.032	105.63
859.201	137.21
859.369	92.92
859.538	48.82
859.707	50.22
859.876	43.88
860.044	25.4
860.213	29.95
860.382	31.1
860.55	20.44
860.719	20.15
860.888	37.38
861.056	35.16
861.225	44.22
861.393	51.05
861.562	35.83
861.73	42.17
861.899	51.33
862.067	57.65
862.236	43.99
862.404	52.94
862.572	35.89
862.741	38.14
862.909	7.98
863.078	20.08
863.246	75.69
863.414	39.62
863.582	13.36
863.751	27.3
863.919	21.21
864.087	-16.68
864.255	10.27
864.424	46.3
864.592	44.59
864.76	84.53
864.928	76.64
865.096	90.28
865.264	78.73
865.432	80.62
865.6	68.4
865.768	68.41
865.936	49.81
866.104	15.79
866.272	29.98
866.44	43.31
866.608	52.93
866.776	75.96
866.944	91.72
867.112	79.49
867.28	92.39
867.448	81.75
867.615	57.42
867.783	60.56
867.951	67.55
868.119	17.05
868.286	15.1
868.454	49.54
868.622	72.51
868.789	77.04
868.957	104.75
869.125	154.85
869.292	107.29
869.46	96.66
869.627	117.85
869.795	114.51
869.963	96.1
870.13	97.55
870.298	71.95
870.465	50.06
870.632	57.81
870.8	51.36
870.967	62.8
871.135	54.09
871.302	53.9
871.469	32.46
871.637	19.12
871.804	-5.71
871.971	52.52
872.139	50.5
872.306	37.1
872.473	71.29
872.64	75.16
872.807	28.07
872.975	33.66
873.142	60.81
873.309	49.18
873.476	35.36
873.643	8.5
873.81	4.89
873.977	31.18
874.144	23.92
874.311	64.81
874.478	97.62
874.645	116.22
874.812	96.44
874.979	82.12
875.146	110.36
875.313	75.44
875.48	14.81
875.647	46.98
875.813	44.69
875.98	6.96
876.147	24.07
876.314	42.3
876.481	24.26
876.647	-16.75
876.814	4.15
876.981	240.35
877.147	89.83
877.314	13.96
877.481	40.74
877.647	29.18
877.814	61.55
877.98	68.39
878.147	65.41
878.314	-1.28
878.48	37.42
878.647	36.03
878.813	-18.21
878.979	-36.43
879.146	32.74
879.312	31.91
879.479	27.77
879.645	72.53
879.811	103.94
879.978	115.72
880.144	89.36
880.31	101.67
880.477	61.27
880.643	69.68
880.809	34.22
880.975	84.27
881.142	45.17
881.308	-3.18
881.474	27.39
881.64	53.99
881.806	62.73
881.972	100.73
882.138	89.73
882.304	96.92
882.47	131.37
882.636	175.95
882.802	89.47
882.968	-0.38
883.134	62.95
883.3	37.67
883.466	36.11
883.632	28.47
883.798	57.52
883.964	28.45
884.129	21.07
884.295	18.17
884.461	18.49
884.627	19.38
884.793	22.81
884.958	27.35
885.124	49.21
885.29	60.92
885.455	37.27
885.621	46.38
885.787	72.35
885.952	222.77
886.118	170.71
886.283	146.95
886.449	191.7
886.614	184.01
886.78	140.8
886.945	181.38
887.111	502.67
887.276	-2233.33
887.442	-340
887.607	185.5
887.773	134.63
887.938	74.77
888.103	59.01
888.269	65.86
888.434	49.66
888.599	54.39
888.764	89.71
888.93	170.65
889.095	110.53
889.26	134.61
889.425	-1014.29
889.59	172
889.756	90.07
889.921	-746.15
890.086	477.46
890.251	-170.06
890.416	-13.18
890.581	-121.58
890.746	-32.03
890.911	31.34
891.076	87.4
891.241	52
891.406	62.19
891.571	66.24
891.736	69.01
891.901	78.45
892.065	107.16
892.23	-21.89
892.395	118.18
892.56	55.36
892.725	-35.18
892.889	-8.01
893.054	56.1
893.219	4.63
893.384	-52.94
893.548	9.15
893.713	-25.86
893.878	-48.84
