Data from Ofav_PP_Phys_4JQ12_Reflection_1.txt Node
Date: Tue Aug 03 18:17:21 EDT 2021
User: Adam
Spectrometer: FLMT01687
Trigger mode: 0
Integration Time (sec): 8.750000E-1
Scans to average: 2
Electric dark correction enabled: true
Nonlinearity correction enabled: false
Boxcar width: 2
XAxis mode: Wavelengths
Number of Pixels in Spectrum: 3648
>>>>>Begin Spectral Data<<<<<
179.494	184.38
179.716	189.79
179.937	243.21
180.158	380.58
180.38	680.7
180.601	14.81
180.823	177.04
181.044	55.72
181.265	-12.38
181.486	111.44
181.708	74.37
181.929	191.48
182.15	102.37
182.372	193.25
182.593	191.56
182.814	159.71
183.035	375.89
183.257	803.92
183.478	-26.93
183.699	-480.32
183.92	-119.73
184.141	-132.71
184.363	-31.02
184.584	-107.65
184.805	1.28
185.026	-32.62
185.247	-8.38
185.468	3.17
185.689	-11.97
185.91	-30.34
186.132	-11.13
186.353	1.57
186.574	-51.75
186.795	-4.26
187.016	15.2
187.237	26.9
187.458	17.57
187.679	38.68
187.9	33.43
188.121	31.23
188.342	-2.69
188.563	17.11
188.784	23.78
189.005	-13.18
189.226	-55.98
189.447	-15.36
189.667	-33.73
189.888	-32.38
190.109	32.36
190.33	67.42
190.551	73.19
190.772	93.88
190.993	57.03
191.214	46.55
191.434	48.39
191.655	15.6
191.876	15.38
192.097	27.13
192.318	31.28
192.538	31.29
192.759	41.28
192.98	40.06
193.201	32.24
193.421	28.09
193.642	8.84
193.863	-4.93
194.083	-3.49
194.304	-19.18
194.525	-57
194.745	2.85
194.966	49.8
195.187	85.33
195.407	110.75
195.628	100.32
195.848	77.27
196.069	58.7
196.29	11.09
196.51	-24.51
196.731	28.17
196.951	30.06
197.172	41.37
197.392	63.5
197.613	75.69
197.833	48.75
198.054	69.97
198.274	50.88
198.495	64.91
198.715	65.47
198.936	83.91
199.156	68.7
199.377	67.57
199.597	39.14
199.817	58.45
200.038	7.46
200.258	9.54
200.479	-37.99
200.699	-43.26
200.919	-91.88
201.14	14.1
201.36	17.99
201.58	29.48
201.801	20.26
202.021	29.36
202.241	21.14
202.461	31.04
202.682	46
202.902	52.45
203.122	56.7
203.342	61.25
203.563	16.63
203.783	-3
204.003	38.46
204.223	48.05
204.443	17.39
204.663	27.61
204.884	38.37
205.104	21.09
205.324	-28.04
205.544	11.93
205.764	-2.43
205.984	-57.25
206.204	-55.7
206.424	-72.57
206.644	-13.86
206.864	-24.68
207.084	10.18
207.304	-11.52
207.525	31.61
207.745	18.19
207.964	14.04
208.184	52.64
208.404	54.55
208.624	34.81
208.844	12.7
209.064	41.39
209.284	30.6
209.504	-0.53
209.724	-21.9
209.944	-26.31
210.164	-81.79
210.384	-82.86
210.604	-55.12
210.823	-11.07
211.043	51.88
211.263	61.67
211.483	44.48
211.703	71.09
211.922	45.37
212.142	26.67
212.362	5.96
212.582	18.6
212.801	-20.63
213.021	-4.64
213.241	-20.84
213.461	31.88
213.68	48.48
213.9	59.37
214.12	46.11
214.339	65.81
214.559	60.14
214.779	66.26
214.998	58.54
215.218	93.78
215.438	75.55
215.657	85
215.877	60.67
216.096	45.27
216.316	32.54
216.535	21.25
216.755	-34.97
216.974	-18.71
217.194	30.87
217.413	29.47
217.633	42.24
217.852	69.55
218.072	84.15
218.291	59.03
218.511	46.89
218.73	64.86
218.95	67.24
219.169	82.97
219.389	74.73
219.608	83.92
219.827	62.77
220.047	52.19
220.266	25.52
220.485	46.93
220.705	47.22
220.924	52.15
221.143	32.72
221.363	33.99
221.582	9.38
221.801	-14.94
222.021	-8.61
222.24	-4.91
222.459	-68.34
222.678	-34.52
222.897	-15.09
223.117	-50.56
223.336	-180.34
223.555	-2.77
223.774	12.12
223.993	-26.14
224.213	-34.07
224.432	1.01
224.651	13.99
224.87	19.82
225.089	12.32
225.308	8.3
225.527	-9.87
225.746	-46.88
225.965	-34.5
226.184	-44.32
226.404	-1.54
226.623	38.67
226.842	38.88
227.061	17.95
227.28	40.68
227.499	65.59
227.718	33.37
227.936	38.22
228.155	42.4
228.374	40.42
228.593	30.75
228.812	31.83
229.031	25.4
229.25	46.64
229.469	13.59
229.688	-54.35
229.907	-86.81
230.125	-80.58
230.344	-75.96
230.563	-52.9
230.782	-36.49
231.001	12.21
231.22	2.49
231.438	3.88
231.657	13.57
231.876	27.02
232.095	18.32
232.313	-5.16
232.532	-35.21
232.751	1.94
232.969	9.59
233.188	-16.3
233.407	18.22
233.625	42.39
233.844	13.93
234.063	11.98
234.281	18.19
234.5	33.22
234.719	30.4
234.937	16.28
235.156	-11.69
235.374	4.69
235.593	-0.31
235.811	5.28
236.03	26.58
236.249	57.26
236.467	58.33
236.686	57.88
236.904	59.3
237.123	65.58
237.341	77.12
237.559	80.23
237.778	71.66
237.996	56.19
238.215	47.6
238.433	18.54
238.652	2.07
238.87	4.1
239.088	11.74
239.307	15.25
239.525	23.58
239.743	40.04
239.962	43.92
240.18	63.51
240.398	76.57
240.617	95.91
240.835	56.85
241.053	44.29
241.271	-2.27
241.49	-31.96
241.708	-14.66
241.926	8.79
242.144	25.25
242.363	50.68
242.581	63.82
242.799	43.07
243.017	38.46
243.235	54.55
243.453	55.43
243.672	50.26
243.89	70.3
244.108	70.26
244.326	35.47
244.544	5.53
244.762	18.85
244.98	-8.04
245.198	-13.47
245.416	26.64
245.634	42.77
245.852	30.43
246.07	25.7
246.288	29.64
246.506	17
246.724	2.19
246.942	11.26
247.16	21.76
247.378	14.67
247.596	28.3
247.814	28.45
248.032	35.21
248.25	29.25
248.468	28.39
248.685	31.66
248.903	23.05
249.121	4.64
249.339	17.47
249.557	22.37
249.775	-2.6
249.992	31.85
250.21	33.63
250.428	20.99
250.646	2.48
250.863	19.5
251.081	0.41
251.299	-17.4
251.517	6.36
251.734	17.81
251.952	12.88
252.17	16.39
252.387	7.73
252.605	45.09
252.823	49.18
253.04	-8.06
253.258	22.48
253.475	51.14
253.693	41.3
253.911	55.17
254.128	69.65
254.346	55.44
254.563	51.91
254.781	53.93
254.998	44.4
255.216	35.99
255.433	58.63
255.651	44.91
255.868	12.82
256.086	-34.12
256.303	4.89
256.521	-1.84
256.738	-11.38
256.956	25.88
257.173	57.35
257.39	42.32
257.608	29.63
257.825	1.73
258.043	-54.63
258.26	-13.02
258.477	-1.42
258.695	1.54
258.912	24.05
259.129	45.53
259.346	53.64
259.564	56.69
259.781	69.6
259.998	64.9
260.216	51.13
260.433	34.54
260.65	2.15
260.867	-9.55
261.084	-6.78
261.302	-15.98
261.519	-0.53
261.736	32.5
261.953	50.61
262.17	28.42
262.387	42.03
262.604	33.12
262.822	39.9
263.039	26.23
263.256	34.21
263.473	38.78
263.69	55.82
263.907	34.69
264.124	12.58
264.341	-2.99
264.558	-52.36
264.775	-39.67
264.992	-25.64
265.209	-29.74
265.426	-29.95
265.643	-9.41
265.86	-21.96
266.077	-26.81
266.294	-5.84
266.51	8.46
266.727	24.96
266.944	32.12
267.161	43.34
267.378	35.04
267.595	32.64
267.812	33.8
268.028	27.57
268.245	11.47
268.462	40.34
268.679	52.11
268.896	17.55
269.112	33.84
269.329	30.22
269.546	-51.92
269.763	-50.71
269.979	-14.77
270.196	-13.9
270.413	12
270.629	20.44
270.846	40.97
271.063	43.45
271.279	47.23
271.496	57.76
271.712	48
271.929	25.74
272.146	45.86
272.362	40.97
272.579	13.07
272.795	10.84
273.012	13.53
273.228	2.73
273.445	2.95
273.661	16
273.878	34.96
274.094	22.19
274.311	15.87
274.527	-9.98
274.744	-1.9
274.96	-28.3
275.177	-40.91
275.393	-32.36
275.609	-16.36
275.826	-23.53
276.042	-11.23
276.259	6.98
276.475	-9.79
276.691	-8.75
276.908	-5.92
277.124	16.44
277.34	17.7
277.557	14.55
277.773	15.43
277.989	22.03
278.205	8.52
278.422	15.59
278.638	21.99
278.854	26.62
279.07	19.21
279.286	35.35
279.503	33.54
279.719	37.08
279.935	34.95
280.151	33.31
280.367	4.16
280.583	-32.69
280.799	-11.41
281.016	-17.62
281.232	-19.17
281.448	6.84
281.664	20.24
281.88	14.16
282.096	19.5
282.312	19.41
282.528	9.56
282.744	18.09
282.96	11.54
283.176	24.06
283.392	20.12
283.608	20.15
283.824	7.37
284.04	10.45
284.256	2.78
284.471	3.42
284.687	3.76
284.903	10.69
285.119	-8.38
285.335	5.75
285.551	27.3
285.767	39.9
285.982	45.53
286.198	61.48
286.414	24.39
286.63	7.14
286.846	-5.87
287.061	-7.94
287.277	-24.38
287.493	3.57
287.709	-20.29
287.924	3.75
288.14	-3.93
288.356	-43.9
288.571	-20.08
288.787	6.52
289.003	6.26
289.218	4.35
289.434	55.46
289.65	60.42
289.865	38.11
290.081	5.25
290.296	10.03
290.512	10.61
290.727	-29.45
290.943	-10.71
291.159	24.04
291.374	18.42
291.59	22.04
291.805	32.13
292.021	53.21
292.236	39.72
292.451	34.52
292.667	36.04
292.882	24.35
293.098	-5.87
293.313	-5.13
293.529	8.38
293.744	2.53
293.959	31.05
294.175	34.47
294.39	25.95
294.605	14.35
294.821	7.49
295.036	-0.92
295.251	1.23
295.467	17.58
295.682	42.99
295.897	36.68
296.112	32.75
296.328	30.86
296.543	44.15
296.758	34.25
296.973	36.82
297.188	27.06
297.404	30.74
297.619	24.51
297.834	27.22
298.049	30.64
298.264	50.14
298.479	30.1
298.694	12.85
298.909	16.59
299.125	13.57
299.34	-11.18
299.555	12.95
299.77	12.73
299.985	33.95
300.2	48.64
300.415	60.72
300.63	30.34
300.845	43.26
301.06	11.29
301.275	-20.19
301.49	20.37
301.704	32.14
301.919	45.22
302.134	53.84
302.349	43.73
302.564	41.07
302.779	34.67
302.994	11.49
303.209	4
303.423	0.11
303.638	-3.41
303.853	9.16
304.068	32.53
304.283	48.58
304.497	59.39
304.712	64.41
304.927	63.79
305.142	59.66
305.356	49.11
305.571	47.45
305.786	51.26
306	56.3
306.215	45.64
306.43	52.71
306.644	60.06
306.859	48.86
307.074	52.88
307.288	54.9
307.503	47.2
307.717	35.4
307.932	32.27
308.147	40.11
308.361	28.38
308.576	39
308.79	49.76
309.005	40.12
309.219	12.85
309.434	11.54
309.648	5.32
309.863	-6.32
310.077	-0.09
310.292	12.85
310.506	13.44
310.72	20.71
310.935	-0.74
311.149	-5.97
311.364	-25.09
311.578	-51.52
311.792	-42.71
312.007	-34.35
312.221	-21.3
312.435	-23.8
312.649	22
312.864	-42.36
313.078	-35.75
313.292	-38.44
313.507	-16.23
313.721	-31.12
313.935	7.82
314.149	15.24
314.363	33.13
314.578	13.89
314.792	4.99
315.006	-7.02
315.22	3.47
315.434	-9.66
315.648	-34.77
315.862	23.24
316.077	27.73
316.291	37.96
316.505	26.87
316.719	32.53
316.933	26.26
317.147	6.1
317.361	-7.52
317.575	1.51
317.789	13.85
318.003	4.97
318.217	33.57
318.431	39.09
318.645	43.89
318.859	46.37
319.073	25.21
319.287	28.38
319.5	38.28
319.714	60.98
319.928	64.7
320.142	70.44
320.356	50.7
320.57	35.11
320.784	28.77
320.997	-1.68
321.211	10.92
321.425	25.94
321.639	30.3
321.853	-3.56
322.066	19.05
322.28	21.29
322.494	-22.66
322.707	-44.94
322.921	-17.86
323.135	-16.59
323.349	-18.9
323.562	14.54
323.776	43.81
323.989	41.84
324.203	49.68
324.417	47.86
324.63	61.54
324.844	56.53
325.057	55.31
325.271	32.06
325.485	35.61
325.698	-1.4
325.912	-22.25
326.125	-13.67
326.339	8.14
326.552	-9.36
326.766	8.17
326.979	14.04
327.193	5.42
327.406	11.34
327.619	40.3
327.833	17.25
328.046	20.03
328.26	32.86
328.473	3.8
328.686	7.83
328.9	21.43
329.113	31.79
329.326	37.25
329.54	56.24
329.753	57.05
329.966	61.85
330.179	38.2
330.393	41.98
330.606	37.48
330.819	26.54
331.032	10.66
331.246	22.58
331.459	14.84
331.672	-0.07
331.885	-2.28
332.098	22.17
332.311	46.21
332.525	48.72
332.738	48.36
332.951	46.48
333.164	35.54
333.377	25.57
333.59	12.15
333.803	12.5
334.016	20.23
334.229	7.27
334.442	-18.46
334.655	-22.2
334.868	-45.93
335.081	-51.65
335.294	-22.44
335.507	5.52
335.72	10.24
335.933	25.08
336.146	20.8
336.359	11.41
336.572	14.32
336.785	15.98
336.997	16.89
337.21	13.9
337.423	27.43
337.636	37.4
337.849	41.92
338.062	36.46
338.274	25.09
338.487	34.04
338.7	20.72
338.913	26.53
339.125	30.85
339.338	35.01
339.551	15.33
339.763	1.07
339.976	3.57
340.189	0.1
340.402	-13.24
340.614	0.79
340.827	21.37
341.039	19.29
341.252	31.28
341.465	61.02
341.677	42.93
341.89	42.57
342.102	39.11
342.315	29.1
342.527	18.33
342.74	43.66
342.952	30.86
343.165	41.11
343.377	23.42
343.59	23.75
343.802	-3.93
344.015	-20.25
344.227	-59.22
344.44	-12.14
344.652	-18.08
344.864	-33.61
345.077	-25.55
345.289	-31.94
345.502	-85.69
345.714	-79.39
345.926	-38.23
346.139	-33.63
346.351	-15.17
346.563	14.29
346.775	20.8
346.988	10.12
347.2	17.35
347.412	24.79
347.624	24.6
347.837	9.37
348.049	11.1
348.261	2.81
348.473	-3.15
348.685	-4.59
348.897	12.23
349.11	8.92
349.322	3.14
349.534	-17.95
349.746	-17.65
349.958	-13.77
350.17	-5.41
350.382	-16.15
350.594	7.83
350.806	8.65
351.018	-1.3
351.23	-6.31
351.442	17.79
351.654	-4
351.866	18.89
352.078	24.36
352.29	31.06
352.502	38.04
352.714	49.51
352.926	41.34
353.138	30.43
353.35	40.57
353.561	47.06
353.773	51.95
353.985	44.39
354.197	44.17
354.409	42.24
354.621	43.62
354.832	46.2
355.044	53.45
355.256	59.04
355.468	50.61
355.679	44.21
355.891	37.03
356.103	37.83
356.314	25.39
356.526	26.73
356.738	31.6
356.949	37.08
357.161	14.53
357.373	18.03
357.584	25.97
357.796	12.99
358.008	5.3
358.219	24.39
358.431	30.16
358.642	23.15
358.854	-3.19
359.065	0.11
359.277	12.66
359.488	13.62
359.7	23.73
359.911	30.41
360.123	34.92
360.334	45.18
360.546	49.39
360.757	57.45
360.969	52.91
361.18	46.56
361.391	46.51
361.603	42.23
361.814	20.18
362.025	35.91
362.237	37.95
362.448	19.75
362.659	12.05
362.871	16.85
363.082	0.35
363.293	-8.5
363.504	4.37
363.716	19.63
363.927	28.82
364.138	38.21
364.349	39.44
364.56	37.51
364.772	52.46
364.983	39.6
365.194	37.81
365.405	37.34
365.616	24.56
365.827	20.55
366.038	29
366.25	19.45
366.461	28.3
366.672	23.24
366.883	6.11
367.094	1.55
367.305	16.24
367.516	0.34
367.727	11.64
367.938	15.36
368.149	13.03
368.36	9.06
368.571	15.23
368.781	21.5
368.992	31.08
369.203	46.84
369.414	38.83
369.625	30.46
369.836	19.03
370.047	5.82
370.258	-7.52
370.468	4.74
370.679	33.45
370.89	49.99
371.101	42.4
371.312	38.81
371.522	33.94
371.733	21.82
371.944	17.1
372.155	19.32
372.365	26.54
372.576	34.28
372.787	37.83
372.997	32.06
373.208	40.71
373.419	27.52
373.629	31.82
373.84	32.63
374.05	36.43
374.261	23.85
374.472	36.56
374.682	13.23
374.893	8.98
375.103	-7.27
375.314	14.43
375.524	21.91
375.735	35.35
375.945	33.2
376.156	48.23
376.366	41
376.577	34.94
376.787	37.29
376.997	30.89
377.208	18.01
377.418	17.94
377.629	6.19
377.839	4.32
378.049	5.13
378.26	3.49
378.47	-3.61
378.68	8.57
378.89	8.65
379.101	15.72
379.311	28.82
379.521	41.3
379.732	42.21
379.942	38.91
380.152	42.56
380.362	33.87
380.572	33.06
380.783	32.75
380.993	36.98
381.203	31.48
381.413	21.06
381.623	12.69
381.833	10.99
382.043	14.95
382.253	17.86
382.463	22.08
382.674	27.52
382.884	22.98
383.094	12.56
383.304	5.73
383.514	4.22
383.724	-1.18
383.934	5.69
384.144	10.22
384.353	8.53
384.563	9.66
384.773	5.91
384.983	3.53
385.193	2.68
385.403	8.31
385.613	10.23
385.823	13.24
386.033	12.16
386.242	14.16
386.452	9.14
386.662	8.71
386.872	5.3
387.082	5.57
387.291	3.81
387.501	5.17
387.711	3.69
387.921	8.62
388.13	8.67
388.34	7.41
388.55	9.48
388.759	9.38
388.969	8.75
389.179	6.39
389.388	5.03
389.598	4.31
389.807	5.24
390.017	4.83
390.227	5.24
390.436	5.24
390.646	2.1
390.855	-0.57
391.065	-0.81
391.274	1.51
391.484	2.84
391.693	5.27
391.903	6.4
392.112	6.55
392.322	4.25
392.531	3.03
392.74	1.72
392.95	3.43
393.159	2.1
393.369	3.51
393.578	3.4
393.787	4.24
393.997	3.64
394.206	4.73
394.415	3.83
394.625	4.45
394.834	4.82
395.043	4.84
395.252	4.37
395.462	4.36
395.671	3.33
395.88	2.91
396.089	2.25
396.298	2.63
396.508	2.49
396.717	3.41
396.926	2.99
397.135	2.85
397.344	2.46
397.553	2.21
397.762	1.48
397.971	2.02
398.181	2.42
398.39	2.97
398.599	2.84
398.808	3.3
399.017	2.79
399.226	2.08
399.435	1.36
399.644	1.46
399.853	1.24
400.062	1.04
400.27	1.35
400.479	1.64
400.688	1.78
400.897	1.84
401.106	2.08
401.315	2.38
401.524	2.41
401.733	2.24
401.941	1.99
402.15	2
402.359	2.03
402.568	1.78
402.777	1.62
402.985	1.75
403.194	1.74
403.403	1.41
403.612	1.55
403.82	1.77
404.029	1.72
404.238	1.84
404.446	1.81
404.655	1.66
404.864	1.51
405.072	1.59
405.281	1.38
405.489	1.56
405.698	1.79
405.906	1.89
406.115	1.74
406.324	1.86
406.532	1.69
406.741	1.54
406.949	1.5
407.158	1.69
407.366	1.63
407.574	1.61
407.783	1.61
407.991	1.69
408.2	1.36
408.408	1.23
408.617	1.31
408.825	1.36
409.033	1.31
409.242	1.42
409.45	1.39
409.658	1.48
409.867	1.42
410.075	1.43
410.283	1.49
410.491	1.51
410.7	1.46
410.908	1.41
411.116	1.32
411.324	1.4
411.533	1.43
411.741	1.41
411.949	1.31
412.157	1.38
412.365	1.27
412.573	1.32
412.781	1.26
412.99	1.38
413.198	1.35
413.406	1.36
413.614	1.24
413.822	1.28
414.03	1.4
414.238	1.38
414.446	1.41
414.654	1.6
414.862	1.62
415.07	1.42
415.278	1.23
415.486	1.22
415.694	1.23
415.902	1.16
416.109	1.3
416.317	1.55
416.525	1.52
416.733	1.45
416.941	1.53
417.149	1.43
417.357	1.32
417.564	1.44
417.772	1.44
417.98	1.52
418.188	1.7
418.395	1.74
418.603	1.68
418.811	1.7
419.019	1.55
419.226	1.36
419.434	1.18
419.642	1.19
419.849	1.13
420.057	1.08
420.265	1.03
420.472	1.32
420.68	1.2
420.887	1.31
421.095	1.13
421.302	1.25
421.51	1.01
421.717	1.06
421.925	0.94
422.132	1.07
422.34	1.16
422.547	1.09
422.755	1.03
422.962	1.18
423.17	1.33
423.377	1.18
423.585	1.33
423.792	1.37
423.999	1.13
424.207	1.12
424.414	0.96
424.621	0.8
424.829	0.75
425.036	0.96
425.243	0.92
425.451	1.06
425.658	1.31
425.865	1.37
426.072	1.21
426.28	1.1
426.487	1.11
426.694	0.94
426.901	1.02
427.108	1.06
427.315	1.38
427.523	1.17
427.73	1.11
427.937	1.21
428.144	1.24
428.351	1.02
428.558	1.06
428.765	1.24
428.972	1.15
429.179	1.09
429.386	0.95
429.593	1.13
429.8	1.33
430.007	1.24
430.214	1.18
430.421	1.43
430.628	1.42
430.835	1.32
431.042	1.22
431.249	1.37
431.456	1.33
431.662	1.3
431.869	1.18
432.076	1.33
432.283	1.24
432.49	1.22
432.697	1.22
432.903	1.39
433.11	1.27
433.317	1.12
433.524	0.91
433.73	1.08
433.937	0.84
434.144	0.94
434.35	1.07
434.557	1.3
434.764	1.22
434.97	1.38
435.177	1.36
435.384	1.51
435.59	1.37
435.797	1.22
436.003	0.97
436.21	0.91
436.416	0.82
436.623	0.75
436.829	0.86
437.036	1.03
437.242	1.09
437.449	1.1
437.655	1.18
437.862	1.16
438.068	1.14
438.275	1.08
438.481	0.93
438.687	1.02
438.894	1.14
439.1	1.28
439.307	1.19
439.513	1.3
439.719	1.19
439.926	1.02
440.132	0.94
440.338	1.07
440.544	0.98
440.751	1.1
440.957	1.1
441.163	1.05
441.369	1.07
441.575	1.27
441.782	1.33
441.988	1.49
442.194	1.54
442.4	1.59
442.606	1.44
442.812	1.43
443.018	1.28
443.224	1.19
443.431	0.99
443.637	1.14
443.843	1.07
444.049	1.11
444.255	1.27
444.461	1.46
444.667	1.43
444.873	1.33
445.079	1.35
445.284	1.3
445.49	1.37
445.696	1.43
445.902	1.57
446.108	1.64
446.314	1.59
446.52	1.52
446.726	1.43
446.931	1.38
447.137	1.37
447.343	1.43
447.549	1.47
447.755	1.54
447.96	1.53
448.166	1.5
448.372	1.4
448.578	1.41
448.783	1.33
448.989	1.34
449.195	1.26
449.4	1.39
449.606	1.36
449.812	1.44
450.017	1.42
450.223	1.53
450.428	1.55
450.634	1.45
450.84	1.36
451.045	1.46
451.251	1.54
451.456	1.44
451.662	1.37
451.867	1.36
452.073	1.34
452.278	1.18
452.483	1.1
452.689	1.18
452.894	1.21
453.1	1.16
453.305	1.22
453.51	1.32
453.716	1.38
453.921	1.47
454.127	1.56
454.332	1.57
454.537	1.55
454.742	1.54
454.948	1.42
455.153	1.35
455.358	1.29
455.563	1.2
455.769	1.22
455.974	1.28
456.179	1.35
456.384	1.39
456.589	1.54
456.795	1.56
457	1.55
457.205	1.46
457.41	1.47
457.615	1.46
457.82	1.4
458.025	1.44
458.23	1.46
458.435	1.38
458.64	1.41
458.845	1.37
459.05	1.33
459.255	1.35
459.46	1.41
459.665	1.36
459.87	1.36
460.075	1.33
460.28	1.42
460.485	1.43
460.69	1.4
460.895	1.51
461.099	1.57
461.304	1.4
461.509	1.41
461.714	1.5
461.919	1.43
462.123	1.43
462.328	1.41
462.533	1.44
462.738	1.33
462.942	1.33
463.147	1.31
463.352	1.35
463.556	1.37
463.761	1.37
463.966	1.34
464.17	1.33
464.375	1.38
464.58	1.38
464.784	1.44
464.989	1.57
465.193	1.58
465.398	1.61
465.602	1.48
465.807	1.51
466.011	1.51
466.216	1.45
466.42	1.41
466.625	1.51
466.829	1.5
467.034	1.44
467.238	1.42
467.443	1.42
467.647	1.46
467.851	1.5
468.056	1.39
468.26	1.51
468.464	1.57
468.669	1.52
468.873	1.43
469.077	1.47
469.282	1.45
469.486	1.39
469.69	1.34
469.894	1.38
470.099	1.4
470.303	1.23
470.507	1.28
470.711	1.41
470.915	1.45
471.119	1.61
471.324	1.83
471.528	1.86
471.732	1.75
471.936	1.76
472.14	1.63
472.344	1.55
472.548	1.52
472.752	1.48
472.956	1.35
473.16	1.36
473.364	1.46
473.568	1.47
473.772	1.48
473.976	1.61
474.18	1.64
474.384	1.56
474.588	1.6
474.792	1.76
474.995	1.71
475.199	1.65
475.403	1.62
475.607	1.55
475.811	1.45
476.015	1.38
476.218	1.43
476.422	1.55
476.626	1.6
476.83	1.57
477.033	1.7
477.237	1.7
477.441	1.61
477.644	1.55
477.848	1.67
478.052	1.71
478.255	1.73
478.459	1.77
478.663	1.72
478.866	1.69
479.07	1.63
479.273	1.59
479.477	1.55
479.681	1.59
479.884	1.58
480.088	1.58
480.291	1.6
480.495	1.62
480.698	1.62
480.901	1.56
481.105	1.5
481.308	1.53
481.512	1.61
481.715	1.65
481.919	1.69
482.122	1.77
482.325	1.82
482.529	1.77
482.732	1.76
482.935	1.79
483.138	1.73
483.342	1.65
483.545	1.7
483.748	1.61
483.952	1.61
484.155	1.64
484.358	1.69
484.561	1.65
484.764	1.74
484.967	1.7
485.171	1.69
485.374	1.72
485.577	1.73
485.78	1.68
485.983	1.67
486.186	1.69
486.389	1.68
486.592	1.7
486.795	1.75
486.998	1.79
487.201	1.82
487.404	1.78
487.607	1.72
487.81	1.73
488.013	1.69
488.216	1.69
488.419	1.61
488.622	1.66
488.825	1.7
489.028	1.72
489.231	1.73
489.433	1.84
489.636	1.86
489.839	1.87
490.042	1.92
490.245	1.99
490.447	1.96
490.65	1.91
490.853	1.9
491.056	1.85
491.258	1.8
491.461	1.87
491.664	1.79
491.866	1.81
492.069	1.81
492.272	1.82
492.474	1.77
492.677	1.81
492.879	1.72
493.082	1.6
493.285	1.56
493.487	1.57
493.69	1.62
493.892	1.73
494.095	1.81
494.297	1.87
494.5	1.89
494.702	1.86
494.905	1.85
495.107	1.93
495.309	1.89
495.512	1.88
495.714	1.82
495.917	1.8
496.119	1.78
496.321	1.72
496.524	1.73
496.726	1.83
496.928	1.84
497.13	1.91
497.333	2.01
497.535	2.03
497.737	2.09
497.939	2.11
498.142	2.07
498.344	2.07
498.546	2.07
498.748	1.98
498.95	2
499.152	2
499.355	2.05
499.557	1.99
499.759	1.97
499.961	1.96
500.163	1.98
500.365	1.97
500.567	1.95
500.769	2.06
500.971	2.11
501.173	2.16
501.375	2.13
501.577	2.22
501.779	2.25
501.981	2.25
502.183	2.24
502.385	2.32
502.587	2.39
502.788	2.32
502.99	2.34
503.192	2.4
503.394	2.36
503.596	2.33
503.798	2.37
503.999	2.41
504.201	2.37
504.403	2.41
504.605	2.44
504.806	2.59
505.008	2.6
505.21	2.52
505.411	2.55
505.613	2.54
505.815	2.47
506.016	2.42
506.218	2.52
506.42	2.53
506.621	2.53
506.823	2.55
507.024	2.65
507.226	2.73
507.427	2.79
507.629	2.88
507.83	2.88
508.032	2.83
508.233	2.78
508.435	2.77
508.636	2.71
508.838	2.71
509.039	2.76
509.24	2.73
509.442	2.71
509.643	2.79
509.845	2.81
510.046	2.81
510.247	2.89
510.448	2.92
510.65	2.95
510.851	2.9
511.052	2.92
511.254	2.99
511.455	2.9
511.656	2.81
511.857	2.78
512.058	2.83
512.26	2.75
512.461	2.84
512.662	2.93
512.863	3.1
513.064	3.12
513.265	3.1
513.466	3.11
513.667	3.12
513.868	3.04
514.069	2.99
514.27	3.01
514.471	3.04
514.672	3.06
514.873	3.08
515.074	3.1
515.275	3.16
515.476	3.19
515.677	3.13
515.878	3.15
516.079	3.22
516.28	3.22
516.481	3.2
516.682	3.27
516.882	3.34
517.083	3.33
517.284	3.41
517.485	3.44
517.686	3.41
517.886	3.44
518.087	3.4
518.288	3.34
518.488	3.38
518.689	3.37
518.89	3.4
519.091	3.48
519.291	3.52
519.492	3.49
519.692	3.59
519.893	3.45
520.094	3.44
520.294	3.45
520.495	3.53
520.695	3.51
520.896	3.64
521.096	3.67
521.297	3.7
521.497	3.7
521.698	3.74
521.898	3.68
522.099	3.68
522.299	3.61
522.499	3.62
522.7	3.61
522.9	3.7
523.101	3.66
523.301	3.71
523.501	3.7
523.702	3.73
523.902	3.66
524.102	3.64
524.302	3.68
524.503	3.71
524.703	3.7
524.903	3.78
525.103	3.89
525.304	3.83
525.504	3.75
525.704	3.74
525.904	3.76
526.104	3.79
526.304	3.88
526.504	3.97
526.705	4.04
526.905	3.95
527.105	3.9
527.305	3.86
527.505	3.9
527.705	3.92
527.905	4.01
528.105	4.05
528.305	4.13
528.505	4.16
528.705	4.17
528.905	4.21
529.105	4.23
529.304	4.14
529.504	4.09
529.704	4.13
529.904	4.16
530.104	4.17
530.304	4.33
530.503	4.39
530.703	4.39
530.903	4.39
531.103	4.4
531.303	4.39
531.502	4.38
531.702	4.36
531.902	4.36
532.101	4.38
532.301	4.4
532.501	4.37
532.7	4.4
532.9	4.47
533.1	4.51
533.299	4.53
533.499	4.54
533.698	4.61
533.898	4.59
534.097	4.63
534.297	4.59
534.496	4.61
534.696	4.56
534.895	4.52
535.095	4.51
535.294	4.57
535.494	4.63
535.693	4.68
535.892	4.75
536.092	4.79
536.291	4.83
536.491	4.91
536.69	4.91
536.889	4.99
537.088	5.07
537.288	5.08
537.487	5.07
537.686	5.13
537.886	5.12
538.085	5.1
538.284	5.1
538.483	5.18
538.682	5.17
538.882	5.21
539.081	5.16
539.28	5.24
539.479	5.21
539.678	5.26
539.877	5.26
540.076	5.4
540.275	5.46
540.474	5.45
540.673	5.47
540.872	5.54
541.071	5.53
541.27	5.57
541.469	5.6
541.668	5.6
541.867	5.66
542.066	5.7
542.265	5.74
542.464	5.87
542.663	5.94
542.862	5.94
543.06	5.97
543.259	5.97
543.458	6
543.657	6.1
543.856	6.17
544.054	6.18
544.253	6.2
544.452	6.25
544.651	6.2
544.849	6.27
545.048	6.36
545.247	6.43
545.445	6.42
545.644	6.51
545.843	6.49
546.041	6.5
546.24	6.49
546.438	6.57
546.637	6.69
546.836	6.72
547.034	6.73
547.233	6.83
547.431	6.95
547.63	6.97
547.828	7.09
548.027	7.17
548.225	7.27
548.423	7.25
548.622	7.27
548.82	7.34
549.019	7.4
549.217	7.32
549.415	7.42
549.614	7.52
549.812	7.53
550.01	7.7
550.209	7.86
550.407	7.91
550.605	7.91
550.803	7.97
551.002	7.97
551.2	8.06
551.398	8.09
551.596	8.18
551.794	8.3
551.993	8.36
552.191	8.45
552.389	8.49
552.587	8.58
552.785	8.65
552.983	8.7
553.181	8.72
553.379	8.8
553.577	8.91
553.775	8.93
553.973	9.02
554.171	9.08
554.369	9.19
554.567	9.23
554.765	9.35
554.963	9.35
555.161	9.5
555.359	9.63
555.557	9.59
555.755	9.61
555.952	9.71
556.15	9.72
556.348	9.69
556.546	9.89
556.744	9.94
556.941	9.97
557.139	10.05
557.337	10.18
557.535	10.28
557.732	10.43
557.93	10.46
558.128	10.53
558.325	10.45
558.523	10.46
558.721	10.45
558.918	10.67
559.116	10.75
559.313	10.9
559.511	10.95
559.708	11.03
559.906	11.05
560.104	11.12
560.301	11.15
560.498	11.26
560.696	11.39
560.893	11.44
561.091	11.53
561.288	11.7
561.486	11.71
561.683	11.75
561.88	11.81
562.078	11.87
562.275	11.92
562.473	11.98
562.67	11.95
562.867	12.03
563.064	12.07
563.262	12.1
563.459	12.2
563.656	12.19
563.853	12.26
564.051	12.34
564.248	12.37
564.445	12.44
564.642	12.59
564.839	12.63
565.036	12.63
565.234	12.65
565.431	12.72
565.628	12.76
565.825	12.76
566.022	12.79
566.219	12.9
566.416	12.87
566.613	12.97
566.81	13.1
567.007	13.12
567.204	13.24
567.401	13.28
567.598	13.3
567.795	13.34
567.991	13.35
568.188	13.33
568.385	13.21
568.582	13.23
568.779	13.22
568.976	13.25
569.172	13.24
569.369	13.41
569.566	13.41
569.763	13.36
569.96	13.4
570.156	13.41
570.353	13.47
570.55	13.51
570.746	13.57
570.943	13.59
571.14	13.6
571.336	13.53
571.533	13.5
571.729	13.5
571.926	13.48
572.123	13.46
572.319	13.49
572.516	13.47
572.712	13.46
572.909	13.44
573.105	13.4
573.302	13.33
573.498	13.27
573.695	13.28
573.891	13.22
574.087	13.29
574.284	13.41
574.48	13.55
574.677	13.51
574.873	13.54
575.069	13.56
575.266	13.46
575.462	13.37
575.658	13.35
575.854	13.42
576.051	13.34
576.247	13.33
576.443	13.3
576.639	13.37
576.835	13.23
577.032	13.2
577.228	13.21
577.424	13.16
577.62	13.14
577.816	13.14
578.012	13.2
578.208	13.09
578.404	13.07
578.6	13.06
578.796	13.1
578.993	13.08
579.189	13.19
579.384	13.24
579.58	13.17
579.776	13.17
579.972	13.14
580.168	13.13
580.364	13.12
580.56	13.15
580.756	13.12
580.952	13.11
581.148	13.03
581.343	12.96
581.539	12.88
581.735	12.75
581.931	12.69
582.127	12.7
582.322	12.68
582.518	12.61
582.714	12.68
582.909	12.64
583.105	12.56
583.301	12.55
583.496	12.54
583.692	12.51
583.888	12.55
584.083	12.55
584.279	12.51
584.474	12.49
584.67	12.39
584.866	12.33
585.061	12.35
585.257	12.26
585.452	12.34
585.648	12.4
585.843	12.37
586.039	12.32
586.234	12.34
586.429	12.28
586.625	12.22
586.82	12.23
587.015	12.26
587.211	12.3
587.406	12.38
587.601	12.4
587.797	12.35
587.992	12.28
588.187	12.24
588.383	12.19
588.578	12.28
588.773	12.29
588.968	12.32
589.163	12.36
589.359	12.32
589.554	12.3
589.749	12.28
589.944	12.25
590.139	12.26
590.334	12.31
590.529	12.3
590.724	12.4
590.919	12.39
591.114	12.37
591.309	12.31
591.504	12.32
591.699	12.28
591.894	12.34
592.089	12.36
592.284	12.43
592.479	12.36
592.674	12.5
592.869	12.53
593.064	12.56
593.259	12.55
593.454	12.57
593.648	12.55
593.843	12.58
594.038	12.62
594.233	12.65
594.428	12.8
594.622	12.78
594.817	12.84
595.012	12.82
595.206	12.88
595.401	12.92
595.596	12.91
595.79	12.97
595.985	13.05
596.18	13.15
596.374	13.21
596.569	13.31
596.763	13.39
596.958	13.42
597.153	13.38
597.347	13.43
597.542	13.41
597.736	13.38
597.931	13.39
598.125	13.47
598.319	13.48
598.514	13.64
598.708	13.74
598.903	13.82
599.097	13.89
599.291	13.92
599.486	13.91
599.68	13.87
599.874	13.9
600.069	13.87
600.263	13.9
600.457	13.91
600.651	13.94
600.846	14.03
601.04	14.06
601.234	14.08
601.428	14.11
601.622	14.13
601.817	14.07
602.011	14.14
602.205	14.17
602.399	14.22
602.593	14.2
602.787	14.21
602.981	14.17
603.175	14.16
603.369	14.1
603.563	14.1
603.757	14.1
603.951	14.05
604.145	13.93
604.339	13.96
604.533	13.98
604.727	14.03
604.921	14.08
605.115	14.1
605.309	13.98
605.502	14.01
605.696	13.97
605.89	13.92
606.084	13.95
606.278	14.04
606.471	13.93
606.665	13.81
606.859	13.78
607.053	13.74
607.246	13.63
607.44	13.55
607.634	13.59
607.827	13.53
608.021	13.48
608.214	13.46
608.408	13.45
608.602	13.4
608.795	13.4
608.989	13.37
609.182	13.24
609.376	13.1
609.569	13.05
609.763	12.94
609.956	12.94
610.15	12.98
610.343	13.08
610.537	12.98
610.73	12.94
610.923	12.84
611.117	12.76
611.31	12.62
611.504	12.57
611.697	12.57
611.89	12.55
612.083	12.5
612.277	12.45
612.47	12.46
612.663	12.41
612.856	12.31
613.05	12.29
613.243	12.22
613.436	12.03
613.629	11.97
613.822	11.9
614.015	11.87
614.209	11.88
614.402	11.98
614.595	11.96
614.788	11.91
614.981	11.8
615.174	11.71
615.367	11.58
615.56	11.47
615.753	11.39
615.946	11.37
616.139	11.27
616.332	11.2
616.525	11.16
616.718	11.15
616.911	11.17
617.103	11.22
617.296	11.23
617.489	11.19
617.682	11.17
617.875	11.06
618.067	11.03
618.26	11.03
618.453	10.94
618.646	10.91
618.838	10.83
619.031	10.78
619.224	10.77
619.417	10.85
619.609	10.83
619.802	10.83
619.994	10.74
620.187	10.58
620.38	10.53
620.572	10.44
620.765	10.42
620.957	10.48
621.15	10.6
621.342	10.61
621.535	10.55
621.727	10.46
621.92	10.43
622.112	10.4
622.305	10.3
622.497	10.42
622.69	10.45
622.882	10.34
623.074	10.25
623.267	10.25
623.459	10.24
623.651	10.24
623.844	10.33
624.036	10.38
624.228	10.41
624.42	10.36
624.613	10.3
624.805	10.25
624.997	10.15
625.189	10.11
625.381	10.12
625.574	10.17
625.766	10.21
625.958	10.23
626.15	10.14
626.342	10.07
626.534	10.01
626.726	9.93
626.918	9.92
627.11	9.93
627.302	9.88
627.494	9.98
627.686	10.02
627.878	10.01
628.07	9.98
628.262	9.97
628.454	9.84
628.646	9.79
628.838	9.67
629.029	9.68
629.221	9.66
629.413	9.65
629.605	9.66
629.797	9.71
629.989	9.65
630.18	9.63
630.372	9.53
630.564	9.5
630.755	9.41
630.947	9.45
631.139	9.49
631.33	9.5
631.522	9.37
631.714	9.36
631.905	9.3
632.097	9.2
632.289	9.22
632.48	9.25
632.672	9.28
632.863	9.22
633.055	9.18
633.246	9.15
633.438	9.1
633.629	9.04
633.821	9.05
634.012	9
634.203	8.96
634.395	8.99
634.586	9.01
634.777	8.98
634.969	9.02
635.16	9.05
635.351	9.03
635.543	8.94
635.734	8.94
635.925	9
636.117	8.88
636.308	8.82
636.499	8.81
636.69	8.8
636.881	8.7
637.073	8.69
637.264	8.63
637.455	8.63
637.646	8.6
637.837	8.65
638.028	8.65
638.219	8.69
638.41	8.68
638.601	8.6
638.792	8.56
638.983	8.57
639.174	8.56
639.365	8.46
639.556	8.55
639.747	8.46
639.938	8.44
640.129	8.36
640.32	8.33
640.511	8.23
640.701	8.22
640.892	8.19
641.083	8.12
641.274	8.13
641.465	8.08
641.655	8.04
641.846	7.99
642.037	8.06
642.228	7.96
642.418	7.87
642.609	7.83
642.8	7.76
642.99	7.72
643.181	7.73
643.372	7.75
643.562	7.76
643.753	7.74
643.943	7.75
644.134	7.78
644.324	7.73
644.515	7.7
644.705	7.69
644.896	7.63
645.086	7.63
645.277	7.66
645.467	7.65
645.658	7.68
645.848	7.69
646.038	7.62
646.229	7.66
646.419	7.59
646.61	7.64
646.8	7.62
646.99	7.62
647.18	7.52
647.371	7.52
647.561	7.43
647.751	7.46
647.941	7.51
648.132	7.6
648.322	7.63
648.512	7.63
648.702	7.65
648.892	7.57
649.082	7.56
649.272	7.55
649.462	7.56
649.653	7.46
649.843	7.52
650.033	7.39
650.223	7.37
650.413	7.38
650.603	7.37
650.793	7.31
650.983	7.41
651.172	7.36
651.362	7.25
651.552	7.29
651.742	7.33
651.932	7.22
652.122	7.24
652.312	7.23
652.502	7.11
652.691	7.01
652.881	7
653.071	6.94
653.261	6.91
653.45	6.84
653.64	6.74
653.83	6.71
654.019	6.64
654.209	6.57
654.399	6.49
654.588	6.51
654.778	6.39
654.968	6.33
655.157	6.22
655.347	6.21
655.536	6.1
655.726	6.05
655.915	5.96
656.105	5.94
656.294	5.9
656.484	5.89
656.673	5.96
656.863	5.93
657.052	5.92
657.241	5.92
657.431	5.84
657.62	5.63
657.809	5.53
657.999	5.49
658.188	5.42
658.377	5.31
658.567	5.19
658.756	5.18
658.945	5.09
659.134	5
659.324	4.92
659.513	4.92
659.702	4.84
659.891	4.77
660.08	4.7
660.269	4.75
660.458	4.64
660.648	4.6
660.837	4.57
661.026	4.46
661.215	4.38
661.404	4.38
661.593	4.24
661.782	4.08
661.971	4.04
662.16	3.81
662.349	3.65
662.538	3.64
662.726	3.68
662.915	3.63
663.104	3.64
663.293	3.55
663.482	3.45
663.671	3.33
663.86	3.28
664.048	3.34
664.237	3.4
664.426	3.42
664.615	3.42
664.803	3.35
664.992	3.28
665.181	3.32
665.369	3.27
665.558	3.29
665.747	3.34
665.935	3.26
666.124	3.25
666.312	3.24
666.501	3.22
666.69	3.21
666.878	3.37
667.067	3.3
667.255	3.36
667.444	3.2
667.632	3.1
667.82	2.89
668.009	2.95
668.197	2.96
668.386	3.07
668.574	3.12
668.762	3.26
668.951	3.19
669.139	3.14
669.327	3.22
669.516	3.13
669.704	3.13
669.892	3.13
670.08	3.14
670.269	3.15
670.457	3.27
670.645	3.3
670.833	3.35
671.021	3.36
671.21	3.36
671.398	3.25
671.586	3.26
671.774	3.4
671.962	3.58
672.15	3.65
672.338	3.9
672.526	3.94
672.714	3.95
672.902	3.87
673.09	3.83
673.278	3.65
673.466	3.69
673.654	3.67
673.842	3.79
674.03	3.81
674.218	4.1
674.405	4.23
674.593	4.28
674.781	4.12
674.969	4.12
675.157	3.95
675.344	3.8
675.532	3.87
675.72	4.01
675.908	4.09
676.095	4.32
676.283	4.43
676.471	4.3
676.658	4.4
676.846	4.53
677.033	4.46
677.221	4.61
677.409	4.78
677.596	4.81
677.784	4.79
677.971	4.89
678.159	4.83
678.346	4.81
678.534	4.93
678.721	4.93
678.909	4.87
679.096	4.97
679.283	5.04
679.471	5.02
679.658	5.16
679.846	5.24
680.033	5.25
680.22	5.31
680.408	5.39
680.595	5.43
680.782	5.51
680.969	5.49
681.157	5.56
681.344	5.56
681.531	5.61
681.718	5.7
681.905	5.81
682.093	5.79
682.28	5.82
682.467	5.9
682.654	5.85
682.841	6.05
683.028	6.19
683.215	6.37
683.402	6.44
683.589	6.64
683.776	6.68
683.963	6.83
684.15	6.78
684.337	6.92
684.524	7.03
684.711	7.07
684.898	7.13
685.085	7.19
685.271	7.17
685.458	7.2
685.645	7.16
685.832	7.31
686.019	7.68
686.205	7.86
686.392	8.03
686.579	8.46
686.766	8.52
686.952	8.75
687.139	8.83
687.326	9.09
687.512	9.18
687.699	9.44
687.886	9.42
688.072	9.79
688.259	10.1
688.445	10.43
688.632	10.78
688.818	11.13
689.005	11.39
689.191	11.63
689.378	11.88
689.564	12.14
689.751	12.37
689.937	12.76
690.124	13.1
690.31	13.45
690.496	13.76
690.683	14.08
690.869	14.36
691.055	14.62
691.242	14.83
691.428	15.15
691.614	15.61
691.8	16.11
691.987	16.57
692.173	17.21
692.359	17.72
692.545	18.29
692.731	18.71
692.918	19.05
693.104	19.37
693.29	19.65
693.476	20.08
693.662	20.6
693.848	21.37
694.034	21.92
694.22	22.67
694.406	23.22
694.592	23.69
694.778	24.04
694.964	24.61
695.15	25.19
695.336	25.55
695.522	25.8
695.708	26.4
695.894	26.87
696.08	27.32
696.265	27.98
696.451	28.89
696.637	29.21
696.823	29.78
697.009	30.44
697.194	31.09
697.38	31.58
697.566	32.48
697.751	33.07
697.937	33.6
698.123	33.93
698.308	34.23
698.494	34.56
698.68	34.94
698.865	35.31
699.051	35.86
699.236	36.46
699.422	37.04
699.607	37.84
699.793	38.22
699.978	38.81
700.164	39.34
700.349	39.66
700.535	39.96
700.72	40.38
700.906	40.89
701.091	41.33
701.276	41.9
701.462	42.11
701.647	43.07
701.832	43.44
702.018	43.95
702.203	44.45
702.388	45.28
702.573	45.56
702.759	45.68
702.944	46.25
703.129	46.55
703.314	46.69
703.499	46.91
703.684	47.66
703.87	47.67
704.055	47.83
704.24	48.23
704.425	48.74
704.61	49.03
704.795	49.72
704.98	50.51
705.165	50.92
705.35	51.25
705.535	51.9
705.72	51.91
705.905	51.96
706.09	52.18
706.275	52.59
706.459	52.81
706.644	53.39
706.829	53.54
707.014	54.1
707.199	54.14
707.384	54.05
707.568	54.29
707.753	54.73
707.938	54.64
708.123	54.64
708.307	55.15
708.492	55.2
708.677	55.53
708.861	55.9
709.046	56.39
709.231	56.49
709.415	57.16
709.6	57.82
709.784	58.04
709.969	58.29
710.153	58.5
710.338	58.84
710.522	58.65
710.707	58.88
710.891	58.99
711.076	59.17
711.26	58.72
711.445	58.87
711.629	59.14
711.813	59.42
711.998	59.57
712.182	60.22
712.366	60.25
712.551	60.22
712.735	59.99
712.919	60.07
713.103	59.9
713.288	60.42
713.472	60.49
713.656	60.78
713.84	61.45
714.024	61.64
714.208	61.61
714.393	61.87
714.577	61.8
714.761	61.17
714.945	61.13
715.129	61.35
715.313	61.41
715.497	62.35
715.681	62.83
715.865	63.44
716.049	63.4
716.233	63.73
716.417	63.53
716.601	63.42
716.785	63.44
716.968	63.45
717.152	63.37
717.336	63.27
717.52	63.59
717.704	63.51
717.888	63.76
718.071	63.95
718.255	64.12
718.439	64.25
718.622	64.58
718.806	64.2
718.99	64.3
719.174	64.54
719.357	64.59
719.541	64.37
719.724	64.78
719.908	65.33
720.092	65.51
720.275	66.01
720.459	66.3
720.642	66.46
720.826	66.51
721.009	66.16
721.193	66.04
721.376	66.15
721.559	65.96
721.743	65.76
721.926	66.21
722.11	66.45
722.293	66.67
722.476	67.13
722.66	67.22
722.843	67.64
723.026	67.63
723.21	67.64
723.393	67.47
723.576	67.6
723.759	67.65
723.942	67.83
724.126	67.9
724.309	68.37
724.492	68.98
724.675	69.3
724.858	69.42
725.041	69.44
725.224	69.69
725.407	69.5
725.59	69.11
725.774	69.25
725.957	69.92
726.14	69.9
726.322	69.74
726.505	70.42
726.688	70.66
726.871	70.27
727.054	71.01
727.237	71.63
727.42	71.67
727.603	72.14
727.786	72.61
727.968	72.03
728.151	72.44
728.334	72.83
728.517	72.7
728.699	72.83
728.882	73.28
729.065	73.27
729.248	72.81
729.43	72.75
729.613	73.08
729.796	73.73
729.978	74.04
730.161	74.2
730.343	73.94
730.526	73.54
730.708	73.42
730.891	73.57
731.073	74.26
731.256	75.14
731.438	76.29
731.621	76.01
731.803	75.38
731.986	75.63
732.168	76.35
732.35	76.57
732.533	77.7
732.715	78.85
732.898	78.41
733.08	78.16
733.262	77.88
733.444	78.09
733.627	77.95
733.809	78.42
733.991	77.74
734.173	78.34
734.355	77.5
734.538	77.85
734.72	78.65
734.902	79.04
735.084	78.58
735.266	79.03
735.448	79.44
735.63	79.57
735.812	80.21
735.994	79.64
736.176	80
736.358	78.57
736.54	77.22
736.722	77.07
736.904	78.23
737.086	77.54
737.268	77.94
737.45	79.14
737.632	79.69
737.814	79.76
737.995	80.63
738.177	81.36
738.359	81.61
738.541	81.2
738.723	81.33
738.904	81.29
739.086	81.6
739.268	81.07
739.449	81.05
739.631	79.76
739.813	79.71
739.994	79.73
740.176	79.99
740.358	80.56
740.539	81.26
740.721	81.36
740.902	81.24
741.084	80.5
741.265	81.01
741.447	81.23
741.628	81.57
741.81	81.73
741.991	82.69
742.172	82.09
742.354	82.96
742.535	83.59
742.717	83.77
742.898	84.1
743.079	84.09
743.261	84.51
743.442	84
743.623	83.49
743.804	82.86
743.986	83.28
744.167	83.28
744.348	83.53
744.529	84.11
744.71	84.45
744.891	84.37
745.073	83.99
745.254	83.21
745.435	82.87
745.616	83.93
745.797	83.78
745.978	84.67
746.159	85.69
746.34	86.03
746.521	85.09
746.702	85.66
746.883	84.69
747.064	85.14
747.245	85.28
747.426	86.5
747.606	85.7
747.787	84.78
747.968	83.35
748.149	83.54
748.33	82.62
748.51	83.36
748.691	84.34
748.872	85.22
749.053	85.81
749.233	87.24
749.414	86.89
749.595	87.15
749.775	87.95
749.956	87.95
750.137	86.44
750.317	85.06
750.498	85
750.678	84.56
750.859	83.51
751.04	83.04
751.22	85.38
751.4	84.66
751.581	85.13
751.761	84.14
751.942	84.55
752.122	84.05
752.303	84.34
752.483	83.01
752.663	84.52
752.844	84.99
753.024	85.27
753.204	86.24
753.385	87.36
753.565	87.3
753.745	86.55
753.925	85.95
754.106	86.03
754.286	84.33
754.466	84.1
754.646	85.45
754.826	85.59
755.006	85.6
755.187	86.42
755.367	87.22
755.547	87.05
755.727	86.76
755.907	85.93
756.087	84.96
756.267	83.95
756.447	83.26
756.627	83.59
756.807	83.71
756.987	86.37
757.167	87.4
757.346	86.59
757.526	86.31
757.706	86.28
757.886	86.51
758.066	85.61
758.246	86.41
758.425	87.32
758.605	87.05
758.785	86.27
758.965	87.36
759.144	88.34
759.324	88.28
759.504	87.7
759.683	87.52
759.863	86.43
760.043	85.45
760.222	85.84
760.402	87.47
760.581	86.57
760.761	85.85
760.94	86.88
761.12	85.72
761.299	85.17
761.479	84.58
761.658	86.36
761.838	86.25
762.017	87.12
762.197	87.14
762.376	89.38
762.555	88.61
762.735	85.47
762.914	85.03
763.093	83.12
763.273	80.83
763.452	79.85
763.631	82.56
763.81	83.09
763.99	84.22
764.169	85.45
764.348	85.88
764.527	84.71
764.706	83.08
764.885	83.69
765.064	82.73
765.243	84.26
765.423	85.9
765.602	86.26
765.781	87.38
765.96	88
766.139	86.91
766.318	85.78
766.497	86.04
766.676	84.71
766.854	83.68
767.033	83.11
767.212	83.46
767.391	84.53
767.57	83.64
767.749	83.79
767.928	83.73
768.106	82.71
768.285	82.02
768.464	83.63
768.643	83.87
768.821	83.59
769	83.28
769.179	83.87
769.357	85.94
769.536	87.95
769.715	87.1
769.893	86.74
770.072	85.35
770.25	83.27
770.429	81.76
770.607	83.59
770.786	84.48
770.964	82.53
771.143	83.29
771.321	82.28
771.5	79.57
771.678	79.41
771.857	82.71
772.035	80.53
772.213	80.85
772.392	83.88
772.57	82.66
772.748	81.67
772.927	82.41
773.105	81.77
773.283	81.04
773.461	83.14
773.64	82.65
773.818	82.85
773.996	82.81
774.174	81.89
774.352	81.8
774.531	82.01
774.709	80.73
774.887	81.68
775.065	82.69
775.243	83.69
775.421	84.59
775.599	85.77
775.777	86.13
775.955	85.52
776.133	83.67
776.311	81.54
776.489	81.37
776.667	83.33
776.844	83.73
777.022	85.85
777.2	84.62
777.378	84.49
777.556	80.12
777.734	77.74
777.911	76.91
778.089	79.17
778.267	79.21
778.445	84.01
778.622	85.58
778.8	83.19
778.978	81.59
779.155	81.58
779.333	79.78
779.511	79.83
779.688	78.57
779.866	81.68
780.043	83.45
780.221	83.8
780.398	83.76
780.576	85.28
780.753	84.86
780.931	83.23
781.108	80.58
781.286	81
781.463	84.51
781.64	81.41
781.818	80.53
781.995	82.19
782.172	82.15
782.35	79.58
782.527	81.22
782.704	80.81
782.882	81.78
783.059	82.91
783.236	82.29
783.413	82.52
783.59	83.14
783.768	84.93
783.945	81.46
784.122	82.44
784.299	83.31
784.476	82.51
784.653	80.74
784.83	83.44
785.007	84.81
785.184	83.59
785.361	85.74
785.538	83.94
785.715	85.19
785.892	82.34
786.069	80.95
786.246	79.33
786.423	80.67
786.6	81.4
786.776	82.14
786.953	82.42
787.13	79.08
787.307	78.65
787.484	76.67
787.66	78.13
787.837	81.71
788.014	87.86
788.191	87.61
788.367	88.02
788.544	84.54
788.721	81.68
788.897	77.71
789.074	75.01
789.25	71.75
789.427	73.18
789.603	72.65
789.78	74.23
789.956	75.09
790.133	79.04
790.309	80.63
790.486	77.94
790.662	76.5
790.839	76.34
791.015	73.38
791.192	71.58
791.368	74.15
791.544	79.56
791.721	79.69
791.897	78.59
792.073	79.14
792.249	81.85
792.426	76.08
792.602	74.48
792.778	78
792.954	79.73
793.13	81.44
793.307	87.02
793.483	90.88
793.659	89.24
793.835	87.01
794.011	84.25
794.187	83.72
794.363	84.64
794.539	86.1
794.715	88.6
794.891	86.97
795.067	84.11
795.243	84.66
795.419	79.99
795.595	77.8
795.771	80.8
795.947	77.63
796.122	77.05
796.298	77.94
796.474	80.01
796.65	79.93
796.826	85.13
797.001	81.42
797.177	84.11
797.353	81.57
797.529	81.23
797.704	79.84
797.88	85.95
798.056	87.68
798.231	89.13
798.407	85.82
798.582	88.09
798.758	81.51
798.934	78.82
799.109	79.71
799.285	82.54
799.46	78.74
799.636	83.15
799.811	84.21
799.986	79.26
800.162	78.16
800.337	79.22
800.513	87.31
800.688	91.62
800.863	94.98
801.039	90.14
801.214	91.53
801.389	79.53
801.565	74.51
801.74	75.07
801.915	72.99
802.09	68.1
802.265	70.11
802.441	71.43
802.616	75.12
802.791	79.82
802.966	80.35
803.141	84.87
803.316	88.13
803.491	87.86
803.666	88.07
803.841	95.4
804.016	91.02
804.191	88.18
804.366	84.97
804.541	84.16
804.716	75.26
804.891	72.12
805.066	63.75
805.241	65.91
805.416	63.93
805.591	67.82
805.765	66.56
805.94	77.09
806.115	77.02
806.29	79.64
806.464	86.01
806.639	90.91
806.814	89.18
806.989	93.11
807.163	93.85
807.338	92.6
807.512	90.91
807.687	89.96
807.862	82.2
808.036	72.32
808.211	68.25
808.385	64.91
808.56	56.48
808.734	57.31
808.909	69.58
809.083	76.02
809.258	74.78
809.432	74.69
809.606	82.83
809.781	79.89
809.955	72.09
810.13	67.65
810.304	76.25
810.478	73.13
810.652	72.04
810.827	76.07
811.001	85.96
811.175	84.89
811.349	83.8
811.524	79.61
811.698	74.34
811.872	70.71
812.046	64.82
812.22	59.48
812.394	78.66
812.568	86.14
812.742	87.52
812.916	96.85
813.09	96.24
813.264	88.91
813.438	90.52
813.612	93.94
813.786	95.47
813.96	88.18
814.134	85.3
814.308	78.13
814.482	79.39
814.656	76.73
814.83	82.29
815.003	80.5
815.177	92.47
815.351	96.64
815.525	93.95
815.698	98.99
815.872	95.89
816.046	85.21
816.219	82.46
816.393	71.28
816.567	73.14
816.74	79.21
816.914	78.31
817.088	75.87
817.261	83.88
817.435	81.16
817.608	85.27
817.782	87.18
817.955	85.48
818.129	88.65
818.302	84.9
818.475	81.03
818.649	73.78
818.822	77.51
818.996	68.08
819.169	79.44
819.342	80.15
819.516	79.39
819.689	73.77
819.862	95.2
820.035	90.48
820.209	77.3
820.382	89.83
820.555	86.47
820.728	73.1
820.901	76.96
821.075	80.11
821.248	69.72
821.421	81.54
821.594	90.55
821.767	83.49
821.94	74.93
822.113	84.1
822.286	79.01
822.459	72.83
822.632	68.68
822.805	81.04
822.978	86.53
823.151	86.49
823.324	98.35
823.496	104.54
823.669	94.77
823.842	97.32
824.015	104.16
824.188	95.96
824.361	101.74
824.533	104.81
824.706	87.1
824.879	81.76
825.051	71.39
825.224	78.33
825.397	85.47
825.569	85.94
825.742	82.88
825.915	92.45
826.087	75.16
826.26	68.93
826.432	81.31
826.605	81.16
826.777	73.79
826.95	79.66
827.122	72.31
827.295	47.07
827.467	56.31
827.64	67.03
827.812	76.31
827.984	75.17
828.157	93.63
828.329	89.75
828.501	80.36
828.674	70.6
828.846	74.28
829.018	72.53
829.19	80.74
829.363	84.85
829.535	77.86
829.707	79.33
829.879	82.22
830.051	82.23
830.223	82.72
830.395	91.83
830.568	90.26
830.74	85.32
830.912	76.61
831.084	82.19
831.256	81.17
831.428	80.28
831.6	84.65
831.772	94.47
831.943	93.82
832.115	79.62
832.287	83.4
832.459	74.08
832.631	68.88
832.803	51.6
832.975	72.77
833.146	71.57
833.318	94.07
833.49	73.99
833.662	84.9
833.833	80.71
834.005	70.41
834.177	63.67
834.348	73.53
834.52	70.5
834.692	71.65
834.863	104.77
835.035	94.24
835.206	91.24
835.378	102.14
835.549	109.18
835.721	91.69
835.892	103.92
836.064	87.91
836.235	75.33
836.407	77.44
836.578	76.99
836.749	71.02
836.921	84.7
837.092	91.93
837.264	85.46
837.435	76.42
837.606	59.8
837.777	44.44
837.949	22.49
838.12	21.19
838.291	26.88
838.462	57.31
838.633	65.85
838.805	81.23
838.976	85.32
839.147	77.65
839.318	72.11
839.489	79.43
839.66	74.71
839.831	45.85
840.002	47.5
840.173	52.28
840.344	38.73
840.515	45
840.686	48.67
840.857	61.64
841.028	61.32
841.199	70.38
841.369	77.28
841.54	86.48
841.711	103.95
841.882	105.75
842.053	109.53
842.223	110.09
842.394	116.78
842.565	115.83
842.736	99.82
842.906	88.86
843.077	67.67
843.248	62.94
843.418	68.24
843.589	73.62
843.759	60.15
843.93	95.56
844.101	87.29
844.271	69.23
844.442	57.6
844.612	36.06
844.783	28.21
844.953	57.17
845.123	42.83
845.294	13.16
845.464	45.35
845.635	45.92
845.805	41.49
845.975	62.98
846.146	100.61
846.316	118.93
846.486	125.76
846.656	108.08
846.827	111.83
846.997	104.33
847.167	89.09
847.337	90.7
847.507	96.7
847.677	92.77
847.848	85.94
848.018	86.85
848.188	82.49
848.358	97.25
848.528	82.62
848.698	98.94
848.868	108.31
849.038	97.85
849.208	86.44
849.378	75.62
849.548	69.25
849.718	69.47
849.887	59.87
850.057	80.26
850.227	99.21
850.397	111.26
850.567	114.31
850.737	118.9
850.906	95.09
851.076	103.55
851.246	107.68
851.415	96.45
851.585	119.85
851.755	183.3
851.924	174.51
852.094	117.91
852.264	127.77
852.433	113.26
852.603	72.12
852.772	70.55
852.942	110.32
853.111	95.02
853.281	83.5
853.45	82.13
853.62	98.31
853.789	85.4
853.959	68.21
854.128	80.86
854.297	87.33
854.467	65.66
854.636	12.45
854.805	-46
854.975	-122.59
855.144	18.35
855.313	32.1
855.482	98.16
855.652	114.42
855.821	123.24
855.99	82.45
856.159	70.46
856.328	73.47
856.497	91.4
856.667	105.87
856.836	142.66
857.005	141.54
857.174	135.79
857.343	129.8
857.512	77.48
857.681	79.28
857.85	73.91
858.019	57.59
858.188	84.43
858.356	161.07
858.525	185.05
858.694	371.74
858.863	219.65
859.032	172.72
859.201	182.5
859.369	83.58
859.538	39.81
859.707	55.48
859.876	50.53
860.044	33.86
860.213	52.42
860.382	77.14
860.55	86.88
860.719	59.23
860.888	80.67
861.056	82.93
861.225	64.19
861.393	57.51
861.562	51.05
861.73	45.96
861.899	61.98
862.067	83.64
862.236	85.91
862.404	101.29
862.572	116.59
862.741	106.39
862.909	72.97
863.078	85.25
863.246	90.33
863.414	67.06
863.582	24.64
863.751	31.05
863.919	43.79
864.087	28.83
864.255	33.44
864.424	86.11
864.592	140.06
864.76	103.38
864.928	98.5
865.096	104.76
865.264	80.55
865.432	53.94
865.6	39.22
865.768	55.94
865.936	61.23
866.104	72.98
866.272	89.06
866.44	105.52
866.608	108.37
866.776	113.25
866.944	116.6
867.112	110.86
867.28	148.13
867.448	114.54
867.615	113.18
867.783	88.6
867.951	87.36
868.119	21.1
868.286	47.91
868.454	66.06
868.622	104.94
868.789	117.19
868.957	160.45
869.125	162.96
869.292	110.43
869.46	102.1
869.627	96.14
869.795	90.99
869.963	98.09
870.13	85.9
870.298	82.66
870.465	89.95
870.632	105.89
870.8	110.61
870.967	143.3
871.135	121.31
871.302	121.36
871.469	95.16
871.637	64.43
871.804	58.76
871.971	91.43
872.139	94.89
872.306	89.56
872.473	107.16
872.64	106.25
872.807	75.84
872.975	75.34
873.142	115.43
873.309	105.55
873.476	64.48
873.643	15.05
873.81	-28.88
873.977	-104.18
874.144	-80.88
874.311	35.07
874.478	88.68
874.645	117.54
874.812	133.48
874.979	114.21
875.146	146.51
875.313	139.18
875.48	96.4
875.647	108.46
875.813	145.19
875.98	121.09
876.147	114.41
876.314	123.07
876.481	183.52
876.647	300.16
876.814	198.77
876.981	-388.3
877.147	-442.94
877.314	130.31
877.481	105.51
877.647	104.06
877.814	112.88
877.98	105.92
878.147	103.66
878.314	60.7
878.48	93.07
878.647	59.64
878.813	76.56
878.979	39.62
879.146	68.57
879.312	57.64
879.479	86.63
879.645	95.7
879.811	130.11
879.978	166.08
880.144	169.7
880.31	238.21
880.477	170.11
880.643	165.33
880.809	227.26
880.975	381.27
881.142	203.6
881.308	183.01
881.474	150.94
881.64	88.19
881.806	122.02
881.972	121.35
882.138	121.83
882.304	95.04
882.47	191.9
882.636	219.41
882.802	81.4
882.968	-27.42
883.134	42.6
883.3	-2.04
883.466	15.3
883.632	5.91
883.798	52.28
883.964	60.54
884.129	74.22
884.295	77.29
884.461	106.98
884.627	110.19
884.793	94.05
884.958	83.6
885.124	89.3
885.29	90.39
885.455	93.55
885.621	148.65
885.787	255.91
885.952	650.83
886.118	611.45
886.283	310.49
886.449	377.87
886.614	229.26
886.78	217.17
886.945	210.57
887.111	719.11
887.276	-1570.37
887.442	-615.24
887.607	182.7
887.773	169.85
887.938	124.19
888.103	108.6
888.269	118.41
888.434	117.6
888.599	99.31
888.764	35.16
888.93	43.45
889.095	82.77
889.26	122.99
889.425	-1247.62
889.59	-813.33
889.756	332.86
889.921	1256.41
890.086	437.56
890.251	-84.5
890.416	-3.43
890.581	-105.67
890.746	-27.06
890.911	71.93
891.076	102.83
891.241	105.17
891.406	91.39
891.571	90.99
891.736	102.08
891.901	70.26
892.065	19.5
892.23	-69.03
892.395	88.02
892.56	59.81
892.725	21.42
892.889	51.51
893.054	106.82
893.219	106.51
893.384	174.86
893.548	272.98
893.713	333.05
893.878	457.36
