Data from Ofav_PP_Phys_2JQ6_Reflection_3.txt Node
Date: Tue Aug 03 18:14:04 EDT 2021
User: Adam
Spectrometer: FLMT01687
Trigger mode: 0
Integration Time (sec): 8.750000E-1
Scans to average: 2
Electric dark correction enabled: true
Nonlinearity correction enabled: false
Boxcar width: 2
XAxis mode: Wavelengths
Number of Pixels in Spectrum: 3648
>>>>>Begin Spectral Data<<<<<
179.494	260.06
179.716	316.38
179.937	385.51
180.158	601.05
180.38	2049.12
180.601	143.47
180.823	81.68
181.044	36.7
181.265	-36.33
181.486	159.2
181.708	113.88
181.929	173.43
182.15	5.3
182.372	-14.35
182.593	145.99
182.814	212.45
183.035	-92.2
183.257	145.1
183.478	155.85
183.699	57.03
183.92	86.24
184.141	11.89
184.363	71.7
184.584	-48.51
184.805	32.34
185.026	1.03
185.247	16.41
185.468	5.55
185.689	21.31
185.91	25.67
186.132	26.2
186.353	35.59
186.574	-10.79
186.795	10.9
187.016	18.51
187.237	34.66
187.458	41.53
187.679	31.99
187.9	25.29
188.121	24.14
188.342	12.66
188.563	7.23
188.784	22.99
189.005	8.58
189.226	-20.8
189.447	0.61
189.667	-14.28
189.888	1.23
190.109	39.54
190.33	47.15
190.551	53.62
190.772	86.87
190.993	56.38
191.214	53.4
191.434	58.2
191.655	34.14
191.876	22.56
192.097	48.41
192.318	49.7
192.538	59.33
192.759	61.85
192.98	55.31
193.201	43.4
193.421	49.73
193.642	47.98
193.863	59.08
194.083	76.57
194.304	67.96
194.525	67.29
194.745	63.82
194.966	88.51
195.187	88.21
195.407	121.12
195.628	98.42
195.848	86.91
196.069	64.6
196.29	21.28
196.51	-23.75
196.731	-2.16
196.951	-21.06
197.172	-10.81
197.392	17.46
197.613	32.75
197.833	7.91
198.054	56.11
198.274	19.19
198.495	18.64
198.715	5.2
198.936	8.57
199.156	5.42
199.377	15.84
199.597	30.61
199.817	54.75
200.038	42.7
200.258	41.74
200.479	-10.47
200.699	-21.47
200.919	-69.19
201.14	9.19
201.36	3.73
201.58	17.79
201.801	-15.94
202.021	-10.02
202.241	-45.7
202.461	-22.4
202.682	6.17
202.902	44.19
203.122	50.47
203.342	54.62
203.563	41.2
203.783	31.25
204.003	31.55
204.223	28.51
204.443	11.77
204.663	17.6
204.884	2.34
205.104	-15.77
205.324	-17.86
205.544	2.98
205.764	-20.47
205.984	-61.13
206.204	-26.91
206.424	-96.19
206.644	-19.42
206.864	-8.18
207.084	12.67
207.304	22.61
207.525	99.35
207.745	112.29
207.964	104.07
208.184	92.94
208.404	77.54
208.624	45.8
208.844	49.63
209.064	65.66
209.284	78.72
209.504	58
209.724	58.36
209.944	41.24
210.164	13.5
210.384	7.59
210.604	21.72
210.823	40.67
211.043	46.91
211.263	46.31
211.483	22.8
211.703	48.78
211.922	22.42
212.142	19.81
212.362	17
212.582	20.62
212.801	0.75
213.021	20.4
213.241	-16.06
213.461	8.64
213.68	18.35
213.9	7.38
214.12	-19.05
214.339	32.51
214.559	43.12
214.779	27.24
214.998	33.21
215.218	61.1
215.438	49.3
215.657	58.84
215.877	68.92
216.096	47.88
216.316	47.36
216.535	33.16
216.755	-27.34
216.974	-3.82
217.194	30.52
217.413	32.02
217.633	42.45
217.852	63.91
218.072	67.47
218.291	50.96
218.511	47.95
218.73	82.55
218.95	77.02
219.169	67.63
219.389	71.78
219.608	88.58
219.827	27.49
220.047	48.94
220.266	39.11
220.485	54.05
220.705	39.97
220.924	60.82
221.143	26.71
221.363	48.02
221.582	43.75
221.801	61.47
222.021	42.52
222.24	49.98
222.459	3.47
222.678	-11.76
222.897	-18.09
223.117	-50.04
223.336	-246.52
223.555	-62.52
223.774	-14.79
223.993	-42.85
224.213	-87.16
224.432	-9.97
224.651	-0.54
224.87	-7.13
225.089	4.68
225.308	11.66
225.527	-24.07
225.746	-61.14
225.965	-47.44
226.184	-125.69
226.404	-21.23
226.623	38.13
226.842	47.15
227.061	31.42
227.28	51.92
227.499	62.57
227.718	36.25
227.936	24.9
228.155	31.95
228.374	34.99
228.593	23.84
228.812	-6.52
229.031	-6.52
229.25	25.19
229.469	0.63
229.688	-38.14
229.907	-45.69
230.125	-36.97
230.344	-55.48
230.563	-68.81
230.782	-46.39
231.001	10.37
231.22	15.86
231.438	8.27
231.657	23.87
231.876	36.55
232.095	14.64
232.313	13.5
232.532	0.46
232.751	29.83
232.969	52.63
233.188	91.21
233.407	94.9
233.625	94.91
233.844	93.25
234.063	99.32
234.281	93.87
234.5	78.62
234.719	94.42
234.937	80.95
235.156	40.34
235.374	31.56
235.593	32.51
235.811	28.59
236.03	26.96
236.249	48.35
236.467	52.96
236.686	51.06
236.904	61.8
237.123	72.51
237.341	66.9
237.559	50.62
237.778	54.21
237.996	45.23
238.215	31.91
238.433	18.38
238.652	21.55
238.87	17.28
239.088	17.96
239.307	8.69
239.525	5.35
239.743	20.96
239.962	21.76
240.18	17.34
240.398	57.68
240.617	79.44
240.835	67.28
241.053	69.72
241.271	84.98
241.49	56.56
241.708	43.36
241.926	27.64
242.144	1.14
242.363	34.23
242.581	24.03
242.799	29.56
243.017	25.21
243.235	63.68
243.453	42.72
243.672	58.8
243.89	61.16
244.108	63.12
244.326	16.79
244.544	14.01
244.762	4.41
244.98	-16.52
245.198	0.15
245.416	35
245.634	35.02
245.852	24.78
246.07	24.85
246.288	1.87
246.506	15.83
246.724	13.51
246.942	27.91
247.16	25.34
247.378	22.45
247.596	24.39
247.814	26.32
248.032	23.8
248.25	37.02
248.468	42.52
248.685	32.54
248.903	11.15
249.121	16.56
249.339	-1.42
249.557	20.7
249.775	24.95
249.992	66.23
250.21	61.41
250.428	61.04
250.646	22.04
250.863	19.5
251.081	-1.56
251.299	-32.05
251.517	-3.29
251.734	15.57
251.952	30.31
252.17	9.5
252.387	26.98
252.605	37.97
252.823	45.54
253.04	2.93
253.258	55.54
253.475	51.14
253.693	33.56
253.911	30.56
254.128	40.53
254.346	21.29
254.563	14.43
254.781	42.09
254.998	33.64
255.216	6.38
255.433	10.64
255.651	14.65
255.868	-29.25
256.086	-48.53
256.303	-17.66
256.521	-7.74
256.738	-15.23
256.956	22.77
257.173	41.73
257.39	33.22
257.608	16.3
257.825	6.66
258.043	-52.79
258.26	-35.49
258.477	-23.19
258.695	-19.78
258.912	-10.74
259.129	15.84
259.346	35.55
259.564	48.91
259.781	70.24
259.998	68.27
260.216	57.43
260.433	35.79
260.65	42.42
260.867	21.22
261.084	17.58
261.302	21.1
261.519	31.94
261.736	29.3
261.953	37.45
262.17	33.91
262.387	38.55
262.604	44.78
262.822	58.42
263.039	54.08
263.256	53.08
263.473	47.81
263.69	59.49
263.907	26.53
264.124	8.07
264.341	-3.47
264.558	-8.76
264.775	-15.87
264.992	-5.87
265.209	16.39
265.426	15.56
265.643	19.34
265.86	25.35
266.077	54.07
266.294	34.81
266.51	52.21
266.727	70.34
266.944	43.85
267.161	37.29
267.378	37.2
267.595	22.19
267.812	8.16
268.028	18.63
268.245	14.31
268.462	31.1
268.679	44.75
268.896	33.37
269.112	38.13
269.329	47.81
269.546	11.59
269.763	-24.58
269.979	-9.13
270.196	12.23
270.413	21.36
270.629	23.26
270.846	46.21
271.063	43.09
271.279	37.92
271.496	36.22
271.712	42.58
271.929	25.93
272.146	50.06
272.362	35.86
272.579	36.43
272.795	19.92
273.012	13.18
273.228	11.45
273.445	17.09
273.661	1.82
273.878	16.25
274.094	30.57
274.311	18.4
274.527	8.36
274.744	23.7
274.96	5.83
275.177	-16.69
275.393	-3.43
275.609	9.05
275.826	-6.59
276.042	21.69
276.259	30.76
276.475	7.74
276.691	-0.87
276.908	18.5
277.124	23.44
277.34	22.18
277.557	38.53
277.773	42.98
277.989	34.68
278.205	28.03
278.422	19.7
278.638	14.78
278.854	16.21
279.07	22.91
279.286	34.12
279.503	45.7
279.719	59.54
279.935	53.56
280.151	47.6
280.367	15.36
280.583	8.98
280.799	9.87
281.016	6.01
281.232	9.58
281.448	34.78
281.664	17.98
281.88	25.69
282.096	44.76
282.312	27.57
282.528	10.57
282.744	20.31
282.96	23.31
283.176	26.22
283.392	35.33
283.608	53.15
283.824	59
284.04	49.99
284.256	38.29
284.471	33.5
284.687	29.65
284.903	22.58
285.119	2.35
285.335	-2.97
285.551	0.13
285.767	14.32
285.982	5.53
286.198	22.41
286.414	23.44
286.63	20.2
286.846	-3.13
287.061	5.44
287.277	-16.21
287.493	-21.91
287.709	-51.27
287.924	-14.64
288.14	-29.51
288.356	-46.55
288.571	-36.73
288.787	-1.82
289.003	-18.85
289.218	-8.45
289.434	37.78
289.65	33.08
289.865	24.74
290.081	7.39
290.296	11.85
290.512	10.32
290.727	15.74
290.943	24.61
291.159	42.84
291.374	41.79
291.59	42.75
291.805	61.5
292.021	70.55
292.236	70.11
292.451	68.23
292.667	79.29
292.882	58.19
293.098	38.68
293.313	48.77
293.529	66.67
293.744	70.15
293.959	74.23
294.175	83.35
294.39	67.57
294.605	59.68
294.821	43.17
295.036	48.61
295.251	25.77
295.467	40.64
295.682	32.77
295.897	26.74
296.112	34.24
296.328	42.56
296.543	36.88
296.758	25.95
296.973	24.03
297.188	3.32
297.404	20.21
297.619	17.87
297.834	19.36
298.049	22.97
298.264	33.57
298.479	7.81
298.694	0.81
298.909	17.51
299.125	31.23
299.34	11.62
299.555	20.76
299.77	2.03
299.985	12.46
300.2	9.46
300.415	23.52
300.63	31.06
300.845	55.9
301.06	59.65
301.275	29.89
301.49	35.18
301.704	36.17
301.919	41.34
302.134	34.83
302.349	45.93
302.564	54.11
302.779	51.04
302.994	34.56
303.209	30.48
303.423	16.08
303.638	3.76
303.853	0.42
304.068	21.12
304.283	38.68
304.497	63.1
304.712	78.26
304.927	79.54
305.142	75.96
305.356	59.64
305.571	49.27
305.786	38.88
306	33.72
306.215	14.41
306.43	21.6
306.644	6.2
306.859	2.38
307.074	17.92
307.288	36.52
307.503	39.04
307.717	36.81
307.932	34.61
308.147	25.99
308.361	17.15
308.576	24.95
308.79	56.24
309.005	49.24
309.219	38.67
309.434	28.31
309.648	32.25
309.863	-4.76
310.077	-15.13
310.292	-7.59
310.506	3.48
310.72	17.49
310.935	19.58
311.149	26.83
311.364	-0.86
311.578	2.29
311.792	2.15
312.007	3.36
312.221	12.8
312.435	32.32
312.649	48.76
312.864	-11.58
313.078	9.46
313.292	-16.96
313.507	-8.14
313.721	-33.16
313.935	-0.23
314.149	-3.96
314.363	34.84
314.578	24.35
314.792	26.48
315.006	24.03
315.22	19.42
315.434	-2.61
315.648	-14.91
315.862	4.63
316.077	18.14
316.291	20.49
316.505	32.88
316.719	44.12
316.933	58.99
317.147	55.53
317.361	67.45
317.575	71.21
317.789	64.94
318.003	62.08
318.217	45.38
318.431	62.42
318.645	52.34
318.859	55.39
319.073	49.68
319.287	78.25
319.5	67.33
319.714	81.23
319.928	90.47
320.142	98.09
320.356	75.01
320.57	53.82
320.784	55.64
320.997	36.96
321.211	32.57
321.425	46.44
321.639	58.6
321.853	26.71
322.066	47.84
322.28	52.08
322.494	41.09
322.707	21.97
322.921	46.47
323.135	28.37
323.349	29.41
323.562	37.83
323.776	44.34
323.989	42.36
324.203	43.92
324.417	38.85
324.63	49.55
324.844	48.22
325.057	45.8
325.271	34.87
325.485	50.53
325.698	11.22
325.912	7.39
326.125	20.76
326.339	12.25
326.552	-12.76
326.766	11.91
326.979	5.45
327.193	-6.78
327.406	0.33
327.619	21.63
327.833	-2.32
328.046	19.01
328.26	21
328.473	27.12
328.686	19.58
328.9	14.88
329.113	24.02
329.326	30.35
329.54	28.98
329.753	35.84
329.966	70.67
330.179	53.11
330.393	54.91
330.606	60.13
330.819	57.44
331.032	31.92
331.246	35.35
331.459	14.29
331.672	5.12
331.885	5.79
332.098	15.09
332.311	30.52
332.525	47.6
332.738	35.76
332.951	37.64
333.164	38.4
333.377	31.22
333.59	23.14
333.803	28.96
334.016	28.28
334.229	26.99
334.442	11.96
334.655	-11.03
334.868	-20.43
335.081	-40.92
335.294	-22.69
335.507	4.59
335.72	26.61
335.933	30.23
336.146	36.76
336.359	19.77
336.572	35.01
336.785	40.05
336.997	53.78
337.21	60.83
337.423	62.25
337.636	53.2
337.849	35.09
338.062	15.45
338.274	3.66
338.487	27.46
338.7	29.81
338.913	40.29
339.125	43.45
339.338	49.29
339.551	38.39
339.763	28.13
339.976	28.18
340.189	21.53
340.402	11.37
340.614	3.84
340.827	19.61
341.039	21.06
341.252	30.75
341.465	35.32
341.677	30.32
341.89	31.8
342.102	18.75
342.315	19.89
342.527	33.79
342.74	42.78
342.952	43.98
343.165	59.59
343.377	44.47
343.59	35.67
343.802	34.25
344.015	-2.3
344.227	-19.27
344.44	15.85
344.652	19.99
344.864	11.66
345.077	23.38
345.289	23.12
345.502	-37.47
345.714	-50.02
345.926	-28.58
346.139	-32.86
346.351	-22.94
346.563	3.63
346.775	6.25
346.988	0.53
347.2	6.01
347.412	15.84
347.624	26.37
347.837	26.88
348.049	21.52
348.261	-3.7
348.473	-0.27
348.685	4.46
348.897	25.82
349.11	40.64
349.322	32.74
349.534	24.14
349.746	15.56
349.958	0.31
350.17	-0.75
350.382	18.89
350.594	27.46
350.806	19.96
351.018	21.73
351.23	25.1
351.442	34.39
351.654	7.01
351.866	25.32
352.078	22.89
352.29	-2.82
352.502	5.41
352.714	22.13
352.926	14.44
353.138	-0.2
353.35	28.47
353.561	37.76
353.773	40.45
353.985	51.99
354.197	55.93
354.409	54.01
354.621	45.81
354.832	57.1
355.044	51.1
355.256	55.75
355.468	45.48
355.679	50.49
355.891	42.04
356.103	51.73
356.314	50.44
356.526	56.37
356.738	54.98
356.949	54.68
357.161	27.09
357.373	32.23
357.584	40.99
357.796	37.18
358.008	30.37
358.219	37.41
358.431	32.24
358.642	22.79
358.854	-3.41
359.065	15.53
359.277	33.21
359.488	36.31
359.7	43.04
359.911	54.99
360.123	53.33
360.334	53.47
360.546	42.93
360.757	35.65
360.969	28.78
361.18	14.72
361.391	18.58
361.603	27
361.814	8.96
362.025	18.49
362.237	29.06
362.448	25.38
362.659	16.89
362.871	24.77
363.082	13.83
363.293	-3.13
363.504	-5.05
363.716	11.43
363.927	19.95
364.138	23.09
364.349	35.33
364.56	34.45
364.772	35.85
364.983	18.67
365.194	14.27
365.405	11.06
365.616	-1.45
365.827	3.66
366.038	11.97
366.25	15.33
366.461	35.88
366.672	36.61
366.883	26.06
367.094	23.61
367.305	29.11
367.516	1.36
367.727	14.21
367.938	19.13
368.149	28.92
368.36	20.62
368.571	33.56
368.781	39.21
368.992	49.73
369.203	46.16
369.414	43.15
369.625	34.74
369.836	37.29
370.047	22.7
370.258	15.19
370.468	25.87
370.679	48.09
370.89	51.67
371.101	65.92
371.312	67.26
371.522	52.75
371.733	56.29
371.944	47.07
372.155	33.11
372.365	29.82
372.576	40.3
372.787	23.83
372.997	21.99
373.208	20.97
373.419	0.71
373.629	2.46
373.84	14.31
374.05	21.79
374.261	24.49
374.472	47.69
374.682	44.97
374.893	36.32
375.103	20.81
375.314	26.94
375.524	16.22
375.735	20.2
375.945	25.03
376.156	32.91
376.366	31.37
376.577	40.03
376.787	39.54
376.997	31.98
377.208	31.73
377.418	28.55
377.629	19.35
377.839	16.27
378.049	22.04
378.26	16.66
378.47	14
378.68	8.11
378.89	11.4
379.101	12.27
379.311	28.26
379.521	39.52
379.732	47.81
379.942	51.59
380.152	58.43
380.362	43.57
380.572	41.59
380.783	33.76
380.993	29.63
381.203	21.7
381.413	12.14
381.623	12.6
381.833	19.01
382.043	26.97
382.253	30.83
382.463	36.32
382.674	31.48
382.884	24.05
383.094	10.66
383.304	3.57
383.514	7.9
383.724	2.9
383.934	14.03
384.144	20.27
384.353	23.55
384.563	17.05
384.773	11.51
384.983	7.29
385.193	5.71
385.403	10.23
385.613	12.05
385.823	20.41
386.033	18.5
386.242	19.62
386.452	15.32
386.662	17.49
386.872	12.53
387.082	12.25
387.291	11.91
387.501	11.85
387.711	9.54
387.921	11.51
388.13	11.13
388.34	7.12
388.55	11.81
388.759	14.72
388.969	12.29
389.179	9.12
389.388	9.1
389.598	8.79
389.807	7.68
390.017	9.91
390.227	12.15
390.436	12.41
390.646	8.98
390.855	8.2
391.065	7.98
391.274	9.45
391.484	12.21
391.693	12.17
391.903	11.77
392.112	12.52
392.322	10.16
392.531	8.82
392.74	9.26
392.95	10.95
393.159	8.7
393.369	9.89
393.578	9.17
393.787	10.17
393.997	8.76
394.206	9.97
394.415	9.67
394.625	9.79
394.834	9.35
395.043	9.79
395.252	9.41
395.462	8.49
395.671	7.44
395.88	7.58
396.089	7.27
396.298	7.27
396.508	8.05
396.717	9.25
396.926	8.43
397.135	7.64
397.344	7.69
397.553	7.26
397.762	6.76
397.971	7.28
398.181	7.66
398.39	8.24
398.599	8.32
398.808	8.29
399.017	7.63
399.226	7.48
399.435	6.8
399.644	6.86
399.853	7.16
400.062	7.59
400.27	7.92
400.479	8.14
400.688	8.2
400.897	7.97
401.106	7.91
401.315	7.88
401.524	7.84
401.733	7.35
401.941	6.98
402.15	6.95
402.359	6.98
402.568	6.69
402.777	6.74
402.985	7.06
403.194	6.98
403.403	6.75
403.612	7.07
403.82	7.2
404.029	7.19
404.238	7.48
404.446	7.43
404.655	7.24
404.864	7.13
405.072	7.13
405.281	6.81
405.489	7
405.698	7.06
405.906	7.24
406.115	7.26
406.324	7.31
406.532	7.25
406.741	7.13
406.949	7.07
407.158	6.97
407.366	7
407.574	6.82
407.783	6.86
407.991	6.85
408.2	6.68
408.408	6.52
408.617	6.62
408.825	6.66
409.033	6.64
409.242	6.6
409.45	6.65
409.658	6.65
409.867	6.53
410.075	6.58
410.283	6.59
410.491	6.56
410.7	6.58
410.908	6.6
411.116	6.45
411.324	6.63
411.533	6.69
411.741	6.55
411.949	6.47
412.157	6.57
412.365	6.48
412.573	6.43
412.781	6.43
412.99	6.57
413.198	6.53
413.406	6.52
413.614	6.53
413.822	6.61
414.03	6.66
414.238	6.6
414.446	6.57
414.654	6.7
414.862	6.58
415.07	6.27
415.278	6.22
415.486	6.27
415.694	6.2
415.902	6.22
416.109	6.35
416.317	6.41
416.525	6.31
416.733	6.38
416.941	6.36
417.149	6.37
417.357	6.19
417.564	6.09
417.772	5.81
417.98	6
418.188	6.01
418.395	6.08
418.603	6.22
418.811	6.45
419.019	6.25
419.226	6.26
419.434	6.12
419.642	6.1
419.849	5.82
420.057	5.76
420.265	5.5
420.472	5.79
420.68	5.6
420.887	5.78
421.095	5.62
421.302	5.92
421.51	5.56
421.717	5.6
421.925	5.36
422.132	5.65
422.34	5.53
422.547	5.59
422.755	5.69
422.962	5.93
423.17	5.76
423.377	5.88
423.585	5.95
423.792	5.92
423.999	5.79
424.207	5.84
424.414	5.42
424.621	5.4
424.829	5.45
425.036	5.66
425.243	5.84
425.451	6.11
425.658	6.25
425.865	6.13
426.072	5.97
426.28	5.76
426.487	5.86
426.694	5.66
426.901	5.72
427.108	5.84
427.315	6.15
427.523	6.05
427.73	6.2
427.937	6.39
428.144	6.26
428.351	6.04
428.558	5.83
428.765	5.96
428.972	5.96
429.179	5.83
429.386	5.86
429.593	6.16
429.8	6.21
430.007	6.17
430.214	6.44
430.421	6.49
430.628	6.45
430.835	6.33
431.042	6.16
431.249	6
431.456	5.98
431.662	5.99
431.869	6.06
432.076	6.25
432.283	6.45
432.49	6.35
432.697	6.43
432.903	6.47
433.11	6.42
433.317	6.22
433.524	6.18
433.73	6.31
433.937	6.12
434.144	6.17
434.35	6.29
434.557	6.6
434.764	6.52
434.97	6.78
435.177	6.81
435.384	6.92
435.59	6.84
435.797	6.89
436.003	6.64
436.21	6.76
436.416	6.73
436.623	6.77
436.829	6.71
437.036	6.85
437.242	6.77
437.449	6.76
437.655	6.73
437.862	6.77
438.068	6.81
438.275	6.86
438.481	6.91
438.687	6.99
438.894	7.14
439.1	7.29
439.307	7.06
439.513	7.11
439.719	6.96
439.926	6.9
440.132	6.88
440.338	7.12
440.544	7.01
440.751	7.18
440.957	7.11
441.163	7.18
441.369	7.22
441.575	7.32
441.782	7.42
441.988	7.59
442.194	7.46
442.4	7.46
442.606	7.5
442.812	7.44
443.018	7.26
443.224	7.35
443.431	7.25
443.637	7.18
443.843	7.17
444.049	7.22
444.255	7.27
444.461	7.45
444.667	7.62
444.873	7.62
445.079	7.65
445.284	7.6
445.49	7.63
445.696	7.59
445.902	7.61
446.108	7.68
446.314	7.68
446.52	7.74
446.726	7.75
446.931	7.76
447.137	7.72
447.343	7.82
447.549	7.89
447.755	7.85
447.96	7.81
448.166	7.91
448.372	7.75
448.578	7.73
448.783	7.85
448.989	8
449.195	7.88
449.4	8.01
449.606	7.91
449.812	7.96
450.017	7.93
450.223	8.03
450.428	8.11
450.634	8.03
450.84	7.91
451.045	7.97
451.251	8.05
451.456	7.96
451.662	7.91
451.867	7.91
452.073	7.91
452.278	7.76
452.483	7.69
452.689	7.84
452.894	7.92
453.1	7.94
453.305	7.97
453.51	8.11
453.716	8.14
453.921	8.2
454.127	8.19
454.332	8.25
454.537	8.24
454.742	8.27
454.948	8.21
455.153	8.25
455.358	8.22
455.563	8.16
455.769	8.08
455.974	8.18
456.179	8.18
456.384	8.17
456.589	8.35
456.795	8.47
457	8.45
457.205	8.44
457.41	8.51
457.615	8.49
457.82	8.44
458.025	8.42
458.23	8.51
458.435	8.45
458.64	8.49
458.845	8.46
459.05	8.53
459.255	8.54
459.46	8.57
459.665	8.53
459.87	8.7
460.075	8.72
460.28	8.78
460.485	8.82
460.69	8.82
460.895	8.8
461.099	8.82
461.304	8.76
461.509	8.74
461.714	8.9
461.919	8.94
462.123	8.97
462.328	9
462.533	9.2
462.738	9.21
462.942	9.22
463.147	9.24
463.352	9.21
463.556	9.27
463.761	9.2
463.966	9.15
464.17	9.13
464.375	9.17
464.58	9.02
464.784	9.05
464.989	9.17
465.193	9.19
465.398	9.29
465.602	9.29
465.807	9.35
466.011	9.38
466.216	9.46
466.42	9.5
466.625	9.67
466.829	9.69
467.034	9.65
467.238	9.55
467.443	9.49
467.647	9.52
467.851	9.64
468.056	9.68
468.26	9.71
468.464	9.75
468.669	9.7
468.873	9.55
469.077	9.53
469.282	9.69
469.486	9.69
469.69	9.63
469.894	9.65
470.099	9.73
470.303	9.56
470.507	9.71
470.711	9.88
470.915	9.99
471.119	10.01
471.324	10.23
471.528	10.13
471.732	10.11
471.936	10.16
472.14	10.09
472.344	10.05
472.548	10.13
472.752	10.1
472.956	9.98
473.16	10.06
473.364	10.19
473.568	10.22
473.772	10.23
473.976	10.49
474.18	10.51
474.384	10.47
474.588	10.54
474.792	10.63
474.995	10.54
475.199	10.64
475.403	10.48
475.607	10.36
475.811	10.33
476.015	10.24
476.218	10.15
476.422	10.23
476.626	10.32
476.83	10.31
477.033	10.4
477.237	10.43
477.441	10.39
477.644	10.38
477.848	10.41
478.052	10.44
478.255	10.48
478.459	10.52
478.663	10.51
478.866	10.56
479.07	10.59
479.273	10.63
479.477	10.6
479.681	10.61
479.884	10.64
480.088	10.66
480.291	10.63
480.495	10.71
480.698	10.71
480.901	10.63
481.105	10.52
481.308	10.55
481.512	10.64
481.715	10.66
481.919	10.72
482.122	10.81
482.325	10.79
482.529	10.76
482.732	10.82
482.935	10.79
483.138	10.72
483.342	10.64
483.545	10.54
483.748	10.53
483.952	10.55
484.155	10.6
484.358	10.73
484.561	10.78
484.764	10.72
484.967	10.8
485.171	10.8
485.374	10.78
485.577	10.83
485.78	10.82
485.983	10.7
486.186	10.72
486.389	10.74
486.592	10.68
486.795	10.69
486.998	10.76
487.201	10.76
487.404	10.7
487.607	10.73
487.81	10.77
488.013	10.7
488.216	10.69
488.419	10.62
488.622	10.62
488.825	10.65
489.028	10.7
489.231	10.67
489.433	10.77
489.636	10.8
489.839	10.75
490.042	10.87
490.245	10.97
490.447	10.97
490.65	10.95
490.853	10.97
491.056	10.82
491.258	10.78
491.461	10.79
491.664	10.71
491.866	10.73
492.069	10.65
492.272	10.58
492.474	10.56
492.677	10.64
492.879	10.59
493.082	10.61
493.285	10.57
493.487	10.7
493.69	10.68
493.892	10.75
494.095	10.75
494.297	10.83
494.5	10.67
494.702	10.67
494.905	10.67
495.107	10.68
495.309	10.68
495.512	10.69
495.714	10.68
495.917	10.62
496.119	10.68
496.321	10.61
496.524	10.65
496.726	10.61
496.928	10.57
497.13	10.66
497.333	10.74
497.535	10.67
497.737	10.78
497.939	10.87
498.142	10.79
498.344	10.78
498.546	10.81
498.748	10.72
498.95	10.68
499.152	10.67
499.355	10.68
499.557	10.63
499.759	10.6
499.961	10.66
500.163	10.68
500.365	10.7
500.567	10.71
500.769	10.84
500.971	10.83
501.173	10.89
501.375	10.87
501.577	10.93
501.779	10.86
501.981	10.88
502.183	10.86
502.385	10.81
502.587	10.81
502.788	10.81
502.99	10.76
503.192	10.74
503.394	10.84
503.596	10.82
503.798	10.88
503.999	10.92
504.201	10.96
504.403	10.92
504.605	10.92
504.806	10.9
505.008	10.91
505.21	10.8
505.411	10.83
505.613	10.92
505.815	10.94
506.016	10.86
506.218	10.89
506.42	10.88
506.621	10.83
506.823	10.81
507.024	10.79
507.226	10.79
507.427	10.79
507.629	10.76
507.83	10.75
508.032	10.85
508.233	10.83
508.435	10.8
508.636	10.73
508.838	10.73
509.039	10.72
509.24	10.77
509.442	10.76
509.643	10.86
509.845	10.9
510.046	10.9
510.247	10.91
510.448	10.94
510.65	10.9
510.851	10.87
511.052	10.86
511.254	10.96
511.455	10.9
511.656	10.86
511.857	10.86
512.058	10.84
512.26	10.76
512.461	10.84
512.662	10.9
512.863	10.95
513.064	11.02
513.265	10.98
513.466	10.99
513.667	11.05
513.868	10.99
514.069	10.92
514.27	10.93
514.471	10.86
514.672	10.78
514.873	10.81
515.074	10.82
515.275	10.85
515.476	10.96
515.677	10.98
515.878	10.96
516.079	10.97
516.28	10.98
516.481	10.91
516.682	10.92
516.882	10.96
517.083	10.96
517.284	10.98
517.485	10.99
517.686	10.97
517.886	10.95
518.087	10.94
518.288	10.89
518.488	11
518.689	10.97
518.89	11
519.091	11.07
519.291	11.05
519.492	10.99
519.692	11.02
519.893	10.95
520.094	10.91
520.294	10.99
520.495	10.97
520.695	11.01
520.896	11.03
521.096	11.01
521.297	11.02
521.497	11.04
521.698	11.02
521.898	11.06
522.099	11.1
522.299	11.09
522.499	11.08
522.7	11.1
522.9	11.16
523.101	11.15
523.301	11.15
523.501	11.17
523.702	11.2
523.902	11.1
524.102	11.1
524.302	11.07
524.503	11.04
524.703	11.03
524.903	11.14
525.103	11.24
525.304	11.23
525.504	11.21
525.704	11.2
525.904	11.15
526.104	11.12
526.304	11.16
526.504	11.2
526.705	11.24
526.905	11.2
527.105	11.12
527.305	11.12
527.505	11.16
527.705	11.15
527.905	11.19
528.105	11.17
528.305	11.2
528.505	11.21
528.705	11.17
528.905	11.18
529.105	11.31
529.304	11.32
529.504	11.28
529.704	11.39
529.904	11.43
530.104	11.43
530.304	11.38
530.503	11.49
530.703	11.42
530.903	11.42
531.103	11.34
531.303	11.4
531.502	11.35
531.702	11.36
531.902	11.33
532.101	11.38
532.301	11.41
532.501	11.39
532.7	11.4
532.9	11.44
533.1	11.42
533.299	11.44
533.499	11.42
533.698	11.42
533.898	11.38
534.097	11.36
534.297	11.28
534.496	11.21
534.696	11.22
534.895	11.24
535.095	11.29
535.294	11.37
535.494	11.43
535.693	11.45
535.892	11.47
536.092	11.49
536.291	11.49
536.491	11.53
536.69	11.52
536.889	11.53
537.088	11.51
537.288	11.48
537.487	11.43
537.686	11.48
537.886	11.5
538.085	11.51
538.284	11.46
538.483	11.55
538.682	11.52
538.882	11.56
539.081	11.52
539.28	11.61
539.479	11.62
539.678	11.62
539.877	11.56
540.076	11.7
540.275	11.63
540.474	11.54
540.673	11.63
540.872	11.71
541.071	11.64
541.27	11.8
541.469	11.82
541.668	11.7
541.867	11.73
542.066	11.76
542.265	11.72
542.464	11.88
542.663	12.02
542.862	12.02
543.06	12.04
543.259	12.1
543.458	12.11
543.657	12.13
543.856	12.18
544.054	12.22
544.253	12.18
544.452	12.17
544.651	12.11
544.849	12.15
545.048	12.17
545.247	12.2
545.445	12.2
545.644	12.28
545.843	12.25
546.041	12.26
546.24	12.32
546.438	12.29
546.637	12.4
546.836	12.4
547.034	12.4
547.233	12.41
547.431	12.54
547.63	12.53
547.828	12.58
548.027	12.62
548.225	12.73
548.423	12.7
548.622	12.73
548.82	12.82
549.019	12.87
549.217	12.75
549.415	12.87
549.614	12.94
549.812	12.94
550.01	13.03
550.209	13.21
550.407	13.18
550.605	13.19
550.803	13.23
551.002	13.26
551.2	13.28
551.398	13.3
551.596	13.4
551.794	13.41
551.993	13.43
552.191	13.56
552.389	13.58
552.587	13.56
552.785	13.71
552.983	13.72
553.181	13.67
553.379	13.79
553.577	13.85
553.775	13.84
553.973	13.84
554.171	13.9
554.369	14
554.567	14.09
554.765	14.21
554.963	14.32
555.161	14.34
555.359	14.35
555.557	14.37
555.755	14.43
555.952	14.5
556.15	14.62
556.348	14.66
556.546	14.68
556.744	14.65
556.941	14.71
557.139	14.78
557.337	14.9
557.535	14.98
557.732	15.05
557.93	15.07
558.128	15.15
558.325	15.13
558.523	15.23
558.721	15.28
558.918	15.44
559.116	15.44
559.313	15.54
559.511	15.58
559.708	15.68
559.906	15.79
560.104	15.85
560.301	15.91
560.498	15.99
560.696	16.07
560.893	16.03
561.091	16.13
561.288	16.23
561.486	16.36
561.683	16.47
561.88	16.59
562.078	16.71
562.275	16.84
562.473	16.87
562.67	16.81
562.867	16.86
563.064	16.89
563.262	16.89
563.459	16.98
563.656	17.02
563.853	17.06
564.051	17.15
564.248	17.22
564.445	17.29
564.642	17.47
564.839	17.62
565.036	17.66
565.234	17.63
565.431	17.75
565.628	17.8
565.825	17.83
566.022	17.9
566.219	18.01
566.416	17.96
566.613	18.05
566.81	18.07
567.007	18.13
567.204	18.25
567.401	18.31
567.598	18.3
567.795	18.37
567.991	18.43
568.188	18.49
568.385	18.4
568.582	18.48
568.779	18.53
568.976	18.51
569.172	18.53
569.369	18.65
569.566	18.72
569.763	18.66
569.96	18.77
570.156	18.77
570.353	18.97
570.55	18.97
570.746	18.99
570.943	19
571.14	19.02
571.336	18.96
571.533	19
571.729	19.14
571.926	19.16
572.123	19.17
572.319	19.26
572.516	19.29
572.712	19.32
572.909	19.35
573.105	19.33
573.302	19.34
573.498	19.35
573.695	19.31
573.891	19.3
574.087	19.4
574.284	19.41
574.48	19.42
574.677	19.49
574.873	19.56
575.069	19.59
575.266	19.51
575.462	19.5
575.658	19.48
575.854	19.46
576.051	19.46
576.247	19.49
576.443	19.53
576.639	19.68
576.835	19.67
577.032	19.59
577.228	19.63
577.424	19.63
577.62	19.55
577.816	19.51
578.012	19.62
578.208	19.54
578.404	19.56
578.6	19.45
578.796	19.44
578.993	19.39
579.189	19.49
579.384	19.56
579.58	19.61
579.776	19.68
579.972	19.63
580.168	19.56
580.364	19.57
580.56	19.62
580.756	19.55
580.952	19.66
581.148	19.63
581.343	19.44
581.539	19.3
581.735	19.29
581.931	19.17
582.127	19.15
582.322	19.25
582.518	19.26
582.714	19.34
582.909	19.35
583.105	19.34
583.301	19.27
583.496	19.22
583.692	19.18
583.888	19.18
584.083	19.18
584.279	19.18
584.474	19.23
584.67	19.18
584.866	19.17
585.061	19.22
585.257	19.18
585.452	19.18
585.648	19.2
585.843	19.12
586.039	19.05
586.234	19.12
586.429	19.12
586.625	19.08
586.82	19.12
587.015	19.16
587.211	19.13
587.406	19.15
587.601	19.19
587.797	19.18
587.992	19.15
588.187	19.16
588.383	19.11
588.578	19.09
588.773	19.15
588.968	19.27
589.163	19.29
589.359	19.37
589.554	19.33
589.749	19.31
589.944	19.24
590.139	19.2
590.334	19.3
590.529	19.45
590.724	19.52
590.919	19.54
591.114	19.6
591.309	19.41
591.504	19.39
591.699	19.36
591.894	19.37
592.089	19.37
592.284	19.52
592.479	19.57
592.674	19.69
592.869	19.74
593.064	19.79
593.259	19.79
593.454	19.75
593.648	19.83
593.843	19.82
594.038	19.9
594.233	19.91
594.428	19.91
594.622	19.88
594.817	20.03
595.012	20.01
595.206	20.15
595.401	20.3
595.596	20.25
595.79	20.14
595.985	20.27
596.18	20.3
596.374	20.28
596.569	20.38
596.763	20.49
596.958	20.57
597.153	20.57
597.347	20.69
597.542	20.69
597.736	20.8
597.931	20.81
598.125	20.84
598.319	20.84
598.514	20.98
598.708	21.06
598.903	21.13
599.097	21.21
599.291	21.3
599.486	21.29
599.68	21.26
599.874	21.19
600.069	21.18
600.263	21.24
600.457	21.34
600.651	21.36
600.846	21.47
601.04	21.5
601.234	21.42
601.428	21.41
601.622	21.4
601.817	21.39
602.011	21.53
602.205	21.67
602.399	21.61
602.593	21.71
602.787	21.68
602.981	21.6
603.175	21.5
603.369	21.53
603.563	21.43
603.757	21.41
603.951	21.28
604.145	21.29
604.339	21.34
604.533	21.44
604.727	21.51
604.921	21.54
605.115	21.56
605.309	21.51
605.502	21.46
605.696	21.38
605.89	21.37
606.084	21.31
606.278	21.31
606.471	21.17
606.665	21.17
606.859	21.16
607.053	21.18
607.246	21.1
607.44	21.12
607.634	21.09
607.827	21.07
608.021	21.04
608.214	21.07
608.408	21.01
608.602	21.01
608.795	21.07
608.989	20.97
609.182	20.88
609.376	20.86
609.569	20.73
609.763	20.55
609.956	20.47
610.15	20.43
610.343	20.45
610.537	20.49
610.73	20.49
610.923	20.5
611.117	20.5
611.31	20.35
611.504	20.3
611.697	20.2
611.89	20.11
612.083	19.99
612.277	19.88
612.47	19.83
612.663	19.76
612.856	19.67
613.05	19.58
613.243	19.57
613.436	19.4
613.629	19.36
613.822	19.28
614.015	19.32
614.209	19.21
614.402	19.29
614.595	19.31
614.788	19.29
614.981	19.27
615.174	19.41
615.367	19.37
615.56	19.28
615.753	19.26
615.946	19.16
616.139	19.03
616.332	18.91
616.525	18.89
616.718	18.86
616.911	18.88
617.103	18.83
617.296	18.83
617.489	18.78
617.682	18.79
617.875	18.65
618.067	18.62
618.26	18.56
618.453	18.49
618.646	18.37
618.838	18.37
619.031	18.34
619.224	18.28
619.417	18.37
619.609	18.44
619.802	18.48
619.994	18.34
620.187	18.29
620.38	18.17
620.572	18.06
620.765	17.95
620.957	18.02
621.15	18.01
621.342	18.09
621.535	18.03
621.727	17.95
621.92	17.94
622.112	17.97
622.305	17.94
622.497	18.01
622.69	18.02
622.882	17.98
623.074	17.91
623.267	17.89
623.459	17.83
623.651	17.84
623.844	17.87
624.036	17.95
624.228	17.9
624.42	17.94
624.613	17.86
624.805	17.88
624.997	17.82
625.189	17.82
625.381	17.79
625.574	17.83
625.766	17.74
625.958	17.67
626.15	17.64
626.342	17.61
626.534	17.55
626.726	17.57
626.918	17.54
627.11	17.52
627.302	17.44
627.494	17.47
627.686	17.38
627.878	17.34
628.07	17.26
628.262	17.28
628.454	17.18
628.646	17.16
628.838	17.12
629.029	17.12
629.221	16.99
629.413	16.98
629.605	16.98
629.797	16.98
629.989	17.01
630.18	17.05
630.372	17.03
630.564	16.97
630.755	16.9
630.947	16.85
631.139	16.86
631.33	16.87
631.522	16.8
631.714	16.78
631.905	16.74
632.097	16.65
632.289	16.69
632.48	16.71
632.672	16.71
632.863	16.64
633.055	16.63
633.246	16.5
633.438	16.47
633.629	16.42
633.821	16.47
634.012	16.47
634.203	16.46
634.395	16.46
634.586	16.53
634.777	16.49
634.969	16.49
635.16	16.54
635.351	16.6
635.543	16.52
635.734	16.5
635.925	16.51
636.117	16.38
636.308	16.34
636.499	16.35
636.69	16.38
636.881	16.38
637.073	16.37
637.264	16.31
637.455	16.3
637.646	16.18
637.837	16.07
638.028	16.09
638.219	16.08
638.41	16.08
638.601	16.11
638.792	16.15
638.983	16.22
639.174	16.2
639.365	16.13
639.556	16.13
639.747	16.06
639.938	15.94
640.129	15.91
640.32	15.91
640.511	15.84
640.701	15.77
640.892	15.79
641.083	15.77
641.274	15.74
641.465	15.68
641.655	15.74
641.846	15.68
642.037	15.66
642.228	15.6
642.418	15.53
642.609	15.34
642.8	15.33
642.99	15.24
643.181	15.24
643.372	15.23
643.562	15.34
643.753	15.33
643.943	15.33
644.134	15.31
644.324	15.38
644.515	15.34
644.705	15.25
644.896	15.2
645.086	15.14
645.277	15.03
645.467	15.06
645.658	15.16
645.848	15.14
646.038	15.11
646.229	15.18
646.419	15.07
646.61	14.96
646.8	15.09
646.99	15.07
647.18	15.06
647.371	15.03
647.561	15.08
647.751	14.98
647.941	15.02
648.132	15.02
648.322	15.1
648.512	15.07
648.702	15.05
648.892	15.03
649.082	15.03
649.272	15.03
649.462	15.03
649.653	14.94
649.843	14.92
650.033	14.81
650.223	14.77
650.413	14.74
650.603	14.77
650.793	14.71
650.983	14.71
651.172	14.62
651.362	14.51
651.552	14.51
651.742	14.57
651.932	14.49
652.122	14.55
652.312	14.54
652.502	14.49
652.691	14.37
652.881	14.46
653.071	14.37
653.261	14.31
653.45	14.2
653.64	14.16
653.83	14.05
654.019	13.98
654.209	13.91
654.399	13.88
654.588	13.81
654.778	13.67
654.968	13.58
655.157	13.55
655.347	13.52
655.536	13.48
655.726	13.39
655.915	13.34
656.105	13.24
656.294	13.17
656.484	13.05
656.673	13.07
656.863	12.95
657.052	12.91
657.241	12.9
657.431	12.85
657.62	12.7
657.809	12.61
657.999	12.58
658.188	12.46
658.377	12.36
658.567	12.31
658.756	12.25
658.945	12.17
659.134	12.01
659.324	11.98
659.513	11.87
659.702	11.81
659.891	11.71
660.08	11.6
660.269	11.51
660.458	11.41
660.648	11.37
660.837	11.23
661.026	11.2
661.215	11.14
661.404	11.12
661.593	10.9
661.782	10.8
661.971	10.71
662.16	10.64
662.349	10.48
662.538	10.51
662.726	10.47
662.915	10.48
663.104	10.35
663.293	10.3
663.482	10.25
663.671	10.19
663.86	10.13
664.048	10.15
664.237	10.11
664.426	10.1
664.615	9.99
664.803	9.82
664.992	9.67
665.181	9.61
665.369	9.57
665.558	9.58
665.747	9.52
665.935	9.59
666.124	9.65
666.312	9.6
666.501	9.66
666.69	9.79
666.878	9.79
667.067	9.68
667.255	9.6
667.444	9.38
667.632	9.2
667.82	9.01
668.009	9.04
668.197	9.16
668.386	9.27
668.574	9.38
668.762	9.48
668.951	9.39
669.139	9.42
669.327	9.5
669.516	9.42
669.704	9.52
669.892	9.73
670.08	9.59
670.269	9.59
670.457	9.63
670.645	9.61
670.833	9.47
671.021	9.5
671.21	9.47
671.398	9.38
671.586	9.41
671.774	9.52
671.962	9.68
672.15	9.72
672.338	10
672.526	10.05
672.714	10.06
672.902	10
673.09	10.05
673.278	9.98
673.466	9.96
673.654	9.96
673.842	10.1
674.03	10.12
674.218	10.3
674.405	10.42
674.593	10.55
674.781	10.35
674.969	10.39
675.157	10.24
675.344	10.31
675.532	10.32
675.72	10.44
675.908	10.49
676.095	10.76
676.283	10.72
676.471	10.65
676.658	10.81
676.846	10.96
677.033	10.91
677.221	10.99
677.409	11.25
677.596	11.39
677.784	11.36
677.971	11.5
678.159	11.52
678.346	11.49
678.534	11.5
678.721	11.52
678.909	11.55
679.096	11.72
679.283	11.79
679.471	11.97
679.658	12.18
679.846	12.19
680.033	12.12
680.22	12.3
680.408	12.31
680.595	12.35
680.782	12.59
680.969	12.68
681.157	12.84
681.344	12.9
681.531	12.99
681.718	13.02
681.905	13.02
682.093	13.02
682.28	12.98
682.467	13.15
682.654	13.11
682.841	13.35
683.028	13.4
683.215	13.67
683.402	13.7
683.589	13.84
683.776	14.11
683.963	14.17
684.15	14.25
684.337	14.33
684.524	14.68
684.711	14.72
684.898	15.13
685.085	15.23
685.271	15.5
685.458	15.5
685.645	15.72
685.832	15.73
686.019	16.08
686.205	16.27
686.392	16.55
686.579	16.79
686.766	16.99
686.952	17.21
687.139	17.33
687.326	17.65
687.512	17.9
687.699	18.17
687.886	18.3
688.072	18.71
688.259	19
688.445	19.31
688.632	19.91
688.818	20.43
689.005	20.72
689.191	21.26
689.378	21.52
689.564	21.65
689.751	22.16
689.937	22.68
690.124	22.79
690.31	23.22
690.496	23.79
690.683	24.07
690.869	24.49
691.055	25.02
691.242	25.42
691.428	25.65
691.614	25.99
691.8	26.47
691.987	26.79
692.173	27.43
692.359	27.97
692.545	28.64
692.731	29.13
692.918	29.62
693.104	30.05
693.29	30.51
693.476	31.13
693.662	31.57
693.848	32.14
694.034	32.66
694.22	33.38
694.406	33.8
694.592	34.11
694.778	34.97
694.964	35.59
695.15	36.15
695.336	36.61
695.522	37.15
695.708	37.45
695.894	37.66
696.08	38.07
696.265	38.64
696.451	39.59
696.637	40.04
696.823	40.86
697.009	41.44
697.194	41.77
697.38	42.13
697.566	42.66
697.751	43.31
697.937	43.9
698.123	44.47
698.308	44.76
698.494	45.56
698.68	45.92
698.865	46.31
699.051	46.88
699.236	47.45
699.422	47.83
699.607	48.45
699.793	48.74
699.978	49.16
700.164	49.68
700.349	49.93
700.535	50.12
700.72	50.79
700.906	51.29
701.091	51.76
701.276	52.27
701.462	52.9
701.647	53.6
701.832	53.98
702.018	54.46
702.203	54.87
702.388	55.39
702.573	55.81
702.759	56.51
702.944	56.79
703.129	57.18
703.314	57.5
703.499	57.61
703.684	57.95
703.87	58.58
704.055	59.03
704.24	59.72
704.425	60.34
704.61	60.69
704.795	61.04
704.98	61.72
705.165	61.77
705.35	62.34
705.535	62.53
705.72	62.71
705.905	62.9
706.09	63.31
706.275	63.47
706.459	64.04
706.644	64.59
706.829	64.72
707.014	65.2
707.199	65.37
707.384	65.69
707.568	65.94
707.753	66.35
707.938	66.61
708.123	66.48
708.307	66.94
708.492	67.29
708.677	67.6
708.861	67.68
709.046	68.36
709.231	68.51
709.415	68.9
709.6	69.11
709.784	69.44
709.969	69.87
710.153	70.37
710.338	70.56
710.522	71.19
710.707	71.6
710.891	71.82
711.076	71.92
711.26	72.16
711.445	71.99
711.629	72.08
711.813	72.19
711.998	71.8
712.182	72.2
712.366	72.28
712.551	72.58
712.735	72.75
712.919	73.49
713.103	73.5
713.288	74.17
713.472	74.44
713.656	74.46
713.84	74.59
714.024	74.44
714.208	74.37
714.393	74.76
714.577	75.36
714.761	75.2
714.945	75.55
715.129	75.86
715.313	75.66
715.497	75.75
715.681	76
715.865	76.36
716.049	76.4
716.233	76.62
716.417	76.65
716.601	76.84
716.785	77.18
716.968	77.45
717.152	77.35
717.336	77.41
717.52	77.71
717.704	77.39
717.888	77.76
718.071	77.9
718.255	77.93
718.439	77.87
718.622	78
718.806	77.13
718.99	77.79
719.174	78.3
719.357	78.26
719.541	79.02
719.724	79.96
719.908	80.32
720.092	80.4
720.275	81.09
720.459	80.76
720.642	80.78
720.826	80.57
721.009	80.35
721.193	80.52
721.376	80.68
721.559	80.61
721.743	80.54
721.926	80.94
722.11	81.1
722.293	81.7
722.476	81.8
722.66	81.63
722.843	81.51
723.026	81.53
723.21	81.23
723.393	80.99
723.576	81.07
723.759	80.85
723.942	80.87
724.126	80.81
724.309	81.46
724.492	82.01
724.675	82.76
724.858	82.43
725.041	82.36
725.224	82.68
725.407	82.25
725.59	82.29
725.774	82.61
725.957	83.05
726.14	83.03
726.322	83.34
726.505	82.73
726.688	82.96
726.871	83.12
727.054	83.29
727.237	83.35
727.42	84.36
727.603	85.1
727.786	85.17
727.968	85.72
728.151	86.06
728.334	85.92
728.517	85.44
728.699	85.11
728.882	84.7
729.065	85.16
729.248	84.71
729.43	84.83
729.613	85.54
729.796	85.42
729.978	85.41
730.161	86.19
730.343	86
730.526	86.05
730.708	86.31
730.891	86.82
731.073	86.74
731.256	87.01
731.438	87.64
731.621	87.78
731.803	86.7
731.986	86.65
732.168	88.01
732.35	88.3
732.533	88.52
732.715	89.59
732.898	89.1
733.08	87.69
733.262	87.18
733.444	87.37
733.627	87.55
733.809	89.18
733.991	89.35
734.173	89.96
734.355	89.68
734.538	89.81
734.72	89.01
734.902	88.83
735.084	87.63
735.266	87.73
735.448	87.98
735.63	88.78
735.812	89.41
735.994	89.37
736.176	89.82
736.358	88.25
736.54	87.42
736.722	87.45
736.904	88.07
737.086	86.95
737.268	87.26
737.45	87.92
737.632	88.03
737.814	87.93
737.995	88.33
738.177	89.56
738.359	90.21
738.541	90.79
738.723	90.88
738.904	91.02
739.086	90.65
739.268	89.73
739.449	88.45
739.631	88.03
739.813	88.79
739.994	88.75
740.176	87.68
740.358	88.01
740.539	88.85
740.721	89.23
740.902	89.36
741.084	89.75
741.265	90.66
741.447	90.23
741.628	90.04
741.81	89.49
741.991	89.95
742.172	89.25
742.354	89.4
742.535	89.5
742.717	89.88
742.898	91.73
743.079	92.23
743.261	93
743.442	92.87
743.623	92.43
743.804	90.97
743.986	90.77
744.167	90.15
744.348	90.02
744.529	89.75
744.71	89.32
744.891	89.09
745.073	89.56
745.254	89.14
745.435	89.95
745.616	90.72
745.797	91.23
745.978	91.41
746.159	91.83
746.34	91.75
746.521	90.98
746.702	90.39
746.883	91.01
747.064	92.06
747.245	91.69
747.426	92.59
747.606	92.44
747.787	91.32
747.968	89.98
748.149	89.86
748.33	88.74
748.51	89.75
748.691	89.58
748.872	90.2
749.053	90.94
749.233	93.33
749.414	93.05
749.595	92.16
749.775	91.53
749.956	92.07
750.137	90.1
750.317	88.81
750.498	89.02
750.678	88.92
750.859	87.49
751.04	87.57
751.22	88.38
751.4	88.62
751.581	89.05
751.761	89.08
751.942	88.59
752.122	88.63
752.303	89.79
752.483	89.25
752.663	89.79
752.844	90.43
753.024	90.96
753.204	90.64
753.385	90.85
753.565	89.8
753.745	88.48
753.925	87.26
754.106	86.82
754.286	85.38
754.466	85.85
754.646	88.18
754.826	89.03
755.006	89.81
755.187	90.78
755.367	91.58
755.547	91.17
755.727	90.44
755.907	90.83
756.087	89.04
756.267	88.83
756.447	88.56
756.627	88.65
756.807	87.43
756.987	90.72
757.167	91.45
757.346	91.3
757.526	92.45
757.706	91.87
757.886	91.48
758.066	90.66
758.246	91.24
758.425	91.12
758.605	91.33
758.785	90.89
758.965	91.65
759.144	90.62
759.324	91.18
759.504	91.45
759.683	92.25
759.863	91.38
760.043	92.21
760.222	91.23
760.402	92.09
760.581	91.15
760.761	90.59
760.94	90.18
761.12	90.19
761.299	89.14
761.479	88.56
761.658	89.76
761.838	90.17
762.017	91.01
762.197	90.93
762.376	92.58
762.555	91.36
762.735	90.04
762.914	89.12
763.093	88.56
763.273	86.98
763.452	87.66
763.631	87.59
763.81	87.45
763.99	89.01
764.169	90.11
764.348	90.24
764.527	91.63
764.706	89.77
764.885	88.41
765.064	87.75
765.243	87.43
765.423	86.68
765.602	87.68
765.781	88.38
765.96	88.66
766.139	89.28
766.318	89.33
766.497	90.51
766.676	91.03
766.854	90.06
767.033	89.75
767.212	89.15
767.391	89.61
767.57	88.91
767.749	90.28
767.928	89.16
768.106	89.88
768.285	88.91
768.464	89.14
768.643	87.68
768.821	86.97
769	84.98
769.179	85.85
769.357	88.51
769.536	89.98
769.715	90.79
769.893	90.54
770.072	90
770.25	87.73
770.429	86.4
770.607	87.21
770.786	88.78
770.964	86.84
771.143	86.72
771.321	85.22
771.5	84.37
771.678	84.87
771.857	86.37
772.035	84.8
772.213	85.09
772.392	84.58
772.57	83.95
772.748	84.19
772.927	86.03
773.105	86.61
773.283	87.71
773.461	88.38
773.64	88.03
773.818	86.54
773.996	85.37
774.174	84.16
774.352	83.13
774.531	82.28
774.709	82.21
774.887	84.17
775.065	85.37
775.243	86.83
775.421	86.3
775.599	86.47
775.777	85.47
775.955	83.58
776.133	84.3
776.311	86.07
776.489	86.73
776.667	88.53
776.844	90.6
777.022	90.66
777.2	88.5
777.378	88.28
777.556	88.47
777.734	86.99
777.911	85.76
778.089	87.45
778.267	87.88
778.445	88.93
778.622	90.41
778.8	89.58
778.978	88.02
779.155	86.56
779.333	83.2
779.511	82.47
779.688	79.12
779.866	82.48
780.043	84.42
780.221	85.69
780.398	85.97
780.576	88.87
780.753	86.33
780.931	86.69
781.108	85.91
781.286	87.3
781.463	86.18
781.64	86.56
781.818	84.02
781.995	85.8
782.172	83.26
782.35	84.38
782.527	83.77
782.704	83.94
782.882	84.01
783.059	83.66
783.236	84.09
783.413	83.54
783.59	85.35
783.768	87.37
783.945	87.52
784.122	87.73
784.299	90.43
784.476	88.79
784.653	87.17
784.83	88.01
785.007	87.77
785.184	86.99
785.361	87.93
785.538	85.41
785.715	89.61
785.892	88.05
786.069	86.54
786.246	85.27
786.423	87.72
786.6	84.35
786.776	87.97
786.953	89.52
787.13	88.95
787.307	85.64
787.484	84.67
787.66	85.62
787.837	85.43
788.014	88.33
788.191	90.6
788.367	90.57
788.544	87.96
788.721	87.23
788.897	84.84
789.074	84.01
789.25	82.5
789.427	80.29
789.603	78.63
789.78	79.99
789.956	79.6
790.133	80.65
790.309	83.47
790.486	79.78
790.662	78.83
790.839	79.42
791.015	76.47
791.192	74.96
791.368	78.95
791.544	79.49
791.721	80.32
791.897	83.67
792.073	83.72
792.249	83.37
792.426	82.82
792.602	78.38
792.778	82.32
792.954	84.75
793.13	89.69
793.307	91.73
793.483	97
793.659	89.94
793.835	90.54
794.011	86.16
794.187	84.74
794.363	85.96
794.539	87.6
794.715	89.76
794.891	91.27
795.067	90.64
795.243	89.16
795.419	88.67
795.595	81.19
795.771	81.29
795.947	77.11
796.122	78.54
796.298	76.48
796.474	79.14
796.65	77.75
796.826	83.93
797.001	84.4
797.177	90.91
797.353	88.22
797.529	88.31
797.704	88.79
797.88	88.5
798.056	87.43
798.231	89.04
798.407	85.35
798.582	84.13
798.758	82.28
798.934	77.71
799.109	74.02
799.285	79.49
799.46	75.78
799.636	75.37
799.811	79.28
799.986	79.04
800.162	77.71
800.337	77.52
800.513	80.43
800.688	81.65
800.863	82.61
801.039	81.15
801.214	85.27
801.389	82.59
801.565	82.06
801.74	83.42
801.915	84.14
802.09	80.34
802.265	79.38
802.441	74.88
802.616	76.59
802.791	77.1
802.966	83.71
803.141	86.08
803.316	94.88
803.491	99.12
803.666	93.62
803.841	95.22
804.016	93.65
804.191	85.51
804.366	86.22
804.541	96.57
804.716	93.43
804.891	91.29
805.066	88.88
805.241	90.45
805.416	82.71
805.591	79.43
805.765	78.58
805.94	83.19
806.115	81.96
806.29	85.56
806.464	88.34
806.639	95.3
806.814	92.61
806.989	89.96
807.163	86.91
807.338	85.43
807.512	79.44
807.687	81.03
807.862	81.09
808.036	81.83
808.211	86.48
808.385	88.26
808.56	86.67
808.734	86.65
808.909	91.72
809.083	87.24
809.258	77.53
809.432	75.25
809.606	78.01
809.781	76.71
809.955	71.21
810.13	78.68
810.304	87.97
810.478	90.03
810.652	87.52
810.827	93.52
811.001	96.14
811.175	90.69
811.349	86.48
811.524	82.04
811.698	75.33
811.872	71.32
812.046	69.79
812.22	69.3
812.394	78.27
812.568	86.05
812.742	79.89
812.916	84.79
813.09	84.3
813.264	89.39
813.438	96.65
813.612	108.99
813.786	113.03
813.96	106.89
814.134	101.44
814.308	94.5
814.482	92.61
814.656	87
814.83	82.47
815.003	84.5
815.177	90.9
815.351	93.69
815.525	81.6
815.698	95.35
815.872	89.44
816.046	79.7
816.219	73.72
816.393	81.72
816.567	80.76
816.74	82.65
816.914	73.26
817.088	75.6
817.261	73.2
817.435	76.6
817.608	76.16
817.782	88.2
817.955	86.82
818.129	89.55
818.302	85
818.475	83.76
818.649	82.39
818.822	87.76
818.996	72.89
819.169	74.81
819.342	70.82
819.516	77
819.689	65.2
819.862	99.18
820.035	103.79
820.209	93.9
820.382	86.7
820.555	92.34
820.728	77.26
820.901	73.23
821.075	78.41
821.248	79.45
821.421	90.18
821.594	94.92
821.767	93.47
821.94	83.97
822.113	79.89
822.286	64.33
822.459	54.85
822.632	57.58
822.805	68.78
822.978	73.96
823.151	82.2
823.324	93.44
823.496	99.19
823.669	93.22
823.842	94.62
824.015	108.58
824.188	107.23
824.361	108.89
824.533	108.26
824.706	105.38
824.879	86.19
825.051	69.19
825.224	63.66
825.397	57.04
825.569	50.66
825.742	59.33
825.915	69.15
826.087	79.96
826.26	97.01
826.432	110.7
826.605	97.01
826.777	86.32
826.95	84.85
827.122	68.37
827.295	77.65
827.467	88.13
827.64	82.38
827.812	84.33
827.984	80.14
828.157	82.73
828.329	78.78
828.501	99.77
828.674	95.25
828.846	123.04
829.018	101.65
829.19	99.27
829.363	86.05
829.535	77.08
829.707	60.41
829.879	69.89
830.051	76.81
830.223	80.61
830.395	96.24
830.568	96.12
830.74	81.98
830.912	64.15
831.084	55.61
831.256	56.51
831.428	64.19
831.6	77.53
831.772	90.41
831.943	94.08
832.115	90.92
832.287	90.37
832.459	91.33
832.631	90.86
832.803	94.5
832.975	90
833.146	97.58
833.318	107.21
833.49	100.9
833.662	86.84
833.833	82.32
834.005	70.27
834.177	69.23
834.348	80.45
834.52	85.66
834.692	92
834.863	110.21
835.035	102.78
835.206	90.2
835.378	101.54
835.549	125.89
835.721	110.58
835.892	106.78
836.064	111.57
836.235	81.7
836.407	70.38
836.578	79.92
836.749	86.64
836.921	80.14
837.092	99.65
837.264	96.47
837.435	69.79
837.606	55.46
837.777	48.58
837.949	39.17
838.12	41.24
838.291	67.02
838.462	77.99
838.633	89.4
838.805	106.63
838.976	109.22
839.147	102.4
839.318	132.67
839.489	131.07
839.66	92.18
839.831	67.13
840.002	81.13
840.173	84.57
840.344	79.29
840.515	87.15
840.686	83.59
840.857	78.7
841.028	76.59
841.199	74.87
841.369	89.36
841.54	105.96
841.711	137.03
841.882	135.14
842.053	111.62
842.223	121.19
842.394	104.83
842.565	68.2
842.736	64.45
842.906	66.98
843.077	49.68
843.248	51.95
843.418	67.11
843.589	62.03
843.759	81.32
843.93	92.99
844.101	90.8
844.271	67.95
844.442	66.52
844.612	32.04
844.783	34.99
844.953	67.23
845.123	68.31
845.294	57.71
845.464	90.52
845.635	87.87
845.805	69.29
845.975	91.29
846.146	100.81
846.316	93.86
846.486	96.05
846.656	96.74
846.827	95.73
846.997	94.24
847.167	104.85
847.337	114.14
847.507	111.1
847.677	113.18
847.848	115.42
848.018	99.46
848.188	105.73
848.358	98.75
848.528	79.17
848.698	89.89
848.868	99.85
849.038	79.63
849.208	75.42
849.378	60.62
849.548	55.05
849.718	66.8
849.887	73.12
850.057	112.75
850.227	127.58
850.397	121.38
850.567	104.65
850.737	100.5
850.906	81.55
851.076	102.93
851.246	109.59
851.415	104.47
851.585	117.59
851.755	134.65
851.924	127.77
852.094	86.09
852.264	100.33
852.433	105.34
852.603	88.01
852.772	73.98
852.942	104.94
853.111	80.92
853.281	70.82
853.45	71.56
853.62	77.54
853.789	87.98
853.959	70.22
854.128	79.32
854.297	91.56
854.467	93.56
854.636	50.82
854.805	85.53
854.975	87.84
855.144	126.25
855.313	79.24
855.482	99.24
855.652	102.5
855.821	100.03
855.99	66.74
856.159	73.19
856.328	78.23
856.497	72.71
856.667	90.14
856.836	72.99
857.005	87.27
857.174	81.35
857.343	98.53
857.512	88.87
857.681	108.59
857.85	118.95
858.019	114.64
858.188	136.76
858.356	140.4
858.525	208.65
858.694	412.8
858.863	264.28
859.032	208.01
859.201	180.51
859.369	70.01
859.538	-9.56
859.707	24.79
859.876	2.38
860.044	18.05
860.213	21.79
860.382	60.72
860.55	40.79
860.719	27.8
860.888	61.52
861.056	82.29
861.225	81.16
861.393	85.79
861.562	82.71
861.73	78.09
861.899	86.43
862.067	80.21
862.236	85.17
862.404	118.06
862.572	119.25
862.741	119.04
862.909	112.68
863.078	139.83
863.246	108.48
863.414	94.75
863.582	67.83
863.751	73.32
863.919	69.53
864.087	67.3
864.255	67.17
864.424	90.09
864.592	108.13
864.76	94.54
864.928	94.65
865.096	106.23
865.264	95.91
865.432	80.08
865.6	83.59
865.768	93.19
865.936	94.85
866.104	106.67
866.272	129.88
866.44	137.17
866.608	100.82
866.776	95.82
866.944	90.47
867.112	81.23
867.28	95.92
867.448	106.35
867.615	82.96
867.783	74.83
867.951	72.19
868.119	15.87
868.286	-2.01
868.454	46.68
868.622	72.6
868.789	110.09
868.957	128.59
869.125	139.8
869.292	96.96
869.46	88.23
869.627	76.06
869.795	103.4
869.963	102.85
870.13	87.8
870.298	86.58
870.465	81.34
870.632	70.82
870.8	84.37
870.967	107.37
871.135	77.99
871.302	67.94
871.469	33.17
871.637	34.94
871.804	43.83
871.971	66.09
872.139	99.59
872.306	103.36
872.473	87.28
872.64	108.06
872.807	103.73
872.975	27.21
873.142	83.5
873.309	126.02
873.476	60.73
873.643	88.37
873.81	212.16
873.977	161.05
874.144	74.74
874.311	102.57
874.478	95.82
874.645	89.24
874.812	76.47
874.979	56.49
875.146	110.43
875.313	129.66
875.48	89.82
875.647	116.88
875.813	161.63
875.98	111.01
876.147	85.91
876.314	99.41
876.481	115.04
876.647	133.65
876.814	185.87
876.981	-307.6
877.147	-453.11
877.314	165.03
877.481	112.92
877.647	83.1
877.814	113.66
877.98	91.1
878.147	69.79
878.314	46.38
878.48	72.5
878.647	77.56
878.813	31.75
878.979	21.02
879.146	57.13
879.312	72.96
879.479	52.87
879.645	81.3
879.811	106.5
879.978	128.75
880.144	72.14
880.31	121.06
880.477	131.92
880.643	122.81
880.809	109.93
880.975	230.71
881.142	128.7
881.308	31.42
881.474	75.03
881.64	82.62
881.806	101.99
881.972	90.89
882.138	82
882.304	-46.5
882.47	84.44
882.636	153.59
882.802	161.4
882.968	40.5
883.134	93.26
883.3	69.85
883.466	34.07
883.632	23.94
883.798	65.6
883.964	58.8
884.129	42.06
884.295	47.42
884.461	60.2
884.627	62.11
884.793	59.58
884.958	56.79
885.124	79.77
885.29	82.91
885.455	52
885.621	98.44
885.787	188.63
885.952	514.19
886.118	556.9
886.283	411.89
886.449	411.94
886.614	280.67
886.78	215.16
886.945	325.06
887.111	593.78
887.276	-2948.15
887.442	-826.67
887.607	243.77
887.773	161.58
887.938	132.6
888.103	98.49
888.269	96.83
888.434	141.87
888.599	101.56
888.764	129.05
888.93	179.77
889.095	176.26
889.26	175.4
889.425	-4819.05
889.59	-1373.33
889.756	416.55
889.921	3194.87
890.086	-21.6
890.251	78.56
890.416	48.02
890.581	-21.85
890.746	15.97
890.911	54.87
891.076	70.5
891.241	56.53
891.406	66.28
891.571	44.89
891.736	62.64
891.901	85.47
892.065	93.53
892.23	65.88
892.395	139.97
892.56	72.94
892.725	8.13
892.889	50.47
893.054	71.17
893.219	92.82
893.384	201.85
893.548	291.9
893.713	330.46
893.878	522.48
