Data from Ofav_PP_Phys_3JQ1_Reflection_1.txt Node
Date: Tue Aug 03 18:10:11 EDT 2021
User: Adam
Spectrometer: FLMT01687
Trigger mode: 0
Integration Time (sec): 8.750000E-1
Scans to average: 2
Electric dark correction enabled: true
Nonlinearity correction enabled: false
Boxcar width: 2
XAxis mode: Wavelengths
Number of Pixels in Spectrum: 3648
>>>>>Begin Spectral Data<<<<<
179.494	178.98
179.716	171.29
179.937	202.11
180.158	323.88
180.38	1238.6
180.601	190.25
180.823	304.19
181.044	139.87
181.265	174.45
181.486	-40.8
181.708	74.37
181.929	239.6
182.15	136.68
182.372	448.95
182.593	-188.19
182.814	-207.33
183.035	550.35
183.257	909.8
183.478	6.18
183.699	-205.62
183.92	-14.26
184.141	-63.22
184.363	-44.31
184.584	-138
184.805	-22.45
185.026	-60.48
185.247	-27.65
185.468	-3.67
185.689	4.17
185.91	17.36
186.132	29.73
186.353	21.76
186.574	-9.06
186.795	32.59
187.016	20.3
187.237	38.34
187.458	61.45
187.679	62.21
187.9	53.11
188.121	53.18
188.342	45.69
188.563	24.63
188.784	20.43
189.005	-20.9
189.226	-27.61
189.447	-2.36
189.667	-12.7
189.888	2.58
190.109	45.01
190.33	52.03
190.551	53.62
190.772	76.98
190.993	31.75
191.214	31.54
191.434	25.01
191.655	3.61
191.876	0.36
192.097	17.87
192.318	16.46
192.538	21.75
192.759	20.9
192.98	14.35
193.201	-22.7
193.421	4.7
193.642	-12.38
193.863	14.13
194.083	37.53
194.304	100.32
194.525	78.22
194.745	78.25
194.966	76.97
195.187	102.93
195.407	87.74
195.628	110.09
195.848	128.08
196.069	130.43
196.29	123.83
196.51	112.25
196.731	110.96
196.951	57.84
197.172	65.63
197.392	82.84
197.613	62.54
197.833	14.89
198.054	55.71
198.274	51.61
198.495	24.21
198.715	63.79
198.936	100.65
199.156	83.21
199.377	75.99
199.597	68.62
199.817	44.15
200.038	37.67
200.258	65.71
200.479	21.36
200.699	22.11
200.919	-14.34
201.14	6.46
201.36	0.16
201.58	15.73
201.801	3.72
202.021	18.38
202.241	6.47
202.461	9.39
202.682	4.02
202.902	24.35
203.122	38.31
203.342	39.36
203.563	0.65
203.783	21.38
204.003	31.55
204.223	22.8
204.443	23.6
204.663	36.24
204.884	43.69
205.104	35.95
205.324	44.15
205.544	56.23
205.764	47.86
205.984	-7.39
206.204	-10.45
206.424	-78.47
206.644	-7.97
206.864	-15.02
207.084	16.58
207.304	15.61
207.525	54.43
207.745	43.86
207.964	42.42
208.184	37.53
208.404	50.1
208.624	37.67
208.844	28.56
209.064	34.51
209.284	57.91
209.504	45.35
209.724	46.23
209.944	58.19
210.164	52.94
210.384	54.16
210.604	50.72
210.823	72.33
211.043	59.91
211.263	106.64
211.483	85.39
211.703	81.72
211.922	80.01
212.142	76.04
212.362	57.47
212.582	45.82
212.801	36.19
213.021	35.57
213.241	31.79
213.461	32.33
213.68	49.48
213.9	47.53
214.12	19.67
214.339	19.38
214.559	36.51
214.779	-7.48
214.998	10.05
215.218	43.72
215.438	50.08
215.657	45.86
215.877	55.05
216.096	46.07
216.316	37.1
216.535	42.62
216.755	6.05
216.974	12.92
217.194	38.44
217.413	63.86
217.633	57.93
217.852	75.76
218.072	88.17
218.291	94.8
218.511	62.04
218.73	71.09
218.95	63.98
219.169	50.75
219.389	37.98
219.608	37.47
219.827	14.33
220.047	2.26
220.266	23.71
220.485	30.86
220.705	35.78
220.924	43.48
221.143	49.79
221.363	47.1
221.582	15.6
221.801	13.13
222.021	8.7
222.24	0.17
222.459	-17.35
222.678	24.37
222.897	43.38
223.117	33.59
223.336	0.96
223.555	31.26
223.774	43.39
223.993	32.79
224.213	22.62
224.432	47.1
224.651	57.59
224.87	53.62
225.089	29.86
225.308	22.67
225.527	-7.18
225.746	-46.21
225.965	-35.61
226.184	-71.25
226.404	20.74
226.623	44.59
226.842	37.14
227.061	-0.07
227.28	25.93
227.499	18.46
227.718	15.11
227.936	31.98
228.155	54.14
228.374	50.92
228.593	45.13
228.812	44.96
229.031	24.62
229.25	30.67
229.469	1.4
229.688	-21.94
229.907	-94.91
230.125	-102.39
230.344	-42.41
230.563	-9.93
230.782	-6.5
231.001	47.01
231.22	45.95
231.438	36.59
231.657	36.81
231.876	45.58
232.095	34.25
232.313	23.68
232.532	9.79
232.751	21.72
232.969	23.63
233.188	1.67
233.407	6.49
233.625	39.83
233.844	7.78
234.063	9.57
234.281	2.49
234.5	22.27
234.719	7.85
234.937	32.38
235.156	15.02
235.374	22.03
235.593	20.94
235.811	14.05
236.03	28.1
236.249	47.27
236.467	36.28
236.686	26.49
236.904	36.44
237.123	39.69
237.341	42.94
237.559	51.73
237.778	47.08
237.996	28.94
238.215	20.26
238.433	18.38
238.652	24.74
238.87	46.19
239.088	50.89
239.307	43.98
239.525	42.11
239.743	41.98
239.962	37
240.18	39.05
240.398	49.98
240.617	49.36
240.835	38.55
241.053	35.74
241.271	-2.99
241.49	-18.79
241.708	-9
241.926	-3.05
242.144	-4.71
242.363	24.18
242.581	35.13
242.799	24.03
243.017	23.58
243.235	54.19
243.453	62.9
243.672	61.16
243.89	78.04
244.108	73.6
244.326	34.86
244.544	20.86
244.762	26.99
244.98	-8.04
245.198	6.51
245.416	27.45
245.634	38.46
245.852	27.95
246.07	30.81
246.288	14.77
246.506	22.38
246.724	16.23
246.942	17.05
247.16	32.3
247.378	15.9
247.596	14.32
247.814	24.18
248.032	24.49
248.25	12.1
248.468	18.24
248.685	16.86
248.903	-19.38
249.121	-25.42
249.339	-9.75
249.557	9.39
249.775	0.84
249.992	44.7
250.21	56.09
250.428	63.96
250.646	49.05
250.863	53.28
251.081	33.62
251.299	20.95
251.517	11.5
251.734	17.06
251.952	20.06
252.17	-8.2
252.387	-40.21
252.605	-63.65
252.823	-26.67
253.04	-43.22
253.258	8.4
253.475	33.06
253.693	37.29
253.911	47.93
254.128	52.02
254.346	43.59
254.563	31.6
254.781	37.52
254.998	22.88
255.216	24.1
255.433	32.32
255.651	30.4
255.868	-2.92
256.086	-14.74
256.303	-3.68
256.521	8.39
256.738	11.98
256.956	42.31
257.173	60.65
257.39	52.76
257.608	39.92
257.825	31.82
258.043	-33.64
258.26	-7.65
258.477	-0.3
258.695	3.63
258.912	8.89
259.129	39.69
259.346	47.87
259.564	50.08
259.781	47.95
259.998	51.27
260.216	42.53
260.433	29.57
260.65	21.28
260.867	30.49
261.084	24.95
261.302	27.73
261.519	16.38
261.736	24.11
261.953	23.41
262.17	1.15
262.387	-1.16
262.604	8.19
262.822	21.94
263.039	25.88
263.256	46.74
263.473	51.12
263.69	59.33
263.907	40.78
264.124	38.51
264.341	14.71
264.558	0.55
264.775	-2.67
264.992	8.95
265.209	-15.29
265.426	-15.25
265.643	12.93
265.86	23
266.077	43.68
266.294	53.96
266.51	69.26
266.727	71.27
266.944	74.25
267.161	65.88
267.378	57.37
267.595	40.61
267.812	35.77
268.028	20.09
268.245	19.99
268.462	32.76
268.679	55.71
268.896	30.43
269.112	40.38
269.329	35.09
269.546	1.76
269.763	-2.84
269.979	13.83
270.196	16.46
270.413	12.32
270.629	27.72
270.846	34.8
271.063	39.87
271.279	39.25
271.496	46.39
271.712	21.26
271.929	16.81
272.146	35.66
272.362	36.66
272.579	21.94
272.795	35.18
273.012	45.17
273.228	36.73
273.445	32.74
273.661	48.62
273.878	48.18
274.094	28.89
274.311	27.73
274.527	19.53
274.744	9.52
274.96	12.32
275.177	-11.72
275.393	-23.18
275.609	-12.88
275.826	-1.38
276.042	-5.65
276.259	9.45
276.475	-10.63
276.691	-26.51
276.908	-26.71
277.124	-11.72
277.34	-21.05
277.557	3.01
277.773	25.37
277.989	21.58
278.205	20.97
278.422	44.86
278.638	30.86
278.854	16.4
279.07	17.27
279.286	20.8
279.503	24.69
279.719	33.26
279.935	39.41
280.151	41.36
280.367	35.31
280.583	19.4
280.799	26.05
281.016	19.74
281.232	4.63
281.448	-10.71
281.664	-5.35
281.88	6.25
282.096	30.52
282.312	21.71
282.528	34.04
282.744	17.61
282.96	12.61
283.176	11.82
283.392	34.37
283.608	33.72
283.824	47.86
284.04	52.3
284.256	45.28
284.471	42.37
284.687	38.43
284.903	37.45
285.119	20.92
285.335	2.85
285.551	-3.13
285.767	13.94
285.982	9.88
286.198	11.18
286.414	3.73
286.63	-0.39
286.846	-12.18
287.061	-13.63
287.277	-21.95
287.493	7.01
287.709	-1.75
287.924	20.09
288.14	7.85
288.356	-0.68
288.571	1.06
288.787	18.07
289.003	11.68
289.218	19.6
289.434	40.09
289.65	33.51
289.865	22.83
290.081	-1.55
290.296	-3.46
290.512	-10.23
290.727	-2.47
290.943	3.63
291.159	21.47
291.374	16.16
291.59	35.75
291.805	32.38
292.021	47.76
292.236	48.96
292.451	56.19
292.667	49.22
292.882	45.41
293.098	26.88
293.313	38.03
293.529	30.62
293.744	13.44
293.959	29.77
294.175	39.81
294.39	41.72
294.605	35.16
294.821	44.02
295.036	41.01
295.251	34.24
295.467	16.96
295.682	32.94
295.897	22.43
296.112	29.61
296.328	27.26
296.543	42.78
296.758	32.21
296.973	28.09
297.188	13.58
297.404	26.87
297.619	10.4
297.834	17.68
298.049	22.48
298.264	36.1
298.479	1.86
298.694	0.64
298.909	8.91
299.125	18.11
299.34	9.39
299.555	37.06
299.77	19.45
299.985	26.89
300.2	37.22
300.415	45.63
300.63	24.11
300.845	51.29
301.06	44.66
301.275	18.79
301.49	45.81
301.704	50.81
301.919	58.8
302.134	46.92
302.349	50.47
302.564	43.07
302.779	41.68
302.994	21.08
303.209	19.05
303.423	11.3
303.638	7.42
303.853	15.09
304.068	33.03
304.283	52.87
304.497	65.02
304.712	83.04
304.927	80.55
305.142	70.17
305.356	52.23
305.571	43.79
305.786	29.97
306	44.56
306.215	42.74
306.43	62.54
306.644	39.21
306.859	45.47
307.074	36.3
307.288	45.98
307.503	34.74
307.717	35.87
307.932	16.81
308.147	18.16
308.361	0.87
308.576	-14.64
308.79	11.1
309.005	21.52
309.219	12.35
309.434	15.82
309.648	21.67
309.863	-17.02
310.077	-21.94
310.292	4.83
310.506	10.6
310.72	30.38
310.935	33.08
311.149	25.46
311.364	-4.44
311.578	-1.36
311.792	-3.8
312.007	1.51
312.221	22.02
312.435	16.78
312.649	18.73
312.864	-36.24
313.078	-17
313.292	-9.47
313.507	9.98
313.721	1.99
313.935	33.89
314.149	49.75
314.363	32.15
314.578	18.47
314.792	7.73
315.006	12.31
315.22	-7.16
315.434	-10.25
315.648	-58.77
315.862	-22.75
316.077	-16.46
316.291	8.9
316.505	8.18
316.719	12.72
316.933	20.11
317.147	3.11
317.361	1.7
317.575	12.17
317.789	33.25
318.003	36.14
318.217	50.78
318.431	42.75
318.645	31.47
318.859	31.72
319.073	18.89
319.287	30.9
319.5	37.06
319.714	51.31
319.928	58.54
320.142	55.89
320.356	39.69
320.57	38.29
320.784	16.21
320.997	-0.42
321.211	11.96
321.425	16.97
321.639	5.16
321.853	-1.81
322.066	10.95
322.28	20.87
322.494	29.53
322.707	12.06
322.921	34.06
323.135	20.88
323.349	6.28
323.562	17.05
323.776	40.89
323.989	37.45
324.203	49.55
324.417	54.5
324.63	64.69
324.844	59.8
325.057	52.9
325.271	27.7
325.485	32.15
325.698	-7.38
325.912	-27.59
326.125	5.81
326.339	16.79
326.552	1.96
326.766	27.07
326.979	22.29
327.193	24.52
327.406	34.17
327.619	45.81
327.833	19.05
328.046	32.55
328.26	25.83
328.473	15
328.686	29.87
328.9	32.39
329.113	36.49
329.326	27.83
329.54	33.31
329.753	17.8
329.966	46.49
330.179	25.51
330.393	20.65
330.606	20.57
330.819	21.78
331.032	25.53
331.246	38.92
331.459	49.25
331.672	40.84
331.885	56.96
332.098	19.89
332.311	38.66
332.525	42.36
332.738	40.86
332.951	39.33
333.164	42.61
333.377	25.57
333.59	10.02
333.803	10.7
334.016	4.14
334.229	-0.35
334.442	-21.87
334.655	-16.11
334.868	-24.41
335.081	-35.55
335.294	-25.18
335.507	9.54
335.72	11.42
335.933	16.6
336.146	13.9
336.359	9.12
336.572	-2.63
336.785	-1.52
336.997	13.53
337.21	3.48
337.423	9.23
337.636	30.24
337.849	17.3
338.062	-3.85
338.274	1.97
338.487	24.09
338.7	20.46
338.913	36.53
339.125	42.48
339.338	54.39
339.551	45.68
339.763	27.01
339.976	18.52
340.189	16.63
340.402	3.95
340.614	-7.51
340.827	22.84
341.039	30.59
341.252	39.24
341.465	39.25
341.677	38.83
341.89	29.46
342.102	19.22
342.315	13.41
342.527	32.82
342.74	35.86
342.952	38.36
343.165	47.88
343.377	20.24
343.59	4.53
343.802	1.76
344.015	-22.71
344.227	-32.94
344.44	19.69
344.652	31.25
344.864	2.08
345.077	20.93
345.289	30.68
345.502	-11.51
345.714	-35.63
345.926	14.52
346.139	-8.02
346.351	-11.62
346.563	30.98
346.775	43.38
346.988	21.11
347.2	33.79
347.412	39.37
347.624	30.34
347.837	21.34
348.049	32.23
348.261	27.69
348.473	12.68
348.685	-0.46
348.897	17.08
349.11	2.69
349.322	-8.13
349.534	-0.88
349.746	13.57
349.958	11.96
350.17	16.16
350.382	16.21
350.594	15.39
350.806	3.42
351.018	-6.79
351.23	-6.87
351.442	15.99
351.654	1.31
351.866	4.77
352.078	15.41
352.29	38.14
352.502	14.89
352.714	21.03
352.926	28.33
353.138	19.28
353.35	12.46
353.561	36.72
353.773	32.5
353.985	28.93
354.197	29.43
354.409	31.76
354.621	31.58
354.832	50.99
355.044	53.31
355.256	52.73
355.468	38.02
355.679	21.37
355.891	24.2
356.103	23.45
356.314	25.91
356.526	34.48
356.738	34.46
356.949	33.48
357.161	26.75
357.373	23.19
357.584	29.69
357.796	29.33
358.008	17.93
358.219	24.04
358.431	28.24
358.642	30.58
358.854	25.06
359.065	28.82
359.277	36.35
359.488	21.8
359.7	15.55
359.911	28.35
360.123	28.4
360.334	19.83
360.546	34.44
360.757	40.7
360.969	25.01
361.18	14.57
361.391	22.51
361.603	16.43
361.814	6.87
362.025	21.95
362.237	36.79
362.448	36.52
362.659	27.33
362.871	33.51
363.082	17.46
363.293	1.03
363.504	1.28
363.716	21.93
363.927	18.77
364.138	25.06
364.349	32.36
364.56	33.27
364.772	35.98
364.983	23.9
365.194	16.68
365.405	15.87
365.616	5.61
365.827	5.75
366.038	11.74
366.25	17.52
366.461	26.34
366.672	23.54
366.883	5.3
367.094	7.94
367.305	15.86
367.516	4.43
367.727	15.84
367.938	26.43
368.149	25.2
368.36	9.47
368.571	12.48
368.781	17.65
368.992	17.56
369.203	41.91
369.414	49.77
369.625	43.43
369.836	45.39
370.047	43.5
370.258	29.97
370.468	31.11
370.679	44.02
370.89	35.79
371.101	39.9
371.312	44.31
371.522	41.58
371.733	36.65
371.944	35.01
372.155	34.44
372.365	31.52
372.576	42.95
372.787	36.22
372.997	36.36
373.208	34.87
373.419	27.14
373.629	13.12
373.84	22.25
374.05	17.85
374.261	8.05
374.472	20.4
374.682	20.17
374.893	16.22
375.103	13.75
375.314	33.53
375.524	32
375.735	38.66
375.945	33.89
376.156	32.36
376.366	22.16
376.577	19.43
376.787	20.04
376.997	24.82
377.208	27.62
377.418	30.34
377.629	25.7
377.839	26.8
378.049	24.51
378.26	22.38
378.47	25.18
378.68	24.63
378.89	19.75
379.101	19.61
379.311	22.25
379.521	26.15
379.732	23.84
379.942	19.74
380.152	24.58
380.362	30.73
380.572	22.26
380.783	31.8
380.993	37.14
381.203	33.07
381.413	25.4
381.623	34.41
381.833	32.85
382.043	37.33
382.253	37.97
382.463	44.03
382.674	34.94
382.884	27.94
383.094	17.57
383.304	17.49
383.514	8.06
383.724	5.43
383.934	10.28
384.144	12.51
384.353	4.59
384.563	4.33
384.773	5.98
384.983	2.9
385.193	-1.41
385.403	8.37
385.613	13.76
385.823	15.45
386.033	15.4
386.242	18.67
386.452	20.24
386.662	18.93
386.872	15.97
387.082	10.81
387.291	9.05
387.501	2.21
387.711	-1.61
387.921	5.14
388.13	10.92
388.34	10.14
388.55	14.01
388.759	15.5
388.969	12.41
389.179	12.44
389.388	10.91
389.598	10.59
389.807	10
390.017	11.93
390.227	9.97
390.436	12.28
390.646	9.5
390.855	8.68
391.065	6.22
391.274	7.61
391.484	8.11
391.693	9.84
391.903	10.53
392.112	11.3
392.322	11.04
392.531	10.13
392.74	8.71
392.95	8.69
393.159	7.54
393.369	7.39
393.578	7
393.787	9.01
393.997	8.79
394.206	10.37
394.415	9.67
394.625	9.91
394.834	9.25
395.043	9.71
395.252	8.99
395.462	9.02
395.671	8.2
395.88	7.68
396.089	7.48
396.298	7.76
396.508	7.8
396.717	8.24
396.926	8.37
397.135	7.66
397.344	7.41
397.553	7.16
397.762	6.77
397.971	6.8
398.181	7.42
398.39	8.1
398.599	7.77
398.808	8.31
399.017	7.7
399.226	6.76
399.435	5.68
399.644	6.04
399.853	6.05
400.062	6.28
400.27	6.81
400.479	7.18
400.688	7.32
400.897	7.23
401.106	7.25
401.315	7.59
401.524	7.83
401.733	7.47
401.941	7.41
402.15	7.59
402.359	7.38
402.568	6.98
402.777	7
402.985	7.06
403.194	6.75
403.403	6.41
403.612	6.46
403.82	6.66
404.029	6.5
404.238	6.78
404.446	7
404.655	6.87
404.864	6.73
405.072	6.77
405.281	6.59
405.489	6.61
405.698	6.78
405.906	6.92
406.115	6.9
406.324	6.95
406.532	6.82
406.741	6.66
406.949	6.54
407.158	6.55
407.366	6.52
407.574	6.43
407.783	6.58
407.991	6.48
408.2	6.24
408.408	6.2
408.617	6.38
408.825	6.25
409.033	6.33
409.242	6.44
409.45	6.27
409.658	6.17
409.867	6.14
410.075	6.23
410.283	6.27
410.491	6.35
410.7	6.43
410.908	6.32
411.116	6.14
411.324	6.14
411.533	6.15
411.741	6.04
411.949	6.2
412.157	6.17
412.365	6.18
412.573	6.23
412.781	6.27
412.99	6.35
413.198	6.3
413.406	6.23
413.614	6.08
413.822	6
414.03	5.94
414.238	5.97
414.446	6.06
414.654	6.13
414.862	6.1
415.07	5.91
415.278	5.89
415.486	5.82
415.694	5.94
415.902	5.91
416.109	5.98
416.317	6.06
416.525	6
416.733	5.92
416.941	5.91
417.149	6
417.357	5.88
417.564	5.84
417.772	5.7
417.98	5.94
418.188	5.87
418.395	5.86
418.603	5.98
418.811	6.13
419.019	5.96
419.226	5.97
419.434	5.89
419.642	5.81
419.849	5.7
420.057	5.64
420.265	5.59
420.472	5.67
420.68	5.59
420.887	5.45
421.095	5.36
421.302	5.47
421.51	5.32
421.717	5.41
421.925	5.47
422.132	5.64
422.34	5.4
422.547	5.52
422.755	5.44
422.962	5.66
423.17	5.64
423.377	5.8
423.585	5.75
423.792	5.71
423.999	5.48
424.207	5.39
424.414	5.12
424.621	5.02
424.829	5.04
425.036	5.17
425.243	5.22
425.451	5.31
425.658	5.37
425.865	5.5
426.072	5.45
426.28	5.36
426.487	5.4
426.694	5.53
426.901	5.45
427.108	5.43
427.315	5.55
427.523	5.41
427.73	5.29
427.937	5.52
428.144	5.58
428.351	5.55
428.558	5.72
428.765	5.8
428.972	5.78
429.179	5.69
429.386	5.64
429.593	5.68
429.8	5.89
430.007	5.78
430.214	5.95
430.421	6.05
430.628	6.14
430.835	6.08
431.042	5.98
431.249	5.89
431.456	6
431.662	5.94
431.869	6.02
432.076	6
432.283	6.05
432.49	6.01
432.697	6.13
432.903	6.07
433.11	6.18
433.317	6.16
433.524	6.08
433.73	6.16
433.937	6.08
434.144	6.06
434.35	6.15
434.557	6.36
434.764	6.29
434.97	6.36
435.177	6.56
435.384	6.67
435.59	6.57
435.797	6.57
436.003	6.39
436.21	6.28
436.416	6.11
436.623	5.94
436.829	5.95
437.036	6.2
437.242	6.22
437.449	6.28
437.655	6.49
437.862	6.44
438.068	6.39
438.275	6.43
438.481	6.39
438.687	6.41
438.894	6.56
439.1	6.6
439.307	6.59
439.513	6.63
439.719	6.61
439.926	6.54
440.132	6.62
440.338	6.71
440.544	6.72
440.751	6.79
440.957	6.84
441.163	6.87
441.369	6.86
441.575	6.97
441.782	7.05
441.988	7.1
442.194	7.05
442.4	7.04
442.606	7.02
442.812	6.94
443.018	6.95
443.224	6.88
443.431	6.84
443.637	6.95
443.843	6.92
444.049	6.95
444.255	7.11
444.461	7.26
444.667	7.25
444.873	7.23
445.079	7.16
445.284	7.14
445.49	7.22
445.696	7.18
445.902	7.29
446.108	7.44
446.314	7.47
446.52	7.43
446.726	7.55
446.931	7.5
447.137	7.37
447.343	7.36
447.549	7.32
447.755	7.28
447.96	7.4
448.166	7.47
448.372	7.42
448.578	7.46
448.783	7.49
448.989	7.41
449.195	7.43
449.4	7.45
449.606	7.51
449.812	7.52
450.017	7.49
450.223	7.54
450.428	7.74
450.634	7.73
450.84	7.83
451.045	8.02
451.251	8.12
451.456	8.05
451.662	7.9
451.867	7.8
452.073	7.76
452.278	7.65
452.483	7.58
452.689	7.77
452.894	7.8
453.1	7.85
453.305	7.95
453.51	8.12
453.716	8.11
453.921	8.18
454.127	8.15
454.332	8.22
454.537	8.26
454.742	8.37
454.948	8.45
455.153	8.6
455.358	8.57
455.563	8.46
455.769	8.48
455.974	8.52
456.179	8.5
456.384	8.39
456.589	8.56
456.795	8.54
457	8.48
457.205	8.47
457.41	8.66
457.615	8.7
457.82	8.68
458.025	8.8
458.23	8.91
458.435	8.93
458.64	8.89
458.845	8.96
459.05	8.89
459.255	8.88
459.46	8.82
459.665	8.86
459.87	8.96
460.075	9.07
460.28	9.17
460.485	9.23
460.69	9.22
460.895	9.28
461.099	9.28
461.304	9.31
461.509	9.38
461.714	9.52
461.919	9.52
462.123	9.52
462.328	9.51
462.533	9.63
462.738	9.57
462.942	9.62
463.147	9.67
463.352	9.68
463.556	9.61
463.761	9.62
463.966	9.56
464.17	9.64
464.375	9.64
464.58	9.7
464.784	9.76
464.989	9.91
465.193	9.89
465.398	9.97
465.602	9.92
465.807	10.05
466.011	10.01
466.216	9.98
466.42	10.06
466.625	10.28
466.829	10.21
467.034	10.21
467.238	10.24
467.443	10.24
467.647	10.22
467.851	10.33
468.056	10.37
468.26	10.44
468.464	10.38
468.669	10.35
468.873	10.31
469.077	10.31
469.282	10.44
469.486	10.52
469.69	10.49
469.894	10.46
470.099	10.46
470.303	10.29
470.507	10.37
470.711	10.5
470.915	10.55
471.119	10.8
471.324	10.96
471.528	10.96
471.732	10.94
471.936	10.99
472.14	10.74
472.344	10.78
472.548	10.74
472.752	10.73
472.956	10.77
473.16	10.75
473.364	10.74
473.568	10.77
473.772	10.8
473.976	10.82
474.18	11.04
474.384	11.01
474.588	11.13
474.792	11.22
474.995	11.22
475.199	11.17
475.403	11.15
475.607	11.1
475.811	11.06
476.015	11.03
476.218	11.09
476.422	11.22
476.626	11.25
476.83	11.22
477.033	11.29
477.237	11.23
477.441	11.12
477.644	11.05
477.848	11.12
478.052	11.13
478.255	11.17
478.459	11.18
478.663	11.24
478.866	11.2
479.07	11.2
479.273	11.17
479.477	11.18
479.681	11.2
479.884	11.13
480.088	11.14
480.291	11.19
480.495	11.27
480.698	11.26
480.901	11.4
481.105	11.33
481.308	11.35
481.512	11.34
481.715	11.35
481.919	11.27
482.122	11.35
482.325	11.39
482.529	11.38
482.732	11.36
482.935	11.39
483.138	11.27
483.342	11.17
483.545	11.14
483.748	11.1
483.952	11.11
484.155	11.17
484.358	11.19
484.561	11.19
484.764	11.24
484.967	11.16
485.171	11.14
485.374	11.17
485.577	11.13
485.78	11.12
485.983	11.12
486.186	11.15
486.389	11.19
486.592	11.2
486.795	11.2
486.998	11.34
487.201	11.36
487.404	11.31
487.607	11.29
487.81	11.28
488.013	11.15
488.216	11.1
488.419	11
488.622	11.07
488.825	11.1
489.028	11.04
489.231	11.08
489.433	11.15
489.636	11.05
489.839	11.09
490.042	11.21
490.245	11.25
490.447	11.25
490.65	11.26
490.853	11.19
491.056	11.15
491.258	11.1
491.461	11
491.664	10.9
491.866	10.89
492.069	10.82
492.272	10.8
492.474	10.88
492.677	11.01
492.879	10.93
493.082	10.84
493.285	10.79
493.487	10.77
493.69	10.74
493.892	10.84
494.095	10.86
494.297	10.9
494.5	10.92
494.702	10.91
494.905	10.88
495.107	10.92
495.309	10.9
495.512	10.97
495.714	10.98
495.917	10.94
496.119	10.96
496.321	10.88
496.524	10.76
496.726	10.72
496.928	10.77
497.13	10.82
497.333	10.86
497.535	10.89
497.737	10.94
497.939	10.91
498.142	10.88
498.344	10.85
498.546	10.85
498.748	10.8
498.95	10.83
499.152	10.87
499.355	10.9
499.557	10.81
499.759	10.82
499.961	10.81
500.163	10.78
500.365	10.82
500.567	10.79
500.769	10.86
500.971	10.87
501.173	10.85
501.375	10.85
501.577	10.91
501.779	10.87
501.981	10.85
502.183	10.8
502.385	10.78
502.587	10.78
502.788	10.72
502.99	10.68
503.192	10.7
503.394	10.65
503.596	10.76
503.798	10.76
503.999	10.81
504.201	10.81
504.403	10.84
504.605	10.71
504.806	10.78
505.008	10.79
505.21	10.74
505.411	10.76
505.613	10.77
505.815	10.73
506.016	10.59
506.218	10.57
506.42	10.62
506.621	10.63
506.823	10.67
507.024	10.8
507.226	10.94
507.427	10.9
507.629	10.94
507.83	10.92
508.032	10.88
508.233	10.81
508.435	10.87
508.636	10.81
508.838	10.81
509.039	10.82
509.24	10.79
509.442	10.68
509.643	10.72
509.845	10.69
510.046	10.65
510.247	10.64
510.448	10.64
510.65	10.64
510.851	10.61
511.052	10.63
511.254	10.77
511.455	10.79
511.656	10.68
511.857	10.63
512.058	10.62
512.26	10.53
512.461	10.48
512.662	10.54
512.863	10.63
513.064	10.72
513.265	10.67
513.466	10.74
513.667	10.76
513.868	10.66
514.069	10.55
514.27	10.51
514.471	10.47
514.672	10.46
514.873	10.46
515.074	10.46
515.275	10.52
515.476	10.54
515.677	10.46
515.878	10.49
516.079	10.53
516.28	10.48
516.481	10.44
516.682	10.54
516.882	10.59
517.083	10.5
517.284	10.52
517.485	10.45
517.686	10.42
517.886	10.39
518.087	10.43
518.288	10.38
518.488	10.51
518.689	10.51
518.89	10.5
519.091	10.5
519.291	10.52
519.492	10.45
519.692	10.42
519.893	10.35
520.094	10.37
520.294	10.36
520.495	10.36
520.695	10.35
520.896	10.38
521.096	10.31
521.297	10.32
521.497	10.36
521.698	10.39
521.898	10.41
522.099	10.5
522.299	10.49
522.499	10.36
522.7	10.37
522.9	10.39
523.101	10.33
523.301	10.34
523.501	10.38
523.702	10.34
523.902	10.3
524.102	10.24
524.302	10.23
524.503	10.22
524.703	10.24
524.903	10.25
525.103	10.35
525.304	10.28
525.504	10.31
525.704	10.32
525.904	10.29
526.104	10.25
526.304	10.27
526.504	10.22
526.705	10.15
526.905	10.15
527.105	10.13
527.305	10.11
527.505	10.15
527.705	10.24
527.905	10.28
528.105	10.24
528.305	10.29
528.505	10.28
528.705	10.25
528.905	10.23
529.105	10.3
529.304	10.29
529.504	10.31
529.704	10.26
529.904	10.26
530.104	10.25
530.304	10.27
530.503	10.28
530.703	10.27
530.903	10.31
531.103	10.3
531.303	10.26
531.502	10.3
531.702	10.25
531.902	10.23
532.101	10.19
532.301	10.23
532.501	10.18
532.7	10.25
532.9	10.28
533.1	10.34
533.299	10.34
533.499	10.31
533.698	10.33
533.898	10.26
534.097	10.23
534.297	10.18
534.496	10.16
534.696	10.21
534.895	10.21
535.095	10.2
535.294	10.27
535.494	10.27
535.693	10.21
535.892	10.22
536.092	10.24
536.291	10.23
536.491	10.28
536.69	10.33
536.889	10.35
537.088	10.34
537.288	10.29
537.487	10.33
537.686	10.31
537.886	10.32
538.085	10.32
538.284	10.31
538.483	10.29
538.682	10.29
538.882	10.24
539.081	10.19
539.28	10.22
539.479	10.22
539.678	10.2
539.877	10.22
540.076	10.33
540.275	10.38
540.474	10.32
540.673	10.38
540.872	10.39
541.071	10.39
541.27	10.41
541.469	10.43
541.668	10.39
541.867	10.47
542.066	10.48
542.265	10.47
542.464	10.55
542.663	10.57
542.862	10.56
543.06	10.57
543.259	10.59
543.458	10.58
543.657	10.68
543.856	10.72
544.054	10.72
544.253	10.75
544.452	10.82
544.651	10.74
544.849	10.74
545.048	10.74
545.247	10.74
545.445	10.72
545.644	10.74
545.843	10.73
546.041	10.74
546.24	10.74
546.438	10.74
546.637	10.79
546.836	10.89
547.034	10.96
547.233	11.01
547.431	11.11
547.63	11.14
547.828	11.15
548.027	11.16
548.225	11.22
548.423	11.27
548.622	11.31
548.82	11.34
549.019	11.32
549.217	11.2
549.415	11.18
549.614	11.23
549.812	11.22
550.01	11.33
550.209	11.47
550.407	11.46
550.605	11.48
550.803	11.48
551.002	11.54
551.2	11.61
551.398	11.68
551.596	11.69
551.794	11.73
551.993	11.7
552.191	11.73
552.389	11.77
552.587	11.78
552.785	11.87
552.983	11.92
553.181	11.91
553.379	11.93
553.577	12.06
553.775	12.07
553.973	12.1
554.171	12.15
554.369	12.2
554.567	12.2
554.765	12.26
554.963	12.28
555.161	12.35
555.359	12.41
555.557	12.39
555.755	12.5
555.952	12.56
556.15	12.59
556.348	12.64
556.546	12.68
556.744	12.57
556.941	12.59
557.139	12.7
557.337	12.75
557.535	12.9
557.732	13.02
557.93	13.03
558.128	13
558.325	13
558.523	13
558.721	13.05
558.918	13.11
559.116	13.21
559.313	13.29
559.511	13.32
559.708	13.33
559.906	13.41
560.104	13.4
560.301	13.47
560.498	13.53
560.696	13.59
560.893	13.62
561.091	13.66
561.288	13.63
561.486	13.63
561.683	13.65
561.88	13.75
562.078	13.82
562.275	13.97
562.473	13.99
562.67	14.01
562.867	14
563.064	13.99
563.262	14.02
563.459	14.16
563.656	14.14
563.853	14.14
564.051	14.26
564.248	14.22
564.445	14.22
564.642	14.32
564.839	14.39
565.036	14.38
565.234	14.41
565.431	14.47
565.628	14.52
565.825	14.55
566.022	14.63
566.219	14.67
566.416	14.65
566.613	14.72
566.81	14.71
567.007	14.73
567.204	14.88
567.401	14.87
567.598	14.87
567.795	14.93
567.991	14.98
568.188	14.96
568.385	14.85
568.582	14.89
568.779	14.93
568.976	14.89
569.172	14.84
569.369	14.97
569.566	14.97
569.763	14.85
569.96	14.86
570.156	14.86
570.353	14.89
570.55	14.95
570.746	15.05
570.943	15.1
571.14	15.1
571.336	15.19
571.533	15.08
571.729	15.12
571.926	15.08
572.123	15.07
572.319	15.03
572.516	15.09
572.712	15.06
572.909	15.06
573.105	15.17
573.302	15.16
573.498	15.17
573.695	15.23
573.891	15.28
574.087	15.23
574.284	15.26
574.48	15.23
574.677	15.12
574.873	15.09
575.069	15.17
575.266	15.1
575.462	15.15
575.658	15.18
575.854	15.2
576.051	15.06
576.247	15.06
576.443	15.04
576.639	15.15
576.835	15.05
577.032	15.11
577.228	15.12
577.424	15
577.62	14.91
577.816	14.87
578.012	14.83
578.208	14.75
578.404	14.85
578.6	14.81
578.796	14.88
578.993	14.95
579.189	14.99
579.384	14.99
579.58	14.99
579.776	14.96
579.972	14.93
580.168	14.99
580.364	14.97
580.56	14.98
580.756	14.94
580.952	14.85
581.148	14.73
581.343	14.69
581.539	14.66
581.735	14.62
581.931	14.58
582.127	14.62
582.322	14.57
582.518	14.57
582.714	14.69
582.909	14.74
583.105	14.72
583.301	14.73
583.496	14.64
583.692	14.55
583.888	14.54
584.083	14.46
584.279	14.43
584.474	14.43
584.67	14.35
584.866	14.32
585.061	14.4
585.257	14.41
585.452	14.42
585.648	14.49
585.843	14.44
586.039	14.34
586.234	14.33
586.429	14.31
586.625	14.2
586.82	14.21
587.015	14.3
587.211	14.38
587.406	14.45
587.601	14.53
587.797	14.49
587.992	14.36
588.187	14.3
588.383	14.25
588.578	14.18
588.773	14.15
588.968	14.22
589.163	14.2
589.359	14.21
589.554	14.22
589.749	14.3
589.944	14.29
590.139	14.32
590.334	14.35
590.529	14.49
590.724	14.56
590.919	14.57
591.114	14.64
591.309	14.54
591.504	14.49
591.699	14.44
591.894	14.48
592.089	14.39
592.284	14.46
592.479	14.35
592.674	14.43
592.869	14.43
593.064	14.47
593.259	14.48
593.454	14.56
593.648	14.63
593.843	14.66
594.038	14.71
594.233	14.75
594.428	14.78
594.622	14.71
594.817	14.76
595.012	14.79
595.206	14.89
595.401	14.93
595.596	14.95
595.79	14.95
595.985	14.99
596.18	14.96
596.374	15.07
596.569	15.15
596.763	15.23
596.958	15.26
597.153	15.36
597.347	15.33
597.542	15.29
597.736	15.37
597.931	15.37
598.125	15.46
598.319	15.53
598.514	15.63
598.708	15.56
598.903	15.58
599.097	15.59
599.291	15.63
599.486	15.69
599.68	15.77
599.874	15.75
600.069	15.73
600.263	15.72
600.457	15.66
600.651	15.64
600.846	15.73
601.04	15.72
601.234	15.72
601.428	15.77
601.622	15.78
601.817	15.77
602.011	15.81
602.205	15.83
602.399	15.87
602.593	15.92
602.787	15.95
602.981	15.95
603.175	15.96
603.369	15.93
603.563	15.85
603.757	15.83
603.951	15.76
604.145	15.74
604.339	15.73
604.533	15.8
604.727	15.83
604.921	15.81
605.115	15.77
605.309	15.79
605.502	15.82
605.696	15.77
605.89	15.84
606.084	15.89
606.278	15.88
606.471	15.8
606.665	15.82
606.859	15.7
607.053	15.62
607.246	15.58
607.44	15.49
607.634	15.42
607.827	15.43
608.021	15.39
608.214	15.31
608.408	15.35
608.602	15.42
608.795	15.46
608.989	15.42
609.182	15.43
609.376	15.31
609.569	15.16
609.763	15.01
609.956	14.96
610.15	14.89
610.343	14.95
610.537	14.94
610.73	14.93
610.923	14.93
611.117	14.91
611.31	14.78
611.504	14.7
611.697	14.63
611.89	14.56
612.083	14.48
612.277	14.52
612.47	14.52
612.663	14.56
612.856	14.48
613.05	14.49
613.243	14.38
613.436	14.21
613.629	14.14
613.822	14.11
614.015	14.07
614.209	14.08
614.402	14.12
614.595	14.05
614.788	14.04
614.981	13.9
615.174	13.83
615.367	13.8
615.56	13.79
615.753	13.8
615.946	13.82
616.139	13.83
616.332	13.74
616.525	13.68
616.718	13.58
616.911	13.57
617.103	13.5
617.296	13.55
617.489	13.59
617.682	13.63
617.875	13.56
618.067	13.52
618.26	13.46
618.453	13.4
618.646	13.29
618.838	13.26
619.031	13.17
619.224	13.16
619.417	13.12
619.609	13.13
619.802	13.1
619.994	13.11
620.187	13.12
620.38	13.09
620.572	13.01
620.765	12.97
620.957	13.07
621.15	13.06
621.342	13.02
621.535	12.97
621.727	13.04
621.92	12.92
622.112	12.91
622.305	12.89
622.497	12.98
622.69	12.9
622.882	12.87
623.074	12.84
623.267	12.79
623.459	12.73
623.651	12.74
623.844	12.79
624.036	12.81
624.228	12.84
624.42	12.85
624.613	12.82
624.805	12.79
624.997	12.75
625.189	12.84
625.381	12.86
625.574	12.91
625.766	12.9
625.958	12.86
626.15	12.75
626.342	12.76
626.534	12.73
626.726	12.7
626.918	12.73
627.11	12.7
627.302	12.63
627.494	12.55
627.686	12.5
627.878	12.47
628.07	12.47
628.262	12.42
628.454	12.36
628.646	12.34
628.838	12.25
629.029	12.24
629.221	12.29
629.413	12.31
629.605	12.3
629.797	12.3
629.989	12.24
630.18	12.2
630.372	12.16
630.564	12.13
630.755	12.14
630.947	12.17
631.139	12.17
631.33	12.17
631.522	12.15
631.714	12.12
631.905	12.14
632.097	12.05
632.289	12.13
632.48	12.16
632.672	12.12
632.863	12.04
633.055	12.06
633.246	11.97
633.438	11.93
633.629	11.92
633.821	11.85
634.012	11.8
634.203	11.76
634.395	11.82
634.586	11.9
634.777	11.97
634.969	12.05
635.16	12.06
635.351	12.04
635.543	12
635.734	11.98
635.925	11.93
636.117	11.96
636.308	11.92
636.499	11.87
636.69	11.89
636.881	11.94
637.073	11.92
637.264	11.89
637.455	11.98
637.646	11.9
637.837	11.88
638.028	11.82
638.219	11.84
638.41	11.76
638.601	11.79
638.792	11.8
638.983	11.92
639.174	11.9
639.365	11.83
639.556	11.83
639.747	11.78
639.938	11.68
640.129	11.61
640.32	11.63
640.511	11.62
640.701	11.59
640.892	11.67
641.083	11.7
641.274	11.7
641.465	11.66
641.655	11.72
641.846	11.67
642.037	11.68
642.228	11.55
642.418	11.56
642.609	11.47
642.8	11.43
642.99	11.41
643.181	11.5
643.372	11.45
643.562	11.45
643.753	11.4
643.943	11.36
644.134	11.36
644.324	11.38
644.515	11.43
644.705	11.36
644.896	11.36
645.086	11.31
645.277	11.31
645.467	11.33
645.658	11.47
645.848	11.49
646.038	11.49
646.229	11.48
646.419	11.46
646.61	11.39
646.8	11.4
646.99	11.41
647.18	11.37
647.371	11.27
647.561	11.24
647.751	11.21
647.941	11.21
648.132	11.26
648.322	11.31
648.512	11.32
648.702	11.28
648.892	11.27
649.082	11.24
649.272	11.25
649.462	11.27
649.653	11.33
649.843	11.35
650.033	11.3
650.223	11.27
650.413	11.26
650.603	11.19
650.793	11.12
650.983	11.13
651.172	11.1
651.362	10.98
651.552	10.95
651.742	10.97
651.932	10.93
652.122	10.92
652.312	10.95
652.502	10.94
652.691	10.91
652.881	10.93
653.071	10.89
653.261	10.77
653.45	10.69
653.64	10.63
653.83	10.6
654.019	10.54
654.209	10.54
654.399	10.49
654.588	10.42
654.778	10.31
654.968	10.26
655.157	10.22
655.347	10.14
655.536	10.15
655.726	10.04
655.915	9.97
656.105	9.91
656.294	9.94
656.484	9.86
656.673	9.96
656.863	9.97
657.052	10.01
657.241	9.98
657.431	9.97
657.62	9.82
657.809	9.66
657.999	9.61
658.188	9.58
658.377	9.54
658.567	9.53
658.756	9.54
658.945	9.47
659.134	9.36
659.324	9.29
659.513	9.29
659.702	9.22
659.891	9.16
660.08	9.09
660.269	8.97
660.458	8.88
660.648	8.84
660.837	8.76
661.026	8.72
661.215	8.76
661.404	8.73
661.593	8.63
661.782	8.61
661.971	8.63
662.16	8.61
662.349	8.55
662.538	8.64
662.726	8.65
662.915	8.63
663.104	8.54
663.293	8.49
663.482	8.45
663.671	8.34
663.86	8.34
664.048	8.43
664.237	8.38
664.426	8.31
664.615	8.27
664.803	8.18
664.992	8.16
665.181	8.24
665.369	8.27
665.558	8.27
665.747	8.26
665.935	8.14
666.124	8.12
666.312	8.04
666.501	8.1
666.69	8.16
666.878	8.21
667.067	8.15
667.255	8.21
667.444	8.07
667.632	7.97
667.82	7.85
668.009	7.92
668.197	7.96
668.386	8.09
668.574	8.07
668.762	8.22
668.951	8.14
669.139	8.24
669.327	8.3
669.516	8.33
669.704	8.34
669.892	8.44
670.08	8.37
670.269	8.42
670.457	8.44
670.645	8.47
670.833	8.36
671.021	8.23
671.21	8.21
671.398	8.17
671.586	8.13
671.774	8.37
671.962	8.51
672.15	8.56
672.338	8.74
672.526	8.89
672.714	8.78
672.902	8.84
673.09	8.77
673.278	8.68
673.466	8.5
673.654	8.47
673.842	8.57
674.03	8.61
674.218	8.8
674.405	8.94
674.593	9.1
674.781	9.02
674.969	9.08
675.157	8.95
675.344	9
675.532	8.9
675.72	8.96
675.908	8.92
676.095	9.02
676.283	9.12
676.471	9.14
676.658	9.19
676.846	9.34
677.033	9.39
677.221	9.35
677.409	9.47
677.596	9.6
677.784	9.55
677.971	9.65
678.159	9.67
678.346	9.72
678.534	9.7
678.721	9.69
678.909	9.69
679.096	9.69
679.283	9.75
679.471	9.81
679.658	9.99
679.846	9.95
680.033	10.02
680.22	9.99
680.408	9.9
680.595	9.83
680.782	10.01
680.969	10.04
681.157	10.01
681.344	10.04
681.531	10.11
681.718	10.14
681.905	10.21
682.093	10.36
682.28	10.35
682.467	10.39
682.654	10.28
682.841	10.27
683.028	10.32
683.215	10.42
683.402	10.61
683.589	10.79
683.776	10.96
683.963	10.95
684.15	10.96
684.337	10.95
684.524	11.02
684.711	10.97
684.898	11.16
685.085	11.32
685.271	11.43
685.458	11.52
685.645	11.74
685.832	11.75
686.019	12.01
686.205	12.17
686.392	12.27
686.579	12.3
686.766	12.37
686.952	12.33
687.139	12.42
687.326	12.46
687.512	12.54
687.699	12.76
687.886	12.71
688.072	12.84
688.259	13.02
688.445	13.38
688.632	13.62
688.818	14.06
689.005	14.14
689.191	14.2
689.378	14.38
689.564	14.51
689.751	14.53
689.937	14.87
690.124	15.19
690.31	15.23
690.496	15.45
690.683	15.78
690.869	15.94
691.055	16.08
691.242	16.43
691.428	16.63
691.614	17.01
691.8	17.35
691.987	17.64
692.173	17.91
692.359	18.49
692.545	18.81
692.731	19.11
692.918	19.52
693.104	19.95
693.29	19.97
693.476	20.33
693.662	20.59
693.848	21.08
694.034	21.37
694.22	21.82
694.406	22.15
694.592	22.61
694.778	23.11
694.964	23.3
695.15	23.72
695.336	24.19
695.522	24.57
695.708	25.03
695.894	25.61
696.08	26.19
696.265	26.53
696.451	27.11
696.637	27.37
696.823	27.97
697.009	28.47
697.194	28.93
697.38	29.27
697.566	29.9
697.751	30.33
697.937	30.63
698.123	30.95
698.308	31.37
698.494	31.7
698.68	32.09
698.865	32.61
699.051	33.21
699.236	33.62
699.422	34.07
699.607	34.44
699.793	34.7
699.978	35.13
700.164	35.73
700.349	35.92
700.535	36.51
700.72	36.85
700.906	37.4
701.091	37.58
701.276	38.1
701.462	38.12
701.647	38.91
701.832	39.38
702.018	39.95
702.203	40.47
702.388	41.27
702.573	41.73
702.759	41.77
702.944	42.09
703.129	42.24
703.314	42.36
703.499	42.46
703.684	42.88
703.87	43.43
704.055	43.89
704.24	44.39
704.425	44.89
704.61	45.25
704.795	45.6
704.98	46.13
705.165	46.42
705.35	46.89
705.535	47.33
705.72	47.34
705.905	47.5
706.09	47.85
706.275	48.06
706.459	48.33
706.644	48.88
706.829	48.9
707.014	49.36
707.199	49.66
707.384	49.75
707.568	49.68
707.753	50.05
707.938	49.7
708.123	49.72
708.307	50.19
708.492	50.56
708.677	50.59
708.861	51.06
709.046	51.38
709.231	51.32
709.415	51.87
709.6	52.38
709.784	52.64
709.969	52.68
710.153	53.45
710.338	53.49
710.522	53.61
710.707	53.88
710.891	54.23
711.076	54.02
711.26	54.13
711.445	54.23
711.629	54.5
711.813	54.27
711.998	54.39
712.182	54.56
712.366	54.64
712.551	54.73
712.735	55.25
712.919	55.37
713.103	55.57
713.288	56.16
713.472	56.4
713.656	56.41
713.84	56.43
714.024	56.17
714.208	55.99
714.393	55.85
714.577	55.84
714.761	55.77
714.945	56.22
715.129	56.34
715.313	56.45
715.497	56.86
715.681	57.13
715.865	57.18
716.049	57.43
716.233	57.55
716.417	57.71
716.601	57.99
716.785	58.16
716.968	58.19
717.152	58.58
717.336	58.46
717.52	58.56
717.704	58.51
717.888	58.76
718.071	58.87
718.255	58.87
718.439	58.99
718.622	59.34
718.806	59.15
718.99	59.43
719.174	59.75
719.357	59.62
719.541	59.48
719.724	59.56
719.908	59.4
720.092	59.5
720.275	59.9
720.459	59.71
720.642	60.23
720.826	60.57
721.009	60.73
721.193	61.5
721.376	62.14
721.559	62.36
721.743	61.95
721.926	61.82
722.11	61.5
722.293	61.7
722.476	62.05
722.66	62.58
722.843	62.71
723.026	63.04
723.21	63.6
723.393	62.94
723.576	62.76
723.759	63.11
723.942	62.72
724.126	62.23
724.309	63.05
724.492	63.6
724.675	64.03
724.858	64.6
725.041	64.64
725.224	64.66
725.407	64.28
725.59	64.53
725.774	64.55
725.957	64.96
726.14	65.3
726.322	65.76
726.505	65.71
726.688	66.28
726.871	65.93
727.054	65.94
727.237	66.34
727.42	66.64
727.603	66.54
727.786	67.35
727.968	68.1
728.151	68.05
728.334	68.02
728.517	68.08
728.699	67.93
728.882	67.69
729.065	67.83
729.248	67.98
729.43	67.81
729.613	68.03
729.796	67.78
729.978	67.86
730.161	68.09
730.343	69.04
730.526	69.6
730.708	70.24
730.891	70.88
731.073	71.19
731.256	71.17
731.438	71.54
731.621	71.53
731.803	71.74
731.986	71.34
732.168	71.9
732.35	72.41
732.533	72.69
732.715	73.29
732.898	73.57
733.08	73.01
733.262	72.1
733.444	71.75
733.627	71.92
733.809	72.19
733.991	72.11
734.173	72.59
734.355	72.95
734.538	72.9
734.72	73.31
734.902	73.33
735.084	73.66
735.266	73.72
735.448	73.98
735.63	74.54
735.812	75.57
735.994	75.17
736.176	76.08
736.358	75.18
736.54	74.65
736.722	74.39
736.904	75.31
737.086	74.22
737.268	75.3
737.45	75.95
737.632	76.59
737.814	76.68
737.995	77.27
738.177	77.61
738.359	78.53
738.541	78.69
738.723	78.62
738.904	79.1
739.086	78.74
739.268	77.96
739.449	77.5
739.631	77.34
739.813	77.67
739.994	77.31
740.176	77.34
740.358	77.84
740.539	77.71
740.721	77.59
740.902	77.94
741.084	77.57
741.265	78.53
741.447	78.79
741.628	78.53
741.81	79.24
741.991	79.75
742.172	78.46
742.354	79.18
742.535	80.51
742.717	80.28
742.898	81.09
743.079	82.47
743.261	82.43
743.442	81.97
743.623	81.87
743.804	81.78
743.986	81.6
744.167	81.71
744.348	82.14
744.529	81.91
744.71	81.56
744.891	81.54
745.073	82.34
745.254	82.14
745.435	82.91
745.616	83.31
745.797	83.18
745.978	82.73
746.159	83.07
746.34	81.87
746.521	81.53
746.702	81.77
746.883	82.21
747.064	81.74
747.245	83.53
747.426	83.34
747.606	82.83
747.787	82.03
747.968	81.87
748.149	81.39
748.33	82.21
748.51	81.42
748.691	81.83
748.872	82.58
749.053	83.46
749.233	84.7
749.414	85.26
749.595	84.64
749.775	84.83
749.956	84.31
750.137	83.16
750.317	82.15
750.498	82.56
750.678	81.37
750.859	80.97
751.04	79.97
751.22	82.96
751.4	82.93
751.581	84.11
751.761	83.75
751.942	84.9
752.122	83.09
752.303	83.25
752.483	82.71
752.663	83.93
752.844	83.08
753.024	84.32
753.204	83.65
753.385	83.44
753.565	82.14
753.745	82.45
753.925	80.9
754.106	82.4
754.286	83.01
754.466	83.71
754.646	84.2
754.826	84.64
755.006	84.32
755.187	84.83
755.367	84.72
755.547	84.56
755.727	85.04
755.907	84.95
756.087	83.48
756.267	82.91
756.447	83.41
756.627	82.9
756.807	82.55
756.987	83.15
757.167	84.69
757.346	83.37
757.526	83.5
757.706	82.85
757.886	83.8
758.066	82.38
758.246	83.28
758.425	84.14
758.605	84.61
758.785	83.75
758.965	85.58
759.144	86.57
759.324	85.78
759.504	85.26
759.683	86.67
759.863	84.69
760.043	83.4
760.222	83.83
760.402	84.78
760.581	83.46
760.761	84.55
760.94	85.08
761.12	84.39
761.299	83.98
761.479	83.8
761.658	83.32
761.838	83.42
762.017	84.9
762.197	84.89
762.376	85.27
762.555	84.37
762.735	83.34
762.914	81.7
763.093	80.99
763.273	79.43
763.452	80.2
763.631	81.71
763.81	82.66
763.99	83.64
764.169	85.57
764.348	84.02
764.527	83.91
764.706	83.23
764.885	83.93
765.064	82.76
765.243	85.6
765.423	84.39
765.602	83.96
765.781	83.86
765.96	84.06
766.139	82.31
766.318	82.42
766.497	81.96
766.676	80.8
766.854	81.1
767.033	81.47
767.212	81.36
767.391	82.78
767.57	82.34
767.749	82.27
767.928	81.81
768.106	81.94
768.285	82.27
768.464	83.63
768.643	84.34
768.821	83.94
769	82.47
769.179	82.1
769.357	84
769.536	83.6
769.715	82.63
769.893	84.21
770.072	84.05
770.25	81.59
770.429	81.76
770.607	83.23
770.786	83.25
770.964	82.73
771.143	82.87
771.321	81.41
771.5	80.74
771.678	80.11
771.857	81.24
772.035	80.01
772.213	80.35
772.392	79.79
772.57	79.23
772.748	78.9
772.927	80.88
773.105	81.65
773.283	84.11
773.461	86.46
773.64	85.34
773.818	84.48
773.996	82.95
774.174	81.2
774.352	79.12
774.531	79.12
774.709	79.35
774.887	81.11
775.065	81.15
775.243	82.94
775.421	82.25
775.599	81.34
775.777	80.35
775.955	80.11
776.133	80.49
776.311	80.87
776.489	81.15
776.667	82.06
776.844	83.83
777.022	84.17
777.2	84.21
777.378	84.1
777.556	83.72
777.734	83.77
777.911	83.31
778.089	83.6
778.267	82.91
778.445	83.17
778.622	80.22
778.8	77.08
778.978	75.82
779.155	75.31
779.333	73.47
779.511	75.27
779.688	75.14
779.866	76.44
780.043	79.71
780.221	79.34
780.398	79.65
780.576	79.43
780.753	80.76
780.931	77.81
781.108	81.09
781.286	80.98
781.463	82.98
781.64	80.38
781.818	81.8
781.995	80.84
782.172	80.57
782.35	81.08
782.527	81.53
782.704	81.24
782.882	78.97
783.059	78.53
783.236	78.34
783.413	79.25
783.59	79.06
783.768	82.34
783.945	81.91
784.122	82.46
784.299	82.04
784.476	83.95
784.653	83.41
784.83	84.14
785.007	83.73
785.184	83.86
785.361	83.19
785.538	81.61
785.715	83.36
785.892	81.47
786.069	79.28
786.246	77.45
786.423	77.4
786.6	77.75
786.776	81.68
786.953	86.6
787.13	87.51
787.307	86.91
787.484	85.38
787.66	84.53
787.837	81.77
788.014	82.46
788.191	83.41
788.367	82.02
788.544	80.67
788.721	79.34
788.897	77.62
789.074	77.45
789.25	76.81
789.427	78.16
789.603	80.23
789.78	80.41
789.956	80.19
790.133	79.61
790.309	78.93
790.486	75.16
790.662	77.24
790.839	79.53
791.015	79.24
791.192	75.2
791.368	76.08
791.544	76.5
791.721	74.97
791.897	75.63
792.073	76.52
792.249	81
792.426	78.27
792.602	73.52
792.778	77.15
792.954	79.21
793.13	82.66
793.307	84.49
793.483	90.11
793.659	86.34
793.835	86.49
794.011	78.76
794.187	79.64
794.363	81.09
794.539	84.11
794.715	87.17
794.891	90.02
795.067	88.76
795.243	88.64
795.419	86.3
795.595	79.92
795.771	79.88
795.947	75.26
796.122	73.97
796.298	75.36
796.474	77.36
796.65	76.42
796.826	82.19
797.001	81.89
797.177	79.07
797.353	80.08
797.529	81.15
797.704	80.61
797.88	85.55
798.056	89.53
798.231	89.55
798.407	86.04
798.582	85.03
798.758	79.84
798.934	74.56
799.109	72.99
799.285	77.46
799.46	73.54
799.636	72.97
799.811	75.02
799.986	75.02
800.162	75.18
800.337	73.72
800.513	80.15
800.688	84.81
800.863	89.51
801.039	87.05
801.214	91.84
801.389	86.97
801.565	85
801.74	83.23
801.915	80.06
802.09	76.65
802.265	76.2
802.441	76.56
802.616	71.7
802.791	76.33
802.966	75.9
803.141	82.55
803.316	90.36
803.491	94.47
803.666	88.07
803.841	95.4
804.016	88.15
804.191	77.6
804.366	76.89
804.541	83.42
804.716	82.97
804.891	82.04
805.066	82.19
805.241	84.44
805.416	78.2
805.591	77.75
805.765	79.41
805.94	79.3
806.115	79.32
806.29	82.83
806.464	83.02
806.639	79.35
806.814	80.98
806.989	74.64
807.163	72.93
807.338	70.62
807.512	71.2
807.687	71.87
807.862	75.78
808.036	69.37
808.211	72.01
808.385	73.32
808.56	66.16
808.734	65.27
808.909	75.21
809.083	77.51
809.258	72.03
809.432	80.09
809.606	84.89
809.781	85.12
809.955	79.2
810.13	78.74
810.304	77.1
810.478	75.35
810.652	74.84
810.827	74.92
811.001	77.75
811.175	76.06
811.349	78.22
811.524	77.91
811.698	75.07
811.872	74.47
812.046	77.37
812.22	73.37
812.394	74.94
812.568	87.85
812.742	88.19
812.916	94.65
813.09	86.65
813.264	85.15
813.438	91.9
813.612	98.96
813.786	94.93
813.96	96.48
814.134	105.43
814.308	84.25
814.482	86.88
814.656	79.56
814.83	84.61
815.003	80.22
815.177	99.6
815.351	90.53
815.525	91.93
815.698	92.73
815.872	86.48
816.046	74.96
816.219	77.61
816.393	75.38
816.567	82.25
816.74	85.21
816.914	80.49
817.088	81.73
817.261	86.91
817.435	83.88
817.608	84.63
817.782	91.56
817.955	79.45
818.129	79.43
818.302	74.95
818.475	77.98
818.649	73.36
818.822	88.5
818.996	83.19
819.169	77.76
819.342	68.98
819.516	72.31
819.689	67.24
819.862	78.08
820.035	83.45
820.209	82.36
820.382	74.17
820.555	71.22
820.728	58.25
820.901	65.48
821.075	72.44
821.248	75.65
821.421	93.18
821.594	108.03
821.767	105.24
821.94	93.57
822.113	94.52
822.286	87.03
822.459	76.41
822.632	71.93
822.805	77.15
822.978	77.43
823.151	69.96
823.324	78.42
823.496	85
823.669	80.25
823.842	77.54
824.015	87.05
824.188	80.74
824.361	75.4
824.533	85.76
824.706	85.4
824.879	75.92
825.051	57.32
825.224	63.14
825.397	60.29
825.569	59.03
825.742	60
825.915	79.15
826.087	68.55
826.26	69.27
826.432	75.91
826.605	71.95
826.777	65.76
826.95	64.89
827.122	51.43
827.295	58.63
827.467	62.99
827.64	62.44
827.812	72.59
827.984	76.87
828.157	73.73
828.329	71.94
828.501	79.6
828.674	72.59
828.846	80.4
829.018	72.69
829.19	69.65
829.363	68.02
829.535	80.67
829.707	78.74
829.879	79.14
830.051	84.73
830.223	77
830.395	64.41
830.568	67.87
830.74	60.26
830.912	55.84
831.084	62.03
831.256	73.16
831.428	65.86
831.6	71.13
831.772	77.54
831.943	87.22
832.115	75.33
832.287	72.16
832.459	68.63
832.631	75.68
832.803	56.37
832.975	76.7
833.146	89.29
833.318	137.79
833.49	101.33
833.662	100.03
833.833	96.51
834.005	86.97
834.177	77.07
834.348	88.55
834.52	96.67
834.692	83.6
834.863	94.59
835.035	69.6
835.206	71.71
835.378	60.96
835.549	82.2
835.721	79.26
835.892	96.97
836.064	92.99
836.235	93.65
836.407	84.03
836.578	65.54
836.749	61.23
836.921	74.13
837.092	81.75
837.264	95.79
837.435	108.42
837.606	96.25
837.777	74.72
837.949	59.52
838.12	48.39
838.291	50.43
838.462	67.57
838.633	61.69
838.805	71.24
838.976	75.13
839.147	81.65
839.318	96.58
839.489	118.71
839.66	100.23
839.831	75.8
840.002	75.69
840.173	74.55
840.344	66.17
840.515	71.71
840.686	67.01
840.857	80.67
841.028	80.13
841.199	89.97
841.369	93.9
841.54	106.12
841.711	108.31
841.882	108.04
842.053	110.86
842.223	115.53
842.394	112
842.565	102.92
842.736	100.46
842.906	74.83
843.077	75.26
843.248	73.51
843.418	72.03
843.589	59.02
843.759	53.1
843.93	82.72
844.101	76.45
844.271	81.04
844.442	76.1
844.612	92.28
844.783	67.39
844.953	92.61
845.123	72.74
845.294	80.15
845.464	69.57
845.635	43.48
845.805	16.15
845.975	51.65
846.146	56.86
846.316	63.55
846.486	79.69
846.656	89.6
846.827	92.98
846.997	102.67
847.167	98.32
847.337	91.66
847.507	92.41
847.677	87.93
847.848	82.17
848.018	84.94
848.188	95.1
848.358	99.39
848.528	80.32
848.698	92.25
848.868	101.44
849.038	94.04
849.208	88.7
849.378	75.27
849.548	80.86
849.718	69.26
849.887	62.6
850.057	91.78
850.227	113.4
850.397	82.87
850.567	87.65
850.737	78.62
850.906	47.51
851.076	55.15
851.246	45.05
851.415	40.3
851.585	57.61
851.755	113.03
851.924	89.37
852.094	82.9
852.264	101.18
852.433	105.04
852.603	71.4
852.772	72.38
852.942	78.5
853.111	69.45
853.281	69.69
853.45	62.71
853.62	68.4
853.789	82.38
853.959	69.42
854.128	72.04
854.297	95.35
854.467	80.22
854.636	59.65
854.805	58.04
854.975	30.96
855.144	67.94
855.313	81.93
855.482	82.01
855.652	77.83
855.821	87.12
855.99	63.93
856.159	60.68
856.328	57.25
856.497	59.6
856.667	49.12
856.836	54.33
857.005	63.78
857.174	53.21
857.343	58.18
857.512	62.23
857.681	60.72
857.85	54.07
858.019	73.8
858.188	114.75
858.356	157.45
858.525	224.58
858.694	445.92
858.863	315.27
859.032	235.64
859.201	240.97
859.369	156.15
859.538	78.64
859.707	62.13
859.876	33.75
860.044	25.22
860.213	29.59
860.382	60.32
860.55	55.05
860.719	63.54
860.888	71.61
861.056	59.7
861.225	67.59
861.393	62.32
861.562	45.7
861.73	55.87
861.899	95.66
862.067	88.05
862.236	92.11
862.404	105.8
862.572	102.71
862.741	98.65
862.909	94.5
863.078	115.27
863.246	129.23
863.414	112.13
863.582	80.07
863.751	76.02
863.919	70.48
864.087	44.56
864.255	45.77
864.424	50.31
864.592	27.4
864.76	38.55
864.928	73.6
865.096	84.14
865.264	82.03
865.432	83.02
865.6	64.09
865.768	61
865.936	58.76
866.104	74.79
866.272	86.24
866.44	108.11
866.608	98.48
866.776	101.1
866.944	92.8
867.112	78.76
867.28	91.2
867.448	102.38
867.615	97.68
867.783	91.87
867.951	96.18
868.119	43.22
868.286	26.6
868.454	27.67
868.622	58.04
868.789	106.75
868.957	123.16
869.125	138.38
869.292	119.96
869.46	99.02
869.627	94.19
869.795	100.67
869.963	82.48
870.13	74.2
870.298	77.61
870.465	67.08
870.632	89.88
870.8	126.93
870.967	141.71
871.135	113.01
871.302	118.81
871.469	80.48
871.637	62.97
871.804	42.65
871.971	64.12
872.139	77.42
872.306	68.87
872.473	63.48
872.64	85.04
872.807	96.02
872.975	67.21
873.142	111.66
873.309	114.69
873.476	88.84
873.643	-1.37
873.81	36.26
873.977	-35.36
874.144	2.69
874.311	60.2
874.478	126.99
874.645	142.98
874.812	191.83
874.979	148.11
875.146	160.33
875.313	128.65
875.48	98.23
875.647	116.88
875.813	141.9
875.98	125.83
876.147	118
876.314	126.96
876.481	149.06
876.647	259.01
876.814	242.09
876.981	-654.97
877.147	-459.89
877.314	150.69
877.481	119.84
877.647	80.26
877.814	72.88
877.98	101.45
878.147	122.04
878.314	136.91
878.48	151.28
878.647	148.21
878.813	188.61
878.979	137.81
879.146	72.15
879.312	72.61
879.479	56.87
879.645	47.12
879.811	51.04
879.978	98.89
880.144	102.29
880.31	159.55
880.477	134.57
880.643	113.12
880.809	163.26
880.975	273.41
881.142	125.61
881.308	199.58
881.474	120.57
881.64	67.78
881.806	73.34
881.972	69.24
882.138	18.75
882.304	-137.78
882.47	-6.54
882.636	-410.97
882.802	-314.39
882.968	-53.08
883.134	57.72
883.3	78.65
883.466	89.09
883.632	78.3
883.798	96.59
883.964	95.57
884.129	61.06
884.295	65.25
884.461	83.28
884.627	80.97
884.793	75.27
884.958	60.9
885.124	80.02
885.29	82.19
885.455	80.52
885.621	133.33
885.787	309.37
885.952	444.88
886.118	318.52
886.283	235.37
886.449	247.74
886.614	127.06
886.78	125.53
886.945	242.3
887.111	455.11
887.276	-2570.37
887.442	-855.24
887.607	399.49
887.773	180.71
887.938	138.45
888.103	97.97
888.269	94.26
888.434	82.1
888.599	66.04
888.764	38.37
888.93	30.51
889.095	72.24
889.26	110.77
889.425	-676.19
889.59	146.67
889.756	101.65
889.921	56.41
890.086	169.95
890.251	70.91
890.416	121.97
890.581	121.72
890.746	99.1
890.911	79.6
891.076	126.39
891.241	98.45
891.406	105.24
891.571	73.93
891.736	108.92
891.901	82.94
892.065	75.62
892.23	-66.67
892.395	103.61
892.56	61.56
892.725	26.96
892.889	40.65
893.054	92.93
893.219	109.32
893.384	157.55
893.548	223.76
893.713	270.98
893.878	378.29
