Data from Ofav_PP_Phys_2EV3_Reflection_3.txt Node
Date: Tue Aug 03 18:15:36 EDT 2021
User: Adam
Spectrometer: FLMT01687
Trigger mode: 0
Integration Time (sec): 8.750000E-1
Scans to average: 2
Electric dark correction enabled: true
Nonlinearity correction enabled: false
Boxcar width: 2
XAxis mode: Wavelengths
Number of Pixels in Spectrum: 3648
>>>>>Begin Spectral Data<<<<<
179.494	286.34
179.716	321.77
179.937	484.26
180.158	659.19
180.38	2174.56
180.601	115.3
180.823	142.49
181.044	-7.73
181.265	94.11
181.486	-261.44
181.708	-5.83
181.929	-68.55
182.15	-119.32
182.372	44.09
182.593	1.48
182.814	144.14
183.035	129.43
183.257	299.02
183.478	304.08
183.699	317.07
183.92	132.92
184.141	82.24
184.363	107.3
184.584	-19.78
184.805	53.61
185.026	45.87
185.247	43.23
185.468	34.05
185.689	27.21
185.91	28.26
186.132	18.3
186.353	45.53
186.574	10.87
186.795	50.99
187.016	39.13
187.237	48.03
187.458	55.88
187.679	54.81
187.9	38.52
188.121	39.17
188.342	19.92
188.563	14.3
188.784	15.68
189.005	14.17
189.226	32.51
189.447	46.88
189.667	42.2
189.888	54.99
190.109	86.01
190.33	68.89
190.551	96.38
190.772	126.01
190.993	113.82
191.214	111.77
191.434	107.24
191.655	63.79
191.876	46.05
192.097	60.41
192.318	55.57
192.538	49.97
192.759	65.4
192.98	78.91
193.201	78.85
193.421	67.32
193.642	81.45
193.863	73.57
194.083	64.66
194.304	79.83
194.525	86.85
194.745	98.26
194.966	111.57
195.187	128.51
195.407	95.81
195.628	84.83
195.848	83.97
196.069	98.62
196.29	59.28
196.51	69.94
196.731	86.4
196.951	57.03
197.172	89.59
197.392	154.51
197.613	171.21
197.833	142.96
198.054	170.92
198.274	85.82
198.495	72.79
198.715	72.89
198.936	90.16
199.156	85.22
199.377	60.33
199.597	66.16
199.817	63.73
200.038	45.76
200.258	46.72
200.479	34.66
200.699	16.75
200.919	-31.4
201.14	31.26
201.36	20.11
201.58	48.93
201.801	20.91
202.021	36.18
202.241	22.7
202.461	38.69
202.682	65.57
202.902	123.83
203.122	125.31
203.342	145.14
203.563	124.2
203.783	67.51
204.003	48.5
204.223	44.16
204.443	12.55
204.663	23.86
204.884	17.8
205.104	2.64
205.324	-2.16
205.544	-1.08
205.764	5.98
205.984	0.32
206.204	0.3
206.424	-17.28
206.644	45.04
206.864	34.04
207.084	66.64
207.304	64.15
207.525	88.62
207.745	113.48
207.964	104.92
208.184	67.43
208.404	100.02
208.624	79.23
208.844	63.1
209.064	77.97
209.284	96.38
209.504	62.96
209.724	48.2
209.944	44.92
210.164	20.8
210.384	39.06
210.604	16.04
210.823	83.85
211.043	55.67
211.263	72.97
211.483	58.5
211.703	93.65
211.922	74.6
212.142	69.85
212.362	62.7
212.582	46.25
212.801	38.98
213.021	51.47
213.241	44.21
213.461	64.71
213.68	75.11
213.9	60.64
214.12	55.43
214.339	69.54
214.559	83.76
214.779	90.81
214.998	102.67
215.218	110.91
215.438	101
215.657	95.49
215.877	91.39
216.096	74.54
216.316	59.2
216.535	69.21
216.755	54.66
216.974	65.92
217.194	109.67
217.413	147.41
217.633	122.1
217.852	127.49
218.072	118.51
218.291	83.22
218.511	46.23
218.73	72.28
218.95	61.86
219.169	69.34
219.389	81.36
219.608	89.63
219.827	49.09
220.047	40.05
220.266	35.01
220.485	57.9
220.705	56.74
220.924	71.12
221.143	55.21
221.363	85.29
221.582	79.73
221.801	59.1
222.021	54.22
222.24	76.9
222.459	32.17
222.678	38.57
222.897	86.83
223.117	92.77
223.336	-49.52
223.555	0.48
223.774	-35.21
223.993	-71.66
224.213	-56.85
224.432	36.92
224.651	30.12
224.87	30.29
225.089	14.16
225.308	10.92
225.527	-15.52
225.746	-35.63
225.965	-36.75
226.184	-81.61
226.404	-30.8
226.623	-7.65
226.842	22.54
227.061	-0.96
227.28	25.18
227.499	45.64
227.718	31.04
227.936	24.05
228.155	55.62
228.374	56.53
228.593	42.5
228.812	27.43
229.031	2.98
229.25	11.34
229.469	-28.35
229.688	-77.68
229.907	-103.06
230.125	-84.99
230.344	-33.3
230.563	-30.26
230.782	-5.94
231.001	40.04
231.22	49.48
231.438	41.18
231.657	41.34
231.876	36.77
232.095	22.39
232.313	12.21
232.532	-12.46
232.751	23.72
232.969	35.58
233.188	31.98
233.407	29.92
233.625	47.32
233.844	26
234.063	20.89
234.281	7.1
234.5	5.49
234.719	-5.44
234.937	2.34
235.156	-14.5
235.374	0.13
235.593	14.78
235.811	17.66
236.03	35.32
236.249	73.09
236.467	67.84
236.686	59.84
236.904	53.52
237.123	53.74
237.341	55.08
237.559	62.17
237.778	61.32
237.996	45.94
238.215	36.08
238.433	18.85
238.652	18.53
238.87	24.68
239.088	42.19
239.307	41.15
239.525	50.59
239.743	54.9
239.962	71.79
240.18	88.47
240.398	121.83
240.617	113.2
240.835	81.17
241.053	51.8
241.271	-18.82
241.49	-45.15
241.708	5.02
241.926	-3.61
242.144	-4.49
242.363	24.34
242.581	22.3
242.799	6.6
243.017	17.04
243.235	42.3
243.453	48.96
243.672	63.14
243.89	72.75
244.108	82.25
244.326	67.73
244.544	66.11
244.762	69.09
244.98	41.23
245.198	21.86
245.416	45.99
245.634	44.9
245.852	39.91
246.07	61.89
246.288	68.33
246.506	60.96
246.724	51.09
246.942	47.19
247.16	33.98
247.378	10.76
247.596	17.59
247.814	18.54
248.032	30.35
248.25	43.19
248.468	54.25
248.685	35.7
248.903	14.72
249.121	-1.35
249.339	-5.49
249.557	16.42
249.775	13.22
249.992	55.07
250.21	47.8
250.428	44.33
250.646	24.12
250.863	26.69
251.081	4.82
251.299	7.61
251.517	38.07
251.734	61.26
251.952	68.58
252.17	51.45
252.387	35.59
252.605	-31.34
252.823	-68.79
253.04	-30.07
253.258	26.7
253.475	65.26
253.693	67.18
253.911	83.61
254.128	90.32
254.346	54.72
254.563	45.36
254.781	56.2
254.998	54.94
255.216	29.32
255.433	39.61
255.651	30.17
255.868	-6.82
256.086	-40.35
256.303	-16.55
256.521	9.36
256.738	8.88
256.956	55.27
257.173	79.78
257.39	95.8
257.608	91.36
257.825	58.52
258.043	44.41
258.26	51.42
258.477	43.68
258.695	33.28
258.912	56.9
259.129	41.29
259.346	54.59
259.564	38.79
259.781	42.35
259.998	48.85
260.216	49.78
260.433	31.42
260.65	43.29
260.867	40.38
261.084	34.77
261.302	31.41
261.519	37.79
261.736	58.06
261.953	60.01
262.17	59.73
262.387	72.93
262.604	73.47
262.822	65.55
263.039	69.03
263.256	72.57
263.473	69.76
263.69	76.49
263.907	75.51
264.124	45.57
264.341	33.84
264.558	49.11
264.775	47.5
264.992	48.46
265.209	73.15
265.426	51.01
265.643	29.71
265.86	25.14
266.077	20.02
266.294	23.23
266.51	39.59
266.727	47.35
266.944	53.44
267.161	36.77
267.378	38.99
267.595	37.28
267.812	40.85
268.028	30.96
268.245	51.87
268.462	60.18
268.679	58.8
268.896	47.36
269.112	52.21
269.329	37.78
269.546	-18.3
269.763	15.57
269.979	21.67
270.196	17.6
270.413	17.54
270.629	33.94
270.846	41.72
271.063	38.24
271.279	55.38
271.496	72.9
271.712	63.34
271.929	41.43
272.146	52.75
272.362	47.98
272.579	24.65
272.795	13.91
273.012	24.52
273.228	28.7
273.445	21.79
273.661	32.04
273.878	57.95
274.094	51.27
274.311	55.31
274.527	40.8
274.744	48.13
274.96	32.32
275.177	21.42
275.393	9.34
275.609	9.46
275.826	3.38
276.042	11.47
276.259	24.28
276.475	8.36
276.691	0.12
276.908	13.84
277.124	14.45
277.34	8.18
277.557	12.91
277.773	37.58
277.989	48.65
278.205	55.44
278.422	76.34
278.638	69.24
278.854	87.72
279.07	65.74
279.286	59.7
279.503	42.1
279.719	56.62
279.935	44.91
280.151	47.92
280.367	31.08
280.583	16.21
280.799	12.16
281.016	36.74
281.232	20.47
281.448	34.51
281.664	51.59
281.88	36.97
282.096	25.75
282.312	52.27
282.528	52.67
282.744	40.67
282.96	42.92
283.176	51.05
283.392	36.76
283.608	34.32
283.824	43.25
284.04	39.47
284.256	22.81
284.471	24.06
284.687	24.52
284.903	17.53
285.119	-6.47
285.335	-0.26
285.551	7.96
285.767	15.98
285.982	8.62
286.198	42.11
286.414	33.29
286.63	7.96
286.846	-4.76
287.061	5.24
287.277	-13.35
287.493	15.08
287.709	8.74
287.924	52
288.14	31.39
288.356	20.51
288.571	4.79
288.787	27.68
289.003	6.79
289.218	24.01
289.434	44.68
289.65	50.93
289.865	40
290.081	22.03
290.296	11.57
290.512	19.27
290.727	24.82
290.943	47.43
291.159	62.42
291.374	54.16
291.59	61.47
291.805	69.11
292.021	69.92
292.236	68.64
292.451	67.14
292.667	63.03
292.882	49.76
293.098	30.85
293.313	33.76
293.529	43.37
293.744	35.01
293.959	36.7
294.175	52.14
294.39	50.43
294.605	58.1
294.821	50.83
295.036	53.94
295.251	45.73
295.467	31.27
295.682	32.39
295.897	41.72
296.112	52.62
296.328	49.45
296.543	55.67
296.758	40.19
296.973	29.13
297.188	18.55
297.404	34.99
297.619	34.95
297.834	47.29
298.049	43.52
298.264	54.71
298.479	30.08
298.694	15.79
298.909	3.77
299.125	27.68
299.34	7.34
299.555	28.38
299.77	19.64
299.985	51.9
300.2	46.56
300.415	67.29
300.63	48.04
300.845	87.78
301.06	69.55
301.275	65.24
301.49	64.98
301.704	76.59
301.919	57.17
302.134	67.02
302.349	59.96
302.564	70.34
302.779	59.15
302.994	43.63
303.209	34.65
303.423	37.96
303.638	19.62
303.853	23.82
304.068	46.91
304.283	65.57
304.497	73.79
304.712	78.25
304.927	86.47
305.142	80.36
305.356	68.21
305.571	59
305.786	53.79
306	46.15
306.215	41.9
306.43	45.78
306.644	35.55
306.859	27.77
307.074	31.09
307.288	50.15
307.503	36.73
307.717	47.93
307.932	43.81
308.147	54.57
308.361	38.65
308.576	60.43
308.79	57.11
309.005	62.81
309.219	46.2
309.434	33.47
309.648	34.46
309.863	22.43
310.077	20.87
310.292	38.44
310.506	30.03
310.72	38.78
310.935	26.74
311.149	25.6
311.364	5.88
311.578	32.49
311.792	32.36
312.007	45.57
312.221	62.54
312.435	44.42
312.649	38.73
312.864	17.03
313.078	20.34
313.292	14.5
313.507	23.58
313.721	11.9
313.935	21.97
314.149	17.96
314.363	22.12
314.578	6.45
314.792	12.35
315.006	18.58
315.22	23.16
315.434	15.2
315.648	30.99
315.862	34.78
316.077	27.55
316.291	41.91
316.505	40.63
316.719	44.69
316.933	53.84
317.147	43.37
317.361	40.55
317.575	43.25
317.789	36.8
318.003	30.12
318.217	44.76
318.431	34.06
318.645	19.28
318.859	31.92
319.073	26.42
319.287	35.39
319.5	55.75
319.714	73.8
319.928	84.42
320.142	92.41
320.356	78.72
320.57	61.85
320.784	47.85
320.997	25.8
321.211	33.59
321.425	42.54
321.639	42.62
321.853	31.54
322.066	39.28
322.28	44.73
322.494	50.09
322.707	26.17
322.921	43.55
323.135	40.27
323.349	35.33
323.562	45.19
323.776	67.19
323.989	67.17
324.203	74.59
324.417	68.12
324.63	81.97
324.844	77.93
325.057	71.34
325.271	60.42
325.485	68.35
325.698	19.18
325.912	0.69
326.125	19.84
326.339	16.56
326.552	-14.82
326.766	26.86
326.979	39.93
327.193	36
327.406	38.76
327.619	69.97
327.833	40.63
328.046	31.09
328.26	19.01
328.473	16.64
328.686	21.49
328.9	34.36
329.113	36.62
329.326	53.96
329.54	70.98
329.753	79.74
329.966	81.91
330.179	85.92
330.393	87.5
330.606	73.3
330.819	65.58
331.032	55.42
331.246	68.87
331.459	56.04
331.672	35.43
331.885	43.96
332.098	64.88
332.311	42.42
332.525	46.32
332.738	46.79
332.951	41.79
333.164	32.56
333.377	37.74
333.59	29.53
333.803	30.58
334.016	20.72
334.229	17.86
334.442	-11.45
334.655	-11.66
334.868	-19.98
335.081	-16.67
335.294	-19.48
335.507	13.7
335.72	27.78
335.933	42.33
336.146	48.68
336.359	62.34
336.572	59.82
336.785	60.27
336.997	74.42
337.21	63.52
337.423	58.28
337.636	65.12
337.849	48.31
338.062	28.87
338.274	33.52
338.487	44.71
338.7	37.84
338.913	52.74
339.125	49.74
339.338	43.29
339.551	32.81
339.763	29.72
339.976	15.33
340.189	15.7
340.402	18.17
340.614	28.55
340.827	40
341.039	38.75
341.252	52.1
341.465	64.18
341.677	61.29
341.89	64.26
342.102	71.57
342.315	65.74
342.527	55.26
342.74	53.07
342.952	36.31
343.165	43.66
343.377	11.16
343.59	26.45
343.802	9.66
344.015	-8.22
344.227	-40.06
344.44	32.52
344.652	33.28
344.864	26.73
345.077	41.51
345.289	36.59
345.502	-35.78
345.714	-43.88
345.926	0.58
346.139	15
346.351	21.22
346.563	33.28
346.775	36.09
346.988	24.89
347.2	21.48
347.412	28.97
347.624	30.06
347.837	32.25
348.049	16.08
348.261	1.26
348.473	2.79
348.685	24.7
348.897	29.68
349.11	48.87
349.322	43.16
349.534	45.17
349.746	28.55
349.958	18.33
350.17	14.08
350.382	12
350.594	16.34
350.806	16.46
351.018	21.18
351.23	23.76
351.442	42.31
351.654	21.16
351.866	34.96
352.078	30.04
352.29	30.01
352.502	29.82
352.714	41.48
352.926	35.42
353.138	25.66
353.35	27.25
353.561	36.94
353.773	42.27
353.985	49.14
354.197	55.18
354.409	69.03
354.621	64.01
354.832	64.8
355.044	59.54
355.256	64.78
355.468	46.56
355.679	44.91
355.891	41.13
356.103	45.85
356.314	42.13
356.526	45.35
356.738	57.14
356.949	54.54
357.161	44.88
357.373	43.52
357.584	37.26
357.796	32.93
358.008	37.05
358.219	33.88
358.431	37.66
358.642	44.17
358.854	21.04
359.065	26.84
359.277	55.47
359.488	48.8
359.7	48.12
359.911	54.39
360.123	51.65
360.334	34.73
360.546	47.68
360.757	52.79
360.969	42.33
361.18	38.17
361.391	35.75
361.603	31.38
361.814	33.47
362.025	49.11
362.237	63.95
362.448	64.82
362.659	44.12
362.871	40.84
363.082	24.18
363.293	2.49
363.504	7.44
363.716	34.59
363.927	32.36
364.138	43.46
364.349	54.37
364.56	55.75
364.772	57.4
364.983	47.43
365.194	36.06
365.405	24.38
365.616	24.67
365.827	21.58
366.038	41
366.25	47.3
366.461	60.99
366.672	55.23
366.883	48.76
367.094	36.06
367.305	41.59
367.516	34.58
367.727	40.35
367.938	48.9
368.149	54.6
368.36	49.3
368.571	44.24
368.781	44.43
368.992	50.74
369.203	49.04
369.414	58.26
369.625	55.01
369.836	44.28
370.047	32.32
370.258	16.07
370.468	15.22
370.679	36.42
370.89	47.73
371.101	60.21
371.312	63.91
371.522	48.04
371.733	51.34
371.944	47.57
372.155	43.63
372.365	47.75
372.576	63.29
372.787	56.52
372.997	48.62
373.208	44.73
373.419	30.53
373.629	27.99
373.84	23.27
374.05	26.93
374.261	26.54
374.472	39.01
374.682	29.46
374.893	28.38
375.103	18.76
375.314	25.94
375.524	31.99
375.735	34.57
375.945	41.01
376.156	52.63
376.366	38.5
376.577	36.96
376.787	40.23
376.997	26.15
377.208	23.08
377.418	29.1
377.629	28.11
377.839	24.48
378.049	27.31
378.26	29.44
378.47	21.96
378.68	19.34
378.89	26.01
379.101	25.64
379.311	26.69
379.521	41.18
379.732	48.11
379.942	49.78
380.152	63.04
380.362	56.59
380.572	53.77
380.783	46.38
380.993	44.65
381.203	36.82
381.413	27.98
381.623	25.14
381.833	22.18
382.043	20.76
382.253	22.7
382.463	27
382.674	31.88
382.884	29.51
383.094	21.45
383.304	17.96
383.514	16.61
383.724	1.81
383.934	7.88
384.144	14.85
384.353	10.72
384.563	7.44
384.773	14.07
384.983	8.05
385.193	7.22
385.403	11.54
385.613	17.23
385.823	17.36
386.033	18.98
386.242	18.53
386.452	18.28
386.662	17.53
386.872	15.14
387.082	10.76
387.291	11.99
387.501	10.65
387.711	6.61
387.921	8.77
388.13	13.45
388.34	7.51
388.55	10.84
388.759	13.2
388.969	13.71
389.179	13.47
389.388	13.91
389.598	13.54
389.807	11.66
390.017	11.47
390.227	10.13
390.436	12.49
390.646	7.94
390.855	7.1
391.065	5.95
391.274	6.04
391.484	7.02
391.693	9.34
391.903	9.48
392.112	9.95
392.322	8.26
392.531	6.78
392.74	6.16
392.95	7.52
393.159	6.43
393.369	7.41
393.578	6.99
393.787	8.25
393.997	7.38
394.206	7.82
394.415	7.97
394.625	8.26
394.834	8.14
395.043	8.48
395.252	7.58
395.462	7.13
395.671	6.16
395.88	5.76
396.089	5.32
396.298	6.37
396.508	6.51
396.717	7.46
396.926	6.67
397.135	5.98
397.344	5.71
397.553	5.17
397.762	4.47
397.971	4.72
398.181	4.98
398.39	4.98
398.599	4.99
398.808	5.39
399.017	5.17
399.226	4.7
399.435	4.33
399.644	4.52
399.853	4.43
400.062	4.58
400.27	4.8
400.479	4.93
400.688	5.03
400.897	4.81
401.106	4.84
401.315	5.32
401.524	5.57
401.733	5.13
401.941	5.21
402.15	5.07
402.359	4.98
402.568	4.5
402.777	4.59
402.985	4.63
403.194	4.82
403.403	4.51
403.612	4.69
403.82	4.69
404.029	4.56
404.238	4.57
404.446	4.55
404.655	4.48
404.864	4.52
405.072	4.68
405.281	4.41
405.489	4.61
405.698	4.7
405.906	4.8
406.115	4.71
406.324	4.82
406.532	4.66
406.741	4.6
406.949	4.49
407.158	4.51
407.366	4.56
407.574	4.53
407.783	4.54
407.991	4.6
408.2	4.37
408.408	4.26
408.617	4.4
408.825	4.42
409.033	4.39
409.242	4.5
409.45	4.37
409.658	4.34
409.867	4.21
410.075	4.22
410.283	4.14
410.491	4.19
410.7	4.2
410.908	4.19
411.116	3.98
411.324	4.09
411.533	4.07
411.741	3.87
411.949	3.79
412.157	3.95
412.365	3.84
412.573	3.92
412.781	4.01
412.99	4.24
413.198	4.17
413.406	4.17
413.614	4.06
413.822	4.1
414.03	3.97
414.238	4.06
414.446	4.12
414.654	4.33
414.862	4.28
415.07	4.21
415.278	4.17
415.486	4.19
415.694	4.14
415.902	4.15
416.109	4.19
416.317	4.11
416.525	3.99
416.733	3.93
416.941	3.87
417.149	3.91
417.357	3.98
417.564	3.96
417.772	3.84
417.98	3.94
418.188	3.98
418.395	3.85
418.603	3.84
418.811	4.03
419.019	3.93
419.226	3.9
419.434	3.77
419.642	3.92
419.849	3.67
420.057	3.69
420.265	3.47
420.472	3.79
420.68	3.61
420.887	3.79
421.095	3.58
421.302	3.71
421.51	3.45
421.717	3.53
421.925	3.32
422.132	3.62
422.34	3.67
422.547	3.82
422.755	3.77
422.962	4.05
423.17	4.01
423.377	4.1
423.585	4.04
423.792	4.06
423.999	3.84
424.207	3.79
424.414	3.52
424.621	3.42
424.829	3.47
425.036	3.59
425.243	3.47
425.451	3.65
425.658	3.72
425.865	3.75
426.072	3.65
426.28	3.69
426.487	3.68
426.694	3.54
426.901	3.39
427.108	3.57
427.315	3.77
427.523	3.57
427.73	3.82
427.937	3.94
428.144	3.9
428.351	3.77
428.558	3.73
428.765	3.7
428.972	3.77
429.179	3.61
429.386	3.41
429.593	3.62
429.8	3.84
430.007	3.74
430.214	3.86
430.421	4.11
430.628	4.12
430.835	4.02
431.042	3.89
431.249	3.93
431.456	4.12
431.662	4.17
431.869	4.08
432.076	4.07
432.283	4
432.49	3.92
432.697	4
432.903	4.25
433.11	4.37
433.317	4.27
433.524	4.07
433.73	4.12
433.937	3.85
434.144	3.94
434.35	3.99
434.557	4.23
434.764	4.24
434.97	4.37
435.177	4.37
435.384	4.53
435.59	4.48
435.797	4.39
436.003	4.11
436.21	4.05
436.416	4
436.623	3.91
436.829	3.84
437.036	4.04
437.242	4.08
437.449	4.07
437.655	4.13
437.862	4.18
438.068	4.18
438.275	4.22
438.481	4.14
438.687	4.18
438.894	4.27
439.1	4.33
439.307	4.04
439.513	4.09
439.719	4.11
439.926	4.13
440.132	4.24
440.338	4.63
440.544	4.58
440.751	4.58
440.957	4.44
441.163	4.43
441.369	4.35
441.575	4.51
441.782	4.64
441.988	4.82
442.194	4.8
442.4	4.82
442.606	4.69
442.812	4.56
443.018	4.36
443.224	4.32
443.431	4.25
443.637	4.46
443.843	4.47
444.049	4.66
444.255	4.82
444.461	4.92
444.667	4.89
444.873	4.79
445.079	4.74
445.284	4.64
445.49	4.68
445.696	4.69
445.902	4.75
446.108	4.83
446.314	4.88
446.52	4.9
446.726	4.95
446.931	5.05
447.137	4.96
447.343	4.89
447.549	4.97
447.755	4.92
447.96	4.95
448.166	5.05
448.372	4.97
448.578	4.95
448.783	5.01
448.989	4.99
449.195	4.9
449.4	4.92
449.606	4.9
449.812	4.93
450.017	4.9
450.223	5.02
450.428	5.23
450.634	5.12
450.84	5.08
451.045	5.18
451.251	5.15
451.456	5.07
451.662	4.94
451.867	4.83
452.073	4.83
452.278	4.8
452.483	4.71
452.689	4.96
452.894	5.03
453.1	5.01
453.305	5.16
453.51	5.25
453.716	5.32
453.921	5.45
454.127	5.45
454.332	5.44
454.537	5.42
454.742	5.37
454.948	5.26
455.153	5.32
455.358	5.19
455.563	5.17
455.769	5.16
455.974	5.23
456.179	5.23
456.384	5.18
456.589	5.3
456.795	5.29
457	5.37
457.205	5.24
457.41	5.38
457.615	5.35
457.82	5.35
458.025	5.34
458.23	5.42
458.435	5.34
458.64	5.34
458.845	5.29
459.05	5.21
459.255	5.22
459.46	5.27
459.665	5.28
459.87	5.39
460.075	5.47
460.28	5.53
460.485	5.51
460.69	5.52
460.895	5.51
461.099	5.53
461.304	5.47
461.509	5.56
461.714	5.58
461.919	5.57
462.123	5.53
462.328	5.55
462.533	5.58
462.738	5.64
462.942	5.64
463.147	5.71
463.352	5.6
463.556	5.64
463.761	5.51
463.966	5.47
464.17	5.51
464.375	5.67
464.58	5.68
464.784	5.76
464.989	5.9
465.193	5.91
465.398	5.86
465.602	5.7
465.807	5.79
466.011	5.67
466.216	5.52
466.42	5.6
466.625	5.72
466.829	5.71
467.034	5.76
467.238	5.8
467.443	5.73
467.647	5.81
467.851	5.79
468.056	5.81
468.26	5.9
468.464	5.96
468.669	5.91
468.873	5.79
469.077	5.81
469.282	5.85
469.486	5.81
469.69	5.75
469.894	5.87
470.099	5.9
470.303	5.84
470.507	5.89
470.711	6
470.915	6.07
471.119	6.14
471.324	6.25
471.528	6.25
471.732	6.26
471.936	6.25
472.14	6.06
472.344	5.99
472.548	6.05
472.752	6.02
472.956	5.88
473.16	5.99
473.364	6.04
473.568	6.07
473.772	6.02
473.976	6.18
474.18	6.24
474.384	6.25
474.588	6.28
474.792	6.43
474.995	6.38
475.199	6.33
475.403	6.22
475.607	6.26
475.811	6.26
476.015	6.23
476.218	6.2
476.422	6.33
476.626	6.25
476.83	6.25
477.033	6.37
477.237	6.41
477.441	6.36
477.644	6.39
477.848	6.39
478.052	6.35
478.255	6.37
478.459	6.34
478.663	6.29
478.866	6.32
479.07	6.35
479.273	6.35
479.477	6.29
479.681	6.34
479.884	6.34
480.088	6.3
480.291	6.36
480.495	6.43
480.698	6.44
480.901	6.36
481.105	6.33
481.308	6.36
481.512	6.4
481.715	6.37
481.919	6.38
482.122	6.41
482.325	6.36
482.529	6.43
482.732	6.46
482.935	6.51
483.138	6.54
483.342	6.45
483.545	6.35
483.748	6.3
483.952	6.32
484.155	6.3
484.358	6.38
484.561	6.48
484.764	6.49
484.967	6.42
485.171	6.38
485.374	6.48
485.577	6.39
485.78	6.36
485.983	6.3
486.186	6.43
486.389	6.41
486.592	6.52
486.795	6.6
486.998	6.75
487.201	6.68
487.404	6.61
487.607	6.53
487.81	6.45
488.013	6.39
488.216	6.34
488.419	6.32
488.622	6.37
488.825	6.38
489.028	6.45
489.231	6.53
489.433	6.6
489.636	6.59
489.839	6.58
490.042	6.66
490.245	6.65
490.447	6.67
490.65	6.68
490.853	6.69
491.056	6.6
491.258	6.57
491.461	6.53
491.664	6.38
491.866	6.4
492.069	6.37
492.272	6.36
492.474	6.35
492.677	6.49
492.879	6.49
493.082	6.41
493.285	6.35
493.487	6.42
493.69	6.44
493.892	6.51
494.095	6.59
494.297	6.73
494.5	6.7
494.702	6.67
494.905	6.72
495.107	6.73
495.309	6.65
495.512	6.66
495.714	6.65
495.917	6.55
496.119	6.54
496.321	6.6
496.524	6.59
496.726	6.66
496.928	6.7
497.13	6.8
497.333	6.79
497.535	6.79
497.737	6.79
497.939	6.86
498.142	6.84
498.344	6.91
498.546	7
498.748	7.01
498.95	7.03
499.152	7.09
499.355	7.08
499.557	6.96
499.759	6.91
499.961	6.85
500.163	6.85
500.365	6.79
500.567	6.76
500.769	6.89
500.971	6.95
501.173	6.9
501.375	6.99
501.577	7.18
501.779	7.17
501.981	7.19
502.183	7.23
502.385	7.23
502.587	7.2
502.788	7.13
502.99	7.07
503.192	7.12
503.394	7.16
503.596	7.15
503.798	7.2
503.999	7.28
504.201	7.27
504.403	7.25
504.605	7.27
504.806	7.37
505.008	7.38
505.21	7.26
505.411	7.24
505.613	7.18
505.815	7.15
506.016	7.13
506.218	7.22
506.42	7.22
506.621	7.23
506.823	7.21
507.024	7.2
507.226	7.25
507.427	7.23
507.629	7.28
507.83	7.28
508.032	7.23
508.233	7.19
508.435	7.25
508.636	7.24
508.838	7.2
509.039	7.24
509.24	7.19
509.442	7.09
509.643	7.12
509.845	7.11
510.046	7.08
510.247	7.09
510.448	7.15
510.65	7.12
510.851	7.09
511.052	7.11
511.254	7.18
511.455	7.15
511.656	7
511.857	6.96
512.058	6.98
512.26	6.88
512.461	6.96
512.662	7.07
512.863	7.17
513.064	7.19
513.265	7.24
513.466	7.17
513.667	7.19
513.868	7.1
514.069	7.03
514.27	6.91
514.471	6.91
514.672	6.9
514.873	6.9
515.074	6.92
515.275	7.01
515.476	7.06
515.677	7.04
515.878	7.05
516.079	7.08
516.28	7.06
516.481	7
516.682	6.98
516.882	7.02
517.083	7
517.284	7
517.485	7.01
517.686	6.98
517.886	6.99
518.087	6.94
518.288	6.91
518.488	6.89
518.689	6.89
518.89	6.91
519.091	6.99
519.291	6.99
519.492	7.02
519.692	7.05
519.893	6.93
520.094	6.89
520.294	6.93
520.495	6.92
520.695	6.98
520.896	7.04
521.096	7.01
521.297	7.01
521.497	7.04
521.698	7.02
521.898	7
522.099	7.08
522.299	7.04
522.499	7.03
522.7	6.98
522.9	7
523.101	6.93
523.301	6.94
523.501	6.91
523.702	6.98
523.902	6.9
524.102	6.89
524.302	6.92
524.503	6.91
524.703	6.89
524.903	6.98
525.103	7.06
525.304	7
525.504	6.96
525.704	6.95
525.904	6.93
526.104	6.92
526.304	6.99
526.504	7.04
526.705	7.02
526.905	7.01
527.105	6.97
527.305	6.97
527.505	6.97
527.705	7.03
527.905	7.04
528.105	7.05
528.305	7.05
528.505	7.07
528.705	7.06
528.905	7.1
529.105	7.17
529.304	7.16
529.504	7.18
529.704	7.22
529.904	7.21
530.104	7.23
530.304	7.26
530.503	7.32
530.703	7.32
530.903	7.35
531.103	7.3
531.303	7.31
531.502	7.26
531.702	7.18
531.902	7.11
532.101	7.12
532.301	7.14
532.501	7.11
532.7	7.16
532.9	7.21
533.1	7.23
533.299	7.22
533.499	7.24
533.698	7.28
533.898	7.26
534.097	7.26
534.297	7.18
534.496	7.15
534.696	7.13
534.895	7.14
535.095	7.16
535.294	7.25
535.494	7.29
535.693	7.31
535.892	7.28
536.092	7.32
536.291	7.35
536.491	7.43
536.69	7.41
536.889	7.49
537.088	7.46
537.288	7.42
537.487	7.38
537.686	7.41
537.886	7.38
538.085	7.38
538.284	7.35
538.483	7.35
538.682	7.39
538.882	7.4
539.081	7.39
539.28	7.44
539.479	7.54
539.678	7.56
539.877	7.59
540.076	7.69
540.275	7.76
540.474	7.63
540.673	7.6
540.872	7.66
541.071	7.64
541.27	7.7
541.469	7.73
541.668	7.71
541.867	7.78
542.066	7.77
542.265	7.79
542.464	7.93
542.663	8.04
542.862	7.96
543.06	8
543.259	8.01
543.458	7.95
543.657	7.96
543.856	8.08
544.054	8.12
544.253	8.14
544.452	8.21
544.651	8.12
544.849	8.1
545.048	8.14
545.247	8.15
545.445	8.13
545.644	8.23
545.843	8.22
546.041	8.18
546.24	8.13
546.438	8.14
546.637	8.25
546.836	8.27
547.034	8.28
547.233	8.35
547.431	8.44
547.63	8.42
547.828	8.49
548.027	8.58
548.225	8.65
548.423	8.68
548.622	8.73
548.82	8.76
549.019	8.81
549.217	8.75
549.415	8.78
549.614	8.83
549.812	8.89
550.01	8.95
550.209	9.07
550.407	9.13
550.605	9.08
550.803	9.09
551.002	9.16
551.2	9.2
551.398	9.2
551.596	9.26
551.794	9.28
551.993	9.31
552.191	9.45
552.389	9.46
552.587	9.54
552.785	9.58
552.983	9.65
553.181	9.59
553.379	9.69
553.577	9.74
553.775	9.76
553.973	9.74
554.171	9.74
554.369	9.79
554.567	9.85
554.765	9.96
554.963	9.98
555.161	10.09
555.359	10.18
555.557	10.19
555.755	10.28
555.952	10.41
556.15	10.5
556.348	10.49
556.546	10.57
556.744	10.53
556.941	10.54
557.139	10.61
557.337	10.69
557.535	10.76
557.732	10.89
557.93	10.95
558.128	11.01
558.325	10.99
558.523	11.04
558.721	11.03
558.918	11.15
559.116	11.17
559.313	11.23
559.511	11.31
559.708	11.43
559.906	11.47
560.104	11.52
560.301	11.63
560.498	11.67
560.696	11.77
560.893	11.82
561.091	11.91
561.288	12.05
561.486	12.14
561.683	12.12
561.88	12.16
562.078	12.14
562.275	12.15
562.473	12.21
562.67	12.3
562.867	12.38
563.064	12.45
563.262	12.49
563.459	12.49
563.656	12.42
563.853	12.48
564.051	12.61
564.248	12.6
564.445	12.67
564.642	12.75
564.839	12.79
565.036	12.82
565.234	12.86
565.431	12.94
565.628	13.09
565.825	13.06
566.022	13.05
566.219	13.13
566.416	13.14
566.613	13.23
566.81	13.31
567.007	13.38
567.204	13.47
567.401	13.58
567.598	13.54
567.795	13.61
567.991	13.61
568.188	13.65
568.385	13.43
568.582	13.46
568.779	13.45
568.976	13.53
569.172	13.52
569.369	13.76
569.566	13.8
569.763	13.7
569.96	13.72
570.156	13.7
570.353	13.65
570.55	13.66
570.746	13.82
570.943	13.84
571.14	13.91
571.336	13.93
571.533	13.89
571.729	13.94
571.926	13.98
572.123	13.92
572.319	13.99
572.516	14.08
572.712	14.02
572.909	14
573.105	13.97
573.302	13.91
573.498	13.88
573.695	13.88
573.891	13.81
574.087	13.93
574.284	13.98
574.48	13.99
574.677	14.02
574.873	14.04
575.069	14.03
575.266	13.99
575.462	13.92
575.658	13.86
575.854	13.85
576.051	13.79
576.247	13.81
576.443	13.81
576.639	13.87
576.835	13.86
577.032	13.81
577.228	13.81
577.424	13.74
577.62	13.74
577.816	13.72
578.012	13.76
578.208	13.65
578.404	13.67
578.6	13.65
578.796	13.64
578.993	13.66
579.189	13.78
579.384	13.82
579.58	13.72
579.776	13.72
579.972	13.69
580.168	13.65
580.364	13.66
580.56	13.75
580.756	13.76
580.952	13.75
581.148	13.67
581.343	13.56
581.539	13.45
581.735	13.37
581.931	13.26
582.127	13.22
582.322	13.21
582.518	13.21
582.714	13.25
582.909	13.25
583.105	13.26
583.301	13.23
583.496	13.2
583.692	13.2
583.888	13.3
584.083	13.28
584.279	13.36
584.474	13.33
584.67	13.28
584.866	13.14
585.061	13.18
585.257	13.14
585.452	13.22
585.648	13.22
585.843	13.24
586.039	13.18
586.234	13.22
586.429	13.15
586.625	13.06
586.82	13.08
587.015	13.08
587.211	13.06
587.406	13.11
587.601	13.17
587.797	13.16
587.992	13.17
588.187	13.09
588.383	13.07
588.578	13.11
588.773	13.05
588.968	13.05
589.163	13.11
589.359	13.18
589.554	13.19
589.749	13.25
589.944	13.26
590.139	13.21
590.334	13.21
590.529	13.19
590.724	13.18
590.919	13.17
591.114	13.24
591.309	13.13
591.504	13.15
591.699	13.16
591.894	13.22
592.089	13.22
592.284	13.33
592.479	13.4
592.674	13.62
592.869	13.71
593.064	13.76
593.259	13.8
593.454	13.79
593.648	13.75
593.843	13.75
594.038	13.77
594.233	13.79
594.428	13.72
594.622	13.74
594.817	13.71
595.012	13.78
595.206	13.89
595.401	14.04
595.596	14.02
595.79	14.08
595.985	14.07
596.18	14.1
596.374	14.17
596.569	14.22
596.763	14.29
596.958	14.36
597.153	14.31
597.347	14.33
597.542	14.35
597.736	14.43
597.931	14.44
598.125	14.54
598.319	14.63
598.514	14.74
598.708	14.84
598.903	14.91
599.097	14.96
599.291	15
599.486	15
599.68	15.02
599.874	15.03
600.069	15.03
600.263	15.08
600.457	15.15
600.651	15.09
600.846	15.19
601.04	15.23
601.234	15.21
601.428	15.23
601.622	15.31
601.817	15.27
602.011	15.33
602.205	15.36
602.399	15.39
602.593	15.32
602.787	15.31
602.981	15.36
603.175	15.35
603.369	15.26
603.563	15.29
603.757	15.28
603.951	15.15
604.145	15.11
604.339	15.12
604.533	15.14
604.727	15.15
604.921	15.16
605.115	15.12
605.309	15.16
605.502	15.2
605.696	15.21
605.89	15.23
606.084	15.23
606.278	15.25
606.471	15.09
606.665	15.01
606.859	14.99
607.053	14.96
607.246	14.82
607.44	14.82
607.634	14.77
607.827	14.66
608.021	14.65
608.214	14.68
608.408	14.65
608.602	14.59
608.795	14.63
608.989	14.57
609.182	14.46
609.376	14.34
609.569	14.3
609.763	14.17
609.956	14.07
610.15	14.05
610.343	14.09
610.537	14.04
610.73	14.05
610.923	13.99
611.117	14
611.31	13.92
611.504	13.87
611.697	13.83
611.89	13.79
612.083	13.67
612.277	13.56
612.47	13.56
612.663	13.49
612.856	13.44
613.05	13.36
613.243	13.42
613.436	13.29
613.629	13.23
613.822	13.18
614.015	13.17
614.209	13.1
614.402	13.08
614.595	13.11
614.788	13.04
614.981	13.04
615.174	12.97
615.367	12.93
615.56	12.78
615.753	12.79
615.946	12.73
616.139	12.69
616.332	12.66
616.525	12.71
616.718	12.57
616.911	12.52
617.103	12.47
617.296	12.39
617.489	12.32
617.682	12.4
617.875	12.25
618.067	12.21
618.26	12.23
618.453	12.15
618.646	12.04
618.838	12.09
619.031	11.99
619.224	11.96
619.417	12.02
619.609	11.97
619.802	12.04
619.994	12
620.187	11.97
620.38	11.9
620.572	11.93
620.765	11.83
620.957	11.89
621.15	11.88
621.342	11.84
621.535	11.73
621.727	11.68
621.92	11.66
622.112	11.63
622.305	11.51
622.497	11.58
622.69	11.57
622.882	11.47
623.074	11.51
623.267	11.57
623.459	11.51
623.651	11.55
623.844	11.62
624.036	11.51
624.228	11.53
624.42	11.52
624.613	11.45
624.805	11.4
624.997	11.38
625.189	11.32
625.381	11.37
625.574	11.39
625.766	11.4
625.958	11.45
626.15	11.41
626.342	11.35
626.534	11.29
626.726	11.27
626.918	11.22
627.11	11.21
627.302	11.16
627.494	11.23
627.686	11.23
627.878	11.15
628.07	11.16
628.262	11.06
628.454	10.91
628.646	10.85
628.838	10.85
629.029	10.84
629.221	10.85
629.413	10.89
629.605	10.8
629.797	10.77
629.989	10.78
630.18	10.82
630.372	10.82
630.564	10.88
630.755	10.83
630.947	10.84
631.139	10.88
631.33	10.8
631.522	10.73
631.714	10.74
631.905	10.67
632.097	10.61
632.289	10.7
632.48	10.72
632.672	10.7
632.863	10.7
633.055	10.61
633.246	10.53
633.438	10.47
633.629	10.49
633.821	10.44
634.012	10.5
634.203	10.5
634.395	10.57
634.586	10.56
634.777	10.58
634.969	10.54
635.16	10.55
635.351	10.61
635.543	10.63
635.734	10.59
635.925	10.67
636.117	10.71
636.308	10.61
636.499	10.62
636.69	10.68
636.881	10.67
637.073	10.65
637.264	10.65
637.455	10.64
637.646	10.65
637.837	10.62
638.028	10.58
638.219	10.54
638.41	10.51
638.601	10.48
638.792	10.44
638.983	10.51
639.174	10.5
639.365	10.48
639.556	10.46
639.747	10.51
639.938	10.41
640.129	10.45
640.32	10.47
640.511	10.44
640.701	10.35
640.892	10.36
641.083	10.28
641.274	10.25
641.465	10.23
641.655	10.29
641.846	10.34
642.037	10.42
642.228	10.33
642.418	10.3
642.609	10.26
642.8	10.22
642.99	10.22
643.181	10.26
643.372	10.29
643.562	10.31
643.753	10.23
643.943	10.24
644.134	10.3
644.324	10.21
644.515	10.2
644.705	10.16
644.896	10.12
645.086	10.07
645.277	10.06
645.467	10.03
645.658	10.11
645.848	10.04
646.038	10.09
646.229	10.13
646.419	10.1
646.61	10.07
646.8	10.19
646.99	10.13
647.18	10.18
647.371	10.12
647.561	10.15
647.751	10.16
647.941	10.19
648.132	10.23
648.322	10.32
648.512	10.31
648.702	10.25
648.892	10.22
649.082	10.16
649.272	10.21
649.462	10.14
649.653	10.07
649.843	10.05
650.033	10.01
650.223	9.89
650.413	9.93
650.603	9.93
650.793	9.91
650.983	9.94
651.172	9.99
651.362	9.9
651.552	9.89
651.742	9.95
651.932	9.81
652.122	9.78
652.312	9.73
652.502	9.7
652.691	9.5
652.881	9.53
653.071	9.44
653.261	9.4
653.45	9.28
653.64	9.23
653.83	9.2
654.019	9.13
654.209	9.07
654.399	9.05
654.588	9.02
654.778	8.89
654.968	8.75
655.157	8.71
655.347	8.6
655.536	8.59
655.726	8.4
655.915	8.35
656.105	8.28
656.294	8.19
656.484	8.04
656.673	8.25
656.863	8.22
657.052	8.15
657.241	8.21
657.431	8.2
657.62	8.02
657.809	7.91
657.999	7.87
658.188	7.8
658.377	7.67
658.567	7.53
658.756	7.5
658.945	7.46
659.134	7.36
659.324	7.37
659.513	7.4
659.702	7.3
659.891	7.25
660.08	7.1
660.269	6.99
660.458	6.84
660.648	6.8
660.837	6.72
661.026	6.7
661.215	6.67
661.404	6.64
661.593	6.51
661.782	6.42
661.971	6.3
662.16	6.24
662.349	6.11
662.538	6.14
662.726	6.18
662.915	6.28
663.104	6.22
663.293	6.26
663.482	6.18
663.671	6.09
663.86	5.98
664.048	5.98
664.237	5.94
664.426	5.97
664.615	5.87
664.803	5.8
664.992	5.78
665.181	5.77
665.369	5.71
665.558	5.75
665.747	5.8
665.935	5.78
666.124	5.82
666.312	5.73
666.501	5.82
666.69	5.79
666.878	5.8
667.067	5.73
667.255	5.81
667.444	5.5
667.632	5.46
667.82	5.25
668.009	5.29
668.197	5.35
668.386	5.58
668.574	5.56
668.762	5.68
668.951	5.62
669.139	5.62
669.327	5.61
669.516	5.46
669.704	5.59
669.892	5.65
670.08	5.61
670.269	5.64
670.457	5.78
670.645	5.77
670.833	5.66
671.021	5.62
671.21	5.66
671.398	5.52
671.586	5.44
671.774	5.58
671.962	5.68
672.15	5.72
672.338	6.07
672.526	6.15
672.714	6.14
672.902	6.15
673.09	6.11
673.278	5.86
673.466	5.89
673.654	5.94
673.842	6
674.03	5.96
674.218	6.21
674.405	6.31
674.593	6.33
674.781	6.3
674.969	6.29
675.157	6.16
675.344	6.11
675.532	6.11
675.72	6.18
675.908	6.29
676.095	6.4
676.283	6.44
676.471	6.38
676.658	6.48
676.846	6.59
677.033	6.61
677.221	6.71
677.409	6.9
677.596	6.96
677.784	6.93
677.971	7.12
678.159	7.19
678.346	7.18
678.534	7.17
678.721	7.01
678.909	6.87
679.096	6.79
679.283	6.79
679.471	6.77
679.658	6.94
679.846	6.98
680.033	6.97
680.22	7
680.408	7.06
680.595	7.15
680.782	7.35
680.969	7.39
681.157	7.59
681.344	7.57
681.531	7.68
681.718	7.69
681.905	7.79
682.093	7.82
682.28	7.89
682.467	8.04
682.654	7.99
682.841	8.16
683.028	8.17
683.215	8.27
683.402	8.29
683.589	8.5
683.776	8.47
683.963	8.52
684.15	8.5
684.337	8.63
684.524	8.63
684.711	8.71
684.898	8.82
685.085	9.03
685.271	8.99
685.458	9.1
685.645	9.26
685.832	9.36
686.019	9.65
686.205	9.84
686.392	10.04
686.579	10.22
686.766	10.43
686.952	10.37
687.139	10.44
687.326	10.6
687.512	10.72
687.699	10.69
687.886	10.8
688.072	11.09
688.259	11.29
688.445	11.64
688.632	12.08
688.818	12.41
689.005	12.61
689.191	12.76
689.378	12.93
689.564	13.02
689.751	13.35
689.937	13.69
690.124	14.07
690.31	14.36
690.496	14.77
690.683	14.89
690.869	15.09
691.055	15.4
691.242	15.71
691.428	15.87
691.614	16.41
691.8	16.83
691.987	17.18
692.173	17.59
692.359	18.34
692.545	18.61
692.731	19.1
692.918	19.39
693.104	19.78
693.29	19.96
693.476	20.43
693.662	20.8
693.848	21.47
694.034	22.06
694.22	22.73
694.406	23.19
694.592	23.58
694.778	24.04
694.964	24.42
695.15	24.73
695.336	25.29
695.522	25.83
695.708	26.32
695.894	26.66
696.08	27.21
696.265	27.72
696.451	28.26
696.637	28.89
696.823	29.44
697.009	30
697.194	30.57
697.38	31.11
697.566	31.54
697.751	32.46
697.937	33.02
698.123	33.65
698.308	34.15
698.494	34.85
698.68	35.02
698.865	35.29
699.051	35.35
699.236	35.93
699.422	36.34
699.607	36.88
699.793	37.81
699.978	38.65
700.164	39.29
700.349	39.44
700.535	40.17
700.72	40.54
700.906	41.07
701.091	41.37
701.276	42.19
701.462	42.41
701.647	42.97
701.832	43.29
702.018	43.84
702.203	44.4
702.388	45.47
702.573	45.98
702.759	46.25
702.944	46.88
703.129	47.06
703.314	47.22
703.499	47.57
703.684	48.39
703.87	48.29
704.055	48.56
704.24	48.67
704.425	49.05
704.61	49.68
704.795	50.52
704.98	51.4
705.165	51.9
705.35	52.34
705.535	52.18
705.72	52.45
705.905	52.49
706.09	52.59
706.275	53.06
706.459	53.91
706.644	54.21
706.829	54.39
707.014	55.18
707.199	55.25
707.384	55.4
707.568	55.74
707.753	56.09
707.938	55.94
708.123	56.18
708.307	56.41
708.492	56.61
708.677	56.76
708.861	57.04
709.046	57.09
709.231	57.28
709.415	57.68
709.6	58.16
709.784	58.63
709.969	58.83
710.153	59.49
710.338	60.07
710.522	60.21
710.707	60.38
710.891	60.79
711.076	60.57
711.26	60.32
711.445	60.4
711.629	60.83
711.813	61.04
711.998	60.92
712.182	61.18
712.366	61.52
712.551	61.18
712.735	61.32
712.919	61.6
713.103	61.47
713.288	61.82
713.472	62.36
713.656	62.69
713.84	62.96
714.024	63.24
714.208	63.22
714.393	63.61
714.577	63.57
714.761	63.69
714.945	64.17
715.129	64.36
715.313	64.2
715.497	64.59
715.681	64.61
715.865	64.91
716.049	65.27
716.233	65.49
716.417	65.6
716.601	66.04
716.785	65.84
716.968	65.65
717.152	65.8
717.336	65.58
717.52	65.76
717.704	65.74
717.888	65.93
718.071	65.11
718.255	65.48
718.439	65.55
718.622	66.13
718.806	65.79
718.99	66.91
719.174	67.42
719.357	67.47
719.541	67.37
719.724	68.29
719.908	68.44
720.092	68.53
720.275	68.39
720.459	68.55
720.642	68.2
720.826	68.46
721.009	68.36
721.193	68.92
721.376	68.94
721.559	69.12
721.743	68.87
721.926	68.85
722.11	68.6
722.293	68.91
722.476	69.22
722.66	69.77
722.843	69.53
723.026	70.07
723.21	70.01
723.393	69.47
723.576	68.72
723.759	69.07
723.942	68.53
724.126	68.42
724.309	69.19
724.492	69.77
724.675	70.19
724.858	70.54
725.041	70.45
725.224	70.32
725.407	70.66
725.59	70.58
725.774	70.76
725.957	71.55
726.14	71.61
726.322	71.01
726.505	70.99
726.688	71.07
726.871	71.19
727.054	71.42
727.237	71.99
727.42	72.07
727.603	72.46
727.786	72.39
727.968	72.42
728.151	72.64
728.334	73.29
728.517	73.37
728.699	72.95
728.882	73.1
729.065	73.44
729.248	72.54
729.43	72.35
729.613	72.94
729.796	73.01
729.978	73.01
730.161	73.61
730.343	74.08
730.526	73.71
730.708	73.98
730.891	74.01
731.073	74.51
731.256	74.9
731.438	75.75
731.621	75.7
731.803	75.19
731.986	74.84
732.168	74.76
732.35	74.27
732.533	74.75
732.715	75.77
732.898	75.4
733.08	74.82
733.262	75.21
733.444	75.06
733.627	75.05
733.809	75.67
733.991	76.13
734.173	76.56
734.355	76.44
734.538	76.42
734.72	76.79
734.902	76.57
735.084	76.17
735.266	76.35
735.448	76.07
735.63	76.53
735.812	77.57
735.994	77.81
736.176	78.26
736.358	77.4
736.54	76.27
736.722	76.2
736.904	75.86
737.086	75.26
737.268	76.2
737.45	77.26
737.632	76.93
737.814	77.34
737.995	77.38
738.177	77.98
738.359	78.64
738.541	78.49
738.723	78.15
738.904	78.92
739.086	78.54
739.268	77.81
739.449	77.86
739.631	78.17
739.813	78.2
739.994	78.24
740.176	78.03
740.358	78.35
740.539	77.95
740.721	77.59
740.902	77.75
741.084	77.96
741.265	78.06
741.447	78.83
741.628	79.02
741.81	79.54
741.991	79.19
742.172	77.91
742.354	77.35
742.535	77.99
742.717	77.88
742.898	78.5
743.079	80.18
743.261	81.5
743.442	81.26
743.623	80.86
743.804	80.99
743.986	80.86
744.167	80.07
744.348	81.02
744.529	81.2
744.71	80.6
744.891	79.78
745.073	80.26
745.254	79.31
745.435	79.32
745.616	79.82
745.797	80.43
745.978	80.06
746.159	80.3
746.34	80.54
746.521	79.91
746.702	79.95
746.883	80.64
747.064	80.8
747.245	81.22
747.426	82.8
747.606	82.75
747.787	82.36
747.968	81.12
748.149	79.9
748.33	79.64
748.51	79.66
748.691	79.3
748.872	80.07
749.053	81.64
749.233	81.75
749.414	82.56
749.595	81.9
749.775	83.04
749.956	82.77
750.137	81.94
750.317	80.64
750.498	81.36
750.678	81.05
750.859	81.49
751.04	81.88
751.22	83.63
751.4	82.87
751.581	83.27
751.761	80.84
751.942	80.32
752.122	79.19
752.303	80.12
752.483	79.31
752.663	80.92
752.844	82.15
753.024	82.67
753.204	82.75
753.385	81.97
753.565	81.75
753.745	81.14
753.925	80.07
754.106	80.25
754.286	80.46
754.466	80.2
754.646	79.6
754.826	80.49
755.006	80.05
755.187	79.99
755.367	79.38
755.547	80.07
755.727	79.21
755.907	79.09
756.087	77.82
756.267	78.86
756.447	77.4
756.627	77.64
756.807	76.45
756.987	78.61
757.167	79.85
757.346	80.49
757.526	80.59
757.706	82.1
757.886	81.99
758.066	80.3
758.246	81.01
758.425	82.55
758.605	82.38
758.785	82.12
758.965	83.53
759.144	84.48
759.324	84.14
759.504	83.95
759.683	84.98
759.863	83.5
760.043	82.78
760.222	82.51
760.402	83.09
760.581	82.07
760.761	81.78
760.94	82.38
761.12	80.79
761.299	81.39
761.479	80.66
761.658	82.33
761.838	81.36
762.017	82.81
762.197	81.38
762.376	83.17
762.555	80.68
762.735	78.92
762.914	79.1
763.093	78.88
763.273	76.47
763.452	78.07
763.631	78.85
763.81	77.43
763.99	78.22
764.169	79.46
764.348	79.79
764.527	80.25
764.706	79.69
764.885	79.51
765.064	79.11
765.243	78.95
765.423	79.41
765.602	80.66
765.781	80.94
765.96	80.77
766.139	81.79
766.318	82.25
766.497	81.05
766.676	81.16
766.854	80.03
767.033	78.88
767.212	78.02
767.391	79.6
767.57	79.1
767.749	80.68
767.928	79.3
768.106	80.32
768.285	79.82
768.464	79.28
768.643	79.86
768.821	80.06
769	77.48
769.179	78.58
769.357	80.46
769.536	81.02
769.715	79.5
769.893	80.16
770.072	79.54
770.25	79.44
770.429	77.96
770.607	78.43
770.786	78.39
770.964	76.25
771.143	74.95
771.321	74.21
771.5	73.89
771.678	74.85
771.857	75.51
772.035	74.77
772.213	73.57
772.392	74.9
772.57	74.74
772.748	76.71
772.927	78.63
773.105	80.4
773.283	80.73
773.461	80.5
773.64	79.92
773.818	80.15
773.996	79.91
774.174	78.62
774.352	77.87
774.531	77.86
774.709	76.07
774.887	76.23
775.065	77.88
775.243	80.43
775.421	77.69
775.599	79.56
775.777	80.38
775.955	79.98
776.133	79.5
776.311	82.19
776.489	81.37
776.667	83.47
776.844	83.56
777.022	83.99
777.2	82.25
777.378	82.89
777.556	81.72
777.734	81.18
777.911	81.1
778.089	82.46
778.267	80.08
778.445	79.39
778.622	80.68
778.8	77.81
778.978	74.91
779.155	75.9
779.333	74.8
779.511	76.1
779.688	74.49
779.866	78.79
780.043	80.55
780.221	80.13
780.398	77.69
780.576	77.98
780.753	77.52
780.931	75.92
781.108	76.63
781.286	78.05
781.463	80.82
781.64	78.76
781.818	77.82
781.995	76.59
782.172	76.31
782.35	75.86
782.527	74.73
782.704	76.42
782.882	78.12
783.059	77.34
783.236	77.63
783.413	79.65
783.59	80.09
783.768	81.84
783.945	82.14
784.122	84.16
784.299	83.34
784.476	82.32
784.653	83.13
784.83	84.41
785.007	84.4
785.184	82.53
785.361	85.24
785.538	82.3
785.715	79.68
785.892	78.41
786.069	78.2
786.246	75.85
786.423	75.64
786.6	76.24
786.776	76.88
786.953	79.04
787.13	74.72
787.307	75.41
787.484	74.95
787.66	75.27
787.837	75.69
788.014	80.44
788.191	81.64
788.367	82.82
788.544	79
788.721	77.28
788.897	76.23
789.074	74.01
789.25	73.65
789.427	74.52
789.603	75.22
789.78	77.96
789.956	76.4
790.133	78.12
790.309	81.8
790.486	80.29
790.662	78.83
790.839	80.19
791.015	79.96
791.192	76.62
791.368	77.87
791.544	77.71
791.721	81.78
791.897	80.54
792.073	81.87
792.249	84.25
792.426	83.09
792.602	76.06
792.778	79.18
792.954	79.97
793.13	83.06
793.307	84.94
793.483	91.22
793.659	89.86
793.835	87.96
794.011	82.38
794.187	81.9
794.363	80.35
794.539	81.78
794.715	84.6
794.891	85.32
795.067	83.15
795.243	82.22
795.419	77.82
795.595	75.36
795.771	79.95
795.947	76.59
796.122	78.91
796.298	77.49
796.474	76.96
796.65	73.75
796.826	81.2
797.001	75.59
797.177	77.59
797.353	76.3
797.529	73.28
797.704	72.06
797.88	77.95
798.056	80.38
798.231	81.04
798.407	79.58
798.582	79.83
798.758	76.95
798.934	75.09
799.109	78.36
799.285	84.39
799.46	81.57
799.636	82.93
799.811	81.37
799.986	76.24
800.162	74.33
800.337	75.46
800.513	77.52
800.688	83.59
800.863	86.27
801.039	83.96
801.214	84.28
801.389	83.51
801.565	82.7
801.74	85.27
801.915	84.04
802.09	83.11
802.265	76.14
802.441	76.35
802.616	77.75
802.791	80.25
802.966	83.19
803.141	92.11
803.316	94.7
803.491	93.16
803.666	90.42
803.841	93.97
804.016	93.22
804.191	90.61
804.366	90.2
804.541	94.66
804.716	86.09
804.891	88.25
805.066	78.89
805.241	77.41
805.416	77.53
805.591	82.2
805.765	74.93
805.94	85.61
806.115	87.11
806.29	86.75
806.464	85.47
806.639	86.38
806.814	81.59
806.989	84.93
807.163	84.12
807.338	85.66
807.512	88.08
807.687	87.42
807.862	82.02
808.036	77.04
808.211	78.33
808.385	70.95
808.56	63.36
808.734	67.44
808.909	71.33
809.083	73.86
809.258	77.52
809.432	85.62
809.606	88.04
809.781	88.29
809.955	75.86
810.13	72.63
810.304	73.69
810.478	69.21
810.652	68.66
810.827	71.73
811.001	76.05
811.175	74.5
811.349	80.67
811.524	79.38
811.698	72.36
811.872	70.71
812.046	76.21
812.22	67.61
812.394	75.25
812.568	87.66
812.742	85.61
812.916	85.14
813.09	85.31
813.264	90.42
813.438	98.11
813.612	111.27
813.786	108.66
813.96	106.98
814.134	97.63
814.308	86.74
814.482	77.18
814.656	72.56
814.83	73
815.003	78.02
815.177	88.69
815.351	90.2
815.525	97.88
815.698	96.93
815.872	94.72
816.046	82.54
816.219	82.54
816.393	71.27
816.567	85.92
816.74	83.79
816.914	83.6
817.088	83.46
817.261	87.77
817.435	78.35
817.608	75.16
817.782	78.31
817.955	82.31
818.129	90.25
818.302	86.68
818.475	78.73
818.649	71.44
818.822	73.38
818.996	53.3
819.169	53.33
819.342	67.12
819.516	76.39
819.689	74.41
819.862	92.42
820.035	116.46
820.209	102.13
820.382	95.64
820.555	89.56
820.728	80.32
820.901	74.31
821.075	78.8
821.248	72.96
821.421	86.57
821.594	103.17
821.767	97.93
821.94	88.54
822.113	104.57
822.286	90.3
822.459	78.96
822.632	72.02
822.805	83.56
822.978	86.62
823.151	85.57
823.324	103.24
823.496	113.48
823.669	95.38
823.842	91.15
824.015	108.16
824.188	85.32
824.361	76.05
824.533	109.72
824.706	100.13
824.879	92.99
825.051	83.75
825.224	93.3
825.397	79.53
825.569	77.37
825.742	73.97
825.915	76.7
826.087	79.35
826.26	78.84
826.432	101.54
826.605	97.14
826.777	100.6
826.95	103.2
827.122	107.1
827.295	93.3
827.467	97.41
827.64	93.12
827.812	100.47
827.984	82.51
828.157	75.97
828.329	87.27
828.501	101.91
828.674	98.95
828.846	126.08
829.018	144.11
829.19	120.36
829.363	106.17
829.535	97.83
829.707	101.19
829.879	78.99
830.051	89.17
830.223	105.13
830.395	103.64
830.568	87.24
830.74	106.86
830.912	96.81
831.084	79.85
831.256	81
831.428	85.28
831.6	83.78
831.772	104.89
831.943	103.71
832.115	100.53
832.287	113
832.459	110.48
832.631	95.59
832.803	107.64
832.975	125.75
833.146	105.86
833.318	119.85
833.49	113.37
833.662	98.08
833.833	89.19
834.005	82.89
834.177	73.64
834.348	76.89
834.52	82.93
834.692	88.06
834.863	109.15
835.035	100.84
835.206	89.84
835.378	89.57
835.549	98.57
835.721	85.21
835.892	87.35
836.064	94.15
836.235	81.69
836.407	75.86
836.578	82.7
836.749	98.13
836.921	116.8
837.092	111.14
837.264	123.72
837.435	125.77
837.606	111.91
837.777	101.01
837.949	104.05
838.12	96.24
838.291	87.35
838.462	83.26
838.633	80.77
838.805	97.47
838.976	90.32
839.147	91.83
839.318	110.16
839.489	115.29
839.66	96.29
839.831	77.36
840.002	84.32
840.173	80.53
840.344	69.89
840.515	63.01
840.686	64.65
840.857	67.04
841.028	70.87
841.199	95.16
841.369	103.51
841.54	120.67
841.711	127
841.882	125.7
842.053	114.26
842.223	121.59
842.394	109.05
842.565	121.83
842.736	105.38
842.906	81.95
843.077	79.24
843.248	97.32
843.418	91.69
843.589	106.04
843.759	89.98
843.93	86.22
844.101	46.12
844.271	36.86
844.442	38.43
844.612	26.93
844.783	49.96
844.953	82.3
845.123	84.16
845.294	57.37
845.464	104.1
845.635	97.86
845.805	77.63
845.975	113.66
846.146	128.28
846.316	131.26
846.486	125.14
846.656	119.41
846.827	107.98
846.997	114.9
847.167	100.58
847.337	115.91
847.507	119.39
847.677	114.68
847.848	103.78
848.018	105.94
848.188	86.67
848.358	87.16
848.528	71.88
848.698	86.08
848.868	94.02
849.038	94.3
849.208	87.48
849.378	92.17
849.548	97.43
849.718	103.3
849.887	89.08
850.057	97.66
850.227	100.86
850.397	86.38
850.567	72.95
850.737	60.44
850.906	68.54
851.076	88.02
851.246	109.57
851.415	120.22
851.585	141.61
851.755	181.83
851.924	174.49
852.094	128.66
852.264	150.38
852.433	167.87
852.603	139.01
852.772	126.3
852.942	145.06
853.111	125.59
853.281	119.04
853.45	102.82
853.62	114.61
853.789	104.75
853.959	87.33
854.128	91.96
854.297	118.97
854.467	106.69
854.636	102.74
854.805	66.08
854.975	35.62
855.144	66.8
855.313	32.04
855.482	79.3
855.652	99.61
855.821	122.62
855.99	107.29
856.159	106.39
856.328	126.04
856.497	133.77
856.667	122.93
856.836	114.64
857.005	121.68
857.174	113.17
857.343	130.79
857.512	114.2
857.681	138.12
857.85	147.59
858.019	145.08
858.188	189.04
858.356	175.5
858.525	219.22
858.694	485.54
858.863	378.15
859.032	243.27
859.201	273.48
859.369	170.26
859.538	83.7
859.707	53.71
859.876	53.81
860.044	65.67
860.213	57.48
860.382	73.07
860.55	73.14
860.719	64.53
860.888	66.65
861.056	98.12
861.225	112.96
861.393	109.04
861.562	96.38
861.73	106.18
861.899	91.71
862.067	66.48
862.236	66.56
862.404	82.75
862.572	98.55
862.741	105.65
862.909	128.23
863.078	189.7
863.246	202.13
863.414	153.93
863.582	97.77
863.751	81.42
863.919	60.62
864.087	35.62
864.255	30.61
864.424	67.31
864.592	73.24
864.76	72.41
864.928	69.98
865.096	112.69
865.264	111.84
865.432	93.56
865.6	77.51
865.768	119.1
865.936	104.47
866.104	124.39
866.272	170.36
866.44	207.36
866.608	171.54
866.776	166.34
866.944	149.96
867.112	106.66
867.28	110.5
867.448	96.98
867.615	90.3
867.783	91.15
867.951	112.38
868.119	62.54
868.286	70.77
868.454	111
868.622	162.04
868.789	178.53
868.957	243.11
869.125	254.65
869.292	165.66
869.46	153.94
869.627	118.99
869.795	117.68
869.963	96.12
870.13	95.4
870.298	77.58
870.465	75.17
870.632	103.07
870.8	133.95
870.967	150.26
871.135	119.74
871.302	133.73
871.469	100.35
871.637	44.55
871.804	23.6
871.971	53.28
872.139	72.02
872.306	51.75
872.473	91.19
872.64	109.59
872.807	103.7
872.975	70.11
873.142	102.06
873.309	94.55
873.476	102.85
873.643	73.07
873.81	143.7
873.977	138.77
874.144	152.5
874.311	113.32
874.478	157.62
874.645	180.47
874.812	214.07
874.979	152.92
875.146	174.89
875.313	138.14
875.48	96.01
875.647	105.91
875.813	137.99
875.98	118.99
876.147	120.62
876.314	142.17
876.481	213.87
876.647	368.02
876.814	350.77
876.981	-710.82
877.147	-693.5
877.314	147.61
877.481	91.15
877.647	85.32
877.814	121.39
877.98	113.45
878.147	115.17
878.314	120.5
878.48	125.86
878.647	113.39
878.813	74.28
878.979	36.99
879.146	68.19
879.312	81.49
879.479	106.93
879.645	152.62
879.811	186.26
879.978	214.37
880.144	205.14
880.31	222.25
880.477	161.58
880.643	148.04
880.809	84.07
880.975	268.73
881.142	165.7
881.308	173.99
881.474	131.74
881.64	136.39
881.806	113.93
881.972	133.43
882.138	120.16
882.304	67.26
882.47	139.28
882.636	62.24
882.802	64.39
882.968	57.8
883.134	111.75
883.3	108.44
883.466	100.8
883.632	97.73
883.798	112.42
883.964	120.64
884.129	121.7
884.295	106.93
884.461	116.36
884.627	107.27
884.793	94.03
884.958	77.53
885.124	123.71
885.29	112.32
885.455	135.06
885.621	231.99
885.787	239.25
885.952	294.22
886.118	490.07
886.283	293.51
886.449	357.71
886.614	314.47
886.78	280.66
886.945	302.87
887.111	748.22
887.276	-3168.52
887.442	-563.33
887.607	301.65
887.773	203.92
887.938	157.43
888.103	118.96
888.269	123.86
888.434	171.05
888.599	141.9
888.764	150.21
888.93	229.44
889.095	230.08
889.26	203.86
889.425	-5273.81
889.59	-1052.67
889.756	383.81
889.921	2855.13
890.086	-134.04
890.251	228.77
890.416	199.09
890.581	70.19
890.746	31.09
890.911	56.97
891.076	44.7
891.241	28.67
891.406	95.41
891.571	85.87
891.736	112.51
891.901	124.43
892.065	227.21
892.23	148.62
892.395	278.43
892.56	142.05
892.725	76.78
892.889	91.77
893.054	153.31
893.219	137.86
893.384	212.86
893.548	279.23
893.713	283.33
893.878	306.59
