Data from Ofav_PP_Phys_0DW41_Reflection_2.txt Node
Date: Tue Aug 03 18:03:30 EDT 2021
User: Adam
Spectrometer: FLMT01687
Trigger mode: 0
Integration Time (sec): 8.750000E-1
Scans to average: 2
Electric dark correction enabled: true
Nonlinearity correction enabled: false
Boxcar width: 2
XAxis mode: Wavelengths
Number of Pixels in Spectrum: 3648
>>>>>Begin Spectral Data<<<<<
179.494	44.09
179.716	102.27
179.937	251.65
180.158	-566.67
180.38	-102.68
180.601	-780
180.823	458.21
181.044	224.22
181.265	140.99
181.486	334.48
181.708	54.84
181.929	84.98
182.15	354.21
182.372	149.69
182.593	-412
182.814	19.84
183.035	-7.45
183.257	25.06
183.478	28.83
183.699	16.3
183.92	-9.09
184.141	-20.42
184.363	-22.82
184.584	-73.1
184.805	-40.46
185.026	-36.35
185.247	-35.36
185.468	-33.25
185.689	-7.67
185.91	-7.56
186.132	5.26
186.353	33.43
186.574	52.68
186.795	27.87
187.016	-11.02
187.237	-6.03
187.458	-22.18
187.679	-33.85
187.9	-17.9
188.121	9.42
188.342	2.06
188.563	-0.74
188.784	3.08
189.005	-5.6
189.226	-3.36
189.447	-4.95
189.667	-12.12
189.888	-15.18
190.109	-12.3
190.33	-20
190.551	3.28
190.772	33.94
190.993	46.8
191.214	38.05
191.434	34.25
191.655	21.82
191.876	7.23
192.097	14.67
192.318	12.06
192.538	11.64
192.759	21.04
192.98	9.98
193.201	-0.2
193.421	22.72
193.642	33.46
193.863	40.43
194.083	66.43
194.304	44.24
194.525	22.84
194.745	21.21
194.966	7.37
195.187	6.5
195.407	15.66
195.628	42.46
195.848	44.34
196.069	51.04
196.29	36.11
196.51	7.19
196.731	4.81
196.951	10.83
197.172	-2.06
197.392	-31.81
197.613	-8.64
197.833	-13.99
198.054	-17.91
198.274	-16.27
198.495	0.68
198.715	18.62
198.936	13.85
199.156	6.05
199.377	10.81
199.597	23.19
199.817	9.18
200.038	-0.39
200.258	-17.92
200.479	-38.49
200.699	-33.84
200.919	-101.58
201.14	-9.62
201.36	0.71
201.58	-20.54
201.801	-37.79
202.021	-29.78
202.241	-44.66
202.461	-21.72
202.682	1.39
202.902	-9.44
203.122	4.74
203.342	16.69
203.563	-6.26
203.783	1.01
204.003	11.46
204.223	26.9
204.443	24.83
204.663	43.47
204.884	34.57
205.104	29.88
205.324	15.17
205.544	-0.59
205.764	6.97
205.984	-5.13
206.204	10.64
206.424	-15.19
206.644	-6.9
206.864	-30.04
207.084	-18.07
207.304	-32.2
207.525	1.87
207.745	7.74
207.964	5.33
208.184	10.94
208.404	12.95
208.624	8.05
208.844	6.27
209.064	12.34
209.284	7.22
209.504	10.09
209.724	12.83
209.944	-8.15
210.164	-38.11
210.384	-20.12
210.604	-21.07
210.823	-26.43
211.043	-7.22
211.263	-7.86
211.483	-3.83
211.703	9.73
211.922	6.39
212.142	-0.38
212.362	3.1
212.582	-6.12
212.801	-15.43
213.021	-27.16
213.241	-33.73
213.461	5.06
213.68	15.28
213.9	15.57
214.12	16.93
214.339	19.62
214.559	-10.19
214.779	-19.89
214.998	-10.01
215.218	-7.47
215.438	8.8
215.657	0.41
215.877	11.73
216.096	4.72
216.316	6.82
216.535	-5.83
216.755	1.95
216.974	-9.7
217.194	-1.51
217.413	7.14
217.633	14.79
217.852	20.14
218.072	23.29
218.291	14.39
218.511	6.11
218.73	11.86
218.95	5.64
219.169	16.44
219.389	7.41
219.608	-7.93
219.827	-44.93
220.047	-60.31
220.266	-90.56
220.485	-27.45
220.705	-6.74
220.924	-8.53
221.143	-8.1
221.363	-0.89
221.582	-11.03
221.801	-26.11
222.021	-12.54
222.24	-9.18
222.459	-17.67
222.678	-13.77
222.897	-0.62
223.117	-24.02
223.336	-94.64
223.555	-23.14
223.774	-2.35
223.993	6.59
224.213	7.93
224.432	14.64
224.651	17.87
224.87	15.84
225.089	4.38
225.308	7.58
225.527	3.28
225.746	-27.45
225.965	-25.18
226.184	-16.92
226.404	-1
226.623	15.05
226.842	35.56
227.061	15.13
227.28	11.55
227.499	5.53
227.718	-0.66
227.936	-20.69
228.155	4.92
228.374	17.65
228.593	21.62
228.812	-2.55
229.031	6.23
229.25	10.16
229.469	-8.13
229.688	-9.15
229.907	-24.13
230.125	0.5
230.344	-18.94
230.563	-9.06
230.782	-15.85
231.001	32.36
231.22	26.47
231.438	16.49
231.657	0.08
231.876	0.42
232.095	-2.39
232.313	-20.96
232.532	-43.92
232.751	-17.15
232.969	-8.12
233.188	-9.72
233.407	-3.25
233.625	24.13
233.844	10.71
234.063	10.11
234.281	-2.44
234.5	13.99
234.719	-16.8
234.937	7.87
235.156	-14.29
235.374	-11.84
235.593	-18.95
235.811	-11.11
236.03	-6.23
236.249	24.69
236.467	40.77
236.686	42.94
236.904	37.55
237.123	34.81
237.341	33.03
237.559	27.3
237.778	25.96
237.996	20.08
238.215	21.33
238.433	-0.21
238.652	-5.09
238.87	-7.58
239.088	-0.62
239.307	-1.18
239.525	4.84
239.743	4.72
239.962	5.67
240.18	5.23
240.398	5.97
240.617	0.33
240.835	-2
241.053	-8.38
241.271	-33.11
241.49	-43.15
241.708	-23.39
241.926	-12.75
242.144	-6.8
242.363	8.59
242.581	20.95
242.799	14.85
243.017	11.81
243.235	21
243.453	17.46
243.672	10.72
243.89	21.61
244.108	25.05
244.326	12.91
244.544	7.1
244.762	22.41
244.98	4.38
245.198	21.91
245.416	35.39
245.634	40.19
245.852	26.58
246.07	19.39
246.288	4.77
246.506	6.07
246.724	2.68
246.942	5.71
247.16	18.72
247.378	1.01
247.596	-1.42
247.814	-3.08
248.032	-8.71
248.25	-11
248.468	-1.53
248.685	8.94
248.903	3.78
249.121	2.44
249.339	-0.56
249.557	4.26
249.775	-14.45
249.992	1.51
250.21	8.22
250.428	-3.35
250.646	-30.64
250.863	-38.2
251.081	-72.67
251.299	-72.61
251.517	-29.74
251.734	2.06
251.952	-9.28
252.17	-0.99
252.387	-9.72
252.605	-27.37
252.823	-48.39
253.04	-27.35
253.258	9.04
253.475	20.94
253.693	18.2
253.911	30.23
254.128	24.21
254.346	22.65
254.563	14.61
254.781	12.91
254.998	-1.26
255.216	4.63
255.433	-0.27
255.651	19.27
255.868	7.01
256.086	11.04
256.303	36.85
256.521	45.03
256.738	22.71
256.956	34.33
257.173	26.88
257.39	17.67
257.608	-6.18
257.825	-21.59
258.043	-41.98
258.26	-12.33
258.477	8.31
258.695	7.88
258.912	7.61
259.129	14.72
259.346	4.85
259.564	-8.28
259.781	1.78
259.998	15.64
260.216	16.07
260.433	23.07
260.65	23.29
260.867	15.51
261.084	10.53
261.302	-2.7
261.519	-2.2
261.736	-7.55
261.953	-6.02
262.17	-15.23
262.387	-9.46
262.604	-16.97
262.822	-9.78
263.039	-9.07
263.256	-4.63
263.473	12.35
263.69	13.94
263.907	14.83
264.124	0.58
264.341	2.17
264.558	-22.65
264.775	-9.07
264.992	-7.61
265.209	3.27
265.426	-1
265.643	20.54
265.86	7.48
266.077	8.28
266.294	15
266.51	21.59
266.727	18.71
266.944	24.49
267.161	32.22
267.378	33.28
267.595	28.97
267.812	28.98
268.028	37.1
268.245	28.52
268.462	34.61
268.679	33.49
268.896	26.53
269.112	20
269.329	5.72
269.546	-7.93
269.763	10.05
269.979	-14.29
270.196	-3.09
270.413	22.75
270.629	23.93
270.846	18.41
271.063	15.77
271.279	11.6
271.496	3.71
271.712	5.97
271.929	-3.4
272.146	27.24
272.362	27.08
272.579	32.19
272.795	18.26
273.012	34.5
273.228	19.71
273.445	2.16
273.661	-10.7
273.878	-12.25
274.094	-27.26
274.311	-53.54
274.527	-35.38
274.744	-32.15
274.96	-23.72
275.177	-40.36
275.393	-20.63
275.609	-20.07
275.826	-8.61
276.042	-20.64
276.259	-5.11
276.475	-21.56
276.691	-3.12
276.908	-11.46
277.124	6.46
277.34	3.62
277.557	15.61
277.773	-1.56
277.989	4.16
278.205	-2.78
278.422	-7.35
278.638	7.36
278.854	3.89
279.07	3.49
279.286	9.25
279.503	17.03
279.719	2.23
279.935	-4.65
280.151	-6.89
280.367	-13.8
280.583	-36.24
280.799	-15.08
281.016	1.34
281.232	-6.52
281.448	7.94
281.664	-5.66
281.88	-9.5
282.096	-7.43
282.312	-19.58
282.528	-24.72
282.744	-0.07
282.96	2.85
283.176	-1.24
283.392	22.31
283.608	23.69
283.824	11.36
284.04	7.56
284.256	17.31
284.471	6.42
284.687	14.52
284.903	24.02
285.119	14.1
285.335	0.42
285.551	10.08
285.767	8.68
285.982	0.75
286.198	7.37
286.414	15.18
286.63	2.45
286.846	-0.65
287.061	-4.1
287.277	2.51
287.493	-2.37
287.709	-1.47
287.924	-1.58
288.14	14.4
288.356	3.17
288.571	7.56
288.787	11.37
289.003	4.46
289.218	-22.04
289.434	-21.39
289.65	-20.26
289.865	-12.94
290.081	-26.66
290.296	-12.04
290.512	-17.39
290.727	-30.86
290.943	-32.63
291.159	-15.14
291.374	-12.72
291.59	9.78
291.805	21.58
292.021	32.28
292.236	35.65
292.451	39.4
292.667	25.6
292.882	11.31
293.098	6.4
293.313	6.38
293.529	6.82
293.744	12.81
293.959	31.92
294.175	26.47
294.39	33.48
294.605	24.16
294.821	19.15
295.036	8.95
295.251	6.98
295.467	-7.47
295.682	10.16
295.897	-5.17
296.112	9.48
296.328	7.87
296.543	15.83
296.758	9.09
296.973	29.61
297.188	30.41
297.404	40.57
297.619	37.51
297.834	27.16
298.049	16.33
298.264	16.7
298.479	0.56
298.694	-0.07
298.909	7.67
299.125	17.13
299.34	12.53
299.555	15.02
299.77	9.46
299.985	9.41
300.2	3.55
300.415	-13.31
300.63	-9.78
300.845	-0.26
301.06	-5.56
301.275	-18.83
301.49	0.09
301.704	-1.21
301.919	7.53
302.134	14.31
302.349	34.92
302.564	41.23
302.779	51.9
302.994	46.6
303.209	29.1
303.423	31.72
303.638	20.67
303.853	7.33
304.068	3.48
304.283	23.56
304.497	18.62
304.712	16.77
304.927	27.6
305.142	35.58
305.356	30.01
305.571	26.94
305.786	29.94
306	34.6
306.215	25.07
306.43	21.98
306.644	22.69
306.859	35.01
307.074	35.28
307.288	43.18
307.503	50.67
307.717	43.15
307.932	28.25
308.147	11.45
308.361	5.82
308.576	-11.51
308.79	3.7
309.005	0.98
309.219	12.11
309.434	5.22
309.648	12.27
309.863	2.76
310.077	3.51
310.292	3.38
310.506	11.23
310.72	19.45
310.935	22.4
311.149	29.41
311.364	19.76
311.578	10.31
311.792	9.23
312.007	-6.58
312.221	-8.77
312.435	0.75
312.649	12.3
312.864	-7.48
313.078	6.76
313.292	-0.2
313.507	-2.59
313.721	-23.79
313.935	-11.76
314.149	-31.07
314.363	-19.12
314.578	-22.1
314.792	-19.63
315.006	-34.94
315.22	-32.78
315.434	-41.31
315.648	-55.09
315.862	-18.67
316.077	-9.95
316.291	7.43
316.505	14.35
316.719	17.59
316.933	22.83
317.147	19.56
317.361	15.2
317.575	18.55
317.789	21.36
318.003	11.29
318.217	12.28
318.431	10.55
318.645	-2.72
318.859	2.63
319.073	11.29
319.287	22.84
319.5	28.49
319.714	41.25
319.928	39.34
320.142	29.61
320.356	20.93
320.57	23.87
320.784	13.57
320.997	5.61
321.211	15.08
321.425	16.59
321.639	0.69
321.853	-1.73
322.066	-2.41
322.28	7.16
322.494	14.92
322.707	20.08
322.921	27.89
323.135	28.71
323.349	12.89
323.562	11.07
323.776	15.1
323.989	25.76
324.203	25.86
324.417	24.77
324.63	23.62
324.844	19.24
325.057	4.02
325.271	-3.68
325.485	-0.94
325.698	-19.79
325.912	-22.32
326.125	-6.58
326.339	-2.77
326.552	-6.14
326.766	21.27
326.979	23.27
327.193	21.67
327.406	16.8
327.619	11.77
327.833	-14.52
328.046	-14.83
328.26	-23.1
328.473	-17.92
328.686	-9.08
328.9	7.67
329.113	17.79
329.326	23.75
329.54	29.27
329.753	20.88
329.966	22.43
330.179	0.37
330.393	-0.07
330.606	4.05
330.819	12.45
331.032	4.95
331.246	13.34
331.459	10.22
331.672	-8.2
331.885	-12.39
332.098	-11.65
332.311	10.93
332.525	13.49
332.738	33.77
332.951	34.81
333.164	30.5
333.377	19.48
333.59	15.34
333.803	11.16
334.016	13.96
334.229	18.03
334.442	-5.06
334.655	8.96
334.868	-6.5
335.081	-17.03
335.294	-14.07
335.507	3.58
335.72	-1.71
335.933	10.28
336.146	15.43
336.359	14.96
336.572	11.7
336.785	12.06
336.997	25.41
337.21	27.66
337.423	29.93
337.636	36.18
337.849	30.95
338.062	16.71
338.274	9.21
338.487	11.89
338.7	14.74
338.913	21.33
339.125	15.76
339.338	21.4
339.551	22.78
339.763	12.73
339.976	8.47
340.189	19.71
340.402	26.53
340.614	14.88
340.827	14.49
341.039	15.72
341.252	7.72
341.465	-6.16
341.677	-5.48
341.89	7.23
342.102	13.78
342.315	27.39
342.527	39.61
342.74	44.06
342.952	37.03
343.165	39.79
343.377	17.45
343.59	9.29
343.802	3.3
344.015	-13.83
344.227	-22.32
344.44	-3.2
344.652	-2.6
344.864	-14.93
345.077	-10.58
345.289	-32.69
345.502	-80.03
345.714	-109.24
345.926	-56.2
346.139	-32.99
346.351	-12.69
346.563	3.91
346.775	8.9
346.988	-3.56
347.2	-10.85
347.412	-27.64
347.624	-18.55
347.837	-9.51
348.049	-2.25
348.261	-7.43
348.473	-2.92
348.685	4.26
348.897	15.81
349.11	8.99
349.322	-0.09
349.534	-0.84
349.746	-9.15
349.958	-17.3
350.17	-17.14
350.382	-9.76
350.594	-0.19
350.806	-0.75
351.018	-5.75
351.23	-5.83
351.442	-1.84
351.654	-34.47
351.866	-34.67
352.078	-32.86
352.29	-17.13
352.502	-32.29
352.714	2.07
352.926	7.72
353.138	5.25
353.35	0.09
353.561	12.6
353.773	7.75
353.985	7.16
354.197	8.3
354.409	16.93
354.621	16.83
354.832	17.78
355.044	13.79
355.256	10.18
355.468	-5.82
355.679	-16.66
355.891	-9.74
356.103	-5.82
356.314	-15.07
356.526	-1.09
356.738	8.65
356.949	16.54
357.161	9.6
357.373	20.14
357.584	17.43
357.796	20.92
358.008	-16.83
358.219	-3.03
358.431	6.17
358.642	15.24
358.854	2.18
359.065	25.52
359.277	36.33
359.488	15.58
359.7	4.02
359.911	5.15
360.123	3.91
360.334	-13.55
360.546	-14.43
360.757	-21.35
360.969	-8.41
361.18	-11.03
361.391	10.61
361.603	18.43
361.814	20.03
362.025	21.5
362.237	26.39
362.448	11.28
362.659	10.44
362.871	10.24
363.082	-1.62
363.293	-10.67
363.504	-17.33
363.716	0.06
363.927	4.54
364.138	16.88
364.349	22.16
364.56	21.99
364.772	18.18
364.983	10.12
365.194	3.28
365.405	3.19
365.616	13.15
365.827	15.42
366.038	23.41
366.25	21.08
366.461	30.34
366.672	11.27
366.883	8.08
367.094	5.67
367.305	11.91
367.516	-6.38
367.727	-1.42
367.938	-1.86
368.149	-11.16
368.36	-20.99
368.571	-23.66
368.781	-16
368.992	-16.96
369.203	-1.32
369.414	2.71
369.625	6.12
369.836	4.67
370.047	-3.8
370.258	-20.96
370.468	-27.93
370.679	-10.12
370.89	-4.27
371.101	2.51
371.312	10.52
371.522	9.59
371.733	2.98
371.944	5.73
372.155	17.37
372.365	12.7
372.576	20.31
372.787	9.49
372.997	1.38
373.208	-9.39
373.419	-3.28
373.629	-5.01
373.84	3.67
374.05	-1.34
374.261	-2.27
374.472	4.14
374.682	-3.9
374.893	-0.84
375.103	-3.56
375.314	1.96
375.524	-2.87
375.735	-1.22
375.945	-2.71
376.156	4.21
376.366	-6.12
376.577	-6.94
376.787	-5.13
376.997	-1.7
377.208	0.96
377.418	2.89
377.629	0.05
377.839	6.59
378.049	3.95
378.26	4.94
378.47	7.43
378.68	10.41
378.89	8.84
379.101	12.15
379.311	0.75
379.521	2.22
379.732	2.5
379.942	4.43
380.152	5.34
380.362	13.07
380.572	17.93
380.783	21.19
380.993	17.21
381.203	13.05
381.413	11.78
381.623	6.81
381.833	9.06
382.043	10.72
382.253	11.53
382.463	18.57
382.674	12.92
382.884	11.25
383.094	3.02
383.304	5.14
383.514	-4.58
383.724	0.12
383.934	-1.68
384.144	4.71
384.353	5.21
384.563	1.95
384.773	1.2
384.983	-0.76
385.193	-1.71
385.403	-0.93
385.613	3.24
385.823	7.35
386.033	9.21
386.242	15.75
386.452	15.29
386.662	15.06
386.872	14.81
387.082	7.75
387.291	0.96
387.501	-0.79
387.711	-3.3
387.921	-2.46
388.13	3.43
388.34	1.92
388.55	4.19
388.759	6.44
388.969	4.67
389.179	3.34
389.388	4.66
389.598	4.48
389.807	3.29
390.017	5.83
390.227	7.18
390.436	7.45
390.646	4.48
390.855	4.18
391.065	1.08
391.274	0.57
391.484	2.81
391.693	4.49
391.903	4.08
392.112	5.04
392.322	5.23
392.531	2.87
392.74	1.86
392.95	3.16
393.159	1.83
393.369	2.66
393.578	2.29
393.787	2.81
393.997	3.15
394.206	4.47
394.415	4.1
394.625	5.21
394.834	4.99
395.043	4.69
395.252	4.96
395.462	5.69
395.671	4.24
395.88	4.66
396.089	4.78
396.298	4.28
396.508	3.48
396.717	4.31
396.926	3.92
397.135	3.07
397.344	2.92
397.553	2.75
397.762	2.74
397.971	2.93
398.181	3.38
398.39	3.66
398.599	3.38
398.808	3.28
399.017	3.23
399.226	3.06
399.435	2.62
399.644	3.12
399.853	3.24
400.062	3.09
400.27	3.15
400.479	3.6
400.688	3.62
400.897	3.72
401.106	3.64
401.315	4.01
401.524	4.18
401.733	3.77
401.941	3.5
402.15	3.77
402.359	3.7
402.568	3.27
402.777	3.3
402.985	3.48
403.194	3.31
403.403	3.2
403.612	3.31
403.82	3.38
404.029	3.24
404.238	3.48
404.446	3.34
404.655	3.19
404.864	3.26
405.072	3.33
405.281	3.14
405.489	3.19
405.698	3.22
405.906	3.16
406.115	3.11
406.324	3.05
406.532	2.94
406.741	3.12
406.949	3.1
407.158	3.17
407.366	3.26
407.574	3.31
407.783	3.27
407.991	3.35
408.2	3.16
408.408	3.06
408.617	3.07
408.825	2.98
409.033	2.94
409.242	2.99
409.45	2.93
409.658	3.03
409.867	2.99
410.075	2.92
410.283	2.91
410.491	2.88
410.7	2.82
410.908	2.77
411.116	2.78
411.324	2.86
411.533	2.95
411.741	2.93
411.949	3.03
412.157	3.02
412.365	2.98
412.573	2.99
412.781	2.95
412.99	2.96
413.198	2.92
413.406	2.88
413.614	2.78
413.822	2.8
414.03	2.73
414.238	2.68
414.446	2.73
414.654	2.85
414.862	2.86
415.07	2.82
415.278	2.87
415.486	2.84
415.694	2.86
415.902	2.75
416.109	2.63
416.317	2.67
416.525	2.6
416.733	2.67
416.941	2.62
417.149	2.78
417.357	2.75
417.564	2.76
417.772	2.43
417.98	2.66
418.188	2.67
418.395	2.69
418.603	2.77
418.811	3.05
419.019	2.86
419.226	2.99
419.434	2.86
419.642	2.81
419.849	2.68
420.057	2.68
420.265	2.57
420.472	2.88
420.68	2.74
420.887	2.73
421.095	2.58
421.302	2.59
421.51	2.18
421.717	2.2
421.925	2.11
422.132	2.37
422.34	2.3
422.547	2.45
422.755	2.46
422.962	2.65
423.17	2.61
423.377	2.7
423.585	2.8
423.792	2.73
423.999	2.49
424.207	2.48
424.414	2.22
424.621	2.07
424.829	2.2
425.036	2.42
425.243	2.36
425.451	2.41
425.658	2.37
425.865	2.45
426.072	2.41
426.28	2.34
426.487	2.45
426.694	2.44
426.901	2.31
427.108	2.33
427.315	2.51
427.523	2.41
427.73	2.46
427.937	2.64
428.144	2.52
428.351	2.42
428.558	2.5
428.765	2.58
428.972	2.63
429.179	2.56
429.386	2.6
429.593	2.53
429.8	2.62
430.007	2.54
430.214	2.81
430.421	2.73
430.628	2.77
430.835	2.63
431.042	2.66
431.249	2.52
431.456	2.72
431.662	2.8
431.869	2.9
432.076	2.95
432.283	3.03
432.49	2.95
432.697	3
432.903	3.03
433.11	2.98
433.317	2.96
433.524	2.99
433.73	2.88
433.937	2.78
434.144	2.74
434.35	2.81
434.557	2.88
434.764	3.01
434.97	3.1
435.177	3.12
435.384	3.09
435.59	3.02
435.797	2.98
436.003	2.86
436.21	2.93
436.416	2.93
436.623	2.88
436.829	2.84
437.036	2.96
437.242	2.93
437.449	2.88
437.655	3.02
437.862	3.08
438.068	3.02
438.275	3.03
438.481	3.07
438.687	3.05
438.894	3.12
439.1	3.29
439.307	3.19
439.513	3.2
439.719	3.1
439.926	2.97
440.132	3
440.338	3.19
440.544	3.21
440.751	3.26
440.957	3.37
441.163	3.33
441.369	3.27
441.575	3.21
441.782	3.3
441.988	3.37
442.194	3.39
442.4	3.45
442.606	3.62
442.812	3.67
443.018	3.49
443.224	3.4
443.431	3.34
443.637	3.28
443.843	3.21
444.049	3.35
444.255	3.36
444.461	3.46
444.667	3.51
444.873	3.44
445.079	3.4
445.284	3.48
445.49	3.43
445.696	3.4
445.902	3.55
446.108	3.58
446.314	3.58
446.52	3.66
446.726	3.65
446.931	3.63
447.137	3.63
447.343	3.62
447.549	3.52
447.755	3.59
447.96	3.56
448.166	3.5
448.372	3.5
448.578	3.52
448.783	3.39
448.989	3.36
449.195	3.34
449.4	3.32
449.606	3.27
449.812	3.28
450.017	3.32
450.223	3.38
450.428	3.55
450.634	3.67
450.84	3.71
451.045	3.82
451.251	3.81
451.456	3.72
451.662	3.63
451.867	3.65
452.073	3.6
452.278	3.63
452.483	3.72
452.689	3.7
452.894	3.77
453.1	3.69
453.305	3.72
453.51	3.73
453.716	3.78
453.921	3.89
454.127	3.94
454.332	3.98
454.537	3.88
454.742	3.98
454.948	3.84
455.153	3.84
455.358	3.82
455.563	3.79
455.769	3.81
455.974	3.88
456.179	3.9
456.384	3.89
456.589	3.97
456.795	3.92
457	3.88
457.205	3.9
457.41	3.85
457.615	3.83
457.82	3.81
458.025	3.83
458.23	3.85
458.435	3.82
458.64	3.79
458.845	3.81
459.05	3.78
459.255	3.78
459.46	3.81
459.665	3.82
459.87	3.84
460.075	3.82
460.28	3.86
460.485	3.9
460.69	3.94
460.895	3.85
461.099	3.79
461.304	3.76
461.509	3.73
461.714	3.81
461.919	3.87
462.123	3.94
462.328	4.05
462.533	4.18
462.738	4.16
462.942	4.19
463.147	4.31
463.352	4.14
463.556	4.11
463.761	4.11
463.966	4.07
464.17	3.95
464.375	4.12
464.58	4.08
464.784	4.02
464.989	4.04
465.193	4.02
465.398	3.92
465.602	3.94
465.807	3.99
466.011	3.95
466.216	4.04
466.42	4.03
466.625	4.17
466.829	4.14
467.034	4.2
467.238	4.23
467.443	4.29
467.647	4.22
467.851	4.27
468.056	4.24
468.26	4.22
468.464	4.25
468.669	4.23
468.873	4.22
469.077	4.29
469.282	4.36
469.486	4.31
469.69	4.3
469.894	4.24
470.099	4.29
470.303	4.2
470.507	4.22
470.711	4.26
470.915	4.36
471.119	4.39
471.324	4.56
471.528	4.57
471.732	4.54
471.936	4.53
472.14	4.43
472.344	4.33
472.548	4.3
472.752	4.4
472.956	4.34
473.16	4.35
473.364	4.47
473.568	4.57
473.772	4.51
473.976	4.57
474.18	4.64
474.384	4.56
474.588	4.51
474.792	4.56
474.995	4.53
475.199	4.59
475.403	4.59
475.607	4.59
475.811	4.58
476.015	4.62
476.218	4.55
476.422	4.57
476.626	4.62
476.83	4.59
477.033	4.61
477.237	4.53
477.441	4.48
477.644	4.46
477.848	4.46
478.052	4.43
478.255	4.51
478.459	4.55
478.663	4.56
478.866	4.69
479.07	4.66
479.273	4.7
479.477	4.68
479.681	4.68
479.884	4.61
480.088	4.62
480.291	4.59
480.495	4.57
480.698	4.59
480.901	4.56
481.105	4.59
481.308	4.61
481.512	4.63
481.715	4.63
481.919	4.7
482.122	4.66
482.325	4.64
482.529	4.69
482.732	4.65
482.935	4.59
483.138	4.65
483.342	4.63
483.545	4.66
483.748	4.71
483.952	4.77
484.155	4.8
484.358	4.83
484.561	4.79
484.764	4.76
484.967	4.73
485.171	4.66
485.374	4.68
485.577	4.68
485.78	4.7
485.983	4.69
486.186	4.75
486.389	4.73
486.592	4.75
486.795	4.76
486.998	4.78
487.201	4.72
487.404	4.76
487.607	4.79
487.81	4.78
488.013	4.72
488.216	4.78
488.419	4.71
488.622	4.71
488.825	4.71
489.028	4.78
489.231	4.73
489.433	4.77
489.636	4.74
489.839	4.73
490.042	4.72
490.245	4.8
490.447	4.76
490.65	4.69
490.853	4.69
491.056	4.62
491.258	4.62
491.461	4.64
491.664	4.64
491.866	4.65
492.069	4.7
492.272	4.71
492.474	4.73
492.677	4.78
492.879	4.78
493.082	4.71
493.285	4.62
493.487	4.63
493.69	4.69
493.892	4.66
494.095	4.72
494.297	4.77
494.5	4.72
494.702	4.67
494.905	4.75
495.107	4.73
495.309	4.73
495.512	4.75
495.714	4.77
495.917	4.74
496.119	4.74
496.321	4.74
496.524	4.77
496.726	4.79
496.928	4.78
497.13	4.9
497.333	4.96
497.535	4.92
497.737	4.9
497.939	4.96
498.142	4.86
498.344	4.79
498.546	4.81
498.748	4.76
498.95	4.75
499.152	4.78
499.355	4.8
499.557	4.75
499.759	4.74
499.961	4.68
500.163	4.69
500.365	4.69
500.567	4.75
500.769	4.86
500.971	4.89
501.173	4.84
501.375	4.79
501.577	4.76
501.779	4.7
501.981	4.74
502.183	4.78
502.385	4.81
502.587	4.79
502.788	4.78
502.99	4.7
503.192	4.75
503.394	4.83
503.596	4.87
503.798	4.89
503.999	4.96
504.201	4.92
504.403	4.85
504.605	4.84
504.806	4.96
505.008	4.98
505.21	4.97
505.411	5.05
505.613	5.11
505.815	5.06
506.016	4.97
506.218	4.97
506.42	4.98
506.621	4.9
506.823	4.89
507.024	4.91
507.226	4.94
507.427	4.93
507.629	5.06
507.83	5.04
508.032	5.07
508.233	5.02
508.435	5.01
508.636	4.98
508.838	4.97
509.039	4.97
509.24	4.98
509.442	4.95
509.643	4.93
509.845	4.95
510.046	4.94
510.247	4.92
510.448	4.93
510.65	4.98
510.851	4.95
511.052	4.99
511.254	5.09
511.455	5.07
511.656	4.93
511.857	4.92
512.058	4.92
512.26	4.77
512.461	4.84
512.662	4.93
512.863	4.98
513.064	5.01
513.265	5.06
513.466	5.08
513.667	5.08
513.868	5.07
514.069	5.04
514.27	4.99
514.471	4.98
514.672	4.96
514.873	4.99
515.074	5.01
515.275	5.1
515.476	5.09
515.677	5.13
515.878	5.11
516.079	5.06
516.28	5.06
516.481	5.11
516.682	5.14
516.882	5.21
517.083	5.25
517.284	5.26
517.485	5.2
517.686	5.21
517.886	5.19
518.087	5.21
518.288	5.19
518.488	5.2
518.689	5.18
518.89	5.14
519.091	5.16
519.291	5.16
519.492	5.17
519.692	5.2
519.893	5.16
520.094	5.16
520.294	5.16
520.495	5.17
520.695	5.13
520.896	5.17
521.096	5.19
521.297	5.2
521.497	5.2
521.698	5.21
521.898	5.17
522.099	5.16
522.299	5.17
522.499	5.19
522.7	5.21
522.9	5.38
523.101	5.32
523.301	5.34
523.501	5.33
523.702	5.35
523.902	5.28
524.102	5.36
524.302	5.41
524.503	5.48
524.703	5.44
524.903	5.47
525.103	5.45
525.304	5.46
525.504	5.41
525.704	5.45
525.904	5.46
526.104	5.51
526.304	5.51
526.504	5.53
526.705	5.53
526.905	5.51
527.105	5.48
527.305	5.45
527.505	5.48
527.705	5.51
527.905	5.58
528.105	5.59
528.305	5.6
528.505	5.58
528.705	5.58
528.905	5.55
529.105	5.55
529.304	5.6
529.504	5.65
529.704	5.68
529.904	5.7
530.104	5.74
530.304	5.73
530.503	5.73
530.703	5.73
530.903	5.7
531.103	5.71
531.303	5.72
531.502	5.74
531.702	5.73
531.902	5.78
532.101	5.76
532.301	5.76
532.501	5.75
532.7	5.79
532.9	5.79
533.1	5.81
533.299	5.89
533.499	5.88
533.698	5.91
533.898	5.89
534.097	5.88
534.297	5.81
534.496	5.79
534.696	5.78
534.895	5.82
535.095	5.87
535.294	5.89
535.494	5.93
535.693	5.93
535.892	5.95
536.092	5.98
536.291	6.03
536.491	6.08
536.69	6.12
536.889	6.13
537.088	6.08
537.288	6.12
537.487	6.12
537.686	6.13
537.886	6.09
538.085	6.12
538.284	6.11
538.483	6.13
538.682	6.13
538.882	6.17
539.081	6.18
539.28	6.2
539.479	6.26
539.678	6.29
539.877	6.33
540.076	6.42
540.275	6.46
540.474	6.38
540.673	6.44
540.872	6.43
541.071	6.43
541.27	6.46
541.469	6.52
541.668	6.5
541.867	6.56
542.066	6.62
542.265	6.67
542.464	6.8
542.663	6.82
542.862	6.91
543.06	6.94
543.259	6.92
543.458	6.87
543.657	6.94
543.856	6.96
544.054	6.93
544.253	6.97
544.452	7.04
544.651	7.01
544.849	7.01
545.048	7.11
545.247	7.13
545.445	7.15
545.644	7.27
545.843	7.31
546.041	7.28
546.24	7.31
546.438	7.38
546.637	7.41
546.836	7.47
547.034	7.54
547.233	7.6
547.431	7.64
547.63	7.72
547.828	7.77
548.027	7.82
548.225	7.86
548.423	7.9
548.622	7.83
548.82	7.84
549.019	7.93
549.217	7.95
549.415	8.05
549.614	8.26
549.812	8.31
550.01	8.35
550.209	8.44
550.407	8.41
550.605	8.44
550.803	8.5
551.002	8.57
551.2	8.63
551.398	8.76
551.596	8.78
551.794	8.86
551.993	8.94
552.191	9
552.389	9.05
552.587	9.15
552.785	9.21
552.983	9.23
553.181	9.27
553.379	9.3
553.577	9.39
553.775	9.51
553.973	9.57
554.171	9.65
554.369	9.78
554.567	9.8
554.765	9.86
554.963	9.89
555.161	10.03
555.359	10.09
555.557	10.16
555.755	10.24
555.952	10.37
556.15	10.45
556.348	10.48
556.546	10.52
556.744	10.56
556.941	10.62
557.139	10.67
557.337	10.82
557.535	10.95
557.732	11.02
557.93	11.13
558.128	11.18
558.325	11.18
558.523	11.25
558.721	11.39
558.918	11.44
559.116	11.51
559.313	11.59
559.511	11.66
559.708	11.74
559.906	11.92
560.104	11.96
560.301	12.01
560.498	12.06
560.696	12.1
560.893	12.11
561.091	12.27
561.288	12.38
561.486	12.47
561.683	12.53
561.88	12.6
562.078	12.58
562.275	12.56
562.473	12.6
562.67	12.66
562.867	12.75
563.064	12.9
563.262	13.07
563.459	13.17
563.656	13.22
563.853	13.26
564.051	13.31
564.248	13.43
564.445	13.48
564.642	13.57
564.839	13.64
565.036	13.73
565.234	13.73
565.431	13.8
565.628	13.85
565.825	13.9
566.022	13.96
566.219	14.02
566.416	14.1
566.613	14.19
566.81	14.29
567.007	14.35
567.204	14.42
567.401	14.45
567.598	14.4
567.795	14.36
567.991	14.33
568.188	14.32
568.385	14.28
568.582	14.4
568.779	14.43
568.976	14.44
569.172	14.55
569.369	14.64
569.566	14.65
569.763	14.61
569.96	14.66
570.156	14.53
570.353	14.52
570.55	14.59
570.746	14.76
570.943	14.83
571.14	14.95
571.336	15.02
571.533	15.06
571.729	15.05
571.926	15.1
572.123	15.09
572.319	15.12
572.516	15.04
572.712	15.03
572.909	15
573.105	15
573.302	14.99
573.498	15.04
573.695	14.98
573.891	14.93
574.087	14.96
574.284	15
574.48	14.98
574.677	15
574.873	15.04
575.069	15
575.266	14.95
575.462	14.91
575.658	14.93
575.854	14.92
576.051	14.89
576.247	14.86
576.443	14.86
576.639	14.88
576.835	14.75
577.032	14.79
577.228	14.76
577.424	14.74
577.62	14.71
577.816	14.8
578.012	14.82
578.208	14.78
578.404	14.82
578.6	14.77
578.796	14.8
578.993	14.78
579.189	14.77
579.384	14.67
579.58	14.64
579.776	14.59
579.972	14.57
580.168	14.72
580.364	14.74
580.56	14.77
580.756	14.73
580.952	14.67
581.148	14.53
581.343	14.48
581.539	14.5
581.735	14.46
581.931	14.38
582.127	14.36
582.322	14.28
582.518	14.21
582.714	14.18
582.909	14.15
583.105	14.16
583.301	14.18
583.496	14.19
583.692	14.16
583.888	14.23
584.083	14.15
584.279	14.23
584.474	14.2
584.67	14.23
584.866	14.24
585.061	14.31
585.257	14.22
585.452	14.12
585.648	14.14
585.843	14.08
586.039	14.04
586.234	14
586.429	14.03
586.625	14.03
586.82	14.04
587.015	13.97
587.211	13.97
587.406	13.98
587.601	13.9
587.797	13.86
587.992	13.84
588.187	13.84
588.383	13.87
588.578	13.92
588.773	13.96
588.968	14.08
589.163	14.17
589.359	14.18
589.554	14.2
589.749	14.22
589.944	14.14
590.139	14.07
590.334	14.13
590.529	14.11
590.724	14.09
590.919	14.12
591.114	14.21
591.309	14.07
591.504	14.16
591.699	14.13
591.894	14.25
592.089	14.26
592.284	14.42
592.479	14.36
592.674	14.49
592.869	14.36
593.064	14.41
593.259	14.39
593.454	14.48
593.648	14.46
593.843	14.52
594.038	14.57
594.233	14.58
594.428	14.61
594.622	14.66
594.817	14.76
595.012	14.8
595.206	14.9
595.401	14.95
595.596	15.03
595.79	15.12
595.985	15.12
596.18	15.2
596.374	15.18
596.569	15.24
596.763	15.27
596.958	15.33
597.153	15.32
597.347	15.47
597.542	15.46
597.736	15.57
597.931	15.64
598.125	15.71
598.319	15.74
598.514	15.88
598.708	15.94
598.903	15.97
599.097	16.08
599.291	16.12
599.486	16.18
599.68	16.15
599.874	16.23
600.069	16.25
600.263	16.36
600.457	16.42
600.651	16.47
600.846	16.51
601.04	16.48
601.234	16.41
601.428	16.34
601.622	16.43
601.817	16.46
602.011	16.52
602.205	16.68
602.399	16.76
602.593	16.77
602.787	16.77
602.981	16.85
603.175	16.73
603.369	16.74
603.563	16.71
603.757	16.65
603.951	16.53
604.145	16.53
604.339	16.48
604.533	16.5
604.727	16.51
604.921	16.53
605.115	16.54
605.309	16.5
605.502	16.41
605.696	16.37
605.89	16.35
606.084	16.33
606.278	16.32
606.471	16.33
606.665	16.29
606.859	16.19
607.053	16.14
607.246	16.08
607.44	15.99
607.634	15.94
607.827	15.9
608.021	15.9
608.214	15.9
608.408	15.84
608.602	15.9
608.795	15.92
608.989	15.85
609.182	15.72
609.376	15.64
609.569	15.57
609.763	15.55
609.956	15.41
610.15	15.41
610.343	15.43
610.537	15.32
610.73	15.17
610.923	15.19
611.117	15.1
611.31	14.99
611.504	14.93
611.697	14.91
611.89	14.8
612.083	14.79
612.277	14.75
612.47	14.72
612.663	14.63
612.856	14.56
613.05	14.5
613.243	14.39
613.436	14.28
613.629	14.23
613.822	14.19
614.015	14.09
614.209	14.06
614.402	14.02
614.595	13.97
614.788	13.93
614.981	13.87
615.174	13.78
615.367	13.71
615.56	13.65
615.753	13.59
615.946	13.66
616.139	13.61
616.332	13.67
616.525	13.66
616.718	13.66
616.911	13.53
617.103	13.57
617.296	13.44
617.489	13.37
617.682	13.38
617.875	13.35
618.067	13.26
618.26	13.24
618.453	13.21
618.646	13.09
618.838	13.15
619.031	13.12
619.224	13.11
619.417	13.17
619.609	13.2
619.802	13.09
619.994	13.02
620.187	12.95
620.38	12.89
620.572	12.81
620.765	12.78
620.957	12.83
621.15	12.76
621.342	12.73
621.535	12.71
621.727	12.65
621.92	12.63
622.112	12.6
622.305	12.52
622.497	12.55
622.69	12.57
622.882	12.5
623.074	12.54
623.267	12.48
623.459	12.4
623.651	12.3
623.844	12.37
624.036	12.39
624.228	12.41
624.42	12.38
624.613	12.4
624.805	12.3
624.997	12.22
625.189	12.3
625.381	12.3
625.574	12.34
625.766	12.35
625.958	12.37
626.15	12.3
626.342	12.23
626.534	12.22
626.726	12.22
626.918	12.18
627.11	12.23
627.302	12.19
627.494	12.18
627.686	12.08
627.878	12.04
628.07	11.96
628.262	11.94
628.454	11.87
628.646	11.84
628.838	11.83
629.029	11.72
629.221	11.73
629.413	11.71
629.605	11.68
629.797	11.67
629.989	11.64
630.18	11.59
630.372	11.45
630.564	11.43
630.755	11.39
630.947	11.37
631.139	11.36
631.33	11.37
631.522	11.35
631.714	11.34
631.905	11.37
632.097	11.29
632.289	11.35
632.48	11.3
632.672	11.18
632.863	11.07
633.055	11.13
633.246	11.17
633.438	11.22
633.629	11.3
633.821	11.33
634.012	11.28
634.203	11.18
634.395	11.16
634.586	11.17
634.777	11.07
634.969	11.09
635.16	11.14
635.351	11.14
635.543	11.07
635.734	11.09
635.925	11.08
636.117	10.98
636.308	10.94
636.499	10.89
636.69	10.94
636.881	10.96
637.073	10.97
637.264	10.94
637.455	11.03
637.646	10.94
637.837	10.98
638.028	11.03
638.219	11.1
638.41	11.03
638.601	11.09
638.792	10.93
638.983	10.87
639.174	10.82
639.365	10.86
639.556	10.83
639.747	10.81
639.938	10.79
640.129	10.71
640.32	10.61
640.511	10.62
640.701	10.66
640.892	10.63
641.083	10.61
641.274	10.69
641.465	10.64
641.655	10.58
641.846	10.56
642.037	10.64
642.228	10.48
642.418	10.45
642.609	10.37
642.8	10.38
642.99	10.33
643.181	10.37
643.372	10.35
643.562	10.42
643.753	10.37
643.943	10.32
644.134	10.38
644.324	10.35
644.515	10.36
644.705	10.42
644.896	10.44
645.086	10.42
645.277	10.35
645.467	10.27
645.658	10.2
645.848	10.15
646.038	10.05
646.229	10.04
646.419	10.04
646.61	10
646.8	10.01
646.99	10.05
647.18	10.08
647.371	10.04
647.561	10.03
647.751	10.04
647.941	10.06
648.132	10.16
648.322	10.19
648.512	10.25
648.702	10.23
648.892	10.15
649.082	10.1
649.272	10.11
649.462	10.02
649.653	9.97
649.843	10.04
650.033	10.02
650.223	9.85
650.413	9.88
650.603	9.88
650.793	9.85
650.983	9.8
651.172	9.91
651.362	9.92
651.552	9.87
651.742	9.77
651.932	9.73
652.122	9.76
652.312	9.65
652.502	9.55
652.691	9.55
652.881	9.49
653.071	9.37
653.261	9.27
653.45	9.24
653.64	9.22
653.83	9.22
654.019	9.17
654.209	9.11
654.399	9.08
654.588	8.95
654.778	8.78
654.968	8.67
655.157	8.77
655.347	8.68
655.536	8.61
655.726	8.49
655.915	8.44
656.105	8.26
656.294	8.17
656.484	8.02
656.673	8.03
656.863	7.94
657.052	7.88
657.241	7.88
657.431	7.84
657.62	7.8
657.809	7.71
657.999	7.54
658.188	7.41
658.377	7.4
658.567	7.27
658.756	7.18
658.945	7.13
659.134	7
659.324	6.82
659.513	6.75
659.702	6.6
659.891	6.62
660.08	6.55
660.269	6.45
660.458	6.34
660.648	6.35
660.837	6.22
661.026	6.16
661.215	6.18
661.404	6.1
661.593	5.92
661.782	5.82
661.971	5.72
662.16	5.69
662.349	5.57
662.538	5.6
662.726	5.64
662.915	5.66
663.104	5.47
663.293	5.51
663.482	5.44
663.671	5.29
663.86	5.26
664.048	5.27
664.237	5.24
664.426	5.24
664.615	5.19
664.803	5.03
664.992	5.04
665.181	5.01
665.369	4.93
665.558	4.9
665.747	4.96
665.935	4.99
666.124	4.96
666.312	4.92
666.501	5.02
666.69	5.01
666.878	4.94
667.067	4.89
667.255	5.01
667.444	4.84
667.632	4.82
667.82	4.83
668.009	4.84
668.197	4.82
668.386	4.94
668.574	4.96
668.762	4.88
668.951	4.92
669.139	4.89
669.327	4.92
669.516	4.87
669.704	4.88
669.892	4.98
670.08	4.96
670.269	5.02
670.457	5.04
670.645	5.1
670.833	5
671.021	4.95
671.21	4.92
671.398	5
671.586	4.97
671.774	5.08
671.962	5.3
672.15	5.33
672.338	5.38
672.526	5.49
672.714	5.48
672.902	5.37
673.09	5.32
673.278	5.35
673.466	5.38
673.654	5.42
673.842	5.56
674.03	5.73
674.218	5.72
674.405	5.83
674.593	5.81
674.781	5.82
674.969	5.73
675.157	5.75
675.344	5.81
675.532	5.8
675.72	5.81
675.908	5.9
676.095	5.96
676.283	5.91
676.471	5.87
676.658	5.94
676.846	5.94
677.033	6
677.221	6.03
677.409	6.19
677.596	6.27
677.784	6.17
677.971	6.21
678.159	6.32
678.346	6.39
678.534	6.4
678.721	6.57
678.909	6.59
679.096	6.6
679.283	6.64
679.471	6.74
679.658	6.82
679.846	6.92
680.033	6.97
680.22	7.01
680.408	6.92
680.595	6.84
680.782	6.83
680.969	6.87
681.157	7.01
681.344	7.08
681.531	7.32
681.718	7.42
681.905	7.5
682.093	7.38
682.28	7.45
682.467	7.57
682.654	7.58
682.841	7.78
683.028	7.98
683.215	8.18
683.402	8.26
683.589	8.44
683.776	8.4
683.963	8.54
684.15	8.59
684.337	8.62
684.524	8.7
684.711	8.7
684.898	8.8
685.085	8.9
685.271	9.06
685.458	9.18
685.645	9.48
685.832	9.67
686.019	9.94
686.205	10.05
686.392	10.28
686.579	10.44
686.766	10.52
686.952	10.63
687.139	10.89
687.326	11.08
687.512	11.25
687.699	11.62
687.886	11.77
688.072	11.9
688.259	12.09
688.445	12.35
688.632	12.66
688.818	13.04
689.005	13.42
689.191	13.75
689.378	14.11
689.564	14.27
689.751	14.57
689.937	14.93
690.124	15.34
690.31	15.64
690.496	16.17
690.683	16.72
690.869	17.06
691.055	17.48
691.242	17.86
691.428	18.26
691.614	18.56
691.8	19.16
691.987	19.69
692.173	20.16
692.359	20.7
692.545	21.38
692.731	21.89
692.918	22.28
693.104	22.99
693.29	23.3
693.476	23.67
693.662	24.18
693.848	24.85
694.034	25.31
694.22	25.8
694.406	26.56
694.592	27.15
694.778	27.66
694.964	28.28
695.15	29.16
695.336	29.51
695.522	29.96
695.708	30.54
695.894	31.18
696.08	31.55
696.265	32.13
696.451	32.73
696.637	33.59
696.823	34.11
697.009	34.93
697.194	35.6
697.38	36.31
697.566	36.64
697.751	37.17
697.937	37.73
698.123	38.39
698.308	38.91
698.494	39.59
698.68	40.27
698.865	40.91
699.051	41.44
699.236	42.19
699.422	42.53
699.607	43
699.793	43.11
699.978	43.6
700.164	43.92
700.349	44.42
700.535	44.77
700.72	45.31
700.906	45.92
701.091	46.34
701.276	46.9
701.462	47.43
701.647	48.31
701.832	48.83
702.018	49.26
702.203	49.95
702.388	50.88
702.573	51.23
702.759	51.6
702.944	52.1
703.129	52.23
703.314	52.13
703.499	52.4
703.684	52.74
703.87	52.81
704.055	53.32
704.24	53.69
704.425	54.23
704.61	54.55
704.795	55.5
704.98	55.92
705.165	56.56
705.35	57.03
705.535	57.06
705.72	57.27
705.905	57.6
706.09	57.74
706.275	57.72
706.459	58.36
706.644	58.46
706.829	58.81
707.014	59.15
707.199	59.54
707.384	59.73
707.568	60.2
707.753	60.65
707.938	60.71
708.123	61.09
708.307	61.66
708.492	61.91
708.677	61.93
708.861	62.64
709.046	63.16
709.231	63.24
709.415	63.2
709.6	63.13
709.784	63.06
709.969	62.68
710.153	63.01
710.338	63.49
710.522	64
710.707	64.25
710.891	64.62
711.076	64.57
711.26	64.5
711.445	64.53
711.629	64.74
711.813	65.09
711.998	65.51
712.182	65.81
712.366	66.43
712.551	66.87
712.735	66.96
712.919	66.87
713.103	67.01
713.288	66.92
713.472	66.95
713.656	67.37
713.84	67.42
714.024	67.74
714.208	67.61
714.393	67.27
714.577	67.24
714.761	67.68
714.945	67.33
715.129	67.77
715.313	68.24
715.497	68.1
715.681	68.37
715.865	69
716.049	68.98
716.233	69.22
716.417	69.62
716.601	69.64
716.785	70.02
716.968	70.27
717.152	70.35
717.336	70.82
717.52	70.63
717.704	70.68
717.888	71.05
718.071	71.39
718.255	70.91
718.439	71.53
718.622	71.39
718.806	70.91
718.99	70.78
719.174	70.64
719.357	70.03
719.541	70.19
719.724	70.69
719.908	70.78
720.092	71.31
720.275	72.01
720.459	72.12
720.642	71.88
720.826	72.3
721.009	72.23
721.193	71.74
721.376	71.46
721.559	71.35
721.743	71.31
721.926	71.05
722.11	71.63
722.293	71.7
722.476	71.54
722.66	71.58
722.843	71.85
723.026	71.68
723.21	72.36
723.393	72.63
723.576	73.13
723.759	73.23
723.942	73.73
724.126	73.48
724.309	73.82
724.492	73.05
724.675	73.57
724.858	73.23
725.041	73.15
725.224	73.29
725.407	74.23
725.59	74.12
725.774	74.63
725.957	75.2
726.14	75.92
726.322	75.84
726.505	76.34
726.688	76.08
726.871	75.95
727.054	75.79
727.237	76.4
727.42	76.05
727.603	76.3
727.786	76.13
727.968	75.46
728.151	74.13
728.334	74.15
728.517	74.04
728.699	74.52
728.882	75.15
729.065	75.87
729.248	75.69
729.43	76.35
729.613	75.69
729.796	75.75
729.978	75.49
730.161	75.67
730.343	76
730.526	77.09
730.708	77.16
730.891	78.16
731.073	78.98
731.256	78.45
731.438	78.2
731.621	77.31
731.803	77.11
731.986	76.63
732.168	76.54
732.35	76.8
732.533	78.16
732.715	78.69
732.898	79.16
733.08	79.55
733.262	79.44
733.444	79.21
733.627	78.49
733.809	78.7
733.991	79.58
734.173	79.2
734.355	79.82
734.538	80.24
734.72	80
734.902	79.07
735.084	79.94
735.266	79.42
735.448	79.36
735.63	79.34
735.812	79.72
735.994	79.5
736.176	78.79
736.358	78.68
736.54	79.28
736.722	78.18
736.904	78.5
737.086	79.79
737.268	80.21
737.45	80.03
737.632	81.72
737.814	80.49
737.995	80.74
738.177	80.34
738.359	79.99
738.541	79.38
738.723	80.88
738.904	80.3
739.086	79.97
739.268	80.17
739.449	80.61
739.631	81.36
739.813	81.38
739.994	82.45
740.176	82.58
740.358	81.95
740.539	80.74
740.721	80.2
740.902	79.68
741.084	78.99
741.265	79.41
741.447	79.5
741.628	80.77
741.81	80.17
741.991	80.25
742.172	80.09
742.354	80.77
742.535	80.55
742.717	81.51
742.898	81.9
743.079	82
743.261	82.02
743.442	83.11
743.623	82.51
743.804	83.54
743.986	83.92
744.167	82.63
744.348	81.05
744.529	80.8
744.71	80.54
744.891	80.14
745.073	81.32
745.254	81.04
745.435	82.19
745.616	81.81
745.797	81.29
745.978	80.05
746.159	80.13
746.34	79.55
746.521	80.08
746.702	80.42
746.883	80.93
747.064	80.87
747.245	81.9
747.426	81.2
747.606	81.35
747.787	81.17
747.968	81.65
748.149	81.18
748.33	81.81
748.51	82.09
748.691	82.88
748.872	82.12
749.053	81.66
749.233	81.1
749.414	80.4
749.595	79.73
749.775	80.54
749.956	80.14
750.137	79.65
750.317	80.38
750.498	80.82
750.678	81.25
750.859	82.16
751.04	82.28
751.22	82.18
751.4	82.94
751.581	81.69
751.761	82.19
751.942	81.76
752.122	82.57
752.303	82.39
752.483	82.69
752.663	81.28
752.844	82.17
753.024	81.5
753.204	80.79
753.385	82.02
753.565	83
753.745	83.11
753.925	83.24
754.106	84.51
754.286	83.6
754.466	82.62
754.646	82.43
754.826	83.22
755.006	83.5
755.187	83.22
755.367	83.64
755.547	83.3
755.727	81.62
755.907	80.5
756.087	80.02
756.267	80.2
756.447	80.22
756.627	80.99
756.807	80.04
756.987	80.8
757.167	80.78
757.346	80.98
757.526	80.76
757.706	80.1
757.886	80.37
758.066	79.63
758.246	80.73
758.425	79.75
758.605	81.74
758.785	82.71
758.965	84.2
759.144	83.71
759.324	84.27
759.504	83.61
759.683	82.58
759.863	81.74
760.043	81.03
760.222	81.46
760.402	81.13
760.581	80.84
760.761	81.58
760.94	81.77
761.12	82.43
761.299	83.3
761.479	83.29
761.658	82.6
761.838	82.75
762.017	81.98
762.197	81.75
762.376	81.45
762.555	82.38
762.735	81.77
762.914	81.78
763.093	82.24
763.273	83.45
763.452	82.73
763.631	82.15
763.81	82.27
763.99	81.22
764.169	81.37
764.348	80.73
764.527	81.2
764.706	80.54
764.885	79.69
765.064	79.33
765.243	79.46
765.423	80.18
765.602	80.74
765.781	81.41
765.96	81.24
766.139	80.57
766.318	80.51
766.497	79.41
766.676	77.52
766.854	76.87
767.033	77.48
767.212	76.73
767.391	77.32
767.57	80.31
767.749	80.25
767.928	79.3
768.106	80.73
768.285	80.89
768.464	80.11
768.643	79.31
768.821	78.69
769	77.46
769.179	76.65
769.357	76.17
769.536	76.99
769.715	76.01
769.893	75.49
770.072	76.59
770.25	77.4
770.429	76.98
770.607	79.58
770.786	80.4
770.964	79.75
771.143	78.28
771.321	79.03
771.5	78.06
771.678	77.05
771.857	77.25
772.035	76.89
772.213	75.18
772.392	75.46
772.57	75.97
772.748	74.54
772.927	75.15
773.105	76.91
773.283	76.49
773.461	76.28
773.64	77.98
773.818	78.19
773.996	79.1
774.174	79.21
774.352	79.17
774.531	79.07
774.709	78.49
774.887	76.71
775.065	77.57
775.243	77.59
775.421	76.66
775.599	77.82
775.777	77.03
775.955	76.89
776.133	77.81
776.311	78.39
776.489	76.84
776.667	76.03
776.844	75.39
777.022	74.14
777.2	74.62
777.378	75.01
777.556	74.45
777.734	74.22
777.911	74.04
778.089	72.42
778.267	71.7
778.445	73.1
778.622	74.24
778.8	75.77
778.978	77.51
779.155	75.92
779.333	75.36
779.511	74.37
779.688	72.72
779.866	73.92
780.043	76
780.221	75.58
780.398	76.65
780.576	77.82
780.753	75.95
780.931	76.22
781.108	78.34
781.286	76.43
781.463	75.56
781.64	74.62
781.818	74.31
781.995	73.96
782.172	75.66
782.35	76.39
782.527	77.45
782.704	76.76
782.882	78.2
783.059	79.32
783.236	79.85
783.413	78.83
783.59	80.23
783.768	79.35
783.945	74.04
784.122	73.49
784.299	70.97
784.476	68.79
784.653	68.31
784.83	73.2
785.007	71.84
785.184	74.53
785.361	76.15
785.538	76.94
785.715	75.49
785.892	78.02
786.069	76.64
786.246	75.34
786.423	70.98
786.6	69.71
786.776	66.45
786.953	66.49
787.13	66.23
787.307	67.33
787.484	69.13
787.66	68.05
787.837	69.64
788.014	71.2
788.191	69.59
788.367	67.48
788.544	68.87
788.721	69.5
788.897	70.03
789.074	71.67
789.25	71.53
789.427	72.45
789.603	71.84
789.78	71.02
789.956	71.52
790.133	73.49
790.309	69.29
790.486	69.14
790.662	70.16
790.839	70.08
791.015	69.14
791.192	69.73
791.368	71.03
791.544	70.97
791.721	71.78
791.897	68.18
792.073	72.52
792.249	68.83
792.426	69.33
792.602	65.17
792.778	68.32
792.954	67.23
793.13	67.53
793.307	66.01
793.483	69.53
793.659	69.21
793.835	69.08
794.011	69.67
794.187	69.76
794.363	71.01
794.539	70.96
794.715	72.38
794.891	74.04
795.067	71.31
795.243	67.11
795.419	66.29
795.595	63.97
795.771	62.81
795.947	65.29
796.122	69.26
796.298	70.5
796.474	71
796.65	72.97
796.826	72.75
797.001	73.31
797.177	70.64
797.353	69.78
797.529	66.76
797.704	67.27
797.88	68.5
798.056	65.77
798.231	67.93
798.407	69.41
798.582	69.23
798.758	66.77
798.934	68.74
799.109	64.43
799.285	63.35
799.46	63.43
799.636	62.28
799.811	62.28
799.986	66.57
800.162	62.79
800.337	63.22
800.513	62.38
800.688	66.55
800.863	67.81
801.039	75.55
801.214	73.82
801.389	76.8
801.565	72.43
801.74	72.18
801.915	69.7
802.09	70.69
802.265	66.86
802.441	66.88
802.616	62.88
802.791	61.77
802.966	57.93
803.141	60.75
803.316	65.34
803.491	69.6
803.666	76.72
803.841	76.6
804.016	74.93
804.191	73.02
804.366	70.88
804.541	66.61
804.716	68.22
804.891	65.44
805.066	64.72
805.241	62.38
805.416	57.21
805.591	59.81
805.765	60.09
805.94	60
806.115	58.77
806.29	65.31
806.464	60.43
806.639	64.64
806.814	65.54
806.989	66.43
807.163	65.87
807.338	72.76
807.512	72.51
807.687	69.86
807.862	69.33
808.036	60.87
808.211	60.51
808.385	57.69
808.56	57.4
808.734	63.38
808.909	64.19
809.083	61.09
809.258	65.61
809.432	70.92
809.606	65.17
809.781	72.09
809.955	72.28
810.13	60.05
810.304	57.65
810.478	62.27
810.652	61.82
810.827	61.75
811.001	68
811.175	62.6
811.349	60.51
811.524	57.69
811.698	58.18
811.872	53.17
812.046	56.54
812.22	50.45
812.394	53.5
812.568	49.94
812.742	55.41
812.916	53.29
813.09	60.13
813.264	61.58
813.438	67.86
813.612	70.14
813.786	74.04
813.96	74.93
814.134	69.44
814.308	66.87
814.482	68.01
814.656	68.62
814.83	63.73
815.003	68.23
815.177	68
815.351	60.03
815.525	61.44
815.698	65.55
815.872	66.62
816.046	62.87
816.219	77.09
816.393	76.66
816.567	76.5
816.74	75.55
816.914	78.14
817.088	75.86
817.261	67.67
817.435	62.45
817.608	60.85
817.782	62.71
817.955	64.17
818.129	76.63
818.302	80.88
818.475	77.46
818.649	65.34
818.822	60.99
818.996	50.73
819.169	46.59
819.342	43.21
819.516	51.4
819.689	47.08
819.862	45.27
820.035	45.56
820.209	46.69
820.382	56.47
820.555	54.18
820.728	51.7
820.901	58.6
821.075	58.4
821.248	41.1
821.421	44.53
821.594	51.78
821.767	45.54
821.94	46.07
822.113	50.36
822.286	43.88
822.459	51.52
822.632	52.31
822.805	55.49
822.978	61.36
823.151	69.29
823.324	59.63
823.496	65.64
823.669	59.31
823.842	56.25
824.015	54.51
824.188	61.72
824.361	59.05
824.533	70.6
824.706	61.94
824.879	55.56
825.051	52.1
825.224	56.77
825.397	48.93
825.569	59.43
825.742	65.87
825.915	62.21
826.087	53.35
826.26	65
826.432	66.65
826.605	62.51
826.777	68.38
826.95	64.58
827.122	58.22
827.295	52.3
827.467	54.94
827.64	50.17
827.812	52.75
827.984	54.64
828.157	60.02
828.329	60.65
828.501	63.67
828.674	63.64
828.846	57.61
829.018	42.22
829.19	49.85
829.363	50.14
829.535	44.24
829.707	49.16
829.879	53.97
830.051	41.35
830.223	40.85
830.395	33.02
830.568	37.88
830.74	40.63
830.912	44.46
831.084	36.99
831.256	52.82
831.428	37.21
831.6	45.31
831.772	54.62
831.943	62.12
832.115	59.64
832.287	74.07
832.459	65.75
832.631	59.97
832.803	63.74
832.975	63.55
833.146	66.36
833.318	67.03
833.49	67.17
833.662	52.74
833.833	47.63
834.005	37.23
834.177	41.99
834.348	34.21
834.52	31.04
834.692	38.88
834.863	50.75
835.035	41.6
835.206	49.38
835.378	48.33
835.549	38.49
835.721	28.42
835.892	31.37
836.064	18.68
836.235	32.29
836.407	34.2
836.578	41.19
836.749	36.8
836.921	47.77
837.092	40.45
837.264	51.82
837.435	47.4
837.606	48.83
837.777	53.63
837.949	60.14
838.12	73.56
838.291	66.89
838.462	66.69
838.633	68.18
838.805	66.13
838.976	55.64
839.147	58.68
839.318	53.53
839.489	46.21
839.66	45.95
839.831	31.49
840.002	33.47
840.173	38.52
840.344	36.97
840.515	32.6
840.686	45.44
840.857	54.33
841.028	62.39
841.199	53.6
841.369	57.01
841.54	55.03
841.711	57.44
841.882	54.84
842.053	67.48
842.223	65.91
842.394	56.68
842.565	53.46
842.736	70.17
842.906	58.21
843.077	60.68
843.248	60.43
843.418	60.48
843.589	41.96
843.759	40.27
843.93	45.42
844.101	30.14
844.271	18.66
844.442	20.58
844.612	15.96
844.783	10.23
844.953	27.41
845.123	29.66
845.294	12.57
845.464	20.35
845.635	25.62
845.805	28.11
845.975	26.59
846.146	52.48
846.316	54.36
846.486	45.12
846.656	54.84
846.827	63.89
846.997	47.78
847.167	56.13
847.337	60.95
847.507	58.07
847.677	59.73
847.848	57.79
848.018	62.72
848.188	58.07
848.358	50.46
848.528	59.4
848.698	56.43
848.868	45.96
849.038	51.5
849.208	59.01
849.378	56.69
849.548	66.79
849.718	59.44
849.887	60.74
850.057	49.4
850.227	40.69
850.397	44.29
850.567	57.5
850.737	47.73
850.906	49.65
851.076	37.09
851.246	18.55
851.415	30.59
851.585	38.68
851.755	44.67
851.924	56.48
852.094	56
852.264	29.95
852.433	20.08
852.603	13.82
852.772	19.03
852.942	9.09
853.111	3.46
853.281	28.32
853.45	33.4
853.62	20.87
853.789	47.04
853.959	61.29
854.128	65.74
854.297	67.49
854.467	54.96
854.636	40.22
854.805	29.49
854.975	-7.08
855.144	2
855.313	21.36
855.482	44.71
855.652	64.21
855.821	73.31
855.99	68.03
856.159	60.6
856.328	60.24
856.497	48.98
856.667	37.33
856.836	37.72
857.005	65.25
857.174	63.47
857.343	56.93
857.512	71.3
857.681	68.81
857.85	60.76
858.019	41.47
858.188	33.51
858.356	25.21
858.525	34.69
858.694	10.54
858.863	33.33
859.032	33.61
859.201	-5.14
859.369	-20.39
859.538	-19.51
859.707	-12.34
859.876	-18.1
860.044	26.19
860.213	35.54
860.382	50.71
860.55	23.48
860.719	22.58
860.888	28.6
861.056	35.12
861.225	35.47
861.393	52.6
861.562	67.54
861.73	57.29
861.899	57.45
862.067	53.27
862.236	52.86
862.404	45.82
862.572	48.09
862.741	48.32
862.909	36.98
863.078	24.36
863.246	37.99
863.414	36.5
863.582	48.01
863.751	54.26
863.919	64.59
864.087	55.4
864.255	46.9
864.424	29.13
864.592	39.7
864.76	35.89
864.928	38.04
865.096	45.43
865.264	54.82
865.432	40.22
865.6	33.64
865.768	48.35
865.936	53.38
866.104	54.05
866.272	55.75
866.44	63.41
866.608	48.95
866.776	59.56
866.944	45.53
867.112	46.53
867.28	47.83
867.448	47.82
867.615	23.12
867.783	30.33
867.951	12.65
868.119	-12.04
868.286	-7.78
868.454	23.32
868.622	27.86
868.789	39.75
868.957	36.21
869.125	45.08
869.292	27.5
869.46	32.58
869.627	38.21
869.795	50.35
869.963	58.39
870.13	72.24
870.298	64.21
870.465	55.35
870.632	46.4
870.8	40.46
870.967	40.95
871.135	30.82
871.302	36.34
871.469	43.61
871.637	16.57
871.804	14.74
871.971	38.15
872.139	32.44
872.306	34.69
872.473	43.66
872.64	41.69
872.807	20
872.975	27.75
873.142	42.86
873.309	41.01
873.476	36.27
873.643	32.12
873.81	37.9
873.977	-1.76
874.144	3.25
874.311	15.96
874.478	37.63
874.645	38.15
874.812	48.02
874.979	40.96
875.146	57.13
875.313	31.44
875.48	29.08
875.647	32.56
875.813	47.21
875.98	31.8
876.147	39.1
876.314	44.86
876.481	58.81
876.647	81.59
876.814	98.06
876.981	63.33
877.147	28.17
877.314	7.77
877.481	5.53
877.647	12.05
877.814	27.78
877.98	31.24
878.147	41.27
878.314	38.18
878.48	14.74
878.647	1.65
878.813	16.98
878.979	36.5
879.146	28.66
879.312	40.56
879.479	75.77
879.645	51.09
879.811	8.47
879.978	48.34
880.144	-6.23
880.31	-112.92
880.477	-27.44
880.643	56.94
880.809	-22.97
880.975	-4.11
881.142	37.14
881.308	-15.27
881.474	3.3
881.64	-2.11
881.806	23.98
881.972	13.83
882.138	5.7
882.304	-65.16
882.47	36.28
882.636	-8.89
882.802	-0.74
882.968	27.36
883.134	36.37
883.3	46.33
883.466	49.04
883.632	34.23
883.798	41.72
883.964	52.23
884.129	33.58
884.295	52.96
884.461	65.01
884.627	54.77
884.793	42.24
884.958	56.36
885.124	19.89
885.29	26.68
885.455	26.19
885.621	15.08
885.787	19.31
885.952	19.72
886.118	36.38
886.283	46.42
886.449	52.22
886.614	65.47
886.78	74.68
886.945	58.43
887.111	75.87
887.276	25.39
887.442	-0.24
887.607	24.71
887.773	40.53
887.938	38.37
888.103	37.1
888.269	27.95
888.434	15.8
888.599	13.55
888.764	2.49
888.93	5.61
889.095	21.37
889.26	24.39
889.425	-24.85
889.59	-18.82
889.756	21.46
889.921	-33.54
890.086	-39.26
890.251	25.13
890.416	18.56
890.581	-47.03
890.746	-2.11
890.911	38.73
891.076	16.91
891.241	29.61
891.406	29.31
891.571	40.28
891.736	-0.93
891.901	5.13
892.065	-20.06
892.23	-54.19
892.395	-39.02
892.56	-20.86
892.725	-41.34
892.889	-28.25
893.054	1.34
893.219	-7.61
893.384	-13.24
893.548	2.15
893.713	17.92
893.878	3.65
