Data from Ofav_PP_Phys_3JQ1_Reflection_3.txt Node
Date: Tue Aug 03 18:10:32 EDT 2021
User: Adam
Spectrometer: FLMT01687
Trigger mode: 0
Integration Time (sec): 8.750000E-1
Scans to average: 2
Electric dark correction enabled: true
Nonlinearity correction enabled: false
Boxcar width: 2
XAxis mode: Wavelengths
Number of Pixels in Spectrum: 3648
>>>>>Begin Spectral Data<<<<<
179.494	154.5
179.716	155.49
179.937	211.66
180.158	335.04
180.38	1565.79
180.601	114.33
180.823	204.97
181.044	47.69
181.265	21.26
181.486	254.48
181.708	104.1
181.929	242.48
182.15	21.97
182.372	66.46
182.593	82.91
182.814	197.25
183.035	150
183.257	1073.53
183.478	-45.36
183.699	-152.41
183.92	-86.82
184.141	-64.08
184.363	-9.82
184.584	-74.9
184.805	-23.82
185.026	-46.52
185.247	-35.89
185.468	-34.84
185.689	-61.7
185.91	-47.37
186.132	-20.53
186.353	-2.84
186.574	-27.62
186.795	6.76
187.016	3.25
187.237	4.41
187.458	-2.59
187.679	1.79
187.9	3.93
188.121	-9.03
188.342	-32.31
188.563	-21.11
188.784	-24.09
189.005	-42.63
189.226	-48.01
189.447	-24.91
189.667	-44.74
189.888	-52.52
190.109	-31.54
190.33	-59.01
190.551	-23.63
190.772	-19.9
190.993	-22.74
191.214	-12.15
191.434	5.7
191.655	-43.15
191.876	-40.32
192.097	-17.98
192.318	-10.11
192.538	-4.63
192.759	1.93
192.98	35.48
193.201	18.81
193.421	15.79
193.642	11.86
193.863	29.52
194.083	-5.45
194.304	6.29
194.525	-0.85
194.745	6.7
194.966	22.67
195.187	44.4
195.407	75.45
195.628	52.58
195.848	46.06
196.069	49.44
196.29	8.06
196.51	-26
196.731	10.14
196.951	27.98
197.172	42.81
197.392	100.44
197.613	89.26
197.833	58.9
198.054	63.66
198.274	20.67
198.495	8.71
198.715	28.27
198.936	37.59
199.156	27.5
199.377	11.35
199.597	15.53
199.817	19.54
200.038	-5.38
200.258	-21.56
200.479	-44.41
200.699	-36.44
200.919	-84.75
201.14	5.93
201.36	17.54
201.58	15.52
201.801	-16.37
202.021	-7.51
202.241	-48.82
202.461	-43.35
202.682	-25.67
202.902	-35.45
203.122	-15.85
203.342	3.57
203.563	5.75
203.783	29.83
204.003	37.02
204.223	30.92
204.443	25.23
204.663	24.09
204.884	-1.75
205.104	-4.47
205.324	-16.08
205.544	-35.91
205.764	-46.55
205.984	-53.88
206.204	-51.03
206.424	-124.91
206.644	-33.14
206.864	-38.73
207.084	-54.09
207.304	-53.06
207.525	2.41
207.745	-24.13
207.964	-24.94
208.184	8.81
208.404	2.9
208.624	1.61
208.844	8.93
209.064	19.16
209.284	39.21
209.504	29.32
209.724	23.54
209.944	21.13
210.164	-0.09
210.384	-6.45
210.604	-41.15
210.823	-133.01
211.043	-36.42
211.263	-57.13
211.483	-40.38
211.703	12.95
211.922	8.27
212.142	-13.31
212.362	4.4
212.582	11.42
212.801	19.9
213.021	33.57
213.241	49.36
213.461	50.67
213.68	42.28
213.9	10.49
214.12	11.15
214.339	36.05
214.559	45.17
214.779	39.55
214.998	35.16
215.218	49.07
215.438	29.92
215.657	26.73
215.877	37.44
216.096	33.05
216.316	16.36
216.535	2.01
216.755	-33.12
216.974	-7.52
217.194	7.49
217.413	44.78
217.633	43.5
217.852	66.93
218.072	58.64
218.291	44.44
218.511	8.7
218.73	22.06
218.95	11.65
219.169	11.84
219.389	14.91
219.608	17.97
219.827	-9.01
220.047	-12.48
220.266	9.46
220.485	33.72
220.705	45.33
220.924	51.96
221.143	50.39
221.363	45.51
221.582	26.1
221.801	-21.93
222.021	1
222.24	0.19
222.459	-67.95
222.678	-33.64
222.897	-15.07
223.117	-54.68
223.336	-318.35
223.555	-119.71
223.774	-124.55
223.993	-86.89
224.213	-99.5
224.432	-37.38
224.651	6.86
224.87	14.28
225.089	10.47
225.308	13.83
225.527	-3.98
225.746	-78.36
225.965	-70.33
226.184	-102.15
226.404	-11.07
226.623	37.08
226.842	55.22
227.061	14.06
227.28	24.84
227.499	21.3
227.718	-7.54
227.936	-15.45
228.155	11.26
228.374	19.82
228.593	18.63
228.812	4.05
229.031	0.71
229.25	17.82
229.469	-25.62
229.688	-92.28
229.907	-159.03
230.125	-167.13
230.344	-130.39
230.563	-100.59
230.782	-72.85
231.001	-15.61
231.22	-8.31
231.438	-19.81
231.657	-31.2
231.876	-28.14
232.095	-18.64
232.313	-22.53
232.532	-45.06
232.751	-2.85
232.969	20.89
233.188	20.84
233.407	11.37
233.625	41.13
233.844	23.06
234.063	4.52
234.281	-6.5
234.5	-2.15
234.719	-20.65
234.937	-5.8
235.156	-21.2
235.374	-27.79
235.593	-23.2
235.811	-19.09
236.03	-17.75
236.249	6.03
236.467	33.71
236.686	37.09
236.904	27.43
237.123	33.79
237.341	32.56
237.559	27.2
237.778	22.22
237.996	15.97
238.215	12.96
238.433	-5.86
238.652	-3.94
238.87	9.17
239.088	9.46
239.307	3.71
239.525	20.81
239.743	18.39
239.962	19
240.18	29.93
240.398	63.93
240.617	58.86
240.835	35.64
241.053	15.41
241.271	-21.99
241.49	-44.79
241.708	-24.09
241.926	-24.29
242.144	-32.22
242.363	-5.41
242.581	-8.07
242.799	-11.11
243.017	-4.33
243.235	34.11
243.453	34.06
243.672	46.09
243.89	44.28
244.108	47.65
244.326	14.57
244.544	22.32
244.762	16.63
244.98	8.41
245.198	12.9
245.416	36.65
245.634	22.55
245.852	1.53
246.07	1.01
246.288	-49.16
246.506	-41.93
246.724	-62.34
246.942	-63.75
247.16	-43.7
247.378	-45.7
247.596	-41.98
247.814	-38.07
248.032	-20.1
248.25	-27.77
248.468	-17.76
248.685	-22.78
248.903	-33.5
249.121	-27.39
249.339	3.99
249.557	14.41
249.775	13.49
249.992	39.05
250.21	37.78
250.428	18.72
250.646	-4.25
250.863	-0.26
251.081	-12.85
251.299	-39.48
251.517	-27.06
251.734	-24.16
251.952	-29.15
252.17	-28.26
252.387	-51.18
252.605	-90.78
252.823	-84.81
253.04	-87.58
253.258	-20.7
253.475	15.01
253.693	16.49
253.911	34.44
254.128	40.04
254.346	23.87
254.563	11.79
254.781	29.23
254.998	23.5
255.216	20.69
255.433	19.18
255.651	23.37
255.868	-36.19
256.086	-53.23
256.303	-35.01
256.521	-24.24
256.738	-41.4
256.956	19.68
257.173	12.05
257.39	-1.61
257.608	-10.58
257.825	-51.69
258.043	-150.74
258.26	-42.06
258.477	-19.58
258.695	-23.23
258.912	-9.45
259.129	26.4
259.346	30.37
259.564	43.1
259.781	60.61
259.998	67.96
260.216	43.89
260.433	6.79
260.65	-29.2
260.867	-39.88
261.084	-37.15
261.302	-43.77
261.519	-16.07
261.736	12.94
261.953	18.09
262.17	-6.97
262.387	16.61
262.604	13.95
262.822	13.89
263.039	1.17
263.256	19.31
263.473	11.55
263.69	19.97
263.907	5.52
264.124	8.52
264.341	10.12
264.558	-15.39
264.775	-5.24
264.992	-0.91
265.209	-10.2
265.426	-32.96
265.643	-21
265.86	-36.22
266.077	-25.69
266.294	-17.39
266.51	-21.73
266.727	10.97
266.944	20.76
267.161	18.8
267.378	14.36
267.595	13.9
267.812	1.27
268.028	-10.11
268.245	-8.72
268.462	5.89
268.679	19.58
268.896	11.47
269.112	20.38
269.329	-14.14
269.546	-45.46
269.763	-22.63
269.979	-19.79
270.196	-11.38
270.413	11.86
270.629	13.47
270.846	25.4
271.063	19.11
271.279	24.64
271.496	26.07
271.712	28.68
271.929	7.9
272.146	32.52
272.362	16.72
272.579	4.39
272.795	3.95
273.012	13.54
273.228	16.17
273.445	13.52
273.661	21.14
273.878	21.76
274.094	11.84
274.311	-6.07
274.527	-28.29
274.744	-31.6
274.96	-33.64
275.177	-60.12
275.393	-38.18
275.609	1.68
275.826	3.85
276.042	-6.4
276.259	6.8
276.475	-27.51
276.691	-25.68
276.908	-41.22
277.124	-35.2
277.34	-36.46
277.557	-18.98
277.773	-10.47
277.989	8.35
278.205	16.44
278.422	17.66
278.638	31.84
278.854	34.39
279.07	35.98
279.286	37.64
279.503	39.77
279.719	25.63
279.935	26.62
280.151	17.54
280.367	4.34
280.583	-22.93
280.799	-15.32
281.016	-15.82
281.232	-19.39
281.448	-22.31
281.664	-30.18
281.88	-7.29
282.096	-0.43
282.312	-6.54
282.528	2.76
282.744	22.24
282.96	27.61
283.176	25.7
283.392	27.02
283.608	27.72
283.824	17.29
284.04	18.96
284.256	17.99
284.471	23.11
284.687	19.86
284.903	29.83
285.119	4.92
285.335	-14.21
285.551	-11.72
285.767	2.38
285.982	5.54
286.198	18.97
286.414	26.49
286.63	9.67
286.846	-1.98
287.061	-23.33
287.277	-53.98
287.493	-35.24
287.709	-38.8
287.924	-17.18
288.14	-4.31
288.356	6.68
288.571	6.13
288.787	13.11
289.003	0.32
289.218	-19.5
289.434	-7.16
289.65	-17.06
289.865	-24.66
290.081	-71.65
290.296	-36.9
290.512	-44.65
290.727	-55.06
290.943	-16.27
291.159	17.47
291.374	11.29
291.59	28.29
291.805	21.46
292.021	17.31
292.236	15.29
292.451	8.76
292.667	3.68
292.882	-5.12
293.098	-23.48
293.313	-34.09
293.529	-20.03
293.744	-29.72
293.959	4.71
294.175	19.14
294.39	15.74
294.605	24.06
294.821	14.89
295.036	5.31
295.251	-12.21
295.467	-5.66
295.682	5.52
295.897	5.01
296.112	27.8
296.328	37.02
296.543	36.75
296.758	13.59
296.973	26.15
297.188	2.01
297.404	12.89
297.619	9.42
297.834	27.74
298.049	19.71
298.264	32.16
298.479	-0.05
298.694	2.05
298.909	-12.12
299.125	-4.75
299.34	-9.13
299.555	19.04
299.77	16.32
299.985	33.8
300.2	41.83
300.415	36.93
300.63	17.43
300.845	34.25
301.06	8.16
301.275	-28.56
301.49	0.57
301.704	-2.06
301.919	-0.36
302.134	14.73
302.349	21.58
302.564	32.7
302.779	35.17
302.994	18.5
303.209	18.36
303.423	16.58
303.638	3.93
303.853	13.39
304.068	26.59
304.283	37.51
304.497	43.34
304.712	65.58
304.927	61.6
305.142	65.16
305.356	35.46
305.571	21.68
305.786	-1.5
306	-3.6
306.215	-21.98
306.43	8.51
306.644	15.07
306.859	8.42
307.074	20.33
307.288	22.52
307.503	22.3
307.717	8.12
307.932	-1.91
308.147	-12.13
308.361	-21.56
308.576	-29.18
308.79	-6.76
309.005	19.67
309.219	5.32
309.434	-0.94
309.648	-4.5
309.863	-18.34
310.077	-26.74
310.292	-4.98
310.506	2.31
310.72	13.21
310.935	5.25
311.149	0.42
311.364	-29.25
311.578	-31.56
311.792	-38.97
312.007	-43.89
312.221	-46.47
312.435	-21.15
312.649	-0.05
312.864	-37.31
313.078	-13.96
313.292	-17.22
313.507	-8.9
313.721	-33.15
313.935	-19.29
314.149	-40.51
314.363	-21.06
314.578	-21.43
314.792	-9.54
315.006	-16.78
315.22	-8.47
315.434	-14.94
315.648	-64.67
315.862	-14.81
316.077	8.57
316.291	11.41
316.505	7.56
316.719	23.44
316.933	22.55
317.147	10.69
317.361	14.67
317.575	7.99
317.789	12.73
318.003	4.6
318.217	-5.26
318.431	9.21
318.645	6.89
318.859	4
319.073	-10.45
319.287	11.12
319.5	4.22
319.714	24.98
319.928	28.38
320.142	32.13
320.356	20.01
320.57	16.23
320.784	-2.34
320.997	-10.83
321.211	7.52
321.425	16.71
321.639	15.77
321.853	2.86
322.066	8.72
322.28	3.3
322.494	-17
322.707	-21.13
322.921	-12.46
323.135	-11.38
323.349	-7.83
323.562	13.52
323.776	28.01
323.989	31.77
324.203	37.54
324.417	25.58
324.63	23.69
324.844	17.28
325.057	16.71
325.271	0.12
325.485	10.51
325.698	-25.53
325.912	-31.58
326.125	-15.46
326.339	-2.22
326.552	-21.8
326.766	23.15
326.979	12.27
327.193	6.5
327.406	11.16
327.619	32.67
327.833	-10.18
328.046	-6
328.26	2.14
328.473	-0.78
328.686	-3.9
328.9	15.5
329.113	29.16
329.326	32.88
329.54	28.67
329.753	27.86
329.966	37.53
330.179	15.46
330.393	17.38
330.606	39.69
330.819	31.32
331.032	26.11
331.246	38.77
331.459	17.62
331.672	-5.04
331.885	-0.31
332.098	-26.36
332.311	-7.6
332.525	9.49
332.738	14.83
332.951	17.38
333.164	17.45
333.377	8.38
333.59	0.88
333.803	-15.2
334.016	-20.16
334.229	-12.43
334.442	-65.21
334.655	-63.6
334.868	-50.58
335.081	-53.5
335.294	-43.79
335.507	8.47
335.72	5.7
335.933	4.05
336.146	14.34
336.359	13.55
336.572	6.06
336.785	34.23
336.997	49.38
337.21	30.19
337.423	26.26
337.636	33.01
337.849	13.39
338.062	-11.02
338.274	-2.07
338.487	4.94
338.7	1.14
338.913	5.26
339.125	9.42
339.338	8.51
339.551	4.08
339.763	-1
339.976	3.74
340.189	6.24
340.402	-1.07
340.614	8.26
340.827	24.76
341.039	30.6
341.252	37.92
341.465	46.83
341.677	39.9
341.89	40.24
342.102	22.8
342.315	14.62
342.527	21.11
342.74	18.65
342.952	0.9
343.165	5.63
343.377	-39.47
343.59	-32.45
343.802	-39.44
344.015	-95.02
344.227	-89.95
344.44	-18.46
344.652	-8.65
344.864	-1.02
345.077	38.07
345.289	30.16
345.502	-4.07
345.714	-24.74
345.926	-4.32
346.139	-8
346.351	-15.59
346.563	-9.79
346.775	-1
346.988	-18.23
347.2	-5.47
347.412	8.34
347.624	9.82
347.837	5.2
348.049	11.41
348.261	-6.75
348.473	-19.99
348.685	-9.69
348.897	6.91
349.11	-17.64
349.322	-23.25
349.534	-26.22
349.746	-20.7
349.958	-31.6
350.17	-9.36
350.382	1.8
350.594	16.85
350.806	12.32
351.018	6.33
351.23	-2.89
351.442	-1.49
351.654	-26.2
351.866	-21.85
352.078	-26.24
352.29	-20.61
352.502	-6.79
352.714	3.11
352.926	2.18
353.138	5.32
353.35	15.7
353.561	19.5
353.773	23.82
353.985	26.37
354.197	29.57
354.409	33.4
354.621	36.11
354.832	40.9
355.044	46.53
355.256	37.39
355.468	18.45
355.679	18.95
355.891	15.88
356.103	11.35
356.314	12.82
356.526	16.85
356.738	24.38
356.949	23.35
357.161	9.63
357.373	19.81
357.584	33.27
357.796	29.65
358.008	33.06
358.219	40.59
358.431	35.61
358.642	35.86
358.854	2.39
359.065	15.38
359.277	25.8
359.488	32.15
359.7	29.15
359.911	37.2
360.123	24.56
360.334	22.99
360.546	17.12
360.757	11.65
360.969	13.15
361.18	15.35
361.391	22.79
361.603	23.16
361.814	10.67
362.025	16.28
362.237	18.51
362.448	9.31
362.659	4.81
362.871	11.97
363.082	-1.07
363.293	-13.31
363.504	-13.87
363.716	2.02
363.927	6
364.138	11.15
364.349	26.1
364.56	22.81
364.772	26.6
364.983	29.15
365.194	33.41
365.405	26
365.616	21.28
365.827	21.95
366.038	20.96
366.25	19.05
366.461	16.11
366.672	14.99
366.883	-2.47
367.094	-4.84
367.305	12.33
367.516	-2.72
367.727	5.58
367.938	11.27
368.149	7.3
368.36	-6.7
368.571	14.02
368.781	11.66
368.992	13.99
369.203	25.62
369.414	25.59
369.625	16.67
369.836	19.46
370.047	24.67
370.258	22.82
370.468	21.54
370.679	34.27
370.89	46.06
371.101	40.74
371.312	38.94
371.522	38.54
371.733	38.88
371.944	28.16
372.155	29.73
372.365	12.8
372.576	25.38
372.787	9.84
372.997	17.7
373.208	8.57
373.419	11.17
373.629	5.37
373.84	21.62
374.05	-1.39
374.261	-1.45
374.472	17.2
374.682	-5.11
374.893	-14.8
375.103	-18.24
375.314	0.95
375.524	-3.13
375.735	15.37
375.945	22.17
376.156	39.42
376.366	22.71
376.577	13.33
376.787	17.93
376.997	14.16
377.208	5.48
377.418	13.37
377.629	10.01
377.839	13.07
378.049	12.77
378.26	11.67
378.47	2.59
378.68	9.95
378.89	5.69
379.101	7.96
379.311	8.11
379.521	19.69
379.732	18.97
379.942	19.85
380.152	16.95
380.362	16.88
380.572	15.04
380.783	11.98
380.993	8.44
381.203	10.26
381.413	-1.69
381.623	-3.98
381.833	-6.28
382.043	4.44
382.253	-0.35
382.463	16.6
382.674	8.31
382.884	8.67
383.094	-0.78
383.304	3.98
383.514	-1.3
383.724	-4.48
383.934	3.65
384.144	-0.47
384.353	-6.23
384.563	-12.05
384.773	-8.92
384.983	-16.18
385.193	-9.9
385.403	-0.73
385.613	1.64
385.823	7.65
386.033	10.25
386.242	13.71
386.452	10.12
386.662	12.95
386.872	9.29
387.082	3.48
387.291	-0.49
387.501	-3.57
387.711	-6.51
387.921	1.83
388.13	7.12
388.34	4.39
388.55	8.97
388.759	10.82
388.969	8.85
389.179	7.64
389.388	7.55
389.598	6.09
389.807	4.41
390.017	3.06
390.227	3.17
390.436	3.46
390.646	3.09
390.855	1.98
391.065	1.72
391.274	2.15
391.484	4.73
391.693	4.07
391.903	4.89
392.112	7.06
392.322	5.89
392.531	4.53
392.74	4.14
392.95	5.78
393.159	3.1
393.369	3.43
393.578	2.64
393.787	2.9
393.997	1.35
394.206	2.26
394.415	1.96
394.625	2.23
394.834	3.08
395.043	4.3
395.252	4.32
395.462	4.54
395.671	3.93
395.88	3.52
396.089	2.8
396.298	3.27
396.508	3.28
396.717	3.84
396.926	3.67
397.135	2.58
397.344	2.02
397.553	1.51
397.762	1.11
397.971	1.02
398.181	1.97
398.39	2.09
398.599	2.35
398.808	2.67
399.017	2.55
399.226	2.03
399.435	2.05
399.644	2.1
399.853	2.12
400.062	2.33
400.27	2.68
400.479	2.6
400.688	2.73
400.897	2.87
401.106	2.85
401.315	2.99
401.524	3.15
401.733	2.9
401.941	2.61
402.15	2.67
402.359	2.66
402.568	2.42
402.777	2.4
402.985	2.59
403.194	2.43
403.403	2.19
403.612	2.16
403.82	2.35
404.029	2.33
404.238	2.44
404.446	2.41
404.655	2.43
404.864	2.3
405.072	2.43
405.281	2.25
405.489	2.28
405.698	2.42
405.906	2.45
406.115	2.34
406.324	2.5
406.532	2.49
406.741	2.38
406.949	2.33
407.158	2.39
407.366	2.37
407.574	2.32
407.783	2.38
407.991	2.42
408.2	2.2
408.408	2.08
408.617	2.27
408.825	2.18
409.033	2.16
409.242	2.21
409.45	2.15
409.658	2.13
409.867	2.15
410.075	2.2
410.283	2.22
410.491	2.25
410.7	2.18
410.908	2.04
411.116	1.87
411.324	1.93
411.533	1.89
411.741	1.83
411.949	1.82
412.157	1.97
412.365	1.91
412.573	2.04
412.781	2.07
412.99	2.29
413.198	2.16
413.406	2.21
413.614	2.07
413.822	2.05
414.03	2.07
414.238	2.21
414.446	2.22
414.654	2.39
414.862	2.51
415.07	2.29
415.278	2.14
415.486	1.99
415.694	2.03
415.902	1.84
416.109	1.95
416.317	2.1
416.525	2.16
416.733	2
416.941	2.08
417.149	1.94
417.357	1.76
417.564	1.71
417.772	1.73
417.98	1.77
418.188	2
418.395	2.08
418.603	2.21
418.811	2.31
419.019	2.14
419.226	2.1
419.434	1.93
419.642	1.81
419.849	1.86
420.057	1.95
420.265	1.82
420.472	1.93
420.68	1.92
420.887	1.88
421.095	1.69
421.302	1.78
421.51	1.65
421.717	1.68
421.925	1.45
422.132	1.6
422.34	1.58
422.547	1.75
422.755	1.65
422.962	1.93
423.17	1.95
423.377	2.02
423.585	1.95
423.792	1.93
423.999	1.64
424.207	1.68
424.414	1.55
424.621	1.54
424.829	1.74
425.036	1.92
425.243	1.79
425.451	1.75
425.658	1.91
425.865	1.78
426.072	1.7
426.28	1.68
426.487	1.78
426.694	1.61
426.901	1.64
427.108	1.73
427.315	2.07
427.523	1.97
427.73	1.95
427.937	2.11
428.144	2.14
428.351	1.91
428.558	1.85
428.765	1.97
428.972	1.92
429.179	1.8
429.386	1.81
429.593	2.01
429.8	2.14
430.007	2.08
430.214	2.2
430.421	2.2
430.628	2.08
430.835	2.04
431.042	1.95
431.249	1.91
431.456	1.97
431.662	2.03
431.869	1.93
432.076	1.92
432.283	1.9
432.49	1.92
432.697	1.99
432.903	2.15
433.11	2.15
433.317	2.12
433.524	1.99
433.73	2.02
433.937	1.79
434.144	1.95
434.35	2.06
434.557	2.24
434.764	2.24
434.97	2.39
435.177	2.28
435.384	2.28
435.59	2.26
435.797	2.26
436.003	2.15
436.21	2.28
436.416	2.31
436.623	2.29
436.829	2.2
437.036	2.23
437.242	2.24
437.449	2.15
437.655	2.2
437.862	2.25
438.068	2.27
438.275	2.14
438.481	2.13
438.687	2.17
438.894	2.27
439.1	2.36
439.307	2.32
439.513	2.41
439.719	2.32
439.926	2.26
440.132	2.35
440.338	2.49
440.544	2.46
440.751	2.52
440.957	2.47
441.163	2.38
441.369	2.46
441.575	2.6
441.782	2.57
441.988	2.73
442.194	2.77
442.4	2.73
442.606	2.59
442.812	2.62
443.018	2.45
443.224	2.46
443.431	2.45
443.637	2.55
443.843	2.54
444.049	2.53
444.255	2.66
444.461	2.71
444.667	2.72
444.873	2.59
445.079	2.63
445.284	2.54
445.49	2.54
445.696	2.49
445.902	2.55
446.108	2.65
446.314	2.65
446.52	2.73
446.726	2.83
446.931	2.94
447.137	2.92
447.343	2.94
447.549	2.89
447.755	2.89
447.96	2.9
448.166	2.93
448.372	2.83
448.578	2.87
448.783	2.91
448.989	2.87
449.195	2.8
449.4	2.87
449.606	2.81
449.812	2.75
450.017	2.8
450.223	2.85
450.428	2.94
450.634	2.99
450.84	2.96
451.045	2.95
451.251	3.02
451.456	2.97
451.662	2.81
451.867	2.88
452.073	2.93
452.278	2.86
452.483	2.8
452.689	2.85
452.894	2.84
453.1	2.82
453.305	2.88
453.51	3
453.716	3.13
453.921	3.24
454.127	3.26
454.332	3.21
454.537	3.22
454.742	3.18
454.948	3.08
455.153	3.05
455.358	3.02
455.563	2.87
455.769	2.95
455.974	2.96
456.179	3.06
456.384	3.04
456.589	3.18
456.795	3.13
457	3.19
457.205	3.12
457.41	3.23
457.615	3.22
457.82	3.16
458.025	3.04
458.23	3.07
458.435	3.04
458.64	3.01
458.845	3.16
459.05	3.25
459.255	3.22
459.46	3.17
459.665	3.16
459.87	3.07
460.075	3.04
460.28	3.14
460.485	3.16
460.69	3.16
460.895	3.23
461.099	3.3
461.304	3.18
461.509	3.19
461.714	3.32
461.919	3.29
462.123	3.24
462.328	3.33
462.533	3.42
462.738	3.39
462.942	3.41
463.147	3.44
463.352	3.4
463.556	3.47
463.761	3.38
463.966	3.34
464.17	3.38
464.375	3.39
464.58	3.36
464.784	3.38
464.989	3.43
465.193	3.35
465.398	3.4
465.602	3.32
465.807	3.49
466.011	3.52
466.216	3.6
466.42	3.62
466.625	3.7
466.829	3.53
467.034	3.51
467.238	3.47
467.443	3.48
467.647	3.55
467.851	3.72
468.056	3.63
468.26	3.64
468.464	3.56
468.669	3.51
468.873	3.32
469.077	3.42
469.282	3.44
469.486	3.46
469.69	3.44
469.894	3.48
470.099	3.5
470.303	3.5
470.507	3.53
470.711	3.55
470.915	3.6
471.119	3.67
471.324	3.76
471.528	3.77
471.732	3.83
471.936	3.87
472.14	3.81
472.344	3.78
472.548	3.82
472.752	3.72
472.956	3.67
473.16	3.74
473.364	3.75
473.568	3.84
473.772	3.9
473.976	4
474.18	3.94
474.384	3.97
474.588	3.94
474.792	4.05
474.995	4.08
475.199	4.13
475.403	4.02
475.607	4.01
475.811	3.97
476.015	3.82
476.218	3.74
476.422	3.87
476.626	3.82
476.83	3.77
477.033	3.92
477.237	3.94
477.441	3.89
477.644	3.84
477.848	3.92
478.052	3.94
478.255	4.03
478.459	4.03
478.663	4.06
478.866	4.08
479.07	4.01
479.273	3.91
479.477	3.89
479.681	3.97
479.884	3.94
480.088	3.96
480.291	4.03
480.495	4.07
480.698	4.05
480.901	4.03
481.105	4.03
481.308	4.01
481.512	4.05
481.715	4.02
481.919	4.06
482.122	4.09
482.325	4.14
482.529	4.14
482.732	4.18
482.935	4.15
483.138	4.09
483.342	4.06
483.545	4
483.748	3.97
483.952	3.99
484.155	4.01
484.358	4
484.561	4.02
484.764	4
484.967	3.91
485.171	3.87
485.374	3.92
485.577	3.93
485.78	3.96
485.983	3.97
486.186	4.06
486.389	4.06
486.592	4.02
486.795	4.01
486.998	4.03
487.201	3.96
487.404	3.93
487.607	4
487.81	3.99
488.013	4.01
488.216	4.01
488.419	3.94
488.622	3.96
488.825	3.97
489.028	4.01
489.231	4.01
489.433	4.13
489.636	4.09
489.839	4.14
490.042	4.11
490.245	4.23
490.447	4.2
490.65	4.18
490.853	4.12
491.056	4.12
491.258	4.02
491.461	3.98
491.664	3.99
491.866	4.01
492.069	3.98
492.272	3.97
492.474	3.92
492.677	3.9
492.879	3.86
493.082	3.82
493.285	3.8
493.487	3.89
493.69	3.96
493.892	4.02
494.095	4.06
494.297	4.16
494.5	4.07
494.702	4
494.905	4
495.107	4.01
495.309	3.94
495.512	4.01
495.714	4.02
495.917	4
496.119	4.02
496.321	4.01
496.524	3.94
496.726	3.97
496.928	3.97
497.13	4
497.333	4
497.535	4.02
497.737	4.05
497.939	4.06
498.142	4.02
498.344	4.04
498.546	4.08
498.748	4
498.95	4
499.152	4.05
499.355	4.09
499.557	4.01
499.759	3.98
499.961	3.92
500.163	3.87
500.365	3.82
500.567	3.81
500.769	3.9
500.971	3.93
501.173	3.99
501.375	4
501.577	4.11
501.779	4.07
501.981	4.08
502.183	4.07
502.385	4.07
502.587	4.04
502.788	3.99
502.99	4
503.192	4.02
503.394	4.03
503.596	4.05
503.798	4.15
503.999	4.17
504.201	4.13
504.403	4.13
504.605	4.13
504.806	4.13
505.008	4.14
505.21	4.11
505.411	4.11
505.613	4.1
505.815	4.11
506.016	4.03
506.218	4.08
506.42	4.12
506.621	4.14
506.823	4.13
507.024	4.18
507.226	4.18
507.427	4.15
507.629	4.16
507.83	4.1
508.032	4.05
508.233	4.04
508.435	4.03
508.636	3.98
508.838	3.98
509.039	4.03
509.24	4.07
509.442	4.04
509.643	4.12
509.845	4.15
510.046	4.13
510.247	4.07
510.448	4.06
510.65	4.07
510.851	4.09
511.052	4.16
511.254	4.23
511.455	4.21
511.656	4.1
511.857	4.02
512.058	3.98
512.26	3.88
512.461	3.91
512.662	3.92
512.863	4.04
513.064	4.04
513.265	4.06
513.466	4.04
513.667	4.1
513.868	4.02
514.069	3.98
514.27	3.94
514.471	3.92
514.672	3.92
514.873	3.9
515.074	3.92
515.275	4
515.476	4.05
515.677	4.01
515.878	4.02
516.079	4.03
516.28	4.01
516.481	3.98
516.682	3.97
516.882	4.01
517.083	3.99
517.284	4.05
517.485	4.02
517.686	4.03
517.886	4.04
518.087	4.05
518.288	3.97
518.488	4.02
518.689	4.03
518.89	4.06
519.091	4.06
519.291	4.07
519.492	4.07
519.692	4.09
519.893	3.99
520.094	3.99
520.294	4.09
520.495	4.13
520.695	4.14
520.896	4.19
521.096	4.18
521.297	4.14
521.497	4.07
521.698	4.06
521.898	4.02
522.099	4.03
522.299	3.97
522.499	3.99
522.7	3.97
522.9	4.05
523.101	3.99
523.301	4.05
523.501	4.05
523.702	4.07
523.902	4.03
524.102	4.06
524.302	4.06
524.503	4.04
524.703	4.05
524.903	4.09
525.103	4.12
525.304	4.07
525.504	4.08
525.704	4.02
525.904	4.04
526.104	4.06
526.304	4.13
526.504	4.1
526.705	4.18
526.905	4.16
527.105	4.12
527.305	4.1
527.505	4.16
527.705	4.17
527.905	4.16
528.105	4.18
528.305	4.15
528.505	4.08
528.705	4.06
528.905	4.11
529.105	4.09
529.304	4.1
529.504	4.18
529.704	4.22
529.904	4.21
530.104	4.23
530.304	4.29
530.503	4.27
530.703	4.2
530.903	4.19
531.103	4.17
531.303	4.17
531.502	4.21
531.702	4.25
531.902	4.24
532.101	4.27
532.301	4.27
532.501	4.21
532.7	4.2
532.9	4.23
533.1	4.2
533.299	4.28
533.499	4.3
533.698	4.37
533.898	4.34
534.097	4.36
534.297	4.24
534.496	4.23
534.696	4.22
534.895	4.25
535.095	4.26
535.294	4.31
535.494	4.29
535.693	4.27
535.892	4.22
536.092	4.28
536.291	4.29
536.491	4.39
536.69	4.38
536.889	4.45
537.088	4.46
537.288	4.4
537.487	4.35
537.686	4.41
537.886	4.37
538.085	4.37
538.284	4.4
538.483	4.48
538.682	4.44
538.882	4.49
539.081	4.45
539.28	4.48
539.479	4.5
539.678	4.53
539.877	4.47
540.076	4.55
540.275	4.58
540.474	4.49
540.673	4.49
540.872	4.57
541.071	4.6
541.27	4.65
541.469	4.68
541.668	4.65
541.867	4.7
542.066	4.7
542.265	4.68
542.464	4.77
542.663	4.85
542.862	4.79
543.06	4.78
543.259	4.79
543.458	4.8
543.657	4.82
543.856	4.88
544.054	4.91
544.253	4.94
544.452	5
544.651	4.96
544.849	5.01
545.048	5.02
545.247	5.01
545.445	4.97
545.644	5.06
545.843	5.01
546.041	5.02
546.24	5.07
546.438	5.09
546.637	5.1
546.836	5.12
547.034	5.18
547.233	5.22
547.431	5.38
547.63	5.42
547.828	5.46
548.027	5.46
548.225	5.49
548.423	5.4
548.622	5.38
548.82	5.48
549.019	5.56
549.217	5.49
549.415	5.54
549.614	5.62
549.812	5.61
550.01	5.67
550.209	5.81
550.407	5.84
550.605	5.82
550.803	5.83
551.002	5.84
551.2	5.84
551.398	5.83
551.596	5.94
551.794	6.01
551.993	6.07
552.191	6.15
552.389	6.2
552.587	6.21
552.785	6.2
552.983	6.22
553.181	6.22
553.379	6.27
553.577	6.33
553.775	6.41
553.973	6.43
554.171	6.5
554.369	6.58
554.567	6.62
554.765	6.69
554.963	6.73
555.161	6.81
555.359	6.85
555.557	6.87
555.755	6.96
555.952	6.99
556.15	7.01
556.348	7.04
556.546	7.12
556.744	7.05
556.941	7.04
557.139	7.12
557.337	7.23
557.535	7.32
557.732	7.42
557.93	7.46
558.128	7.48
558.325	7.4
558.523	7.45
558.721	7.5
558.918	7.66
559.116	7.75
559.313	7.86
559.511	7.89
559.708	7.95
559.906	7.95
560.104	7.95
560.301	8.02
560.498	8.09
560.696	8.16
560.893	8.25
561.091	8.35
561.288	8.43
561.486	8.4
561.683	8.42
561.88	8.49
562.078	8.47
562.275	8.49
562.473	8.59
562.67	8.65
562.867	8.66
563.064	8.76
563.262	8.85
563.459	8.89
563.656	8.88
563.853	8.96
564.051	9.01
564.248	9
564.445	9.1
564.642	9.26
564.839	9.33
565.036	9.4
565.234	9.36
565.431	9.44
565.628	9.39
565.825	9.41
566.022	9.4
566.219	9.59
566.416	9.52
566.613	9.68
566.81	9.76
567.007	9.82
567.204	9.84
567.401	9.89
567.598	9.87
567.795	9.87
567.991	9.88
568.188	9.95
568.385	9.81
568.582	9.89
568.779	9.83
568.976	9.91
569.172	9.86
569.369	10.14
569.566	10.07
569.763	10.01
569.96	10.03
570.156	10.1
570.353	10.01
570.55	10.11
570.746	10.25
570.943	10.27
571.14	10.21
571.336	10.29
571.533	10.27
571.729	10.34
571.926	10.36
572.123	10.41
572.319	10.38
572.516	10.41
572.712	10.34
572.909	10.32
573.105	10.25
573.302	10.29
573.498	10.18
573.695	10.19
573.891	10.14
574.087	10.22
574.284	10.21
574.48	10.32
574.677	10.3
574.873	10.35
575.069	10.33
575.266	10.3
575.462	10.25
575.658	10.21
575.854	10.14
576.051	10.04
576.247	10
576.443	10.04
576.639	10.16
576.835	10.16
577.032	10.28
577.228	10.35
577.424	10.25
577.62	10.15
577.816	10.2
578.012	10.23
578.208	10.13
578.404	10.14
578.6	10.22
578.796	10.19
578.993	10.15
579.189	10.24
579.384	10.26
579.58	10.23
579.776	10.24
579.972	10.21
580.168	10.23
580.364	10.27
580.56	10.3
580.756	10.23
580.952	10.25
581.148	10.14
581.343	10.1
581.539	10.01
581.735	9.94
581.931	9.85
582.127	9.89
582.322	9.86
582.518	9.83
582.714	9.93
582.909	9.96
583.105	9.87
583.301	9.83
583.496	9.79
583.692	9.73
583.888	9.75
584.083	9.71
584.279	9.76
584.474	9.75
584.67	9.69
584.866	9.65
585.061	9.73
585.257	9.66
585.452	9.65
585.648	9.65
585.843	9.61
586.039	9.58
586.234	9.58
586.429	9.6
586.625	9.55
586.82	9.58
587.015	9.62
587.211	9.6
587.406	9.66
587.601	9.7
587.797	9.71
587.992	9.6
588.187	9.59
588.383	9.53
588.578	9.63
588.773	9.58
588.968	9.63
589.163	9.69
589.359	9.74
589.554	9.73
589.749	9.76
589.944	9.8
590.139	9.75
590.334	9.78
590.529	9.75
590.724	9.79
590.919	9.74
591.114	9.81
591.309	9.71
591.504	9.71
591.699	9.72
591.894	9.77
592.089	9.76
592.284	9.9
592.479	9.92
592.674	9.93
592.869	9.99
593.064	10.06
593.259	10.08
593.454	10.06
593.648	10.11
593.843	10.15
594.038	10.14
594.233	10.1
594.428	10.2
594.622	10.26
594.817	10.24
595.012	10.29
595.206	10.4
595.401	10.44
595.596	10.43
595.79	10.44
595.985	10.47
596.18	10.53
596.374	10.59
596.569	10.67
596.763	10.79
596.958	10.87
597.153	10.83
597.347	10.86
597.542	10.87
597.736	10.96
597.931	10.98
598.125	11.02
598.319	11.15
598.514	11.24
598.708	11.24
598.903	11.3
599.097	11.35
599.291	11.32
599.486	11.34
599.68	11.38
599.874	11.38
600.069	11.44
600.263	11.55
600.457	11.54
600.651	11.54
600.846	11.64
601.04	11.62
601.234	11.51
601.428	11.59
601.622	11.67
601.817	11.63
602.011	11.75
602.205	11.88
602.399	11.83
602.593	11.82
602.787	11.8
602.981	11.72
603.175	11.65
603.369	11.66
603.563	11.58
603.757	11.65
603.951	11.64
604.145	11.62
604.339	11.62
604.533	11.62
604.727	11.56
604.921	11.53
605.115	11.53
605.309	11.54
605.502	11.63
605.696	11.55
605.89	11.54
606.084	11.51
606.278	11.47
606.471	11.33
606.665	11.35
606.859	11.33
607.053	11.31
607.246	11.3
607.44	11.26
607.634	11.25
607.827	11.22
608.021	11.16
608.214	11.14
608.408	11.12
608.602	11.13
608.795	11.17
608.989	11.1
609.182	11.05
609.376	10.99
609.569	10.98
609.763	10.83
609.956	10.8
610.15	10.74
610.343	10.76
610.537	10.53
610.73	10.53
610.923	10.56
611.117	10.52
611.31	10.41
611.504	10.45
611.697	10.41
611.89	10.28
612.083	10.21
612.277	10.15
612.47	10.12
612.663	10.03
612.856	9.96
613.05	9.92
613.243	9.87
613.436	9.75
613.629	9.73
613.822	9.69
614.015	9.72
614.209	9.68
614.402	9.65
614.595	9.71
614.788	9.67
614.981	9.65
615.174	9.58
615.367	9.55
615.56	9.48
615.753	9.56
615.946	9.49
616.139	9.48
616.332	9.36
616.525	9.26
616.718	9.06
616.911	9.06
617.103	9.08
617.296	9.15
617.489	9.13
617.682	9.17
617.875	9.04
618.067	9
618.26	9
618.453	8.91
618.646	8.82
618.838	8.86
619.031	8.78
619.224	8.76
619.417	8.9
619.609	8.97
619.802	8.93
619.994	8.87
620.187	8.74
620.38	8.65
620.572	8.57
620.765	8.5
620.957	8.57
621.15	8.67
621.342	8.62
621.535	8.56
621.727	8.53
621.92	8.5
622.112	8.45
622.305	8.46
622.497	8.53
622.69	8.48
622.882	8.45
623.074	8.47
623.267	8.44
623.459	8.4
623.651	8.46
623.844	8.51
624.036	8.47
624.228	8.5
624.42	8.46
624.613	8.49
624.805	8.44
624.997	8.42
625.189	8.39
625.381	8.43
625.574	8.4
625.766	8.43
625.958	8.4
626.15	8.31
626.342	8.28
626.534	8.21
626.726	8.12
626.918	8.11
627.11	8.14
627.302	8.08
627.494	8.06
627.686	8.1
627.878	8.05
628.07	8.04
628.262	8.03
628.454	7.96
628.646	7.95
628.838	7.95
629.029	7.97
629.221	7.97
629.413	8.02
629.605	7.98
629.797	7.98
629.989	7.94
630.18	7.86
630.372	7.85
630.564	7.81
630.755	7.74
630.947	7.71
631.139	7.75
631.33	7.72
631.522	7.7
631.714	7.71
631.905	7.67
632.097	7.67
632.289	7.72
632.48	7.71
632.672	7.66
632.863	7.66
633.055	7.6
633.246	7.51
633.438	7.47
633.629	7.47
633.821	7.5
634.012	7.5
634.203	7.51
634.395	7.54
634.586	7.64
634.777	7.61
634.969	7.63
635.16	7.7
635.351	7.73
635.543	7.7
635.734	7.64
635.925	7.67
636.117	7.64
636.308	7.59
636.499	7.54
636.69	7.64
636.881	7.61
637.073	7.52
637.264	7.51
637.455	7.53
637.646	7.44
637.837	7.42
638.028	7.49
638.219	7.47
638.41	7.49
638.601	7.5
638.792	7.54
638.983	7.56
639.174	7.54
639.365	7.44
639.556	7.43
639.747	7.43
639.938	7.37
640.129	7.35
640.32	7.41
640.511	7.42
640.701	7.37
640.892	7.41
641.083	7.32
641.274	7.35
641.465	7.31
641.655	7.35
641.846	7.3
642.037	7.41
642.228	7.25
642.418	7.13
642.609	7.03
642.8	7.02
642.99	7.03
643.181	7.14
643.372	7.24
643.562	7.25
643.753	7.2
643.943	7.19
644.134	7.16
644.324	7.1
644.515	7.16
644.705	7.14
644.896	7.11
645.086	7.11
645.277	7.15
645.467	7.12
645.658	7.17
645.848	7.13
646.038	7.08
646.229	7.11
646.419	7.04
646.61	7.08
646.8	7.15
646.99	7.17
647.18	7.1
647.371	7.14
647.561	7.05
647.751	7.07
647.941	7.1
648.132	7.2
648.322	7.19
648.512	7.2
648.702	7.13
648.892	7.04
649.082	7.01
649.272	6.99
649.462	6.97
649.653	6.97
649.843	7.06
650.033	6.99
650.223	6.91
650.413	6.94
650.603	6.86
650.793	6.77
650.983	6.79
651.172	6.84
651.362	6.75
651.552	6.8
651.742	6.86
651.932	6.71
652.122	6.73
652.312	6.69
652.502	6.58
652.691	6.47
652.881	6.54
653.071	6.47
653.261	6.39
653.45	6.38
653.64	6.32
653.83	6.28
654.019	6.27
654.209	6.25
654.399	6.21
654.588	6.12
654.778	6.02
654.968	5.85
655.157	5.77
655.347	5.69
655.536	5.68
655.726	5.58
655.915	5.56
656.105	5.52
656.294	5.48
656.484	5.45
656.673	5.51
656.863	5.48
657.052	5.43
657.241	5.4
657.431	5.34
657.62	5.24
657.809	5.18
657.999	5.22
658.188	5.2
658.377	5.13
658.567	5.03
658.756	4.91
658.945	4.85
659.134	4.76
659.324	4.69
659.513	4.69
659.702	4.68
659.891	4.61
660.08	4.53
660.269	4.52
660.458	4.49
660.648	4.51
660.837	4.49
661.026	4.43
661.215	4.42
661.404	4.42
661.593	4.26
661.782	4.13
661.971	4.11
662.16	4.06
662.349	3.96
662.538	4.02
662.726	4.1
662.915	4.18
663.104	4.15
663.293	4.13
663.482	4.08
663.671	4.01
663.86	3.96
664.048	3.94
664.237	3.84
664.426	3.84
664.615	3.74
664.803	3.65
664.992	3.63
665.181	3.73
665.369	3.72
665.558	3.83
665.747	3.88
665.935	3.86
666.124	3.9
666.312	3.89
666.501	3.88
666.69	3.96
666.878	4.02
667.067	3.94
667.255	3.96
667.444	3.76
667.632	3.63
667.82	3.47
668.009	3.54
668.197	3.53
668.386	3.74
668.574	3.77
668.762	3.87
668.951	3.84
669.139	4.01
669.327	4.05
669.516	4.03
669.704	4.15
669.892	4.19
670.08	4
670.269	4
670.457	4.06
670.645	3.99
670.833	4
671.021	4.12
671.21	4.08
671.398	4.03
671.586	3.97
671.774	4.02
671.962	4.17
672.15	4.28
672.338	4.53
672.526	4.69
672.714	4.67
672.902	4.57
673.09	4.49
673.278	4.37
673.466	4.31
673.654	4.36
673.842	4.46
674.03	4.5
674.218	4.6
674.405	4.7
674.593	4.72
674.781	4.62
674.969	4.63
675.157	4.54
675.344	4.57
675.532	4.54
675.72	4.54
675.908	4.7
676.095	4.8
676.283	4.71
676.471	4.68
676.658	4.82
676.846	4.82
677.033	4.85
677.221	4.99
677.409	5.12
677.596	5.16
677.784	5.15
677.971	5.14
678.159	5.21
678.346	5.17
678.534	5.2
678.721	5.07
678.909	5.17
679.096	5.25
679.283	5.33
679.471	5.4
679.658	5.65
679.846	5.72
680.033	5.7
680.22	5.72
680.408	5.7
680.595	5.73
680.782	5.76
680.969	5.63
681.157	5.7
681.344	5.66
681.531	5.68
681.718	5.71
681.905	5.85
682.093	5.83
682.28	5.91
682.467	5.99
682.654	6
682.841	6.08
683.028	6.22
683.215	6.34
683.402	6.3
683.589	6.29
683.776	6.34
683.963	6.32
684.15	6.14
684.337	6.31
684.524	6.39
684.711	6.32
684.898	6.34
685.085	6.51
685.271	6.44
685.458	6.5
685.645	6.65
685.832	6.85
686.019	7.05
686.205	7.16
686.392	7.23
686.579	7.36
686.766	7.46
686.952	7.53
687.139	7.63
687.326	7.92
687.512	8.1
687.699	8.23
687.886	8.4
688.072	8.6
688.259	8.77
688.445	8.97
688.632	9.26
688.818	9.41
689.005	9.63
689.191	9.76
689.378	9.89
689.564	10.07
689.751	10.29
689.937	10.59
690.124	10.9
690.31	11.17
690.496	11.51
690.683	11.84
690.869	11.95
691.055	12.23
691.242	12.58
691.428	12.74
691.614	12.96
691.8	13.54
691.987	13.69
692.173	14.01
692.359	14.35
692.545	14.86
692.731	15.17
692.918	15.57
693.104	16.08
693.29	16.47
693.476	16.94
693.662	17.4
693.848	17.88
694.034	18.19
694.22	18.76
694.406	19.16
694.592	19.5
694.778	20.27
694.964	20.82
695.15	21.21
695.336	21.51
695.522	22.14
695.708	22.48
695.894	22.82
696.08	23.46
696.265	24.17
696.451	24.59
696.637	25.14
696.823	25.91
697.009	26.45
697.194	26.93
697.38	27.49
697.566	28.16
697.751	28.81
697.937	29.53
698.123	30.08
698.308	30.5
698.494	31
698.68	31.31
698.865	31.5
699.051	31.73
699.236	32.37
699.422	32.95
699.607	33.53
699.793	34.15
699.978	34.96
700.164	35.63
700.349	35.74
700.535	36.22
700.72	36.7
700.906	37.28
701.091	37.61
701.276	38.14
701.462	38.72
701.647	39.33
701.832	39.6
702.018	40.35
702.203	40.87
702.388	41.61
702.573	42.12
702.759	42.82
702.944	43.13
703.129	43.6
703.314	43.63
703.499	44.03
703.684	44.58
703.87	44.62
704.055	45.15
704.24	45.43
704.425	45.9
704.61	46.06
704.795	46.83
704.98	47.45
705.165	48.21
705.35	48.7
705.535	49.01
705.72	49.52
705.905	49.68
706.09	49.82
706.275	50.14
706.459	50.85
706.644	51.05
706.829	51.23
707.014	51.56
707.199	51.68
707.384	51.52
707.568	51.63
707.753	51.83
707.938	52.16
708.123	52.08
708.307	52.66
708.492	53
708.677	53.31
708.861	53.48
709.046	54.03
709.231	54.25
709.415	54.28
709.6	54.62
709.784	55
709.969	55.49
710.153	55.73
710.338	56.42
710.522	56.98
710.707	57.27
710.891	57.24
711.076	57.5
711.26	57.18
711.445	56.83
711.629	57.04
711.813	56.94
711.998	56.76
712.182	57.52
712.366	58.11
712.551	57.93
712.735	58.31
712.919	58.73
713.103	58.66
713.288	58.86
713.472	59.41
713.656	59.48
713.84	59.92
714.024	59.79
714.208	59.74
714.393	59.81
714.577	60
714.761	59.63
714.945	60.01
715.129	59.89
715.313	59.73
715.497	60.11
715.681	60.29
715.865	60.58
716.049	60.9
716.233	61.56
716.417	61.74
716.601	61.91
716.785	62.09
716.968	62.09
717.152	61.84
717.336	61.88
717.52	62.07
717.704	62.1
717.888	62.7
718.071	62.94
718.255	62.49
718.439	62.55
718.622	62.61
718.806	62.1
718.99	62.61
719.174	63.57
719.357	63.61
719.541	63.86
719.724	64.24
719.908	64.08
720.092	63.73
720.275	64.07
720.459	63.95
720.642	64.33
720.826	64.57
721.009	64.91
721.193	64.77
721.376	65.31
721.559	65.02
721.743	64.74
721.926	65.04
722.11	65.59
722.293	65.74
722.476	66.24
722.66	66.59
722.843	66.2
723.026	66.61
723.21	66.66
723.393	66.52
723.576	66.52
723.759	66.89
723.942	66.54
724.126	66.32
724.309	66.84
724.492	67.46
724.675	68.01
724.858	68.61
725.041	68.43
725.224	68.73
725.407	68.09
725.59	68.23
725.774	67.68
725.957	68.74
726.14	68.25
726.322	68.62
726.505	68.48
726.688	69.28
726.871	69.08
727.054	69.83
727.237	70.46
727.42	70.55
727.603	70.65
727.786	71.17
727.968	71.71
728.151	72.22
728.334	72.9
728.517	73.28
728.699	72.8
728.882	72.77
729.065	72.62
729.248	72.24
729.43	71.8
729.613	72.71
729.796	72.33
729.978	72.51
730.161	73.18
730.343	73.44
730.526	73.35
730.708	74.21
730.891	74.47
731.073	74.64
731.256	75.11
731.438	75.71
731.621	75.43
731.803	75.27
731.986	75.49
732.168	76.84
732.35	76.89
732.533	77.11
732.715	78
732.898	77.86
733.08	77.14
733.262	77.29
733.444	77.27
733.627	77.03
733.809	77.07
733.991	76.43
734.173	77.41
734.355	77.29
734.538	78.02
734.72	78.87
734.902	79.37
735.084	78.06
735.266	78.46
735.448	78.34
735.63	79.21
735.812	80.34
735.994	81
736.176	81.79
736.358	81.05
736.54	79.73
736.722	79.44
736.904	79.57
737.086	79.81
737.268	80.63
737.45	81.47
737.632	81.74
737.814	82.07
737.995	81.82
738.177	82.45
738.359	83.06
738.541	82.77
738.723	83.03
738.904	83.74
739.086	82.97
739.268	82.22
739.449	82.6
739.631	82.24
739.813	82.23
739.994	82.72
740.176	82.58
740.358	82.6
740.539	82.81
740.721	83.87
740.902	83.6
741.084	83.44
741.265	84.09
741.447	84.66
741.628	83.37
741.81	84.57
741.991	86.07
742.172	85.35
742.354	85.46
742.535	86.4
742.717	85.65
742.898	85.5
743.079	85.94
743.261	86.9
743.442	86.47
743.623	86.72
743.804	86.16
743.986	86.01
744.167	85.57
744.348	86.05
744.529	84.95
744.71	84.56
744.891	84.35
745.073	84.27
745.254	84.22
745.435	85.82
745.616	87.56
745.797	88.2
745.978	88.82
746.159	89.57
746.34	89.21
746.521	89.15
746.702	89.02
746.883	88.47
747.064	88.07
747.245	88.15
747.426	87.47
747.606	86.91
747.787	85.99
747.968	84.79
748.149	84.98
748.33	85.37
748.51	85.7
748.691	85.79
748.872	86.97
749.053	88.49
749.233	89.57
749.414	90.58
749.595	90.96
749.775	91.01
749.956	89.87
750.137	88.06
750.317	87.09
750.498	86.67
750.678	86.33
750.859	85.37
751.04	85.3
751.22	86.76
751.4	87.54
751.581	88.18
751.761	87.99
751.942	88.53
752.122	87.15
752.303	88.32
752.483	88.5
752.663	90.07
752.844	90.27
753.024	90.94
753.204	89.98
753.385	89.02
753.565	88.03
753.745	87.5
753.925	86.97
754.106	86.67
754.286	86.9
754.466	87.78
754.646	88.29
754.826	88.62
755.006	88.23
755.187	88.34
755.367	88.2
755.547	89.21
755.727	89.1
755.907	90.68
756.087	89.64
756.267	88.36
756.447	87.98
756.627	88.43
756.807	86.97
756.987	88.92
757.167	91.08
757.346	90.21
757.526	89.7
757.706	90.06
757.886	90.34
758.066	89.07
758.246	89.37
758.425	91.05
758.605	90.19
758.785	89.95
758.965	90.47
759.144	90.68
759.324	89.26
759.504	89.77
759.683	88.88
759.863	88.25
760.043	87.55
760.222	88.3
760.402	88.23
760.581	87.78
760.761	87.88
760.94	87.73
761.12	87.42
761.299	87.78
761.479	87.22
761.658	87.31
761.838	88.32
762.017	87.86
762.197	88.4
762.376	90.99
762.555	89.73
762.735	88.25
762.914	88.4
763.093	87.53
763.273	85.99
763.452	87.52
763.631	87.58
763.81	87.74
763.99	89.39
764.169	90.25
764.348	89.62
764.527	90.72
764.706	89.51
764.885	88.84
765.064	86.69
765.243	87.28
765.423	86.61
765.602	87.48
765.781	88.93
765.96	89.97
766.139	90.41
766.318	92.05
766.497	90.63
766.676	88.31
766.854	88.33
767.033	87.62
767.212	85.67
767.391	87.73
767.57	87.35
767.749	87.06
767.928	86.11
768.106	86.56
768.285	85.85
768.464	87.23
768.643	89.2
768.821	88.51
769	88.14
769.179	89.91
769.357	90.85
769.536	88.79
769.715	88.19
769.893	87.13
770.072	86.1
770.25	83.67
770.429	83.22
770.607	84.67
770.786	86.21
770.964	85.18
771.143	86.1
771.321	85.69
771.5	84.02
771.678	84.47
771.857	85.78
772.035	84.72
772.213	85.14
772.392	87.04
772.57	84.96
772.748	84.48
772.927	87.01
773.105	87
773.283	85.91
773.461	88.18
773.64	86.58
773.818	85.41
773.996	84.27
774.174	83.34
774.352	82.81
774.531	82.63
774.709	81.02
774.887	82.97
775.065	85.27
775.243	86.63
775.421	85.79
775.599	87.67
775.777	86.54
775.955	85.32
776.133	84.21
776.311	84.54
776.489	83.08
776.667	83.84
776.844	83.44
777.022	83.76
777.2	84.53
777.378	85.22
777.556	85.33
777.734	85.35
777.911	84.43
778.089	84.66
778.267	83.29
778.445	83.63
778.622	84.45
778.8	82.4
778.978	82.06
779.155	82.05
779.333	80.38
779.511	79.44
779.688	79.02
779.866	81.45
780.043	83.74
780.221	84.58
780.398	85.61
780.576	88.02
780.753	86.69
780.931	85.27
781.108	84.44
781.286	84.46
781.463	84.83
781.64	85.06
781.818	82.12
781.995	81.68
782.172	81.04
782.35	80.73
782.527	78.22
782.704	82.07
782.882	82.23
783.059	81
783.236	81.03
783.413	81.3
783.59	82.54
783.768	86.37
783.945	87.71
784.122	88.73
784.299	89.93
784.476	87.53
784.653	87.12
784.83	89.57
785.007	87.94
785.184	88.3
785.361	88.27
785.538	85.55
785.715	85.66
785.892	84.77
786.069	83.79
786.246	84.19
786.423	83.4
786.6	82.88
786.776	85.04
786.953	85.53
787.13	86.02
787.307	84.76
787.484	84.49
787.66	86.5
787.837	84.49
788.014	85.27
788.191	89.19
788.367	89.58
788.544	86.3
788.721	88.58
788.897	86.76
789.074	85.1
789.25	83.29
789.427	83.54
789.603	81.88
789.78	82.05
789.956	81.65
790.133	83.09
790.309	83.14
790.486	81.02
790.662	82.23
790.839	86.97
791.015	85.9
791.192	84.32
791.368	86.34
791.544	86.69
791.721	81.93
791.897	81.65
792.073	83.65
792.249	83.52
792.426	83.51
792.602	83.51
792.778	84.04
792.954	82.28
793.13	84.47
793.307	81.08
793.483	81.02
793.659	80.66
793.835	82.89
794.011	79.53
794.187	82.63
794.363	83.84
794.539	82.91
794.715	84.34
794.891	85.28
795.067	81.16
795.243	80.96
795.419	82.33
795.595	81.23
795.771	80.73
795.947	80.93
796.122	82.63
796.298	78.39
796.474	73.02
796.65	74.56
796.826	78.78
797.001	73.77
797.177	76.82
797.353	81.25
797.529	81.97
797.704	81.91
797.88	88.23
798.056	90.33
798.231	86.63
798.407	85.14
798.582	81.16
798.758	80.52
798.934	75.23
799.109	75.18
799.285	78.83
799.46	82.63
799.636	79.06
799.811	83.15
799.986	82.6
800.162	78.81
800.337	70.22
800.513	72.1
800.688	72.77
800.863	80.07
801.039	81.65
801.214	90.5
801.389	85.03
801.565	82.66
801.74	81.56
801.915	83.7
802.09	76.75
802.265	77.3
802.441	77.66
802.616	74.49
802.791	69.53
802.966	78.13
803.141	83.19
803.316	86.18
803.491	90.13
803.666	94.86
803.841	88.19
804.016	89.68
804.191	90.68
804.366	87.89
804.541	87.24
804.716	87.67
804.891	81.47
805.066	74.52
805.241	78.05
805.416	75.69
805.591	74.81
805.765	77.49
805.94	84.32
806.115	83.88
806.29	81.01
806.464	83.62
806.639	84.07
806.814	85.21
806.989	81.73
807.163	82.47
807.338	87.04
807.512	83.71
807.687	79.74
807.862	76.07
808.036	76.99
808.211	75.52
808.385	76.66
808.56	75.78
808.734	85.31
808.909	86.17
809.083	83.23
809.258	77.88
809.432	81.92
809.606	80.59
809.781	79.76
809.955	76.31
810.13	76.65
810.304	76.45
810.478	75.02
810.652	78.16
810.827	84.66
811.001	89.9
811.175	83.06
811.349	84.85
811.524	82.93
811.698	76.06
811.872	74.61
812.046	81.34
812.22	78.29
812.394	78.19
812.568	81.4
812.742	82.19
812.916	78.11
813.09	76.37
813.264	79.17
813.438	90.96
813.612	95.53
813.786	103.23
813.96	105.85
814.134	106.57
814.308	90.11
814.482	89.27
814.656	87.45
814.83	90.65
815.003	90.89
815.177	98.56
815.351	89.48
815.525	82.85
815.698	82.48
815.872	75.49
816.046	70.6
816.219	66.67
816.393	61.29
816.567	59.5
816.74	66.88
816.914	59.47
817.088	67.92
817.261	74.25
817.435	74.86
817.608	67.8
817.782	80.36
817.955	84.82
818.129	88.93
818.302	94.46
818.475	99.37
818.649	90.36
818.822	84.28
818.996	74.96
819.169	69.1
819.342	63.63
819.516	67.24
819.689	59.86
819.862	69.89
820.035	74.54
820.209	74.96
820.382	75.85
820.555	80.51
820.728	65.29
820.901	64.58
821.075	66.77
821.248	62.02
821.421	75.07
821.594	87.04
821.767	90.66
821.94	88.71
822.113	91.6
822.286	74.73
822.459	66.71
822.632	62.82
822.805	65.77
822.978	62.01
823.151	61.83
823.324	75.3
823.496	75.55
823.669	70.69
823.842	76.8
824.015	87.75
824.188	75.25
824.361	75.55
824.533	79.5
824.706	81.26
824.879	80.79
825.051	72.29
825.224	73.21
825.397	73.39
825.569	72.63
825.742	66.32
825.915	72.21
826.087	76.73
826.26	77.52
826.432	82.16
826.605	85.09
826.777	75.81
826.95	74.09
827.122	74.82
827.295	59.88
827.467	62.38
827.64	67.76
827.812	76.79
827.984	70.33
828.157	72.44
828.329	75.37
828.501	83.29
828.674	80.68
828.846	84.92
829.018	86.86
829.19	80.45
829.363	73.44
829.535	69.28
829.707	62.34
829.879	59.81
830.051	61.54
830.223	63.92
830.395	65.05
830.568	74.19
830.74	64.12
830.912	59.63
831.084	41.35
831.256	34.37
831.428	30.18
831.6	38.26
831.772	54.27
831.943	75.35
832.115	84.96
832.287	90.22
832.459	100.33
832.631	95.93
832.803	83.65
832.975	76.94
833.146	79.69
833.318	85.96
833.49	72.71
833.662	77.35
833.833	73.85
834.005	73.93
834.177	76.37
834.348	103.76
834.52	93.66
834.692	89.78
834.863	85.65
835.035	75.26
835.206	54.85
835.378	56.74
835.549	73.86
835.721	69.74
835.892	59.4
836.064	56.06
836.235	59.56
836.407	55.65
836.578	62.62
836.749	62.1
836.921	65.03
837.092	71.39
837.264	86.16
837.435	82.88
837.606	76.82
837.777	83.83
837.949	57.88
838.12	48.01
838.291	53.84
838.462	74.08
838.633	68.78
838.805	88.02
838.976	89.85
839.147	81.67
839.318	76.33
839.489	85.52
839.66	77.28
839.831	32.46
840.002	44.48
840.173	54.52
840.344	48.28
840.515	38.58
840.686	58.8
840.857	64.93
841.028	59.33
841.199	61.59
841.369	76.6
841.54	95.47
841.711	92
841.882	102.35
842.053	98.53
842.223	112.41
842.394	91.57
842.565	79.12
842.736	55.89
842.906	50.36
843.077	26.92
843.248	12.59
843.418	31.17
843.589	30.07
843.759	4
843.93	14.69
844.101	14.27
844.271	10.21
844.442	15.4
844.612	2.61
844.783	28.72
844.953	45.45
845.123	43.11
845.294	50.16
845.464	72.86
845.635	59.74
845.805	70.54
845.975	94.14
846.146	78.94
846.316	71.23
846.486	64.96
846.656	68.57
846.827	70
846.997	76.39
847.167	70.23
847.337	70.56
847.507	58.65
847.677	59.07
847.848	65.64
848.018	76.55
848.188	92.15
848.358	108.63
848.528	85.89
848.698	84.84
848.868	79.25
849.038	78.01
849.208	76.34
849.378	75.81
849.548	73.69
849.718	93.49
849.887	80.49
850.057	90.92
850.227	103.41
850.397	92.57
850.567	75.08
850.737	39.52
850.906	27.77
851.076	21.04
851.246	12
851.415	35.89
851.585	84.79
851.755	124.23
851.924	128.13
852.094	99.33
852.264	85.36
852.433	63.36
852.603	61.31
852.772	63.26
852.942	51.1
853.111	48.45
853.281	59.74
853.45	39.64
853.62	21.69
853.789	42.14
853.959	31.37
854.128	47.51
854.297	76.64
854.467	84.48
854.636	66.13
854.805	75.34
854.975	-7.82
855.144	-8.86
855.313	-47.31
855.482	55.65
855.652	86.69
855.821	114.18
855.99	90.68
856.159	91.41
856.328	76.29
856.497	54.88
856.667	32.39
856.836	55.91
857.005	65.39
857.174	64.76
857.343	72.32
857.512	51.5
857.681	64.9
857.85	53.46
858.019	37.52
858.188	45.84
858.356	42.76
858.525	35.25
858.694	163.91
858.863	183.86
859.032	133.89
859.201	197.18
859.369	192.18
859.538	61.62
859.707	54.34
859.876	39.55
860.044	29.66
860.213	18.68
860.382	44.33
860.55	39.16
860.719	47.59
860.888	66.27
861.056	63.52
861.225	59.97
861.393	46.29
861.562	29.68
861.73	7.43
861.899	29.47
862.067	40.33
862.236	65.37
862.404	72.03
862.572	71.42
862.741	68.1
862.909	58.91
863.078	55.65
863.246	64.75
863.414	36.75
863.582	16.92
863.751	29.54
863.919	28.87
864.087	-4.09
864.255	22.43
864.424	47.24
864.592	14.95
864.76	20.53
864.928	52.57
865.096	54.42
865.264	60.19
865.432	81.86
865.6	58.07
865.768	83.98
865.936	74.1
866.104	76.92
866.272	72.45
866.44	102.95
866.608	76.66
866.776	83.16
866.944	74.97
867.112	77.07
867.28	93.47
867.448	75.03
867.615	62.75
867.783	69.25
867.951	65.17
868.119	18.36
868.286	58.43
868.454	94.24
868.622	106.06
868.789	93.42
868.957	90.68
869.125	102.96
869.292	77.91
869.46	75.42
869.627	72.73
869.795	81.34
869.963	56.5
870.13	34.76
870.298	1.89
870.465	19.13
870.632	36.53
870.8	55.28
870.967	61.61
871.135	71.79
871.302	46.03
871.469	-4
871.637	-14.09
871.804	-2.12
871.971	27.74
872.139	48.1
872.306	46.55
872.473	39.2
872.64	37.19
872.807	5.41
872.975	1.22
873.142	56.24
873.309	98.26
873.476	104.33
873.643	101.32
873.81	175.08
873.977	154.66
874.144	111.1
874.311	106.19
874.478	127.28
874.645	125.83
874.812	117.93
874.979	96
875.146	108.16
875.313	107.64
875.48	78.15
875.647	91.65
875.813	110.84
875.98	85.26
876.147	85.93
876.314	56
876.481	86.05
876.647	85.89
876.814	45.85
876.981	302.63
877.147	-402.54
877.314	121.32
877.481	112.47
877.647	133
877.814	119.51
877.98	79.65
878.147	71.98
878.314	46.42
878.48	74.73
878.647	60.37
878.813	40.2
878.979	13.31
879.146	34.97
879.312	44.47
879.479	36.21
879.645	78.98
879.811	104.38
879.978	140.57
880.144	96.56
880.31	131.17
880.477	81.03
880.643	56.32
880.809	-58
880.975	-281.46
881.142	-14.09
881.308	-92.04
881.474	53.3
881.64	59.65
881.806	84.21
881.972	69.27
882.138	58.21
882.304	-76.15
882.47	6.86
882.636	-195.57
882.802	-88.95
882.968	-10
883.134	66.45
883.3	56.5
883.466	77.9
883.632	70.31
883.798	73.88
883.964	76.21
884.129	74.24
884.295	55.24
884.461	63.69
884.627	62.95
884.793	55.26
884.958	58.11
885.124	77.11
885.29	74.97
885.455	45.11
885.621	15.11
885.787	28.34
885.952	-42.08
886.118	-16.67
886.283	119.01
886.449	176.2
886.614	159.09
886.78	166.39
886.945	267.24
887.111	767.33
887.276	-4483.33
887.442	-855.71
887.607	243.89
887.773	148.19
887.938	87.66
888.103	76.46
888.269	111.03
888.434	141.01
888.599	95.98
888.764	77.01
888.93	40.55
889.095	17.18
889.26	41.6
889.425	1892.86
889.59	386
889.756	164.18
889.921	119.23
890.086	386.62
890.251	9.87
890.416	56.43
890.581	-51.66
890.746	39
890.911	41.26
891.076	38.22
891.241	39.6
891.406	43.51
891.571	-0.82
891.736	50.2
891.901	53.17
892.065	38.06
892.23	-12.13
892.395	66.45
892.56	38.84
892.725	-60.53
892.889	-31.14
893.054	31.05
893.219	61.87
893.384	125.78
893.548	276.81
893.713	348.28
893.878	543.02
