Data from Ofav_PP_Phys_4EV14_Reflection_3.txt Node
Date: Tue Aug 03 18:09:46 EDT 2021
User: Adam
Spectrometer: FLMT01687
Trigger mode: 0
Integration Time (sec): 8.750000E-1
Scans to average: 2
Electric dark correction enabled: true
Nonlinearity correction enabled: false
Boxcar width: 2
XAxis mode: Wavelengths
Number of Pixels in Spectrum: 3648
>>>>>Begin Spectral Data<<<<<
179.494	115.17
179.716	148.94
179.937	133.27
180.158	194.62
180.38	279.82
180.601	52.14
180.823	32.56
181.044	36.07
181.265	23.45
181.486	147.51
181.708	89.61
181.929	185.59
182.15	33.82
182.372	170.68
182.593	160.97
182.814	-69.05
183.035	393.26
183.257	1051.96
183.478	4.75
183.699	-343.17
183.92	-48.18
184.141	-111.19
184.363	-70.95
184.584	-233.01
184.805	-72.05
185.026	-93.39
185.247	-62.11
185.468	-50.64
185.689	-44.29
185.91	-18.13
186.132	-11.17
186.353	20.63
186.574	17.41
186.795	55.75
187.016	34.54
187.237	31.54
187.458	12
187.679	-11.63
187.9	-8.4
188.121	-5.6
188.342	-6.87
188.563	0.13
188.784	23.17
189.005	10.9
189.226	5.56
189.447	11.76
189.667	5.41
189.888	31.79
190.109	49.77
190.33	36.24
190.551	26.4
190.772	39.42
190.993	-39.22
191.214	-52.34
191.434	-23.5
191.655	-36.35
191.876	-28.38
192.097	11.54
192.318	18.34
192.538	20.27
192.759	23.26
192.98	18.93
193.201	1.31
193.421	0.4
193.642	-21.7
193.863	-12.64
194.083	-1.82
194.304	-5.92
194.525	-27.65
194.745	-2.48
194.966	-4.56
195.187	-3.01
195.407	3.75
195.628	29.47
195.848	38.13
196.069	51.36
196.29	34.49
196.51	39.84
196.731	49.94
196.951	37.37
197.172	57.15
197.392	91.24
197.613	81.85
197.833	58.14
198.054	76.27
198.274	38.1
198.495	25.94
198.715	43.6
198.936	38.44
199.156	23.39
199.377	30.55
199.597	38.63
199.817	46.25
200.038	43.8
200.258	34.56
200.479	-30.72
200.699	-51.05
200.919	-138.26
201.14	-48.68
201.36	-39.34
201.58	-10.4
201.801	-16.63
202.021	4.27
202.241	-11.12
202.461	-14.07
202.682	2.28
202.902	4.49
203.122	16.28
203.342	13.46
203.563	37.26
203.783	28.04
204.003	43.26
204.223	44.72
204.443	32.61
204.663	9.93
204.884	-6.87
205.104	-43.31
205.324	-77.85
205.544	-108.02
205.764	-50.83
205.984	-109.93
206.204	-102.53
206.424	-153.81
206.644	-31.23
206.864	-54.49
207.084	-36.38
207.304	-42.63
207.525	10.19
207.745	10.83
207.964	32.19
208.184	28.02
208.404	53.05
208.624	63.46
208.844	48.9
209.064	41.98
209.284	59.45
209.504	29.06
209.724	-9.79
209.944	-14.68
210.164	-39.59
210.384	-8.85
210.604	-10.7
210.823	-0.32
211.043	20.11
211.263	28.73
211.483	18.19
211.703	43.71
211.922	42.43
212.142	32.13
212.362	8.56
212.582	5.76
212.801	-31.9
213.021	-16.03
213.241	-24.69
213.461	-0.09
213.68	-3.34
213.9	12.76
214.12	6.3
214.339	12.8
214.559	44.37
214.779	57.32
214.998	52.73
215.218	60.39
215.438	55.16
215.657	52.23
215.877	38.91
216.096	25.99
216.316	24.76
216.535	18.42
216.755	-14.31
216.974	10.41
217.194	41.51
217.413	50.34
217.633	51.31
217.852	63.7
218.072	62.63
218.291	40.91
218.511	25.74
218.73	33.69
218.95	40.38
219.169	31.56
219.389	39.07
219.608	42.33
219.827	30.95
220.047	-6.92
220.266	8.97
220.485	8.87
220.705	1.83
220.924	-1.12
221.143	-7.06
221.363	-10.22
221.582	-16.5
221.801	-39.15
222.021	-20.08
222.24	12.6
222.459	-19.54
222.678	-0.4
222.897	1.37
223.117	-34.5
223.336	-212.11
223.555	-112.38
223.774	-113.76
223.993	-60.05
224.213	-61.24
224.432	-16.58
224.651	-10.02
224.87	-11.21
225.089	-16.8
225.308	-53.75
225.527	-84.31
225.746	-124.18
225.965	-136.57
226.184	-145.22
226.404	-12.86
226.623	17.92
226.842	38.65
227.061	16.2
227.28	14.49
227.499	22.27
227.718	19.9
227.936	0.12
228.155	29.15
228.374	26.35
228.593	16.54
228.812	5.81
229.031	10.96
229.25	13.01
229.469	-2.06
229.688	-0.21
229.907	-40.13
230.125	-25.18
230.344	-9.33
230.563	-29.92
230.782	-11.77
231.001	20.39
231.22	6.8
231.438	-9.53
231.657	-18.78
231.876	-17.2
232.095	-24.8
232.313	-23.84
232.532	-44.01
232.751	-11.51
232.969	-14.6
233.188	-4.84
233.407	8.18
233.625	37.8
233.844	21.33
234.063	34.4
234.281	38.76
234.5	27.38
234.719	12.47
234.937	30.99
235.156	-7.53
235.374	-20.68
235.593	-13.56
235.811	-21.91
236.03	-15.3
236.249	8.16
236.467	19.58
236.686	14.28
236.904	29.31
237.123	31.11
237.341	31.12
237.559	35.25
237.778	43.28
237.996	38.15
238.215	29.06
238.433	17.88
238.652	16.58
238.87	25.76
239.088	32.86
239.307	40.84
239.525	40.09
239.743	32.92
239.962	32.31
240.18	32.31
240.398	34.75
240.617	39.67
240.835	33.96
241.053	10.09
241.271	-59.75
241.49	-42.7
241.708	-19.01
241.926	-9.53
242.144	8.18
242.363	37.16
242.581	21.45
242.799	15.72
243.017	5.83
243.235	21.48
243.453	8.8
243.672	22.27
243.89	30.71
244.108	42.61
244.326	4.79
244.544	12.55
244.762	24.74
244.98	-1.39
245.198	-11.29
245.416	22.95
245.634	15.2
245.852	-2.13
246.07	5.02
246.288	-15.83
246.506	-8.75
246.724	6.25
246.942	9.07
247.16	19.49
247.378	34.31
247.596	44.72
247.814	41.24
248.032	35.02
248.25	25.84
248.468	18.03
248.685	4.86
248.903	-21.64
249.121	-10.54
249.339	-2.34
249.557	14.01
249.775	-10.66
249.992	18.05
250.21	-0.87
250.428	-6.55
250.646	-43.17
250.863	-13.68
251.081	-43.4
251.299	-52.57
251.517	-20.45
251.734	-20.72
251.952	-22.71
252.17	-11.22
252.387	-13.92
252.605	-23.57
252.823	6.02
253.04	-35.79
253.258	-10.94
253.475	10.1
253.693	-4.12
253.911	11.48
254.128	18.54
254.346	9.89
254.563	33.03
254.781	44.98
254.998	33.82
255.216	25.29
255.433	32.54
255.651	9.24
255.868	-23.33
256.086	-41.59
256.303	-10.92
256.521	9.36
256.738	19.92
256.956	50.88
257.173	81.54
257.39	71.61
257.608	57.91
257.825	30.76
258.043	-28.15
258.26	-10.6
258.477	1.03
258.695	-7.98
258.912	-5.64
259.129	5.29
259.346	5.69
259.564	7.11
259.781	25.42
259.998	41.31
260.216	46.53
260.433	34.53
260.65	29.5
260.867	36.58
261.084	23.59
261.302	5.45
261.519	15.69
261.736	19.1
261.953	2.06
262.17	0.32
262.387	4.68
262.604	18.04
262.822	14.59
263.039	12.81
263.256	32.45
263.473	44.33
263.69	39.3
263.907	36.94
264.124	14.27
264.341	-21.43
264.558	-51.72
264.775	-51.08
264.992	-43.48
265.209	-25.2
265.426	-20.17
265.643	8.76
265.86	10.87
266.077	24.88
266.294	16.37
266.51	29.02
266.727	23.08
266.944	22.86
267.161	16.25
267.378	23.69
267.595	13.71
267.812	5.03
268.028	-4.78
268.245	-0.07
268.462	3.94
268.679	3.37
268.896	-22.92
269.112	-6.83
269.329	-28.53
269.546	-64.81
269.763	-39.45
269.979	-13.98
270.196	-16.6
270.413	0.89
270.629	11.22
270.846	17.82
271.063	6.91
271.279	24.61
271.496	19.06
271.712	3.36
271.929	-15.02
272.146	18.69
272.362	8.07
272.579	-7.4
272.795	-1.53
273.012	-4.54
273.228	-11.41
273.445	-16.48
273.661	4.71
273.878	13.49
274.094	23.85
274.311	13.72
274.527	8.13
274.744	8.36
274.96	-10.27
275.177	-41.27
275.393	-31.27
275.609	-16.38
275.826	-18.33
276.042	-1.43
276.259	16.1
276.475	6.88
276.691	-10.17
276.908	-13
277.124	-6.35
277.34	-6.71
277.557	4.61
277.773	21.12
277.989	25.99
278.205	29.2
278.422	32.91
278.638	26.97
278.854	30.38
279.07	19.39
279.286	7.81
279.503	9.48
279.719	10.94
279.935	9.77
280.151	8.48
280.367	-0.07
280.583	-18.44
280.799	-12.58
281.016	-24.76
281.232	-25.88
281.448	-17.41
281.664	-5.63
281.88	-6.65
282.096	5.24
282.312	-2.81
282.528	6.74
282.744	16
282.96	25.08
283.176	40.25
283.392	49.73
283.608	41.88
283.824	24.33
284.04	22.02
284.256	12.99
284.471	11.72
284.687	12.52
284.903	13.65
285.119	-6.95
285.335	-10.61
285.551	-19.79
285.767	-11.28
285.982	-16.25
286.198	0.79
286.414	4.85
286.63	16.67
286.846	-1.85
287.061	7.62
287.277	-2.3
287.493	-10.6
287.709	-62.91
287.924	-12.62
288.14	-17.34
288.356	-32.3
288.571	-35.44
288.787	-10.81
289.003	-32.6
289.218	-42.91
289.434	-12.38
289.65	5.51
289.865	6.06
290.081	-6.95
290.296	22.2
290.512	25.35
290.727	14.36
290.943	26.72
291.159	40.9
291.374	21.03
291.59	29.64
291.805	40.51
292.021	44.41
292.236	39.1
292.451	42.33
292.667	52.92
292.882	42.35
293.098	27.86
293.313	19.57
293.529	40.49
293.744	19.59
293.959	42.38
294.175	50.31
294.39	53.88
294.605	29.88
294.821	30.36
295.036	6.66
295.251	-1.39
295.467	0.54
295.682	20.01
295.897	-1.2
296.112	13.68
296.328	20.19
296.543	18.47
296.758	-3.67
296.973	9.57
297.188	5.21
297.404	16.47
297.619	16.03
297.834	24.87
298.049	12.01
298.264	16.35
298.479	-2
298.694	-6.35
298.909	-3.37
299.125	9.52
299.34	-11.01
299.555	-3.02
299.77	-13.31
299.985	19.66
300.2	35.78
300.415	51.77
300.63	32.24
300.845	36.63
301.06	11.99
301.275	-42.1
301.49	-4.47
301.704	-1.91
301.919	13.51
302.134	10.3
302.349	33.53
302.564	31.35
302.779	38.96
302.994	32.35
303.209	34.51
303.423	22.48
303.638	26.63
303.853	30.85
304.068	31.03
304.283	38.08
304.497	51.14
304.712	51.21
304.927	36.85
305.142	41.67
305.356	29.38
305.571	17.38
305.786	5.93
306	17.35
306.215	0.95
306.43	17.58
306.644	8.79
306.859	1.43
307.074	-10.67
307.288	17.21
307.503	13.97
307.717	11.07
307.932	12.89
308.147	16.1
308.361	-7.56
308.576	-8.02
308.79	19.12
309.005	23.74
309.219	24.07
309.434	14.91
309.648	32.05
309.863	12.84
310.077	17.75
310.292	35.34
310.506	52.57
310.72	24.99
310.935	18.03
311.149	13.76
311.364	2.3
311.578	-19.38
311.792	-3.33
312.007	-32.25
312.221	-13.34
312.435	-29.36
312.649	4.2
312.864	16.85
313.078	31.64
313.292	14.77
313.507	26.92
313.721	20.8
313.935	-4.27
314.149	-14.95
314.363	17.97
314.578	0.13
314.792	-7.67
315.006	-13.34
315.22	-19.8
315.434	-41.22
315.648	-86.64
315.862	-33.89
316.077	-22.33
316.291	4.19
316.505	5.48
316.719	24
316.933	25.67
317.147	15.93
317.361	5.61
317.575	8.31
317.789	10.93
318.003	8.63
318.217	28.95
318.431	31.55
318.645	17.29
318.859	-1
319.073	2.36
319.287	14.33
319.5	29.75
319.714	55.8
319.928	67.45
320.142	53.77
320.356	54.58
320.57	40.33
320.784	31.05
320.997	20.77
321.211	44.12
321.425	26.2
321.639	25.23
321.853	14.08
322.066	6.66
322.28	3.47
322.494	3.27
322.707	-31.08
322.921	-28.21
323.135	-17.18
323.349	-28.74
323.562	2.59
323.776	37.29
323.989	38.6
324.203	37.89
324.417	29.94
324.63	27.2
324.844	12.21
325.057	5.48
325.271	-12.22
325.485	-2.26
325.698	-26.89
325.912	-10.53
326.125	7.38
326.339	26.94
326.552	12.14
326.766	13.58
326.979	-0.07
327.193	-6.44
327.406	1.92
327.619	20.19
327.833	14.3
328.046	17.97
328.26	20.76
328.473	13.33
328.686	11.52
328.9	5.12
329.113	9.77
329.326	16.93
329.54	13.08
329.753	12.02
329.966	32.33
330.179	12.2
330.393	8.74
330.606	11.43
330.819	12.23
331.032	5.75
331.246	18.65
331.459	1.58
331.672	-1.33
331.885	-4.75
332.098	-4.15
332.311	20.37
332.525	40.12
332.738	36.88
332.951	45.69
333.164	27.97
333.377	20.66
333.59	14.89
333.803	14.11
334.016	3.45
334.229	25.78
334.442	-9.4
334.655	-1.3
334.868	-11.79
335.081	-19
335.294	-35.38
335.507	8.6
335.72	-4.63
335.933	-1.12
336.146	4.54
336.359	7.14
336.572	-5.6
336.785	6.49
336.997	22.17
337.21	28.48
337.423	40.27
337.636	58.33
337.849	56.17
338.062	37.57
338.274	17.65
338.487	20.13
338.7	18.25
338.913	26.99
339.125	31.81
339.338	34.87
339.551	21.15
339.763	2.01
339.976	-5.65
340.189	-12.76
340.402	-12.96
340.614	-0.75
340.827	18.87
341.039	21.73
341.252	33.65
341.465	32.74
341.677	20.74
341.89	26.48
342.102	19.98
342.315	6.92
342.527	21.09
342.74	27.61
342.952	10.86
343.165	29.38
343.377	25.6
343.59	16.21
343.802	19
344.015	-3.55
344.227	-40.32
344.44	-0.27
344.652	1.55
344.864	-13.51
345.077	-18.23
345.289	-30.88
345.502	-82
345.714	-99.39
345.926	-52.84
346.139	-28.02
346.351	-16.07
346.563	8.48
346.775	23.84
346.988	12.1
347.2	21.48
347.412	21.02
347.624	18.56
347.837	8.91
348.049	15.49
348.261	-14.05
348.473	-18.17
348.685	-17.39
348.897	-0.71
349.11	-17.67
349.322	-4.95
349.534	3.24
349.746	4.37
349.958	0.86
350.17	5.45
350.382	10.66
350.594	10.87
350.806	17.51
351.018	16.76
351.23	25.84
351.442	21.02
351.654	-2.44
351.866	-4.54
352.078	-4.62
352.29	-9.75
352.502	1.38
352.714	13
352.926	4.96
353.138	4.85
353.35	0.89
353.561	14.89
353.773	16.22
353.985	25.96
354.197	24.1
354.409	32.1
354.621	26.64
354.832	35.96
355.044	31.82
355.256	31.75
355.468	29.77
355.679	29.35
355.891	25.09
356.103	30.51
356.314	23.57
356.526	28.59
356.738	24.94
356.949	22.68
357.161	14.18
357.373	23.82
357.584	20.01
357.796	12.19
358.008	-11.75
358.219	-11.51
358.431	7.13
358.642	-6.24
358.854	-30.35
359.065	2.56
359.277	16.5
359.488	-4.91
359.7	1.63
359.911	6.71
360.123	-2.41
360.334	-11.17
360.546	-8.06
360.757	-0.08
360.969	3.88
361.18	5.12
361.391	10.7
361.603	8.73
361.814	-3.97
362.025	13.41
362.237	22.48
362.448	22.07
362.659	13.95
362.871	16.84
363.082	4.87
363.293	-5.15
363.504	-1.83
363.716	17.81
363.927	20.18
364.138	20.78
364.349	26.42
364.56	24.32
364.772	27.34
364.983	25.96
365.194	30.18
365.405	20.31
365.616	16.78
365.827	9.21
366.038	12.9
366.25	3.24
366.461	23.66
366.672	21.58
366.883	9.99
367.094	7.61
367.305	22.16
367.516	1.86
367.727	12.79
367.938	24.48
368.149	22.49
368.36	11.5
368.571	9.41
368.781	5.32
368.992	4.89
369.203	16.41
369.414	28.59
369.625	35.28
369.836	21.91
370.047	16.13
370.258	5.46
370.468	-0.81
370.679	18.25
370.89	31.14
371.101	41.42
371.312	37.01
371.522	40.75
371.733	38.74
371.944	37.66
372.155	28.26
372.365	27.06
372.576	27.16
372.787	21.75
372.997	18
373.208	19.27
373.419	15.55
373.629	10.87
373.84	20.96
374.05	10.93
374.261	5.6
374.472	18.36
374.682	7.88
374.893	-4.98
375.103	-4.14
375.314	13.43
375.524	21.74
375.735	33.81
375.945	27.32
376.156	39.62
376.366	22.37
376.577	19.19
376.787	23.1
376.997	27.6
377.208	23.08
377.418	21.73
377.629	14.49
377.839	10.86
378.049	3.12
378.26	-3.22
378.47	2.69
378.68	-0.51
378.89	7.65
379.101	12.8
379.311	18
379.521	26.81
379.732	28.5
379.942	19.63
380.152	27.38
380.362	26.29
380.572	20.77
380.783	21.37
380.993	17.84
381.203	13.76
381.413	4.55
381.623	6.53
381.833	11.51
382.043	14.3
382.253	15.15
382.463	20.17
382.674	15.88
382.884	12.46
383.094	5.36
383.304	5.08
383.514	1.01
383.724	-1.65
383.934	6.25
384.144	11.46
384.353	4.98
384.563	8.96
384.773	12.18
384.983	4.36
385.193	4.91
385.403	12.26
385.613	13.2
385.823	15.84
386.033	17.41
386.242	21.06
386.452	19.82
386.662	17.08
386.872	13.54
387.082	6.7
387.291	-0.63
387.501	-0.83
387.711	-1.57
387.921	1.55
388.13	7.19
388.34	8.9
388.55	10.39
388.759	11.08
388.969	9.26
389.179	7.87
389.388	7.51
389.598	7.77
389.807	7.58
390.017	7.59
390.227	7.45
390.436	7.77
390.646	4.78
390.855	4.63
391.065	4.75
391.274	6.56
391.484	7.82
391.693	9.27
391.903	9.46
392.112	11.26
392.322	9.08
392.531	8.53
392.74	7.73
392.95	7.67
393.159	4.37
393.369	5.04
393.578	4.73
393.787	5.53
393.997	5.93
394.206	7.62
394.415	7.95
394.625	8.04
394.834	8.08
395.043	7.54
395.252	7.46
395.462	7.39
395.671	6.67
395.88	6.41
396.089	6.9
396.298	6.83
396.508	7.17
396.717	7.71
396.926	7.36
397.135	6.44
397.344	6.33
397.553	5.58
397.762	5.42
397.971	5.62
398.181	5.79
398.39	6.24
398.599	6.13
398.808	6.24
399.017	5.84
399.226	5.48
399.435	4.96
399.644	5.41
399.853	5.26
400.062	5.56
400.27	6
400.479	6.23
400.688	6.16
400.897	6.23
401.106	6.01
401.315	6.44
401.524	6.43
401.733	5.99
401.941	5.88
402.15	5.93
402.359	5.7
402.568	5.55
402.777	5.63
402.985	5.69
403.194	5.75
403.403	5.53
403.612	5.51
403.82	5.58
404.029	5.52
404.238	5.66
404.446	5.68
404.655	5.57
404.864	5.48
405.072	5.45
405.281	5.35
405.489	5.55
405.698	5.72
405.906	5.95
406.115	6.09
406.324	6.05
406.532	5.78
406.741	5.67
406.949	5.42
407.158	5.48
407.366	5.52
407.574	5.6
407.783	5.71
407.991	5.84
408.2	5.55
408.408	5.46
408.617	5.44
408.825	5.34
409.033	5.28
409.242	5.34
409.45	5.21
409.658	5.28
409.867	5.2
410.075	5.23
410.283	5.21
410.491	5.3
410.7	5.18
410.908	5.19
411.116	5
411.324	5.16
411.533	5.08
411.741	5.03
411.949	5
412.157	5.15
412.365	4.98
412.573	4.99
412.781	4.94
412.99	5.03
413.198	5
413.406	5.02
413.614	4.93
413.822	5.01
414.03	5.02
414.238	5.01
414.446	4.97
414.654	5.12
414.862	5.18
415.07	5.08
415.278	5.01
415.486	4.98
415.694	5.03
415.902	4.87
416.109	4.88
416.317	4.95
416.525	4.96
416.733	4.97
416.941	5
417.149	5.06
417.357	4.99
417.564	5.01
417.772	4.75
417.98	4.92
418.188	4.87
418.395	4.8
418.603	4.71
418.811	4.9
419.019	4.63
419.226	4.56
419.434	4.58
419.642	4.61
419.849	4.42
420.057	4.54
420.265	4.53
420.472	4.69
420.68	4.62
420.887	4.69
421.095	4.54
421.302	4.72
421.51	4.38
421.717	4.38
421.925	4.29
422.132	4.36
422.34	4.22
422.547	4.42
422.755	4.44
422.962	4.59
423.17	4.7
423.377	4.85
423.585	4.81
423.792	4.74
423.999	4.64
424.207	4.54
424.414	4.24
424.621	4.12
424.829	4.32
425.036	4.47
425.243	4.39
425.451	4.44
425.658	4.54
425.865	4.35
426.072	4.3
426.28	4.39
426.487	4.48
426.694	4.39
426.901	4.53
427.108	4.52
427.315	4.61
427.523	4.52
427.73	4.65
427.937	4.82
428.144	4.78
428.351	4.7
428.558	4.53
428.765	4.52
428.972	4.34
429.179	4.25
429.386	4.24
429.593	4.42
429.8	4.63
430.007	4.71
430.214	4.89
430.421	4.88
430.628	4.86
430.835	4.65
431.042	4.6
431.249	4.57
431.456	4.68
431.662	4.7
431.869	4.85
432.076	4.78
432.283	4.88
432.49	4.86
432.697	4.91
432.903	4.79
433.11	4.84
433.317	4.67
433.524	4.7
433.73	4.87
433.937	4.74
434.144	4.79
434.35	4.96
434.557	5.01
434.764	4.97
434.97	5.23
435.177	5.31
435.384	5.28
435.59	5.29
435.797	5.3
436.003	5.18
436.21	5.2
436.416	5.24
436.623	5.25
436.829	5.19
437.036	5.24
437.242	5.23
437.449	5.1
437.655	5.07
437.862	4.99
438.068	5
438.275	5
438.481	5.03
438.687	5.09
438.894	5.39
439.1	5.41
439.307	5.26
439.513	5.33
439.719	5.19
439.926	5.14
440.132	5.26
440.338	5.44
440.544	5.47
440.751	5.59
440.957	5.59
441.163	5.55
441.369	5.53
441.575	5.55
441.782	5.67
441.988	5.73
442.194	5.8
442.4	5.91
442.606	5.94
442.812	5.9
443.018	5.78
443.224	5.72
443.431	5.61
443.637	5.76
443.843	5.73
444.049	5.84
444.255	5.96
444.461	6.18
444.667	6.1
444.873	6
445.079	5.98
445.284	5.99
445.49	5.97
445.696	6.01
445.902	6.11
446.108	6.18
446.314	6.15
446.52	6.22
446.726	6.15
446.931	6.24
447.137	6.19
447.343	6.22
447.549	6.09
447.755	6.23
447.96	6.2
448.166	6.15
448.372	6.11
448.578	6.2
448.783	6.12
448.989	6.16
449.195	6.28
449.4	6.32
449.606	6.35
449.812	6.38
450.017	6.37
450.223	6.31
450.428	6.52
450.634	6.4
450.84	6.43
451.045	6.53
451.251	6.59
451.456	6.37
451.662	6.29
451.867	6.3
452.073	6.24
452.278	6.2
452.483	6.18
452.689	6.34
452.894	6.31
453.1	6.31
453.305	6.32
453.51	6.39
453.716	6.36
453.921	6.5
454.127	6.55
454.332	6.67
454.537	6.72
454.742	6.88
454.948	6.72
455.153	6.69
455.358	6.62
455.563	6.44
455.769	6.31
455.974	6.48
456.179	6.51
456.384	6.52
456.589	6.76
456.795	6.81
457	6.8
457.205	6.79
457.41	6.77
457.615	6.75
457.82	6.82
458.025	6.83
458.23	6.9
458.435	6.95
458.64	6.99
458.845	7
459.05	7
459.255	7
459.46	6.98
459.665	7.03
459.87	7
460.075	6.9
460.28	7
460.485	7.08
460.69	6.94
460.895	6.97
461.099	7.1
461.304	6.95
461.509	6.92
461.714	7.09
461.919	7.11
462.123	7.07
462.328	7.25
462.533	7.3
462.738	7.34
462.942	7.36
463.147	7.5
463.352	7.4
463.556	7.49
463.761	7.4
463.966	7.4
464.17	7.34
464.375	7.41
464.58	7.35
464.784	7.39
464.989	7.41
465.193	7.43
465.398	7.4
465.602	7.33
465.807	7.41
466.011	7.51
466.216	7.47
466.42	7.47
466.625	7.64
466.829	7.56
467.034	7.53
467.238	7.53
467.443	7.63
467.647	7.57
467.851	7.6
468.056	7.54
468.26	7.64
468.464	7.59
468.669	7.61
468.873	7.63
469.077	7.71
469.282	7.77
469.486	7.8
469.69	7.81
469.894	7.82
470.099	7.82
470.303	7.8
470.507	7.96
470.711	7.99
470.915	8.08
471.119	8.22
471.324	8.24
471.528	8.13
471.732	8.18
471.936	8.24
472.14	8.06
472.344	8.09
472.548	8.1
472.752	8.07
472.956	7.98
473.16	8.11
473.364	8.14
473.568	8.23
473.772	8.23
473.976	8.37
474.18	8.37
474.384	8.38
474.588	8.41
474.792	8.52
474.995	8.39
475.199	8.45
475.403	8.42
475.607	8.45
475.811	8.43
476.015	8.53
476.218	8.53
476.422	8.59
476.626	8.57
476.83	8.64
477.033	8.74
477.237	8.66
477.441	8.61
477.644	8.57
477.848	8.55
478.052	8.51
478.255	8.61
478.459	8.65
478.663	8.72
478.866	8.75
479.07	8.75
479.273	8.77
479.477	8.69
479.681	8.7
479.884	8.72
480.088	8.73
480.291	8.75
480.495	8.86
480.698	8.86
480.901	8.76
481.105	8.73
481.308	8.74
481.512	8.83
481.715	8.87
481.919	8.91
482.122	8.97
482.325	8.97
482.529	8.84
482.732	8.81
482.935	8.88
483.138	8.79
483.342	8.69
483.545	8.81
483.748	8.72
483.952	8.71
484.155	8.73
484.358	8.74
484.561	8.68
484.764	8.73
484.967	8.73
485.171	8.77
485.374	8.85
485.577	8.88
485.78	8.91
485.983	8.84
486.186	8.84
486.389	8.85
486.592	8.93
486.795	8.9
486.998	8.96
487.201	8.93
487.404	8.95
487.607	8.82
487.81	8.81
488.013	8.72
488.216	8.74
488.419	8.63
488.622	8.73
488.825	8.74
489.028	8.86
489.231	8.86
489.433	8.88
489.636	8.83
489.839	8.87
490.042	8.86
490.245	8.91
490.447	8.95
490.65	8.92
490.853	8.88
491.056	8.82
491.258	8.77
491.461	8.79
491.664	8.85
491.866	8.86
492.069	8.92
492.272	8.92
492.474	8.87
492.677	8.78
492.879	8.77
493.082	8.67
493.285	8.62
493.487	8.72
493.69	8.81
493.892	8.88
494.095	8.94
494.297	9.04
494.5	9
494.702	8.99
494.905	8.97
495.107	9
495.309	9.02
495.512	9.04
495.714	9.11
495.917	9.1
496.119	9.18
496.321	9.12
496.524	9.18
496.726	9.15
496.928	9.23
497.13	9.2
497.333	9.25
497.535	9.26
497.737	9.35
497.939	9.32
498.142	9.37
498.344	9.34
498.546	9.33
498.748	9.29
498.95	9.33
499.152	9.31
499.355	9.37
499.557	9.36
499.759	9.27
499.961	9.35
500.163	9.39
500.365	9.39
500.567	9.29
500.769	9.42
500.971	9.37
501.173	9.36
501.375	9.35
501.577	9.51
501.779	9.5
501.981	9.54
502.183	9.55
502.385	9.58
502.587	9.55
502.788	9.52
502.99	9.53
503.192	9.64
503.394	9.7
503.596	9.73
503.798	9.81
503.999	9.81
504.201	9.74
504.403	9.72
504.605	9.8
504.806	9.83
505.008	9.82
505.21	9.75
505.411	9.81
505.613	9.75
505.815	9.7
506.016	9.74
506.218	9.78
506.42	9.84
506.621	9.81
506.823	9.83
507.024	9.79
507.226	9.81
507.427	9.78
507.629	9.87
507.83	9.94
508.032	9.93
508.233	9.95
508.435	9.96
508.636	9.94
508.838	9.89
509.039	9.94
509.24	9.88
509.442	9.84
509.643	9.82
509.845	9.8
510.046	9.8
510.247	9.81
510.448	9.78
510.65	9.78
510.851	9.82
511.052	9.81
511.254	9.96
511.455	9.96
511.656	9.92
511.857	9.84
512.058	9.87
512.26	9.79
512.461	9.82
512.662	9.83
512.863	9.98
513.064	10.01
513.265	10.01
513.466	9.96
513.667	10.01
513.868	9.9
514.069	9.83
514.27	9.74
514.471	9.83
514.672	9.83
514.873	9.91
515.074	9.92
515.275	10.05
515.476	10.04
515.677	9.95
515.878	9.84
516.079	9.88
516.28	9.83
516.481	9.71
516.682	9.75
516.882	9.83
517.083	9.82
517.284	9.83
517.485	9.91
517.686	9.94
517.886	9.98
518.087	10.01
518.288	10.02
518.488	10.13
518.689	10.1
518.89	10.12
519.091	10.09
519.291	10.08
519.492	9.96
519.692	10
519.893	9.85
520.094	9.89
520.294	9.95
520.495	9.96
520.695	10.02
520.896	10.11
521.096	10.08
521.297	10.06
521.497	10.08
521.698	10.05
521.898	10.07
522.099	10.08
522.299	10.1
522.499	10.14
522.7	10.16
522.9	10.17
523.101	10.11
523.301	10.07
523.501	10
523.702	10
523.902	10.01
524.102	10.06
524.302	10.08
524.503	10.14
524.703	10.18
524.903	10.2
525.103	10.23
525.304	10.16
525.504	10.16
525.704	10.11
525.904	10.11
526.104	10.14
526.304	10.21
526.504	10.19
526.705	10.21
526.905	10.16
527.105	10.13
527.305	10.11
527.505	10.16
527.705	10.19
527.905	10.2
528.105	10.19
528.305	10.25
528.505	10.29
528.705	10.27
528.905	10.3
529.105	10.35
529.304	10.32
529.504	10.29
529.704	10.36
529.904	10.38
530.104	10.39
530.304	10.41
530.503	10.44
530.703	10.39
530.903	10.39
531.103	10.33
531.303	10.35
531.502	10.32
531.702	10.33
531.902	10.32
532.101	10.37
532.301	10.34
532.501	10.38
532.7	10.45
532.9	10.48
533.1	10.53
533.299	10.62
533.499	10.61
533.698	10.59
533.898	10.59
534.097	10.54
534.297	10.43
534.496	10.43
534.696	10.39
534.895	10.43
535.095	10.44
535.294	10.56
535.494	10.58
535.693	10.6
535.892	10.61
536.092	10.66
536.291	10.63
536.491	10.67
536.69	10.72
536.889	10.78
537.088	10.81
537.288	10.83
537.487	10.81
537.686	10.77
537.886	10.72
538.085	10.74
538.284	10.71
538.483	10.82
538.682	10.91
538.882	10.93
539.081	10.95
539.28	11.02
539.479	11.04
539.678	11.08
539.877	11.1
540.076	11.14
540.275	11.13
540.474	11.03
540.673	11
540.872	11.02
541.071	11.02
541.27	11.1
541.469	11.12
541.668	11.12
541.867	11.2
542.066	11.26
542.265	11.26
542.464	11.39
542.663	11.46
542.862	11.37
543.06	11.36
543.259	11.38
543.458	11.38
543.657	11.39
543.856	11.54
544.054	11.56
544.253	11.57
544.452	11.62
544.651	11.59
544.849	11.65
545.048	11.66
545.247	11.68
545.445	11.68
545.644	11.8
545.843	11.71
546.041	11.78
546.24	11.81
546.438	11.81
546.637	11.86
546.836	11.93
547.034	11.91
547.233	11.96
547.431	12.04
547.63	12.13
547.828	12.22
548.027	12.32
548.225	12.43
548.423	12.51
548.622	12.5
548.82	12.56
549.019	12.57
549.217	12.5
549.415	12.5
549.614	12.59
549.812	12.61
550.01	12.71
550.209	12.87
550.407	12.94
550.605	12.91
550.803	12.96
551.002	13.01
551.2	12.95
551.398	12.98
551.596	12.98
551.794	12.97
551.993	13.03
552.191	13.15
552.389	13.2
552.587	13.28
552.785	13.38
552.983	13.39
553.181	13.41
553.379	13.5
553.577	13.59
553.775	13.63
553.973	13.75
554.171	13.84
554.369	13.92
554.567	13.98
554.765	14.07
554.963	14.08
555.161	14.08
555.359	14.11
555.557	14.15
555.755	14.21
555.952	14.25
556.15	14.33
556.348	14.35
556.546	14.43
556.744	14.45
556.941	14.5
557.139	14.58
557.337	14.65
557.535	14.7
557.732	14.77
557.93	14.73
558.128	14.73
558.325	14.76
558.523	14.81
558.721	14.9
558.918	15.13
559.116	15.2
559.313	15.24
559.511	15.3
559.708	15.34
559.906	15.4
560.104	15.52
560.301	15.52
560.498	15.59
560.696	15.63
560.893	15.69
561.091	15.73
561.288	15.91
561.486	15.96
561.683	16
561.88	16.03
562.078	16.1
562.275	16.18
562.473	16.23
562.67	16.27
562.867	16.33
563.064	16.34
563.262	16.33
563.459	16.42
563.656	16.49
563.853	16.5
564.051	16.63
564.248	16.66
564.445	16.73
564.642	16.77
564.839	16.89
565.036	16.93
565.234	17
565.431	17.05
565.628	17.09
565.825	17.04
566.022	17.04
566.219	17.1
566.416	17.12
566.613	17.26
566.81	17.39
567.007	17.5
567.204	17.62
567.401	17.7
567.598	17.7
567.795	17.67
567.991	17.64
568.188	17.58
568.385	17.52
568.582	17.65
568.779	17.69
568.976	17.76
569.172	17.83
569.369	17.97
569.566	17.92
569.763	17.9
569.96	17.95
570.156	18
570.353	18.03
570.55	18.07
570.746	18.22
570.943	18.27
571.14	18.23
571.336	18.3
571.533	18.29
571.729	18.31
571.926	18.31
572.123	18.43
572.319	18.41
572.516	18.45
572.712	18.43
572.909	18.39
573.105	18.4
573.302	18.42
573.498	18.48
573.695	18.6
573.891	18.67
574.087	18.71
574.284	18.69
574.48	18.71
574.677	18.73
574.873	18.76
575.069	18.78
575.266	18.92
575.462	18.92
575.658	18.89
575.854	18.85
576.051	18.78
576.247	18.74
576.443	18.78
576.639	18.83
576.835	18.87
577.032	18.87
577.228	18.93
577.424	18.89
577.62	18.87
577.816	18.94
578.012	18.95
578.208	18.83
578.404	18.83
578.6	18.83
578.796	18.84
578.993	18.88
579.189	18.98
579.384	19.02
579.58	18.99
579.776	18.95
579.972	18.96
580.168	18.94
580.364	18.99
580.56	19.06
580.756	19.03
580.952	19.05
581.148	18.98
581.343	18.83
581.539	18.79
581.735	18.78
581.931	18.76
582.127	18.86
582.322	18.95
582.518	18.91
582.714	18.97
582.909	18.92
583.105	18.84
583.301	18.8
583.496	18.76
583.692	18.75
583.888	18.82
584.083	18.82
584.279	18.8
584.474	18.82
584.67	18.81
584.866	18.71
585.061	18.81
585.257	18.82
585.452	18.89
585.648	18.87
585.843	18.9
586.039	18.83
586.234	18.8
586.429	18.71
586.625	18.74
586.82	18.72
587.015	18.72
587.211	18.78
587.406	18.87
587.601	18.83
587.797	18.85
587.992	18.83
588.187	18.76
588.383	18.72
588.578	18.75
588.773	18.77
588.968	18.86
589.163	19.02
589.359	19.02
589.554	19
589.749	18.98
589.944	18.97
590.139	18.89
590.334	19.02
590.529	19.13
590.724	19.15
590.919	19.1
591.114	19.13
591.309	18.95
591.504	18.9
591.699	19.05
591.894	19.14
592.089	19.16
592.284	19.3
592.479	19.38
592.674	19.34
592.869	19.35
593.064	19.46
593.259	19.52
593.454	19.52
593.648	19.57
593.843	19.65
594.038	19.67
594.233	19.68
594.428	19.75
594.622	19.86
594.817	19.97
595.012	20
595.206	20.1
595.401	20.2
595.596	20.11
595.79	20.07
595.985	20.14
596.18	20.2
596.374	20.28
596.569	20.47
596.763	20.6
596.958	20.64
597.153	20.71
597.347	20.72
597.542	20.69
597.736	20.73
597.931	20.78
598.125	20.84
598.319	20.93
598.514	21.03
598.708	21
598.903	21.08
599.097	21.07
599.291	21.19
599.486	21.27
599.68	21.39
599.874	21.37
600.069	21.37
600.263	21.32
600.457	21.32
600.651	21.3
600.846	21.43
601.04	21.45
601.234	21.41
601.428	21.39
601.622	21.45
601.817	21.48
602.011	21.59
602.205	21.69
602.399	21.7
602.593	21.71
602.787	21.58
602.981	21.52
603.175	21.53
603.369	21.44
603.563	21.44
603.757	21.46
603.951	21.51
604.145	21.47
604.339	21.59
604.533	21.59
604.727	21.66
604.921	21.55
605.115	21.46
605.309	21.38
605.502	21.42
605.696	21.41
605.89	21.4
606.084	21.4
606.278	21.47
606.471	21.33
606.665	21.28
606.859	21.25
607.053	21.32
607.246	21.16
607.44	21.15
607.634	21.13
607.827	21.1
608.021	20.99
608.214	21.04
608.408	20.95
608.602	20.9
608.795	21
608.989	20.97
609.182	20.93
609.376	20.91
609.569	20.87
609.763	20.68
609.956	20.66
610.15	20.59
610.343	20.68
610.537	20.65
610.73	20.59
610.923	20.55
611.117	20.53
611.31	20.3
611.504	20.15
611.697	20.2
611.89	20.07
612.083	20
612.277	19.99
612.47	20.07
612.663	19.9
612.856	19.85
613.05	19.75
613.243	19.72
613.436	19.46
613.629	19.55
613.822	19.5
614.015	19.52
614.209	19.49
614.402	19.46
614.595	19.32
614.788	19.26
614.981	19.2
615.174	19.09
615.367	19.12
615.56	19.06
615.753	19.06
615.946	19.06
616.139	19
616.332	18.94
616.525	18.87
616.718	18.82
616.911	18.82
617.103	18.75
617.296	18.79
617.489	18.74
617.682	18.8
617.875	18.69
618.067	18.73
618.26	18.7
618.453	18.74
618.646	18.56
618.838	18.49
619.031	18.41
619.224	18.39
619.417	18.4
619.609	18.43
619.802	18.42
619.994	18.41
620.187	18.38
620.38	18.28
620.572	18.26
620.765	18.18
620.957	18.26
621.15	18.3
621.342	18.3
621.535	18.2
621.727	18.18
621.92	18.1
622.112	18.06
622.305	17.93
622.497	18
622.69	18.02
622.882	18.03
623.074	17.91
623.267	17.98
623.459	17.9
623.651	17.77
623.844	17.76
624.036	17.82
624.228	17.81
624.42	17.82
624.613	17.88
624.805	17.82
624.997	17.72
625.189	17.71
625.381	17.72
625.574	17.78
625.766	17.74
625.958	17.72
626.15	17.61
626.342	17.6
626.534	17.49
626.726	17.52
626.918	17.58
627.11	17.56
627.302	17.44
627.494	17.43
627.686	17.42
627.878	17.35
628.07	17.38
628.262	17.41
628.454	17.36
628.646	17.26
628.838	17.22
629.029	17.2
629.221	17.19
629.413	17.15
629.605	17.12
629.797	17.08
629.989	16.96
630.18	16.86
630.372	16.82
630.564	16.82
630.755	16.78
630.947	16.79
631.139	16.91
631.33	16.98
631.522	16.93
631.714	16.99
631.905	17.04
632.097	16.89
632.289	16.84
632.48	16.85
632.672	16.73
632.863	16.64
633.055	16.65
633.246	16.56
633.438	16.51
633.629	16.56
633.821	16.57
634.012	16.59
634.203	16.66
634.395	16.7
634.586	16.71
634.777	16.73
634.969	16.75
635.16	16.75
635.351	16.72
635.543	16.64
635.734	16.57
635.925	16.58
636.117	16.52
636.308	16.48
636.499	16.54
636.69	16.63
636.881	16.57
637.073	16.57
637.264	16.51
637.455	16.46
637.646	16.4
637.837	16.45
638.028	16.46
638.219	16.53
638.41	16.56
638.601	16.51
638.792	16.49
638.983	16.46
639.174	16.48
639.365	16.44
639.556	16.53
639.747	16.45
639.938	16.49
640.129	16.46
640.32	16.42
640.511	16.34
640.701	16.35
640.892	16.24
641.083	16.1
641.274	16.16
641.465	16.13
641.655	16.1
641.846	16.21
642.037	16.29
642.228	16.16
642.418	16.07
642.609	16
642.8	15.99
642.99	15.99
643.181	16
643.372	16.04
643.562	16.15
643.753	16.1
643.943	16.05
644.134	16.07
644.324	16.08
644.515	15.97
644.705	15.93
644.896	15.92
645.086	15.87
645.277	15.88
645.467	15.88
645.658	15.87
645.848	15.88
646.038	15.88
646.229	15.87
646.419	15.86
646.61	15.86
646.8	15.87
646.99	15.9
647.18	15.89
647.371	15.8
647.561	15.78
647.751	15.84
647.941	15.86
648.132	15.95
648.322	15.97
648.512	15.96
648.702	15.85
648.892	15.86
649.082	15.75
649.272	15.86
649.462	15.89
649.653	15.94
649.843	15.9
650.033	15.85
650.223	15.69
650.413	15.61
650.603	15.48
650.793	15.41
650.983	15.42
651.172	15.48
651.362	15.36
651.552	15.35
651.742	15.37
651.932	15.26
652.122	15.3
652.312	15.34
652.502	15.39
652.691	15.23
652.881	15.27
653.071	15.16
653.261	15.07
653.45	14.9
653.64	14.95
653.83	14.91
654.019	14.79
654.209	14.67
654.399	14.55
654.588	14.4
654.778	14.16
654.968	14.06
655.157	14.12
655.347	14.18
655.536	14.07
655.726	14
655.915	13.94
656.105	13.87
656.294	13.71
656.484	13.66
656.673	13.68
656.863	13.53
657.052	13.41
657.241	13.42
657.431	13.23
657.62	13.11
657.809	13.04
657.999	12.87
658.188	12.71
658.377	12.69
658.567	12.53
658.756	12.36
658.945	12.32
659.134	12.19
659.324	12.1
659.513	12.05
659.702	12.08
659.891	11.93
660.08	11.74
660.269	11.56
660.458	11.4
660.648	11.28
660.837	11.23
661.026	11.22
661.215	11.15
661.404	11.13
661.593	10.91
661.782	10.74
661.971	10.54
662.16	10.46
662.349	10.32
662.538	10.32
662.726	10.27
662.915	10.24
663.104	10.22
663.293	10.11
663.482	10.01
663.671	9.94
663.86	9.92
664.048	9.89
664.237	9.86
664.426	9.83
664.615	9.75
664.803	9.57
664.992	9.4
665.181	9.33
665.369	9.24
665.558	9.19
665.747	9.2
665.935	9.19
666.124	9.19
666.312	9.07
666.501	8.99
666.69	9.01
666.878	8.93
667.067	8.82
667.255	8.86
667.444	8.81
667.632	8.72
667.82	8.62
668.009	8.62
668.197	8.69
668.386	8.66
668.574	8.61
668.762	8.71
668.951	8.72
669.139	8.6
669.327	8.65
669.516	8.65
669.704	8.66
669.892	8.62
670.08	8.61
670.269	8.54
670.457	8.51
670.645	8.52
670.833	8.41
671.021	8.43
671.21	8.52
671.398	8.54
671.586	8.44
671.774	8.58
671.962	8.63
672.15	8.64
672.338	8.72
672.526	8.8
672.714	8.82
672.902	8.77
673.09	8.73
673.278	8.72
673.466	8.72
673.654	8.77
673.842	8.95
674.03	8.96
674.218	9.16
674.405	9.26
674.593	9.29
674.781	9.19
674.969	9.21
675.157	9
675.344	8.98
675.532	8.94
675.72	9.04
675.908	9.11
676.095	9.27
676.283	9.41
676.471	9.43
676.658	9.47
676.846	9.56
677.033	9.55
677.221	9.59
677.409	9.66
677.596	9.83
677.784	9.88
677.971	10.01
678.159	10.1
678.346	10.17
678.534	10.2
678.721	10.15
678.909	10.13
679.096	10.09
679.283	10.09
679.471	10.14
679.658	10.35
679.846	10.47
680.033	10.5
680.22	10.69
680.408	10.75
680.595	10.7
680.782	10.77
680.969	10.9
681.157	11.01
681.344	10.99
681.531	11.05
681.718	11.19
681.905	11.28
682.093	11.34
682.28	11.47
682.467	11.58
682.654	11.64
682.841	11.75
683.028	11.93
683.215	12.14
683.402	12.35
683.589	12.49
683.776	12.72
683.963	12.7
684.15	12.74
684.337	12.92
684.524	13.17
684.711	13.2
684.898	13.5
685.085	13.58
685.271	13.66
685.458	13.6
685.645	13.87
685.832	14.04
686.019	14.46
686.205	14.83
686.392	15.18
686.579	15.35
686.766	15.5
686.952	15.57
687.139	15.7
687.326	16.02
687.512	16.3
687.699	16.55
687.886	16.8
688.072	17.13
688.259	17.36
688.445	17.73
688.632	18.18
688.818	18.58
689.005	18.87
689.191	19.07
689.378	19.32
689.564	19.47
689.751	19.83
689.937	20.09
690.124	20.53
690.31	20.91
690.496	21.46
690.683	21.73
690.869	22.07
691.055	22.44
691.242	22.6
691.428	22.96
691.614	23.37
691.8	23.97
691.987	24.44
692.173	24.93
692.359	25.3
692.545	25.93
692.731	26.33
692.918	26.85
693.104	27.55
693.29	27.96
693.476	28.28
693.662	28.62
693.848	29
694.034	29.51
694.22	30.09
694.406	30.88
694.592	31.42
694.778	31.87
694.964	32.18
695.15	32.75
695.336	32.89
695.522	33.41
695.708	34.03
695.894	34.42
696.08	35.04
696.265	35.52
696.451	36.23
696.637	36.67
696.823	37.73
697.009	38.08
697.194	38.69
697.38	38.98
697.566	39.61
697.751	39.81
697.937	40.3
698.123	40.87
698.308	41.36
698.494	41.97
698.68	42.31
698.865	42.53
699.051	43.01
699.236	43.4
699.422	43.69
699.607	44.16
699.793	44.85
699.978	45.22
700.164	45.98
700.349	46.35
700.535	46.86
700.72	47.18
700.906	47.56
701.091	47.53
701.276	47.98
701.462	48.22
701.647	48.85
701.832	49.22
702.018	49.82
702.203	50.41
702.388	51.15
702.573	51.6
702.759	52.05
702.944	52.57
703.129	52.86
703.314	53.14
703.499	53.62
703.684	54
703.87	54.3
704.055	54.28
704.24	54.58
704.425	54.72
704.61	55.33
704.795	55.7
704.98	56.38
705.165	56.37
705.35	57.03
705.535	56.97
705.72	57.35
705.905	57.52
706.09	57.85
706.275	58.1
706.459	58.37
706.644	58.52
706.829	58.86
707.014	59.28
707.199	59.06
707.384	59.17
707.568	59.32
707.753	59.64
707.938	60.03
708.123	60.38
708.307	60.86
708.492	61.2
708.677	61.27
708.861	61.43
709.046	61.74
709.231	62.24
709.415	62.72
709.6	62.85
709.784	63.19
709.969	63.36
710.153	63.33
710.338	63.57
710.522	64.22
710.707	64.19
710.891	64.29
711.076	64.29
711.26	64.1
711.445	63.92
711.629	64.14
711.813	64.26
711.998	64.5
712.182	64.84
712.366	65.02
712.551	64.85
712.735	65.24
712.919	65.44
713.103	65.66
713.288	65.93
713.472	66.45
713.656	66.25
713.84	66.42
714.024	66.29
714.208	66.55
714.393	66.97
714.577	67.49
714.761	67.5
714.945	68.05
715.129	67.96
715.313	67.51
715.497	67.79
715.681	67.95
715.865	67.82
716.049	68.11
716.233	68.66
716.417	68.4
716.601	68.57
716.785	69.11
716.968	69.37
717.152	69.25
717.336	69.53
717.52	69.7
717.704	69.57
717.888	69.59
718.071	69.83
718.255	69.43
718.439	69.5
718.622	69.47
718.806	69.02
718.99	69.14
719.174	69.93
719.357	69.91
719.541	69.99
719.724	70.56
719.908	71.17
720.092	71.21
720.275	71.73
720.459	71.82
720.642	71.64
720.826	71.29
721.009	71.36
721.193	71.52
721.376	71.74
721.559	72.39
721.743	72.42
721.926	72.57
722.11	72.6
722.293	72.83
722.476	72.47
722.66	72.4
722.843	71.98
723.026	72.02
723.21	72.37
723.393	71.92
723.576	71.93
723.759	72.39
723.942	72.13
724.126	71.51
724.309	72.11
724.492	72.89
724.675	73
724.858	72.99
725.041	73.04
725.224	73.6
725.407	72.74
725.59	72.94
725.774	73.55
725.957	74.62
726.14	74.44
726.322	75.03
726.505	75.38
726.688	75.25
726.871	74.67
727.054	74.72
727.237	74.54
727.42	73.8
727.603	74.42
727.786	74.87
727.968	75.19
728.151	75.84
728.334	76.59
728.517	76.31
728.699	75.75
728.882	75.97
729.065	76.02
729.248	75.79
729.43	75.66
729.613	76.43
729.796	76.21
729.978	76.37
730.161	76.73
730.343	77.03
730.526	76.57
730.708	77.13
730.891	77.71
731.073	78.2
731.256	78.69
731.438	79.27
731.621	78.5
731.803	77.65
731.986	77.43
732.168	77.79
732.35	77.93
732.533	78.65
732.715	79.89
732.898	79.48
733.08	78.67
733.262	78.35
733.444	78.53
733.627	77.96
733.809	78.66
733.991	78.92
734.173	79.56
734.355	79.38
734.538	79.56
734.72	79.3
734.902	79.65
735.084	78.89
735.266	78.63
735.448	79.05
735.63	79.95
735.812	79.47
735.994	79.55
736.176	80.17
736.358	79.1
736.54	77.86
736.722	78.86
736.904	78.9
737.086	78.6
737.268	79.11
737.45	79.71
737.632	79.55
737.814	80.12
737.995	80.85
738.177	81.42
738.359	82.25
738.541	82.7
738.723	83.27
738.904	82.86
739.086	82.65
739.268	81.5
739.449	79.71
739.631	79.57
739.813	80
739.994	80.02
740.176	80.24
740.358	81.48
740.539	81.55
740.721	81.47
740.902	81.34
741.084	81.84
741.265	82.38
741.447	82.2
741.628	81.86
741.81	82.36
741.991	82.58
742.172	81.85
742.354	82.7
742.535	83.11
742.717	82.86
742.898	83.06
743.079	83.76
743.261	83.24
743.442	83.58
743.623	83.72
743.804	83.56
743.986	82.89
744.167	82.91
744.348	82.53
744.529	82.17
744.71	81.39
744.891	81.11
745.073	81.01
745.254	81.1
745.435	80.57
745.616	82.13
745.797	83.52
745.978	83.8
746.159	84.75
746.34	86.43
746.521	85.53
746.702	84.84
746.883	84.97
747.064	83.76
747.245	83.42
747.426	83.54
747.606	82.78
747.787	82.09
747.968	81.29
748.149	80.88
748.33	79.77
748.51	80.3
748.691	80.85
748.872	81.74
749.053	82.62
749.233	84.98
749.414	85.43
749.595	83.71
749.775	84.04
749.956	83.57
750.137	83.11
750.317	81.97
750.498	83.41
750.678	83.02
750.859	82.82
751.04	82.04
751.22	83.15
751.4	82.86
751.581	83.19
751.761	81.61
751.942	81.81
752.122	81.34
752.303	82.4
752.483	82.43
752.663	84.65
752.844	85.03
753.024	85.63
753.204	85.86
753.385	86.06
753.565	84.68
753.745	84.15
753.925	83.59
754.106	82.65
754.286	81.64
754.466	82.46
754.646	82.7
754.826	83.5
755.006	83.95
755.187	85.16
755.367	84.34
755.547	84.72
755.727	83.56
755.907	83.25
756.087	82.79
756.267	83.67
756.447	83.68
756.627	84.06
756.807	83.37
756.987	83.93
757.167	84.08
757.346	82.31
757.526	82.3
757.706	83.4
757.886	83.7
758.066	82.89
758.246	84.71
758.425	85.38
758.605	83.15
758.785	82.4
758.965	83.26
759.144	82.98
759.324	82.74
759.504	83.5
759.683	84.05
759.863	83.61
760.043	83.32
760.222	83.66
760.402	84.03
760.581	82.85
760.761	82.9
760.94	82.33
761.12	82.62
761.299	82.47
761.479	82.83
761.658	82.67
761.838	83.21
762.017	82.22
762.197	83.18
762.376	84.35
762.555	83.2
762.735	81.73
762.914	80.73
763.093	79.28
763.273	77.84
763.452	79.32
763.631	79.77
763.81	81.54
763.99	84.22
764.169	85.83
764.348	85.83
764.527	86.89
764.706	85.64
764.885	83.93
765.064	82.68
765.243	83.16
765.423	82.79
765.602	82.79
765.781	83.12
765.96	82.65
766.139	82.19
766.318	80.89
766.497	81.46
766.676	80.2
766.854	79.96
767.033	79.66
767.212	80.22
767.391	80.86
767.57	81.28
767.749	81.99
767.928	81.35
768.106	82.67
768.285	82.64
768.464	84.21
768.643	84.72
768.821	83.68
769	82.84
769.179	84.46
769.357	83.86
769.536	83.11
769.715	83.55
769.893	83.92
770.072	81.33
770.25	80.96
770.429	80.18
770.607	80.98
770.786	80.71
770.964	78.61
771.143	77.05
771.321	74.75
771.5	72.97
771.678	73.08
771.857	75.59
772.035	75.08
772.213	77.52
772.392	78.78
772.57	77.76
772.748	77.47
772.927	80.19
773.105	80.52
773.283	80.73
773.461	80.99
773.64	81.98
773.818	82.04
773.996	81.64
774.174	79.87
774.352	79.96
774.531	77.46
774.709	76.31
774.887	75.67
775.065	78.54
775.243	79.39
775.421	78.19
775.599	77.78
775.777	78.05
775.955	77.09
776.133	78.03
776.311	79.95
776.489	81.35
776.667	82.88
776.844	82.82
777.022	83.33
777.2	82.95
777.378	81.28
777.556	80.62
777.734	78.94
777.911	78.64
778.089	78.7
778.267	79.04
778.445	80.02
778.622	83.53
778.8	80.64
778.978	80.38
779.155	79.56
779.333	78.19
779.511	76.78
779.688	75.57
779.866	76.91
780.043	80.14
780.221	80.78
780.398	78.91
780.576	78.67
780.753	78.2
780.931	74.6
781.108	73.93
781.286	75.17
781.463	77.05
781.64	75.39
781.818	74.54
781.995	75.4
782.172	75.91
782.35	77.5
782.527	79.16
782.704	81.63
782.882	80.28
783.059	78.68
783.236	78.74
783.413	77.88
783.59	78.13
783.768	81.66
783.945	81.41
784.122	81.71
784.299	81.54
784.476	81.8
784.653	80.46
784.83	82.29
785.007	81.53
785.184	82.53
785.361	82.02
785.538	80.13
785.715	81.59
785.892	80.59
786.069	81.8
786.246	79.16
786.423	77.19
786.6	76.71
786.776	79.54
786.953	76.18
787.13	79.26
787.307	79.2
787.484	78.29
787.66	76.21
787.837	77.67
788.014	78.96
788.191	80.54
788.367	80.78
788.544	79.22
788.721	79.49
788.897	77.15
789.074	75.42
789.25	73.21
789.427	72.69
789.603	70.94
789.78	70.82
789.956	72.86
790.133	72.54
790.309	73.29
790.486	75.61
790.662	77.94
790.839	76.86
791.015	77.74
791.192	78.85
791.368	75.87
791.544	73.61
791.721	75.91
791.897	76.2
792.073	74.21
792.249	76.01
792.426	74.13
792.602	73.85
792.778	79.24
792.954	81.96
793.13	83.2
793.307	87.42
793.483	86.41
793.659	79.36
793.835	79.28
794.011	79.48
794.187	77.26
794.363	77.45
794.539	78.93
794.715	77.79
794.891	75.29
795.067	77.81
795.243	76.61
795.419	77.38
795.595	73.44
795.771	74.75
795.947	69.78
796.122	73.67
796.298	71.27
796.474	74
796.65	71.61
796.826	74.85
797.001	72.83
797.177	72.63
797.353	75.17
797.529	78.22
797.704	77.49
797.88	78.55
798.056	78.33
798.231	74.78
798.407	73.43
798.582	74.3
798.758	74.2
798.934	70.6
799.109	69.08
799.285	70.11
799.46	69.84
799.636	65.05
799.811	69.07
799.986	75.92
800.162	76.31
800.337	75.41
800.513	81.32
800.688	85.35
800.863	79.19
801.039	77.78
801.214	81.02
801.389	79.38
801.565	76.57
801.74	75.5
801.915	71.61
802.09	67.84
802.265	68.17
802.441	70.75
802.616	67.38
802.791	73.78
802.966	79.37
803.141	81.55
803.316	83.21
803.491	88.69
803.666	81.57
803.841	73.43
804.016	69.74
804.191	66.7
804.366	64.7
804.541	75.18
804.716	76.22
804.891	76.87
805.066	72.4
805.241	76.52
805.416	67.52
805.591	66.14
805.765	66.51
805.94	69.92
806.115	66.81
806.29	75.94
806.464	77.63
806.639	76.71
806.814	76.94
806.989	82.08
807.163	75.53
807.338	77.49
807.512	73.67
807.687	71.7
807.862	69.58
808.036	68.81
808.211	71.25
808.385	72.55
808.56	75.48
808.734	75.02
808.909	73.68
809.083	72.53
809.258	67
809.432	63.6
809.606	62.63
809.781	61.41
809.955	60.14
810.13	62.79
810.304	69.5
810.478	64.9
810.652	66.24
810.827	67.54
811.001	68.52
811.175	63.2
811.349	69.73
811.524	69.88
811.698	62.95
811.872	65.07
812.046	65.6
812.22	69.14
812.394	81.03
812.568	86.71
812.742	87.7
812.916	89.8
813.09	75.57
813.264	76.59
813.438	86.8
813.612	89.54
813.786	92.25
813.96	98.48
814.134	91.94
814.308	81.74
814.482	87.23
814.656	83.01
814.83	86.09
815.003	83.73
815.177	94.25
815.351	90.2
815.525	86.53
815.698	82
815.872	77.38
816.046	69.73
816.219	69.39
816.393	74.57
816.567	78.74
816.74	87.84
816.914	87.98
817.088	87.75
817.261	81.35
817.435	82.3
817.608	75.97
817.782	76.07
817.955	74.95
818.129	73.79
818.302	65.7
818.475	60.4
818.649	56.46
818.822	57.54
818.996	49.98
819.169	61.7
819.342	60.75
819.516	68.22
819.689	66.48
819.862	92.66
820.035	95.62
820.209	89.53
820.382	83.45
820.555	81.34
820.728	67.15
820.901	69.12
821.075	75.62
821.248	75.3
821.421	80.33
821.594	87.14
821.767	74.4
821.94	65.17
822.113	70.99
822.286	52.24
822.459	44.72
822.632	53.15
822.805	63.03
822.978	66.39
823.151	76.16
823.324	88.95
823.496	87.87
823.669	79.22
823.842	79.91
824.015	92.01
824.188	84.4
824.361	82.8
824.533	87.35
824.706	76.24
824.879	76.45
825.051	67.19
825.224	65.54
825.397	65.87
825.569	59.4
825.742	57.02
825.915	57.3
826.087	59.53
826.26	58.34
826.432	77.7
826.605	64.24
826.777	62.68
826.95	69.14
827.122	72.17
827.295	54.14
827.467	66.95
827.64	64.48
827.812	64.22
827.984	51.79
828.157	69.46
828.329	68.74
828.501	79.97
828.674	79.34
828.846	113.21
829.018	107.82
829.19	95.3
829.363	90.4
829.535	82.53
829.707	67.64
829.879	61.33
830.051	73.74
830.223	81.2
830.395	77.32
830.568	79.88
830.74	83.81
830.912	74.9
831.084	73.79
831.256	68.12
831.428	70.55
831.6	68.84
831.772	76.72
831.943	74.66
832.115	82.73
832.287	83.39
832.459	83.21
832.631	78.04
832.803	71.42
832.975	81.48
833.146	83.8
833.318	84.25
833.49	65.57
833.662	70.11
833.833	61.53
834.005	46.68
834.177	54.68
834.348	66.77
834.52	55.96
834.692	55.38
834.863	76.66
835.035	60.09
835.206	57.84
835.378	67.01
835.549	80.58
835.721	66.99
835.892	64.47
836.064	55.25
836.235	46.15
836.407	34.76
836.578	49.68
836.749	59.33
836.921	73.28
837.092	80.41
837.264	100.18
837.435	89.09
837.606	79.05
837.777	68.58
837.949	69.22
838.12	63.08
838.291	52.56
838.462	55.18
838.633	55.06
838.805	54.63
838.976	39.53
839.147	36.5
839.318	64.67
839.489	73.11
839.66	66.26
839.831	48.78
840.002	49.09
840.173	37.94
840.344	32
840.515	22.62
840.686	25.91
840.857	31.93
841.028	38.95
841.199	37.66
841.369	60.99
841.54	77.49
841.711	102.63
841.882	121.42
842.053	116.73
842.223	121.17
842.394	121.27
842.565	106.91
842.736	77.51
842.906	70.77
843.077	51.47
843.248	55.46
843.418	63.12
843.589	54.83
843.759	19.97
843.93	35.18
844.101	33.04
844.271	31.99
844.442	40.61
844.612	36.57
844.783	37.38
844.953	35.83
845.123	18.88
845.294	-10.87
845.464	25.74
845.635	14.5
845.805	29.42
845.975	48.8
846.146	68.84
846.316	59.23
846.486	73.7
846.656	75.68
846.827	75.64
846.997	73.21
847.167	77.02
847.337	74.51
847.507	77.04
847.677	65.09
847.848	65.12
848.018	73.27
848.188	54.78
848.358	62.93
848.528	68.25
848.698	78.84
848.868	63.19
849.038	73.63
849.208	66.96
849.378	66.54
849.548	53.93
849.718	75.81
849.887	67
850.057	82.59
850.227	99.75
850.397	92.98
850.567	77.98
850.737	59.97
850.906	54.45
851.076	51.41
851.246	41.52
851.415	46.63
851.585	88.43
851.755	100.75
851.924	113.38
852.094	103.45
852.264	123.22
852.433	108.25
852.603	100.5
852.772	82.65
852.942	95.12
853.111	75.89
853.281	83.26
853.45	68.73
853.62	75.05
853.789	79.14
853.959	69.6
854.128	79.5
854.297	87.09
854.467	84.45
854.636	62.34
854.805	43.98
854.975	-9.87
855.144	39.01
855.313	13.86
855.482	55.88
855.652	67.75
855.821	71.56
855.99	54.06
856.159	49.05
856.328	53.03
856.497	49.81
856.667	40.54
856.836	59.9
857.005	70.83
857.174	73.03
857.343	77.32
857.512	74.02
857.681	95.62
857.85	101.29
858.019	111.37
858.188	165.57
858.356	170.33
858.525	151.97
858.694	313.36
858.863	140.7
859.032	135.85
859.201	105.37
859.369	45.18
859.538	-1.97
859.707	11.46
859.876	5.66
860.044	33.21
860.213	29.38
860.382	50.17
860.55	61.89
860.719	64.03
860.888	63.97
861.056	93.89
861.225	82.84
861.393	63.71
861.562	48.25
861.73	29.34
861.899	33.58
862.067	50.08
862.236	74.99
862.404	83.75
862.572	113.32
862.741	135.18
862.909	96.69
863.078	105.49
863.246	95.16
863.414	55.84
863.582	12.63
863.751	38.48
863.919	46.32
864.087	30.52
864.255	50.29
864.424	76.15
864.592	64.43
864.76	29.31
864.928	48.42
865.096	44.06
865.264	24.69
865.432	50.98
865.6	34.48
865.768	86.31
865.936	79.01
866.104	100.93
866.272	111.02
866.44	117.58
866.608	65.17
866.776	59.07
866.944	59.92
867.112	54.24
867.28	66.72
867.448	69.38
867.615	71.64
867.783	63.85
867.951	59.82
868.119	26.29
868.286	35.16
868.454	53.96
868.622	43.44
868.789	54.52
868.957	53.28
869.125	71.67
869.292	58.79
869.46	74.09
869.627	95
869.795	96.65
869.963	81.6
870.13	91.32
870.298	54.86
870.465	58.69
870.632	59.87
870.8	84.35
870.967	90.81
871.135	85.5
871.302	52.01
871.469	31.19
871.637	-3.63
871.804	1.05
871.971	31.39
872.139	49.85
872.306	35.75
872.473	62.97
872.64	60.44
872.807	43.88
872.975	47.99
873.142	120.34
873.309	131.47
873.476	101.44
873.643	84.8
873.81	58.36
873.977	-48.33
874.144	-40.01
874.311	28.22
874.478	65.15
874.645	78.72
874.812	114.29
874.979	107.48
875.146	129.97
875.313	158.69
875.48	101.13
875.647	85.44
875.813	82.98
875.98	54.1
876.147	51.64
876.314	39.41
876.481	13.87
876.647	5.34
876.814	43.86
876.981	475.15
877.147	89.55
877.314	63.84
877.481	53.62
877.647	45.66
877.814	113.62
877.98	102.82
878.147	121.29
878.314	146.08
878.48	158.68
878.647	109.17
878.813	89.4
878.979	74.72
879.146	55.31
879.312	58.67
879.479	78.98
879.645	98.69
879.811	92.87
879.978	126.75
880.144	57.02
880.31	27.27
880.477	72.46
880.643	77.72
880.809	-4.81
880.975	12.55
881.142	42.15
881.308	-66.77
881.474	1.71
881.64	44.37
881.806	68.03
881.972	39.48
882.138	2.29
882.304	-147.09
882.47	-29.35
882.636	-358.02
882.802	-209.3
882.968	-84.84
883.134	21.01
883.3	-8.95
883.466	12.93
883.632	-5.27
883.798	41.01
883.964	46.6
884.129	57.15
884.295	52.3
884.461	93.68
884.627	93.18
884.793	81.44
884.958	78.61
885.124	91.72
885.29	69.38
885.455	82.11
885.621	110.28
885.787	136.94
885.952	325.91
886.118	225.42
886.283	97.26
886.449	128.02
886.614	86.26
886.78	46.54
886.945	42.18
887.111	225.56
887.276	-101.85
887.442	-3.33
887.607	58.91
887.773	125.88
887.938	99.66
888.103	86.53
888.269	100.35
888.434	138.69
888.599	63.4
888.764	58.25
888.93	99.09
889.095	146.49
889.26	127.52
889.425	-3302.38
889.59	-444.67
889.756	190.9
889.921	-837.18
890.086	465.96
890.251	-57.86
890.416	53.11
890.581	-94.12
890.746	-41.28
890.911	-18.94
891.076	-15.02
891.241	-0.45
891.406	29.32
891.571	14.73
891.736	44.1
891.901	16.03
892.065	-19.95
892.23	-214.69
892.395	-57.5
892.56	-14.19
892.725	-71.14
892.889	-84.45
893.054	23.48
893.219	43.29
893.384	77.91
893.548	221.19
893.713	310.06
893.878	422.87
