Data from Ofav_PP_Phys_2JQ31_Reflection_3.txt Node
Date: Tue Aug 03 18:08:54 EDT 2021
User: Adam
Spectrometer: FLMT01687
Trigger mode: 0
Integration Time (sec): 8.750000E-1
Scans to average: 2
Electric dark correction enabled: true
Nonlinearity correction enabled: false
Boxcar width: 2
XAxis mode: Wavelengths
Number of Pixels in Spectrum: 3648
>>>>>Begin Spectral Data<<<<<
179.494	151.8
179.716	187.86
179.937	234.19
180.158	395.67
180.38	1876.32
180.601	240.06
180.823	224.17
181.044	121.18
181.265	179.94
181.486	-132.09
181.708	107.45
181.929	225.19
182.15	121.97
182.372	419.62
182.593	-239.87
182.814	167.58
183.035	-86.17
183.257	44.12
183.478	111.59
183.699	-158.43
183.92	-46.52
184.141	-117.14
184.363	-62.69
184.584	-134.44
184.805	-5.15
185.026	-44.39
185.247	-30.9
185.468	-1.11
185.689	2.72
185.91	16.74
186.132	19.35
186.353	52.9
186.574	23.15
186.795	14.34
187.016	-6.56
187.237	2.18
187.458	-10.28
187.679	-0.4
187.9	2.7
188.121	10.59
188.342	-7.22
188.563	-14.55
188.784	-7.24
189.005	-25.44
189.226	-26.6
189.447	0.51
189.667	-13.6
189.888	-36.55
190.109	7.95
190.33	-28.05
190.551	-39.39
190.772	-22.16
190.993	0.41
191.214	-30.26
191.434	16.52
191.655	4.35
191.876	2.01
192.097	-0.74
192.318	18.85
192.538	4.45
192.759	3.41
192.98	-12.07
193.201	-41.13
193.421	-38.18
193.642	-41.04
193.863	-23.54
194.083	25.53
194.304	39.63
194.525	33.62
194.745	25.11
194.966	20.8
195.187	21.52
195.407	26.66
195.628	17.16
195.848	15.84
196.069	23.14
196.29	1.1
196.51	-12.86
196.731	10.31
196.951	25.49
197.172	51.97
197.392	41.92
197.613	51.55
197.833	65.36
198.054	75.35
198.274	37.61
198.495	47.51
198.715	54.08
198.936	57.47
199.156	35.78
199.377	48.8
199.597	42.69
199.817	37.15
200.038	17.41
200.258	18.34
200.479	-39.46
200.699	-36.2
200.919	-63.24
201.14	1.16
201.36	8.15
201.58	24.8
201.801	-7.09
202.021	-0.36
202.241	-24.31
202.461	-6.71
202.682	13.19
202.902	40.74
203.122	65.11
203.342	80.02
203.563	65.2
203.783	29.97
204.003	35.45
204.223	18.66
204.443	0.65
204.663	0.25
204.884	0.54
205.104	-2.68
205.324	11.72
205.544	29.19
205.764	13.53
205.984	-26.45
206.204	-50.77
206.424	-176.94
206.644	-45.74
206.864	-52.21
207.084	-10.21
207.304	-24.4
207.525	51.07
207.745	-1.53
207.964	-43.35
208.184	-24.22
208.404	8.47
208.624	-9.26
208.844	15.21
209.064	43.73
209.284	28.15
209.504	1.86
209.724	0.72
209.944	-18.21
210.164	-39.35
210.384	-17
210.604	0.47
210.823	-39.96
211.043	-13.67
211.263	-22.21
211.483	-15.19
211.703	27.42
211.922	38.08
212.142	43.03
212.362	26.08
212.582	34.48
212.801	-13.43
213.021	-4.24
213.241	-12.04
213.461	34.69
213.68	28.95
213.9	38.67
214.12	9.41
214.339	16.47
214.559	14.55
214.779	24.96
214.998	15.26
215.218	21.38
215.438	26.69
215.657	19.21
215.877	17.48
216.096	7.27
216.316	8.72
216.535	-22.68
216.755	-47.82
216.974	-17.91
217.194	11.79
217.413	25.54
217.633	33.08
217.852	54.23
218.072	51.31
218.291	36.04
218.511	25.45
218.73	43.47
218.95	34.56
219.169	24.98
219.389	27.19
219.608	31.44
219.827	6.77
220.047	-6.72
220.266	16.59
220.485	27.31
220.705	14.73
220.924	30.19
221.143	20.03
221.363	8.34
221.582	-28.72
221.801	-49.03
222.021	-51.86
222.24	-40.09
222.459	-96.86
222.678	-41.47
222.897	-5.02
223.117	-8.7
223.336	-147.84
223.555	-55.39
223.774	-116.91
223.993	-112.65
224.213	-136.03
224.432	-46.02
224.651	-13.09
224.87	0.48
225.089	-5.93
225.308	-8.8
225.527	-24.91
225.746	-74.54
225.965	-73.48
226.184	-54.3
226.404	18.02
226.623	40.17
226.842	47.28
227.061	25.68
227.28	19.95
227.499	19.99
227.718	11
227.936	5.25
228.155	16.92
228.374	20.29
228.593	20.59
228.812	-8.69
229.031	-20.53
229.25	3.64
229.469	-44.1
229.688	-123.92
229.907	-142.52
230.125	-107.01
230.344	-80.94
230.563	-68.95
230.782	-35.44
231.001	1.89
231.22	-2.9
231.438	-6.97
231.657	-9.04
231.876	0.55
232.095	-12.82
232.313	-25.82
232.532	-49.04
232.751	-14.39
232.969	-6.39
233.188	12.15
233.407	0.36
233.625	15.97
233.844	3.45
234.063	-7.42
234.281	-37.52
234.5	-11.82
234.719	-9.87
234.937	8.25
235.156	4.01
235.374	15.44
235.593	35.48
235.811	22.51
236.03	22.31
236.249	36.54
236.467	44.74
236.686	34.3
236.904	32.13
237.123	40.83
237.341	17.14
237.559	22.53
237.778	20.69
237.996	19.65
238.215	5.71
238.433	13.78
238.652	6.95
238.87	18.83
239.088	9.38
239.307	13.93
239.525	1.74
239.743	9.09
239.962	2.47
240.18	17.79
240.398	31.58
240.617	53.6
240.835	26.76
241.053	14.7
241.271	-45.87
241.49	-65.47
241.708	-56.88
241.926	-35.73
242.144	-26.25
242.363	14.07
242.581	13.71
242.799	19.08
243.017	14.73
243.235	31.64
243.453	24.87
243.672	35.29
243.89	29.95
244.108	30.71
244.326	4.72
244.544	-0.86
244.762	4.32
244.98	-8.15
245.198	-13.56
245.416	7.39
245.634	18.35
245.852	9.55
246.07	11.98
246.288	19.71
246.506	23.68
246.724	20.22
246.942	17.91
247.16	8.7
247.378	-7.52
247.596	-16.19
247.814	-17.6
248.032	-17.07
248.25	-34.25
248.468	-19.85
248.685	-11.06
248.903	-34.74
249.121	-17.58
249.339	-2.42
249.557	11.72
249.775	-4.76
249.992	29.32
250.21	9.31
250.428	20.7
250.646	-1.34
250.863	10.76
251.081	-2.15
251.299	-10.32
251.517	4.56
251.734	-3.91
251.952	-18.03
252.17	-41.9
252.387	-68.66
252.605	-129.94
252.823	-97.53
253.04	-103.19
253.258	-28.4
253.475	-0.41
253.693	0.87
253.911	25.39
254.128	32.25
254.346	30.26
254.563	33.43
254.781	29.96
254.998	17.11
255.216	16.97
255.433	-2.62
255.651	-3.06
255.868	-36.58
256.086	-57.33
256.303	-41.21
256.521	-14.7
256.738	-15.85
256.956	18.86
257.173	38.56
257.39	51.55
257.608	30.47
257.825	5.25
258.043	-56.63
258.26	-20.94
258.477	-28.68
258.695	-28.22
258.912	-0.37
259.129	19.34
259.346	21.41
259.564	22.21
259.781	31.35
259.998	32.12
260.216	36.53
260.433	19.74
260.65	9.84
260.867	6.8
261.084	-6.2
261.302	-30.4
261.519	-7.84
261.736	19.23
261.953	32.04
262.17	17.14
262.387	23.28
262.604	7.76
262.822	8.85
263.039	5.61
263.256	30.49
263.473	38.86
263.69	48.42
263.907	37.4
264.124	13.13
264.341	-16.91
264.558	-53.49
264.775	-18.82
264.992	-24.22
265.209	-19.96
265.426	-21.41
265.643	2.29
265.86	-5.23
266.077	13.54
266.294	17.57
266.51	32.3
266.727	28.62
266.944	16.58
267.161	2.57
267.378	-6.26
267.595	-14.23
267.812	-11.63
268.028	-15.72
268.245	-0.91
268.462	21.54
268.679	26.04
268.896	-4.24
269.112	5.36
269.329	-33.49
269.546	-91.4
269.763	-41.47
269.979	-11.23
270.196	13.3
270.413	20.66
270.629	18.45
270.846	19.31
271.063	11.15
271.279	-2.8
271.496	7.23
271.712	10.16
271.929	-7.9
272.146	27.04
272.362	29.57
272.579	19.14
272.795	12.03
273.012	24.46
273.228	-2.22
273.445	-2.21
273.661	-1.84
273.878	-2.7
274.094	-1.03
274.311	1.02
274.527	-1.84
274.744	15.6
274.96	24.05
275.177	-12.19
275.393	-10.5
275.609	-7.76
275.826	-9.5
276.042	-5.53
276.259	2.14
276.475	-17.27
276.691	-14.48
276.908	-22.15
277.124	-18.79
277.34	-8.74
277.557	-9.33
277.773	-5.66
277.989	0.48
278.205	6.77
278.422	16.64
278.638	26.78
278.854	27.86
279.07	8.62
279.286	17.05
279.503	23.95
279.719	15.93
279.935	10.16
280.151	37.18
280.367	12.21
280.583	-13.76
280.799	15.09
281.016	10.48
281.232	-35.13
281.448	-9.58
281.664	-29.8
281.88	-24.12
282.096	-11.92
282.312	-15.45
282.528	0.05
282.744	16.91
282.96	15.03
283.176	19.13
283.392	36.87
283.608	24.25
283.824	23.21
284.04	22.9
284.256	25.32
284.471	15.56
284.687	18.91
284.903	12.57
285.119	-11.01
285.335	-29.93
285.551	-18.9
285.767	-22.74
285.982	-20.47
286.198	-8.95
286.414	-5.64
286.63	-4.81
286.846	-19.36
287.061	-19.57
287.277	-22.27
287.493	-2.17
287.709	-20.4
287.924	4.15
288.14	-1.98
288.356	-1.78
288.571	-18.85
288.787	-13.75
289.003	-25.79
289.218	-26.75
289.434	-20.51
289.65	-19.11
289.865	-16.28
290.081	-58.59
290.296	-44.55
290.512	-34.95
290.727	-32.97
290.943	10.42
291.159	45.02
291.374	45.38
291.59	55.18
291.805	51.02
292.021	54.77
292.236	40.76
292.451	40.13
292.667	37.27
292.882	20.52
293.098	-2.78
293.313	-7.04
293.529	-21.78
293.744	-18.45
293.959	17.98
294.175	24.9
294.39	28.89
294.605	33.96
294.821	18.66
295.036	13.68
295.251	-1.25
295.467	-1.19
295.682	13.5
295.897	15.6
296.112	7.66
296.328	14.29
296.543	19.39
296.758	10.06
296.973	16.14
297.188	15.27
297.404	35.34
297.619	32.24
297.834	36.53
298.049	30.08
298.264	50.08
298.479	32.9
298.694	23.93
298.909	27.31
299.125	26.96
299.34	0.05
299.555	-3.08
299.77	-13.17
299.985	3.25
300.2	6.23
300.415	-0.8
300.63	-22.69
300.845	-1.96
301.06	-17.84
301.275	-49.7
301.49	-4.12
301.704	13.59
301.919	24.78
302.134	29.73
302.349	40.92
302.564	40.75
302.779	39.29
302.994	29.2
303.209	17.46
303.423	-6.71
303.638	-8.5
303.853	-9.48
304.068	-3.43
304.283	11.12
304.497	27.9
304.712	26.42
304.927	24.6
305.142	30.35
305.356	3.37
305.571	7.56
305.786	2.23
306	5.56
306.215	-13.6
306.43	9.51
306.644	12.73
306.859	14.16
307.074	20.63
307.288	41.72
307.503	34.68
307.717	22
307.932	15.81
308.147	1.74
308.361	-24.84
308.576	-40.29
308.79	-7.54
309.005	0.23
309.219	12.78
309.434	2.72
309.648	5.25
309.863	-27.15
310.077	-27.45
310.292	-34.09
310.506	2.67
310.72	26.9
310.935	51.45
311.149	34.36
311.364	23.49
311.578	-5.31
311.792	-6.13
312.007	-38.71
312.221	-19.89
312.435	0.33
312.649	38.87
312.864	29.57
313.078	19.19
313.292	16.53
313.507	22.13
313.721	0.91
313.935	-3.46
314.149	-5.66
314.363	-21.18
314.578	-20.88
314.792	-10.91
315.006	-40.77
315.22	-34.72
315.434	-25.22
315.648	-56.52
315.862	-31.82
316.077	-4.83
316.291	-1.72
316.505	-0.12
316.719	-3.78
316.933	8.04
317.147	-10.51
317.361	-11.33
317.575	-2.58
317.789	5.86
318.003	1.4
318.217	10.86
318.431	24.93
318.645	-8.14
318.859	7.05
319.073	-18.09
319.287	-8.24
319.5	4.14
319.714	25.84
319.928	25.05
320.142	28.66
320.356	32.52
320.57	22.87
320.784	19.32
320.997	6.69
321.211	18.72
321.425	5.93
321.639	-1.54
321.853	-29.24
322.066	-13.44
322.28	-19.42
322.494	-13.47
322.707	-26.95
322.921	-1.4
323.135	-14.36
323.349	-12.64
323.562	-3.65
323.776	15.18
323.989	19.55
324.203	29.84
324.417	35.83
324.63	46.85
324.844	34.66
325.057	21.89
325.271	10.48
325.485	5.87
325.698	-40.7
325.912	-37.85
326.125	7.53
326.339	-0.59
326.552	-21.46
326.766	14.64
326.979	12.19
327.193	-7.91
327.406	1.85
327.619	14.62
327.833	-14.12
328.046	6.82
328.26	8.4
328.473	-6.01
328.686	-2.05
328.9	2.93
329.113	7.08
329.326	20.74
329.54	39.82
329.753	34.28
329.966	42.62
330.179	16.97
330.393	4.15
330.606	8.66
330.819	21.71
331.032	14.91
331.246	15.53
331.459	23.78
331.672	5.87
331.885	-8.75
332.098	-1.2
332.311	17.73
332.525	21.01
332.738	29.76
332.951	36.16
333.164	30.53
333.377	29.91
333.59	26.43
333.803	11.94
334.016	4.23
334.229	14.23
334.442	-16.74
334.655	-18.22
334.868	-20.99
335.081	-31.21
335.294	-37.45
335.507	-1.97
335.72	-5.19
335.933	-2.38
336.146	13.55
336.359	-4.38
336.572	-4.88
336.785	0.05
336.997	21.05
337.21	-3.28
337.423	31.11
337.636	41.74
337.849	36.04
338.062	20.86
338.274	26.88
338.487	31.49
338.7	22.49
338.913	27.54
339.125	21.47
339.338	19.79
339.551	-1.42
339.763	-9.57
339.976	-10.38
340.189	0.19
340.402	-1
340.614	11.73
340.827	7.52
341.039	10.38
341.252	8.39
341.465	10.62
341.677	-1.18
341.89	22.05
342.102	18.22
342.315	19.14
342.527	28.68
342.74	34.62
342.952	24.08
343.165	29.87
343.377	3.73
343.59	-4.75
343.802	-12.94
344.015	-37.33
344.227	-51.71
344.44	-2.44
344.652	3.74
344.864	-8.56
345.077	-13.61
345.289	-26.92
345.502	-75.25
345.714	-92.44
345.926	-43.49
346.139	-27.34
346.351	-16.81
346.563	0.98
346.775	2.92
346.988	-11.54
347.2	-9.38
347.412	-9.21
347.624	0.86
347.837	7.67
348.049	14.71
348.261	11.72
348.473	13
348.685	16.37
348.897	16.21
349.11	14.16
349.322	6.77
349.534	2.2
349.746	-7
349.958	-4.84
350.17	-10.31
350.382	8.09
350.594	24.18
350.806	36.42
351.018	33.88
351.23	36.75
351.442	29.26
351.654	7.52
351.866	7.73
352.078	8.67
352.29	13.53
352.502	-3.6
352.714	6.96
352.926	-8.39
353.138	-20.48
353.35	-17.85
353.561	8.41
353.773	14.71
353.985	22.57
354.197	29.63
354.409	36.02
354.621	37
354.832	44.02
355.044	42.17
355.256	43.08
355.468	30.65
355.679	23.88
355.891	10.3
356.103	23.88
356.314	11.06
356.526	12.16
356.738	12.29
356.949	21.87
357.161	4.62
357.373	16.34
357.584	29.03
357.796	39.95
358.008	2.92
358.219	-12.97
358.431	-6.35
358.642	-11.2
358.854	-44.44
359.065	-3.4
359.277	23.59
359.488	23.39
359.7	14.4
359.911	20.05
360.123	16.11
360.334	13.46
360.546	5.82
360.757	12.16
360.969	4.95
361.18	-1.33
361.391	-2.85
361.603	-7.79
361.814	-9.1
362.025	-1.45
362.237	6.86
362.448	8.42
362.659	8.69
362.871	11.09
363.082	-4.63
363.293	-15.66
363.504	-14.97
363.716	13.43
363.927	16.47
364.138	23.26
364.349	33.11
364.56	33.81
364.772	40.11
364.983	23.98
365.194	27.32
365.405	22.24
365.616	23.93
365.827	10.09
366.038	19.39
366.25	15.55
366.461	27.96
366.672	14.76
366.883	16.59
367.094	25.46
367.305	28.55
367.516	14.6
367.727	21.16
367.938	16.8
368.149	12.31
368.36	1.53
368.571	-5.16
368.781	-3.35
368.992	-0.13
369.203	6.84
369.414	21.06
369.625	19.08
369.836	24.06
370.047	15.67
370.258	6.76
370.468	1.09
370.679	19.83
370.89	16.34
371.101	28.15
371.312	35.65
371.522	33.07
371.733	38.57
371.944	34.83
372.155	22.05
372.365	14.44
372.576	28.81
372.787	12.08
372.997	14.29
373.208	11.59
373.419	0.16
373.629	-6.81
373.84	-8.94
374.05	-24.64
374.261	-24.25
374.472	-8.21
374.682	-11.13
374.893	-9.13
375.103	-4.35
375.314	11.89
375.524	17.45
375.735	5.76
375.945	11.53
376.156	19.75
376.366	5.44
376.577	-0.65
376.787	2.04
376.997	17.01
377.208	11.37
377.418	14.66
377.629	17.57
377.839	21.1
378.049	5.67
378.26	3.2
378.47	-5.56
378.68	-12.25
378.89	-15.7
379.101	-11.95
379.311	-12.45
379.521	6.04
379.732	11.13
379.942	20.19
380.152	22.33
380.362	21.92
380.572	18.13
380.783	21.19
380.993	14.49
381.203	7.38
381.413	-1.98
381.623	-5.71
381.833	-7.47
382.043	2.57
382.253	7.41
382.463	19.03
382.674	23.69
382.884	21.53
383.094	10.53
383.304	12.73
383.514	10.18
383.724	1.71
383.934	3.05
384.144	6.35
384.353	0.55
384.563	-2.75
384.773	3.25
384.983	-1.24
385.193	0.81
385.403	7.09
385.613	10.04
385.823	10.32
386.033	12.29
386.242	15.49
386.452	10.56
386.662	11.08
386.872	10.09
387.082	10.22
387.291	4.98
387.501	4.72
387.711	2.85
387.921	1.73
388.13	1.85
388.34	-1.02
388.55	4.92
388.759	6.33
388.969	6.96
389.179	6.62
389.388	7.84
389.598	4.92
389.807	5.15
390.017	7.29
390.227	6.04
390.436	7.94
390.646	4.64
390.855	2.84
391.065	0.95
391.274	2.37
391.484	2.92
391.693	5.4
391.903	5.61
392.112	6.27
392.322	5.73
392.531	4.91
392.74	3.99
392.95	5.57
393.159	4.08
393.369	4.99
393.578	4.35
393.787	5.43
393.997	4.76
394.206	6.27
394.415	5.25
394.625	6
394.834	5.72
395.043	5.65
395.252	5.34
395.462	6.41
395.671	5.05
395.88	4.97
396.089	4.83
396.298	4.75
396.508	4
396.717	5
396.926	4.81
397.135	4.38
397.344	4.16
397.553	3.79
397.762	3.56
397.971	3.3
398.181	3.43
398.39	4.04
398.599	4.18
398.808	4.34
399.017	4.32
399.226	4.23
399.435	3.3
399.644	3.45
399.853	3.54
400.062	3.85
400.27	3.97
400.479	4.31
400.688	4.35
400.897	4.25
401.106	4.25
401.315	4.4
401.524	4.74
401.733	4.51
401.941	4.25
402.15	4.07
402.359	4.18
402.568	3.76
402.777	3.82
402.985	4.1
403.194	4.2
403.403	3.9
403.612	4.02
403.82	4.01
404.029	3.98
404.238	4.07
404.446	4.03
404.655	4.08
404.864	4.04
405.072	3.98
405.281	3.96
405.489	4.1
405.698	4.12
405.906	4.17
406.115	4.24
406.324	4.27
406.532	4.25
406.741	4.22
406.949	4.17
407.158	4.12
407.366	4.07
407.574	3.97
407.783	3.92
407.991	3.98
408.2	3.83
408.408	3.74
408.617	3.85
408.825	3.85
409.033	3.9
409.242	3.89
409.45	3.72
409.658	3.74
409.867	3.69
410.075	3.65
410.283	3.78
410.491	3.89
410.7	3.83
410.908	3.67
411.116	3.55
411.324	3.55
411.533	3.55
411.741	3.5
411.949	3.6
412.157	3.7
412.365	3.72
412.573	3.77
412.781	3.77
412.99	3.96
413.198	3.85
413.406	3.73
413.614	3.65
413.822	3.67
414.03	3.57
414.238	3.59
414.446	3.46
414.654	3.55
414.862	3.63
415.07	3.5
415.278	3.47
415.486	3.62
415.694	3.66
415.902	3.51
416.109	3.49
416.317	3.55
416.525	3.51
416.733	3.48
416.941	3.54
417.149	3.66
417.357	3.7
417.564	3.64
417.772	3.5
417.98	3.59
418.188	3.55
418.395	3.4
418.603	3.53
418.811	3.66
419.019	3.48
419.226	3.6
419.434	3.57
419.642	3.45
419.849	3.35
420.057	3.49
420.265	3.21
420.472	3.38
420.68	3.47
420.887	3.47
421.095	3.29
421.302	3.5
421.51	3.23
421.717	3.09
421.925	3.03
422.132	3.07
422.34	3
422.547	3.11
422.755	3.14
422.962	3.25
423.17	3.31
423.377	3.37
423.585	3.41
423.792	3.38
423.999	3.26
424.207	3.28
424.414	3.06
424.621	3.05
424.829	3.12
425.036	3.18
425.243	2.99
425.451	3.1
425.658	3.02
425.865	3.02
426.072	2.97
426.28	3.05
426.487	3.14
426.694	3.08
426.901	3
427.108	3.27
427.315	3.46
427.523	3.33
427.73	3.46
427.937	3.64
428.144	3.47
428.351	3.23
428.558	3.32
428.765	3.42
428.972	3.43
429.179	3.32
429.386	3.44
429.593	3.5
429.8	3.59
430.007	3.6
430.214	3.69
430.421	3.72
430.628	3.62
430.835	3.56
431.042	3.48
431.249	3.45
431.456	3.53
431.662	3.73
431.869	3.81
432.076	3.72
432.283	3.72
432.49	3.75
432.697	3.71
432.903	3.7
433.11	3.76
433.317	3.7
433.524	3.48
433.73	3.5
433.937	3.42
434.144	3.37
434.35	3.5
434.557	3.79
434.764	3.77
434.97	3.88
435.177	4.05
435.384	4.19
435.59	4.21
435.797	4.13
436.003	3.97
436.21	3.94
436.416	3.84
436.623	3.68
436.829	3.72
437.036	3.78
437.242	3.8
437.449	3.74
437.655	3.85
437.862	3.98
438.068	3.97
438.275	3.98
438.481	3.88
438.687	3.9
438.894	3.88
439.1	4.03
439.307	3.92
439.513	4.02
439.719	3.95
439.926	3.89
440.132	3.89
440.338	4.08
440.544	4.02
440.751	4.14
440.957	4.21
441.163	4.19
441.369	4.18
441.575	4.36
441.782	4.41
441.988	4.51
442.194	4.49
442.4	4.49
442.606	4.56
442.812	4.42
443.018	4.15
443.224	4.11
443.431	4.11
443.637	4.12
443.843	4.13
444.049	4.36
444.255	4.53
444.461	4.66
444.667	4.69
444.873	4.63
445.079	4.63
445.284	4.53
445.49	4.56
445.696	4.52
445.902	4.61
446.108	4.58
446.314	4.68
446.52	4.69
446.726	4.67
446.931	4.75
447.137	4.84
447.343	4.85
447.549	4.79
447.755	4.83
447.96	4.74
448.166	4.63
448.372	4.56
448.578	4.49
448.783	4.57
448.989	4.67
449.195	4.65
449.4	4.69
449.606	4.77
449.812	4.68
450.017	4.63
450.223	4.74
450.428	4.86
450.634	4.8
450.84	4.81
451.045	4.87
451.251	4.92
451.456	4.78
451.662	4.73
451.867	4.79
452.073	4.77
452.278	4.7
452.483	4.72
452.689	4.81
452.894	4.83
453.1	4.8
453.305	4.81
453.51	4.9
453.716	4.99
453.921	5.04
454.127	5.13
454.332	5.18
454.537	5.13
454.742	5.15
454.948	5.07
455.153	5.11
455.358	5.08
455.563	5.08
455.769	5.05
455.974	5.1
456.179	5.12
456.384	5.17
456.589	5.28
456.795	5.26
457	5.27
457.205	5.2
457.41	5.25
457.615	5.29
457.82	5.3
458.025	5.36
458.23	5.4
458.435	5.34
458.64	5.27
458.845	5.29
459.05	5.23
459.255	5.31
459.46	5.37
459.665	5.33
459.87	5.32
460.075	5.37
460.28	5.41
460.485	5.4
460.69	5.41
460.895	5.52
461.099	5.53
461.304	5.44
461.509	5.39
461.714	5.44
461.919	5.36
462.123	5.43
462.328	5.56
462.533	5.68
462.738	5.78
462.942	5.83
463.147	5.88
463.352	5.82
463.556	5.84
463.761	5.74
463.966	5.7
464.17	5.58
464.375	5.61
464.58	5.62
464.784	5.68
464.989	5.84
465.193	5.84
465.398	5.88
465.602	5.67
465.807	5.73
466.011	5.65
466.216	5.63
466.42	5.6
466.625	5.84
466.829	5.91
467.034	5.9
467.238	5.9
467.443	5.94
467.647	5.98
467.851	5.93
468.056	5.94
468.26	6.07
468.464	6.04
468.669	5.99
468.873	5.97
469.077	5.98
469.282	5.98
469.486	5.96
469.69	5.97
469.894	5.9
470.099	5.92
470.303	5.87
470.507	5.95
470.711	5.98
470.915	6.1
471.119	6.25
471.324	6.37
471.528	6.37
471.732	6.35
471.936	6.41
472.14	6.29
472.344	6.23
472.548	6.25
472.752	6.21
472.956	6.1
473.16	6.07
473.364	6.11
473.568	6.09
473.772	6.14
473.976	6.21
474.18	6.28
474.384	6.25
474.588	6.28
474.792	6.39
474.995	6.33
475.199	6.32
475.403	6.31
475.607	6.37
475.811	6.36
476.015	6.44
476.218	6.4
476.422	6.45
476.626	6.42
476.83	6.38
477.033	6.42
477.237	6.44
477.441	6.41
477.644	6.37
477.848	6.4
478.052	6.4
478.255	6.44
478.459	6.41
478.663	6.42
478.866	6.39
479.07	6.36
479.273	6.4
479.477	6.38
479.681	6.41
479.884	6.41
480.088	6.44
480.291	6.39
480.495	6.52
480.698	6.52
480.901	6.48
481.105	6.36
481.308	6.44
481.512	6.38
481.715	6.4
481.919	6.44
482.122	6.52
482.325	6.49
482.529	6.52
482.732	6.56
482.935	6.59
483.138	6.54
483.342	6.49
483.545	6.41
483.748	6.34
483.952	6.29
484.155	6.33
484.358	6.4
484.561	6.47
484.764	6.51
484.967	6.48
485.171	6.39
485.374	6.4
485.577	6.36
485.78	6.3
485.983	6.32
486.186	6.44
486.389	6.43
486.592	6.43
486.795	6.51
486.998	6.55
487.201	6.52
487.404	6.52
487.607	6.56
487.81	6.49
488.013	6.49
488.216	6.47
488.419	6.42
488.622	6.42
488.825	6.43
489.028	6.4
489.231	6.39
489.433	6.41
489.636	6.42
489.839	6.46
490.042	6.54
490.245	6.69
490.447	6.71
490.65	6.72
490.853	6.66
491.056	6.54
491.258	6.4
491.461	6.33
491.664	6.3
491.866	6.35
492.069	6.42
492.272	6.36
492.474	6.42
492.677	6.4
492.879	6.37
493.082	6.35
493.285	6.31
493.487	6.34
493.69	6.41
493.892	6.39
494.095	6.4
494.297	6.54
494.5	6.45
494.702	6.39
494.905	6.47
495.107	6.4
495.309	6.34
495.512	6.41
495.714	6.43
495.917	6.3
496.119	6.33
496.321	6.28
496.524	6.25
496.726	6.24
496.928	6.28
497.13	6.34
497.333	6.41
497.535	6.37
497.737	6.43
497.939	6.47
498.142	6.42
498.344	6.42
498.546	6.46
498.748	6.4
498.95	6.38
499.152	6.41
499.355	6.43
499.557	6.39
499.759	6.34
499.961	6.33
500.163	6.34
500.365	6.33
500.567	6.24
500.769	6.33
500.971	6.33
501.173	6.28
501.375	6.24
501.577	6.39
501.779	6.38
501.981	6.41
502.183	6.43
502.385	6.44
502.587	6.46
502.788	6.37
502.99	6.39
503.192	6.44
503.394	6.44
503.596	6.43
503.798	6.48
503.999	6.43
504.201	6.44
504.403	6.42
504.605	6.35
504.806	6.44
505.008	6.48
505.21	6.36
505.411	6.35
505.613	6.39
505.815	6.4
506.016	6.31
506.218	6.33
506.42	6.4
506.621	6.35
506.823	6.32
507.024	6.39
507.226	6.46
507.427	6.42
507.629	6.49
507.83	6.45
508.032	6.43
508.233	6.44
508.435	6.48
508.636	6.45
508.838	6.45
509.039	6.47
509.24	6.43
509.442	6.35
509.643	6.3
509.845	6.28
510.046	6.26
510.247	6.25
510.448	6.25
510.65	6.33
510.851	6.36
511.052	6.38
511.254	6.46
511.455	6.52
511.656	6.48
511.857	6.42
512.058	6.41
512.26	6.27
512.461	6.25
512.662	6.28
512.863	6.38
513.064	6.44
513.265	6.46
513.466	6.52
513.667	6.52
513.868	6.46
514.069	6.35
514.27	6.36
514.471	6.27
514.672	6.27
514.873	6.26
515.074	6.32
515.275	6.33
515.476	6.37
515.677	6.38
515.878	6.36
516.079	6.37
516.28	6.38
516.481	6.36
516.682	6.32
516.882	6.41
517.083	6.4
517.284	6.41
517.485	6.41
517.686	6.35
517.886	6.33
518.087	6.31
518.288	6.31
518.488	6.38
518.689	6.45
518.89	6.5
519.091	6.5
519.291	6.48
519.492	6.42
519.692	6.41
519.893	6.31
520.094	6.3
520.294	6.34
520.495	6.39
520.695	6.4
520.896	6.43
521.096	6.45
521.297	6.41
521.497	6.39
521.698	6.44
521.898	6.43
522.099	6.44
522.299	6.47
522.499	6.47
522.7	6.41
522.9	6.45
523.101	6.38
523.301	6.37
523.501	6.35
523.702	6.33
523.902	6.32
524.102	6.3
524.302	6.32
524.503	6.33
524.703	6.37
524.903	6.4
525.103	6.48
525.304	6.4
525.504	6.4
525.704	6.4
525.904	6.35
526.104	6.37
526.304	6.43
526.504	6.41
526.705	6.39
526.905	6.4
527.105	6.35
527.305	6.35
527.505	6.39
527.705	6.43
527.905	6.42
528.105	6.44
528.305	6.46
528.505	6.46
528.705	6.42
528.905	6.41
529.105	6.43
529.304	6.42
529.504	6.36
529.704	6.43
529.904	6.5
530.104	6.53
530.304	6.55
530.503	6.63
530.703	6.57
530.903	6.63
531.103	6.6
531.303	6.6
531.502	6.61
531.702	6.67
531.902	6.58
532.101	6.56
532.301	6.59
532.501	6.59
532.7	6.59
532.9	6.65
533.1	6.67
533.299	6.66
533.499	6.67
533.698	6.69
533.898	6.65
534.097	6.67
534.297	6.62
534.496	6.57
534.696	6.53
534.895	6.53
535.095	6.51
535.294	6.54
535.494	6.58
535.693	6.64
535.892	6.64
536.092	6.65
536.291	6.69
536.491	6.68
536.69	6.65
536.889	6.66
537.088	6.7
537.288	6.66
537.487	6.69
537.686	6.71
537.886	6.73
538.085	6.75
538.284	6.71
538.483	6.74
538.682	6.72
538.882	6.72
539.081	6.69
539.28	6.79
539.479	6.82
539.678	6.86
539.877	6.87
540.076	6.86
540.275	6.82
540.474	6.77
540.673	6.8
540.872	6.89
541.071	6.91
541.27	7.03
541.469	7.03
541.668	6.95
541.867	6.95
542.066	6.97
542.265	6.97
542.464	7.06
542.663	7.2
542.862	7.22
543.06	7.28
543.259	7.26
543.458	7.26
543.657	7.25
543.856	7.29
544.054	7.28
544.253	7.34
544.452	7.36
544.651	7.34
544.849	7.36
545.048	7.36
545.247	7.38
545.445	7.38
545.644	7.4
545.843	7.38
546.041	7.41
546.24	7.35
546.438	7.37
546.637	7.47
546.836	7.52
547.034	7.56
547.233	7.71
547.431	7.82
547.63	7.83
547.828	7.9
548.027	7.94
548.225	7.97
548.423	8.03
548.622	8.04
548.82	8.08
549.019	8.1
549.217	8.01
549.415	8.03
549.614	8.1
549.812	8.11
550.01	8.17
550.209	8.3
550.407	8.3
550.605	8.29
550.803	8.28
551.002	8.31
551.2	8.33
551.398	8.33
551.596	8.4
551.794	8.51
551.993	8.56
552.191	8.64
552.389	8.72
552.587	8.81
552.785	8.81
552.983	8.83
553.181	8.86
553.379	8.9
553.577	8.95
553.775	9.03
553.973	9.12
554.171	9.14
554.369	9.24
554.567	9.26
554.765	9.33
554.963	9.35
555.161	9.45
555.359	9.43
555.557	9.46
555.755	9.54
555.952	9.57
556.15	9.63
556.348	9.72
556.546	9.78
556.744	9.76
556.941	9.83
557.139	9.85
557.337	9.92
557.535	10.01
557.732	10.12
557.93	10.11
558.128	10.14
558.325	10.16
558.523	10.23
558.721	10.26
558.918	10.34
559.116	10.38
559.313	10.39
559.511	10.42
559.708	10.46
559.906	10.56
560.104	10.65
560.301	10.7
560.498	10.77
560.696	10.84
560.893	10.86
561.091	10.94
561.288	11.01
561.486	11.04
561.683	11.08
561.88	11.13
562.078	11.12
562.275	11.17
562.473	11.21
562.67	11.2
562.867	11.25
563.064	11.34
563.262	11.39
563.459	11.47
563.656	11.47
563.853	11.52
564.051	11.57
564.248	11.62
564.445	11.62
564.642	11.68
564.839	11.71
565.036	11.75
565.234	11.69
565.431	11.72
565.628	11.74
565.825	11.8
566.022	11.76
566.219	11.9
566.416	11.9
566.613	12.01
566.81	12.08
567.007	12.15
567.204	12.25
567.401	12.27
567.598	12.3
567.795	12.29
567.991	12.34
568.188	12.32
568.385	12.23
568.582	12.29
568.779	12.27
568.976	12.26
569.172	12.23
569.369	12.4
569.566	12.32
569.763	12.23
569.96	12.26
570.156	12.22
570.353	12.23
570.55	12.27
570.746	12.39
570.943	12.4
571.14	12.5
571.336	12.48
571.533	12.54
571.729	12.55
571.926	12.54
572.123	12.49
572.319	12.55
572.516	12.57
572.712	12.59
572.909	12.53
573.105	12.47
573.302	12.44
573.498	12.31
573.695	12.27
573.891	12.32
574.087	12.39
574.284	12.38
574.48	12.48
574.677	12.44
574.873	12.49
575.069	12.52
575.266	12.47
575.462	12.42
575.658	12.42
575.854	12.41
576.051	12.26
576.247	12.21
576.443	12.21
576.639	12.34
576.835	12.21
577.032	12.28
577.228	12.33
577.424	12.24
577.62	12.12
577.816	12.15
578.012	12.15
578.208	12.04
578.404	12.16
578.6	12.14
578.796	12.12
578.993	12.15
579.189	12.23
579.384	12.14
579.58	12.1
579.776	12.11
579.972	12.02
580.168	12.05
580.364	12.08
580.56	12.1
580.756	12.06
580.952	12.06
581.148	11.96
581.343	11.91
581.539	11.91
581.735	11.86
581.931	11.85
582.127	11.85
582.322	11.83
582.518	11.77
582.714	11.81
582.909	11.79
583.105	11.76
583.301	11.73
583.496	11.69
583.692	11.74
583.888	11.71
584.083	11.69
584.279	11.7
584.474	11.68
584.67	11.52
584.866	11.53
585.061	11.54
585.257	11.49
585.452	11.52
585.648	11.58
585.843	11.55
586.039	11.56
586.234	11.6
586.429	11.56
586.625	11.49
586.82	11.47
587.015	11.47
587.211	11.35
587.406	11.36
587.601	11.41
587.797	11.35
587.992	11.33
588.187	11.36
588.383	11.38
588.578	11.39
588.773	11.48
588.968	11.45
589.163	11.55
589.359	11.47
589.554	11.43
589.749	11.41
589.944	11.47
590.139	11.38
590.334	11.49
590.529	11.57
590.724	11.6
590.919	11.53
591.114	11.58
591.309	11.57
591.504	11.55
591.699	11.56
591.894	11.63
592.089	11.68
592.284	11.57
592.479	11.54
592.674	11.55
592.869	11.51
593.064	11.51
593.259	11.6
593.454	11.6
593.648	11.6
593.843	11.71
594.038	11.72
594.233	11.69
594.428	11.74
594.622	11.8
594.817	11.75
595.012	11.73
595.206	11.84
595.401	11.9
595.596	11.91
595.79	11.97
595.985	12.06
596.18	12.15
596.374	12.17
596.569	12.23
596.763	12.25
596.958	12.3
597.153	12.24
597.347	12.25
597.542	12.2
597.736	12.3
597.931	12.24
598.125	12.29
598.319	12.38
598.514	12.5
598.708	12.51
598.903	12.58
599.097	12.58
599.291	12.56
599.486	12.55
599.68	12.53
599.874	12.56
600.069	12.63
600.263	12.64
600.457	12.69
600.651	12.65
600.846	12.71
601.04	12.76
601.234	12.77
601.428	12.7
601.622	12.83
601.817	12.8
602.011	12.78
602.205	12.85
602.399	12.98
602.593	12.88
602.787	12.91
602.981	12.93
603.175	12.91
603.369	12.83
603.563	12.81
603.757	12.81
603.951	12.73
604.145	12.72
604.339	12.73
604.533	12.77
604.727	12.8
604.921	12.87
605.115	12.88
605.309	12.84
605.502	12.81
605.696	12.72
605.89	12.65
606.084	12.57
606.278	12.63
606.471	12.58
606.665	12.59
606.859	12.49
607.053	12.53
607.246	12.45
607.44	12.44
607.634	12.37
607.827	12.41
608.021	12.28
608.214	12.22
608.408	12.14
608.602	12.17
608.795	12.21
608.989	12.16
609.182	12.14
609.376	12.1
609.569	12.02
609.763	11.9
609.956	11.93
610.15	11.86
610.343	11.91
610.537	11.87
610.73	11.84
610.923	11.78
611.117	11.79
611.31	11.64
611.504	11.61
611.697	11.53
611.89	11.42
612.083	11.27
612.277	11.28
612.47	11.21
612.663	11.22
612.856	11.24
613.05	11.18
613.243	11.07
613.436	10.99
613.629	10.89
613.822	10.78
614.015	10.87
614.209	10.9
614.402	10.92
614.595	10.96
614.788	10.96
614.981	10.9
615.174	10.8
615.367	10.74
615.56	10.65
615.753	10.67
615.946	10.63
616.139	10.65
616.332	10.64
616.525	10.64
616.718	10.63
616.911	10.59
617.103	10.58
617.296	10.48
617.489	10.49
617.682	10.42
617.875	10.34
618.067	10.29
618.26	10.34
618.453	10.22
618.646	10.21
618.838	10.22
619.031	10.07
619.224	10.09
619.417	10.1
619.609	10
619.802	10.02
619.994	10.1
620.187	9.99
620.38	9.92
620.572	9.98
620.765	9.92
620.957	9.96
621.15	9.97
621.342	10.01
621.535	9.92
621.727	9.9
621.92	9.83
622.112	9.85
622.305	9.8
622.497	9.86
622.69	9.83
622.882	9.83
623.074	9.79
623.267	9.8
623.459	9.72
623.651	9.75
623.844	9.79
624.036	9.78
624.228	9.78
624.42	9.82
624.613	9.89
624.805	9.84
624.997	9.8
625.189	9.8
625.381	9.82
625.574	9.69
625.766	9.63
625.958	9.61
626.15	9.55
626.342	9.48
626.534	9.45
626.726	9.47
626.918	9.45
627.11	9.49
627.302	9.49
627.494	9.48
627.686	9.45
627.878	9.46
628.07	9.43
628.262	9.37
628.454	9.32
628.646	9.33
628.838	9.3
629.029	9.24
629.221	9.26
629.413	9.32
629.605	9.29
629.797	9.2
629.989	9.2
630.18	9.16
630.372	9.08
630.564	9.01
630.755	9
630.947	9
631.139	9.04
631.33	8.99
631.522	8.95
631.714	8.9
631.905	8.9
632.097	8.79
632.289	8.79
632.48	8.85
632.672	8.86
632.863	8.8
633.055	8.81
633.246	8.87
633.438	8.83
633.629	8.8
633.821	8.77
634.012	8.71
634.203	8.63
634.395	8.63
634.586	8.73
634.777	8.74
634.969	8.8
635.16	8.82
635.351	8.82
635.543	8.77
635.734	8.75
635.925	8.81
636.117	8.74
636.308	8.74
636.499	8.69
636.69	8.71
636.881	8.62
637.073	8.66
637.264	8.6
637.455	8.58
637.646	8.56
637.837	8.54
638.028	8.5
638.219	8.49
638.41	8.51
638.601	8.44
638.792	8.49
638.983	8.46
639.174	8.49
639.365	8.44
639.556	8.39
639.747	8.31
639.938	8.32
640.129	8.25
640.32	8.28
640.511	8.32
640.701	8.31
640.892	8.22
641.083	8.13
641.274	8.07
641.465	7.98
641.655	7.98
641.846	8.05
642.037	8.16
642.228	8.08
642.418	8.05
642.609	7.97
642.8	7.88
642.99	7.79
643.181	7.81
643.372	7.9
643.562	7.93
643.753	7.92
643.943	7.94
644.134	7.97
644.324	7.9
644.515	7.9
644.705	7.84
644.896	7.81
645.086	7.78
645.277	7.76
645.467	7.79
645.658	7.87
645.848	7.8
646.038	7.74
646.229	7.72
646.419	7.65
646.61	7.64
646.8	7.73
646.99	7.79
647.18	7.79
647.371	7.79
647.561	7.74
647.751	7.71
647.941	7.68
648.132	7.75
648.322	7.75
648.512	7.75
648.702	7.75
648.892	7.7
649.082	7.67
649.272	7.63
649.462	7.63
649.653	7.58
649.843	7.66
650.033	7.63
650.223	7.62
650.413	7.65
650.603	7.68
650.793	7.59
650.983	7.6
651.172	7.59
651.362	7.5
651.552	7.49
651.742	7.54
651.932	7.52
652.122	7.54
652.312	7.58
652.502	7.52
652.691	7.47
652.881	7.45
653.071	7.48
653.261	7.4
653.45	7.37
653.64	7.39
653.83	7.37
654.019	7.27
654.209	7.24
654.399	7.19
654.588	7.09
654.778	7.08
654.968	7.03
655.157	6.96
655.347	6.93
655.536	6.89
655.726	6.73
655.915	6.71
656.105	6.74
656.294	6.68
656.484	6.66
656.673	6.81
656.863	6.73
657.052	6.69
657.241	6.7
657.431	6.69
657.62	6.58
657.809	6.56
657.999	6.57
658.188	6.55
658.377	6.48
658.567	6.34
658.756	6.3
658.945	6.22
659.134	6.15
659.324	6.14
659.513	6.18
659.702	6.14
659.891	6.14
660.08	6.12
660.269	6.04
660.458	5.96
660.648	5.96
660.837	5.94
661.026	5.84
661.215	5.85
661.404	5.82
661.593	5.68
661.782	5.56
661.971	5.55
662.16	5.56
662.349	5.53
662.538	5.62
662.726	5.71
662.915	5.74
663.104	5.67
663.293	5.68
663.482	5.55
663.671	5.47
663.86	5.46
664.048	5.51
664.237	5.5
664.426	5.55
664.615	5.53
664.803	5.46
664.992	5.34
665.181	5.41
665.369	5.44
665.558	5.39
665.747	5.4
665.935	5.52
666.124	5.47
666.312	5.44
666.501	5.56
666.69	5.68
666.878	5.67
667.067	5.69
667.255	5.73
667.444	5.62
667.632	5.46
667.82	5.42
668.009	5.42
668.197	5.49
668.386	5.63
668.574	5.67
668.762	5.73
668.951	5.69
669.139	5.78
669.327	5.79
669.516	5.82
669.704	5.87
669.892	5.99
670.08	5.96
670.269	6.01
670.457	6.17
670.645	6.24
670.833	6.17
671.021	6.08
671.21	6.11
671.398	6.06
671.586	6.05
671.774	6.17
671.962	6.32
672.15	6.37
672.338	6.5
672.526	6.6
672.714	6.7
672.902	6.7
673.09	6.64
673.278	6.51
673.466	6.45
673.654	6.4
673.842	6.59
674.03	6.75
674.218	7.06
674.405	7.15
674.593	7.16
674.781	7
674.969	7
675.157	6.76
675.344	6.86
675.532	6.87
675.72	6.97
675.908	6.85
676.095	7
676.283	6.97
676.471	6.95
676.658	7
676.846	7.18
677.033	7.1
677.221	7.24
677.409	7.34
677.596	7.44
677.784	7.46
677.971	7.75
678.159	7.76
678.346	7.75
678.534	7.73
678.721	7.62
678.909	7.55
679.096	7.53
679.283	7.69
679.471	7.77
679.658	7.92
679.846	7.92
680.033	8
680.22	8.04
680.408	8.02
680.595	8
680.782	8.06
680.969	8.06
681.157	8.11
681.344	8.12
681.531	8.23
681.718	8.29
681.905	8.29
682.093	8.24
682.28	8.29
682.467	8.37
682.654	8.4
682.841	8.43
683.028	8.59
683.215	8.67
683.402	8.64
683.589	8.67
683.776	8.74
683.963	8.77
684.15	8.66
684.337	8.82
684.524	8.95
684.711	8.93
684.898	8.98
685.085	9.18
685.271	9.18
685.458	9.24
685.645	9.44
685.832	9.51
686.019	9.67
686.205	9.78
686.392	9.96
686.579	10.1
686.766	10.17
686.952	10.22
687.139	10.29
687.326	10.4
687.512	10.45
687.699	10.61
687.886	10.69
688.072	10.87
688.259	10.96
688.445	11.28
688.632	11.5
688.818	11.78
689.005	12.05
689.191	12.24
689.378	12.35
689.564	12.46
689.751	12.61
689.937	12.86
690.124	13.15
690.31	13.34
690.496	13.76
690.683	14.21
690.869	14.3
691.055	14.5
691.242	14.75
691.428	14.96
691.614	15.07
691.8	15.51
691.987	15.84
692.173	16.32
692.359	16.67
692.545	17.28
692.731	17.74
692.918	18.1
693.104	18.48
693.29	18.74
693.476	19.01
693.662	19.34
693.848	19.8
694.034	20.17
694.22	20.78
694.406	21.34
694.592	21.74
694.778	22.25
694.964	22.71
695.15	23.27
695.336	23.64
695.522	24.09
695.708	24.57
695.894	25.06
696.08	25.48
696.265	25.98
696.451	26.53
696.637	27.16
696.823	27.71
697.009	28.18
697.194	28.73
697.38	29.33
697.566	29.61
697.751	30.22
697.937	30.63
698.123	31.15
698.308	31.43
698.494	32.12
698.68	32.53
698.865	33
699.051	33.3
699.236	34.08
699.422	34.5
699.607	35.07
699.793	35.63
699.978	36.21
700.164	36.71
700.349	37.14
700.535	37.69
700.72	38.09
700.906	38.73
701.091	38.99
701.276	39.66
701.462	39.81
701.647	40.61
701.832	40.87
702.018	41.61
702.203	41.98
702.388	42.74
702.573	43.41
702.759	43.82
702.944	44.32
703.129	44.69
703.314	45.12
703.499	45.36
703.684	46.09
703.87	46.15
704.055	46.48
704.24	46.76
704.425	47.15
704.61	47.5
704.795	48.27
704.98	49.06
705.165	49.68
705.35	50.11
705.535	50.42
705.72	50.48
705.905	50.73
706.09	50.84
706.275	51.28
706.459	51.6
706.644	52.36
706.829	52.56
707.014	52.94
707.199	53.07
707.384	53.18
707.568	53.26
707.753	53.75
707.938	54.08
708.123	54.38
708.307	55.25
708.492	55.59
708.677	55.56
708.861	55.81
709.046	56.23
709.231	56.27
709.415	56.85
709.6	57.21
709.784	57.66
709.969	58.07
710.153	58.43
710.338	58.63
710.522	59.13
710.707	59.36
710.891	59.46
711.076	59.34
711.26	59.3
711.445	59.35
711.629	59.67
711.813	59.67
711.998	59.91
712.182	60.21
712.366	60.53
712.551	60.98
712.735	61.02
712.919	61.52
713.103	61.91
713.288	62.43
713.472	62.32
713.656	62.58
713.84	62.69
714.024	62.33
714.208	62.3
714.393	62.76
714.577	63.47
714.761	63.81
714.945	64.45
715.129	64.49
715.313	64.52
715.497	64.86
715.681	64.81
715.865	65.2
716.049	65.51
716.233	65.76
716.417	65.38
716.601	65.85
716.785	66.2
716.968	66.44
717.152	66.6
717.336	66.92
717.52	67.16
717.704	66.93
717.888	67.32
718.071	67.39
718.255	67.3
718.439	67.38
718.622	67.51
718.806	67.16
718.99	67.71
719.174	67.7
719.357	67.76
719.541	68.32
719.724	68.69
719.908	68.77
720.092	69.88
720.275	70.3
720.459	70.24
720.642	70.53
720.826	70.47
721.009	69.98
721.193	69.97
721.376	70.61
721.559	70.32
721.743	70.57
721.926	71.04
722.11	71.48
722.293	70.97
722.476	71.37
722.66	71.59
722.843	71.62
723.026	71.69
723.21	71.86
723.393	71.93
723.576	71.77
723.759	72.03
723.942	71.76
724.126	72.16
724.309	72.99
724.492	73.62
724.675	74.01
724.858	74.56
725.041	74.59
725.224	74.21
725.407	74.23
725.59	74.36
725.774	73.81
725.957	74.54
726.14	74.97
726.322	74.76
726.505	75.17
726.688	76.24
726.871	75.78
727.054	76.42
727.237	76.5
727.42	76.3
727.603	76.69
727.786	77.01
727.968	77.22
728.151	78.18
728.334	78.93
728.517	78.84
728.699	78.9
728.882	78.39
729.065	78.76
729.248	78.31
729.43	78.68
729.613	78.93
729.796	79
729.978	78.56
730.161	78.35
730.343	78.16
730.526	78.32
730.708	79.28
730.891	80.16
731.073	81.57
731.256	82.15
731.438	82.78
731.621	82.5
731.803	81.41
731.986	81.02
732.168	81.48
732.35	81.48
732.533	82.03
732.715	83.31
732.898	83.36
733.08	82.53
733.262	82.42
733.444	81.94
733.627	81.1
733.809	81.83
733.991	83
734.173	83.37
734.355	83.8
734.538	84.91
734.72	84.21
734.902	83.28
735.084	83.32
735.266	83.53
735.448	84.2
735.63	85.19
735.812	85.89
735.994	85.71
736.176	85.92
736.358	84.77
736.54	84.19
736.722	83.76
736.904	84.14
737.086	84.01
737.268	84.21
737.45	85.16
737.632	86.15
737.814	86.73
737.995	86.87
738.177	87.32
738.359	87.49
738.541	87.05
738.723	87.41
738.904	87.01
739.086	87.29
739.268	86.68
739.449	86.98
739.631	86.62
739.813	87.87
739.994	87.49
740.176	86.45
740.358	86.28
740.539	86.25
740.721	86.73
740.902	87.96
741.084	89.11
741.265	90.64
741.447	90.58
741.628	90.03
741.81	89.41
741.991	89.97
742.172	89.11
742.354	89.2
742.535	90.07
742.717	89.68
742.898	90.33
743.079	90.92
743.261	92.1
743.442	91.07
743.623	91.7
743.804	90.92
743.986	90.5
744.167	89.84
744.348	90.26
744.529	89.24
744.71	89.21
744.891	88.85
745.073	89.22
745.254	89.13
745.435	90.21
745.616	90.29
745.797	89.98
745.978	90.25
746.159	90.58
746.34	90.62
746.521	91.12
746.702	91.3
746.883	91.29
747.064	90.96
747.245	90.66
747.426	90.51
747.606	91.14
747.787	90.01
747.968	89.56
748.149	90.15
748.33	89.69
748.51	88.34
748.691	88.61
748.872	89.61
749.053	90.17
749.233	91.8
749.414	93.33
749.595	93.26
749.775	93.27
749.956	93.01
750.137	91.6
750.317	91
750.498	91.33
750.678	90.76
750.859	90.59
751.04	90.07
751.22	91.5
751.4	91.43
751.581	92.55
751.761	91.26
751.942	92.27
752.122	90.91
752.303	91.61
752.483	90.92
752.663	91.89
752.844	92.4
753.024	93.56
753.204	93.22
753.385	93.2
753.565	92.56
753.745	92.2
753.925	91.22
754.106	91.56
754.286	91.63
754.466	93.05
754.646	93.05
754.826	92.65
755.006	93.07
755.187	93.14
755.367	91.92
755.547	92.49
755.727	92.33
755.907	92.04
756.087	90.39
756.267	91.08
756.447	89.69
756.627	89.69
756.807	88.6
756.987	91.49
757.167	91.56
757.346	91.35
757.526	92.91
757.706	93.1
757.886	91.59
758.066	91.08
758.246	91.87
758.425	91.4
758.605	91.42
758.785	92.33
758.965	92.55
759.144	93.09
759.324	92.49
759.504	91.82
759.683	92.55
759.863	90.62
760.043	90.8
760.222	91.22
760.402	91.64
760.581	89.74
760.761	90.84
760.94	90.09
761.12	90.08
761.299	91.15
761.479	90.62
761.658	91.17
761.838	92.22
762.017	93.2
762.197	92.66
762.376	94.87
762.555	95.01
762.735	93.17
762.914	92.49
763.093	91.64
763.273	89.16
763.452	88.75
763.631	89.19
763.81	88.79
763.99	90.55
764.169	92.4
764.348	91.68
764.527	92.66
764.706	91.15
764.885	91.36
765.064	89.79
765.243	92.79
765.423	92.13
765.602	93.85
765.781	93.85
765.96	93.86
766.139	92.03
766.318	92.08
766.497	91.31
766.676	91.24
766.854	91.1
767.033	90.88
767.212	90.67
767.391	92.44
767.57	90.76
767.749	92.59
767.928	91.98
768.106	92.03
768.285	91.27
768.464	91.91
768.643	91.51
768.821	89.21
769	88.1
769.179	88.77
769.357	90.51
769.536	90.28
769.715	91.09
769.893	92.44
770.072	91.52
770.25	91.02
770.429	91.28
770.607	92.43
770.786	91.36
770.964	90.44
771.143	88.96
771.321	86.4
771.5	86.1
771.678	87.08
771.857	87.39
772.035	87.54
772.213	87.86
772.392	89.99
772.57	89.91
772.748	90.48
772.927	91.58
773.105	92.56
773.283	92.33
773.461	90.4
773.64	90.31
773.818	88.16
773.996	87.35
774.174	84.69
774.352	85.43
774.531	83.94
774.709	84.99
774.887	86.11
775.065	88.93
775.243	90.21
775.421	90
775.599	89.61
775.777	88.57
775.955	87.25
776.133	88.15
776.311	87.67
776.489	87.37
776.667	89.78
776.844	90.26
777.022	90.59
777.2	90.7
777.378	91.74
777.556	89.66
777.734	89.53
777.911	86.81
778.089	88.35
778.267	88.14
778.445	90.08
778.622	88.24
778.8	88.82
778.978	87.43
779.155	85.76
779.333	84.31
779.511	85.1
779.688	83.29
779.866	84.81
780.043	88.33
780.221	87.73
780.398	88
780.576	88.5
780.753	88.13
780.931	85.73
781.108	86.57
781.286	85.3
781.463	85.15
781.64	82.91
781.818	82.66
781.995	83.38
782.172	84.37
782.35	86.63
782.527	90.54
782.704	91.47
782.882	89.72
783.059	87.86
783.236	89.81
783.413	88.85
783.59	88.59
783.768	93.45
783.945	93.65
784.122	92.92
784.299	92.19
784.476	91.38
784.653	89.88
784.83	90.48
785.007	88
785.184	88.29
785.361	87.98
785.538	85.11
785.715	86.48
785.892	85.9
786.069	84.2
786.246	84.55
786.423	88.24
786.6	90.24
786.776	94.5
786.953	97.56
787.13	97.31
787.307	92.58
787.484	92.05
787.66	90.28
787.837	89.42
788.014	91
788.191	92.58
788.367	91.73
788.544	90.78
788.721	88.72
788.897	87.02
789.074	86.59
789.25	85.33
789.427	87.12
789.603	87.49
789.78	85.22
789.956	84.68
790.133	87.55
790.309	87.14
790.486	87.67
790.662	93.24
790.839	94.77
791.015	90.79
791.192	85
791.368	83.42
791.544	82.19
791.721	81.77
791.897	81.7
792.073	85.76
792.249	88.98
792.426	85.2
792.602	82.37
792.778	84.63
792.954	86.54
793.13	87.44
793.307	91.16
793.483	94.37
793.659	94.47
793.835	93.37
794.011	88.74
794.187	89.3
794.363	91.81
794.539	90.06
794.715	89.86
794.891	92.9
795.067	92.39
795.243	92.07
795.419	93.04
795.595	87.96
795.771	88.63
795.947	81.58
796.122	82.01
796.298	82.61
796.474	86
796.65	83.51
796.826	89.16
797.001	82.17
797.177	79.54
797.353	75.76
797.529	75.82
797.704	76.71
797.88	80.78
798.056	82.13
798.231	85.85
798.407	87.34
798.582	88.16
798.758	89.52
798.934	88.66
799.109	88.79
799.285	87.78
799.46	85.75
799.636	83.76
799.811	82.15
799.986	81.32
800.162	78.63
800.337	80.07
800.513	88.57
800.688	95.24
800.863	97.44
801.039	96.4
801.214	97.19
801.389	92.88
801.565	91.16
801.74	91.45
801.915	91.49
802.09	86.18
802.265	77.53
802.441	77.27
802.616	74.94
802.791	76.36
802.966	80.72
803.141	89.89
803.316	89.55
803.491	92.19
803.666	88.67
803.841	88.9
804.016	83.17
804.191	82.62
804.366	80.25
804.541	87.7
804.716	83.59
804.891	87.19
805.066	87.01
805.241	89.38
805.416	83.1
805.591	81.98
805.765	76.94
805.94	78.04
806.115	75.84
806.29	79.79
806.464	82.34
806.639	85.04
806.814	82.61
806.989	80.25
807.163	78.06
807.338	82.03
807.512	82.58
807.687	83.53
807.862	83.75
808.036	79.29
808.211	82.2
808.385	74.89
808.56	75.53
808.734	78.14
808.909	83.24
809.083	78.07
809.258	81.56
809.432	78.31
809.606	74.25
809.781	72.84
809.955	67.86
810.13	65.72
810.304	70.13
810.478	74.27
810.652	75.84
810.827	81.52
811.001	86.68
811.175	84.79
811.349	86.59
811.524	78.4
811.698	68.99
811.872	68
812.046	69.62
812.22	66.74
812.394	84.01
812.568	100.64
812.742	97.21
812.916	97.34
813.09	95.82
813.264	89.03
813.438	84.7
813.612	90.12
813.786	93.38
813.96	89.86
814.134	90.48
814.308	84.04
814.482	83.67
814.656	79.7
814.83	77.33
815.003	72.94
815.177	85.41
815.351	81.1
815.525	79.53
815.698	84.59
815.872	86.44
816.046	84.22
816.219	89.66
816.393	78.74
816.567	83.87
816.74	87.29
816.914	73.05
817.088	69.43
817.261	75.25
817.435	72.18
817.608	68.39
817.782	83.16
817.955	81.42
818.129	80.92
818.302	79.59
818.475	75.86
818.649	69.7
818.822	67.96
818.996	69.29
819.169	76.24
819.342	75.96
819.516	76.66
819.689	73.09
819.862	86.95
820.035	73.6
820.209	78.31
820.382	73.56
820.555	77.68
820.728	60.39
820.901	66.81
821.075	61.65
821.248	68.11
821.421	82.81
821.594	91.47
821.767	89.39
821.94	80.75
822.113	82.65
822.286	63.27
822.459	60.94
822.632	62.96
822.805	72.04
822.978	73.2
823.151	75.4
823.324	91.63
823.496	98.53
823.669	97.3
823.842	95
824.015	111.42
824.188	91.84
824.361	90.57
824.533	88.17
824.706	79.01
824.879	75.34
825.051	66.76
825.224	64.88
825.397	60.69
825.569	68.4
825.742	69.05
825.915	88.74
826.087	79.31
826.26	85.71
826.432	85.55
826.605	63.43
826.777	57.44
826.95	62.84
827.122	59.39
827.295	57.46
827.467	74.83
827.64	68.79
827.812	80.33
827.984	79.42
828.157	80.67
828.329	80.27
828.501	86.02
828.674	68.82
828.846	73.73
829.018	70.83
829.19	70.96
829.363	63.75
829.535	67.49
829.707	65.52
829.879	71.93
830.051	65.91
830.223	72.27
830.395	67.49
830.568	60.29
830.74	56.35
830.912	61.99
831.084	64.27
831.256	75.77
831.428	87.36
831.6	83.31
831.772	92.52
831.943	91.91
832.115	83.33
832.287	81.27
832.459	80.21
832.631	67.39
832.803	61.25
832.975	83.81
833.146	89.02
833.318	111.65
833.49	95.64
833.662	89.93
833.833	76.99
834.005	68.11
834.177	69.46
834.348	99.11
834.52	104.59
834.692	104.25
834.863	116.11
835.035	85.51
835.206	67.62
835.378	58.63
835.549	70.88
835.721	54.34
835.892	65.83
836.064	66.13
836.235	73.35
836.407	76.43
836.578	74.28
836.749	75.58
836.921	78.39
837.092	70.17
837.264	79.3
837.435	77.12
837.606	75.4
837.777	70.35
837.949	67.14
838.12	47.52
838.291	48.22
838.462	50.6
838.633	63.47
838.805	70.49
838.976	78.07
839.147	85.94
839.318	98.95
839.489	86.85
839.66	81.11
839.831	53.05
840.002	52.08
840.173	59.74
840.344	57.31
840.515	45.41
840.686	52.42
840.857	57.14
841.028	61.41
841.199	59.52
841.369	78.96
841.54	101.48
841.711	119.53
841.882	153
842.053	139.27
842.223	136.81
842.394	116.67
842.565	118.29
842.736	67.79
842.906	59.51
843.077	65.58
843.248	77.77
843.418	76.3
843.589	90.67
843.759	74.69
843.93	57.87
844.101	25.28
844.271	15.73
844.442	22.69
844.612	4.35
844.783	21.34
844.953	60.9
845.123	61.7
845.294	46.52
845.464	61.56
845.635	57.17
845.805	49.26
845.975	73.68
846.146	85.43
846.316	93.03
846.486	92.77
846.656	87.33
846.827	82.8
846.997	79.28
847.167	82.79
847.337	92.56
847.507	90
847.677	83.03
847.848	84.56
848.018	80.28
848.188	72.74
848.358	76.58
848.528	70.29
848.698	77.51
848.868	70.7
849.038	72.77
849.208	74.91
849.378	86.18
849.548	79.86
849.718	82.51
849.887	63.99
850.057	90.18
850.227	79.9
850.397	73.1
850.567	86.31
850.737	91.79
850.906	47.26
851.076	57.76
851.246	76.07
851.415	61.48
851.585	67.68
851.755	131.26
851.924	117.95
852.094	82.07
852.264	92.01
852.433	98.16
852.603	68.89
852.772	76.86
852.942	97.98
853.111	84.89
853.281	79.33
853.45	66.07
853.62	64.34
853.789	56.03
853.959	52.22
854.128	64.48
854.297	74.08
854.467	64.96
854.636	48.3
854.805	102.56
854.975	88.39
855.144	110.22
855.313	76.94
855.482	87.01
855.652	64.8
855.821	84.81
855.99	65.94
856.159	75.82
856.328	76.43
856.497	77.34
856.667	68.46
856.836	94.32
857.005	92.19
857.174	67.42
857.343	86.07
857.512	68.8
857.681	66.24
857.85	61.18
858.019	101.22
858.188	88.14
858.356	81.78
858.525	111.06
858.694	220.2
858.863	122.91
859.032	131.07
859.201	195.51
859.369	115.19
859.538	85.03
859.707	86.32
859.876	59.49
860.044	33.14
860.213	45.71
860.382	46.05
860.55	22.02
860.719	17.05
860.888	37.13
861.056	36.8
861.225	28.05
861.393	47.99
861.562	57.17
861.73	71.82
861.899	73.18
862.067	78.4
862.236	53.59
862.404	68.65
862.572	45.57
862.741	45.08
862.909	31.26
863.078	42.59
863.246	38.98
863.414	11.86
863.582	-8.18
863.751	25.57
863.919	39.12
864.087	14.29
864.255	40.05
864.424	67.9
864.592	76.79
864.76	59.02
864.928	74.78
865.096	86.38
865.264	76.59
865.432	48.83
865.6	66.64
865.768	85.02
865.936	86.59
866.104	90
866.272	114.99
866.44	129.57
866.608	106.18
866.776	99.67
866.944	101.49
867.112	94.25
867.28	82.68
867.448	82.63
867.615	64.72
867.783	53.27
867.951	42.42
868.119	36.64
868.286	28.7
868.454	73.58
868.622	72.37
868.789	87.79
868.957	90.34
869.125	105.56
869.292	62.62
869.46	84.27
869.627	80.4
869.795	58.73
869.963	45.34
870.13	45.24
870.298	20.55
870.465	17.53
870.632	36.15
870.8	50
870.967	67.81
871.135	83.85
871.302	69.4
871.469	69.25
871.637	46.5
871.804	31.41
871.971	38.44
872.139	51.79
872.306	35.1
872.473	43.25
872.64	52.33
872.807	34.95
872.975	38.13
873.142	83.96
873.309	109.41
873.476	96.6
873.643	94.57
873.81	112.21
873.977	34.59
874.144	-5.62
874.311	38.87
874.478	57.4
874.645	75.76
874.812	95.88
874.979	97.67
875.146	114.88
875.313	109.4
875.48	80.16
875.647	81.98
875.813	99.33
875.98	67.63
876.147	70.48
876.314	53.57
876.481	80.84
876.647	73.92
876.814	113.59
876.981	118.42
877.147	117.8
877.314	-11.89
877.481	-12.22
877.647	-29.32
877.814	33.11
877.98	51.54
878.147	58.83
878.314	73.79
878.48	72.32
878.647	96.75
878.813	94.82
878.979	52.33
879.146	31.93
879.312	36.81
879.479	23.32
879.645	60.72
879.811	78.09
879.978	113.65
880.144	100.33
880.31	99.79
880.477	53.18
880.643	47.26
880.809	-67.33
880.975	-248.88
881.142	-23.75
881.308	-77.39
881.474	25.91
881.64	62.8
881.806	88.25
881.972	63.58
882.138	90.04
882.304	-57.18
882.47	73.14
882.636	-191.77
882.802	30
882.968	-73.77
883.134	37.52
883.3	-3.73
883.466	14.93
883.632	1.5
883.798	31.97
883.964	31.12
884.129	40.74
884.295	55.35
884.461	63.59
884.627	63.68
884.793	69.61
884.958	62.97
885.124	74.79
885.29	63.75
885.455	57.13
885.621	70
885.787	79.49
885.952	121.29
886.118	198.48
886.283	203.99
886.449	239.52
886.614	182.6
886.78	160.03
886.945	193.45
887.111	355.33
887.276	-1827.78
887.442	-852.86
887.607	290.46
887.773	197.55
887.938	144.52
888.103	92.41
888.269	117.31
888.434	148.88
888.599	89.81
888.764	115.27
888.93	230.1
889.095	128.33
889.26	94.78
889.425	-978.57
889.59	406
889.756	119.5
889.921	-503.85
890.086	165.49
890.251	60.19
890.416	115.92
890.581	43.36
890.746	85.21
890.911	79
891.076	140.96
891.241	92.56
891.406	80.88
891.571	87.93
891.736	134.51
891.901	101.51
892.065	147.01
892.23	175.44
892.395	122.29
892.56	47.37
892.725	-7.06
892.889	-22.09
893.054	15.48
893.219	18.61
893.384	8.48
893.548	76.5
893.713	103.45
893.878	154.65
