Data from Ofav_PP_Phys_2EV44_Reflection_2.txt Node
Date: Tue Aug 03 18:04:58 EDT 2021
User: Adam
Spectrometer: FLMT01687
Trigger mode: 0
Integration Time (sec): 8.750000E-1
Scans to average: 2
Electric dark correction enabled: true
Nonlinearity correction enabled: false
Boxcar width: 2
XAxis mode: Wavelengths
Number of Pixels in Spectrum: 3648
>>>>>Begin Spectral Data<<<<<
179.494	85.84
179.716	162.12
179.937	227.66
180.158	-203.54
180.38	42.17
180.601	42.38
180.823	31.59
181.044	64.08
181.265	-15.42
181.486	-333.91
181.708	108.54
181.929	105.56
182.15	49.38
182.372	-13.15
182.593	828.67
182.814	162.32
183.035	70.26
183.257	13.81
183.478	29.68
183.699	4.77
183.92	0.14
184.141	13.2
184.363	12.67
184.584	-45.33
184.805	-26.1
185.026	-42.99
185.247	-45.73
185.468	-32.04
185.689	-8.19
185.91	13.29
186.132	14.96
186.353	15.7
186.574	2.27
186.795	13.63
187.016	9.04
187.237	27.94
187.458	38.2
187.679	35.88
187.9	47.71
188.121	36.37
188.342	14.17
188.563	3.52
188.784	8.66
189.005	3.33
189.226	7.28
189.447	-1.05
189.667	-17.73
189.888	-35.13
190.109	-23
190.33	-41.7
190.551	-36.41
190.772	-10.68
190.993	-3.94
191.214	7.39
191.434	20.97
191.655	1.16
191.876	14.89
192.097	20.99
192.318	11.31
192.538	30.81
192.759	61.86
192.98	43.04
193.201	22.9
193.421	32.05
193.642	-19.01
193.863	11.97
194.083	16.96
194.304	21.46
194.525	-4.37
194.745	28.64
194.966	32.23
195.187	38.37
195.407	48.88
195.628	50.77
195.848	39.84
196.069	40.53
196.29	9.28
196.51	-6.08
196.731	2.09
196.951	2.14
197.172	-14.89
197.392	-6.55
197.613	-19.13
197.833	10.14
198.054	6.31
198.274	3.62
198.495	15.63
198.715	31.22
198.936	15.83
199.156	33.98
199.377	27.57
199.597	33.17
199.817	41.51
200.038	39.73
200.258	30.26
200.479	16.79
200.699	16.1
200.919	-16.93
201.14	27.55
201.36	-2.1
201.58	36.69
201.801	9.98
202.021	19.16
202.241	-1.33
202.461	21.74
202.682	20.4
202.902	25.95
203.122	40.37
203.342	41.45
203.563	50.72
203.783	38.43
204.003	34.4
204.223	12.71
204.443	6.72
204.663	7.38
204.884	4.93
205.104	18.03
205.324	30.87
205.544	14.81
205.764	15.77
205.984	1.33
206.204	4.65
206.424	-25.18
206.644	12.21
206.864	10.04
207.084	19.23
207.304	-1.05
207.525	18.6
207.745	15.82
207.964	-3.75
208.184	21.33
208.404	37.22
208.624	23.14
208.844	17.18
209.064	30.93
209.284	19.31
209.504	-7.08
209.724	7.87
209.944	7.58
210.164	-38.07
210.384	-9.07
210.604	10.6
210.823	-8.08
211.043	-11.36
211.263	-6.33
211.483	-2.42
211.703	3.39
211.922	24.1
212.142	43.7
212.362	46.49
212.582	43.95
212.801	20.7
213.021	27.67
213.241	31.35
213.461	40.16
213.68	33.19
213.9	39.12
214.12	23.38
214.339	35.83
214.559	56.12
214.779	60.79
214.998	68.34
215.218	67.63
215.438	41.17
215.657	23.64
215.877	25.07
216.096	19.92
216.316	18.54
216.535	10.88
216.755	1.45
216.974	10.5
217.194	12
217.413	11.49
217.633	28.75
217.852	36.62
218.072	28.65
218.291	20.4
218.511	38.36
218.73	35.6
218.95	33.97
219.169	39.83
219.389	48.25
219.608	38.13
219.827	11.7
220.047	-45
220.266	-30.64
220.485	-8.55
220.705	-3.31
220.924	5.61
221.143	31.05
221.363	35.07
221.582	32.91
221.801	41.64
222.021	32.96
222.24	20.36
222.459	-2.15
222.678	3.78
222.897	-8.01
223.117	-46.34
223.336	-144.38
223.555	-55.8
223.774	-14.43
223.993	-9.44
224.213	-7.1
224.432	6.4
224.651	24.76
224.87	14.08
225.089	3.35
225.308	3.09
225.527	-12.22
225.746	-60.54
225.965	-48.57
226.184	-41.52
226.404	-8.11
226.623	16.48
226.842	25.03
227.061	6.11
227.28	16.62
227.499	11.68
227.718	6.14
227.936	11.74
228.155	26.16
228.374	24.91
228.593	20.36
228.812	1.11
229.031	-14.85
229.25	-0.36
229.469	-7.77
229.688	-33.84
229.907	-68.66
230.125	-42.12
230.344	-61.27
230.563	-32.28
230.782	-10.49
231.001	23.83
231.22	19.56
231.438	10.82
231.657	-8.16
231.876	2.77
232.095	-4.23
232.313	-3.6
232.532	-8.52
232.751	30.8
232.969	23.08
233.188	30.63
233.407	31.95
233.625	30.2
233.844	8.73
234.063	11.79
234.281	12.8
234.5	12.32
234.719	2.03
234.937	20.9
235.156	2.88
235.374	8.67
235.593	18.97
235.811	17.27
236.03	20.29
236.249	37.9
236.467	29.91
236.686	21.44
236.904	29.3
237.123	10.2
237.341	21.9
237.559	30.06
237.778	27.07
237.996	15.79
238.215	21.49
238.433	14.38
238.652	16.57
238.87	23.64
239.088	30.74
239.307	36.03
239.525	31.51
239.743	32.3
239.962	23.78
240.18	37.07
240.398	42.87
240.617	40.58
240.835	24.65
241.053	17.56
241.271	-16.93
241.49	-46.36
241.708	-30.14
241.926	-15.42
242.144	2.88
242.363	15.36
242.581	24.61
242.799	20.04
243.017	18.22
243.235	28.27
243.453	28.48
243.672	33.53
243.89	33.17
244.108	38.58
244.326	8.37
244.544	10.89
244.762	13.73
244.98	1.48
245.198	17.26
245.416	33.22
245.634	22.7
245.852	12.38
246.07	12.56
246.288	-14.13
246.506	0.82
246.724	-3.44
246.942	-5.7
247.16	-1.26
247.378	0.86
247.596	0.93
247.814	5.51
248.032	-0.22
248.25	4.37
248.468	18.62
248.685	22.14
248.903	12.78
249.121	13.88
249.339	10.04
249.557	15.12
249.775	-2.53
249.992	12.72
250.21	24.21
250.428	10.05
250.646	-18.41
250.863	-13.15
251.081	-39.53
251.299	-43.82
251.517	-9.39
251.734	-4.6
251.952	4.49
252.17	23.08
252.387	1.98
252.605	-10.88
252.823	2.5
253.04	1.62
253.258	12.68
253.475	26.39
253.693	18.49
253.911	33.49
254.128	33.88
254.346	37.93
254.563	29.86
254.781	49.56
254.998	10.83
255.216	5.58
255.433	-2.45
255.651	5.06
255.868	-18
256.086	-13.64
256.303	-8.5
256.521	0.48
256.738	-10.46
256.956	-2.42
257.173	8.33
257.39	9.46
257.608	-6.36
257.825	-20.5
258.043	-37.31
258.26	-26.85
258.477	-11.49
258.695	1.21
258.912	-1.44
259.129	11.54
259.346	6.63
259.564	11.95
259.781	22.86
259.998	38.35
260.216	43.46
260.433	45.93
260.65	32.64
260.867	17.86
261.084	11.9
261.302	-10.9
261.519	3.26
261.736	7.12
261.953	24.2
262.17	24.78
262.387	19.76
262.604	24.17
262.822	6.62
263.039	-0.07
263.256	5.78
263.473	21.24
263.69	14.26
263.907	27.31
264.124	15.11
264.341	7.57
264.558	-9.16
264.775	-6.86
264.992	-13.09
265.209	-4.38
265.426	-7.44
265.643	6.41
265.86	3.79
266.077	10.63
266.294	13.73
266.51	21.29
266.727	27.19
266.944	35.71
267.161	41.56
267.378	36.47
267.595	28.72
267.812	22.98
268.028	13.74
268.245	16.16
268.462	35.23
268.679	28.83
268.896	25.42
269.112	24
269.329	12.27
269.546	-40.88
269.763	-17.04
269.979	-16.79
270.196	5.26
270.413	23.4
270.629	28.81
270.846	25.35
271.063	15.32
271.279	1.74
271.496	-5.3
271.712	7.45
271.929	18.66
272.146	51.61
272.362	55.22
272.579	47.11
272.795	43.4
273.012	38
273.228	23.45
273.445	11.83
273.661	25.37
273.878	12.26
274.094	-7.43
274.311	-33.76
274.527	-27.98
274.744	-30.96
274.96	-13.5
275.177	-10.28
275.393	0.1
275.609	10.64
275.826	0.71
276.042	-15.35
276.259	-22.7
276.475	-35
276.691	-42.89
276.908	-28.69
277.124	-11.12
277.34	2.51
277.557	-8.16
277.773	6.51
277.989	12.64
278.205	-0.86
278.422	1.33
278.638	17.01
278.854	-0.19
279.07	-1.91
279.286	17.96
279.503	28.39
279.719	35.71
279.935	47.02
280.151	48.03
280.367	35.7
280.583	7.17
280.799	7.06
281.016	22.26
281.232	-1.05
281.448	0.12
281.664	18.86
281.88	11.2
282.096	3.05
282.312	-3.69
282.528	-13.2
282.744	-18.35
282.96	-18.18
283.176	-3.99
283.392	9
283.608	17.99
283.824	18.64
284.04	20.59
284.256	17.9
284.471	11.11
284.687	16.01
284.903	19.12
285.119	18.89
285.335	11.98
285.551	26.82
285.767	23.35
285.982	16.37
286.198	16.71
286.414	20.28
286.63	17.63
286.846	9.59
287.061	15.45
287.277	13.3
287.493	16.42
287.709	6.43
287.924	12.61
288.14	11.95
288.356	5.75
288.571	6.46
288.787	7.51
289.003	8.34
289.218	-8.15
289.434	8.4
289.65	13.31
289.865	11.41
290.081	-4.99
290.296	11.11
290.512	6.46
290.727	-9.58
290.943	7.04
291.159	28.84
291.374	27.66
291.59	32.49
291.805	30.54
292.021	38.23
292.236	40.13
292.451	31.91
292.667	38.04
292.882	31.59
293.098	10.52
293.313	-1
293.529	3.22
293.744	-8.72
293.959	11.8
294.175	19.44
294.39	23.67
294.605	29.45
294.821	11.38
295.036	7.63
295.251	18.02
295.467	13.34
295.682	22.06
295.897	25.13
296.112	29.51
296.328	-0.98
296.543	14.47
296.758	-6.83
296.973	6.73
297.188	0.65
297.404	24.91
297.619	0.26
297.834	-1.9
298.049	-9.65
298.264	-3.96
298.479	-17.12
298.694	-8.65
298.909	0.82
299.125	6.97
299.34	-12.17
299.555	9.32
299.77	-15.37
299.985	-4.97
300.2	2.65
300.415	7.69
300.63	10.37
300.845	24.44
301.06	13.44
301.275	1.33
301.49	8.71
301.704	-1.19
301.919	8.2
302.134	21.78
302.349	38.66
302.564	53.56
302.779	40.31
302.994	38.31
303.209	37.58
303.423	24.95
303.638	16.09
303.853	26.67
304.068	20.46
304.283	24.27
304.497	32.68
304.712	41.92
304.927	34.34
305.142	33.82
305.356	24.36
305.571	8.25
305.786	5.44
306	20.08
306.215	20.7
306.43	27.99
306.644	36.7
306.859	28.31
307.074	24.57
307.288	33.86
307.503	33.82
307.717	25.09
307.932	21.03
308.147	10.31
308.361	13.96
308.576	0.12
308.79	23.28
309.005	30.54
309.219	22.63
309.434	3.63
309.648	11.94
309.863	-18.71
310.077	-29.31
310.292	-3.77
310.506	16.72
310.72	18.78
310.935	23.39
311.149	19.73
311.364	11.49
311.578	-10.48
311.792	-0.25
312.007	-7.13
312.221	-6.19
312.435	-10.3
312.649	16.33
312.864	2.09
313.078	10.59
313.292	14.83
313.507	18.14
313.721	-7.37
313.935	0.26
314.149	3.58
314.363	-2.77
314.578	-7.29
314.792	-1.43
315.006	-20.65
315.22	-18.26
315.434	-9.03
315.648	-21.71
315.862	9.45
316.077	12.76
316.291	6.8
316.505	7.73
316.719	17.73
316.933	17.63
317.147	14.38
317.361	19.4
317.575	19.3
317.789	20.38
318.003	26.03
318.217	31.24
318.431	42.56
318.645	26.16
318.859	21.29
319.073	7.95
319.287	12.09
319.5	15.54
319.714	36.9
319.928	41.97
320.142	34.9
320.356	35.52
320.57	31.32
320.784	29.59
320.997	32.16
321.211	48.32
321.425	39.57
321.639	27.85
321.853	7.86
322.066	3.06
322.28	-15.42
322.494	-9.9
322.707	-14.4
322.921	4.41
323.135	-0.07
323.349	-5.54
323.562	14.35
323.776	28.67
323.989	24.79
324.203	26.61
324.417	40.75
324.63	37.5
324.844	24.76
325.057	20.22
325.271	8.12
325.485	-2.22
325.698	-30.77
325.912	-25.13
326.125	-23.55
326.339	-27.06
326.552	-32.74
326.766	-2.42
326.979	13.17
327.193	22.23
327.406	29.18
327.619	33.43
327.833	19.25
328.046	18.05
328.26	4.3
328.473	9.08
328.686	18.72
328.9	15.69
329.113	16.49
329.326	35.61
329.54	25.55
329.753	18.34
329.966	32.79
330.179	19.03
330.393	22.47
330.606	36.38
330.819	44.14
331.032	41.98
331.246	50.64
331.459	34.36
331.672	15.38
331.885	4.32
332.098	-11.93
332.311	-1.65
332.525	5.37
332.738	22.15
332.951	28.57
333.164	28.07
333.377	21.56
333.59	18.4
333.803	21.94
334.016	12.4
334.229	28.14
334.442	19.32
334.655	7.24
334.868	-16.69
335.081	-12.02
335.294	-34.17
335.507	-13.81
335.72	-16.57
335.933	-4.28
336.146	12.72
336.359	24.4
336.572	12.5
336.785	23.54
336.997	31.44
337.21	16.33
337.423	17.08
337.636	34.09
337.849	34.85
338.062	32.86
338.274	26.45
338.487	27.43
338.7	20.92
338.913	24.84
339.125	19.24
339.338	11.48
339.551	-1.76
339.763	-5.09
339.976	-8
340.189	-8.29
340.402	6.55
340.614	12.81
340.827	17.68
341.039	19.79
341.252	27.44
341.465	22.8
341.677	20.97
341.89	18.45
342.102	17.78
342.315	18.48
342.527	12.92
342.74	15.42
342.952	10.28
343.165	25.37
343.377	9.18
343.59	17.88
343.802	15.26
344.015	20.88
344.227	-0.39
344.44	15.85
344.652	9.93
344.864	3.83
345.077	1.7
345.289	-0.95
345.502	-21.75
345.714	-17.11
345.926	8.67
346.139	0.73
346.351	10.7
346.563	14.92
346.775	29.24
346.988	14.8
347.2	22.52
347.412	19.76
347.624	16.58
347.837	0.81
348.049	13.92
348.261	2.56
348.473	-4.25
348.685	8.11
348.897	5.72
349.11	3.01
349.322	2.77
349.534	4.58
349.746	-6.45
349.958	-4.78
350.17	-2.35
350.382	-1.8
350.594	1.75
350.806	5.37
351.018	9.37
351.23	-3.03
351.442	-0.6
351.654	-24.64
351.866	-7.45
352.078	-20.89
352.29	-9.02
352.502	-17.22
352.714	5.68
352.926	-11.52
353.138	-14.08
353.35	-6.06
353.561	9.81
353.773	14.04
353.985	16.46
354.197	26.9
354.409	30.22
354.621	27.28
354.832	22.61
355.044	23.62
355.256	22.34
355.468	10.06
355.679	10.38
355.891	18.17
356.103	22.27
356.314	16.86
356.526	14.66
356.738	26.63
356.949	16.42
357.161	2.72
357.373	12.41
357.584	36.74
357.796	31.76
358.008	29
358.219	31.02
358.431	32.25
358.642	13.98
358.854	1.84
359.065	10.02
359.277	21.92
359.488	6.39
359.7	4.04
359.911	-2.92
360.123	7.4
360.334	-3.39
360.546	9
360.757	10.91
360.969	25.77
361.18	22.29
361.391	28.75
361.603	25.36
361.814	16.28
362.025	16.81
362.237	16.71
362.448	12.78
362.659	3.88
362.871	14.54
363.082	7.59
363.293	-6.25
363.504	-6.41
363.716	20.73
363.927	21.12
364.138	28.69
364.349	39.71
364.56	43.35
364.772	37.57
364.983	36.57
365.194	34.59
365.405	25.06
365.616	26.76
365.827	25.53
366.038	20.52
366.25	9.48
366.461	20.48
366.672	9.75
366.883	5.49
367.094	11.3
367.305	21.63
367.516	11.38
367.727	11.3
367.938	16.32
368.149	7.79
368.36	-7.66
368.571	5.99
368.781	10.18
368.992	5.5
369.203	6.62
369.414	26.39
369.625	7.49
369.836	7.88
370.047	-4.58
370.258	-10
370.468	-23.77
370.679	2.24
370.89	3.34
371.101	15.23
371.312	25.19
371.522	27.9
371.733	25.61
371.944	23.23
372.155	31.23
372.365	22.43
372.576	35.15
372.787	24.3
372.997	25.35
373.208	21.21
373.419	22.15
373.629	0.92
373.84	4.88
374.05	-2.35
374.261	-5.3
374.472	-0.89
374.682	0.69
374.893	-2.37
375.103	-1.26
375.314	-0.94
375.524	1.04
375.735	6.32
375.945	10.49
376.156	15.67
376.366	18.15
376.577	19.32
376.787	20.92
376.997	15.72
377.208	18.41
377.418	14.54
377.629	18.8
377.839	11.02
378.049	19.54
378.26	15.66
378.47	22.08
378.68	10.3
378.89	26.29
379.101	21.89
379.311	19.34
379.521	24.09
379.732	32.2
379.942	25.52
380.152	26.15
380.362	28.32
380.572	24.95
380.783	27.84
380.993	19.85
381.203	19.8
381.413	15.29
381.623	10.58
381.833	3.05
382.043	9.12
382.253	4.82
382.463	12.49
382.674	14.33
382.884	17.4
383.094	16.77
383.304	22.15
383.514	12.52
383.724	7.51
383.934	7.21
384.144	5.3
384.353	0.58
384.563	3.67
384.773	0.25
384.983	-1.55
385.193	5.36
385.403	9.82
385.613	9.84
385.823	14.51
386.033	11.33
386.242	12.07
386.452	6.26
386.662	6.41
386.872	7.58
387.082	5.74
387.291	0.17
387.501	3.25
387.711	3.93
387.921	4.56
388.13	6.72
388.34	5.42
388.55	7.68
388.759	4.62
388.969	1.91
389.179	2.15
389.388	2.43
389.598	1.45
389.807	3.49
390.017	3.68
390.227	2.67
390.436	3.62
390.646	1.49
390.855	-0.37
391.065	-0.36
391.274	0.82
391.484	2.95
391.693	3.77
391.903	4.78
392.112	5.28
392.322	4.81
392.531	3.31
392.74	3.48
392.95	4.33
393.159	2.24
393.369	2.55
393.578	1.9
393.787	2.9
393.997	2.59
394.206	4.08
394.415	4.09
394.625	4.73
394.834	3.9
395.043	3.63
395.252	4.31
395.462	3.94
395.671	3.36
395.88	3.34
396.089	3.26
396.298	2.24
396.508	2.72
396.717	3.48
396.926	3.15
397.135	3.05
397.344	3.4
397.553	2.75
397.762	1.95
397.971	1.76
398.181	1.96
398.39	2.05
398.599	2.29
398.808	2.71
399.017	2.71
399.226	2.13
399.435	1.81
399.644	1.7
399.853	1.63
400.062	1.71
400.27	2.17
400.479	2.41
400.688	2.41
400.897	2.66
401.106	2.64
401.315	2.49
401.524	2.48
401.733	2.34
401.941	1.93
402.15	2.05
402.359	2.15
402.568	2.15
402.777	2.17
402.985	2.33
403.194	2.3
403.403	2.24
403.612	2.05
403.82	2.05
404.029	1.96
404.238	2.12
404.446	2.05
404.655	2.12
404.864	2.13
405.072	2.23
405.281	2.1
405.489	2.19
405.698	2.26
405.906	2.36
406.115	2.26
406.324	2.24
406.532	2.27
406.741	2.22
406.949	2.05
407.158	2.25
407.366	2.32
407.574	2.21
407.783	2.34
407.991	2.42
408.2	2.21
408.408	2.08
408.617	2.16
408.825	2.08
409.033	2.09
409.242	2.16
409.45	2.09
409.658	2.14
409.867	2.08
410.075	2.04
410.283	1.97
410.491	2.04
410.7	1.88
410.908	1.85
411.116	1.88
411.324	1.99
411.533	1.95
411.741	2.01
411.949	1.89
412.157	1.89
412.365	1.83
412.573	1.89
412.781	1.86
412.99	1.99
413.198	1.97
413.406	1.95
413.614	1.99
413.822	2
414.03	2.01
414.238	2.01
414.446	1.97
414.654	1.97
414.862	2.11
415.07	1.98
415.278	1.89
415.486	1.93
415.694	1.92
415.902	1.7
416.109	1.77
416.317	1.93
416.525	1.77
416.733	1.79
416.941	1.94
417.149	2.03
417.357	1.93
417.564	2.12
417.772	2.01
417.98	2.09
418.188	2.19
418.395	2.22
418.603	2.22
418.811	2.29
419.019	2.02
419.226	2.03
419.434	1.91
419.642	1.93
419.849	1.91
420.057	2.03
420.265	1.79
420.472	1.93
420.68	1.85
420.887	1.75
421.095	1.62
421.302	1.75
421.51	1.64
421.717	1.57
421.925	1.63
422.132	1.67
422.34	1.62
422.547	1.73
422.755	1.86
422.962	2.01
423.17	2.04
423.377	1.97
423.585	1.85
423.792	1.73
423.999	1.48
424.207	1.59
424.414	1.54
424.621	1.55
424.829	1.67
425.036	1.85
425.243	1.66
425.451	1.65
425.658	1.67
425.865	1.53
426.072	1.39
426.28	1.43
426.487	1.6
426.694	1.55
426.901	1.61
427.108	1.65
427.315	1.89
427.523	1.81
427.73	1.82
427.937	1.82
428.144	1.8
428.351	1.65
428.558	1.55
428.765	1.62
428.972	1.74
429.179	1.71
429.386	1.71
429.593	1.77
429.8	1.84
430.007	1.65
430.214	1.75
430.421	1.82
430.628	1.81
430.835	1.76
431.042	1.89
431.249	1.87
431.456	1.92
431.662	1.99
431.869	2.15
432.076	2.07
432.283	2
432.49	1.93
432.697	1.91
432.903	1.73
433.11	1.61
433.317	1.64
433.524	1.64
433.73	1.72
433.937	1.61
434.144	1.77
434.35	1.75
434.557	1.83
434.764	1.86
434.97	2.06
435.177	2.01
435.384	2
435.59	1.93
435.797	1.73
436.003	1.64
436.21	1.69
436.416	1.81
436.623	1.71
436.829	1.81
437.036	1.9
437.242	1.96
437.449	1.79
437.655	1.82
437.862	1.76
438.068	1.63
438.275	1.65
438.481	1.66
438.687	1.8
438.894	2.01
439.1	2.06
439.307	1.9
439.513	1.91
439.719	1.85
439.926	1.65
440.132	1.75
440.338	1.91
440.544	1.95
440.751	1.9
440.957	1.99
441.163	1.95
441.369	1.89
441.575	1.87
441.782	1.97
441.988	2.05
442.194	2.05
442.4	2.14
442.606	2.19
442.812	2.19
443.018	2.17
443.224	2.13
443.431	2.04
443.637	2.11
443.843	2.06
444.049	2.05
444.255	2.23
444.461	2.43
444.667	2.37
444.873	2.35
445.079	2.28
445.284	2.26
445.49	2.13
445.696	2.22
445.902	2.17
446.108	2.26
446.314	2.18
446.52	2.37
446.726	2.36
446.931	2.45
447.137	2.4
447.343	2.38
447.549	2.23
447.755	2.2
447.96	2.12
448.166	2.13
448.372	2.05
448.578	2.03
448.783	2
448.989	2.14
449.195	2.2
449.4	2.28
449.606	2.23
449.812	2.22
450.017	2.15
450.223	2.14
450.428	2.22
450.634	2.37
450.84	2.39
451.045	2.51
451.251	2.48
451.456	2.45
451.662	2.21
451.867	2.16
452.073	2.09
452.278	2
452.483	1.96
452.689	2.08
452.894	2.17
453.1	2.17
453.305	2.29
453.51	2.32
453.716	2.4
453.921	2.39
454.127	2.37
454.332	2.37
454.537	2.35
454.742	2.27
454.948	2.22
455.153	2.31
455.358	2.25
455.563	2.21
455.769	2.26
455.974	2.26
456.179	2.25
456.384	2.25
456.589	2.37
456.795	2.28
457	2.35
457.205	2.25
457.41	2.21
457.615	2.17
457.82	2.23
458.025	2.23
458.23	2.28
458.435	2.29
458.64	2.23
458.845	2.25
459.05	2.21
459.255	2.25
459.46	2.25
459.665	2.23
459.87	2.23
460.075	2.15
460.28	2.14
460.485	2.18
460.69	2.17
460.895	2.21
461.099	2.23
461.304	2.21
461.509	2.18
461.714	2.29
461.919	2.24
462.123	2.31
462.328	2.37
462.533	2.46
462.738	2.49
462.942	2.46
463.147	2.49
463.352	2.35
463.556	2.32
463.761	2.23
463.966	2.23
464.17	2.22
464.375	2.29
464.58	2.25
464.784	2.17
464.989	2.22
465.193	2.19
465.398	2.16
465.602	2.14
465.807	2.36
466.011	2.36
466.216	2.35
466.42	2.41
466.625	2.58
466.829	2.43
467.034	2.48
467.238	2.47
467.443	2.46
467.647	2.45
467.851	2.52
468.056	2.48
468.26	2.57
468.464	2.6
468.669	2.51
468.873	2.46
469.077	2.45
469.282	2.49
469.486	2.47
469.69	2.41
469.894	2.38
470.099	2.38
470.303	2.26
470.507	2.3
470.711	2.43
470.915	2.55
471.119	2.68
471.324	2.82
471.528	2.77
471.732	2.7
471.936	2.67
472.14	2.55
472.344	2.48
472.548	2.51
472.752	2.52
472.956	2.48
473.16	2.5
473.364	2.58
473.568	2.65
473.772	2.69
473.976	2.78
474.18	2.85
474.384	2.81
474.588	2.74
474.792	2.78
474.995	2.68
475.199	2.61
475.403	2.66
475.607	2.74
475.811	2.67
476.015	2.72
476.218	2.68
476.422	2.67
476.626	2.65
476.83	2.66
477.033	2.73
477.237	2.78
477.441	2.75
477.644	2.74
477.848	2.77
478.052	2.78
478.255	2.83
478.459	2.87
478.663	2.92
478.866	2.95
479.07	2.87
479.273	2.9
479.477	2.85
479.681	2.81
479.884	2.77
480.088	2.78
480.291	2.8
480.495	2.81
480.698	2.83
480.901	2.89
481.105	2.9
481.308	2.83
481.512	2.9
481.715	2.87
481.919	2.82
482.122	2.82
482.325	2.87
482.529	2.86
482.732	2.91
482.935	2.9
483.138	2.93
483.342	2.9
483.545	2.87
483.748	2.77
483.952	2.87
484.155	2.85
484.358	2.86
484.561	2.91
484.764	2.97
484.967	2.92
485.171	2.96
485.374	2.99
485.577	2.93
485.78	2.96
485.983	2.93
486.186	2.94
486.389	2.91
486.592	2.94
486.795	2.92
486.998	2.94
487.201	2.96
487.404	2.96
487.607	2.98
487.81	3
488.013	3
488.216	2.91
488.419	2.88
488.622	2.85
488.825	2.84
489.028	2.87
489.231	2.89
489.433	2.93
489.636	2.97
489.839	2.92
490.042	2.95
490.245	3.08
490.447	3.03
490.65	2.97
490.853	3.03
491.056	3
491.258	2.92
491.461	2.97
491.664	2.96
491.866	2.96
492.069	2.92
492.272	2.89
492.474	2.89
492.677	2.95
492.879	2.97
493.082	2.98
493.285	2.96
493.487	3.02
493.69	3.02
493.892	3.01
494.095	3.03
494.297	3.07
494.5	3
494.702	2.97
494.905	2.96
495.107	2.98
495.309	2.99
495.512	3.04
495.714	3.07
495.917	3.13
496.119	3.14
496.321	3.1
496.524	3.14
496.726	3.17
496.928	3.15
497.13	3.14
497.333	3.16
497.535	3.16
497.737	3.13
497.939	3.15
498.142	3.19
498.344	3.17
498.546	3.15
498.748	3.13
498.95	3.11
499.152	3.1
499.355	3.18
499.557	3.14
499.759	3.1
499.961	3.08
500.163	3.07
500.365	3.08
500.567	3.09
500.769	3.18
500.971	3.24
501.173	3.26
501.375	3.2
501.577	3.21
501.779	3.26
501.981	3.24
502.183	3.25
502.385	3.3
502.587	3.34
502.788	3.26
502.99	3.28
503.192	3.34
503.394	3.34
503.596	3.34
503.798	3.41
503.999	3.45
504.201	3.41
504.403	3.41
504.605	3.43
504.806	3.53
505.008	3.56
505.21	3.53
505.411	3.58
505.613	3.57
505.815	3.51
506.016	3.5
506.218	3.59
506.42	3.59
506.621	3.58
506.823	3.59
507.024	3.59
507.226	3.6
507.427	3.64
507.629	3.71
507.83	3.71
508.032	3.69
508.233	3.69
508.435	3.66
508.636	3.58
508.838	3.55
509.039	3.58
509.24	3.57
509.442	3.61
509.643	3.68
509.845	3.74
510.046	3.78
510.247	3.78
510.448	3.71
510.65	3.76
510.851	3.73
511.052	3.7
511.254	3.75
511.455	3.84
511.656	3.77
511.857	3.76
512.058	3.78
512.26	3.76
512.461	3.77
512.662	3.84
512.863	3.93
513.064	4
513.265	3.98
513.466	3.97
513.667	3.94
513.868	3.89
514.069	3.81
514.27	3.86
514.471	3.87
514.672	3.9
514.873	3.88
515.074	3.97
515.275	3.96
515.476	3.98
515.677	3.95
515.878	4.04
516.079	4.06
516.28	4.14
516.481	4.12
516.682	4.17
516.882	4.15
517.083	4.14
517.284	4.17
517.485	4.18
517.686	4.16
517.886	4.17
518.087	4.11
518.288	4
518.488	4.03
518.689	4.02
518.89	4.04
519.091	4.1
519.291	4.12
519.492	4.16
519.692	4.21
519.893	4.12
520.094	4.11
520.294	4.19
520.495	4.24
520.695	4.29
520.896	4.37
521.096	4.38
521.297	4.4
521.497	4.38
521.698	4.36
521.898	4.33
522.099	4.35
522.299	4.33
522.499	4.33
522.7	4.35
522.9	4.47
523.101	4.48
523.301	4.54
523.501	4.51
523.702	4.54
523.902	4.49
524.102	4.54
524.302	4.52
524.503	4.53
524.703	4.57
524.903	4.62
525.103	4.6
525.304	4.56
525.504	4.57
525.704	4.56
525.904	4.6
526.104	4.65
526.304	4.76
526.504	4.79
526.705	4.8
526.905	4.74
527.105	4.72
527.305	4.69
527.505	4.72
527.705	4.76
527.905	4.82
528.105	4.81
528.305	4.84
528.505	4.85
528.705	4.82
528.905	4.83
529.105	4.92
529.304	4.9
529.504	4.95
529.704	5.03
529.904	5.08
530.104	5.07
530.304	5.06
530.503	5.09
530.703	5.07
530.903	5.07
531.103	5.08
531.303	5.11
531.502	5.07
531.702	5.09
531.902	5.04
532.101	5.04
532.301	5.12
532.501	5.16
532.7	5.19
532.9	5.23
533.1	5.28
533.299	5.29
533.499	5.32
533.698	5.35
533.898	5.42
534.097	5.42
534.297	5.37
534.496	5.37
534.696	5.38
534.895	5.36
535.095	5.41
535.294	5.49
535.494	5.51
535.693	5.54
535.892	5.58
536.092	5.58
536.291	5.61
536.491	5.67
536.69	5.65
536.889	5.68
537.088	5.72
537.288	5.74
537.487	5.73
537.686	5.8
537.886	5.8
538.085	5.77
538.284	5.76
538.483	5.87
538.682	5.9
538.882	5.96
539.081	6.06
539.28	6.12
539.479	6.09
539.678	6.09
539.877	6.15
540.076	6.19
540.275	6.19
540.474	6.15
540.673	6.23
540.872	6.2
541.071	6.25
541.27	6.36
541.469	6.48
541.668	6.48
541.867	6.6
542.066	6.58
542.265	6.6
542.464	6.61
542.663	6.62
542.862	6.66
543.06	6.7
543.259	6.69
543.458	6.78
543.657	6.91
543.856	6.97
544.054	7
544.253	7.06
544.452	7.13
544.651	7.09
544.849	7.14
545.048	7.24
545.247	7.35
545.445	7.32
545.644	7.45
545.843	7.44
546.041	7.46
546.24	7.51
546.438	7.57
546.637	7.54
546.836	7.62
547.034	7.72
547.233	7.76
547.431	7.86
547.63	8.01
547.828	8.05
548.027	8.08
548.225	8.17
548.423	8.29
548.622	8.3
548.82	8.39
549.019	8.41
549.217	8.4
549.415	8.45
549.614	8.62
549.812	8.68
550.01	8.83
550.209	8.96
550.407	9.04
550.605	9
550.803	9.08
551.002	9.13
551.2	9.18
551.398	9.28
551.596	9.4
551.794	9.45
551.993	9.57
552.191	9.67
552.389	9.73
552.587	9.84
552.785	9.95
552.983	9.99
553.181	9.97
553.379	10.01
553.577	10.04
553.775	10.1
553.973	10.17
554.171	10.32
554.369	10.43
554.567	10.52
554.765	10.63
554.963	10.65
555.161	10.74
555.359	10.86
555.557	10.92
555.755	11
555.952	11.21
556.15	11.31
556.348	11.32
556.546	11.41
556.744	11.46
556.941	11.43
557.139	11.52
557.337	11.64
557.535	11.76
557.732	11.89
557.93	12
558.128	12.06
558.325	12.1
558.523	12.13
558.721	12.12
558.918	12.23
559.116	12.29
559.313	12.39
559.511	12.53
559.708	12.72
559.906	12.8
560.104	12.94
560.301	13.06
560.498	13.17
560.696	13.16
560.893	13.27
561.091	13.36
561.288	13.43
561.486	13.49
561.683	13.68
561.88	13.79
562.078	13.81
562.275	13.89
562.473	13.95
562.67	14
562.867	14.03
563.064	14.14
563.262	14.22
563.459	14.3
563.656	14.33
563.853	14.45
564.051	14.54
564.248	14.61
564.445	14.76
564.642	14.9
564.839	14.95
565.036	15.02
565.234	15.08
565.431	15.07
565.628	15.13
565.825	15.1
566.022	15.17
566.219	15.24
566.416	15.3
566.613	15.43
566.81	15.58
567.007	15.66
567.204	15.75
567.401	15.73
567.598	15.72
567.795	15.71
567.991	15.67
568.188	15.65
568.385	15.72
568.582	15.75
568.779	15.84
568.976	15.88
569.172	15.96
569.369	16.05
569.566	16.15
569.763	16.14
569.96	16.23
570.156	16.24
570.353	16.21
570.55	16.22
570.746	16.28
570.943	16.31
571.14	16.36
571.336	16.4
571.533	16.42
571.729	16.45
571.926	16.47
572.123	16.44
572.319	16.49
572.516	16.43
572.712	16.43
572.909	16.4
573.105	16.41
573.302	16.4
573.498	16.37
573.695	16.31
573.891	16.25
574.087	16.25
574.284	16.32
574.48	16.36
574.677	16.47
574.873	16.47
575.069	16.52
575.266	16.42
575.462	16.44
575.658	16.36
575.854	16.42
576.051	16.35
576.247	16.31
576.443	16.28
576.639	16.35
576.835	16.3
577.032	16.29
577.228	16.28
577.424	16.26
577.62	16.15
577.816	16.16
578.012	16.19
578.208	16.17
578.404	16.12
578.6	16.18
578.796	16.14
578.993	16.13
579.189	16.2
579.384	16.21
579.58	16.06
579.776	16.14
579.972	16.15
580.168	16.14
580.364	16.12
580.56	16.19
580.756	16.08
580.952	16.02
581.148	15.95
581.343	16.02
581.539	15.98
581.735	15.96
581.931	15.92
582.127	15.8
582.322	15.72
582.518	15.71
582.714	15.76
582.909	15.77
583.105	15.81
583.301	15.78
583.496	15.68
583.692	15.61
583.888	15.6
584.083	15.6
584.279	15.62
584.474	15.73
584.67	15.6
584.866	15.59
585.061	15.58
585.257	15.49
585.452	15.43
585.648	15.59
585.843	15.52
586.039	15.53
586.234	15.53
586.429	15.44
586.625	15.34
586.82	15.33
587.015	15.32
587.211	15.37
587.406	15.44
587.601	15.5
587.797	15.46
587.992	15.45
588.187	15.36
588.383	15.4
588.578	15.37
588.773	15.44
588.968	15.42
589.163	15.51
589.359	15.4
589.554	15.39
589.749	15.42
589.944	15.47
590.139	15.44
590.334	15.52
590.529	15.58
590.724	15.61
590.919	15.53
591.114	15.57
591.309	15.58
591.504	15.61
591.699	15.52
591.894	15.62
592.089	15.7
592.284	15.82
592.479	15.79
592.674	15.92
592.869	15.97
593.064	15.94
593.259	15.89
593.454	15.91
593.648	15.91
593.843	15.95
594.038	16.02
594.233	16.07
594.428	16.22
594.622	16.32
594.817	16.41
595.012	16.48
595.206	16.62
595.401	16.66
595.596	16.66
595.79	16.66
595.985	16.69
596.18	16.75
596.374	16.87
596.569	16.99
596.763	17.17
596.958	17.21
597.153	17.28
597.347	17.25
597.542	17.22
597.736	17.29
597.931	17.42
598.125	17.45
598.319	17.6
598.514	17.68
598.708	17.68
598.903	17.7
599.097	17.72
599.291	17.68
599.486	17.76
599.68	17.77
599.874	17.78
600.069	17.84
600.263	17.94
600.457	18
600.651	18.02
600.846	18.11
601.04	18.02
601.234	18.03
601.428	17.99
601.622	18.15
601.817	18.14
602.011	18.31
602.205	18.33
602.399	18.38
602.593	18.34
602.787	18.36
602.981	18.37
603.175	18.38
603.369	18.41
603.563	18.38
603.757	18.38
603.951	18.41
604.145	18.4
604.339	18.33
604.533	18.34
604.727	18.38
604.921	18.24
605.115	18.24
605.309	18.27
605.502	18.29
605.696	18.21
605.89	18.24
606.084	18.2
606.278	18.17
606.471	18.12
606.665	18
606.859	17.9
607.053	17.82
607.246	17.71
607.44	17.6
607.634	17.65
607.827	17.67
608.021	17.62
608.214	17.69
608.408	17.68
608.602	17.66
608.795	17.61
608.989	17.54
609.182	17.33
609.376	17.17
609.569	17.06
609.763	16.95
609.956	16.92
610.15	16.89
610.343	16.86
610.537	16.82
610.73	16.81
610.923	16.83
611.117	16.88
611.31	16.74
611.504	16.68
611.697	16.68
611.89	16.53
612.083	16.44
612.277	16.49
612.47	16.43
612.663	16.31
612.856	16.27
613.05	16.17
613.243	16.02
613.436	15.87
613.629	15.74
613.822	15.66
614.015	15.58
614.209	15.6
614.402	15.6
614.595	15.63
614.788	15.52
614.981	15.57
615.174	15.51
615.367	15.44
615.56	15.32
615.753	15.33
615.946	15.22
616.139	15.12
616.332	15.17
616.525	15.16
616.718	15.15
616.911	15.13
617.103	15.16
617.296	15.1
617.489	15.07
617.682	14.97
617.875	14.82
618.067	14.71
618.26	14.6
618.453	14.53
618.646	14.51
618.838	14.56
619.031	14.52
619.224	14.54
619.417	14.62
619.609	14.62
619.802	14.6
619.994	14.52
620.187	14.42
620.38	14.35
620.572	14.26
620.765	14.12
620.957	14.19
621.15	14.23
621.342	14.13
621.535	14.07
621.727	14.01
621.92	13.96
622.112	13.9
622.305	13.83
622.497	13.9
622.69	13.96
622.882	13.88
623.074	13.83
623.267	13.85
623.459	13.76
623.651	13.74
623.844	13.77
624.036	13.84
624.228	13.85
624.42	13.83
624.613	13.79
624.805	13.74
624.997	13.6
625.189	13.57
625.381	13.59
625.574	13.57
625.766	13.53
625.958	13.59
626.15	13.55
626.342	13.51
626.534	13.46
626.726	13.42
626.918	13.35
627.11	13.38
627.302	13.33
627.494	13.35
627.686	13.29
627.878	13.31
628.07	13.2
628.262	13.14
628.454	13.1
628.646	13.17
628.838	13.09
629.029	13.13
629.221	13.18
629.413	13.11
629.605	13.03
629.797	13
629.989	12.9
630.18	12.79
630.372	12.76
630.564	12.81
630.755	12.79
630.947	12.75
631.139	12.8
631.33	12.77
631.522	12.66
631.714	12.62
631.905	12.66
632.097	12.52
632.289	12.58
632.48	12.61
632.672	12.55
632.863	12.49
633.055	12.46
633.246	12.42
633.438	12.3
633.629	12.31
633.821	12.22
634.012	12.22
634.203	12.2
634.395	12.24
634.586	12.24
634.777	12.25
634.969	12.32
635.16	12.35
635.351	12.38
635.543	12.43
635.734	12.44
635.925	12.44
636.117	12.34
636.308	12.22
636.499	12.1
636.69	12.11
636.881	12.13
637.073	12.12
637.264	12.18
637.455	12.25
637.646	12.25
637.837	12.19
638.028	12.21
638.219	12.15
638.41	12.12
638.601	12.03
638.792	12.09
638.983	12.06
639.174	12.13
639.365	12.06
639.556	12.15
639.747	12.05
639.938	12.05
640.129	12.01
640.32	12.08
640.511	11.96
640.701	11.98
640.892	11.96
641.083	11.89
641.274	11.82
641.465	11.83
641.655	11.79
641.846	11.79
642.037	11.78
642.228	11.66
642.418	11.66
642.609	11.54
642.8	11.51
642.99	11.51
643.181	11.58
643.372	11.51
643.562	11.5
643.753	11.38
643.943	11.27
644.134	11.22
644.324	11.23
644.515	11.32
644.705	11.34
644.896	11.36
645.086	11.35
645.277	11.3
645.467	11.24
645.658	11.35
645.848	11.31
646.038	11.32
646.229	11.35
646.419	11.28
646.61	11.21
646.8	11.27
646.99	11.19
647.18	11.14
647.371	11.2
647.561	11.22
647.751	11.19
647.941	11.31
648.132	11.35
648.322	11.31
648.512	11.32
648.702	11.3
648.892	11.18
649.082	11.14
649.272	11.08
649.462	10.97
649.653	10.91
649.843	10.95
650.033	10.97
650.223	10.92
650.413	10.96
650.603	11.02
650.793	10.96
650.983	11
651.172	10.98
651.362	10.84
651.552	10.82
651.742	10.8
651.932	10.72
652.122	10.76
652.312	10.77
652.502	10.62
652.691	10.54
652.881	10.44
653.071	10.36
653.261	10.23
653.45	10.11
653.64	10.09
653.83	10.06
654.019	9.97
654.209	9.95
654.399	9.95
654.588	9.88
654.778	9.71
654.968	9.59
655.157	9.61
655.347	9.42
655.536	9.31
655.726	9.23
655.915	9.11
656.105	8.85
656.294	8.88
656.484	8.7
656.673	8.63
656.863	8.59
657.052	8.54
657.241	8.52
657.431	8.54
657.62	8.36
657.809	8.22
657.999	8.11
658.188	7.86
658.377	7.74
658.567	7.69
658.756	7.6
658.945	7.46
659.134	7.43
659.324	7.31
659.513	7.2
659.702	7.1
659.891	7.1
660.08	6.83
660.269	6.69
660.458	6.53
660.648	6.4
660.837	6.24
661.026	6.16
661.215	6.12
661.404	6.04
661.593	5.92
661.782	5.79
661.971	5.77
662.16	5.65
662.349	5.46
662.538	5.38
662.726	5.36
662.915	5.37
663.104	5.25
663.293	5.27
663.482	5.22
663.671	5.1
663.86	4.86
664.048	4.82
664.237	4.7
664.426	4.62
664.615	4.54
664.803	4.46
664.992	4.43
665.181	4.48
665.369	4.42
665.558	4.42
665.747	4.42
665.935	4.28
666.124	4.2
666.312	4.23
666.501	4.23
666.69	4.22
666.878	4.27
667.067	4.22
667.255	4.19
667.444	3.99
667.632	4.01
667.82	3.95
668.009	3.99
668.197	4.06
668.386	4.19
668.574	4.08
668.762	4.06
668.951	3.94
669.139	3.89
669.327	3.91
669.516	4
669.704	4.04
669.892	4.11
670.08	4.03
670.269	3.92
670.457	3.85
670.645	3.79
670.833	3.71
671.021	3.64
671.21	3.77
671.398	3.78
671.586	3.79
671.774	3.84
671.962	3.96
672.15	4.03
672.338	4.18
672.526	4.39
672.714	4.42
672.902	4.37
673.09	4.25
673.278	4.14
673.466	4.03
673.654	4.07
673.842	4.25
674.03	4.43
674.218	4.56
674.405	4.63
674.593	4.72
674.781	4.56
674.969	4.49
675.157	4.46
675.344	4.47
675.532	4.37
675.72	4.46
675.908	4.48
676.095	4.58
676.283	4.64
676.471	4.66
676.658	4.76
676.846	4.87
677.033	4.82
677.221	4.86
677.409	4.98
677.596	5.04
677.784	4.95
677.971	5.06
678.159	5.18
678.346	5.27
678.534	5.4
678.721	5.47
678.909	5.46
679.096	5.45
679.283	5.43
679.471	5.42
679.658	5.61
679.846	5.58
680.033	5.64
680.22	5.7
680.408	5.72
680.595	5.72
680.782	5.91
680.969	5.91
681.157	6.02
681.344	6.03
681.531	6.16
681.718	6.2
681.905	6.35
682.093	6.35
682.28	6.45
682.467	6.4
682.654	6.45
682.841	6.62
683.028	6.72
683.215	6.9
683.402	7.02
683.589	7.19
683.776	7.29
683.963	7.4
684.15	7.34
684.337	7.52
684.524	7.75
684.711	7.71
684.898	7.82
685.085	8.02
685.271	8.14
685.458	8.14
685.645	8.46
685.832	8.7
686.019	9.07
686.205	9.34
686.392	9.62
686.579	9.8
686.766	10
686.952	10.15
687.139	10.41
687.326	10.69
687.512	10.93
687.699	11.14
687.886	11.29
688.072	11.48
688.259	11.74
688.445	12.1
688.632	12.62
688.818	13.11
689.005	13.59
689.191	14.01
689.378	14.35
689.564	14.54
689.751	14.94
689.937	15.18
690.124	15.5
690.31	15.86
690.496	16.36
690.683	16.77
690.869	17.16
691.055	17.66
691.242	18.07
691.428	18.59
691.614	18.82
691.8	19.4
691.987	19.92
692.173	20.4
692.359	20.95
692.545	21.79
692.731	22.31
692.918	22.66
693.104	23.05
693.29	23.4
693.476	23.56
693.662	24.06
693.848	24.84
694.034	25.62
694.22	26.35
694.406	27.03
694.592	27.8
694.778	28.2
694.964	28.73
695.15	29.41
695.336	30.1
695.522	30.2
695.708	30.85
695.894	31.32
696.08	31.7
696.265	32.1
696.451	33.05
696.637	33.71
696.823	34.37
697.009	35.04
697.194	35.76
697.38	36.33
697.566	36.86
697.751	37.48
697.937	38.01
698.123	38.71
698.308	39.14
698.494	39.58
698.68	40.13
698.865	40.67
699.051	40.95
699.236	41.41
699.422	41.91
699.607	42.23
699.793	42.39
699.978	42.92
700.164	43.68
700.349	44.37
700.535	45.03
700.72	45.55
700.906	46.2
701.091	46.64
701.276	46.99
701.462	47.17
701.647	48
701.832	48.45
702.018	48.77
702.203	49.24
702.388	50.15
702.573	50.44
702.759	50.85
702.944	51.27
703.129	51.35
703.314	51.38
703.499	51.78
703.684	52.09
703.87	52.24
704.055	52.62
704.24	53.24
704.425	53.39
704.61	53.7
704.795	53.99
704.98	54.47
705.165	54.69
705.35	55.29
705.535	55.33
705.72	55.54
705.905	55.75
706.09	55.96
706.275	56.14
706.459	56.7
706.644	57.47
706.829	57.84
707.014	57.74
707.199	57.97
707.384	58.05
707.568	58.08
707.753	58.33
707.938	58.88
708.123	58.85
708.307	59.24
708.492	59.5
708.677	59.54
708.861	59.99
709.046	60.39
709.231	60.48
709.415	60.58
709.6	60.93
709.784	60.91
709.969	60.81
710.153	61.12
710.338	61.39
710.522	61.77
710.707	62.06
710.891	62.43
711.076	62.49
711.26	62.48
711.445	62.3
711.629	62.51
711.813	62.7
711.998	62.51
712.182	62.7
712.366	63.21
712.551	63.09
712.735	63.19
712.919	63.71
713.103	63.84
713.288	63.73
713.472	63.9
713.656	64.11
713.84	64.31
714.024	64.43
714.208	64.35
714.393	64.26
714.577	64.53
714.761	64.6
714.945	65
715.129	65.33
715.313	65.77
715.497	65.81
715.681	65.79
715.865	65.73
716.049	65.6
716.233	65.9
716.417	66.2
716.601	66.3
716.785	66.64
716.968	66.88
717.152	66.41
717.336	66.56
717.52	66.61
717.704	66.87
717.888	67.79
718.071	68.31
718.255	68.04
718.439	68.46
718.622	67.98
718.806	67.3
718.99	67.16
719.174	66.99
719.357	66.74
719.541	67.45
719.724	67.79
719.908	67.98
720.092	67.92
720.275	68.25
720.459	67.7
720.642	67.09
720.826	67.55
721.009	68
721.193	68.03
721.376	67.79
721.559	68.22
721.743	68.25
721.926	68.59
722.11	68.59
722.293	69.34
722.476	69.5
722.66	69.51
722.843	69.37
723.026	69.69
723.21	70.15
723.393	70.01
723.576	69.96
723.759	70.01
723.942	70.22
724.126	69.61
724.309	70
724.492	70.27
724.675	70.54
724.858	70.55
725.041	70.55
725.224	70.64
725.407	70.47
725.59	70.51
725.774	70.29
725.957	70.58
726.14	70.84
726.322	71.02
726.505	71.45
726.688	71.67
726.871	71.51
727.054	71.01
727.237	71.21
727.42	70.68
727.603	70.47
727.786	70.79
727.968	71.33
728.151	70.71
728.334	71.54
728.517	71.94
728.699	72.27
728.882	72.52
729.065	72.86
729.248	72.3
729.43	72.66
729.613	72.13
729.796	71.78
729.978	72.14
730.161	72.53
730.343	73.1
730.526	73.61
730.708	73.92
730.891	74.45
731.073	74.72
731.256	74.53
731.438	74.42
731.621	74.22
731.803	73.98
731.986	73.94
732.168	73.85
732.35	74.24
732.533	74.85
732.715	75.56
732.898	75.41
733.08	75.26
733.262	75.19
733.444	75.33
733.627	74.98
733.809	74.92
733.991	75.76
734.173	75.79
734.355	76.06
734.538	76.24
734.72	76.48
734.902	75.45
735.084	75.25
735.266	75.23
735.448	75.13
735.63	75.23
735.812	76.05
735.994	75.91
736.176	75.93
736.358	75.43
736.54	75.97
736.722	75.45
736.904	77.38
737.086	77.27
737.268	77.98
737.45	77.76
737.632	78.76
737.814	77.61
737.995	77.86
738.177	77.62
738.359	77.89
738.541	77.1
738.723	78.52
738.904	78.7
739.086	78.77
739.268	78.72
739.449	79.19
739.631	78.43
739.813	77.7
739.994	79.32
740.176	79
740.358	78.55
740.539	78.32
740.721	79.38
740.902	77.99
741.084	78
741.265	78.84
741.447	78.6
741.628	78.22
741.81	78.61
741.991	79.07
742.172	78.4
742.354	78.58
742.535	78.63
742.717	78.09
742.898	77.24
743.079	77.26
743.261	77.84
743.442	78.56
743.623	77.77
743.804	79.34
743.986	80.06
744.167	80.52
744.348	80.53
744.529	81.99
744.71	81.4
744.891	81.09
745.073	80.75
745.254	79.26
745.435	79.91
745.616	79.74
745.797	78.99
745.978	78.18
746.159	78.69
746.34	77.98
746.521	77.18
746.702	77.48
746.883	77.72
747.064	77.68
747.245	78.46
747.426	80.34
747.606	81.23
747.787	80.97
747.968	80.66
748.149	80.29
748.33	79.72
748.51	79.6
748.691	79.83
748.872	80.24
749.053	79.02
749.233	79.36
749.414	79.03
749.595	79.09
749.775	79.43
749.956	80.25
750.137	80.21
750.317	79.39
750.498	79.06
750.678	78.89
750.859	79.43
751.04	78.67
751.22	79.76
751.4	81.32
751.581	81.45
751.761	81.9
751.942	81.62
752.122	82.88
752.303	80.65
752.483	80.98
752.663	80.06
752.844	80.49
753.024	79.71
753.204	81.41
753.385	81.49
753.565	81.85
753.745	82.29
753.925	80.72
754.106	80.96
754.286	81.29
754.466	80.18
754.646	81.14
754.826	82.88
755.006	83.41
755.187	83.38
755.367	84.6
755.547	83.55
755.727	83.02
755.907	81.47
756.087	80.64
756.267	79.74
756.447	79.18
756.627	80.21
756.807	80.16
756.987	81.28
757.167	81.82
757.346	82.03
757.526	80.51
757.706	80.44
757.886	80.01
758.066	79.81
758.246	80.11
758.425	80.15
758.605	81.24
758.785	81.7
758.965	81.9
759.144	81.71
759.324	81.78
759.504	81.05
759.683	80.71
759.863	80.79
760.043	80.47
760.222	81.55
760.402	82.62
760.581	83.81
760.761	83.49
760.94	84.1
761.12	83.42
761.299	82.32
761.479	80.56
761.658	80.6
761.838	81.26
762.017	80.84
762.197	81.24
762.376	81.9
762.555	82.61
762.735	80.89
762.914	80.79
763.093	80.91
763.273	79.48
763.452	78.39
763.631	78.97
763.81	79.11
763.99	78.59
764.169	79.99
764.348	80.22
764.527	80.23
764.706	80.29
764.885	79.32
765.064	79.71
765.243	79.91
765.423	79.54
765.602	79.67
765.781	79.53
765.96	80.38
766.139	81.57
766.318	82.57
766.497	82.81
766.676	83.17
766.854	80.02
767.033	79.28
767.212	79.42
767.391	77.3
767.57	77.72
767.749	78.76
767.928	78.06
768.106	77.46
768.285	77.48
768.464	78.65
768.643	76.8
768.821	76.29
769	76.19
769.179	77.18
769.357	77.33
769.536	78.96
769.715	78.55
769.893	77.22
770.072	76.54
770.25	76.33
770.429	76.29
770.607	77.37
770.786	79.04
770.964	79.79
771.143	79.2
771.321	79.74
771.5	78.26
771.678	76.69
771.857	76.64
772.035	75.62
772.213	73.06
772.392	74.75
772.57	74.83
772.748	74.58
772.927	74.28
773.105	77.04
773.283	77.46
773.461	78.57
773.64	79.68
773.818	80.76
773.996	79.61
774.174	77.74
774.352	76.67
774.531	76.29
774.709	74.16
774.887	74.96
775.065	75.75
775.243	76
775.421	76.11
775.599	77.96
775.777	78.16
775.955	78.24
776.133	79.85
776.311	78.3
776.489	78.77
776.667	75.44
776.844	74.32
777.022	73.27
777.2	75.87
777.378	75.69
777.556	78.64
777.734	78.25
777.911	77.46
778.089	74.9
778.267	73.78
778.445	73.66
778.622	76.06
778.8	76.44
778.978	75.76
779.155	75.13
779.333	73.66
779.511	72.49
779.688	73.59
779.866	75.61
780.043	77.06
780.221	77.44
780.398	77.49
780.576	75.9
780.753	75.22
780.931	73.8
781.108	75.15
781.286	75.16
781.463	76.68
781.64	76.17
781.818	74.97
781.995	75.11
782.172	75.18
782.35	74.81
782.527	72.59
782.704	74.69
782.882	73.04
783.059	73.24
783.236	73.87
783.413	77.4
783.59	78.52
783.768	78.76
783.945	75.31
784.122	73.06
784.299	72.97
784.476	71.71
784.653	72.87
784.83	77.14
785.007	75.98
785.184	76.31
785.361	77.08
785.538	76.3
785.715	73.57
785.892	76.6
786.069	75.15
786.246	72.8
786.423	69.96
786.6	69.95
786.776	66.19
786.953	64.53
787.13	64.62
787.307	66.05
787.484	65.85
787.66	70.01
787.837	72.51
788.014	74.18
788.191	73.29
788.367	73.71
788.544	68.01
788.721	67.37
788.897	66.4
789.074	66.96
789.25	67.04
789.427	71.16
789.603	67.35
789.78	68.35
789.956	69.62
790.133	71.15
790.309	67.84
790.486	69.98
790.662	68.24
790.839	67.5
791.015	71.92
791.192	72.84
791.368	75.52
791.544	76.79
791.721	76.54
791.897	69.42
792.073	71.65
792.249	67.72
792.426	65.74
792.602	63.38
792.778	65.28
792.954	64.81
793.13	67.88
793.307	69.3
793.483	71.68
793.659	70.09
793.835	69.94
794.011	69.42
794.187	69.46
794.363	71.33
794.539	71.17
794.715	70.76
794.891	70.49
795.067	71.59
795.243	72.53
795.419	75.47
795.595	75.32
795.771	78.45
795.947	77.54
796.122	76.9
796.298	77.55
796.474	76.58
796.65	71.55
796.826	76.25
797.001	76.96
797.177	71.44
797.353	73.96
797.529	74.96
797.704	71.58
797.88	69.37
798.056	70.03
798.231	70.94
798.407	71.8
798.582	68.84
798.758	70.81
798.934	65.46
799.109	60.81
799.285	58.54
799.46	56.97
799.636	58.37
799.811	62.48
799.986	63.75
800.162	62.59
800.337	68.02
800.513	65.05
800.688	67.81
800.863	70.04
801.039	72.44
801.214	71.14
801.389	71.61
801.565	69.81
801.74	69.85
801.915	68.61
802.09	68.67
802.265	66.87
802.441	65.32
802.616	67.07
802.791	67.06
802.966	67.19
803.141	72.12
803.316	76.93
803.491	76.62
803.666	82.34
803.841	76.5
804.016	73.75
804.191	74.67
804.366	73.38
804.541	72.47
804.716	78.11
804.891	78.4
805.066	73.25
805.241	71.33
805.416	67.45
805.591	65.95
805.765	59.81
805.94	60.47
806.115	59.76
806.29	59.47
806.464	61.81
806.639	66.26
806.814	68.89
806.989	76.02
807.163	73.44
807.338	71.59
807.512	70.39
807.687	70.7
807.862	66.33
808.036	67.01
808.211	69.76
808.385	68.11
808.56	62.62
808.734	55.02
808.909	53.53
809.083	50.28
809.258	55.76
809.432	57.96
809.606	66.26
809.781	68.45
809.955	67.97
810.13	64.51
810.304	70.75
810.478	73.04
810.652	72.04
810.827	77.07
811.001	78.06
811.175	74.95
811.349	71.47
811.524	68.03
811.698	62.32
811.872	59.5
812.046	60.42
812.22	60.62
812.394	70.12
812.568	72.17
812.742	73.67
812.916	73.9
813.09	76.43
813.264	73.37
813.438	76.22
813.612	80
813.786	77.55
813.96	74.38
814.134	74.72
814.308	72.97
814.482	69.09
814.656	67.84
814.83	69.54
815.003	67.37
815.177	67
815.351	71.99
815.525	77.33
815.698	76.2
815.872	79.59
816.046	80.73
816.219	82.52
816.393	77.34
816.567	73.82
816.74	70.85
816.914	73.97
817.088	73.05
817.261	69.36
817.435	68.01
817.608	68.78
817.782	68.5
817.955	65.08
818.129	77.41
818.302	76
818.475	77.37
818.649	63.84
818.822	65.74
818.996	56.76
819.169	59.02
819.342	58.22
819.516	68.02
819.689	61.07
819.862	69.48
820.035	64.67
820.209	58.58
820.382	58.91
820.555	66.81
820.728	57.82
820.901	62.01
821.075	69.23
821.248	66.63
821.421	57.96
821.594	61.38
821.767	65.84
821.94	60.31
822.113	64.81
822.286	68.28
822.459	71.73
822.632	71.32
822.805	79.86
822.978	68.78
823.151	63.74
823.324	59.55
823.496	64.04
823.669	58.64
823.842	63.18
824.015	77.26
824.188	77.21
824.361	54.29
824.533	59.49
824.706	56.89
824.879	52.38
825.051	42.26
825.224	58.47
825.397	53.94
825.569	67.33
825.742	63.86
825.915	85.55
826.087	72.17
826.26	70.07
826.432	63.93
826.605	60.74
826.777	49.98
826.95	53.89
827.122	60.1
827.295	55.47
827.467	54.74
827.64	60.05
827.812	57.13
827.984	54.75
828.157	46.92
828.329	53.93
828.501	53.97
828.674	50.33
828.846	54.2
829.018	60.77
829.19	61.78
829.363	57.57
829.535	59.61
829.707	57.66
829.879	64.99
830.051	54.05
830.223	57.93
830.395	54.21
830.568	63.04
830.74	52.37
830.912	67.04
831.084	71.06
831.256	73.01
831.428	66.08
831.6	76.9
831.772	78.9
831.943	87.29
832.115	94.37
832.287	83.84
832.459	66.43
832.631	61.97
832.803	45.62
832.975	31.28
833.146	41.81
833.318	52.72
833.49	51.28
833.662	54.86
833.833	59.9
834.005	53.58
834.177	51.1
834.348	51.97
834.52	43.92
834.692	45.95
834.863	62.1
835.035	63.36
835.206	73.98
835.378	82.47
835.549	71.57
835.721	61.51
835.892	57.6
836.064	45.36
836.235	52.4
836.407	74.02
836.578	78.69
836.749	77.16
836.921	79.16
837.092	68.91
837.264	57.84
837.435	50.71
837.606	41.38
837.777	48.08
837.949	42.39
838.12	42.52
838.291	49.45
838.462	56.38
838.633	63.1
838.805	65.99
838.976	71.58
839.147	72.16
839.318	77.63
839.489	62.42
839.66	66.01
839.831	36.41
840.002	37.65
840.173	43.13
840.344	55.78
840.515	48.95
840.686	67.68
840.857	79.32
841.028	77.48
841.199	51.44
841.369	62.74
841.54	62.98
841.711	57.32
841.882	63.18
842.053	81.64
842.223	70.85
842.394	70.15
842.565	70.53
842.736	65.15
842.906	68.97
843.077	77.06
843.248	80.39
843.418	86.19
843.589	75.28
843.759	54.99
843.93	57.04
844.101	27.2
844.271	20.04
844.442	26.68
844.612	24.63
844.783	33.64
844.953	46.38
845.123	35
845.294	12.59
845.464	19.4
845.635	0.55
845.805	8.93
845.975	29.16
846.146	54.42
846.316	67.41
846.486	72.65
846.656	86.25
846.827	86.51
846.997	79.77
847.167	82.56
847.337	78.64
847.507	68.47
847.677	62.03
847.848	52.28
848.018	45.88
848.188	41.52
848.358	58.09
848.528	52.43
848.698	68.49
848.868	63.99
849.038	63.11
849.208	45.59
849.378	41.49
849.548	36.01
849.718	31.41
849.887	25.78
850.057	23.79
850.227	32.78
850.397	39.97
850.567	52.34
850.737	60.86
850.906	69.4
851.076	54.71
851.246	41.36
851.415	56.13
851.585	53.11
851.755	45.82
851.924	59.76
852.094	50.65
852.264	42.31
852.433	36.52
852.603	42.41
852.772	56.73
852.942	66.33
853.111	44.72
853.281	49.66
853.45	41.69
853.62	22.82
853.789	33.51
853.959	49.32
854.128	62.91
854.297	74.08
854.467	64.02
854.636	37.43
854.805	30.26
854.975	25.42
855.144	15.54
855.313	20.02
855.482	37.16
855.652	57.34
855.821	49.66
855.99	35.86
856.159	36.33
856.328	41.82
856.497	33.99
856.667	41.55
856.836	38.12
857.005	43.36
857.174	50.07
857.343	57.54
857.512	50.59
857.681	50.49
857.85	57.57
858.019	42.9
858.188	29.69
858.356	32.92
858.525	42.29
858.694	29.94
858.863	44.36
859.032	59.07
859.201	39.94
859.369	33.43
859.538	34.53
859.707	28
859.876	-12.9
860.044	16.48
860.213	23.09
860.382	27.17
860.55	8.01
860.719	21.27
860.888	34.55
861.056	39.84
861.225	38.09
861.393	46.01
861.562	53.37
861.73	31.87
861.899	35.38
862.067	27.89
862.236	18.57
862.404	20.65
862.572	13.67
862.741	19.52
862.909	19.74
863.078	46.54
863.246	27.23
863.414	35.46
863.582	38.04
863.751	52.16
863.919	59.27
864.087	67.73
864.255	62.24
864.424	50.75
864.592	34.83
864.76	30.6
864.928	64.09
865.096	71.87
865.264	79.02
865.432	40.87
865.6	36.6
865.768	30.73
865.936	21.91
866.104	32.08
866.272	57.74
866.44	52.28
866.608	42.56
866.776	40.79
866.944	29.62
867.112	38.1
867.28	42.87
867.448	29.87
867.615	36.27
867.783	33.05
867.951	18.66
868.119	27.76
868.286	51.18
868.454	43.61
868.622	54.9
868.789	64.41
868.957	33.09
869.125	43.32
869.292	49.68
869.46	49.88
869.627	49.43
869.795	68.38
869.963	69.7
870.13	62.24
870.298	54.89
870.465	50.71
870.632	35.08
870.8	33.01
870.967	34.3
871.135	39.2
871.302	57.41
871.469	56.78
871.637	45.28
871.804	67.35
871.971	87.09
872.139	74.88
872.306	68.61
872.473	70.98
872.64	63.12
872.807	41.95
872.975	28.43
873.142	53.28
873.309	51.56
873.476	32.72
873.643	18.48
873.81	43.35
873.977	9.98
874.144	9.97
874.311	34.17
874.478	46.23
874.645	38.6
874.812	33.57
874.979	39.96
875.146	39.05
875.313	29.64
875.48	26.99
875.647	46.9
875.813	45.23
875.98	60.25
876.147	67.58
876.314	86.03
876.481	81.91
876.647	75.49
876.814	42.9
876.981	3.25
877.147	-9.69
877.314	-0.1
877.481	11.87
877.647	-0.78
877.814	28.6
877.98	35.37
878.147	37.13
878.314	21.82
878.48	40.12
878.647	25.14
878.813	20.2
878.979	9.11
879.146	32.58
879.312	36.93
879.479	34.78
879.645	58.92
879.811	68.92
879.978	75.77
880.144	58.85
880.31	3.44
880.477	-23.64
880.643	14.49
880.809	-112.66
880.975	-147.41
881.142	-63.2
881.308	-37.6
881.474	4.38
881.64	63.72
881.806	51
881.972	46.41
882.138	47.77
882.304	47.79
882.47	36.31
882.636	3.01
882.802	-14.03
882.968	9.22
883.134	10.93
883.3	5.88
883.466	27.4
883.632	32.22
883.798	43.03
883.964	42.9
884.129	43.38
884.295	35.46
884.461	34.73
884.627	27.25
884.793	33.22
884.958	30.93
885.124	45.5
885.29	47.57
885.455	53.08
885.621	61.3
885.787	58.74
885.952	51.91
886.118	41.41
886.283	34.74
886.449	47.68
886.614	43.18
886.78	41.32
886.945	49.01
887.111	78.23
887.276	63.06
887.442	54.43
887.607	67.76
887.773	76.86
887.938	67.72
888.103	60.98
888.269	51.21
888.434	50.16
888.599	53.48
888.764	43.08
888.93	42.29
889.095	51.67
889.26	86.17
889.425	40.64
889.59	37.03
889.756	38.84
889.921	-14.41
890.086	-68.85
890.251	17.88
890.416	34.02
890.581	-37.82
890.746	68.17
890.911	57.26
891.076	21.12
891.241	28.62
891.406	56
891.571	18.22
891.736	26.06
891.901	34.94
892.065	21.24
892.23	-28.88
892.395	-12.14
892.56	-3.29
892.725	-8.72
892.889	16.08
893.054	47.76
893.219	67.18
893.384	80.24
893.548	87.35
893.713	101.53
893.878	99.15
