Data from Ofav_PP_Phys_2Z21_Reflection_1.txt Node
Date: Tue Aug 03 18:11:31 EDT 2021
User: Adam
Spectrometer: FLMT01687
Trigger mode: 0
Integration Time (sec): 8.750000E-1
Scans to average: 2
Electric dark correction enabled: true
Nonlinearity correction enabled: false
Boxcar width: 2
XAxis mode: Wavelengths
Number of Pixels in Spectrum: 3648
>>>>>Begin Spectral Data<<<<<
179.494	164.26
179.716	207.9
179.937	282.08
180.158	443.83
180.38	1987.72
180.601	161.21
180.823	161.37
181.044	63.3
181.265	74.05
181.486	-29.35
181.708	52.99
181.929	58.9
182.15	97.21
182.372	251.05
182.593	-61.18
182.814	223.81
183.035	-156.74
183.257	-2398.04
183.478	497.79
183.699	924.9
183.92	316.25
184.141	257.12
184.363	129.81
184.584	13.1
184.805	-10.18
185.026	-31.01
185.247	-19.33
185.468	45.12
185.689	38.17
185.91	76.51
186.132	64.37
186.353	68
186.574	-16.24
186.795	12.73
187.016	13.72
187.237	29.45
187.458	25.43
187.679	37.33
187.9	31.38
188.121	34.2
188.342	29.09
188.563	9.63
188.784	15.34
189.005	9.79
189.226	-11.11
189.447	25.73
189.667	35.44
189.888	68.85
190.109	94.64
190.33	106.13
190.551	58.32
190.772	94.36
190.993	59.72
191.214	62.59
191.434	69.79
191.655	59.58
191.876	44.8
192.097	38.39
192.318	34.16
192.538	31.13
192.759	31.22
192.98	19.82
193.201	18.84
193.421	19.83
193.642	10.56
193.863	6.21
194.083	36.16
194.304	37.3
194.525	36.47
194.745	32.94
194.966	85.51
195.187	73.55
195.407	89.09
195.628	90.59
195.848	105.94
196.069	82.65
196.29	68.87
196.51	61.27
196.731	54.46
196.951	37.44
197.172	55.52
197.392	92.03
197.613	86.2
197.833	68.7
198.054	107.66
198.274	85.55
198.495	45.34
198.715	51.34
198.936	62.43
199.156	50.17
199.377	50.18
199.597	62.81
199.817	75.45
200.038	66.81
200.258	53.25
200.479	17.13
200.699	25.59
200.919	-31.76
201.14	27.51
201.36	43.24
201.58	59.07
201.801	19.18
202.021	32.71
202.241	16.21
202.461	24.77
202.682	30.53
202.902	46.23
203.122	50.52
203.342	59.65
203.563	-7.86
203.783	-17.46
204.003	19.23
204.223	21.17
204.443	8.59
204.663	28.23
204.884	21.24
205.104	10.68
205.324	-1.5
205.544	-36.76
205.764	-0.06
205.984	-3.97
206.204	10.71
206.424	-43.67
206.644	31.7
206.864	12.81
207.084	38.31
207.304	30.56
207.525	61.97
207.745	43.11
207.964	-11.6
208.184	0.54
208.404	24.19
208.624	35.8
208.844	43.51
209.064	77.42
209.284	115.69
209.504	88.55
209.724	69.86
209.944	72.54
210.164	61.02
210.384	41.49
210.604	27.43
210.823	24.58
211.043	50.8
211.263	41.26
211.483	77.51
211.703	92.65
211.922	96.48
212.142	69.22
212.362	80.38
212.582	47.66
212.801	51.15
213.021	37.88
213.241	56.73
213.461	64.77
213.68	61.73
213.9	49.12
214.12	54.16
214.339	50.14
214.559	54.85
214.779	46.34
214.998	40.25
215.218	67.4
215.438	58.54
215.657	55.37
215.877	68.38
216.096	67.77
216.316	45.12
216.535	66.49
216.755	31.88
216.974	35.61
217.194	45.73
217.413	57.28
217.633	38.97
217.852	50.39
218.072	49.01
218.291	37.91
218.511	27.29
218.73	54.04
218.95	48.48
219.169	48.29
219.389	50.38
219.608	50.44
219.827	34
220.047	73.51
220.266	58.4
220.485	63.45
220.705	51.45
220.924	59.61
221.143	35.86
221.363	55.43
221.582	50.35
221.801	42.43
222.021	13
222.24	27.15
222.459	-31.66
222.678	-5.45
222.897	19.44
223.117	26.41
223.336	-109.59
223.555	-2.63
223.774	51.52
223.993	2.71
224.213	-24.82
224.432	0.23
224.651	19.57
224.87	12.8
225.089	16.48
225.308	38.04
225.527	46.72
225.746	3.59
225.965	11.4
226.184	31.42
226.404	45.97
226.623	60.79
226.842	68.73
227.061	56.64
227.28	49.19
227.499	50.32
227.718	39.93
227.936	39.72
228.155	28.78
228.374	55.45
228.593	45.91
228.812	18.49
229.031	24.92
229.25	64.32
229.469	33.84
229.688	-17.3
229.907	25.44
230.125	11.11
230.344	-6.61
230.563	1.64
230.782	10.43
231.001	26.17
231.22	17.67
231.438	6.77
231.657	-12.73
231.876	-5.9
232.095	-3.92
232.313	13.96
232.532	-7.45
232.751	28.35
232.969	47.14
233.188	37.65
233.407	28.28
233.625	68.59
233.844	73.98
234.063	50.62
234.281	51.18
234.5	46.76
234.719	0.28
234.937	-17.78
235.156	-5.85
235.374	6.9
235.593	-7.12
235.811	-8.81
236.03	-11.64
236.249	2.35
236.467	10.89
236.686	24.01
236.904	39.55
237.123	62.96
237.341	54.77
237.559	53.66
237.778	51.9
237.996	54.34
238.215	45.53
238.433	42.66
238.652	30.26
238.87	33.39
239.088	18.97
239.307	13.09
239.525	32.25
239.743	43.95
239.962	55.38
240.18	68.71
240.398	90.35
240.617	78.24
240.835	63.1
241.053	49.41
241.271	25.07
241.49	16.18
241.708	33.15
241.926	43.02
242.144	42.1
242.363	42.74
242.581	50.53
242.799	35.77
243.017	35.03
243.235	42.53
243.453	52.03
243.672	45.02
243.89	66.11
244.108	60.57
244.326	42.61
244.544	31.35
244.762	29.67
244.98	3.55
245.198	24.33
245.416	48.08
245.634	47.33
245.852	49.68
246.07	42.14
246.288	19.59
246.506	28.03
246.724	28.05
246.942	27.95
247.16	36.09
247.378	21.66
247.596	7.98
247.814	18.4
248.032	24.34
248.25	21.9
248.468	37.38
248.685	30.1
248.903	-5.2
249.121	2.44
249.339	6.26
249.557	7.2
249.775	-2.33
249.992	37.93
250.21	34.25
250.428	26.24
250.646	2.99
250.863	23.86
251.081	-2.01
251.299	-17.62
251.517	2.97
251.734	33.25
251.952	15.67
252.17	3.55
252.387	-33.46
252.605	-52.54
252.823	-62.94
253.04	-17.22
253.258	50.68
253.475	69.02
253.693	77.66
253.911	102.73
254.128	93.7
254.346	70.58
254.563	78.32
254.781	61.23
254.998	32.66
255.216	37.83
255.433	27.24
255.651	4.53
255.868	-35.66
256.086	-43.52
256.303	-35.66
256.521	0.36
256.738	12.79
256.956	51.84
257.173	75.87
257.39	80.54
257.608	61.01
257.825	34.2
258.043	-7.43
258.26	10.46
258.477	17.47
258.695	32.64
258.912	54.82
259.129	69.56
259.346	80.04
259.564	66.44
259.781	65.77
259.998	62.2
260.216	33.78
260.433	18
260.65	19.1
260.867	24.62
261.084	6.22
261.302	29.62
261.519	39.87
261.736	53.51
261.953	46.01
262.17	42.49
262.387	48.83
262.604	32.44
262.822	43.78
263.039	50.45
263.256	61.83
263.473	55.51
263.69	70.7
263.907	53.32
264.124	18.61
264.341	23.96
264.558	19.91
264.775	13.93
264.992	6.62
265.209	20.24
265.426	-4.71
265.643	-1.41
265.86	-4.14
266.077	10.13
266.294	20.2
266.51	37.78
266.727	53.56
266.944	56.5
267.161	50.94
267.378	45.33
267.595	32.17
267.812	30.05
268.028	33.93
268.245	41.65
268.462	60.07
268.679	72.09
268.896	71.83
269.112	55.74
269.329	29.45
269.546	-35.22
269.763	-10.5
269.979	-6.08
270.196	-5.41
270.413	9.65
270.629	21.21
270.846	24.65
271.063	10.71
271.279	38.14
271.496	54
271.712	31.77
271.929	12.19
272.146	45.14
272.362	44.99
272.579	26.91
272.795	41.93
273.012	47.78
273.228	37.46
273.445	24.47
273.661	33.79
273.878	47.87
274.094	39.58
274.311	44.87
274.527	25.89
274.744	22.13
274.96	-12.74
275.177	-13.65
275.393	-18.68
275.609	13.43
275.826	17.55
276.042	19.99
276.259	20.71
276.475	7.15
276.691	-6.09
276.908	-7.7
277.124	18.27
277.34	18.45
277.557	21.97
277.773	32.57
277.989	38.39
278.205	36.81
278.422	38.37
278.638	29.36
278.854	15.48
279.07	11.07
279.286	17.85
279.503	23.34
279.719	38.48
279.935	39.29
280.151	33.83
280.367	11.17
280.583	-2.3
280.799	-0.27
281.016	9.36
281.232	14.09
281.448	35.06
281.664	27.81
281.88	41.54
282.096	42.7
282.312	25.93
282.528	23.64
282.744	30.2
282.96	24.41
283.176	33.81
283.392	50.41
283.608	54.1
283.824	59.21
284.04	49.7
284.256	31.32
284.471	30.33
284.687	25.14
284.903	27.77
285.119	14.54
285.335	13.78
285.551	4.37
285.767	22.75
285.982	17.58
286.198	37.14
286.414	25.37
286.63	16.21
286.846	-12.8
287.061	-20.38
287.277	-34.95
287.493	-9.13
287.709	-14.15
287.924	19.37
288.14	9.51
288.356	-13.49
288.571	-3.96
288.787	5.91
289.003	4.31
289.218	2.91
289.434	42.24
289.65	31.83
289.865	43.66
290.081	25.7
290.296	45.61
290.512	28.03
290.727	40.08
290.943	46.17
291.159	52.99
291.374	52.28
291.59	56.33
291.805	64.19
292.021	63.51
292.236	61.74
292.451	46.22
292.667	45.79
292.882	29.31
293.098	10.78
293.313	7.87
293.529	39.51
293.744	20.36
293.959	40.41
294.175	34.5
294.39	16.2
294.605	0.83
294.821	2.82
295.036	-14.52
295.251	-18.93
295.467	22.6
295.682	46.61
295.897	54.51
296.112	46.53
296.328	46.19
296.543	35.26
296.758	26.44
296.973	27.36
297.188	32.65
297.404	51.81
297.619	71.67
297.834	71.1
298.049	68.05
298.264	73.22
298.479	51.26
298.694	31.71
298.909	31.26
299.125	34.29
299.34	4.97
299.555	21.31
299.77	-13.05
299.985	9.44
300.2	24.24
300.415	38.22
300.63	26.79
300.845	73.39
301.06	58.48
301.275	33.53
301.49	41.68
301.704	42.42
301.919	31.99
302.134	40.51
302.349	50.63
302.564	61.72
302.779	54.13
302.994	47.42
303.209	41.79
303.423	33.72
303.638	13.86
303.853	13.56
304.068	34.88
304.283	41.96
304.497	45
304.712	59.66
304.927	65.68
305.142	54.2
305.356	41.53
305.571	42
305.786	33.45
306	42.28
306.215	33.06
306.43	50.56
306.644	33.33
306.859	36.85
307.074	33.13
307.288	39.64
307.503	37.77
307.717	37.62
307.932	24.64
308.147	22.61
308.361	10.63
308.576	5.32
308.79	33.04
309.005	42.2
309.219	33.33
309.434	25.84
309.648	27.45
309.863	21.81
310.077	29.17
310.292	36.44
310.506	51.68
310.72	66.04
310.935	58.21
311.149	44.93
311.364	42.47
311.578	39.84
311.792	26.72
312.007	8.46
312.221	36.82
312.435	44.75
312.649	64.52
312.864	58.84
313.078	50.56
313.292	33.66
313.507	31.19
313.721	13.4
313.935	-6.33
314.149	6.13
314.363	20.72
314.578	25.92
314.792	27.78
315.006	31.02
315.22	23.88
315.434	30.53
315.648	22.47
315.862	41.46
316.077	37.83
316.291	40.91
316.505	36.71
316.719	39.01
316.933	37.72
317.147	37.26
317.361	40.01
317.575	38.22
317.789	41.2
318.003	30.36
318.217	21.99
318.431	38.35
318.645	23.06
318.859	17.1
319.073	11.18
319.287	41.19
319.5	37.24
319.714	57.95
319.928	62.2
320.142	72.08
320.356	41.67
320.57	31.03
320.784	18.54
320.997	7.34
321.211	16.88
321.425	31.73
321.639	28.91
321.853	6.56
322.066	36.41
322.28	41.22
322.494	31.83
322.707	9.62
322.921	30.37
323.135	6.12
323.349	-0.85
323.562	28.27
323.776	52.87
323.989	49.62
324.203	57.46
324.417	48.71
324.63	56.76
324.844	47.28
325.057	54.34
325.271	36.3
325.485	45.28
325.698	7.49
325.912	-11.79
326.125	-21.78
326.339	-6.95
326.552	-15.89
326.766	24.48
326.979	27.5
327.193	44.71
327.406	46.61
327.619	61.84
327.833	11.44
328.046	21.91
328.26	16.43
328.473	3.28
328.686	6.09
328.9	17.19
329.113	15.38
329.326	13.78
329.54	25.63
329.753	33.09
329.966	54.58
330.179	48.3
330.393	51.04
330.606	51.2
330.819	44.4
331.032	19.54
331.246	29.93
331.459	14.5
331.672	2.04
331.885	3.14
332.098	40.41
332.311	52.4
332.525	73.68
332.738	63.95
332.951	61.71
333.164	48.46
333.377	39.53
333.59	26.82
333.803	24.91
334.016	16.74
334.229	10.88
334.442	-16.16
334.655	-15.67
334.868	-14.54
335.081	-17.08
335.294	-0.54
335.507	33.54
335.72	42
335.933	44.94
336.146	41.39
336.359	39.94
336.572	16.32
336.785	20.94
336.997	38.45
337.21	31.46
337.423	28.45
337.636	55.98
337.849	46.91
338.062	19.08
338.274	25.46
338.487	43.57
338.7	31.26
338.913	36.08
339.125	47.22
339.338	50.84
339.551	40.93
339.763	35.84
339.976	33.64
340.189	30.73
340.402	18.36
340.614	18.09
340.827	27.12
341.039	31.43
341.252	34.75
341.465	34.29
341.677	27.92
341.89	28.08
342.102	21.89
342.315	15.49
342.527	29.92
342.74	41.92
342.952	39.01
343.165	48.83
343.377	47.94
343.59	38.84
343.802	29.61
344.015	6.85
344.227	-28.95
344.44	6.49
344.652	9.38
344.864	-11.06
345.077	22.8
345.289	29.64
345.502	-16.6
345.714	-18.55
345.926	27.57
346.139	15.32
346.351	19.72
346.563	31.48
346.775	47.43
346.988	18.95
347.2	21.68
347.412	30.59
347.624	28.86
347.837	10.6
348.049	8.05
348.261	-5.77
348.473	-20.79
348.685	-3.57
348.897	11.29
349.11	11.7
349.322	12.08
349.534	15.55
349.746	16.19
349.958	1.1
350.17	7.91
350.382	3.49
350.594	3.67
350.806	4.84
351.018	12.73
351.23	19.84
351.442	46.86
351.654	44.41
351.866	39.65
352.078	38.38
352.29	44.57
352.502	35.89
352.714	30.66
352.926	22.89
353.138	14.85
353.35	13.02
353.561	23.19
353.773	27.5
353.985	29.34
354.197	30.69
354.409	34.69
354.621	24.62
354.832	34.26
355.044	38.09
355.256	48.09
355.468	40.38
355.679	39.52
355.891	41.54
356.103	43.36
356.314	40.21
356.526	43.38
356.738	49.72
356.949	48.02
357.161	50.01
357.373	63.09
357.584	56.33
357.796	46.32
358.008	26
358.219	12.81
358.431	10.05
358.642	7.77
358.854	-13.39
359.065	5.39
359.277	23.96
359.488	9.65
359.7	14.34
359.911	25.73
360.123	36.46
360.334	34.44
360.546	37.52
360.757	42.35
360.969	39.37
361.18	25.41
361.391	26.73
361.603	26.06
361.814	15.63
362.025	29.26
362.237	38.23
362.448	41.21
362.659	37.03
362.871	36.79
363.082	19.68
363.293	12.45
363.504	-4.88
363.716	16.15
363.927	22.1
364.138	23.43
364.349	25.31
364.56	33.29
364.772	32.7
364.983	20.21
365.194	30.48
365.405	31.81
365.616	23.88
365.827	18.03
366.038	23.54
366.25	32.24
366.461	35.77
366.672	50.01
366.883	43.28
367.094	48.89
367.305	42.88
367.516	35.89
367.727	36.87
367.938	41.51
368.149	35.47
368.36	22.55
368.571	25.95
368.781	23.53
368.992	30.77
369.203	46.87
369.414	52.1
369.625	48.7
369.836	45.14
370.047	41.57
370.258	34.03
370.468	37.73
370.679	50.96
370.89	58.16
371.101	50.5
371.312	51.03
371.522	41.37
371.733	31.48
371.944	32.11
372.155	37.49
372.365	37.18
372.576	48.14
372.787	44.27
372.997	35.22
373.208	31.39
373.419	14.08
373.629	6.56
373.84	19.2
374.05	11.23
374.261	2.68
374.472	15.07
374.682	11.14
374.893	9.68
375.103	1.07
375.314	24.99
375.524	26.01
375.735	27.1
375.945	16.66
376.156	33.26
376.366	20.34
376.577	26.24
376.787	28.57
376.997	33.58
377.208	26.45
377.418	27.9
377.629	26.76
377.839	22.07
378.049	17.36
378.26	14.36
378.47	3.55
378.68	2.39
378.89	8.23
379.101	10.02
379.311	16.58
379.521	36.97
379.732	42.95
379.942	35.53
380.152	47.7
380.362	38.78
380.572	39.25
380.783	31.03
380.993	38.03
381.203	26.48
381.413	22.16
381.623	17.75
381.833	17.53
382.043	19.1
382.253	23.05
382.463	32.67
382.674	28.52
382.884	31.6
383.094	22.32
383.304	20.22
383.514	17.35
383.724	11.29
383.934	14.67
384.144	19.89
384.353	14.61
384.563	13.61
384.773	13.82
384.983	10.86
385.193	9.41
385.403	14.91
385.613	16.69
385.823	17.37
386.033	15.51
386.242	17.05
386.452	16.25
386.662	15.47
386.872	14.1
387.082	12.12
387.291	7.82
387.501	9.55
387.711	11.57
387.921	14.01
388.13	14.79
388.34	14.16
388.55	13.59
388.759	10.13
388.969	9.85
389.179	9.39
389.388	8.77
389.598	9.86
389.807	9.61
390.017	11.64
390.227	13.42
390.436	13.54
390.646	10.05
390.855	8.56
391.065	6.06
391.274	6.3
391.484	8.69
391.693	8.87
391.903	10.63
392.112	11.6
392.322	9.45
392.531	8.84
392.74	9.47
392.95	9.55
393.159	7.14
393.369	7.98
393.578	6.58
393.787	6.76
393.997	6.01
394.206	8.08
394.415	8.09
394.625	9.19
394.834	9.88
395.043	10.13
395.252	9.76
395.462	9.53
395.671	7.95
395.88	7.51
396.089	7.33
396.298	7.16
396.508	7.09
396.717	7.79
396.926	7.19
397.135	6.29
397.344	6.26
397.553	6.1
397.762	6.08
397.971	6.82
398.181	7.79
398.39	8.13
398.599	8.19
398.808	8.14
399.017	7.46
399.226	6.87
399.435	6.24
399.644	6.28
399.853	6.23
400.062	6.27
400.27	6.52
400.479	6.69
400.688	6.74
400.897	6.92
401.106	6.92
401.315	7.13
401.524	7.48
401.733	7.2
401.941	6.94
402.15	7.08
402.359	7.02
402.568	6.49
402.777	6.45
402.985	6.63
403.194	6.53
403.403	6.3
403.612	6.6
403.82	6.74
404.029	6.63
404.238	6.76
404.446	6.71
404.655	6.53
404.864	6.56
405.072	6.62
405.281	6.47
405.489	6.72
405.698	6.77
405.906	6.75
406.115	6.8
406.324	6.81
406.532	6.63
406.741	6.67
406.949	6.66
407.158	6.58
407.366	6.58
407.574	6.43
407.783	6.41
407.991	6.24
408.2	6.1
408.408	6
408.617	6.1
408.825	6.02
409.033	6.08
409.242	5.95
409.45	5.92
409.658	5.99
409.867	5.91
410.075	5.88
410.283	6.01
410.491	5.97
410.7	5.87
410.908	5.82
411.116	5.71
411.324	5.71
411.533	5.8
411.741	5.75
411.949	5.76
412.157	5.79
412.365	5.86
412.573	5.79
412.781	5.8
412.99	5.87
413.198	5.94
413.406	5.9
413.614	5.86
413.822	5.89
414.03	5.94
414.238	5.9
414.446	5.87
414.654	5.94
414.862	5.98
415.07	5.82
415.278	5.72
415.486	5.67
415.694	5.78
415.902	5.59
416.109	5.56
416.317	5.59
416.525	5.56
416.733	5.45
416.941	5.52
417.149	5.61
417.357	5.57
417.564	5.55
417.772	5.5
417.98	5.61
418.188	5.62
418.395	5.62
418.603	5.74
418.811	5.84
419.019	5.71
419.226	5.64
419.434	5.57
419.642	5.53
419.849	5.43
420.057	5.5
420.265	5.41
420.472	5.43
420.68	5.25
420.887	5.24
421.095	5.04
421.302	5.25
421.51	5.22
421.717	5.27
421.925	5.11
422.132	5.27
422.34	5.15
422.547	5.2
422.755	5.26
422.962	5.33
423.17	5.31
423.377	5.37
423.585	5.37
423.792	5.26
423.999	5.16
424.207	5.15
424.414	4.88
424.621	4.72
424.829	4.87
425.036	5.04
425.243	5.12
425.451	5.33
425.658	5.43
425.865	5.29
426.072	5.2
426.28	4.97
426.487	5.1
426.694	4.95
426.901	4.99
427.108	5
427.315	5.21
427.523	4.87
427.73	5.12
427.937	5.28
428.144	5.31
428.351	5.13
428.558	5.2
428.765	5.16
428.972	5.14
429.179	4.97
429.386	5.01
429.593	5.16
429.8	5.3
430.007	5.25
430.214	5.46
430.421	5.52
430.628	5.57
430.835	5.53
431.042	5.53
431.249	5.57
431.456	5.65
431.662	5.62
431.869	5.63
432.076	5.59
432.283	5.55
432.49	5.48
432.697	5.55
432.903	5.54
433.11	5.64
433.317	5.68
433.524	5.75
433.73	5.75
433.937	5.67
434.144	5.72
434.35	5.76
434.557	5.86
434.764	5.91
434.97	6.1
435.177	6.08
435.384	6.05
435.59	6.01
435.797	5.84
436.003	5.75
436.21	5.82
436.416	5.88
436.623	5.83
436.829	5.89
437.036	6.04
437.242	6.01
437.449	5.94
437.655	6.04
437.862	6.09
438.068	5.97
438.275	5.94
438.481	5.91
438.687	5.89
438.894	5.99
439.1	5.99
439.307	5.89
439.513	5.98
439.719	5.97
439.926	5.93
440.132	6.08
440.338	6.27
440.544	6.27
440.751	6.39
440.957	6.43
441.163	6.41
441.369	6.43
441.575	6.46
441.782	6.42
441.988	6.49
442.194	6.46
442.4	6.45
442.606	6.47
442.812	6.57
443.018	6.43
443.224	6.47
443.431	6.5
443.637	6.6
443.843	6.59
444.049	6.73
444.255	6.77
444.461	6.76
444.667	6.73
444.873	6.62
445.079	6.56
445.284	6.52
445.49	6.6
445.696	6.66
445.902	6.69
446.108	6.77
446.314	6.76
446.52	6.79
446.726	6.75
446.931	6.9
447.137	6.84
447.343	6.89
447.549	6.92
447.755	6.91
447.96	6.86
448.166	6.92
448.372	6.87
448.578	6.85
448.783	6.87
448.989	6.72
449.195	6.65
449.4	6.72
449.606	6.68
449.812	6.67
450.017	6.73
450.223	6.84
450.428	6.97
450.634	6.91
450.84	6.91
451.045	7.09
451.251	7.12
451.456	6.94
451.662	6.92
451.867	6.84
452.073	6.83
452.278	6.71
452.483	6.73
452.689	6.89
452.894	6.95
453.1	6.89
453.305	6.95
453.51	7.05
453.716	6.98
453.921	7.04
454.127	6.96
454.332	6.98
454.537	6.96
454.742	7.04
454.948	6.96
455.153	7.06
455.358	7.09
455.563	6.91
455.769	6.82
455.974	6.88
456.179	6.86
456.384	6.8
456.589	6.97
456.795	7.02
457	6.92
457.205	6.87
457.41	6.85
457.615	6.86
457.82	6.85
458.025	6.97
458.23	7.07
458.435	7.06
458.64	7.05
458.845	7.04
459.05	7.04
459.255	7.06
459.46	7.22
459.665	7.22
459.87	7.26
460.075	7.24
460.28	7.27
460.485	7.19
460.69	7.22
460.895	7.3
461.099	7.33
461.304	7.22
461.509	7.27
461.714	7.28
461.919	7.19
462.123	7.22
462.328	7.29
462.533	7.24
462.738	7.27
462.942	7.31
463.147	7.4
463.352	7.32
463.556	7.38
463.761	7.42
463.966	7.36
464.17	7.27
464.375	7.37
464.58	7.33
464.784	7.31
464.989	7.41
465.193	7.52
465.398	7.52
465.602	7.59
465.807	7.55
466.011	7.54
466.216	7.43
466.42	7.45
466.625	7.51
466.829	7.5
467.034	7.51
467.238	7.47
467.443	7.5
467.647	7.44
467.851	7.58
468.056	7.61
468.26	7.69
468.464	7.61
468.669	7.65
468.873	7.49
469.077	7.54
469.282	7.59
469.486	7.59
469.69	7.49
469.894	7.57
470.099	7.49
470.303	7.44
470.507	7.57
470.711	7.73
470.915	7.84
471.119	7.91
471.324	7.98
471.528	7.91
471.732	7.86
471.936	7.81
472.14	7.73
472.344	7.71
472.548	7.67
472.752	7.6
472.956	7.51
473.16	7.62
473.364	7.66
473.568	7.73
473.772	7.73
473.976	7.89
474.18	7.81
474.384	7.86
474.588	7.84
474.792	7.94
474.995	7.86
475.199	7.91
475.403	7.8
475.607	7.82
475.811	7.87
476.015	7.75
476.218	7.8
476.422	7.9
476.626	7.88
476.83	7.94
477.033	8.16
477.237	8.16
477.441	8.14
477.644	8.16
477.848	8.11
478.052	8.11
478.255	8.1
478.459	8.13
478.663	8.13
478.866	8.13
479.07	8.05
479.273	8.06
479.477	7.99
479.681	8.05
479.884	8.02
480.088	8.03
480.291	7.98
480.495	7.96
480.698	7.96
480.901	7.99
481.105	7.95
481.308	8.06
481.512	8.12
481.715	8.06
481.919	8.09
482.122	8.1
482.325	8.09
482.529	8.16
482.732	8.22
482.935	8.19
483.138	8.21
483.342	8.19
483.545	8.15
483.748	8.06
483.952	8.09
484.155	8.13
484.358	8.17
484.561	8.14
484.764	8.23
484.967	8.16
485.171	8.14
485.374	8.07
485.577	8.1
485.78	8.08
485.983	8.06
486.186	8.11
486.389	8.22
486.592	8.25
486.795	8.26
486.998	8.29
487.201	8.29
487.404	8.16
487.607	8.13
487.81	8.14
488.013	8.13
488.216	8.08
488.419	8.08
488.622	8.1
488.825	8.15
489.028	8.12
489.231	8.09
489.433	8.12
489.636	8.07
489.839	8.07
490.042	8.13
490.245	8.23
490.447	8.26
490.65	8.23
490.853	8.18
491.056	8.16
491.258	8.1
491.461	8.11
491.664	8.1
491.866	8.15
492.069	8.14
492.272	8.2
492.474	8.19
492.677	8.17
492.879	8.06
493.082	8.04
493.285	7.93
493.487	8.04
493.69	8.13
493.892	8.25
494.095	8.27
494.297	8.32
494.5	8.18
494.702	8.19
494.905	8.19
495.107	8.15
495.309	8.14
495.512	8.22
495.714	8.23
495.917	8.12
496.119	8.2
496.321	8.18
496.524	8.15
496.726	8.15
496.928	8.26
497.13	8.19
497.333	8.21
497.535	8.12
497.737	8.16
497.939	8.13
498.142	8.18
498.344	8.19
498.546	8.24
498.748	8.13
498.95	8.12
499.152	8.12
499.355	8.17
499.557	8.15
499.759	8.2
499.961	8.23
500.163	8.25
500.365	8.16
500.567	8.16
500.769	8.23
500.971	8.27
501.173	8.27
501.375	8.35
501.577	8.42
501.779	8.39
501.981	8.39
502.183	8.37
502.385	8.38
502.587	8.39
502.788	8.34
502.99	8.32
503.192	8.36
503.394	8.34
503.596	8.39
503.798	8.4
503.999	8.41
504.201	8.44
504.403	8.46
504.605	8.43
504.806	8.51
505.008	8.48
505.21	8.41
505.411	8.4
505.613	8.41
505.815	8.42
506.016	8.41
506.218	8.43
506.42	8.41
506.621	8.38
506.823	8.31
507.024	8.31
507.226	8.37
507.427	8.43
507.629	8.47
507.83	8.45
508.032	8.43
508.233	8.4
508.435	8.43
508.636	8.39
508.838	8.45
509.039	8.51
509.24	8.54
509.442	8.43
509.643	8.44
509.845	8.4
510.046	8.37
510.247	8.34
510.448	8.36
510.65	8.4
510.851	8.4
511.052	8.38
511.254	8.44
511.455	8.38
511.656	8.32
511.857	8.26
512.058	8.28
512.26	8.18
512.461	8.23
512.662	8.29
512.863	8.32
513.064	8.33
513.265	8.37
513.466	8.43
513.667	8.39
513.868	8.36
514.069	8.34
514.27	8.23
514.471	8.26
514.672	8.27
514.873	8.34
515.074	8.36
515.275	8.48
515.476	8.49
515.677	8.51
515.878	8.45
516.079	8.48
516.28	8.48
516.481	8.42
516.682	8.43
516.882	8.51
517.083	8.5
517.284	8.55
517.485	8.54
517.686	8.5
517.886	8.51
518.087	8.5
518.288	8.44
518.488	8.46
518.689	8.45
518.89	8.43
519.091	8.48
519.291	8.38
519.492	8.39
519.692	8.43
519.893	8.34
520.094	8.33
520.294	8.45
520.495	8.47
520.695	8.52
520.896	8.62
521.096	8.56
521.297	8.57
521.497	8.56
521.698	8.54
521.898	8.5
522.099	8.58
522.299	8.58
522.499	8.62
522.7	8.58
522.9	8.61
523.101	8.56
523.301	8.56
523.501	8.55
523.702	8.54
523.902	8.51
524.102	8.51
524.302	8.58
524.503	8.55
524.703	8.64
524.903	8.71
525.103	8.71
525.304	8.61
525.504	8.58
525.704	8.5
525.904	8.46
526.104	8.49
526.304	8.55
526.504	8.56
526.705	8.59
526.905	8.55
527.105	8.53
527.305	8.53
527.505	8.63
527.705	8.67
527.905	8.78
528.105	8.8
528.305	8.75
528.505	8.78
528.705	8.8
528.905	8.76
529.105	8.75
529.304	8.81
529.504	8.72
529.704	8.73
529.904	8.79
530.104	8.8
530.304	8.77
530.503	8.81
530.703	8.76
530.903	8.74
531.103	8.72
531.303	8.74
531.502	8.73
531.702	8.72
531.902	8.67
532.101	8.72
532.301	8.76
532.501	8.77
532.7	8.84
532.9	8.92
533.1	8.88
533.299	8.89
533.499	8.86
533.698	8.85
533.898	8.84
534.097	8.91
534.297	8.85
534.496	8.87
534.696	8.9
534.895	8.89
535.095	8.86
535.294	8.92
535.494	8.9
535.693	8.85
535.892	8.83
536.092	8.89
536.291	8.92
536.491	9
536.69	9.06
536.889	9.16
537.088	9.15
537.288	9.14
537.487	9.13
537.686	9.07
537.886	9.01
538.085	9.08
538.284	9.09
538.483	9.13
538.682	9.2
538.882	9.17
539.081	9.04
539.28	9.06
539.479	9.1
539.678	9.12
539.877	9.24
540.076	9.36
540.275	9.4
540.474	9.36
540.673	9.38
540.872	9.34
541.071	9.36
541.27	9.37
541.469	9.33
541.668	9.29
541.867	9.36
542.066	9.4
542.265	9.48
542.464	9.63
542.663	9.74
542.862	9.75
543.06	9.78
543.259	9.76
543.458	9.68
543.657	9.66
543.856	9.69
544.054	9.67
544.253	9.64
544.452	9.73
544.651	9.73
544.849	9.79
545.048	9.83
545.247	9.92
545.445	9.91
545.644	9.96
545.843	9.93
546.041	9.92
546.24	9.87
546.438	9.87
546.637	9.94
546.836	9.96
547.034	9.99
547.233	10.07
547.431	10.23
547.63	10.24
547.828	10.34
548.027	10.42
548.225	10.46
548.423	10.43
548.622	10.52
548.82	10.53
549.019	10.57
549.217	10.56
549.415	10.59
549.614	10.65
549.812	10.67
550.01	10.75
550.209	10.82
550.407	10.97
550.605	10.96
550.803	10.92
551.002	10.96
551.2	11.03
551.398	10.97
551.596	11.05
551.794	11.23
551.993	11.29
552.191	11.35
552.389	11.41
552.587	11.43
552.785	11.44
552.983	11.42
553.181	11.43
553.379	11.52
553.577	11.59
553.775	11.62
553.973	11.71
554.171	11.79
554.369	11.86
554.567	11.96
554.765	12.07
554.963	12.05
555.161	12.16
555.359	12.2
555.557	12.14
555.755	12.12
555.952	12.23
556.15	12.23
556.348	12.29
556.546	12.41
556.744	12.51
556.941	12.54
557.139	12.62
557.337	12.67
557.535	12.75
557.732	12.8
557.93	12.82
558.128	12.83
558.325	12.84
558.523	12.79
558.721	12.87
558.918	13.03
559.116	13.08
559.313	13.18
559.511	13.3
559.708	13.37
559.906	13.48
560.104	13.57
560.301	13.61
560.498	13.66
560.696	13.67
560.893	13.68
561.091	13.75
561.288	13.79
561.486	13.86
561.683	13.97
561.88	13.98
562.078	14.04
562.275	14.12
562.473	14.1
562.67	14.09
562.867	14.14
563.064	14.13
563.262	14.21
563.459	14.37
563.656	14.4
563.853	14.45
564.051	14.61
564.248	14.6
564.445	14.56
564.642	14.6
564.839	14.7
565.036	14.73
565.234	14.73
565.431	14.79
565.628	14.81
565.825	14.79
566.022	14.78
566.219	14.92
566.416	14.95
566.613	15.03
566.81	15.09
567.007	15.13
567.204	15.23
567.401	15.26
567.598	15.29
567.795	15.29
567.991	15.23
568.188	15.2
568.385	15.08
568.582	15.12
568.779	15.13
568.976	15.19
569.172	15.17
569.369	15.33
569.566	15.33
569.763	15.32
569.96	15.38
570.156	15.38
570.353	15.36
570.55	15.42
570.746	15.41
570.943	15.42
571.14	15.47
571.336	15.53
571.533	15.47
571.729	15.57
571.926	15.6
572.123	15.57
572.319	15.55
572.516	15.58
572.712	15.57
572.909	15.53
573.105	15.54
573.302	15.56
573.498	15.54
573.695	15.57
573.891	15.56
574.087	15.58
574.284	15.66
574.48	15.63
574.677	15.64
574.873	15.69
575.069	15.69
575.266	15.59
575.462	15.65
575.658	15.49
575.854	15.44
576.051	15.34
576.247	15.37
576.443	15.37
576.639	15.43
576.835	15.35
577.032	15.42
577.228	15.39
577.424	15.27
577.62	15.33
577.816	15.29
578.012	15.26
578.208	15.14
578.404	15.11
578.6	15.06
578.796	15.11
578.993	15.12
579.189	15.22
579.384	15.31
579.58	15.27
579.776	15.3
579.972	15.33
580.168	15.25
580.364	15.24
580.56	15.24
580.756	15.17
580.952	15.2
581.148	15.2
581.343	15.16
581.539	15.15
581.735	15.19
581.931	15.05
582.127	15.04
582.322	14.99
582.518	14.96
582.714	14.96
582.909	15
583.105	14.97
583.301	14.94
583.496	14.82
583.692	14.77
583.888	14.77
584.083	14.68
584.279	14.66
584.474	14.68
584.67	14.56
584.866	14.51
585.061	14.64
585.257	14.71
585.452	14.76
585.648	14.85
585.843	14.78
586.039	14.67
586.234	14.67
586.429	14.63
586.625	14.56
586.82	14.64
587.015	14.7
587.211	14.66
587.406	14.74
587.601	14.74
587.797	14.69
587.992	14.67
588.187	14.63
588.383	14.58
588.578	14.62
588.773	14.62
588.968	14.58
589.163	14.55
589.359	14.58
589.554	14.61
589.749	14.62
589.944	14.7
590.139	14.76
590.334	14.83
590.529	14.85
590.724	14.85
590.919	14.77
591.114	14.77
591.309	14.61
591.504	14.61
591.699	14.67
591.894	14.75
592.089	14.9
592.284	15.06
592.479	15.02
592.674	15.06
592.869	15.08
593.064	15.04
593.259	15.05
593.454	15.1
593.648	15.06
593.843	15.13
594.038	15.13
594.233	15.15
594.428	15.22
594.622	15.35
594.817	15.35
595.012	15.4
595.206	15.46
595.401	15.43
595.596	15.4
595.79	15.32
595.985	15.37
596.18	15.4
596.374	15.5
596.569	15.61
596.763	15.73
596.958	15.83
597.153	15.87
597.347	15.98
597.542	15.99
597.736	16.1
597.931	16.03
598.125	16.09
598.319	16.05
598.514	16.07
598.708	16.06
598.903	16.12
599.097	16.2
599.291	16.25
599.486	16.32
599.68	16.42
599.874	16.45
600.069	16.39
600.263	16.36
600.457	16.3
600.651	16.3
600.846	16.41
601.04	16.43
601.234	16.44
601.428	16.55
601.622	16.51
601.817	16.48
602.011	16.56
602.205	16.66
602.399	16.68
602.593	16.71
602.787	16.75
602.981	16.74
603.175	16.74
603.369	16.73
603.563	16.61
603.757	16.53
603.951	16.47
604.145	16.46
604.339	16.46
604.533	16.57
604.727	16.64
604.921	16.67
605.115	16.62
605.309	16.57
605.502	16.6
605.696	16.51
605.89	16.43
606.084	16.46
606.278	16.5
606.471	16.38
606.665	16.37
606.859	16.38
607.053	16.38
607.246	16.36
607.44	16.3
607.634	16.28
607.827	16.21
608.021	16.12
608.214	15.99
608.408	15.97
608.602	15.98
608.795	16.14
608.989	16.05
609.182	16.02
609.376	15.95
609.569	15.84
609.763	15.62
609.956	15.59
610.15	15.55
610.343	15.58
610.537	15.51
610.73	15.42
610.923	15.36
611.117	15.37
611.31	15.27
611.504	15.21
611.697	15.26
611.89	15.19
612.083	15.09
612.277	15
612.47	14.96
612.663	14.89
612.856	14.81
613.05	14.82
613.243	14.82
613.436	14.8
613.629	14.75
613.822	14.74
614.015	14.71
614.209	14.66
614.402	14.58
614.595	14.6
614.788	14.58
614.981	14.51
615.174	14.43
615.367	14.4
615.56	14.33
615.753	14.29
615.946	14.28
616.139	14.24
616.332	14.21
616.525	14.15
616.718	14.17
616.911	14.1
617.103	14.11
617.296	14.06
617.489	14.02
617.682	13.97
617.875	13.93
618.067	13.89
618.26	13.92
618.453	13.87
618.646	13.76
618.838	13.66
619.031	13.57
619.224	13.52
619.417	13.54
619.609	13.48
619.802	13.57
619.994	13.55
620.187	13.46
620.38	13.42
620.572	13.45
620.765	13.42
620.957	13.41
621.15	13.48
621.342	13.45
621.535	13.4
621.727	13.31
621.92	13.39
622.112	13.33
622.305	13.32
622.497	13.37
622.69	13.39
622.882	13.26
623.074	13.24
623.267	13.23
623.459	13.24
623.651	13.19
623.844	13.25
624.036	13.27
624.228	13.26
624.42	13.21
624.613	13.18
624.805	13.14
624.997	13.09
625.189	13.01
625.381	13.02
625.574	13.01
625.766	13.03
625.958	13.1
626.15	13.06
626.342	13.06
626.534	12.93
626.726	12.84
626.918	12.72
627.11	12.74
627.302	12.65
627.494	12.77
627.686	12.76
627.878	12.77
628.07	12.75
628.262	12.76
628.454	12.67
628.646	12.64
628.838	12.53
629.029	12.47
629.221	12.42
629.413	12.41
629.605	12.37
629.797	12.42
629.989	12.45
630.18	12.37
630.372	12.35
630.564	12.36
630.755	12.33
630.947	12.38
631.139	12.51
631.33	12.49
631.522	12.48
631.714	12.43
631.905	12.33
632.097	12.23
632.289	12.31
632.48	12.32
632.672	12.32
632.863	12.3
633.055	12.24
633.246	12.09
633.438	12.03
633.629	12
633.821	12
634.012	12.03
634.203	12.02
634.395	12.01
634.586	12.08
634.777	12.06
634.969	12.04
635.16	12.11
635.351	12.23
635.543	12.14
635.734	12.1
635.925	12.18
636.117	12.15
636.308	12.02
636.499	12.1
636.69	12.16
636.881	12.1
637.073	12.06
637.264	12
637.455	11.94
637.646	11.88
637.837	11.89
638.028	11.93
638.219	12.05
638.41	12
638.601	12.01
638.792	11.95
638.983	11.99
639.174	11.95
639.365	11.95
639.556	11.95
639.747	11.98
639.938	11.95
640.129	11.93
640.32	11.95
640.511	11.92
640.701	11.91
640.892	11.84
641.083	11.7
641.274	11.61
641.465	11.53
641.655	11.49
641.846	11.47
642.037	11.54
642.228	11.53
642.418	11.48
642.609	11.46
642.8	11.45
642.99	11.42
643.181	11.4
643.372	11.46
643.562	11.45
643.753	11.39
643.943	11.39
644.134	11.5
644.324	11.47
644.515	11.53
644.705	11.59
644.896	11.63
645.086	11.61
645.277	11.59
645.467	11.52
645.658	11.55
645.848	11.49
646.038	11.46
646.229	11.49
646.419	11.45
646.61	11.43
646.8	11.48
646.99	11.43
647.18	11.42
647.371	11.33
647.561	11.33
647.751	11.31
647.941	11.33
648.132	11.37
648.322	11.5
648.512	11.45
648.702	11.41
648.892	11.37
649.082	11.32
649.272	11.3
649.462	11.27
649.653	11.27
649.843	11.29
650.033	11.14
650.223	11.07
650.413	11.06
650.603	11.07
650.793	11
650.983	11.13
651.172	11.17
651.362	11.09
651.552	11.05
651.742	11.17
651.932	11.08
652.122	11.12
652.312	11.12
652.502	11.05
652.691	10.92
652.881	10.88
653.071	10.77
653.261	10.71
653.45	10.59
653.64	10.5
653.83	10.46
654.019	10.42
654.209	10.41
654.399	10.33
654.588	10.27
654.778	10.19
654.968	10.07
655.157	9.95
655.347	9.99
655.536	10
655.726	9.9
655.915	9.89
656.105	9.86
656.294	9.76
656.484	9.64
656.673	9.66
656.863	9.51
657.052	9.49
657.241	9.49
657.431	9.45
657.62	9.34
657.809	9.25
657.999	9.24
658.188	9.16
658.377	9.1
658.567	9.01
658.756	9.02
658.945	8.9
659.134	8.81
659.324	8.76
659.513	8.74
659.702	8.65
659.891	8.58
660.08	8.45
660.269	8.36
660.458	8.23
660.648	8.13
660.837	8.1
661.026	8.1
661.215	8.07
661.404	8
661.593	7.95
661.782	7.79
661.971	7.72
662.16	7.59
662.349	7.56
662.538	7.5
662.726	7.5
662.915	7.55
663.104	7.59
663.293	7.55
663.482	7.53
663.671	7.51
663.86	7.39
664.048	7.42
664.237	7.33
664.426	7.38
664.615	7.31
664.803	7.24
664.992	7.1
665.181	7.15
665.369	7.1
665.558	7.1
665.747	7.14
665.935	7.1
666.124	7.08
666.312	6.99
666.501	7.04
666.69	7.08
666.878	7.1
667.067	7.11
667.255	7.14
667.444	6.92
667.632	6.76
667.82	6.6
668.009	6.62
668.197	6.72
668.386	6.88
668.574	6.94
668.762	7.07
668.951	7.07
669.139	7.06
669.327	7.14
669.516	7.09
669.704	7.16
669.892	7.23
670.08	7.23
670.269	7.18
670.457	7.38
670.645	7.34
670.833	7.27
671.021	7.19
671.21	7.2
671.398	7.04
671.586	7.06
671.774	7.12
671.962	7.25
672.15	7.27
672.338	7.47
672.526	7.56
672.714	7.55
672.902	7.58
673.09	7.61
673.278	7.44
673.466	7.35
673.654	7.36
673.842	7.33
674.03	7.34
674.218	7.58
674.405	7.71
674.593	7.78
674.781	7.73
674.969	7.71
675.157	7.62
675.344	7.6
675.532	7.59
675.72	7.72
675.908	7.78
676.095	7.91
676.283	7.92
676.471	7.89
676.658	7.9
676.846	7.99
677.033	7.97
677.221	8.11
677.409	8.24
677.596	8.34
677.784	8.28
677.971	8.34
678.159	8.4
678.346	8.38
678.534	8.4
678.721	8.32
678.909	8.38
679.096	8.36
679.283	8.35
679.471	8.39
679.658	8.55
679.846	8.51
680.033	8.51
680.22	8.66
680.408	8.63
680.595	8.7
680.782	8.79
680.969	8.79
681.157	8.82
681.344	8.84
681.531	8.85
681.718	8.97
681.905	9.14
682.093	9.13
682.28	9.17
682.467	9.31
682.654	9.23
682.841	9.26
683.028	9.34
683.215	9.51
683.402	9.48
683.589	9.71
683.776	9.76
683.963	9.89
684.15	9.86
684.337	10.01
684.524	9.97
684.711	10.05
684.898	10.14
685.085	10.24
685.271	10.22
685.458	10.43
685.645	10.51
685.832	10.63
686.019	10.89
686.205	11.12
686.392	11.27
686.579	11.44
686.766	11.63
686.952	11.71
687.139	11.86
687.326	12.02
687.512	12.11
687.699	12.14
687.886	12.31
688.072	12.49
688.259	12.7
688.445	13.04
688.632	13.47
688.818	13.62
689.005	13.86
689.191	14.03
689.378	14.26
689.564	14.28
689.751	14.62
689.937	14.89
690.124	15.16
690.31	15.29
690.496	15.55
690.683	15.72
690.869	15.9
691.055	16.2
691.242	16.58
691.428	16.97
691.614	17.36
691.8	17.91
691.987	18.17
692.173	18.52
692.359	18.86
692.545	19.36
692.731	19.62
692.918	19.82
693.104	20.24
693.29	20.6
693.476	20.98
693.662	21.21
693.848	21.85
694.034	22.18
694.22	22.67
694.406	22.99
694.592	23.58
694.778	24.03
694.964	24.45
695.15	24.84
695.336	25.22
695.522	25.41
695.708	25.94
695.894	26.37
696.08	26.93
696.265	27.44
696.451	28.22
696.637	28.42
696.823	28.86
697.009	29.26
697.194	29.68
697.38	30.05
697.566	30.75
697.751	31.29
697.937	31.77
698.123	32.21
698.308	32.46
698.494	32.96
698.68	33.35
698.865	33.72
699.051	34.11
699.236	34.56
699.422	34.8
699.607	35.22
699.793	35.47
699.978	36.03
700.164	36.72
700.349	36.95
700.535	37.51
700.72	38.07
700.906	38.58
701.091	38.82
701.276	39.53
701.462	39.73
701.647	40.21
701.832	40.22
702.018	40.7
702.203	41.08
702.388	41.84
702.573	42.52
702.759	42.82
702.944	43.06
703.129	43.4
703.314	43.47
703.499	43.58
703.684	44.25
703.87	44.6
704.055	44.93
704.24	45.26
704.425	45.53
704.61	45.91
704.795	46.16
704.98	46.43
705.165	46.9
705.35	47.12
705.535	47.27
705.72	47.54
705.905	47.88
706.09	48.1
706.275	48.57
706.459	48.86
706.644	49.18
706.829	49.12
707.014	49.23
707.199	49.38
707.384	49.52
707.568	49.86
707.753	50.24
707.938	50.41
708.123	50.39
708.307	51.14
708.492	51.43
708.677	51.83
708.861	52.13
709.046	52.58
709.231	52.35
709.415	52.51
709.6	52.65
709.784	52.87
709.969	52.82
710.153	53.04
710.338	53.53
710.522	53.68
710.707	53.77
710.891	53.99
711.076	53.87
711.26	53.66
711.445	53.65
711.629	53.93
711.813	54.03
711.998	54.39
712.182	54.64
712.366	54.9
712.551	54.64
712.735	55.07
712.919	55.36
713.103	55.71
713.288	55.96
713.472	56.53
713.656	56.29
713.84	56.33
714.024	56.14
714.208	56.12
714.393	56.37
714.577	56.56
714.761	56.54
714.945	56.73
715.129	56.98
715.313	56.97
715.497	57.42
715.681	57.56
715.865	57.8
716.049	57.93
716.233	57.84
716.417	57.72
716.601	58.06
716.785	58.08
716.968	58.51
717.152	58.5
717.336	58.57
717.52	58.51
717.704	58.24
717.888	58.39
718.071	58.68
718.255	58.51
718.439	58.44
718.622	58.93
718.806	58.15
718.99	58.61
719.174	59.18
719.357	59.79
719.541	59.97
719.724	60.56
719.908	60.42
720.092	60.99
720.275	60.85
720.459	60.62
720.642	60.99
720.826	61.45
721.009	61.12
721.193	61.49
721.376	61.91
721.559	61.7
721.743	61.6
721.926	61.58
722.11	61.55
722.293	61.77
722.476	61.84
722.66	61.97
722.843	61.85
723.026	62.08
723.21	62.44
723.393	62.23
723.576	62.01
723.759	62.37
723.942	62.12
724.126	61.75
724.309	62.43
724.492	62.72
724.675	63.11
724.858	63.62
725.041	63.65
725.224	63.75
725.407	63.93
725.59	64
725.774	64.36
725.957	65.15
726.14	65
726.322	64.9
726.505	64.77
726.688	64.77
726.871	64.54
727.054	64.79
727.237	65.15
727.42	65.55
727.603	65.6
727.786	65.8
727.968	66.19
728.151	66.5
728.334	66.51
728.517	66.45
728.699	66.69
728.882	66.76
729.065	67.07
729.248	67.42
729.43	67.76
729.613	68.03
729.796	68.21
729.978	68.46
730.161	68.64
730.343	68.76
730.526	68.62
730.708	69.32
730.891	69.47
731.073	69.71
731.256	70.01
731.438	70.75
731.621	69.8
731.803	69.78
731.986	69.87
732.168	70.42
732.35	70.38
732.533	71.29
732.715	71.72
732.898	71.82
733.08	71.78
733.262	71.9
733.444	71.85
733.627	71.89
733.809	72.74
733.991	72.24
734.173	72.37
734.355	72.6
734.538	72.97
734.72	72.2
734.902	72.31
735.084	71.99
735.266	71.96
735.448	72.46
735.63	73.8
735.812	74.73
735.994	74.6
736.176	75.06
736.358	74.24
736.54	73.14
736.722	73.21
736.904	73.66
737.086	73.86
737.268	74.09
737.45	74.72
737.632	74.78
737.814	75.6
737.995	75.88
738.177	76.9
738.359	77.82
738.541	78.34
738.723	78.33
738.904	78.61
739.086	78.15
739.268	77.39
739.449	76.78
739.631	76.22
739.813	76.61
739.994	76.88
740.176	76.38
740.358	76.65
740.539	77.02
740.721	76.74
740.902	75.89
741.084	75.81
741.265	76.84
741.447	77.24
741.628	77.27
741.81	78.39
741.991	78.84
742.172	77.61
742.354	77.68
742.535	77.68
742.717	77.78
742.898	79.26
743.079	79.46
743.261	79.78
743.442	80.1
743.623	79.62
743.804	78.63
743.986	79.57
744.167	79.8
744.348	80.14
744.529	79.67
744.71	79.5
744.891	78.8
745.073	78.79
745.254	78.16
745.435	79.82
745.616	80.8
745.797	81.42
745.978	81.97
746.159	82.99
746.34	82.59
746.521	82.32
746.702	81.95
746.883	82.09
747.064	81.86
747.245	81.63
747.426	81.85
747.606	82.48
747.787	80.84
747.968	79.71
748.149	79.8
748.33	79.48
748.51	79.06
748.691	80.78
748.872	81.81
749.053	83.44
749.233	85.18
749.414	85.43
749.595	84.29
749.775	85.01
749.956	84.54
750.137	83.08
750.317	81.81
750.498	81.27
750.678	80.47
750.859	78.78
751.04	78.83
751.22	80.93
751.4	80.74
751.581	81.19
751.761	80.72
751.942	80.95
752.122	80.5
752.303	81.95
752.483	81.78
752.663	82.68
752.844	82.88
753.024	83.77
753.204	84.48
753.385	84.07
753.565	84.35
753.745	83.55
753.925	81.96
754.106	81.63
754.286	82.49
754.466	82.69
754.646	84.84
754.826	85.43
755.006	85.07
755.187	85.29
755.367	85.41
755.547	84.78
755.727	83.18
755.907	83.25
756.087	81.31
756.267	81.05
756.447	80.13
756.627	81.13
756.807	80.38
756.987	82.41
757.167	83.22
757.346	82.91
757.526	82.9
757.706	82.97
757.886	82.61
758.066	80.65
758.246	81.13
758.425	83.22
758.605	83.91
758.785	83.2
758.965	84.98
759.144	85
759.324	83.16
759.504	83.01
759.683	83.43
759.863	82.64
760.043	83.13
760.222	83.72
760.402	83.2
760.581	82.67
760.761	82.72
760.94	81.85
761.12	81.97
761.299	82.37
761.479	81.78
761.658	83.11
761.838	83.8
762.017	84.55
762.197	84.67
762.376	86.66
762.555	83.91
762.735	82.34
762.914	82.14
763.093	81.8
763.273	80.99
763.452	82.95
763.631	83.72
763.81	83.08
763.99	84.53
764.169	85.85
764.348	84.97
764.527	85.54
764.706	84.57
764.885	83.26
765.064	80.8
765.243	82.54
765.423	81.87
765.602	81.87
765.781	82.99
765.96	83.99
766.139	83.6
766.318	84.71
766.497	85.33
766.676	85.71
766.854	86.36
767.033	85.77
767.212	84.27
767.391	84.25
767.57	84.04
767.749	82.32
767.928	81.03
768.106	81.93
768.285	81.27
768.464	81.45
768.643	82.84
768.821	81.55
769	81.41
769.179	84.17
769.357	85.08
769.536	85.5
769.715	84.75
769.893	84.46
770.072	81.5
770.25	79.52
770.429	79.72
770.607	82.01
770.786	82.48
770.964	82.6
771.143	83.49
771.321	80.67
771.5	79.36
771.678	79.2
771.857	80.18
772.035	79.01
772.213	79.78
772.392	81.15
772.57	79.81
772.748	79.79
772.927	81.32
773.105	83.17
773.283	83.68
773.461	84.48
773.64	83.97
773.818	82.25
773.996	79.64
774.174	77.68
774.352	77.03
774.531	76.18
774.709	75.97
774.887	78.13
775.065	79.77
775.243	81.09
775.421	80.55
775.599	80.63
775.777	80.29
775.955	80.19
776.133	80.61
776.311	80.27
776.489	82.77
776.667	83.58
776.844	83.83
777.022	84.7
777.2	85.96
777.378	83.26
777.556	83.28
777.734	83.33
777.911	81.48
778.089	80.4
778.267	80.66
778.445	80.67
778.622	81.08
778.8	80.17
778.978	78.46
779.155	78.19
779.333	77.68
779.511	76.91
779.688	75.76
779.866	79.37
780.043	81.91
780.221	81.63
780.398	81.28
780.576	80.9
780.753	80.74
780.931	77.97
781.108	77.57
781.286	78.92
781.463	82.34
781.64	80.81
781.818	79.37
781.995	79.86
782.172	77.85
782.35	78.18
782.527	78.86
782.704	81.74
782.882	81.26
783.059	82.91
783.236	81.26
783.413	81.63
783.59	82.31
783.768	83.21
783.945	83.81
784.122	84.76
784.299	85.09
784.476	81.46
784.653	82.81
784.83	81.26
785.007	82.02
785.184	83.65
785.361	85.3
785.538	81.61
785.715	85.5
785.892	84.77
786.069	81.13
786.246	82.45
786.423	83.84
786.6	81.49
786.776	83.95
786.953	85.56
787.13	83.04
787.307	83.38
787.484	83.85
787.66	82.44
787.837	82.2
788.014	85.97
788.191	83.76
788.367	84.77
788.544	82.43
788.721	82
788.897	80.5
789.074	79.29
789.25	73.5
789.427	73.34
789.603	76.06
789.78	73.08
789.956	75.04
790.133	78.76
790.309	80.11
790.486	73.63
790.662	76.47
790.839	77.42
791.015	74.84
791.192	74.37
791.368	76.95
791.544	81.06
791.721	82.53
791.897	82.61
792.073	80.39
792.249	83.87
792.426	80.33
792.602	79.21
792.778	82.09
792.954	85.21
793.13	84.9
793.307	86.28
793.483	82.26
793.659	83.84
793.835	84.08
794.011	82.73
794.187	83.24
794.363	88.57
794.539	85.32
794.715	84.91
794.891	85.68
795.067	83.04
795.243	80.64
795.419	80.72
795.595	77.42
795.771	77.43
795.947	73.45
796.122	77.99
796.298	77.12
796.474	79.98
796.65	79.65
796.826	84.03
797.001	78.45
797.177	81
797.353	81.5
797.529	80.04
797.704	81.18
797.88	86.15
798.056	86.01
798.231	83.63
798.407	81.39
798.582	79.58
798.758	75.16
798.934	74.21
799.109	75.59
799.285	80.78
799.46	80.8
799.636	82.58
799.811	81.82
799.986	80.71
800.162	79.55
800.337	77.63
800.513	79.77
800.688	83.91
800.863	87.16
801.039	86.29
801.214	90.45
801.389	81.58
801.565	78.25
801.74	74.99
801.915	73.98
802.09	70.33
802.265	73.34
802.441	75.05
802.616	77.34
802.791	77.34
802.966	77.45
803.141	86.15
803.316	88.02
803.491	88.95
803.666	85.79
803.841	86.33
804.016	81.13
804.191	76.74
804.366	73.45
804.541	76.92
804.716	76.78
804.891	76.3
805.066	74.83
805.241	80.43
805.416	79.18
805.591	79.8
805.765	75.88
805.94	80.93
806.115	77.41
806.29	77.15
806.464	78.66
806.639	82.75
806.814	82.03
806.989	84.82
807.163	84.26
807.338	87.4
807.512	82.85
807.687	81.15
807.862	80.17
808.036	79.33
808.211	78.6
808.385	84.73
808.56	81.09
808.734	76.76
808.909	79.79
809.083	80.2
809.258	69.43
809.432	70.77
809.606	77.63
809.781	77.05
809.955	71.48
810.13	77.9
810.304	80.77
810.478	75.75
810.652	73.58
810.827	76.42
811.001	76.41
811.175	79.82
811.349	75.63
811.524	79.62
811.698	73.57
811.872	70.92
812.046	64.61
812.22	66.63
812.394	68.39
812.568	84.35
812.742	85.63
812.916	94.05
813.09	97.04
813.264	95.39
813.438	92.78
813.612	93.96
813.786	95.04
813.96	87.81
814.134	88.45
814.308	82.02
814.482	84.78
814.656	79.67
814.83	83.98
815.003	92.61
815.177	99.62
815.351	96.87
815.525	93.86
815.698	95.14
815.872	83.22
816.046	77.44
816.219	79.47
816.393	79.06
816.567	76.48
816.74	81.43
816.914	77.31
817.088	79.91
817.261	84.5
817.435	85.82
817.608	81.73
817.782	86.48
817.955	86.64
818.129	80.34
818.302	73.58
818.475	72.43
818.649	64.03
818.822	63.9
818.996	54.82
819.169	63.4
819.342	65.3
819.516	78.31
819.689	69.4
819.862	87.74
820.035	88.11
820.209	80.85
820.382	73.85
820.555	79.66
820.728	65.2
820.901	71.97
821.075	73.45
821.248	67.95
821.421	78.68
821.594	83.65
821.767	72.8
821.94	75.68
822.113	77.1
822.286	66.38
822.459	67.74
822.632	75.92
822.805	79.69
822.978	84.5
823.151	86.42
823.324	98.37
823.496	92.12
823.669	89.23
823.842	87.72
824.015	90.94
824.188	82.34
824.361	93.03
824.533	94.39
824.706	93.34
824.879	81.56
825.051	77.09
825.224	73.11
825.397	75.53
825.569	68.36
825.742	72.75
825.915	71
826.087	65.69
826.26	66.5
826.432	87.29
826.605	87.97
826.777	88.82
826.95	89.8
827.122	85.6
827.295	81.15
827.467	89.02
827.64	90.01
827.812	103.06
827.984	90.21
828.157	84.88
828.329	84.58
828.501	82.41
828.674	70.22
828.846	100.54
829.018	89.15
829.19	82.89
829.363	86.53
829.535	83.97
829.707	72.26
829.879	87.15
830.051	81.01
830.223	90.57
830.395	98.95
830.568	92.09
830.74	80.34
830.912	93.83
831.084	69.02
831.256	66.59
831.428	64.21
831.6	71.44
831.772	83.93
831.943	93.71
832.115	87.05
832.287	99.89
832.459	96.51
832.631	80.61
832.803	76.23
832.975	74.99
833.146	69.15
833.318	96.02
833.49	87.59
833.662	87.22
833.833	89.66
834.005	81.24
834.177	78.09
834.348	91.79
834.52	82.18
834.692	83.07
834.863	88.82
835.035	69.49
835.206	69.3
835.378	84.61
835.549	100.54
835.721	96.14
835.892	100.07
836.064	82.27
836.235	72.8
836.407	67.11
836.578	76.42
836.749	70.53
836.921	73.13
837.092	57.27
837.264	58.4
837.435	24.75
837.606	32.64
837.777	28.09
837.949	42.5
838.12	44.26
838.291	63.13
838.462	78.92
838.633	92.35
838.805	104.63
838.976	106.74
839.147	116.62
839.318	125.3
839.489	126.75
839.66	82.2
839.831	54.15
840.002	54.42
840.173	65.11
840.344	61.42
840.515	70.45
840.686	77.3
840.857	83.81
841.028	79.23
841.199	78.68
841.369	90.78
841.54	100.73
841.711	107.25
841.882	92.39
842.053	94.56
842.223	99.02
842.394	77.25
842.565	108.99
842.736	108.86
842.906	98.65
843.077	66.5
843.248	68.36
843.418	62.79
843.589	70.88
843.759	68.61
843.93	103.64
844.101	104.89
844.271	89.82
844.442	77.66
844.612	67.69
844.783	74.93
844.953	117.56
845.123	96.71
845.294	89.99
845.464	104.17
845.635	102.53
845.805	74.99
845.975	94.68
846.146	98.13
846.316	98
846.486	89.5
846.656	74.26
846.827	80.13
846.997	76.4
847.167	81.03
847.337	96.62
847.507	104.48
847.677	99.29
847.848	101.69
848.018	102.16
848.188	86.98
848.358	86.57
848.528	74.61
848.698	94.81
848.868	82.97
849.038	87.67
849.208	99.3
849.378	98.84
849.548	101.72
849.718	133.09
849.887	101.75
850.057	104.83
850.227	129.3
850.397	91.27
850.567	75.31
850.737	102.64
850.906	93.11
851.076	99.24
851.246	126.82
851.415	148.22
851.585	139.13
851.755	160.66
851.924	145.85
852.094	111.34
852.264	88.5
852.433	115.08
852.603	93.58
852.772	85.68
852.942	110.12
853.111	107.49
853.281	94.87
853.45	93.38
853.62	115.9
853.789	102.66
853.959	80.53
854.128	82.61
854.297	106.09
854.467	97.44
854.636	83.47
854.805	154.63
854.975	250.08
855.144	155.22
855.313	137.26
855.482	125.12
855.652	101.3
855.821	95.02
855.99	74.76
856.159	83.92
856.328	84.99
856.497	98.7
856.667	133.96
856.836	140.23
857.005	116.72
857.174	115.53
857.343	133.38
857.512	86.32
857.681	97.88
857.85	112.07
858.019	113.07
858.188	139.77
858.356	157.54
858.525	209.34
858.694	545.47
858.863	362.42
859.032	267.43
859.201	373.98
859.369	272.47
859.538	157.11
859.707	119.78
859.876	98.99
860.044	61.29
860.213	63.77
860.382	63.8
860.55	82.53
860.719	88.17
860.888	94.51
861.056	92.89
861.225	84.8
861.393	74.99
861.562	53.23
861.73	67.69
861.899	88.31
862.067	88.82
862.236	93.64
862.404	101.08
862.572	114.57
862.741	122.26
862.909	122.76
863.078	112.61
863.246	121.18
863.414	84.49
863.582	43.9
863.751	65.23
863.919	72.89
864.087	73.72
864.255	99.86
864.424	132.34
864.592	156.27
864.76	150.58
864.928	118.06
865.096	100.98
865.264	81.78
865.432	74.84
865.6	60.78
865.768	83.41
865.936	87.23
866.104	112.73
866.272	108.9
866.44	117.94
866.608	91.24
866.776	91.63
866.944	73.95
867.112	74.42
867.28	90.2
867.448	84.17
867.615	74.59
867.783	75.81
867.951	94.47
868.119	44.8
868.286	44.78
868.454	41.26
868.622	24.17
868.789	19.55
868.957	35.14
869.125	96.85
869.292	92.52
869.46	94.18
869.627	109.86
869.795	111.85
869.963	111.56
870.13	124.31
870.298	114.4
870.465	87.54
870.632	93.48
870.8	92.43
870.967	81.98
871.135	82.45
871.302	97.24
871.469	50.19
871.637	29.15
871.804	46.22
871.971	56.54
872.139	61.55
872.306	46.02
872.473	75.05
872.64	82.49
872.807	85.08
872.975	81.57
873.142	139.57
873.309	138.51
873.476	123.58
873.643	126.59
873.81	162.11
873.977	117.44
874.144	97.31
874.311	126.69
874.478	128.09
874.645	136.67
874.812	153.16
874.979	100.87
875.146	95.14
875.313	105.18
875.48	70.87
875.647	94.2
875.813	126.41
875.98	122.32
876.147	119.24
876.314	152.94
876.481	168.18
876.647	312.76
876.814	261.6
876.981	-388.89
877.147	-138.42
877.314	104.78
877.481	91.77
877.647	80.36
877.814	105.18
877.98	109.6
878.147	117.06
878.314	95.57
878.48	118.53
878.647	77.27
878.813	33.52
878.979	50.56
879.146	87.6
879.312	96.91
879.479	108.47
879.645	132.94
879.811	170.24
879.978	162.21
880.144	138.29
880.31	218.27
880.477	193.02
880.643	126.25
880.809	179.41
880.975	204.12
881.142	62.42
881.308	90.23
881.474	83.06
881.64	91.22
881.806	113.17
881.972	157
882.138	104.65
882.304	74.7
882.47	143.4
882.636	265.4
882.802	178.6
882.968	162.89
883.134	148.52
883.3	103.95
883.466	70.88
883.632	72.06
883.798	69.54
883.964	70.27
884.129	75.72
884.295	85.14
884.461	84.75
884.627	87.22
884.793	79.84
884.958	91.86
885.124	102.28
885.29	110.7
885.455	142.5
885.621	302.84
885.787	299.39
885.952	617.49
886.118	446.13
886.283	170.74
886.449	134.35
886.614	83.28
886.78	72.13
886.945	152.87
887.111	676.89
887.276	-3796.3
887.442	-1479.05
887.607	523.41
887.773	270.2
887.938	191.9
888.103	155.6
888.269	162.27
888.434	189.14
888.599	99.38
888.764	79.64
888.93	113.27
889.095	115.69
889.26	148.01
889.425	-6452.38
889.59	-1678.67
889.756	350.12
889.921	1582.05
890.086	163.85
890.251	40.55
890.416	56.48
890.581	25.59
890.746	57.13
890.911	54.94
891.076	91.96
891.241	71.31
891.406	75.57
891.571	80.52
891.736	124.28
891.901	96.62
892.065	169.45
892.23	182.05
892.395	173.02
892.56	79.14
892.725	23.73
892.889	4.57
893.054	62.23
893.219	59.89
893.384	85.01
893.548	148.16
893.713	186.78
893.878	205.43
