Data from Ofav_PP_Phys_4JQ12_Reflection_3.txt Node
Date: Tue Aug 03 18:17:42 EDT 2021
User: Adam
Spectrometer: FLMT01687
Trigger mode: 0
Integration Time (sec): 8.750000E-1
Scans to average: 2
Electric dark correction enabled: true
Nonlinearity correction enabled: false
Boxcar width: 2
XAxis mode: Wavelengths
Number of Pixels in Spectrum: 3648
>>>>>Begin Spectral Data<<<<<
179.494	250.15
179.716	291.52
179.937	437.29
180.158	650.66
180.38	2907.02
180.601	180.31
180.823	254.53
181.044	122.29
181.265	269.66
181.486	-394.53
181.708	-32.93
181.929	-34.84
182.15	57.6
182.372	455.27
182.593	-336.29
182.814	-65.57
183.035	684.4
183.257	2327.45
183.478	-1.1
183.699	-170.68
183.92	-49.59
184.141	20.81
184.363	79.86
184.584	-20.88
184.805	16.81
185.026	-25.08
185.247	-34.02
185.468	-23.43
185.689	-6.86
185.91	20.64
186.132	23.64
186.353	39.05
186.574	15.55
186.795	24.72
187.016	18.9
187.237	32.43
187.458	22.99
187.679	12.5
187.9	-0.35
188.121	8.67
188.342	-22.32
188.563	-11.78
188.784	-12.78
189.005	-16.34
189.226	-44.21
189.447	-13.19
189.667	-32.81
189.888	3.42
190.109	10.66
190.33	30.83
190.551	58.1
190.772	66.46
190.993	13.85
191.214	14.08
191.434	11.88
191.655	-7.94
191.876	10.05
192.097	48.31
192.318	64.42
192.538	65.11
192.759	57.4
192.98	50.61
193.201	31.81
193.421	15.64
193.642	15.31
193.863	-0.24
194.083	21.55
194.304	26.6
194.525	30.95
194.745	36.87
194.966	91.74
195.187	92.85
195.407	107.02
195.628	104.52
195.848	89.68
196.069	80.78
196.29	56.76
196.51	33.97
196.731	34.13
196.951	27.04
197.172	42.36
197.392	69.65
197.613	68.92
197.833	81.04
198.054	134.32
198.274	79.84
198.495	59.49
198.715	71.83
198.936	75.69
199.156	57.23
199.377	73.43
199.597	87.74
199.817	89.32
200.038	47.88
200.258	55.16
200.479	19.86
200.699	-23.16
200.919	-47.2
201.14	29.24
201.36	16.92
201.58	28.45
201.801	11.43
202.021	-9.91
202.241	-28
202.461	-5.37
202.682	-5.35
202.902	9.97
203.122	52.6
203.342	49.81
203.563	7.47
203.783	12.53
204.003	22.86
204.223	28.42
204.443	7.66
204.663	25.35
204.884	32.45
205.104	3.62
205.324	-5.19
205.544	17.08
205.764	2.75
205.984	-43.12
206.204	19.62
206.424	-36.04
206.644	23.3
206.864	9.73
207.084	37
207.304	3.57
207.525	60.67
207.745	26.95
207.964	-11.01
208.184	8.94
208.404	34.65
208.624	23.46
208.844	20.87
209.064	63.13
209.284	74.43
209.504	49.53
209.724	24.95
209.944	30.24
210.164	14.02
210.384	7.76
210.604	1.95
210.823	30.24
211.043	29.51
211.263	44.3
211.483	40.36
211.703	65.12
211.922	57.63
212.142	48.5
212.362	22.91
212.582	34.91
212.801	20.3
213.021	48.84
213.241	33.55
213.461	45.18
213.68	58.57
213.9	34.79
214.12	-4.49
214.339	30.99
214.559	35.11
214.779	-6.4
214.998	30.92
215.218	57.28
215.438	36.47
215.657	44.94
215.877	59.08
216.096	42.76
216.316	13.26
216.535	9.52
216.755	-26.07
216.974	-11.42
217.194	-2.35
217.413	34.18
217.633	39.46
217.852	55.16
218.072	50.49
218.291	35.59
218.511	13.48
218.73	42.45
218.95	29.95
219.169	30.71
219.389	40.29
219.608	55.39
219.827	17.68
220.047	-0.54
220.266	2.3
220.485	16.51
220.705	12.42
220.924	19.85
221.143	20.79
221.363	36.63
221.582	28.21
221.801	-13.97
222.021	-1.82
222.24	20.63
222.459	-46.98
222.678	-11.62
222.897	28.24
223.117	-3.55
223.336	-133.57
223.555	19.23
223.774	-47.88
223.993	-44.47
224.213	-41.45
224.432	0.05
224.651	13.42
224.87	35.33
225.089	26.87
225.308	24.71
225.527	10.32
225.746	-30.13
225.965	-38.02
226.184	-40.59
226.404	31.6
226.623	59.8
226.842	62.5
227.061	27.83
227.28	33.58
227.499	26.02
227.718	16.94
227.936	23.55
228.155	43.79
228.374	58.14
228.593	55.31
228.812	39.17
229.031	27.84
229.25	61.78
229.469	37.02
229.688	5.15
229.907	-17.96
230.125	3.84
230.344	-53.96
230.563	-44.61
230.782	-21.2
231.001	34.43
231.22	31.3
231.438	29.89
231.657	4.11
231.876	5.41
232.095	-7.52
232.313	-18.42
232.532	-33.7
232.751	24.88
232.969	47.68
233.188	41.58
233.407	40.68
233.625	69.93
233.844	56.24
234.063	49.74
234.281	61.82
234.5	50.1
234.719	18.96
234.937	19.69
235.156	-10.41
235.374	-13.4
235.593	-6.1
235.811	4.1
236.03	10.69
236.249	45.64
236.467	37.37
236.686	27.65
236.904	27.31
237.123	45.91
237.341	36.33
237.559	50.38
237.778	57.77
237.996	45.16
238.215	30.05
238.433	19.11
238.652	8.36
238.87	28.03
239.088	36.23
239.307	26.72
239.525	29.37
239.743	36.41
239.962	30.68
240.18	39.65
240.398	66.21
240.617	68.62
240.835	44.13
241.053	24.25
241.271	-29.38
241.49	-52.94
241.708	-26.14
241.926	-30.1
242.144	-17.74
242.363	5.05
242.581	12.5
242.799	0.03
243.017	33.88
243.235	58.48
243.453	55.53
243.672	59.79
243.89	70.04
244.108	49.38
244.326	17.9
244.544	21.49
244.762	29.94
244.98	13.65
245.198	16.5
245.416	35.3
245.634	27.59
245.852	5.24
246.07	7.7
246.288	-4.16
246.506	23.2
246.724	37.41
246.942	49.5
247.16	48.76
247.378	34.83
247.596	7.85
247.814	7.79
248.032	22.5
248.25	0.83
248.468	10.78
248.685	18.88
248.903	-12.31
249.121	-31.26
249.339	6.79
249.557	20.61
249.775	2.33
249.992	47.81
250.21	55.8
250.428	32.99
250.646	5.86
250.863	39.58
251.081	13.33
251.299	-26.32
251.517	12.9
251.734	13.71
251.952	-9.17
252.17	-24.54
252.387	-29.8
252.605	-63.32
252.823	-46.15
253.04	-50.48
253.258	13.48
253.475	42.22
253.693	40.1
253.911	67.83
254.128	52.15
254.346	45.8
254.563	45.26
254.781	63.59
254.998	47.75
255.216	45.75
255.433	54.85
255.651	34.85
255.868	-4.34
256.086	-16.6
256.303	6.58
256.521	4.75
256.738	8.52
256.956	23.96
257.173	32.16
257.39	24.9
257.608	30.45
257.825	5.75
258.043	-48.56
258.26	-25.36
258.477	2.28
258.695	-2.97
258.912	11.35
259.129	34.09
259.346	61.05
259.564	41.04
259.781	46.98
259.998	56
260.216	49.7
260.433	18.69
260.65	14.05
260.867	14.58
261.084	9.42
261.302	-10.02
261.519	2.52
261.736	35.8
261.953	29.01
262.17	18.75
262.387	32.97
262.604	26.04
262.822	11.58
263.039	22.48
263.256	30
263.473	35.84
263.69	62.75
263.907	53.72
264.124	31.12
264.341	7.56
264.558	-21.91
264.775	-53.51
264.992	-30.04
265.209	-37.98
265.426	-38
265.643	-11.75
265.86	1.79
266.077	15.95
266.294	32.01
266.51	58.97
266.727	76.6
266.944	81.45
267.161	74.71
267.378	71.5
267.595	44.84
267.812	41.44
268.028	30.08
268.245	31.6
268.462	45.23
268.679	61.68
268.896	22.64
269.112	23.32
269.329	-24.85
269.546	-102.39
269.763	-69.28
269.979	-19.5
270.196	-0.93
270.413	20.17
270.629	24.67
270.846	41.66
271.063	38.7
271.279	36.12
271.496	56.46
271.712	46.64
271.929	30.1
272.146	43.84
272.362	30.83
272.579	7.7
272.795	18.38
273.012	11.89
273.228	15.9
273.445	28.5
273.661	34.36
273.878	43.81
274.094	40.24
274.311	48.23
274.527	15
274.744	23.35
274.96	2.59
275.177	-16.53
275.393	-42.23
275.609	-3.87
275.826	-18.64
276.042	6.38
276.259	20.96
276.475	15.87
276.691	13.76
276.908	29.5
277.124	19.76
277.34	21.73
277.557	23.84
277.773	29.2
277.989	26.96
278.205	28.46
278.422	30.04
278.638	34.26
278.854	26.14
279.07	24.96
279.286	21.94
279.503	28.91
279.719	23.86
279.935	26.53
280.151	28.79
280.367	25.33
280.583	8.42
280.799	19.92
281.016	19.61
281.232	-1.45
281.448	-0.95
281.664	1.8
281.88	9.08
282.096	20.54
282.312	7.78
282.528	1.24
282.744	8.46
282.96	-4.61
283.176	2.73
283.392	25.17
283.608	33.33
283.824	36.1
284.04	38.48
284.256	31.23
284.471	27.88
284.687	33.97
284.903	21.35
285.119	1.79
285.335	-7.6
285.551	-11.83
285.767	-10.05
285.982	-0.38
286.198	33.05
286.414	20.32
286.63	5.55
286.846	-15.66
287.061	-13.35
287.277	-69.58
287.493	-30.7
287.709	-64.13
287.924	-23.46
288.14	-27.38
288.356	-21.37
288.571	-37.39
288.787	4.68
289.003	-4.13
289.218	-22.1
289.434	15.02
289.65	24.15
289.865	3.64
290.081	-71.14
290.296	-21.23
290.512	3.52
290.727	15.91
290.943	38.82
291.159	70.39
291.374	70.47
291.59	65.68
291.805	65.76
292.021	70.24
292.236	61.05
292.451	49.63
292.667	47.37
292.882	22.39
293.098	-2.96
293.313	-9.08
293.529	11.36
293.744	4.55
293.959	37.91
294.175	34.39
294.39	38.79
294.605	29.39
294.821	23.34
295.036	18.15
295.251	18.71
295.467	6.89
295.682	5.95
295.897	6.22
296.112	7.98
296.328	11.13
296.543	29.67
296.758	22.27
296.973	7.85
297.188	0.9
297.404	21.07
297.619	12.14
297.834	27.64
298.049	33.66
298.264	53.06
298.479	30
298.694	8.22
298.909	1.49
299.125	21.9
299.34	7.45
299.555	21.02
299.77	25.22
299.985	56.64
300.2	65.69
300.415	70.39
300.63	51.78
300.845	61.82
301.06	35.83
301.275	-9.55
301.49	9
301.704	26.56
301.919	31.55
302.134	32.55
302.349	44.62
302.564	50.32
302.779	44.21
302.994	41.24
303.209	41.56
303.423	34.92
303.638	29.16
303.853	41.71
304.068	47.67
304.283	47.33
304.497	52.32
304.712	65.98
304.927	55.57
305.142	59.43
305.356	58.96
305.571	54.25
305.786	44.43
306	64.92
306.215	52.15
306.43	64.82
306.644	54.94
306.859	45.37
307.074	38.39
307.288	48.8
307.503	25.36
307.717	17.12
307.932	4.55
308.147	14.33
308.361	-13.44
308.576	-13.24
308.79	28.42
309.005	48.03
309.219	26.68
309.434	28.4
309.648	43.67
309.863	20.1
310.077	9.98
310.292	19.19
310.506	37.29
310.72	39.42
310.935	22.23
311.149	12.93
311.364	-11.88
311.578	-34.26
311.792	-44.82
312.007	-32.09
312.221	5.89
312.435	-9.97
312.649	12.29
312.864	10.83
313.078	13.81
313.292	-9.12
313.507	9.53
313.721	5.71
313.935	-0.32
314.149	-14.36
314.363	19.58
314.578	15.3
314.792	18.79
315.006	8.29
315.22	6.24
315.434	-19.95
315.648	-35.8
315.862	-6.6
316.077	5.71
316.291	25.41
316.505	36.29
316.719	37.59
316.933	35.19
317.147	26.41
317.361	12.99
317.575	32.17
317.789	33.17
318.003	42.05
318.217	39.87
318.431	40.15
318.645	2.28
318.859	0.49
319.073	-15.05
319.287	7.05
319.5	23.3
319.714	50.19
319.928	66.02
320.142	65.99
320.356	42.62
320.57	40.44
320.784	28.68
320.997	3.8
321.211	13.81
321.425	19.58
321.639	21.84
321.853	0.42
322.066	2.06
322.28	4.01
322.494	3.43
322.707	-33.66
322.921	-21.48
323.135	-9.19
323.349	4.33
323.562	26.85
323.776	53.84
323.989	53.42
324.203	55.37
324.417	42.94
324.63	46.08
324.844	36.83
325.057	36.93
325.271	23.41
325.485	34.79
325.698	-7.49
325.912	-35.2
326.125	-2.91
326.339	-13.37
326.552	-41.64
326.766	-10.45
326.979	2.94
327.193	-24.2
327.406	-16.38
327.619	10.34
327.833	-17.74
328.046	2.5
328.26	38.89
328.473	25.74
328.686	37.19
328.9	45.87
329.113	41.4
329.326	32.8
329.54	45.42
329.753	28.5
329.966	44.44
330.179	18.16
330.393	10.5
330.606	3.24
330.819	3.25
331.032	-18.22
331.246	1.22
331.459	-7.7
331.672	-17.62
331.885	2.49
332.098	15.97
332.311	30.02
332.525	55.47
332.738	55.37
332.951	43.69
333.164	48.63
333.377	42.96
333.59	11.16
333.803	8.01
334.016	10.59
334.229	-2.22
334.442	-23.12
334.655	-6.06
334.868	-3.7
335.081	-1.13
335.294	1.04
335.507	12.4
335.72	13.36
335.933	21.37
336.146	18.43
336.359	17.23
336.572	24.47
336.785	29.93
336.997	37.63
337.21	23.39
337.423	31.49
337.636	32.72
337.849	24.85
338.062	20.09
338.274	11.84
338.487	25.19
338.7	19.23
338.913	30.71
339.125	26.19
339.338	29.59
339.551	8.77
339.763	-6.38
339.976	-10.09
340.189	-9.31
340.402	-6.94
340.614	13.91
340.827	47.71
341.039	48.35
341.252	60.01
341.465	70.02
341.677	51.2
341.89	46.08
342.102	39.5
342.315	28.67
342.527	34.04
342.74	57.71
342.952	36.09
343.165	51.81
343.377	36.03
343.59	24.28
343.802	-13.98
344.015	-37.11
344.227	-75.12
344.44	-34.68
344.652	-12.25
344.864	-7.62
345.077	-4.04
345.289	-6.97
345.502	-29.34
345.714	-61.92
345.926	-37.45
346.139	-8.92
346.351	3.81
346.563	13.94
346.775	14.96
346.988	10.42
347.2	12.32
347.412	22.41
347.624	28.22
347.837	24.71
348.049	13.52
348.261	-11.07
348.473	-29.36
348.685	-22.98
348.897	-2.72
349.11	3.15
349.322	7.77
349.534	12.12
349.746	6.15
349.958	11.11
350.17	15.21
350.382	23.5
350.594	17.4
350.806	32.58
351.018	23.24
351.23	19.33
351.442	18.43
351.654	6.33
351.866	1.82
352.078	-13.32
352.29	-17.78
352.502	-14.74
352.714	-9.1
352.926	-16.09
353.138	-8.75
353.35	2.17
353.561	21.39
353.773	34.39
353.985	39.69
354.197	45.47
354.409	47.31
354.621	39.72
354.832	37.23
355.044	38.69
355.256	38.68
355.468	36.7
355.679	30.86
355.891	28.37
356.103	36.21
356.314	33.51
356.526	27.91
356.738	32.23
356.949	31.62
357.161	-6.42
357.373	4.06
357.584	16.83
357.796	8.67
358.008	3.67
358.219	23.6
358.431	14.89
358.642	14.35
358.854	7.6
359.065	19.39
359.277	41.57
359.488	33.06
359.7	36.47
359.911	33.14
360.123	16.6
360.334	-6.27
360.546	14.64
360.757	1.04
360.969	8.89
361.18	23.03
361.391	34.38
361.603	27.06
361.814	19.07
362.025	22.87
362.237	26.81
362.448	11.57
362.659	8.55
362.871	8.64
363.082	1.45
363.293	-10.84
363.504	9.3
363.716	23.92
363.927	37.28
364.138	36.73
364.349	48.96
364.56	43.22
364.772	53.54
364.983	36.22
365.194	29.72
365.405	16.43
365.616	6.38
365.827	2.1
366.038	13.55
366.25	20.75
366.461	40.16
366.672	35.79
366.883	25.98
367.094	25.45
367.305	27.91
367.516	9.09
367.727	25.24
367.938	26.37
368.149	25.48
368.36	12.53
368.571	18.82
368.781	15.88
368.992	18.16
369.203	28.41
369.414	39.19
369.625	42.4
369.836	40.93
370.047	43.85
370.258	36.47
370.468	40.92
370.679	51.82
370.89	55.96
371.101	51.66
371.312	51.07
371.522	46.11
371.733	39.06
371.944	38.37
372.155	38.74
372.365	36.43
372.576	40.6
372.787	35.82
372.997	31.59
373.208	26.44
373.419	10.59
373.629	10.42
373.84	19.11
374.05	18.19
374.261	12.87
374.472	33.4
374.682	31.89
374.893	28.73
375.103	19.79
375.314	36.41
375.524	33.39
375.735	29.68
375.945	22.56
376.156	31.64
376.366	16.69
376.577	10.43
376.787	12.42
376.997	14.94
377.208	12.98
377.418	25.37
377.629	26.33
377.839	18.13
378.049	18.69
378.26	17.94
378.47	4.66
378.68	1.05
378.89	9.25
379.101	11.89
379.311	23.86
379.521	36.01
379.732	45.17
379.942	49.64
380.152	52.25
380.362	43.43
380.572	41.29
380.783	38.19
380.993	32.75
381.203	27.51
381.413	14.27
381.623	18.04
381.833	16.32
382.043	11.88
382.253	13.31
382.463	17.83
382.674	14.28
382.884	8.62
383.094	4.84
383.304	9.53
383.514	8.18
383.724	-7.37
383.934	3.82
384.144	12.28
384.353	7.22
384.563	9.41
384.773	17.55
384.983	9.35
385.193	8.97
385.403	11.76
385.613	13.4
385.823	16.9
386.033	17.05
386.242	18.47
386.452	15.76
386.662	17.33
386.872	9.95
387.082	6.03
387.291	2.07
387.501	2.28
387.711	-1.28
387.921	7.23
388.13	11.91
388.34	10.94
388.55	12.66
388.759	13.81
388.969	9.04
389.179	7.15
389.388	4.22
389.598	4.62
389.807	3.67
390.017	4.58
390.227	4.38
390.436	6.27
390.646	2.37
390.855	0.6
391.065	0.45
391.274	1.82
391.484	2.38
391.693	3.87
391.903	4.53
392.112	5.56
392.322	4.26
392.531	3.7
392.74	2.21
392.95	3.23
393.159	1.17
393.369	2.33
393.578	1.77
393.787	4.3
393.997	4.23
394.206	5.61
394.415	4
394.625	4.77
394.834	4.24
395.043	4.4
395.252	3.98
395.462	4.64
395.671	3.31
395.88	3.13
396.089	2.69
396.298	2.66
396.508	2.59
396.717	3.8
396.926	3.27
397.135	2.53
397.344	2.34
397.553	1.91
397.762	1.15
397.971	1.21
398.181	1.67
398.39	2.22
398.599	2.58
398.808	2.79
399.017	2.49
399.226	2.02
399.435	1.39
399.644	1.27
399.853	1.16
400.062	1.32
400.27	1.65
400.479	1.94
400.688	2.09
400.897	2.22
401.106	2.26
401.315	2.45
401.524	2.71
401.733	2.25
401.941	2.15
402.15	2.24
402.359	2.22
402.568	1.78
402.777	1.88
402.985	2.04
403.194	1.94
403.403	1.83
403.612	1.93
403.82	1.98
404.029	1.82
404.238	2.08
404.446	1.97
404.655	1.98
404.864	1.91
405.072	2.11
405.281	1.89
405.489	2.12
405.698	2.07
405.906	2.21
406.115	2.06
406.324	2.12
406.532	1.86
406.741	1.84
406.949	1.93
407.158	1.95
407.366	1.95
407.574	1.97
407.783	2.02
407.991	1.94
408.2	1.74
408.408	1.64
408.617	1.71
408.825	1.7
409.033	1.65
409.242	1.7
409.45	1.52
409.658	1.7
409.867	1.76
410.075	1.79
410.283	1.91
410.491	2.11
410.7	1.98
410.908	1.83
411.116	1.72
411.324	1.73
411.533	1.61
411.741	1.55
411.949	1.5
412.157	1.53
412.365	1.49
412.573	1.66
412.781	1.7
412.99	1.93
413.198	1.98
413.406	1.89
413.614	1.72
413.822	1.7
414.03	1.65
414.238	1.63
414.446	1.71
414.654	1.83
414.862	1.88
415.07	1.67
415.278	1.65
415.486	1.7
415.694	1.76
415.902	1.68
416.109	1.85
416.317	1.87
416.525	1.79
416.733	1.77
416.941	1.77
417.149	1.65
417.357	1.58
417.564	1.51
417.772	1.36
417.98	1.44
418.188	1.59
418.395	1.64
418.603	1.75
418.811	1.87
419.019	1.84
419.226	1.71
419.434	1.53
419.642	1.62
419.849	1.53
420.057	1.48
420.265	1.43
420.472	1.72
420.68	1.53
420.887	1.49
421.095	1.35
421.302	1.56
421.51	1.33
421.717	1.32
421.925	1.3
422.132	1.49
422.34	1.39
422.547	1.37
422.755	1.36
422.962	1.44
423.17	1.4
423.377	1.47
423.585	1.5
423.792	1.49
423.999	1.43
424.207	1.44
424.414	1.13
424.621	1.04
424.829	1.15
425.036	1.27
425.243	1.15
425.451	1.31
425.658	1.38
425.865	1.32
426.072	1.2
426.28	1.23
426.487	1.28
426.694	1.2
426.901	1.18
427.108	1.26
427.315	1.47
427.523	1.37
427.73	1.46
427.937	1.63
428.144	1.55
428.351	1.32
428.558	1.19
428.765	1.19
428.972	1.17
429.179	1.16
429.386	1.11
429.593	1.39
429.8	1.65
430.007	1.6
430.214	1.69
430.421	1.89
430.628	1.81
430.835	1.78
431.042	1.7
431.249	1.71
431.456	1.74
431.662	1.77
431.869	1.77
432.076	1.67
432.283	1.57
432.49	1.51
432.697	1.5
432.903	1.44
433.11	1.58
433.317	1.44
433.524	1.31
433.73	1.48
433.937	1.28
434.144	1.32
434.35	1.44
434.557	1.61
434.764	1.55
434.97	1.81
435.177	1.79
435.384	1.97
435.59	1.84
435.797	1.74
436.003	1.5
436.21	1.41
436.416	1.28
436.623	1.31
436.829	1.32
437.036	1.47
437.242	1.55
437.449	1.52
437.655	1.65
437.862	1.63
438.068	1.52
438.275	1.53
438.481	1.51
438.687	1.52
438.894	1.67
439.1	1.8
439.307	1.69
439.513	1.76
439.719	1.63
439.926	1.59
440.132	1.62
440.338	1.82
440.544	1.72
440.751	1.87
440.957	1.7
441.163	1.64
441.369	1.54
441.575	1.69
441.782	1.7
441.988	1.9
442.194	2
442.4	2.01
442.606	2.02
442.812	2
443.018	1.83
443.224	1.77
443.431	1.67
443.637	1.71
443.843	1.74
444.049	1.76
444.255	1.86
444.461	2.04
444.667	1.98
444.873	1.74
445.079	1.79
445.284	1.73
445.49	1.76
445.696	1.79
445.902	1.98
446.108	2.07
446.314	2.08
446.52	2.14
446.726	2.13
446.931	2.11
447.137	2.05
447.343	2.03
447.549	1.98
447.755	2.03
447.96	1.95
448.166	2.02
448.372	1.93
448.578	1.9
448.783	1.9
448.989	2.03
449.195	1.88
449.4	1.98
449.606	1.98
449.812	1.99
450.017	1.87
450.223	2.04
450.428	2.16
450.634	2.17
450.84	2.1
451.045	2.26
451.251	2.27
451.456	2.12
451.662	1.87
451.867	1.85
452.073	1.78
452.278	1.66
452.483	1.6
452.689	1.84
452.894	1.85
453.1	1.82
453.305	1.9
453.51	2
453.716	1.94
453.921	1.94
454.127	1.98
454.332	2.04
454.537	2.06
454.742	2.11
454.948	2.17
455.153	2.19
455.358	2.04
455.563	1.93
455.769	1.85
455.974	1.87
456.179	1.83
456.384	1.8
456.589	1.96
456.795	2.03
457	2.03
457.205	1.95
457.41	2
457.615	1.97
457.82	1.95
458.025	1.9
458.23	2.03
458.435	2.04
458.64	2.03
458.845	2.03
459.05	1.98
459.255	2.01
459.46	1.99
459.665	1.95
459.87	2
460.075	2.02
460.28	2
460.485	2.05
460.69	2
460.895	2.05
461.099	2.12
461.304	2.04
461.509	1.99
461.714	2.08
461.919	1.94
462.123	1.91
462.328	1.96
462.533	2.05
462.738	2.06
462.942	2.16
463.147	2.19
463.352	2.08
463.556	2.13
463.761	2.12
463.966	2.07
464.17	2.04
464.375	2.18
464.58	2.19
464.784	2.19
464.989	2.2
465.193	2.25
465.398	2.24
465.602	2.05
465.807	2.1
466.011	2.16
466.216	2.1
466.42	2.15
466.625	2.3
466.829	2.15
467.034	2.09
467.238	2.03
467.443	1.98
467.647	1.98
467.851	2.17
468.056	2.16
468.26	2.3
468.464	2.29
468.669	2.24
468.873	2.05
469.077	2.04
469.282	2.04
469.486	2.08
469.69	2.1
469.894	2.17
470.099	2.18
470.303	2.1
470.507	2.12
470.711	2.21
470.915	2.25
471.119	2.35
471.324	2.5
471.528	2.45
471.732	2.39
471.936	2.38
472.14	2.22
472.344	2.19
472.548	2.26
472.752	2.24
472.956	2.2
473.16	2.34
473.364	2.33
473.568	2.36
473.772	2.33
473.976	2.45
474.18	2.46
474.384	2.47
474.588	2.53
474.792	2.65
474.995	2.49
475.199	2.42
475.403	2.3
475.607	2.24
475.811	2.21
476.015	2.21
476.218	2.28
476.422	2.43
476.626	2.38
476.83	2.38
477.033	2.59
477.237	2.57
477.441	2.48
477.644	2.46
477.848	2.44
478.052	2.42
478.255	2.47
478.459	2.46
478.663	2.44
478.866	2.5
479.07	2.4
479.273	2.29
479.477	2.28
479.681	2.33
479.884	2.31
480.088	2.33
480.291	2.39
480.495	2.46
480.698	2.44
480.901	2.39
481.105	2.37
481.308	2.42
481.512	2.48
481.715	2.49
481.919	2.54
482.122	2.54
482.325	2.55
482.529	2.44
482.732	2.49
482.935	2.49
483.138	2.58
483.342	2.55
483.545	2.59
483.748	2.48
483.952	2.46
484.155	2.37
484.358	2.39
484.561	2.32
484.764	2.4
484.967	2.39
485.171	2.39
485.374	2.4
485.577	2.47
485.78	2.41
485.983	2.37
486.186	2.45
486.389	2.47
486.592	2.53
486.795	2.58
486.998	2.71
487.201	2.66
487.404	2.67
487.607	2.59
487.81	2.58
488.013	2.5
488.216	2.51
488.419	2.36
488.622	2.4
488.825	2.43
489.028	2.46
489.231	2.46
489.433	2.6
489.636	2.63
489.839	2.6
490.042	2.69
490.245	2.77
490.447	2.77
490.65	2.72
490.853	2.69
491.056	2.61
491.258	2.52
491.461	2.52
491.664	2.49
491.866	2.54
492.069	2.51
492.272	2.53
492.474	2.54
492.677	2.52
492.879	2.44
493.082	2.32
493.285	2.24
493.487	2.24
493.69	2.31
493.892	2.44
494.095	2.57
494.297	2.71
494.5	2.68
494.702	2.71
494.905	2.71
495.107	2.71
495.309	2.65
495.512	2.64
495.714	2.59
495.917	2.56
496.119	2.56
496.321	2.51
496.524	2.56
496.726	2.62
496.928	2.64
497.13	2.72
497.333	2.79
497.535	2.77
497.737	2.78
497.939	2.81
498.142	2.73
498.344	2.79
498.546	2.86
498.748	2.79
498.95	2.76
499.152	2.82
499.355	2.82
499.557	2.74
499.759	2.78
499.961	2.83
500.163	2.88
500.365	2.84
500.567	2.77
500.769	2.86
500.971	2.87
501.173	2.89
501.375	2.89
501.577	3
501.779	3
501.981	2.99
502.183	2.95
502.385	2.99
502.587	3.01
502.788	2.93
502.99	2.91
503.192	3
503.394	3.04
503.596	3.05
503.798	3.15
503.999	3.16
504.201	3.16
504.403	3.15
504.605	3.15
504.806	3.19
505.008	3.26
505.21	3.12
505.411	3.14
505.613	3.19
505.815	3.17
506.016	3.15
506.218	3.32
506.42	3.34
506.621	3.34
506.823	3.34
507.024	3.35
507.226	3.33
507.427	3.39
507.629	3.43
507.83	3.39
508.032	3.39
508.233	3.37
508.435	3.36
508.636	3.35
508.838	3.39
509.039	3.43
509.24	3.4
509.442	3.42
509.643	3.46
509.845	3.47
510.046	3.5
510.247	3.54
510.448	3.54
510.65	3.54
510.851	3.52
511.052	3.51
511.254	3.59
511.455	3.52
511.656	3.44
511.857	3.41
512.058	3.41
512.26	3.34
512.461	3.4
512.662	3.45
512.863	3.57
513.064	3.6
513.265	3.63
513.466	3.63
513.667	3.67
513.868	3.59
514.069	3.55
514.27	3.49
514.471	3.55
514.672	3.55
514.873	3.58
515.074	3.61
515.275	3.7
515.476	3.72
515.677	3.67
515.878	3.72
516.079	3.76
516.28	3.73
516.481	3.61
516.682	3.62
516.882	3.66
517.083	3.61
517.284	3.7
517.485	3.72
517.686	3.74
517.886	3.78
518.087	3.81
518.288	3.75
518.488	3.83
518.689	3.82
518.89	3.8
519.091	3.84
519.291	3.84
519.492	3.82
519.692	3.87
519.893	3.72
520.094	3.75
520.294	3.77
520.495	3.82
520.695	3.82
520.896	3.92
521.096	3.9
521.297	3.88
521.497	3.9
521.698	3.92
521.898	3.89
522.099	3.92
522.299	3.95
522.499	3.94
522.7	3.94
522.9	4
523.101	3.91
523.301	3.89
523.501	3.87
523.702	3.88
523.902	3.87
524.102	3.9
524.302	3.98
524.503	3.97
524.703	4
524.903	4.05
525.103	4.15
525.304	4.05
525.504	3.99
525.704	3.96
525.904	3.92
526.104	3.9
526.304	3.98
526.504	4.06
526.705	4.03
526.905	4
527.105	3.95
527.305	3.94
527.505	3.97
527.705	4.03
527.905	4.07
528.105	4.11
528.305	4.13
528.505	4.08
528.705	4.11
528.905	4.15
529.105	4.18
529.304	4.2
529.504	4.22
529.704	4.21
529.904	4.24
530.104	4.26
530.304	4.26
530.503	4.33
530.703	4.38
530.903	4.36
531.103	4.34
531.303	4.35
531.502	4.36
531.702	4.32
531.902	4.3
532.101	4.37
532.301	4.39
532.501	4.34
532.7	4.41
532.9	4.45
533.1	4.45
533.299	4.49
533.499	4.49
533.698	4.46
533.898	4.48
534.097	4.46
534.297	4.39
534.496	4.43
534.696	4.47
534.895	4.43
535.095	4.43
535.294	4.55
535.494	4.54
535.693	4.59
535.892	4.6
536.092	4.67
536.291	4.66
536.491	4.73
536.69	4.67
536.889	4.79
537.088	4.8
537.288	4.77
537.487	4.76
537.686	4.83
537.886	4.78
538.085	4.79
538.284	4.74
538.483	4.8
538.682	4.82
538.882	4.89
539.081	4.87
539.28	5.01
539.479	5
539.678	5.02
539.877	4.96
540.076	5.03
540.275	5.03
540.474	4.92
540.673	4.94
540.872	4.99
541.071	5
541.27	5.11
541.469	5.19
541.668	5.2
541.867	5.27
542.066	5.32
542.265	5.31
542.464	5.41
542.663	5.45
542.862	5.46
543.06	5.47
543.259	5.41
543.458	5.37
543.657	5.39
543.856	5.46
544.054	5.49
544.253	5.57
544.452	5.65
544.651	5.64
544.849	5.7
545.048	5.71
545.247	5.71
545.445	5.71
545.644	5.76
545.843	5.72
546.041	5.74
546.24	5.76
546.438	5.82
546.637	5.98
546.836	6.02
547.034	6.03
547.233	6.14
547.431	6.19
547.63	6.14
547.828	6.23
548.027	6.3
548.225	6.34
548.423	6.37
548.622	6.4
548.82	6.45
549.019	6.51
549.217	6.4
549.415	6.44
549.614	6.56
549.812	6.56
550.01	6.63
550.209	6.78
550.407	6.79
550.605	6.78
550.803	6.79
551.002	6.87
551.2	6.95
551.398	7
551.596	7.04
551.794	7.13
551.993	7.17
552.191	7.27
552.389	7.33
552.587	7.41
552.785	7.47
552.983	7.45
553.181	7.42
553.379	7.51
553.577	7.56
553.775	7.62
553.973	7.71
554.171	7.74
554.369	7.82
554.567	7.9
554.765	7.91
554.963	7.89
555.161	8.01
555.359	8.04
555.557	8.01
555.755	8.11
555.952	8.18
556.15	8.24
556.348	8.27
556.546	8.37
556.744	8.36
556.941	8.42
557.139	8.48
557.337	8.54
557.535	8.66
557.732	8.75
557.93	8.73
558.128	8.78
558.325	8.79
558.523	8.79
558.721	8.78
558.918	8.98
559.116	9.1
559.313	9.2
559.511	9.29
559.708	9.45
559.906	9.52
560.104	9.47
560.301	9.5
560.498	9.48
560.696	9.52
560.893	9.53
561.091	9.63
561.288	9.71
561.486	9.78
561.683	9.76
561.88	9.78
562.078	9.81
562.275	9.89
562.473	9.93
562.67	9.98
562.867	10.02
563.064	10.09
563.262	10.14
563.459	10.15
563.656	10.08
563.853	10.16
564.051	10.2
564.248	10.2
564.445	10.36
564.642	10.6
564.839	10.65
565.036	10.76
565.234	10.72
565.431	10.69
565.628	10.7
565.825	10.63
566.022	10.55
566.219	10.73
566.416	10.78
566.613	10.85
566.81	10.98
567.007	11.07
567.204	11.08
567.401	11.08
567.598	11.1
567.795	11.13
567.991	11.11
568.188	11.12
568.385	10.96
568.582	10.96
568.779	10.97
568.976	10.95
569.172	10.92
569.369	11.13
569.566	11
569.763	10.92
569.96	10.95
570.156	10.94
570.353	10.99
570.55	11.16
570.746	11.24
570.943	11.29
571.14	11.36
571.336	11.31
571.533	11.27
571.729	11.35
571.926	11.39
572.123	11.29
572.319	11.29
572.516	11.34
572.712	11.3
572.909	11.21
573.105	11.17
573.302	11.18
573.498	11.05
573.695	11.05
573.891	11.02
574.087	11.09
574.284	11.16
574.48	11.25
574.677	11.23
574.873	11.27
575.069	11.34
575.266	11.24
575.462	11.16
575.658	11.1
575.854	11.14
576.051	11.03
576.247	11.09
576.443	11.05
576.639	11.12
576.835	11.06
577.032	11.11
577.228	11.03
577.424	11.04
577.62	11.01
577.816	10.96
578.012	10.95
578.208	10.85
578.404	10.88
578.6	10.87
578.796	10.88
578.993	10.86
579.189	10.97
579.384	10.99
579.58	10.97
579.776	11.02
579.972	11.02
580.168	11.03
580.364	11
580.56	10.94
580.756	10.77
580.952	10.76
581.148	10.67
581.343	10.6
581.539	10.56
581.735	10.62
581.931	10.51
582.127	10.5
582.322	10.52
582.518	10.52
582.714	10.54
582.909	10.58
583.105	10.6
583.301	10.57
583.496	10.51
583.692	10.5
583.888	10.49
584.083	10.44
584.279	10.42
584.474	10.4
584.67	10.34
584.866	10.31
585.061	10.35
585.257	10.33
585.452	10.36
585.648	10.43
585.843	10.34
586.039	10.26
586.234	10.25
586.429	10.22
586.625	10.11
586.82	10.24
587.015	10.26
587.211	10.26
587.406	10.38
587.601	10.43
587.797	10.31
587.992	10.32
588.187	10.26
588.383	10.21
588.578	10.23
588.773	10.22
588.968	10.21
589.163	10.22
589.359	10.21
589.554	10.2
589.749	10.21
589.944	10.14
590.139	10.2
590.334	10.22
590.529	10.23
590.724	10.31
590.919	10.36
591.114	10.41
591.309	10.36
591.504	10.33
591.699	10.34
591.894	10.42
592.089	10.35
592.284	10.34
592.479	10.34
592.674	10.43
592.869	10.4
593.064	10.45
593.259	10.5
593.454	10.51
593.648	10.49
593.843	10.55
594.038	10.58
594.233	10.6
594.428	10.69
594.622	10.71
594.817	10.76
595.012	10.82
595.206	10.93
595.401	11.02
595.596	11
595.79	11.01
595.985	10.95
596.18	10.99
596.374	10.97
596.569	11.03
596.763	11.17
596.958	11.3
597.153	11.32
597.347	11.37
597.542	11.32
597.736	11.32
597.931	11.36
598.125	11.39
598.319	11.44
598.514	11.58
598.708	11.57
598.903	11.54
599.097	11.62
599.291	11.6
599.486	11.56
599.68	11.62
599.874	11.64
600.069	11.66
600.263	11.71
600.457	11.83
600.651	11.82
600.846	11.92
601.04	11.91
601.234	11.94
601.428	11.91
601.622	12
601.817	11.93
602.011	12
602.205	11.99
602.399	12.03
602.593	11.98
602.787	12.02
602.981	11.99
603.175	12.03
603.369	11.98
603.563	11.97
603.757	11.85
603.951	11.79
604.145	11.74
604.339	11.75
604.533	11.74
604.727	11.83
604.921	11.87
605.115	11.88
605.309	11.87
605.502	11.91
605.696	11.83
605.89	11.73
606.084	11.72
606.278	11.7
606.471	11.7
606.665	11.75
606.859	11.76
607.053	11.69
607.246	11.62
607.44	11.51
607.634	11.48
607.827	11.46
608.021	11.46
608.214	11.52
608.408	11.42
608.602	11.37
608.795	11.43
608.989	11.35
609.182	11.25
609.376	11.24
609.569	11.15
609.763	11.06
609.956	11.06
610.15	11.06
610.343	11.06
610.537	11.06
610.73	10.92
610.923	10.86
611.117	10.81
611.31	10.71
611.504	10.66
611.697	10.68
611.89	10.63
612.083	10.53
612.277	10.44
612.47	10.45
612.663	10.42
612.856	10.3
613.05	10.29
613.243	10.31
613.436	10.17
613.629	10.08
613.822	10.09
614.015	10.08
614.209	10.04
614.402	10.05
614.595	10.03
614.788	9.95
614.981	9.91
615.174	9.86
615.367	9.71
615.56	9.72
615.753	9.74
615.946	9.71
616.139	9.68
616.332	9.75
616.525	9.65
616.718	9.64
616.911	9.67
617.103	9.63
617.296	9.6
617.489	9.61
617.682	9.58
617.875	9.4
618.067	9.35
618.26	9.32
618.453	9.24
618.646	9.14
618.838	9.12
619.031	9.04
619.224	9.05
619.417	9.12
619.609	9.16
619.802	9.2
619.994	9.17
620.187	9.11
620.38	9.03
620.572	8.98
620.765	8.93
620.957	9.01
621.15	9.02
621.342	9.04
621.535	8.88
621.727	8.87
621.92	8.86
622.112	8.81
622.305	8.75
622.497	8.93
622.69	8.87
622.882	8.81
623.074	8.81
623.267	8.86
623.459	8.79
623.651	8.83
623.844	8.83
624.036	8.8
624.228	8.77
624.42	8.77
624.613	8.77
624.805	8.79
624.997	8.74
625.189	8.78
625.381	8.75
625.574	8.73
625.766	8.71
625.958	8.7
626.15	8.55
626.342	8.54
626.534	8.49
626.726	8.5
626.918	8.52
627.11	8.54
627.302	8.46
627.494	8.46
627.686	8.42
627.878	8.39
628.07	8.37
628.262	8.36
628.454	8.35
628.646	8.3
628.838	8.21
629.029	8.2
629.221	8.2
629.413	8.16
629.605	8.16
629.797	8.16
629.989	8.15
630.18	8.09
630.372	8.1
630.564	8.07
630.755	8.05
630.947	8.02
631.139	8.14
631.33	8.11
631.522	8.08
631.714	8.08
631.905	8.05
632.097	7.93
632.289	7.94
632.48	7.93
632.672	7.9
632.863	7.92
633.055	7.9
633.246	7.8
633.438	7.76
633.629	7.75
633.821	7.67
634.012	7.62
634.203	7.67
634.395	7.66
634.586	7.71
634.777	7.76
634.969	7.82
635.16	7.81
635.351	7.88
635.543	7.85
635.734	7.77
635.925	7.81
636.117	7.74
636.308	7.71
636.499	7.64
636.69	7.68
636.881	7.66
637.073	7.63
637.264	7.6
637.455	7.61
637.646	7.58
637.837	7.55
638.028	7.55
638.219	7.52
638.41	7.52
638.601	7.49
638.792	7.46
638.983	7.51
639.174	7.51
639.365	7.41
639.556	7.47
639.747	7.41
639.938	7.39
640.129	7.31
640.32	7.36
640.511	7.31
640.701	7.24
640.892	7.25
641.083	7.23
641.274	7.19
641.465	7.14
641.655	7.17
641.846	7.13
642.037	7.17
642.228	7.11
642.418	7.01
642.609	7
642.8	6.98
642.99	6.97
643.181	6.96
643.372	7.06
643.562	6.99
643.753	6.96
643.943	6.95
644.134	6.97
644.324	6.96
644.515	7.01
644.705	6.96
644.896	6.9
645.086	6.91
645.277	6.86
645.467	6.78
645.658	6.78
645.848	6.74
646.038	6.66
646.229	6.65
646.419	6.69
646.61	6.69
646.8	6.78
646.99	6.73
647.18	6.72
647.371	6.72
647.561	6.74
647.751	6.7
647.941	6.83
648.132	6.89
648.322	6.83
648.512	6.81
648.702	6.8
648.892	6.71
649.082	6.65
649.272	6.75
649.462	6.77
649.653	6.74
649.843	6.75
650.033	6.72
650.223	6.62
650.413	6.61
650.603	6.59
650.793	6.54
650.983	6.61
651.172	6.6
651.362	6.5
651.552	6.48
651.742	6.56
651.932	6.4
652.122	6.49
652.312	6.5
652.502	6.44
652.691	6.34
652.881	6.35
653.071	6.16
653.261	6.11
653.45	6.08
653.64	6.02
653.83	6.07
654.019	6.05
654.209	5.91
654.399	5.87
654.588	5.74
654.778	5.64
654.968	5.6
655.157	5.65
655.347	5.61
655.536	5.63
655.726	5.52
655.915	5.51
656.105	5.39
656.294	5.28
656.484	5.25
656.673	5.33
656.863	5.26
657.052	5.33
657.241	5.41
657.431	5.41
657.62	5.33
657.809	5.24
657.999	5.16
658.188	5.07
658.377	5.05
658.567	4.92
658.756	4.82
658.945	4.79
659.134	4.7
659.324	4.61
659.513	4.59
659.702	4.61
659.891	4.52
660.08	4.49
660.269	4.39
660.458	4.27
660.648	4.21
660.837	4.13
661.026	3.99
661.215	3.93
661.404	3.97
661.593	3.83
661.782	3.8
661.971	3.75
662.16	3.7
662.349	3.58
662.538	3.64
662.726	3.6
662.915	3.72
663.104	3.76
663.293	3.74
663.482	3.67
663.671	3.62
663.86	3.52
664.048	3.44
664.237	3.4
664.426	3.47
664.615	3.41
664.803	3.29
664.992	3.24
665.181	3.26
665.369	3.13
665.558	3.13
665.747	3.21
665.935	3.19
666.124	3.14
666.312	3.13
666.501	3.23
666.69	3.26
666.878	3.33
667.067	3.35
667.255	3.4
667.444	3.12
667.632	3.05
667.82	2.85
668.009	2.9
668.197	2.97
668.386	3.12
668.574	3.12
668.762	3.3
668.951	3.21
669.139	3.24
669.327	3.37
669.516	3.23
669.704	3.21
669.892	3.32
670.08	3.24
670.269	3.22
670.457	3.38
670.645	3.47
670.833	3.38
671.021	3.42
671.21	3.47
671.398	3.38
671.586	3.36
671.774	3.59
671.962	3.64
672.15	3.61
672.338	3.82
672.526	3.89
672.714	3.85
672.902	3.92
673.09	3.86
673.278	3.7
673.466	3.64
673.654	3.55
673.842	3.64
674.03	3.76
674.218	4.06
674.405	4.22
674.593	4.33
674.781	4.21
674.969	4.15
675.157	4.03
675.344	4.07
675.532	4.04
675.72	4.05
675.908	4.13
676.095	4.22
676.283	4.08
676.471	4.06
676.658	4.2
676.846	4.29
677.033	4.26
677.221	4.38
677.409	4.51
677.596	4.54
677.784	4.5
677.971	4.68
678.159	4.68
678.346	4.65
678.534	4.65
678.721	4.6
678.909	4.61
679.096	4.69
679.283	4.71
679.471	4.95
679.658	5.17
679.846	5.22
680.033	5.17
680.22	5.31
680.408	5.19
680.595	5.06
680.782	5.14
680.969	5.27
681.157	5.38
681.344	5.34
681.531	5.52
681.718	5.49
681.905	5.56
682.093	5.53
682.28	5.66
682.467	5.78
682.654	5.72
682.841	5.79
683.028	5.79
683.215	5.91
683.402	5.88
683.589	6
683.776	6
683.963	6.09
684.15	6.06
684.337	6.17
684.524	6.36
684.711	6.35
684.898	6.49
685.085	6.52
685.271	6.49
685.458	6.53
685.645	6.69
685.832	6.76
686.019	7.17
686.205	7.39
686.392	7.52
686.579	7.82
686.766	7.98
686.952	7.97
687.139	8.03
687.326	8.28
687.512	8.31
687.699	8.53
687.886	8.65
688.072	8.89
688.259	9.09
688.445	9.41
688.632	9.63
688.818	9.83
689.005	10.1
689.191	10.16
689.378	10.39
689.564	10.51
689.751	10.85
689.937	11.21
690.124	11.49
690.31	11.66
690.496	11.94
690.683	12.12
690.869	12.39
691.055	12.78
691.242	13.04
691.428	13.41
691.614	13.62
691.8	13.98
691.987	14.17
692.173	14.61
692.359	14.83
692.545	15.41
692.731	15.78
692.918	16.09
693.104	16.41
693.29	16.74
693.476	17.07
693.662	17.34
693.848	18.14
694.034	18.57
694.22	19.31
694.406	19.93
694.592	20.36
694.778	20.82
694.964	21.3
695.15	21.85
695.336	22.17
695.522	22.57
695.708	22.87
695.894	23.35
696.08	23.71
696.265	24.06
696.451	24.81
696.637	25.31
696.823	25.85
697.009	26.55
697.194	27.12
697.38	27.59
697.566	28.04
697.751	28.75
697.937	28.79
698.123	29.37
698.308	29.65
698.494	30.19
698.68	30.54
698.865	31.21
699.051	31.62
699.236	32.11
699.422	32.46
699.607	33.15
699.793	33.61
699.978	34.18
700.164	34.59
700.349	34.97
700.535	35.12
700.72	35.54
700.906	36.06
701.091	36.47
701.276	37.01
701.462	37.26
701.647	37.96
701.832	38
702.018	38.67
702.203	38.98
702.388	39.61
702.573	39.93
702.759	40.51
702.944	40.8
703.129	41.12
703.314	41.52
703.499	41.7
703.684	42.18
703.87	42.16
704.055	42.48
704.24	42.67
704.425	43.17
704.61	43.78
704.795	44.72
704.98	45.56
705.165	46.11
705.35	46.64
705.535	46.52
705.72	46.56
705.905	46.65
706.09	46.76
706.275	47.18
706.459	47.77
706.644	48.23
706.829	48.26
707.014	48.67
707.199	48.43
707.384	48.1
707.568	48.14
707.753	48.72
707.938	48.65
708.123	48.95
708.307	49.9
708.492	50.35
708.677	50.5
708.861	51.14
709.046	51.55
709.231	51.8
709.415	52.3
709.6	52.42
709.784	52.53
709.969	52.45
710.153	52.66
710.338	52.87
710.522	53.19
710.707	53.49
710.891	54.13
711.076	53.84
711.26	53.57
711.445	53.34
711.629	53.59
711.813	53.47
711.998	53.88
712.182	54.21
712.366	54.54
712.551	54.19
712.735	54.13
712.919	54.17
713.103	54.4
713.288	54.95
713.472	55.55
713.656	55.76
713.84	55.95
714.024	55.76
714.208	55.79
714.393	55.89
714.577	56.17
714.761	56.38
714.945	56.88
715.129	57.02
715.313	56.94
715.497	57.68
715.681	57.31
715.865	57.48
716.049	57.79
716.233	57.84
716.417	57.65
716.601	57.78
716.785	58.09
716.968	58.05
717.152	58.3
717.336	58.06
717.52	58.58
717.704	58.27
717.888	58.17
718.071	58.06
718.255	58.2
718.439	58.07
718.622	58.63
718.806	58.29
718.99	58.88
719.174	59.3
719.357	59.52
719.541	59.47
719.724	60.52
719.908	60.45
720.092	60.3
720.275	60.68
720.459	60.79
720.642	60.63
720.826	60.99
721.009	61.07
721.193	61.39
721.376	61.71
721.559	61.59
721.743	61.7
721.926	61.92
722.11	61.87
722.293	61.71
722.476	62.09
722.66	61.84
722.843	61.74
723.026	62.31
723.21	62.68
723.393	62.34
723.576	62.3
723.759	62.51
723.942	61.83
724.126	61.74
724.309	62.34
724.492	62.91
724.675	63.66
724.858	64.27
725.041	63.63
725.224	63.79
725.407	63.9
725.59	64.01
725.774	64
725.957	65.21
726.14	65.19
726.322	65.15
726.505	64.65
726.688	65.31
726.871	64.7
727.054	65.12
727.237	65.29
727.42	65.3
727.603	65.25
727.786	65.97
727.968	65.66
728.151	66.53
728.334	67.43
728.517	67.5
728.699	67.39
728.882	68.24
729.065	67.64
729.248	67.65
729.43	67.76
729.613	67.72
729.796	68.01
729.978	68.45
730.161	68.36
730.343	68.75
730.526	68.77
730.708	68.56
730.891	69.28
731.073	69.14
731.256	69.13
731.438	70.05
731.621	69.48
731.803	69.3
731.986	69.58
732.168	69.96
732.35	70.27
732.533	71.18
732.715	71.27
732.898	71.5
733.08	71.14
733.262	70.54
733.444	70.99
733.627	70.97
733.809	71.31
733.991	71.03
734.173	72
734.355	71.05
734.538	71.29
734.72	71.89
734.902	72.09
735.084	71.51
735.266	72.12
735.448	72.94
735.63	72.94
735.812	73.8
735.994	73.62
736.176	74
736.358	72.81
736.54	72.07
736.722	71.74
736.904	72.21
737.086	71.96
737.268	72.04
737.45	73.17
737.632	74.38
737.814	74.75
737.995	74.96
738.177	75.69
738.359	75.57
738.541	74.68
738.723	75.07
738.904	75.18
739.086	75.22
739.268	75.11
739.449	74.84
739.631	74.44
739.813	74.65
739.994	74.79
740.176	74.44
740.358	75.13
740.539	74.83
740.721	75.62
740.902	75.41
741.084	76.22
741.265	77.11
741.447	77.59
741.628	76.86
741.81	77.16
741.991	76.96
742.172	75.15
742.354	75.45
742.535	75.69
742.717	75.08
742.898	75.93
743.079	76.57
743.261	76.3
743.442	76.81
743.623	77.32
743.804	77.31
743.986	77.6
744.167	77.25
744.348	77.92
744.529	77.71
744.71	76.82
744.891	76.79
745.073	77.9
745.254	76.91
745.435	77.52
745.616	78.09
745.797	78.27
745.978	78.99
746.159	79.87
746.34	80.37
746.521	80.56
746.702	80.06
746.883	79.44
747.064	79.43
747.245	79.19
747.426	78.88
747.606	79.93
747.787	78.9
747.968	78.08
748.149	78.02
748.33	78.15
748.51	77.32
748.691	77.98
748.872	78.64
749.053	79.61
749.233	80.98
749.414	81.67
749.595	81.61
749.775	81.94
749.956	81.93
750.137	80.01
750.317	78.99
750.498	78.47
750.678	78.04
750.859	76.02
751.04	75.99
751.22	77.87
751.4	79.04
751.581	79.06
751.761	79.63
751.942	79.84
752.122	78.38
752.303	78.21
752.483	78.8
752.663	78.67
752.844	79.2
753.024	80.32
753.204	80.04
753.385	80.47
753.565	81.29
753.745	80.71
753.925	79.62
754.106	79.36
754.286	78.42
754.466	77.96
754.646	78.61
754.826	79.93
755.006	80.96
755.187	80.09
755.367	80.18
755.547	80.17
755.727	79.42
755.907	80.26
756.087	79.76
756.267	79.34
756.447	80.2
756.627	79.65
756.807	76.17
756.987	77.67
757.167	79.27
757.346	78.06
757.526	78.4
757.706	80.15
757.886	80.2
758.066	78.77
758.246	79.53
758.425	81.37
758.605	81.5
758.785	81.47
758.965	83.51
759.144	83.46
759.324	82.6
759.504	82.2
759.683	82.64
759.863	79.9
760.043	80.08
760.222	80.13
760.402	80.62
760.581	79.24
760.761	80.52
760.94	79.85
761.12	78.37
761.299	78.5
761.479	78.83
761.658	80.42
761.838	80.44
762.017	80.69
762.197	80.44
762.376	81.45
762.555	79.78
762.735	79.02
762.914	80.02
763.093	79.58
763.273	79.02
763.452	78.11
763.631	78.77
763.81	78.86
763.99	79.12
764.169	80.54
764.348	80.19
764.527	80.6
764.706	79.39
764.885	80.63
765.064	78.12
765.243	80.66
765.423	80.95
765.602	80.2
765.781	80.48
765.96	80.8
766.139	80.33
766.318	78.52
766.497	78.68
766.676	77.45
766.854	77.62
767.033	76.77
767.212	77.2
767.391	79.49
767.57	79.05
767.749	78.48
767.928	77.24
768.106	78.02
768.285	77.07
768.464	77.08
768.643	78.48
768.821	79.25
769	78.32
769.179	78.56
769.357	81.35
769.536	81.91
769.715	80.44
769.893	79.68
770.072	79.33
770.25	77.04
770.429	75.24
770.607	77.19
770.786	77.72
770.964	75.9
771.143	75.71
771.321	74.9
771.5	72.4
771.678	72.95
771.857	74.41
772.035	72.1
772.213	71.96
772.392	73.18
772.57	72.52
772.748	72.87
772.927	76.2
773.105	77.12
773.283	78.8
773.461	77.68
773.64	77.35
773.818	76.77
773.996	75.97
774.174	74.52
774.352	76.97
774.531	76.59
774.709	75.38
774.887	76.79
775.065	78.06
775.243	79.14
775.421	80.16
775.599	80.54
775.777	80.59
775.955	79.79
776.133	78.85
776.311	77.29
776.489	79.42
776.667	80.67
776.844	81.07
777.022	80.23
777.2	80.56
777.378	78.52
777.556	77.08
777.734	76.25
777.911	75.19
778.089	74.61
778.267	74.91
778.445	77.15
778.622	76.2
778.8	75.36
778.978	74.42
779.155	73.24
779.333	71.91
779.511	72.17
779.688	72.5
779.866	76.38
780.043	78.6
780.221	74.59
780.398	74.55
780.576	73.51
780.753	70.38
780.931	70
781.108	73.23
781.286	73.03
781.463	75.81
781.64	76.95
781.818	75.68
781.995	75.15
782.172	76.92
782.35	75.82
782.527	75.02
782.704	76.84
782.882	76.91
783.059	75.92
783.236	74.4
783.413	75.1
783.59	74.01
783.768	75.92
783.945	75.31
784.122	78.51
784.299	78.91
784.476	78.97
784.653	79.99
784.83	82.14
785.007	81.38
785.184	79.76
785.361	79.87
785.538	76.69
785.715	79.09
785.892	78.78
786.069	80.32
786.246	82.09
786.423	82.41
786.6	81.9
786.776	82.06
786.953	83.05
787.13	81.32
787.307	82.93
787.484	81.62
787.66	83.39
787.837	83.49
788.014	83.87
788.191	81.31
788.367	81.24
788.544	75.81
788.721	75.51
788.897	74.89
789.074	74.03
789.25	71.83
789.427	78.85
789.603	76.78
789.78	77.3
789.956	78.84
790.133	82.12
790.309	76.93
790.486	74.87
790.662	78.46
790.839	81.29
791.015	75.37
791.192	79.53
791.368	77.17
791.544	77.07
791.721	76.52
791.897	80.53
792.073	80.97
792.249	87.57
792.426	83.18
792.602	80.61
792.778	81.96
792.954	82.22
793.13	82.5
793.307	83.18
793.483	87.09
793.659	84.67
793.835	81.16
794.011	80.49
794.187	80.45
794.363	82.1
794.539	83.27
794.715	83.23
794.891	81.89
795.067	81.79
795.243	75.5
795.419	74.87
795.595	74.38
795.771	76.77
795.947	72.72
796.122	75.81
796.298	75.45
796.474	75.53
796.65	71.87
796.826	76.11
797.001	73.53
797.177	74.66
797.353	72.6
797.529	73.18
797.704	72.33
797.88	77.18
798.056	77.22
798.231	81.53
798.407	80.08
798.582	80.53
798.758	77.02
798.934	74.45
799.109	74.93
799.285	78.05
799.46	73.84
799.636	73.88
799.811	77.09
799.986	75.45
800.162	76.89
800.337	76.31
800.513	78.72
800.688	81.49
800.863	84.57
801.039	80.63
801.214	86.38
801.389	83.35
801.565	78.61
801.74	75.86
801.915	71.74
802.09	68.12
802.265	63.31
802.441	65.59
802.616	67.99
802.791	70.99
802.966	78.72
803.141	93.37
803.316	98.59
803.491	99.56
803.666	99.03
803.841	97.36
804.016	87.2
804.191	82.86
804.366	83.75
804.541	90.03
804.716	84.18
804.891	84.31
805.066	78.35
805.241	77.02
805.416	71.86
805.591	76.35
805.765	73.77
805.94	80.3
806.115	79.95
806.29	82.51
806.464	81.13
806.639	85.1
806.814	83.03
806.989	86.96
807.163	84.45
807.338	84.99
807.512	84.88
807.687	82.68
807.862	71.78
808.036	61.85
808.211	63.27
808.385	56.32
808.56	47.27
808.734	54.05
808.909	66.12
809.083	63.51
809.258	65.39
809.432	69.04
809.606	71.67
809.781	69.39
809.955	72.57
810.13	68.08
810.304	75.3
810.478	80.47
810.652	78.51
810.827	74.48
811.001	77.85
811.175	74.47
811.349	71.12
811.524	71.47
811.698	73.19
811.872	74.37
812.046	74.37
812.22	69.26
812.394	74.43
812.568	75.55
812.742	69.45
812.916	70.49
813.09	70.43
813.264	77.2
813.438	80.46
813.612	92.58
813.786	95.33
813.96	82.88
814.134	86.3
814.308	82.56
814.482	80.93
814.656	80.05
814.83	96.81
815.003	89.02
815.177	92
815.351	92.16
815.525	91.99
815.698	91.64
815.872	93.94
816.046	89.72
816.219	84.27
816.393	70.07
816.567	72.75
816.74	68.86
816.914	60.93
817.088	61.93
817.261	74.29
817.435	73.05
817.608	77.58
817.782	90.19
817.955	88.97
818.129	89.68
818.302	79.68
818.475	72.69
818.649	60.77
818.822	67.85
818.996	53.71
819.169	61.27
819.342	61.26
819.516	67.08
819.689	63.33
819.862	90.07
820.035	100.71
820.209	98.9
820.382	95.04
820.555	91.64
820.728	80.17
820.901	82.11
821.075	89.61
821.248	81.63
821.421	90.72
821.594	88.42
821.767	73
821.94	53.79
822.113	69.65
822.286	56.15
822.459	50.81
822.632	47.15
822.805	52.96
822.978	57.35
823.151	59.4
823.324	67.1
823.496	85.36
823.669	81.64
823.842	73.49
824.015	86.7
824.188	87.76
824.361	77.85
824.533	78.32
824.706	81.07
824.879	66.14
825.051	54.98
825.224	61.41
825.397	78.03
825.569	78.09
825.742	86.56
825.915	104.47
826.087	101.16
826.26	85.26
826.432	96.77
826.605	93.01
826.777	77.4
826.95	75.47
827.122	70.15
827.295	55.71
827.467	55.25
827.64	62.13
827.812	68.93
827.984	66.99
828.157	69.77
828.329	83.8
828.501	84.87
828.674	79.15
828.846	104.77
829.018	120.12
829.19	108.76
829.363	101.15
829.535	99.17
829.707	83.39
829.879	66.74
830.051	58.68
830.223	60.97
830.395	65.75
830.568	68.39
830.74	67.53
830.912	57.26
831.084	60.33
831.256	55.33
831.428	51.81
831.6	70.34
831.772	92.1
831.943	88.21
832.115	89.43
832.287	87.91
832.459	78.87
832.631	62.95
832.803	61.8
832.975	52.38
833.146	53.38
833.318	62.17
833.49	59.67
833.662	73.56
833.833	73.76
834.005	68.23
834.177	54.76
834.348	63.49
834.52	61.64
834.692	66.32
834.863	92.74
835.035	92.93
835.206	88.87
835.378	99.5
835.549	113.92
835.721	107.6
835.892	104.43
836.064	79.8
836.235	62.5
836.407	49.44
836.578	43.46
836.749	51.19
836.921	76.72
837.092	91.83
837.264	104.01
837.435	108.13
837.606	76.52
837.777	65.54
837.949	23.31
838.12	10.56
838.291	10.91
838.462	39.57
838.633	42.37
838.805	79.96
838.976	85.41
839.147	94.3
839.318	125.38
839.489	125.62
839.66	105.04
839.831	84.76
840.002	88.9
840.173	91.46
840.344	79.82
840.515	73.24
840.686	66.06
840.857	62.7
841.028	52.61
841.199	71.01
841.369	89.09
841.54	115.35
841.711	148.89
841.882	157.82
842.053	117.79
842.223	124.85
842.394	111.33
842.565	79.82
842.736	74.63
842.906	89.46
843.077	71.96
843.248	53.92
843.418	68.15
843.589	84.4
843.759	56.49
843.93	79.99
844.101	94.47
844.271	61.4
844.442	30.94
844.612	10.75
844.783	4.64
844.953	21.6
845.123	18.77
845.294	4.16
845.464	38.14
845.635	40.91
845.805	55.64
845.975	66.71
846.146	84.25
846.316	98.63
846.486	88.37
846.656	81.27
846.827	91.21
846.997	98.13
847.167	75.4
847.337	92
847.507	85.14
847.677	87.7
847.848	88.97
848.018	112.73
848.188	105.36
848.358	122.44
848.528	97.83
848.698	93.24
848.868	96.06
849.038	96.96
849.208	80.18
849.378	80.59
849.548	95.15
849.718	102.6
849.887	84.37
850.057	118.81
850.227	132.73
850.397	123.69
850.567	107.28
850.737	113.43
850.906	94.08
851.076	92.49
851.246	93.85
851.415	119.55
851.585	122.54
851.755	160.78
851.924	161.99
852.094	102.61
852.264	86.04
852.433	85.22
852.603	57.08
852.772	41.87
852.942	78.62
853.111	64.08
853.281	53.49
853.45	53.97
853.62	68.27
853.789	60.53
853.959	48.37
854.128	66.76
854.297	70.94
854.467	66.97
854.636	34.35
854.805	9.25
854.975	-63.35
855.144	72.57
855.313	41.19
855.482	74.88
855.652	92.53
855.821	98.72
855.99	78.12
856.159	70.57
856.328	86.48
856.497	93.21
856.667	106.04
856.836	93.99
857.005	101.75
857.174	82.62
857.343	84.03
857.512	60.19
857.681	69.15
857.85	63.36
858.019	81.09
858.188	143.85
858.356	195.43
858.525	265.59
858.694	602.87
858.863	372.24
859.032	243.05
859.201	257.92
859.369	160.57
859.538	80.28
859.707	71.25
859.876	32.78
860.044	46.19
860.213	40.62
860.382	54.14
860.55	62.6
860.719	70.26
860.888	49.26
861.056	58.32
861.225	62.6
861.393	42.96
861.562	35.33
861.73	59.21
861.899	74.78
862.067	82.29
862.236	99.92
862.404	110.18
862.572	118.81
862.741	115.35
862.909	147
863.078	180.18
863.246	173.47
863.414	124.05
863.582	112.4
863.751	77.63
863.919	57.37
864.087	29.58
864.255	42.41
864.424	66.34
864.592	61.35
864.76	77.78
864.928	77.32
865.096	86.65
865.264	59.72
865.432	71.41
865.6	56.86
865.768	70.99
865.936	83.85
866.104	82.16
866.272	88.91
866.44	116.31
866.608	109.02
866.776	95.42
866.944	97.33
867.112	99.18
867.28	105.48
867.448	101.79
867.615	101.75
867.783	90.12
867.951	96
868.119	59.04
868.286	69.05
868.454	89.27
868.622	120.84
868.789	85.25
868.957	69.27
869.125	104.57
869.292	67.37
869.46	71.16
869.627	86.24
869.795	82.26
869.963	62.87
870.13	69.71
870.298	44.09
870.465	25.87
870.632	54.17
870.8	71.73
870.967	92.58
871.135	79.94
871.302	89.08
871.469	75.75
871.637	80.05
871.804	72.67
871.971	104.35
872.139	90.74
872.306	73.15
872.473	59.43
872.64	55.15
872.807	16.21
872.975	45.91
873.142	81.33
873.309	93.3
873.476	75.96
873.643	-6.94
873.81	2.71
873.977	3.7
874.144	-26.42
874.311	14.42
874.478	109.42
874.645	118.02
874.812	133.7
874.979	109.93
875.146	167.43
875.313	177.03
875.48	137.17
875.647	124.31
875.813	154.91
875.98	112.64
876.147	93.21
876.314	108.64
876.481	123.43
876.647	245.14
876.814	188.17
876.981	-133.92
877.147	80.79
877.314	62.77
877.481	52.43
877.647	85.08
877.814	109.19
877.98	117.25
878.147	114.65
878.314	86.02
878.48	88.91
878.647	71.76
878.813	-4.39
878.979	10.42
879.146	8.29
879.312	10.04
879.479	-10.1
879.645	38.92
879.811	39.06
879.978	84.94
880.144	77.68
880.31	142.4
880.477	165.61
880.643	126.81
880.809	159.26
880.975	225.09
881.142	90.48
881.308	-6.16
881.474	53.58
881.64	80.95
881.806	100.46
881.972	127.77
882.138	119.58
882.304	169.4
882.47	116.99
882.636	197.89
882.802	231.93
882.968	15.97
883.134	72.27
883.3	74.25
883.466	63.67
883.632	9.49
883.798	57.9
883.964	41.28
884.129	30.98
884.295	17.21
884.461	62.14
884.627	55.37
884.793	62.57
884.958	72.47
885.124	106.51
885.29	109.57
885.455	117.79
885.621	172.06
885.787	154.99
885.952	204.29
886.118	258.92
886.283	278.09
886.449	358.22
886.614	246.5
886.78	242.25
886.945	423.68
887.111	635.11
887.276	-3003.7
887.442	-1275.24
887.607	392.62
887.773	215.59
887.938	175.56
888.103	115.48
888.269	136.29
888.434	180.3
888.599	103.24
888.764	92.71
888.93	151.41
889.095	87.41
889.26	70.82
889.425	1509.52
889.59	598.67
889.756	44.21
889.921	-597.44
890.086	461.5
890.251	89.38
890.416	142.23
890.581	73.17
890.746	48
890.911	75.12
891.076	43.38
891.241	37.81
891.406	53.44
891.571	101.69
891.736	135.68
891.901	130.32
892.065	160.1
892.23	128.01
892.395	110.97
892.56	76.22
892.725	6.74
892.889	59
893.054	141.9
893.219	171.09
893.384	327.45
893.548	432.28
893.713	502.01
893.878	673.64
