Data from Ofav_PP_Phys_2JQ6_Reflection_2.txt Node
Date: Tue Aug 03 18:13:48 EDT 2021
User: Adam
Spectrometer: FLMT01687
Trigger mode: 0
Integration Time (sec): 8.750000E-1
Scans to average: 2
Electric dark correction enabled: true
Nonlinearity correction enabled: false
Boxcar width: 2
XAxis mode: Wavelengths
Number of Pixels in Spectrum: 3648
>>>>>Begin Spectral Data<<<<<
179.494	224.62
179.716	248.94
179.937	303.82
180.158	424.15
180.38	1445.61
180.601	-5.46
180.823	5.74
181.044	4.23
181.265	-17.56
181.486	157.21
181.708	55.12
181.929	40.1
182.15	-48.81
182.372	-33.76
182.593	127.43
182.814	218.32
183.035	-5.67
183.257	-62.75
183.478	132.89
183.699	277.91
183.92	148.59
184.141	120.5
184.363	107.75
184.584	36.06
184.805	18.27
185.026	-3.35
185.247	-1.26
185.468	9.91
185.689	23.5
185.91	44.78
186.132	66.14
186.353	55.14
186.574	33.16
186.795	23.87
187.016	9.51
187.237	9.76
187.458	17.49
187.679	8.15
187.9	17.85
188.121	26.16
188.342	15.43
188.563	3.94
188.784	13.07
189.005	29.55
189.226	39.53
189.447	52.3
189.667	48.97
189.888	58.26
190.109	55.5
190.33	38.77
190.551	31.95
190.772	73.54
190.993	75.97
191.214	74.5
191.434	73.98
191.655	30.34
191.876	8.78
192.097	9.13
192.318	14.31
192.538	20.23
192.759	40.42
192.98	51.06
193.201	55.03
193.421	47.88
193.642	44.22
193.863	27.69
194.083	37.72
194.304	40.2
194.525	29.5
194.745	17.77
194.966	61.57
195.187	43.95
195.407	48.41
195.628	51.11
195.848	67.25
196.069	62.54
196.29	66.67
196.51	62.22
196.731	60.76
196.951	50.42
197.172	70.33
197.392	93.61
197.613	75.95
197.833	73.76
198.054	95.97
198.274	51.85
198.495	51.34
198.715	57.94
198.936	74.54
199.156	85.44
199.377	72.58
199.597	67.56
199.817	77.97
200.038	58.55
200.258	9.06
200.479	-20.07
200.699	-45.84
200.919	-84.48
201.14	-3.18
201.36	29.81
201.58	42.69
201.801	19.74
202.021	30.74
202.241	24.73
202.461	24.43
202.682	48.3
202.902	85.4
203.122	77.61
203.342	69.1
203.563	34.05
203.783	17.8
204.003	40.49
204.223	40.25
204.443	28.95
204.663	44.42
204.884	15.07
205.104	-27.42
205.324	-27.56
205.544	-58.02
205.764	-54.38
205.984	-67.96
206.204	-40.96
206.424	-65.44
206.644	30.22
206.864	17.44
207.084	58.38
207.304	92.05
207.525	81.4
207.745	79.97
207.964	83.52
208.184	65.88
208.404	62.13
208.624	53.37
208.844	39.61
209.064	44.35
209.284	40.92
209.504	30.13
209.724	24.77
209.944	30.29
210.164	3.96
210.384	22.89
210.604	21.22
210.823	60.49
211.043	41.43
211.263	78
211.483	97.51
211.703	107.13
211.922	79.49
212.142	65.9
212.362	48.18
212.582	34.72
212.801	27.1
213.021	38.52
213.241	32.32
213.461	52.59
213.68	55.13
213.9	28.91
214.12	28.39
214.339	57.29
214.559	55.23
214.779	40.35
214.998	66.67
215.218	82.12
215.438	72.94
215.657	90.49
215.877	96.78
216.096	83.32
216.316	66.44
216.535	75.42
216.755	34.24
216.974	30.18
217.194	55.88
217.413	89.51
217.633	72.72
217.852	77.77
218.072	76.25
218.291	64.85
218.511	22.06
218.73	58.56
218.95	56.25
219.169	54.71
219.389	57.13
219.608	71.54
219.827	28.41
220.047	22.85
220.266	16.61
220.485	22.24
220.705	32.48
220.924	42.38
221.143	37.31
221.363	73.03
221.582	61.97
221.801	48.47
222.021	34.44
222.24	36.43
222.459	-33.27
222.678	7.78
222.897	20.49
223.117	-4.5
223.336	-45.56
223.555	63.35
223.774	71.52
223.993	38.21
224.213	48.84
224.432	42.89
224.651	48.29
224.87	45.42
225.089	48.78
225.308	18.52
225.527	13.06
225.746	-35.71
225.965	-47.57
226.184	-95.51
226.404	24.41
226.623	56.62
226.842	76.68
227.061	52.19
227.28	49.28
227.499	52.43
227.718	42.14
227.936	30.87
228.155	44.68
228.374	46.17
228.593	33.49
228.812	16.56
229.031	2.15
229.25	28.21
229.469	31.75
229.688	14.35
229.907	-35.93
230.125	31.36
230.344	8.42
230.563	-1.24
230.782	12.32
231.001	54.52
231.22	39
231.438	47.71
231.657	38.16
231.876	36.71
232.095	23.15
232.313	12.37
232.532	-13.9
232.751	17.57
232.969	29.77
233.188	34.56
233.407	54.17
233.625	77.83
233.844	81.51
234.063	72.22
234.281	69.33
234.5	51.3
234.719	25.32
234.937	1.46
235.156	1.24
235.374	-6.43
235.593	4.8
235.811	-11.69
236.03	22.14
236.249	59.36
236.467	65.01
236.686	69.66
236.904	91.9
237.123	82.23
237.341	61.2
237.559	59.59
237.778	56.34
237.996	44.17
238.215	43.96
238.433	39.18
238.652	42.4
238.87	39.81
239.088	51.49
239.307	54.07
239.525	50.55
239.743	68.28
239.962	80.23
240.18	70
240.398	82.74
240.617	110.06
240.835	82.4
241.053	76.77
241.271	98.5
241.49	79.12
241.708	68.92
241.926	49.08
242.144	40.28
242.363	55.47
242.581	52.32
242.799	35.69
243.017	40.03
243.235	62.34
243.453	47.09
243.672	38.21
243.89	37
244.108	49.41
244.326	18.95
244.544	29.28
244.762	43.81
244.98	41.93
245.198	46.83
245.416	59.4
245.634	43.99
245.852	30.81
246.07	28.19
246.288	-3.27
246.506	15.05
246.724	17.29
246.942	23
247.16	45.41
247.378	47.15
247.596	43.65
247.814	56.32
248.032	59
248.25	57.89
248.468	59.37
248.685	51.69
248.903	25.22
249.121	40.08
249.339	38.32
249.557	38.62
249.775	21.2
249.992	72.4
250.21	54.45
250.428	46.99
250.646	42.69
250.863	61.65
251.081	24.68
251.299	8.61
251.517	23.22
251.734	15.24
251.952	10.03
252.17	14.49
252.387	6.81
252.605	8.63
252.823	44.33
253.04	-3.37
253.258	26.95
253.475	41.79
253.693	16.11
253.911	25.41
254.128	36.61
254.346	40.96
254.563	33.7
254.781	56.35
254.998	52.86
255.216	39.34
255.433	32.72
255.651	42.14
255.868	12.22
256.086	-17.06
256.303	19.69
256.521	29.37
256.738	27.04
256.956	56.32
257.173	74.44
257.39	60.9
257.608	43.82
257.825	48.59
258.043	1.96
258.26	8.14
258.477	-6.66
258.695	-0.62
258.912	-8.68
259.129	29.25
259.346	40.87
259.564	60.71
259.781	68.24
259.998	70.62
260.216	54.12
260.433	39.65
260.65	22.77
260.867	19.67
261.084	2.31
261.302	-25.87
261.519	-9.39
261.736	26.64
261.953	35.44
262.17	37.71
262.387	53.67
262.604	72.35
262.822	72.47
263.039	63.77
263.256	61.75
263.473	65.06
263.69	63.44
263.907	51.14
264.124	28.15
264.341	25.54
264.558	1.44
264.775	-4.57
264.992	-2.29
265.209	24.17
265.426	15.95
265.643	34.69
265.86	49.92
266.077	58.42
266.294	55.16
266.51	61.04
266.727	71.58
266.944	57.13
267.161	61.96
267.378	60.19
267.595	61.47
267.812	49.52
268.028	46.2
268.245	39.36
268.462	47.74
268.679	56.47
268.896	40.53
269.112	38.68
269.329	26.07
269.546	-23.69
269.763	-18.07
269.979	14.77
270.196	29.65
270.413	34.15
270.629	31.82
270.846	46
271.063	33.9
271.279	41.47
271.496	54.5
271.712	32.22
271.929	4.91
272.146	38.01
272.362	24.79
272.579	5.34
272.795	25.49
273.012	32.22
273.228	22.55
273.445	16.84
273.661	32.17
273.878	40.74
274.094	27.01
274.311	10.95
274.527	7.02
274.744	8.53
274.96	9.4
275.177	26.98
275.393	25.96
275.609	20.05
275.826	17.88
276.042	20.08
276.259	20.81
276.475	16.33
276.691	13.19
276.908	23.07
277.124	9.93
277.34	12.97
277.557	28.37
277.773	41.78
277.989	37.14
278.205	53.71
278.422	53.56
278.638	25.55
278.854	4.98
279.07	5.91
279.286	10.58
279.503	24.93
279.719	40.23
279.935	51.28
280.151	47.38
280.367	37.85
280.583	17.52
280.799	20.19
281.016	21.69
281.232	11.24
281.448	0.33
281.664	11.88
281.88	20.87
282.096	26.46
282.312	22.48
282.528	-0.53
282.744	1.64
282.96	-5.29
283.176	-7.32
283.392	1.97
283.608	31.35
283.824	30.65
284.04	30.94
284.256	26.41
284.471	20.97
284.687	24.63
284.903	21.76
285.119	9.02
285.335	3.88
285.551	1.4
285.767	1.56
285.982	20.79
286.198	30.14
286.414	19.78
286.63	16.96
286.846	1.35
287.061	-8
287.277	-40.37
287.493	-13.89
287.709	-20.65
287.924	10.3
288.14	-13.33
288.356	-20.12
288.571	-18.65
288.787	-16.31
289.003	-37.34
289.218	-38.79
289.434	9.67
289.65	21.17
289.865	46.09
290.081	59.87
290.296	41.85
290.512	40.62
290.727	42.27
290.943	42.32
291.159	48.89
291.374	49.06
291.59	57.63
291.805	55.22
292.021	62.7
292.236	57.3
292.451	51.7
292.667	57.24
292.882	46.67
293.098	17.35
293.313	32.08
293.529	55.68
293.744	26.65
293.959	31.17
294.175	39.09
294.39	23.04
294.605	26.42
294.821	28.05
295.036	28.53
295.251	44.59
295.467	46.18
295.682	38.8
295.897	31.18
296.112	34.85
296.328	18.5
296.543	31.89
296.758	12.74
296.973	15.25
297.188	15.14
297.404	35.89
297.619	36.9
297.834	54.11
298.049	62.91
298.264	81.98
298.479	62.7
298.694	36.33
298.909	42.51
299.125	31.85
299.34	-13.84
299.555	6.48
299.77	-3.71
299.985	27
300.2	50.96
300.415	97.63
300.63	91.34
300.845	101.17
301.06	69.97
301.275	38.48
301.49	34.48
301.704	46.54
301.919	49.04
302.134	53.16
302.349	58.27
302.564	54.87
302.779	46.32
302.994	32.58
303.209	28.62
303.423	8.78
303.638	12.41
303.853	13.95
304.068	21.06
304.283	38.33
304.497	61.68
304.712	71.12
304.927	76.6
305.142	79.72
305.356	68.16
305.571	54.28
305.786	37.55
306	32.95
306.215	23.03
306.43	34.46
306.644	22.47
306.859	19.44
307.074	19.45
307.288	40.64
307.503	30.68
307.717	36.44
307.932	31.12
308.147	38.7
308.361	14.66
308.576	39.42
308.79	48.34
309.005	61.46
309.219	50.35
309.434	64.29
309.648	67.47
309.863	70.53
310.077	53.43
310.292	69.17
310.506	53.93
310.72	54.13
310.935	27.38
311.149	36.35
311.364	6.82
311.578	0.5
311.792	-5.37
312.007	1.15
312.221	-0.82
312.435	14.58
312.649	34.8
312.864	-15.24
313.078	-1.33
313.292	-8.69
313.507	-1.11
313.721	-13.08
313.935	13.36
314.149	9.68
314.363	34.03
314.578	28.86
314.792	34.21
315.006	7.02
315.22	24.22
315.434	0.85
315.648	-12.64
315.862	4.35
316.077	26.37
316.291	26.46
316.505	25.55
316.719	29.98
316.933	30.21
317.147	26.27
317.361	21.26
317.575	40.23
317.789	45.81
318.003	50.21
318.217	48.11
318.431	50.98
318.645	33.62
318.859	10.67
319.073	-10.33
319.287	14.1
319.5	27.12
319.714	56.03
319.928	67.8
320.142	74.75
320.356	53.12
320.57	45.53
320.784	26.58
320.997	10.3
321.211	28.66
321.425	40.23
321.639	34.68
321.853	-4.59
322.066	-8.47
322.28	-13.54
322.494	-42.78
322.707	-63.61
322.921	-16.06
323.135	3.71
323.349	-8.53
323.562	19.65
323.776	57.32
323.989	52.14
324.203	49.26
324.417	53.63
324.63	58.46
324.844	46.94
325.057	51.43
325.271	47.13
325.485	59.02
325.698	31.97
325.912	18.25
326.125	29.97
326.339	21.69
326.552	22.95
326.766	46.09
326.979	52.52
327.193	38.61
327.406	49.92
327.619	40.77
327.833	1.65
328.046	-3.42
328.26	16.54
328.473	16.59
328.686	34.33
328.9	41.18
329.113	53.02
329.326	55.25
329.54	63.41
329.753	57.74
329.966	71.08
330.179	65.73
330.393	57.09
330.606	51.45
330.819	49.24
331.032	45.97
331.246	46.18
331.459	47.16
331.672	29.98
331.885	22.85
332.098	22.08
332.311	30.85
332.525	31.03
332.738	39.68
332.951	47.09
333.164	36.62
333.377	36.2
333.59	29.49
333.803	32.17
334.016	26.04
334.229	20.81
334.442	-18.77
334.655	-29.37
334.868	-31.97
335.081	-35.39
335.294	-16.07
335.507	13.04
335.72	28.07
335.933	24.12
336.146	26.22
336.359	37.4
336.572	38.69
336.785	38.89
336.997	58.84
337.21	60.13
337.423	58.03
337.636	74.81
337.849	72.04
338.062	45.47
338.274	32.29
338.487	38.38
338.7	33.92
338.913	45.66
339.125	46.32
339.338	50.52
339.551	39.01
339.763	21.99
339.976	8.5
340.189	19.48
340.402	2.42
340.614	7.17
340.827	32.04
341.039	42.52
341.252	40.26
341.465	55.53
341.677	50.01
341.89	46.27
342.102	46.67
342.315	49.5
342.527	51.8
342.74	54.65
342.952	54.7
343.165	50.93
343.377	26.27
343.59	35.39
343.802	19.56
344.015	-20.34
344.227	-59.83
344.44	-18.92
344.652	-14.26
344.864	-17.41
345.077	13.32
345.289	36.26
345.502	10.08
345.714	7.73
345.926	23.19
346.139	28.51
346.351	24.71
346.563	49.9
346.775	45.81
346.988	36.63
347.2	46.02
347.412	53.91
347.624	47.68
347.837	45.52
348.049	38.79
348.261	8.29
348.473	0.48
348.685	7.15
348.897	8.95
349.11	8.68
349.322	19.74
349.534	19.44
349.746	13.52
349.958	10.2
350.17	12.48
350.382	-7.82
350.594	-11.05
350.806	-2.03
351.018	5.9
351.23	15.2
351.442	45.15
351.654	34.28
351.866	30.98
352.078	17.63
352.29	7.49
352.502	5.17
352.714	18.15
352.926	3.45
353.138	2.73
353.35	12.42
353.561	27.61
353.773	32.21
353.985	40.87
354.197	48.59
354.409	57.23
354.621	49.74
354.832	55.46
355.044	60.34
355.256	53.1
355.468	35.79
355.679	38.02
355.891	34.3
356.103	41.26
356.314	37.29
356.526	38.69
356.738	45.43
356.949	51.04
357.161	19.56
357.373	26.69
357.584	28.9
357.796	10.42
358.008	-13.14
358.219	4.1
358.431	8.53
358.642	12.57
358.854	4.52
359.065	32.54
359.277	48.87
359.488	52.27
359.7	54.11
359.911	45.97
360.123	29.01
360.334	15.47
360.546	12.97
360.757	17.83
360.969	33.05
361.18	33.87
361.391	42.8
361.603	54.4
361.814	36.83
362.025	39.45
362.237	47.82
362.448	44.17
362.659	21.18
362.871	19.72
363.082	17.54
363.293	13.46
363.504	17.86
363.716	34.2
363.927	46.52
364.138	51
364.349	50.24
364.56	54.19
364.772	70.81
364.983	56.07
365.194	41.78
365.405	35.45
365.616	21.93
365.827	12.99
366.038	22.9
366.25	23.52
366.461	38.22
366.672	37.77
366.883	22.93
367.094	22.6
367.305	38.53
367.516	21.51
367.727	28.99
367.938	34.95
368.149	41.28
368.36	26.97
368.571	36.87
368.781	48.4
368.992	74.82
369.203	77.37
369.414	79.39
369.625	73.89
369.836	66.21
370.047	51.83
370.258	38.74
370.468	33.01
370.679	53.6
370.89	55
371.101	41.24
371.312	32.68
371.522	33.43
371.733	26.35
371.944	28.99
372.155	34.77
372.365	40.78
372.576	49.29
372.787	39.74
372.997	39.47
373.208	43.64
373.419	28.49
373.629	23.35
373.84	34.38
374.05	28.93
374.261	21.62
374.472	43.37
374.682	43.69
374.893	37.23
375.103	32.68
375.314	43.18
375.524	35.2
375.735	27.03
375.945	23.04
376.156	24.61
376.366	21.15
376.577	22.11
376.787	21.42
376.997	22.36
377.208	25
377.418	21.59
377.629	11.46
377.839	14.17
378.049	10.14
378.26	-1.06
378.47	-3.65
378.68	4.28
378.89	12.46
379.101	9.64
379.311	20.43
379.521	28.78
379.732	33.35
379.942	31.79
380.152	46.24
380.362	40.12
380.572	44.96
380.783	43.22
380.993	37.12
381.203	29.2
381.413	23.87
381.623	15.44
381.833	17.31
382.043	21.69
382.253	25.55
382.463	33.82
382.674	38.05
382.884	30.15
383.094	27.39
383.304	22.02
383.514	13.31
383.724	0.03
383.934	3.69
384.144	10.14
384.353	9.77
384.563	11.84
384.773	18.91
384.983	22.11
385.193	14.91
385.403	18.9
385.613	17.82
385.823	16.96
386.033	12.05
386.242	15.63
386.452	15.86
386.662	16.48
386.872	14.76
387.082	16.03
387.291	15.45
387.501	11.71
387.711	9.74
387.921	11.81
388.13	11.37
388.34	8.5
388.55	12.25
388.759	13.64
388.969	11.98
389.179	11.3
389.388	9.77
389.598	7.03
389.807	7.52
390.017	10.72
390.227	10.05
390.436	10.26
390.646	6.46
390.855	3.72
391.065	0.81
391.274	3.14
391.484	5.8
391.693	7.68
391.903	8.43
392.112	9.65
392.322	8.78
392.531	7.39
392.74	7.57
392.95	9.33
393.159	7.13
393.369	7.13
393.578	6.12
393.787	6.19
393.997	5.06
394.206	7.1
394.415	6.28
394.625	6.91
394.834	7
395.043	7.2
395.252	6.54
395.462	6.91
395.671	6.16
395.88	5.97
396.089	5.76
396.298	5.71
396.508	5.6
396.717	6.5
396.926	6.21
397.135	5.49
397.344	5.79
397.553	5.68
397.762	4.7
397.971	4.7
398.181	5.04
398.39	5.06
398.599	5.15
398.808	5.43
399.017	5.18
399.226	4.91
399.435	4.46
399.644	4.34
399.853	4.31
400.062	4.66
400.27	5.03
400.479	5.03
400.688	5.06
400.897	5.34
401.106	5.06
401.315	5.27
401.524	5.6
401.733	5.31
401.941	4.68
402.15	4.88
402.359	4.76
402.568	4.33
402.777	4.38
402.985	4.83
403.194	4.81
403.403	4.55
403.612	4.81
403.82	4.93
404.029	4.84
404.238	4.96
404.446	4.93
404.655	4.64
404.864	4.49
405.072	4.6
405.281	4.45
405.489	4.58
405.698	4.8
405.906	4.96
406.115	4.89
406.324	4.9
406.532	4.81
406.741	4.67
406.949	4.6
407.158	4.67
407.366	4.63
407.574	4.66
407.783	4.7
407.991	4.67
408.2	4.32
408.408	4.26
408.617	4.24
408.825	4.24
409.033	4.27
409.242	4.31
409.45	4.21
409.658	4.22
409.867	4.14
410.075	4.1
410.283	4.22
410.491	4.26
410.7	4.23
410.908	4.17
411.116	4.04
411.324	4.05
411.533	4.04
411.741	3.91
411.949	3.87
412.157	3.9
412.365	3.84
412.573	3.86
412.781	3.87
412.99	4.04
413.198	4.04
413.406	3.95
413.614	3.84
413.822	3.99
414.03	3.95
414.238	3.98
414.446	4.06
414.654	4.25
414.862	4.28
415.07	4.14
415.278	4.13
415.486	4.1
415.694	4.1
415.902	3.94
416.109	4.01
416.317	4.05
416.525	3.97
416.733	3.94
416.941	3.91
417.149	3.76
417.357	3.62
417.564	3.67
417.772	3.48
417.98	3.71
418.188	3.93
418.395	3.88
418.603	3.88
418.811	4.18
419.019	3.88
419.226	3.81
419.434	3.77
419.642	3.77
419.849	3.5
420.057	3.63
420.265	3.58
420.472	3.77
420.68	3.64
420.887	3.71
421.095	3.5
421.302	3.68
421.51	3.5
421.717	3.55
421.925	3.48
422.132	3.69
422.34	3.64
422.547	3.6
422.755	3.69
422.962	3.81
423.17	3.81
423.377	3.77
423.585	3.93
423.792	3.86
423.999	3.67
424.207	3.59
424.414	3.31
424.621	3.14
424.829	3.33
425.036	3.5
425.243	3.44
425.451	3.46
425.658	3.63
425.865	3.41
426.072	3.38
426.28	3.39
426.487	3.56
426.694	3.34
426.901	3.27
427.108	3.33
427.315	3.56
427.523	3.49
427.73	3.67
427.937	4.04
428.144	3.98
428.351	3.74
428.558	3.68
428.765	3.63
428.972	3.53
429.179	3.5
429.386	3.55
429.593	3.73
429.8	3.97
430.007	3.92
430.214	3.85
430.421	3.9
430.628	3.93
430.835	3.93
431.042	3.84
431.249	3.97
431.456	4.05
431.662	3.96
431.869	3.88
432.076	3.87
432.283	3.91
432.49	3.81
432.697	3.91
432.903	3.96
433.11	3.98
433.317	3.85
433.524	3.82
433.73	3.95
433.937	3.92
434.144	4.04
434.35	4.06
434.557	4.22
434.764	4.24
434.97	4.28
435.177	4.34
435.384	4.48
435.59	4.51
435.797	4.4
436.003	4.31
436.21	4.27
436.416	4.26
436.623	4.13
436.829	4
437.036	4.14
437.242	4.09
437.449	4.16
437.655	4.25
437.862	4.43
438.068	4.38
438.275	4.44
438.481	4.39
438.687	4.38
438.894	4.39
439.1	4.47
439.307	4.36
439.513	4.37
439.719	4.3
439.926	4.31
440.132	4.24
440.338	4.43
440.544	4.43
440.751	4.6
440.957	4.61
441.163	4.65
441.369	4.66
441.575	4.71
441.782	4.81
441.988	4.91
442.194	4.92
442.4	4.94
442.606	4.92
442.812	4.9
443.018	4.81
443.224	4.76
443.431	4.74
443.637	4.82
443.843	4.75
444.049	4.79
444.255	4.95
444.461	4.96
444.667	5.04
444.873	4.98
445.079	5
445.284	4.96
445.49	5.07
445.696	5.1
445.902	5.18
446.108	5.29
446.314	5.38
446.52	5.38
446.726	5.3
446.931	5.41
447.137	5.39
447.343	5.36
447.549	5.39
447.755	5.36
447.96	5.27
448.166	5.31
448.372	5.26
448.578	5.23
448.783	5.27
448.989	5.29
449.195	5.22
449.4	5.27
449.606	5.33
449.812	5.36
450.017	5.42
450.223	5.45
450.428	5.53
450.634	5.45
450.84	5.48
451.045	5.57
451.251	5.64
451.456	5.5
451.662	5.34
451.867	5.35
452.073	5.21
452.278	5.11
452.483	5.15
452.689	5.31
452.894	5.29
453.1	5.31
453.305	5.43
453.51	5.52
453.716	5.58
453.921	5.62
454.127	5.73
454.332	5.83
454.537	5.77
454.742	5.78
454.948	5.75
455.153	5.7
455.358	5.56
455.563	5.44
455.769	5.44
455.974	5.45
456.179	5.47
456.384	5.46
456.589	5.68
456.795	5.67
457	5.71
457.205	5.61
457.41	5.67
457.615	5.66
457.82	5.64
458.025	5.65
458.23	5.79
458.435	5.72
458.64	5.71
458.845	5.64
459.05	5.66
459.255	5.66
459.46	5.7
459.665	5.65
459.87	5.71
460.075	5.68
460.28	5.71
460.485	5.77
460.69	5.74
460.895	5.85
461.099	5.89
461.304	5.7
461.509	5.69
461.714	5.89
461.919	5.87
462.123	5.89
462.328	5.97
462.533	6.09
462.738	6.08
462.942	6.1
463.147	6.13
463.352	6.05
463.556	6.02
463.761	5.97
463.966	5.95
464.17	5.91
464.375	6.13
464.58	6.18
464.784	6.16
464.989	6.33
465.193	6.34
465.398	6.36
465.602	6.18
465.807	6.34
466.011	6.19
466.216	6.29
466.42	6.3
466.625	6.47
466.829	6.36
467.034	6.43
467.238	6.26
467.443	6.27
467.647	6.35
467.851	6.42
468.056	6.34
468.26	6.52
468.464	6.53
468.669	6.53
468.873	6.44
469.077	6.59
469.282	6.67
469.486	6.65
469.69	6.61
469.894	6.74
470.099	6.69
470.303	6.61
470.507	6.73
470.711	6.77
470.915	6.8
471.119	6.89
471.324	7
471.528	6.94
471.732	6.92
471.936	6.99
472.14	6.95
472.344	6.95
472.548	6.97
472.752	6.96
472.956	6.89
473.16	6.9
473.364	7.02
473.568	7.1
473.772	7.13
473.976	7.24
474.18	7.3
474.384	7.26
474.588	7.36
474.792	7.49
474.995	7.42
475.199	7.38
475.403	7.26
475.607	7.25
475.811	7.22
476.015	7.27
476.218	7.33
476.422	7.48
476.626	7.41
476.83	7.42
477.033	7.5
477.237	7.53
477.441	7.47
477.644	7.42
477.848	7.41
478.052	7.4
478.255	7.45
478.459	7.51
478.663	7.57
478.866	7.63
479.07	7.68
479.273	7.57
479.477	7.58
479.681	7.65
479.884	7.7
480.088	7.73
480.291	7.82
480.495	7.82
480.698	7.82
480.901	7.75
481.105	7.66
481.308	7.72
481.512	7.78
481.715	7.83
481.919	7.92
482.122	7.99
482.325	8.02
482.529	8.03
482.732	8.05
482.935	8.04
483.138	8.07
483.342	8.04
483.545	8.06
483.748	8.05
483.952	8.06
484.155	8.04
484.358	8.05
484.561	8.03
484.764	8
484.967	7.93
485.171	7.88
485.374	7.92
485.577	7.9
485.78	7.93
485.983	7.94
486.186	8.06
486.389	8.06
486.592	8.14
486.795	8.18
486.998	8.23
487.201	8.2
487.404	8.21
487.607	8.12
487.81	8.06
488.013	8.08
488.216	8.01
488.419	7.97
488.622	8.04
488.825	8.06
489.028	8.13
489.231	8.2
489.433	8.25
489.636	8.22
489.839	8.29
490.042	8.31
490.245	8.39
490.447	8.37
490.65	8.41
490.853	8.33
491.056	8.23
491.258	8.12
491.461	8.16
491.664	8.04
491.866	8.14
492.069	8.14
492.272	8.17
492.474	8.1
492.677	8.19
492.879	8.06
493.082	8.03
493.285	8.03
493.487	8.2
493.69	8.24
493.892	8.36
494.095	8.41
494.297	8.53
494.5	8.33
494.702	8.38
494.905	8.36
495.107	8.45
495.309	8.39
495.512	8.51
495.714	8.48
495.917	8.48
496.119	8.46
496.321	8.43
496.524	8.41
496.726	8.35
496.928	8.37
497.13	8.4
497.333	8.43
497.535	8.47
497.737	8.58
497.939	8.62
498.142	8.62
498.344	8.58
498.546	8.62
498.748	8.6
498.95	8.51
499.152	8.51
499.355	8.59
499.557	8.54
499.759	8.5
499.961	8.59
500.163	8.56
500.365	8.53
500.567	8.48
500.769	8.47
500.971	8.5
501.173	8.61
501.375	8.66
501.577	8.75
501.779	8.86
501.981	8.84
502.183	8.84
502.385	8.9
502.587	8.93
502.788	8.84
502.99	8.83
503.192	8.86
503.394	8.85
503.596	8.89
503.798	8.96
503.999	9.03
504.201	9.02
504.403	9.04
504.605	9.07
504.806	9.12
505.008	9.16
505.21	9.1
505.411	9.11
505.613	9.09
505.815	9.11
506.016	8.99
506.218	9.03
506.42	9.09
506.621	9
506.823	9.03
507.024	9.16
507.226	9.27
507.427	9.24
507.629	9.37
507.83	9.35
508.032	9.35
508.233	9.36
508.435	9.4
508.636	9.37
508.838	9.33
509.039	9.42
509.24	9.43
509.442	9.4
509.643	9.45
509.845	9.49
510.046	9.43
510.247	9.36
510.448	9.36
510.65	9.34
510.851	9.36
511.052	9.38
511.254	9.52
511.455	9.5
511.656	9.44
511.857	9.38
512.058	9.38
512.26	9.22
512.461	9.25
512.662	9.38
512.863	9.45
513.064	9.48
513.265	9.52
513.466	9.56
513.667	9.59
513.868	9.62
514.069	9.58
514.27	9.58
514.471	9.6
514.672	9.59
514.873	9.63
515.074	9.71
515.275	9.82
515.476	9.89
515.677	9.84
515.878	9.75
516.079	9.77
516.28	9.73
516.481	9.62
516.682	9.67
516.882	9.79
517.083	9.74
517.284	9.76
517.485	9.81
517.686	9.84
517.886	9.84
518.087	9.86
518.288	9.92
518.488	10
518.689	9.98
518.89	10.02
519.091	10.09
519.291	10.02
519.492	10
519.692	10.02
519.893	9.89
520.094	9.88
520.294	9.99
520.495	10.03
520.695	10.08
520.896	10.24
521.096	10.22
521.297	10.23
521.497	10.21
521.698	10.22
521.898	10.12
522.099	10.14
522.299	10.12
522.499	10.12
522.7	10.11
522.9	10.18
523.101	10.16
523.301	10.21
523.501	10.28
523.702	10.28
523.902	10.22
524.102	10.3
524.302	10.26
524.503	10.21
524.703	10.21
524.903	10.32
525.103	10.34
525.304	10.28
525.504	10.29
525.704	10.32
525.904	10.3
526.104	10.25
526.304	10.3
526.504	10.28
526.705	10.2
526.905	10.19
527.105	10.19
527.305	10.21
527.505	10.26
527.705	10.38
527.905	10.37
528.105	10.42
528.305	10.44
528.505	10.46
528.705	10.48
528.905	10.52
529.105	10.53
529.304	10.54
529.504	10.56
529.704	10.57
529.904	10.63
530.104	10.66
530.304	10.7
530.503	10.69
530.703	10.69
530.903	10.69
531.103	10.68
531.303	10.69
531.502	10.7
531.702	10.68
531.902	10.64
532.101	10.68
532.301	10.68
532.501	10.7
532.7	10.73
532.9	10.8
533.1	10.8
533.299	10.92
533.499	10.93
533.698	10.92
533.898	10.9
534.097	10.9
534.297	10.77
534.496	10.73
534.696	10.76
534.895	10.79
535.095	10.8
535.294	10.9
535.494	10.97
535.693	10.95
535.892	10.95
536.092	10.97
536.291	10.98
536.491	11.03
536.69	11.07
536.889	11.09
537.088	11.14
537.288	11.08
537.487	11.04
537.686	11.06
537.886	11.05
538.085	11.05
538.284	11.1
538.483	11.13
538.682	11.16
538.882	11.15
539.081	11.17
539.28	11.22
539.479	11.27
539.678	11.31
539.877	11.39
540.076	11.41
540.275	11.33
540.474	11.32
540.673	11.36
540.872	11.32
541.071	11.38
541.27	11.53
541.469	11.53
541.668	11.52
541.867	11.58
542.066	11.67
542.265	11.68
542.464	11.83
542.663	11.95
542.862	11.94
543.06	11.94
543.259	11.97
543.458	11.99
543.657	11.95
543.856	12.09
544.054	12.1
544.253	12.15
544.452	12.19
544.651	12.13
544.849	12.14
545.048	12.19
545.247	12.17
545.445	12.14
545.644	12.28
545.843	12.29
546.041	12.26
546.24	12.29
546.438	12.32
546.637	12.34
546.836	12.41
547.034	12.45
547.233	12.51
547.431	12.63
547.63	12.7
547.828	12.76
548.027	12.79
548.225	12.87
548.423	12.85
548.622	12.87
548.82	12.95
549.019	13.02
549.217	13.01
549.415	13.08
549.614	13.14
549.812	13.09
550.01	13.21
550.209	13.28
550.407	13.41
550.605	13.46
550.803	13.56
551.002	13.6
551.2	13.71
551.398	13.69
551.596	13.74
551.794	13.8
551.993	13.84
552.191	13.94
552.389	13.93
552.587	14.05
552.785	14.11
552.983	14.14
553.181	14.1
553.379	14.25
553.577	14.3
553.775	14.34
553.973	14.43
554.171	14.54
554.369	14.63
554.567	14.68
554.765	14.79
554.963	14.82
555.161	14.91
555.359	14.99
555.557	15
555.755	15.07
555.952	15.15
556.15	15.26
556.348	15.29
556.546	15.44
556.744	15.51
556.941	15.56
557.139	15.63
557.337	15.8
557.535	15.91
557.732	16.04
557.93	16.08
558.128	16.16
558.325	16.15
558.523	16.26
558.721	16.29
558.918	16.56
559.116	16.6
559.313	16.7
559.511	16.71
559.708	16.84
559.906	16.92
560.104	17.06
560.301	17.17
560.498	17.3
560.696	17.37
560.893	17.4
561.091	17.43
561.288	17.53
561.486	17.59
561.683	17.67
561.88	17.79
562.078	17.96
562.275	18.07
562.473	18.13
562.67	18.07
562.867	18.12
563.064	18.19
563.262	18.28
563.459	18.4
563.656	18.48
563.853	18.54
564.051	18.58
564.248	18.64
564.445	18.72
564.642	18.92
564.839	19.02
565.036	19.17
565.234	19.14
565.431	19.24
565.628	19.32
565.825	19.32
566.022	19.32
566.219	19.5
566.416	19.48
566.613	19.56
566.81	19.69
567.007	19.75
567.204	19.85
567.401	19.98
567.598	20.09
567.795	20.18
567.991	20.25
568.188	20.27
568.385	20.19
568.582	20.29
568.779	20.3
568.976	20.35
569.172	20.35
569.369	20.6
569.566	20.56
569.763	20.43
569.96	20.5
570.156	20.53
570.353	20.56
570.55	20.69
570.746	20.86
570.943	20.87
571.14	20.98
571.336	20.98
571.533	21.01
571.729	21.18
571.926	21.26
572.123	21.23
572.319	21.28
572.516	21.32
572.712	21.29
572.909	21.29
573.105	21.4
573.302	21.44
573.498	21.31
573.695	21.37
573.891	21.45
574.087	21.42
574.284	21.5
574.48	21.58
574.677	21.6
574.873	21.64
575.069	21.73
575.266	21.69
575.462	21.67
575.658	21.6
575.854	21.63
576.051	21.55
576.247	21.54
576.443	21.66
576.639	21.8
576.835	21.73
577.032	21.81
577.228	21.83
577.424	21.75
577.62	21.75
577.816	21.69
578.012	21.63
578.208	21.55
578.404	21.65
578.6	21.62
578.796	21.6
578.993	21.65
579.189	21.81
579.384	21.8
579.58	21.82
579.776	21.98
579.972	22.01
580.168	21.86
580.364	21.86
580.56	21.81
580.756	21.75
580.952	21.64
581.148	21.71
581.343	21.69
581.539	21.65
581.735	21.61
581.931	21.63
582.127	21.69
582.322	21.58
582.518	21.59
582.714	21.69
582.909	21.71
583.105	21.67
583.301	21.75
583.496	21.74
583.692	21.69
583.888	21.71
584.083	21.63
584.279	21.64
584.474	21.62
584.67	21.57
584.866	21.57
585.061	21.7
585.257	21.67
585.452	21.72
585.648	21.79
585.843	21.77
586.039	21.73
586.234	21.73
586.429	21.71
586.625	21.6
586.82	21.55
587.015	21.66
587.211	21.76
587.406	21.77
587.601	21.92
587.797	21.99
587.992	21.94
588.187	21.89
588.383	21.87
588.578	21.84
588.773	21.91
588.968	21.86
589.163	21.93
589.359	22.03
589.554	22.02
589.749	21.91
589.944	21.91
590.139	21.89
590.334	21.88
590.529	21.98
590.724	22.08
590.919	22.07
591.114	22.09
591.309	22.01
591.504	22.01
591.699	21.96
591.894	22.12
592.089	22.15
592.284	22.26
592.479	22.22
592.674	22.4
592.869	22.36
593.064	22.43
593.259	22.57
593.454	22.63
593.648	22.77
593.843	22.84
594.038	22.86
594.233	22.86
594.428	22.97
594.622	23.01
594.817	23.09
595.012	23.11
595.206	23.19
595.401	23.18
595.596	23.1
595.79	23.07
595.985	23.16
596.18	23.23
596.374	23.36
596.569	23.47
596.763	23.67
596.958	23.73
597.153	23.74
597.347	23.83
597.542	23.84
597.736	23.87
597.931	23.95
598.125	24.05
598.319	24.06
598.514	24.11
598.708	24.18
598.903	24.23
599.097	24.31
599.291	24.37
599.486	24.49
599.68	24.56
599.874	24.62
600.069	24.65
600.263	24.78
600.457	24.8
600.651	24.77
600.846	24.87
601.04	24.84
601.234	24.71
601.428	24.67
601.622	24.68
601.817	24.63
602.011	24.68
602.205	24.84
602.399	24.95
602.593	24.96
602.787	24.94
602.981	24.94
603.175	25
603.369	24.96
603.563	25
603.757	25.1
603.951	25.12
604.145	25.04
604.339	25.09
604.533	25.12
604.727	25.07
604.921	25.04
605.115	25.03
605.309	24.96
605.502	24.93
605.696	24.93
605.89	24.9
606.084	24.88
606.278	24.91
606.471	24.91
606.665	24.93
606.859	24.94
607.053	24.91
607.246	24.8
607.44	24.76
607.634	24.66
607.827	24.52
608.021	24.54
608.214	24.54
608.408	24.37
608.602	24.36
608.795	24.46
608.989	24.35
609.182	24.32
609.376	24.42
609.569	24.32
609.763	24.2
609.956	24.17
610.15	24.09
610.343	23.98
610.537	24
610.73	23.95
610.923	23.92
611.117	23.97
611.31	23.86
611.504	23.79
611.697	23.78
611.89	23.68
612.083	23.57
612.277	23.62
612.47	23.56
612.663	23.49
612.856	23.43
613.05	23.35
613.243	23.22
613.436	23.05
613.629	22.99
613.822	22.93
614.015	22.89
614.209	22.85
614.402	22.85
614.595	22.83
614.788	22.78
614.981	22.72
615.174	22.76
615.367	22.7
615.56	22.51
615.753	22.49
615.946	22.49
616.139	22.42
616.332	22.43
616.525	22.45
616.718	22.26
616.911	22.22
617.103	22.07
617.296	22.02
617.489	22.04
617.682	22.15
617.875	22
618.067	22.08
618.26	22.04
618.453	21.99
618.646	21.82
618.838	21.83
619.031	21.69
619.224	21.62
619.417	21.66
619.609	21.61
619.802	21.63
619.994	21.54
620.187	21.56
620.38	21.45
620.572	21.49
620.765	21.49
620.957	21.62
621.15	21.63
621.342	21.63
621.535	21.55
621.727	21.49
621.92	21.42
622.112	21.42
622.305	21.42
622.497	21.49
622.69	21.53
622.882	21.42
623.074	21.35
623.267	21.28
623.459	21.24
623.651	21.21
623.844	21.3
624.036	21.32
624.228	21.29
624.42	21.34
624.613	21.22
624.805	21.16
624.997	21.09
625.189	21.08
625.381	21.04
625.574	21.17
625.766	21.15
625.958	21.17
626.15	21.08
626.342	20.99
626.534	20.87
626.726	20.83
626.918	20.81
627.11	20.87
627.302	20.81
627.494	20.82
627.686	20.8
627.878	20.72
628.07	20.68
628.262	20.63
628.454	20.49
628.646	20.42
628.838	20.38
629.029	20.34
629.221	20.32
629.413	20.39
629.605	20.45
629.797	20.48
629.989	20.48
630.18	20.47
630.372	20.31
630.564	20.21
630.755	20.03
630.947	19.98
631.139	20
631.33	19.98
631.522	19.96
631.714	19.98
631.905	19.94
632.097	19.86
632.289	19.9
632.48	19.89
632.672	19.87
632.863	19.74
633.055	19.64
633.246	19.63
633.438	19.56
633.629	19.57
633.821	19.61
634.012	19.67
634.203	19.64
634.395	19.71
634.586	19.68
634.777	19.65
634.969	19.73
635.16	19.72
635.351	19.69
635.543	19.7
635.734	19.69
635.925	19.59
636.117	19.55
636.308	19.42
636.499	19.46
636.69	19.46
636.881	19.48
637.073	19.38
637.264	19.33
637.455	19.28
637.646	19.29
637.837	19.15
638.028	19.25
638.219	19.33
638.41	19.37
638.601	19.35
638.792	19.47
638.983	19.49
639.174	19.52
639.365	19.35
639.556	19.43
639.747	19.32
639.938	19.21
640.129	19.12
640.32	19.11
640.511	18.95
640.701	18.89
640.892	18.92
641.083	18.83
641.274	18.82
641.465	18.7
641.655	18.69
641.846	18.62
642.037	18.7
642.228	18.66
642.418	18.59
642.609	18.5
642.8	18.4
642.99	18.38
643.181	18.3
643.372	18.4
643.562	18.45
643.753	18.38
643.943	18.33
644.134	18.37
644.324	18.27
644.515	18.3
644.705	18.38
644.896	18.29
645.086	18.22
645.277	18.25
645.467	18.16
645.658	18.19
645.848	18.14
646.038	18.09
646.229	18.12
646.419	18.06
646.61	17.95
646.8	18.04
646.99	18.03
647.18	17.92
647.371	17.88
647.561	17.89
647.751	17.82
647.941	17.89
648.132	17.99
648.322	18.03
648.512	17.97
648.702	17.92
648.892	17.87
649.082	17.8
649.272	17.89
649.462	17.93
649.653	17.94
649.843	17.95
650.033	17.97
650.223	17.84
650.413	17.85
650.603	17.86
650.793	17.77
650.983	17.77
651.172	17.77
651.362	17.6
651.552	17.59
651.742	17.76
651.932	17.64
652.122	17.63
652.312	17.6
652.502	17.49
652.691	17.24
652.881	17.26
653.071	17.13
653.261	17.14
653.45	17.05
653.64	16.99
653.83	16.92
654.019	16.86
654.209	16.75
654.399	16.72
654.588	16.6
654.778	16.35
654.968	16.23
655.157	16.14
655.347	16.04
655.536	15.98
655.726	15.84
655.915	15.82
656.105	15.76
656.294	15.66
656.484	15.55
656.673	15.63
656.863	15.54
657.052	15.45
657.241	15.44
657.431	15.31
657.62	15.15
657.809	14.98
657.999	14.84
658.188	14.64
658.377	14.61
658.567	14.45
658.756	14.29
658.945	14.22
659.134	14.13
659.324	13.89
659.513	13.83
659.702	13.71
659.891	13.56
660.08	13.35
660.269	13.27
660.458	13.1
660.648	13
660.837	12.86
661.026	12.76
661.215	12.62
661.404	12.54
661.593	12.32
661.782	12.1
661.971	12.04
662.16	11.91
662.349	11.75
662.538	11.76
662.726	11.71
662.915	11.61
663.104	11.58
663.293	11.5
663.482	11.33
663.671	11.26
663.86	11.16
664.048	11
664.237	10.88
664.426	10.91
664.615	10.75
664.803	10.61
664.992	10.49
665.181	10.42
665.369	10.36
665.558	10.37
665.747	10.35
665.935	10.3
666.124	10.27
666.312	10.07
666.501	10
666.69	9.96
666.878	9.93
667.067	9.89
667.255	9.85
667.444	9.69
667.632	9.61
667.82	9.5
668.009	9.51
668.197	9.66
668.386	9.76
668.574	9.71
668.762	9.86
668.951	9.94
669.139	9.91
669.327	9.94
669.516	9.9
669.704	9.87
669.892	9.77
670.08	9.67
670.269	9.61
670.457	9.74
670.645	9.81
670.833	9.76
671.021	9.75
671.21	9.84
671.398	9.7
671.586	9.62
671.774	9.83
671.962	10.06
672.15	10.14
672.338	10.28
672.526	10.36
672.714	10.34
672.902	10.25
673.09	10.2
673.278	10.18
673.466	10.14
673.654	10.16
673.842	10.35
674.03	10.43
674.218	10.7
674.405	10.95
674.593	11.01
674.781	10.89
674.969	10.98
675.157	10.9
675.344	10.88
675.532	10.92
675.72	11.06
675.908	11.07
676.095	11.24
676.283	11.25
676.471	11.24
676.658	11.33
676.846	11.61
677.033	11.66
677.221	11.77
677.409	11.99
677.596	12.24
677.784	12.1
677.971	12.28
678.159	12.4
678.346	12.38
678.534	12.38
678.721	12.37
678.909	12.41
679.096	12.51
679.283	12.71
679.471	12.88
679.658	13.18
679.846	13.34
680.033	13.43
680.22	13.53
680.408	13.59
680.595	13.69
680.782	13.82
680.969	13.98
681.157	14.15
681.344	14.19
681.531	14.39
681.718	14.49
681.905	14.58
682.093	14.73
682.28	14.91
682.467	15.06
682.654	15.19
682.841	15.53
683.028	15.75
683.215	15.9
683.402	16.19
683.589	16.44
683.776	16.63
683.963	16.85
684.15	17.1
684.337	17.28
684.524	17.64
684.711	17.69
684.898	18.02
685.085	18.29
685.271	18.52
685.458	18.66
685.645	19.01
685.832	19.25
686.019	19.84
686.205	20.05
686.392	20.48
686.579	20.93
686.766	21.03
686.952	21.06
687.139	21.5
687.326	21.82
687.512	22.08
687.699	22.6
687.886	22.88
688.072	23.32
688.259	23.73
688.445	24.22
688.632	24.77
688.818	25.32
689.005	25.68
689.191	26.09
689.378	26.57
689.564	26.89
689.751	27.41
689.937	28.02
690.124	28.55
690.31	29.07
690.496	29.69
690.683	30.2
690.869	30.54
691.055	30.96
691.242	31.44
691.428	31.71
691.614	32.27
691.8	32.88
691.987	33.39
692.173	33.96
692.359	34.68
692.545	35.21
692.731	35.74
692.918	36.26
693.104	36.78
693.29	37.37
693.476	37.9
693.662	38.35
693.848	39.16
694.034	39.74
694.22	40.27
694.406	40.76
694.592	41.43
694.778	42
694.964	42.49
695.15	43.13
695.336	43.77
695.522	44.12
695.708	44.39
695.894	44.75
696.08	45.18
696.265	45.8
696.451	46.51
696.637	46.98
696.823	47.72
697.009	48.36
697.194	48.61
697.38	49.06
697.566	49.96
697.751	50.46
697.937	50.82
698.123	51.53
698.308	51.89
698.494	52.37
698.68	52.77
698.865	53.15
699.051	53.42
699.236	53.88
699.422	54.14
699.607	54.59
699.793	55.1
699.978	55.5
700.164	56.19
700.349	56.2
700.535	56.59
700.72	56.99
700.906	57.52
701.091	57.7
701.276	58.33
701.462	58.7
701.647	59.32
701.832	59.55
702.018	60.08
702.203	60.54
702.388	61.21
702.573	61.48
702.759	61.89
702.944	62.17
703.129	62.28
703.314	62.37
703.499	62.78
703.684	63.2
703.87	63.5
704.055	64.09
704.24	64.46
704.425	64.59
704.61	65.03
704.795	65.43
704.98	65.92
705.165	66.32
705.35	66.71
705.535	67.05
705.72	67.58
705.905	67.74
706.09	67.86
706.275	68.41
706.459	68.7
706.644	68.98
706.829	69.16
707.014	69.67
707.199	69.69
707.384	69.59
707.568	69.42
707.753	69.69
707.938	69.82
708.123	69.81
708.307	70.57
708.492	70.91
708.677	70.99
708.861	71.24
709.046	71.55
709.231	71.46
709.415	71.79
709.6	72.15
709.784	72.38
709.969	72.47
710.153	73.1
710.338	73.4
710.522	73.56
710.707	73.81
710.891	73.97
711.076	73.72
711.26	73.55
711.445	73.47
711.629	73.7
711.813	73.85
711.998	73.74
712.182	74.08
712.366	74.53
712.551	74.48
712.735	74.76
712.919	75.14
713.103	75.2
713.288	75.84
713.472	75.98
713.656	76.14
713.84	76.43
714.024	76.67
714.208	76.07
714.393	76.05
714.577	76.12
714.761	76.03
714.945	76.14
715.129	76.43
715.313	76.5
715.497	76.68
715.681	76.85
715.865	77.21
716.049	77.15
716.233	77.79
716.417	77.83
716.601	78.09
716.785	78.32
716.968	78.59
717.152	78.22
717.336	78.27
717.52	78.34
717.704	78.08
717.888	78.58
718.071	78.91
718.255	78.89
718.439	78.73
718.622	78.89
718.806	78.16
718.99	78.68
719.174	79.19
719.357	79.32
719.541	79.64
719.724	80.51
719.908	80.42
720.092	80.69
720.275	81.4
720.459	81.11
720.642	80.99
720.826	81.34
721.009	80.99
721.193	81.33
721.376	81.77
721.559	81.65
721.743	81.52
721.926	82.04
722.11	81.36
722.293	81.64
722.476	81.9
722.66	82.19
722.843	81.84
723.026	82.5
723.21	82.63
723.393	82.31
723.576	81.65
723.759	81.89
723.942	81.54
724.126	80.95
724.309	81.51
724.492	81.83
724.675	82.44
724.858	82.55
725.041	83.15
725.224	83.34
725.407	83.33
725.59	83.72
725.774	84.16
725.957	84.19
726.14	83.83
726.322	83.95
726.505	83.43
726.688	83.33
726.871	83.48
727.054	83.86
727.237	84.34
727.42	85.12
727.603	85.34
727.786	85.82
727.968	85.91
728.151	85.67
728.334	85.25
728.517	85.05
728.699	84.04
728.882	84.46
729.065	84.37
729.248	84.08
729.43	83.92
729.613	84.65
729.796	84.38
729.978	84.73
730.161	84.53
730.343	85.19
730.526	84.95
730.708	85.64
730.891	86.38
731.073	87.42
731.256	87.17
731.438	87.63
731.621	86.57
731.803	85.95
731.986	85.57
732.168	86.42
732.35	86.72
732.533	87.73
732.715	88.17
732.898	87.64
733.08	86.51
733.262	86.57
733.444	86.79
733.627	86.96
733.809	87.55
733.991	88.09
734.173	88.43
734.355	87.97
734.538	88.04
734.72	88.12
734.902	87.95
735.084	87.32
735.266	86.92
735.448	86.74
735.63	87.69
735.812	88.58
735.994	88.12
736.176	88.71
736.358	88.1
736.54	86.51
736.722	85.97
736.904	86.46
737.086	86.49
737.268	87.05
737.45	88
737.632	87.95
737.814	88.42
737.995	88.88
738.177	89.39
738.359	90.16
738.541	90.69
738.723	90.64
738.904	90.52
739.086	89.65
739.268	88.47
739.449	87.79
739.631	88.11
739.813	88.09
739.994	88.73
740.176	88.45
740.358	88.57
740.539	88.38
740.721	87.64
740.902	87.17
741.084	87.21
741.265	88.92
741.447	88.78
741.628	89.37
741.81	89.76
741.991	90.42
742.172	88.19
742.354	87.57
742.535	88.55
742.717	88.21
742.898	88.2
743.079	89.42
743.261	90.46
743.442	90.42
743.623	90.5
743.804	90.53
743.986	90.37
744.167	89.84
744.348	90.25
744.529	89.98
744.71	90.06
744.891	90.13
745.073	90.57
745.254	90.06
745.435	90.47
745.616	90.67
745.797	90.38
745.978	91.09
746.159	90.85
746.34	91.19
746.521	90.72
746.702	90.04
746.883	88.96
747.064	89.24
747.245	88.75
747.426	90.27
747.606	91.26
747.787	91.09
747.968	89.38
748.149	89.16
748.33	88.51
748.51	87.54
748.691	88.42
748.872	89.4
749.053	91.09
749.233	91.47
749.414	92.43
749.595	91.3
749.775	92.3
749.956	92.1
750.137	91.4
750.317	90.31
750.498	90.34
750.678	89.95
750.859	88.47
751.04	88.9
751.22	90.58
751.4	90.86
751.581	90.54
751.761	90.4
751.942	89.7
752.122	89.29
752.303	90.03
752.483	90.38
752.663	90.65
752.844	91.96
753.024	92.84
753.204	92.91
753.385	93.23
753.565	93.22
753.745	91.94
753.925	90.06
754.106	88.78
754.286	87.59
754.466	87.84
754.646	88.26
754.826	88.91
755.006	89.51
755.187	89.73
755.367	89.49
755.547	90.02
755.727	89.18
755.907	89.7
756.087	87.76
756.267	88.31
756.447	87.39
756.627	87.4
756.807	85.64
756.987	86.89
757.167	87.24
757.346	86.07
757.526	86.06
757.706	87.04
757.886	88.95
758.066	87.26
758.246	87.65
758.425	90.49
758.605	90.6
758.785	89.66
758.965	90.94
759.144	92.42
759.324	90.19
759.504	88.89
759.683	89.95
759.863	88.89
760.043	89.37
760.222	89.87
760.402	91.03
760.581	89.64
760.761	90.09
760.94	88.44
761.12	86.6
761.299	86.3
761.479	85.93
761.658	87.27
761.838	88.43
762.017	88.63
762.197	89.38
762.376	90.61
762.555	88.86
762.735	86.9
762.914	88.04
763.093	86.85
763.273	86.26
763.452	87.32
763.631	87.95
763.81	88.75
763.99	91.13
764.169	90.66
764.348	90.04
764.527	90.77
764.706	90.3
764.885	88.55
765.064	87.44
765.243	88.32
765.423	87.63
765.602	86.8
765.781	87.01
765.96	87.87
766.139	87.54
766.318	88.42
766.497	88.21
766.676	88.41
766.854	88.38
767.033	88.95
767.212	87.37
767.391	88.43
767.57	87.7
767.749	87.02
767.928	85.36
768.106	86.1
768.285	85.69
768.464	85.12
768.643	86.36
768.821	85.33
769	83.65
769.179	84.47
769.357	86.28
769.536	86.19
769.715	86.36
769.893	87.13
770.072	86.4
770.25	85.44
770.429	84.71
770.607	86.56
770.786	86.94
770.964	86.48
771.143	86.47
771.321	85.31
771.5	83.98
771.678	85.12
771.857	85.67
772.035	84.23
772.213	84.72
772.392	85.31
772.57	85.01
772.748	84.54
772.927	87.5
773.105	87.9
773.283	87.46
773.461	86.48
773.64	85.86
773.818	85.06
773.996	85.64
774.174	86.28
774.352	85.53
774.531	84.69
774.709	84.6
774.887	84.05
775.065	83.68
775.243	85.49
775.421	85.56
775.599	84
775.777	83.82
775.955	81.94
776.133	83.13
776.311	84.63
776.489	86.69
776.667	88.48
776.844	92.16
777.022	92.47
777.2	93.17
777.378	92.94
777.556	93.75
777.734	90.35
777.911	89.1
778.089	89.45
778.267	89.14
778.445	88.52
778.622	87.85
778.8	85.7
778.978	83.26
779.155	81.76
779.333	81.84
779.511	83.22
779.688	81.79
779.866	84.27
780.043	87.99
780.221	85.88
780.398	85.3
780.576	84.36
780.753	83.18
780.931	79.27
781.108	80.24
781.286	80.88
781.463	85.38
781.64	86.37
781.818	86.7
781.995	86.78
782.172	86.73
782.35	87.76
782.527	86.62
782.704	86.78
782.882	86.74
783.059	87.53
783.236	86.84
783.413	85.11
783.59	87.18
783.768	90.44
783.945	90.3
784.122	88.98
784.299	89.39
784.476	87.44
784.653	85.99
784.83	84.63
785.007	84.97
785.184	83.5
785.361	83.62
785.538	80.72
785.715	82.52
785.892	82.99
786.069	84.66
786.246	82.24
786.423	83
786.6	84.02
786.776	83.38
786.953	88.19
787.13	89.58
787.307	91.16
787.484	89.14
787.66	89.37
787.837	85.73
788.014	89.68
788.191	89.08
788.367	91.83
788.544	91.13
788.721	90.66
788.897	88.01
789.074	85.15
789.25	80.91
789.427	81.34
789.603	81.28
789.78	83.04
789.956	85.49
790.133	89.07
790.309	87.6
790.486	84.36
790.662	82.81
790.839	83.29
791.015	80.35
791.192	81.49
791.368	84.67
791.544	86.22
791.721	89.61
791.897	91.85
792.073	90.49
792.249	90.26
792.426	87.36
792.602	76.09
792.778	77.78
792.954	77.35
793.13	79.84
793.307	83.66
793.483	89.59
793.659	87.11
793.835	89.02
794.011	87.1
794.187	83.78
794.363	88.99
794.539	87.4
794.715	86.63
794.891	86.25
795.067	85.86
795.243	82.08
795.419	81.51
795.595	80.52
795.771	82.65
795.947	79.1
796.122	82.17
796.298	84.41
796.474	86.52
796.65	81.37
796.826	88.01
797.001	83.32
797.177	83.44
797.353	81.44
797.529	86.4
797.704	83.92
797.88	86.49
798.056	87.5
798.231	89.45
798.407	82.39
798.582	82.8
798.758	82.35
798.934	78.94
799.109	77.5
799.285	83.32
799.46	86.62
799.636	84.52
799.811	86.5
799.986	84.07
800.162	83.06
800.337	77.09
800.513	85.84
800.688	87.4
800.863	91.35
801.039	89.24
801.214	90.73
801.389	84.91
801.565	85.82
801.74	85.78
801.915	83.78
802.09	80.57
802.265	79.57
802.441	75.18
802.616	72.95
802.791	77.97
802.966	84.83
803.141	88.15
803.316	93.58
803.491	95.58
803.666	94.22
803.841	94.89
804.016	94.06
804.191	91.34
804.366	96.07
804.541	98.15
804.716	92.23
804.891	90.28
805.066	87.22
805.241	88.11
805.416	81
805.591	79.57
805.765	78.66
805.94	80.96
806.115	83.2
806.29	87.7
806.464	90.42
806.639	91.32
806.814	92.28
806.989	87.76
807.163	84.05
807.338	82.57
807.512	80.34
807.687	76.46
807.862	74.24
808.036	72.85
808.211	79.07
808.385	79.2
808.56	81.13
808.734	88.43
808.909	91.62
809.083	94.71
809.258	89.95
809.432	93.6
809.606	85.13
809.781	89.73
809.955	82.32
810.13	82.79
810.304	80.28
810.478	83.15
810.652	83.68
810.827	89.98
811.001	90.28
811.175	89.53
811.349	89.2
811.524	83.63
811.698	77.81
811.872	74.31
812.046	76.11
812.22	72.35
812.394	83.62
812.568	84.02
812.742	89.4
812.916	95.94
813.09	101.4
813.264	95.27
813.438	100.5
813.612	107.29
813.786	109.08
813.96	98.55
814.134	101.5
814.308	91.63
814.482	98.4
814.656	90.87
814.83	95.25
815.003	95.22
815.177	112.03
815.351	100.72
815.525	92.91
815.698	101.35
815.872	94.8
816.046	87.93
816.219	86.75
816.393	90.79
816.567	86.42
816.74	85.97
816.914	74.07
817.088	75.66
817.261	75
817.435	73.59
817.608	76.41
817.782	84.39
817.955	82.48
818.129	87.73
818.302	85.96
818.475	79.58
818.649	71.3
818.822	76.32
818.996	67.93
819.169	73.79
819.342	82.89
819.516	88.12
819.689	84.77
819.862	102.39
820.035	100.23
820.209	87.03
820.382	91.03
820.555	88.78
820.728	70.59
820.901	77.84
821.075	86.34
821.248	84.89
821.421	96.74
821.594	109.82
821.767	102.06
821.94	91.66
822.113	97.64
822.286	79.65
822.459	74.33
822.632	74.61
822.805	78.48
822.978	76.27
823.151	84
823.324	94.45
823.496	97.51
823.669	87.12
823.842	82.59
824.015	94.18
824.188	87.91
824.361	90.05
824.533	103.79
824.706	101.81
824.879	86.37
825.051	77.84
825.224	85.52
825.397	85.66
825.569	80.11
825.742	74.61
825.915	74.96
826.087	71.87
826.26	65.11
826.432	82.93
826.605	97.71
826.777	93.01
826.95	83.21
827.122	90.79
827.295	83.07
827.467	82.89
827.64	83.06
827.812	98.12
827.984	91.96
828.157	88.38
828.329	92.78
828.501	92.75
828.674	84.47
828.846	102.06
829.018	105.34
829.19	101.8
829.363	97.42
829.535	92.64
829.707	81.79
829.879	79.09
830.051	77.18
830.223	90.95
830.395	96.66
830.568	95.17
830.74	93.12
830.912	89.58
831.084	78.74
831.256	78.92
831.428	77.8
831.6	77.49
831.772	93.61
831.943	97.34
832.115	103.49
832.287	107.26
832.459	112.5
832.631	103.14
832.803	113.31
832.975	90.15
833.146	99.97
833.318	131.98
833.49	121.28
833.662	115.1
833.833	127.63
834.005	116.12
834.177	111.1
834.348	113.47
834.52	105.56
834.692	110.43
834.863	119.81
835.035	93.78
835.206	93.86
835.378	96.8
835.549	95.64
835.721	83.63
835.892	88.73
836.064	83.74
836.235	79.42
836.407	72.52
836.578	70.63
836.749	72.85
836.921	78.83
837.092	90.54
837.264	104.37
837.435	102.31
837.606	109.6
837.777	91.37
837.949	70.64
838.12	64.42
838.291	71.42
838.462	66.47
838.633	63.18
838.805	78.3
838.976	64.05
839.147	62.85
839.318	47.05
839.489	84.69
839.66	74.06
839.831	64.5
840.002	69.39
840.173	91.63
840.344	80.14
840.515	86.3
840.686	98.95
840.857	105.88
841.028	95.04
841.199	105.72
841.369	119.74
841.54	119.62
841.711	152.19
841.882	151.88
842.053	127.7
842.223	125.1
842.394	122.8
842.565	99.38
842.736	101.89
842.906	109.71
843.077	106.76
843.248	90.43
843.418	98.08
843.589	110.62
843.759	80.96
843.93	76.19
844.101	94.52
844.271	84.04
844.442	71.02
844.612	45.07
844.783	57.64
844.953	82.48
845.123	60.16
845.294	17.17
845.464	74.38
845.635	72.08
845.805	63.06
845.975	77.82
846.146	98.42
846.316	98.85
846.486	94.98
846.656	100.52
846.827	111.01
846.997	114.7
847.167	94.44
847.337	97.78
847.507	86.69
847.677	72.46
847.848	79.83
848.018	111.05
848.188	125.42
848.358	138.55
848.528	133.46
848.698	134.72
848.868	120.41
849.038	100.11
849.208	91.67
849.378	86.02
849.548	75.64
849.718	79.04
849.887	83.77
850.057	111.77
850.227	114.7
850.397	117.35
850.567	124.73
850.737	110.21
850.906	76.55
851.076	92.52
851.246	97.09
851.415	94.14
851.585	93.45
851.755	153.27
851.924	151.03
852.094	104.12
852.264	91.75
852.433	109.64
852.603	77.34
852.772	89.9
852.942	124.68
853.111	102.83
853.281	101.55
853.45	100.61
853.62	84.88
853.789	59.49
853.959	69.55
854.128	81.94
854.297	98.63
854.467	88.84
854.636	58.86
854.805	49.24
854.975	74.25
855.144	69.94
855.313	68.24
855.482	141.14
855.652	128.33
855.821	124.18
855.99	99.73
856.159	95.41
856.328	90.16
856.497	109.16
856.667	110.2
856.836	108.04
857.005	109.31
857.174	99.5
857.343	103.24
857.512	86.86
857.681	119.98
857.85	124.2
858.019	126.53
858.188	169.36
858.356	213.09
858.525	263.91
858.694	571.3
858.863	436.12
859.032	284.57
859.201	269.99
859.369	179.55
859.538	118.45
859.707	93.01
859.876	85.1
860.044	85.42
860.213	65.63
860.382	72.81
860.55	55.24
860.719	52.81
860.888	58.77
861.056	89.62
861.225	93.18
861.393	96.36
861.562	84.14
861.73	92.19
861.899	92.12
862.067	87.72
862.236	110.86
862.404	149.02
862.572	145.15
862.741	151.61
862.909	165.99
863.078	148.67
863.246	125.88
863.414	107.02
863.582	54.76
863.751	49.93
863.919	59.94
864.087	40.03
864.255	66.67
864.424	107.48
864.592	134.43
864.76	85.94
864.928	99.44
865.096	95.24
865.264	90.79
865.432	102.59
865.6	126.83
865.768	119.62
865.936	102.18
866.104	117.99
866.272	147.99
866.44	153.19
866.608	136.37
866.776	148.04
866.944	117.29
867.112	88.19
867.28	120.11
867.448	101.83
867.615	87.87
867.783	97.39
867.951	99.24
868.119	22.53
868.286	43.35
868.454	103.6
868.622	144.12
868.789	148.36
868.957	238.87
869.125	218.6
869.292	112.86
869.46	118.7
869.627	99.4
869.795	98.7
869.963	91.95
870.13	103.22
870.298	67.98
870.465	84.46
870.632	82.68
870.8	73.07
870.967	80.23
871.135	91.92
871.302	67.51
871.469	42.85
871.637	44.48
871.804	50.17
871.971	76.1
872.139	86.08
872.306	83.95
872.473	90.14
872.64	105.91
872.807	69.48
872.975	77.18
873.142	102.27
873.309	117.85
873.476	84.93
873.643	87
873.81	59.5
873.977	29.63
874.144	19.21
874.311	39.62
874.478	93.62
874.645	149.87
874.812	175.2
874.979	152.82
875.146	190.15
875.313	170.59
875.48	85.31
875.647	124.08
875.813	137.62
875.98	142.62
876.147	138.52
876.314	161.86
876.481	151.17
876.647	268.26
876.814	194.78
876.981	-116.96
877.147	-306.21
877.314	173.84
877.481	125.1
877.647	97.64
877.814	96.05
877.98	104.43
878.147	106.43
878.314	40.07
878.48	87.24
878.647	88.69
878.813	49.49
878.979	48.23
879.146	132.86
879.312	100.3
879.479	109.74
879.645	129.42
879.811	153.25
879.978	122.33
880.144	163.34
880.31	274.76
880.477	180.55
880.643	161.82
880.809	208.3
880.975	461.42
881.142	235.01
881.308	415.71
881.474	268.87
881.64	210.14
881.806	157.26
881.972	170.03
882.138	133.2
882.304	85.47
882.47	146.14
882.636	345.15
882.802	268.07
882.968	133.84
883.134	117.71
883.3	113.7
883.466	66.06
883.632	39.29
883.798	60.7
883.964	65.18
884.129	68.05
884.295	67.86
884.461	100.58
884.627	99.34
884.793	96.66
884.958	84.83
885.124	135.86
885.29	118.3
885.455	157.77
885.621	279.43
885.787	352.38
885.952	622.44
886.118	665.32
886.283	304.54
886.449	332.17
886.614	231.56
886.78	256.41
886.945	519.08
887.111	1248.89
887.276	-9118.52
887.442	-2750.48
887.607	731.81
887.773	287.51
887.938	174.89
888.103	134.98
888.269	138.59
888.434	160.15
888.599	121.25
888.764	139.76
888.93	149.59
889.095	97.42
889.26	105
889.425	-1209.52
889.59	-1194.67
889.756	367.85
889.921	2035.9
890.086	-62.91
890.251	107.43
890.416	67.74
890.581	0.28
890.746	16.3
890.911	53.45
891.076	82.92
891.241	73.39
891.406	64.17
891.571	83.97
891.736	106.77
891.901	111.67
892.065	184.08
892.23	298.62
892.395	344.01
892.56	185.7
892.725	153.65
892.889	121.62
893.054	135.21
893.219	136.96
893.384	230.68
893.548	310.62
893.713	379.02
893.878	556.59
