Data from Ofav_PP_Phys_0DW41_Reflection_1.txt Node
Date: Tue Aug 03 18:03:11 EDT 2021
User: Adam
Spectrometer: FLMT01687
Trigger mode: 0
Integration Time (sec): 8.750000E-1
Scans to average: 2
Electric dark correction enabled: true
Nonlinearity correction enabled: false
Boxcar width: 2
XAxis mode: Wavelengths
Number of Pixels in Spectrum: 3648
>>>>>Begin Spectral Data<<<<<
179.494	180.65
179.716	296.59
179.937	584.62
180.158	-818.18
180.38	-48.32
180.601	-148.57
180.823	83.58
181.044	70.81
181.265	6.21
181.486	-310.34
181.708	99.64
181.929	61.97
182.15	198.13
182.372	-3.73
182.593	856
182.814	108.95
183.035	19.61
183.257	8.58
183.478	23.17
183.699	0.77
183.92	-0.24
184.141	8.17
184.363	21.64
184.584	-9.73
184.805	0.73
185.026	-5.33
185.247	4.06
185.468	4.77
185.689	16.96
185.91	25.11
186.132	25.6
186.353	41.05
186.574	39.72
186.795	41.74
187.016	22.89
187.237	45.02
187.458	40.24
187.679	40.45
187.9	36.3
188.121	54.59
188.342	42.32
188.563	29.06
188.784	26.81
189.005	39.77
189.226	31.42
189.447	39.19
189.667	15.91
189.888	3.83
190.109	9.01
190.33	3.18
190.551	-26.94
190.772	19.61
190.993	33.51
191.214	22.86
191.434	38.14
191.655	32.53
191.876	41.75
192.097	75.88
192.318	73.93
192.538	86.76
192.759	151.41
192.98	110.34
193.201	58.45
193.421	66.91
193.642	63.22
193.863	43.17
194.083	48.34
194.304	48.08
194.525	26.67
194.745	35.23
194.966	34.15
195.187	51.97
195.407	66.13
195.628	70.2
195.848	53.26
196.069	53.12
196.29	21.23
196.51	-11.13
196.731	-8.25
196.951	12.95
197.172	14.79
197.392	25.77
197.613	40.8
197.833	39.14
198.054	33.69
198.274	31.55
198.495	32.56
198.715	42.7
198.936	50.07
199.156	71.94
199.377	52.66
199.597	69.42
199.817	58.51
200.038	65.79
200.258	30.1
200.479	20.63
200.699	-5.67
200.919	-120.95
201.14	-32.21
201.36	-22.8
201.58	7.68
201.801	3.98
202.021	44.03
202.241	12.33
202.461	18.65
202.682	21.34
202.902	33.21
203.122	17.8
203.342	31.56
203.563	33.46
203.783	37.4
204.003	27.55
204.223	36.55
204.443	20.77
204.663	29.05
204.884	34.68
205.104	36.46
205.324	47.47
205.544	39.05
205.764	39.87
205.984	18.36
206.204	27.03
206.424	8.01
206.644	34.65
206.864	40.05
207.084	47.8
207.304	63.48
207.525	52.31
207.745	46.45
207.964	33.81
208.184	45.55
208.404	18.03
208.624	6.9
208.844	14.91
209.064	17.99
209.284	13.73
209.504	18.93
209.724	17.93
209.944	4.15
210.164	-41.11
210.384	-24.74
210.604	0.82
210.823	-6.91
211.043	5.88
211.263	32.51
211.483	34.38
211.703	50.62
211.922	38.37
212.142	43.8
212.362	34.94
212.582	33.51
212.801	17.14
213.021	29.96
213.241	28.09
213.461	30.13
213.68	53.17
213.9	47.06
214.12	46.97
214.339	55.97
214.559	50.79
214.779	28.26
214.998	51.2
215.218	63.51
215.438	61.53
215.657	62.22
215.877	70.86
216.096	64.27
216.316	40.9
216.535	33.83
216.755	26.27
216.974	16.04
217.194	17.12
217.413	39.75
217.633	43.53
217.852	46.35
218.072	40.25
218.291	35.3
218.511	34.03
218.73	30.09
218.95	28.48
219.169	44.88
219.389	44.24
219.608	19.28
219.827	15.68
220.047	1.02
220.266	0.36
220.485	4.72
220.705	18.51
220.924	7.58
221.143	11.87
221.363	17.89
221.582	19.98
221.801	29.65
222.021	36.15
222.24	37.84
222.459	12.31
222.678	23.09
222.897	23.49
223.117	20.11
223.336	12.26
223.555	14.86
223.774	17.47
223.993	6.88
224.213	5.4
224.432	11.27
224.651	27.11
224.87	34.13
225.089	37.12
225.308	31.36
225.527	29.74
225.746	11.89
225.965	2.51
226.184	-1.85
226.404	26.48
226.623	25.69
226.842	29.89
227.061	27.1
227.28	31.58
227.499	25.12
227.718	39.26
227.936	29.43
228.155	35.6
228.374	36.58
228.593	49.63
228.812	30.3
229.031	17.53
229.25	16.81
229.469	-11.94
229.688	-42.05
229.907	-41.62
230.125	7.6
230.344	24.44
230.563	4.44
230.782	19.56
231.001	12.7
231.22	10.17
231.438	11.37
231.657	26.88
231.876	34.2
232.095	38.7
232.313	34.22
232.532	26.47
232.751	40.26
232.969	31.19
233.188	35.11
233.407	34.55
233.625	41.33
233.844	33.69
234.063	38.93
234.281	28.88
234.5	43.53
234.719	39.75
234.937	35.68
235.156	25.14
235.374	33.23
235.593	40.04
235.811	25.47
236.03	20.18
236.249	33.74
236.467	44.8
236.686	33.18
236.904	53
237.123	63.77
237.341	63.77
237.559	51.99
237.778	45.33
237.996	36.94
238.215	25.37
238.433	11.21
238.652	16.92
238.87	13.95
239.088	19.85
239.307	35.67
239.525	45.72
239.743	47.49
239.962	53.86
240.18	52.33
240.398	48.69
240.617	38.91
240.835	36.71
241.053	27.31
241.271	27.24
241.49	18.18
241.708	20.32
241.926	20.31
242.144	22.44
242.363	15.96
242.581	19.62
242.799	20.74
243.017	26.05
243.235	38.72
243.453	47.17
243.672	42.73
243.89	35.82
244.108	34
244.326	9.62
244.544	9.16
244.762	5.35
244.98	14.14
245.198	16.69
245.416	38.88
245.634	36.02
245.852	34.16
246.07	26.16
246.288	16.07
246.506	24.73
246.724	16.25
246.942	24.94
247.16	38.33
247.378	38.82
247.596	33.03
247.814	50.7
248.032	35.31
248.25	14.02
248.468	16.14
248.685	20.58
248.903	2.44
249.121	5.71
249.339	23.1
249.557	35.17
249.775	28.03
249.992	39.2
250.21	36.02
250.428	21.79
250.646	-12.21
250.863	-20.34
251.081	-27.07
251.299	-26.24
251.517	-7.78
251.734	-0.39
251.952	-15.81
252.17	-22.07
252.387	-42.33
252.605	-41.5
252.823	-26.19
253.04	-1.74
253.258	18.26
253.475	35.71
253.693	32.75
253.911	47.22
254.128	43.6
254.346	57.17
254.563	34.9
254.781	50.96
254.998	28.5
255.216	28.86
255.433	8.04
255.651	24.65
255.868	0.43
256.086	17.27
256.303	18.25
256.521	43.83
256.738	36.7
256.956	44.3
257.173	32.77
257.39	28.27
257.608	-0.76
257.825	-16.54
258.043	-32.07
258.26	-16.65
258.477	10.08
258.695	26.09
258.912	28.4
259.129	33.5
259.346	32.08
259.564	20.07
259.781	15.09
259.998	31.83
260.216	36.02
260.433	30.95
260.65	26.38
260.867	34.29
261.084	24.35
261.302	5.84
261.519	23.46
261.736	52.99
261.953	54.48
262.17	44.97
262.387	48.3
262.604	23.47
262.822	16.21
263.039	17.25
263.256	10.58
263.473	11.62
263.69	18.09
263.907	8.21
264.124	-8.67
264.341	-5.56
264.558	-23.23
264.775	0
264.992	2.75
265.209	6.23
265.426	1.84
265.643	18.86
265.86	14.06
266.077	18.32
266.294	14.07
266.51	27.73
266.727	22.48
266.944	36.62
267.161	48.79
267.378	49.21
267.595	29.8
267.812	29.43
268.028	16
268.245	9.21
268.462	25.21
268.679	47.3
268.896	39.09
269.112	40.32
269.329	34.77
269.546	0.93
269.763	-10.85
269.979	4.55
270.196	5.64
270.413	23.7
270.629	22.43
270.846	22.38
271.063	5.98
271.279	3.21
271.496	0.8
271.712	10.28
271.929	4.78
272.146	26.7
272.362	19.22
272.579	16.05
272.795	11.68
273.012	13.64
273.228	19.79
273.445	15.53
273.661	17.02
273.878	12.15
274.094	7.54
274.311	-20.43
274.527	-16.41
274.744	-0.39
274.96	4.83
275.177	-3.15
275.393	10.1
275.609	16.71
275.826	10.09
276.042	7.54
276.259	7.88
276.475	-3.15
276.691	-1.61
276.908	-10.71
277.124	5.29
277.34	4.67
277.557	8.09
277.773	16.11
277.989	27.76
278.205	21.32
278.422	20.11
278.638	22.67
278.854	18.19
279.07	13.54
279.286	22.13
279.503	40.08
279.719	46.66
279.935	38.75
280.151	39.77
280.367	28.16
280.583	-8.97
280.799	-2.01
281.016	-6.32
281.232	-14
281.448	-6.83
281.664	3.71
281.88	-7.06
282.096	1.84
282.312	-2.72
282.528	4.87
282.744	21.51
282.96	23.08
283.176	31.56
283.392	36.2
283.608	34.9
283.824	22.58
284.04	22.75
284.256	24.76
284.471	28.23
284.687	26.09
284.903	33.15
285.119	30.01
285.335	20.75
285.551	17.77
285.767	21.99
285.982	16.56
286.198	24.7
286.414	27.71
286.63	31.52
286.846	25.05
287.061	23.42
287.277	20.05
287.493	14.86
287.709	8.51
287.924	21.52
288.14	14.49
288.356	7.19
288.571	13.05
288.787	12.68
289.003	-10.6
289.218	-14.75
289.434	-7.35
289.65	1.51
289.865	1.03
290.081	7.35
290.296	18.58
290.512	19.77
290.727	10.73
290.943	19.25
291.159	26.9
291.374	22.97
291.59	20.7
291.805	33.31
292.021	36.77
292.236	39.66
292.451	40.72
292.667	41.41
292.882	34.42
293.098	40.65
293.313	33.67
293.529	35.99
293.744	41.2
293.959	32.83
294.175	35.77
294.39	35.98
294.605	27.8
294.821	27.34
295.036	22.4
295.251	15.02
295.467	7.12
295.682	22.81
295.897	7.62
296.112	10.45
296.328	15.57
296.543	20.26
296.758	18.86
296.973	48.82
297.188	52.42
297.404	54.44
297.619	50.62
297.834	43.46
298.049	31.68
298.264	30.86
298.479	24.62
298.694	19.84
298.909	26.3
299.125	28.24
299.34	25.41
299.555	19.72
299.77	22.35
299.985	20.21
300.2	21.47
300.415	14.58
300.63	28.49
300.845	36.85
301.06	27.37
301.275	12.08
301.49	18.6
301.704	9.81
301.919	18.36
302.134	24.56
302.349	49.74
302.564	66.1
302.779	63.56
302.994	58.98
303.209	44.06
303.423	21.31
303.638	17.12
303.853	17.14
304.068	9.73
304.283	25.36
304.497	32.95
304.712	27.24
304.927	29.66
305.142	34.69
305.356	14.3
305.571	6.08
305.786	11.34
306	18
306.215	6.39
306.43	30.8
306.644	31.93
306.859	22.78
307.074	1.88
307.288	4.96
307.503	11.36
307.717	1.83
307.932	0.59
308.147	6.24
308.361	4.83
308.576	4.22
308.79	19.56
309.005	33.3
309.219	28.64
309.434	25.7
309.648	22.8
309.863	15.76
310.077	1.81
310.292	14.94
310.506	20.39
310.72	31.53
310.935	24.98
311.149	30.03
311.364	15.19
311.578	8.36
311.792	10.38
312.007	2.86
312.221	-2.17
312.435	-4.36
312.649	8.97
312.864	-17.27
313.078	0
313.292	9.12
313.507	26.41
313.721	16.55
313.935	39.74
314.149	40.43
314.363	22.58
314.578	6.53
314.792	2.21
315.006	-18.35
315.22	-14.51
315.434	-1.73
315.648	-0.55
315.862	20.58
316.077	27.21
316.291	22.22
316.505	16.87
316.719	16.74
316.933	15.32
317.147	15.57
317.361	3.28
317.575	15.37
317.789	17.46
318.003	14.25
318.217	9.48
318.431	22.98
318.645	11.79
318.859	15.94
319.073	21.27
319.287	28.16
319.5	28.29
319.714	43.13
319.928	44.84
320.142	24.14
320.356	22.27
320.57	26.9
320.784	16.81
320.997	18.61
321.211	39.02
321.425	34.92
321.639	22.98
321.853	9.91
322.066	-2.31
322.28	0.81
322.494	1.11
322.707	-9.43
322.921	-4.84
323.135	-6.17
323.349	-16.05
323.562	-3.95
323.776	18.78
323.989	41.32
324.203	41.76
324.417	55.1
324.63	56.14
324.844	40.45
325.057	30.28
325.271	26.79
325.485	11.95
325.698	-2.66
325.912	4.81
326.125	24.65
326.339	15.59
326.552	-4.49
326.766	8.83
326.979	16.65
327.193	0.96
327.406	3.78
327.619	25.82
327.833	4.71
328.046	1.61
328.26	-14
328.473	-3.71
328.686	4.1
328.9	14.81
329.113	26.66
329.326	43.51
329.54	42.91
329.753	32.84
329.966	33.68
330.179	7.46
330.393	8.36
330.606	17.72
330.819	20.34
331.032	22.85
331.246	26.54
331.459	22.02
331.672	1.1
331.885	-2.19
332.098	-6.46
332.311	16.57
332.525	24
332.738	24.93
332.951	32.71
333.164	31.62
333.377	30.37
333.59	25.7
333.803	24.02
334.016	15.71
334.229	16.52
334.442	-13.62
334.655	-5.92
334.868	0.49
335.081	2.57
335.294	-6.65
335.507	27.65
335.72	20.82
335.933	27.37
336.146	34.1
336.359	30.36
336.572	-2.36
336.785	4.62
336.997	14.6
337.21	20.8
337.423	35.94
337.636	53.03
337.849	41.27
338.062	38.63
338.274	29.36
338.487	31.42
338.7	22.58
338.913	35.05
339.125	32.28
339.338	21.6
339.551	17.89
339.763	13.85
339.976	14.65
340.189	11.7
340.402	24.16
340.614	12.01
340.827	29.7
341.039	32.68
341.252	40.18
341.465	36.77
341.677	36.81
341.89	28.92
342.102	23.9
342.315	25.51
342.527	21.74
342.74	24.71
342.952	25.02
343.165	30.35
343.377	10.18
343.59	8.1
343.802	12.51
344.015	-13.27
344.227	-16.28
344.44	15.77
344.652	16.05
344.864	11.12
345.077	39.37
345.289	38.16
345.502	16.64
345.714	14.9
345.926	23.57
346.139	14.5
346.351	21
346.563	21.32
346.775	31.17
346.988	16.6
347.2	25.98
347.412	25.16
347.624	35.78
347.837	39.47
348.049	59.36
348.261	46.85
348.473	21.72
348.685	17.58
348.897	12.91
349.11	-11.21
349.322	-3.91
349.534	13.05
349.746	20.82
349.958	16.41
350.17	20.87
350.382	20.82
350.594	22.92
350.806	14.39
351.018	19.13
351.23	26.95
351.442	34.47
351.654	23.69
351.866	24.3
352.078	18.4
352.29	18.9
352.502	21.53
352.714	29.83
352.926	16.89
353.138	15.18
353.35	8.9
353.561	21.37
353.773	16.05
353.985	29.85
354.197	18.96
354.409	21.84
354.621	18.3
354.832	21.7
355.044	9.01
355.256	30.36
355.468	24.31
355.679	22.88
355.891	31.7
356.103	45.73
356.314	34.84
356.526	33.01
356.738	37.2
356.949	29.9
357.161	14.27
357.373	22.65
357.584	32.76
357.796	12.89
358.008	0.88
358.219	11.97
358.431	11.09
358.642	21.87
358.854	28.55
359.065	35.53
359.277	26.7
359.488	25.67
359.7	7.17
359.911	-0.79
360.123	5.73
360.334	2.83
360.546	-3.3
360.757	-3.72
360.969	-5.55
361.18	0.58
361.391	13.49
361.603	18.9
361.814	16.33
362.025	29.17
362.237	31.04
362.448	36.01
362.659	32.57
362.871	49.11
363.082	29.42
363.293	16.66
363.504	0
363.716	18.51
363.927	12.08
364.138	20.75
364.349	21.74
364.56	34.13
364.772	21.15
364.983	9.16
365.194	4.12
365.405	13.14
365.616	12.84
365.827	24.11
366.038	34.07
366.25	28.71
366.461	22.1
366.672	18.4
366.883	11.07
367.094	11
367.305	20.18
367.516	14.95
367.727	6.29
367.938	8.81
368.149	8.01
368.36	2.94
368.571	5.74
368.781	9.37
368.992	9.96
369.203	12.11
369.414	20.88
369.625	20.16
369.836	18.69
370.047	11.9
370.258	11.33
370.468	3.63
370.679	22.15
370.89	27.59
371.101	36.63
371.312	39.45
371.522	44.93
371.733	32.86
371.944	39.49
372.155	38.55
372.365	32.98
372.576	37.03
372.787	35.57
372.997	27.23
373.208	21.47
373.419	25.76
373.629	19.92
373.84	22.49
374.05	10.45
374.261	4.55
374.472	-1.2
374.682	-2.72
374.893	-4.12
375.103	6.63
375.314	21.06
375.524	21.96
375.735	21.86
375.945	20.33
376.156	21
376.366	13.05
376.577	11.4
376.787	7.67
376.997	10.2
377.208	5.51
377.418	-2.53
377.629	3.48
377.839	-3.87
378.049	-0.11
378.26	-0.12
378.47	2.78
378.68	-7.26
378.89	3.26
379.101	3.17
379.311	8.42
379.521	9.7
379.732	14.5
379.942	16.69
380.152	13.48
380.362	17.72
380.572	19.36
380.783	24.64
380.993	20.84
381.203	18.47
381.413	13.29
381.623	19.53
381.833	16.78
382.043	17.1
382.253	15.83
382.463	19.11
382.674	12.96
382.884	7.81
383.094	0.8
383.304	8.39
383.514	5.91
383.724	5.52
383.934	11.68
384.144	15.86
384.353	5.58
384.563	4.03
384.773	-1.86
384.983	0.22
385.193	1.54
385.403	12.53
385.613	13.44
385.823	19.07
386.033	13.77
386.242	19.21
386.452	12.17
386.662	10.45
386.872	12.36
387.082	9.5
387.291	1.92
387.501	5.86
387.711	5.97
387.921	6.54
388.13	9.01
388.34	9
388.55	10.98
388.759	13.46
388.969	12.99
389.179	14.01
389.388	14.6
389.598	14.28
389.807	11.96
390.017	10.15
390.227	9.34
390.436	10.11
390.646	6.21
390.855	6.46
391.065	4.99
391.274	6.12
391.484	6.12
391.693	7.89
391.903	7.72
392.112	9.01
392.322	7.49
392.531	7.2
392.74	4.1
392.95	5.37
393.159	3.18
393.369	3.76
393.578	3.07
393.787	6.02
393.997	5.92
394.206	7.24
394.415	7.13
394.625	7.31
394.834	6.51
395.043	5.42
395.252	6.23
395.462	6.68
395.671	6.08
395.88	5.71
396.089	6.3
396.298	5.19
396.508	4.57
396.717	5.13
396.926	4.67
397.135	3.99
397.344	4.14
397.553	3.93
397.762	3.57
397.971	3.94
398.181	4.08
398.39	4.33
398.599	4.22
398.808	4.59
399.017	4.29
399.226	4.19
399.435	3.8
399.644	4.04
399.853	3.79
400.062	4.01
400.27	3.89
400.479	3.98
400.688	3.73
400.897	4.1
401.106	3.93
401.315	4.26
401.524	4.47
401.733	4.58
401.941	4.15
402.15	4.32
402.359	4.15
402.568	3.96
402.777	3.83
402.985	3.89
403.194	3.75
403.403	3.74
403.612	3.67
403.82	3.82
404.029	3.83
404.238	4.06
404.446	3.9
404.655	3.76
404.864	3.61
405.072	3.51
405.281	3.34
405.489	3.37
405.698	3.56
405.906	3.62
406.115	3.61
406.324	3.51
406.532	3.41
406.741	3.37
406.949	3.3
407.158	3.44
407.366	3.52
407.574	3.6
407.783	3.6
407.991	3.67
408.2	3.47
408.408	3.31
408.617	3.32
408.825	3.26
409.033	3.21
409.242	3.16
409.45	3.2
409.658	3.22
409.867	3.28
410.075	3.29
410.283	3.32
410.491	3.35
410.7	3.26
410.908	3.12
411.116	3.09
411.324	3.17
411.533	3.13
411.741	3.21
411.949	3.28
412.157	3.25
412.365	3.18
412.573	3.21
412.781	3.09
412.99	3.07
413.198	2.95
413.406	2.94
413.614	2.93
413.822	2.95
414.03	2.95
414.238	3.04
414.446	3.11
414.654	3.1
414.862	3.23
415.07	3.12
415.278	3.07
415.486	3.04
415.694	3.16
415.902	2.97
416.109	3.1
416.317	3.17
416.525	3.04
416.733	2.9
416.941	2.84
417.149	2.84
417.357	2.69
417.564	2.95
417.772	2.96
417.98	3.27
418.188	3.32
418.395	3.38
418.603	3.26
418.811	3.38
419.019	3.12
419.226	2.95
419.434	2.92
419.642	2.93
419.849	2.82
420.057	2.94
420.265	2.95
420.472	3.09
420.68	3.05
420.887	2.98
421.095	2.87
421.302	2.99
421.51	2.82
421.717	2.7
421.925	2.62
422.132	2.63
422.34	2.51
422.547	2.58
422.755	2.64
422.962	2.67
423.17	2.73
423.377	2.8
423.585	2.9
423.792	2.87
423.999	2.84
424.207	2.78
424.414	2.75
424.621	2.71
424.829	2.8
425.036	2.92
425.243	2.84
425.451	2.63
425.658	2.43
425.865	2.44
426.072	2.31
426.28	2.38
426.487	2.49
426.694	2.6
426.901	2.53
427.108	2.69
427.315	2.89
427.523	2.9
427.73	2.97
427.937	3.08
428.144	3.04
428.351	2.77
428.558	2.85
428.765	2.9
428.972	2.82
429.179	2.73
429.386	2.88
429.593	2.78
429.8	2.85
430.007	2.79
430.214	2.85
430.421	2.74
430.628	2.76
430.835	2.74
431.042	2.78
431.249	2.68
431.456	2.85
431.662	2.89
431.869	2.83
432.076	2.85
432.283	3.09
432.49	3.05
432.697	3.16
432.903	3.13
433.11	3.19
433.317	3.02
433.524	2.96
433.73	2.93
433.937	2.99
434.144	2.84
434.35	2.86
434.557	2.99
434.764	2.99
434.97	2.94
435.177	3.16
435.384	3.29
435.59	3.36
435.797	3.31
436.003	3.36
436.21	3.28
436.416	3.25
436.623	3.05
436.829	3.11
437.036	3.02
437.242	3.01
437.449	2.98
437.655	3.13
437.862	3.11
438.068	3.22
438.275	3.2
438.481	3.14
438.687	3.24
438.894	3.37
439.1	3.41
439.307	3.37
439.513	3.44
439.719	3.33
439.926	3.28
440.132	3.3
440.338	3.35
440.544	3.36
440.751	3.33
440.957	3.27
441.163	3.2
441.369	3.29
441.575	3.31
441.782	3.32
441.988	3.39
442.194	3.44
442.4	3.52
442.606	3.57
442.812	3.55
443.018	3.53
443.224	3.5
443.431	3.32
443.637	3.35
443.843	3.4
444.049	3.4
444.255	3.46
444.461	3.62
444.667	3.51
444.873	3.48
445.079	3.48
445.284	3.47
445.49	3.35
445.696	3.49
445.902	3.52
446.108	3.53
446.314	3.57
446.52	3.78
446.726	3.73
446.931	3.8
447.137	3.88
447.343	3.87
447.549	3.71
447.755	3.77
447.96	3.71
448.166	3.66
448.372	3.51
448.578	3.51
448.783	3.51
448.989	3.59
449.195	3.59
449.4	3.78
449.606	3.76
449.812	3.69
450.017	3.69
450.223	3.72
450.428	3.79
450.634	3.93
450.84	3.99
451.045	4.03
451.251	4.05
451.456	3.86
451.662	3.68
451.867	3.63
452.073	3.54
452.278	3.5
452.483	3.56
452.689	3.74
452.894	3.77
453.1	3.79
453.305	3.78
453.51	3.81
453.716	3.82
453.921	3.78
454.127	3.84
454.332	3.84
454.537	3.77
454.742	3.73
454.948	3.77
455.153	3.72
455.358	3.71
455.563	3.71
455.769	3.83
455.974	3.9
456.179	3.93
456.384	3.92
456.589	3.98
456.795	3.81
457	3.8
457.205	3.79
457.41	3.8
457.615	3.8
457.82	3.8
458.025	3.85
458.23	3.89
458.435	3.91
458.64	3.9
458.845	4
459.05	3.93
459.255	3.89
459.46	3.94
459.665	3.94
459.87	3.95
460.075	3.97
460.28	4.08
460.485	4.02
460.69	3.96
460.895	3.93
461.099	3.88
461.304	3.72
461.509	3.75
461.714	3.93
461.919	3.89
462.123	3.88
462.328	3.99
462.533	4.01
462.738	4.04
462.942	4.12
463.147	4.3
463.352	4.23
463.556	4.25
463.761	4.2
463.966	4.16
464.17	4.07
464.375	4.19
464.58	4.19
464.784	4.16
464.989	4.19
465.193	4.23
465.398	4.23
465.602	4.17
465.807	4.15
466.011	4.23
466.216	4.17
466.42	4.23
466.625	4.41
466.829	4.48
467.034	4.48
467.238	4.56
467.443	4.55
467.647	4.45
467.851	4.48
468.056	4.45
468.26	4.3
468.464	4.23
468.669	4.3
468.873	4.29
469.077	4.31
469.282	4.41
469.486	4.43
469.69	4.34
469.894	4.29
470.099	4.3
470.303	4.34
470.507	4.39
470.711	4.43
470.915	4.51
471.119	4.47
471.324	4.5
471.528	4.45
471.732	4.42
471.936	4.46
472.14	4.42
472.344	4.4
472.548	4.42
472.752	4.47
472.956	4.44
473.16	4.51
473.364	4.52
473.568	4.53
473.772	4.52
473.976	4.55
474.18	4.56
474.384	4.62
474.588	4.64
474.792	4.73
474.995	4.66
475.199	4.77
475.403	4.69
475.607	4.75
475.811	4.72
476.015	4.73
476.218	4.61
476.422	4.7
476.626	4.67
476.83	4.65
477.033	4.68
477.237	4.67
477.441	4.6
477.644	4.59
477.848	4.64
478.052	4.59
478.255	4.58
478.459	4.55
478.663	4.61
478.866	4.6
479.07	4.66
479.273	4.66
479.477	4.61
479.681	4.55
479.884	4.54
480.088	4.56
480.291	4.53
480.495	4.59
480.698	4.64
480.901	4.64
481.105	4.56
481.308	4.62
481.512	4.72
481.715	4.68
481.919	4.71
482.122	4.74
482.325	4.84
482.529	4.79
482.732	4.82
482.935	4.81
483.138	4.76
483.342	4.71
483.545	4.74
483.748	4.68
483.952	4.67
484.155	4.74
484.358	4.75
484.561	4.7
484.764	4.76
484.967	4.74
485.171	4.73
485.374	4.65
485.577	4.67
485.78	4.63
485.983	4.68
486.186	4.71
486.389	4.76
486.592	4.74
486.795	4.79
486.998	4.75
487.201	4.7
487.404	4.74
487.607	4.8
487.81	4.79
488.013	4.8
488.216	4.8
488.419	4.73
488.622	4.74
488.825	4.72
489.028	4.77
489.231	4.8
489.433	4.82
489.636	4.75
489.839	4.73
490.042	4.77
490.245	4.82
490.447	4.85
490.65	4.84
490.853	4.84
491.056	4.75
491.258	4.69
491.461	4.63
491.664	4.7
491.866	4.72
492.069	4.74
492.272	4.78
492.474	4.82
492.677	4.8
492.879	4.8
493.082	4.81
493.285	4.77
493.487	4.78
493.69	4.79
493.892	4.77
494.095	4.75
494.297	4.74
494.5	4.73
494.702	4.72
494.905	4.79
495.107	4.79
495.309	4.77
495.512	4.77
495.714	4.77
495.917	4.67
496.119	4.66
496.321	4.69
496.524	4.71
496.726	4.7
496.928	4.71
497.13	4.77
497.333	4.74
497.535	4.72
497.737	4.77
497.939	4.77
498.142	4.78
498.344	4.8
498.546	4.74
498.748	4.72
498.95	4.76
499.152	4.78
499.355	4.82
499.557	4.8
499.759	4.77
499.961	4.79
500.163	4.76
500.365	4.69
500.567	4.73
500.769	4.78
500.971	4.81
501.173	4.83
501.375	4.83
501.577	4.81
501.779	4.77
501.981	4.73
502.183	4.72
502.385	4.75
502.587	4.79
502.788	4.8
502.99	4.77
503.192	4.78
503.394	4.81
503.596	4.86
503.798	4.84
503.999	4.91
504.201	4.94
504.403	4.97
504.605	4.96
504.806	5.03
505.008	5
505.21	4.95
505.411	4.9
505.613	4.88
505.815	4.8
506.016	4.75
506.218	4.77
506.42	4.8
506.621	4.77
506.823	4.82
507.024	4.83
507.226	4.83
507.427	4.89
507.629	4.98
507.83	4.94
508.032	5
508.233	4.98
508.435	4.92
508.636	4.86
508.838	4.86
509.039	4.88
509.24	4.9
509.442	4.88
509.643	4.91
509.845	4.91
510.046	4.92
510.247	4.91
510.448	4.9
510.65	4.9
510.851	4.93
511.052	4.82
511.254	4.87
511.455	4.9
511.656	4.89
511.857	4.89
512.058	4.96
512.26	4.92
512.461	4.94
512.662	4.91
512.863	4.88
513.064	4.91
513.265	4.91
513.466	4.89
513.667	4.92
513.868	4.96
514.069	4.94
514.27	4.94
514.471	4.89
514.672	4.91
514.873	4.94
515.074	4.95
515.275	4.97
515.476	5.08
515.677	5.08
515.878	5.09
516.079	5.06
516.28	5.09
516.481	5.07
516.682	5.06
516.882	5.06
517.083	5.08
517.284	5.02
517.485	4.96
517.686	4.95
517.886	4.97
518.087	4.95
518.288	4.96
518.488	5.05
518.689	5.05
518.89	5.06
519.091	5.08
519.291	5.11
519.492	5.09
519.692	5.16
519.893	5.06
520.094	5.08
520.294	5.11
520.495	5.09
520.695	5.06
520.896	5.1
521.096	5.11
521.297	5.12
521.497	5.1
521.698	5.1
521.898	5.13
522.099	5.15
522.299	5.13
522.499	5.19
522.7	5.18
522.9	5.19
523.101	5.15
523.301	5.14
523.501	5.12
523.702	5.12
523.902	5.13
524.102	5.14
524.302	5.14
524.503	5.13
524.703	5.15
524.903	5.17
525.103	5.2
525.304	5.15
525.504	5.12
525.704	5.17
525.904	5.18
526.104	5.16
526.304	5.27
526.504	5.33
526.705	5.31
526.905	5.32
527.105	5.33
527.305	5.26
527.505	5.25
527.705	5.29
527.905	5.28
528.105	5.32
528.305	5.33
528.505	5.35
528.705	5.33
528.905	5.32
529.105	5.32
529.304	5.32
529.504	5.33
529.704	5.35
529.904	5.4
530.104	5.4
530.304	5.48
530.503	5.54
530.703	5.48
530.903	5.46
531.103	5.49
531.303	5.46
531.502	5.4
531.702	5.45
531.902	5.48
532.101	5.46
532.301	5.47
532.501	5.48
532.7	5.55
532.9	5.56
533.1	5.57
533.299	5.62
533.499	5.6
533.698	5.56
533.898	5.55
534.097	5.54
534.297	5.48
534.496	5.48
534.696	5.49
534.895	5.5
535.095	5.53
535.294	5.55
535.494	5.56
535.693	5.57
535.892	5.6
536.092	5.6
536.291	5.65
536.491	5.66
536.69	5.69
536.889	5.69
537.088	5.71
537.288	5.74
537.487	5.8
537.686	5.8
537.886	5.78
538.085	5.76
538.284	5.71
538.483	5.74
538.682	5.75
538.882	5.79
539.081	5.82
539.28	5.85
539.479	5.84
539.678	5.85
539.877	5.91
540.076	5.95
540.275	5.98
540.474	5.97
540.673	5.98
540.872	5.94
541.071	6.01
541.27	6.06
541.469	6.08
541.668	6.09
541.867	6.15
542.066	6.19
542.265	6.25
542.464	6.3
542.663	6.34
542.862	6.34
543.06	6.33
543.259	6.26
543.458	6.26
543.657	6.29
543.856	6.28
544.054	6.26
544.253	6.34
544.452	6.38
544.651	6.41
544.849	6.49
545.048	6.53
545.247	6.55
545.445	6.6
545.644	6.66
545.843	6.61
546.041	6.62
546.24	6.65
546.438	6.66
546.637	6.68
546.836	6.75
547.034	6.81
547.233	6.87
547.431	6.93
547.63	7.01
547.828	7.07
548.027	7.14
548.225	7.16
548.423	7.16
548.622	7.2
548.82	7.26
549.019	7.3
549.217	7.34
549.415	7.46
549.614	7.56
549.812	7.54
550.01	7.61
550.209	7.65
550.407	7.63
550.605	7.59
550.803	7.66
551.002	7.68
551.2	7.73
551.398	7.83
551.596	7.87
551.794	7.96
551.993	8.08
552.191	8.15
552.389	8.12
552.587	8.23
552.785	8.21
552.983	8.17
553.181	8.15
553.379	8.31
553.577	8.32
553.775	8.45
553.973	8.48
554.171	8.58
554.369	8.68
554.567	8.74
554.765	8.78
554.963	8.86
555.161	8.92
555.359	8.89
555.557	8.91
555.755	8.91
555.952	8.99
556.15	9.03
556.348	9.03
556.546	9.15
556.744	9.23
556.941	9.26
557.139	9.37
557.337	9.56
557.535	9.63
557.732	9.81
557.93	9.9
558.128	9.93
558.325	9.91
558.523	9.96
558.721	9.94
558.918	10.06
559.116	10.12
559.313	10.15
559.511	10.23
559.708	10.32
559.906	10.4
560.104	10.45
560.301	10.62
560.498	10.67
560.696	10.72
560.893	10.78
561.091	10.86
561.288	10.92
561.486	10.99
561.683	11.08
561.88	11.16
562.078	11.21
562.275	11.28
562.473	11.33
562.67	11.44
562.867	11.51
563.064	11.59
563.262	11.58
563.459	11.66
563.656	11.52
563.853	11.48
564.051	11.57
564.248	11.67
564.445	11.74
564.642	11.91
564.839	12.05
565.036	12.1
565.234	12.14
565.431	12.18
565.628	12.24
565.825	12.22
566.022	12.22
566.219	12.29
566.416	12.34
566.613	12.39
566.81	12.52
567.007	12.57
567.204	12.65
567.401	12.66
567.598	12.68
567.795	12.69
567.991	12.68
568.188	12.7
568.385	12.72
568.582	12.79
568.779	12.78
568.976	12.84
569.172	12.88
569.369	12.93
569.566	12.89
569.763	12.85
569.96	12.89
570.156	12.88
570.353	12.95
570.55	13.06
570.746	13.2
570.943	13.29
571.14	13.31
571.336	13.28
571.533	13.32
571.729	13.36
571.926	13.36
572.123	13.43
572.319	13.46
572.516	13.36
572.712	13.38
572.909	13.4
573.105	13.25
573.302	13.23
573.498	13.21
573.695	13.14
573.891	13.11
574.087	13.25
574.284	13.34
574.48	13.46
574.677	13.42
574.873	13.46
575.069	13.41
575.266	13.33
575.462	13.25
575.658	13.24
575.854	13.22
576.051	13.27
576.247	13.3
576.443	13.27
576.639	13.28
576.835	13.2
577.032	13.14
577.228	13.15
577.424	13.13
577.62	13.15
577.816	13.1
578.012	13.14
578.208	13.08
578.404	13.17
578.6	13.21
578.796	13.29
578.993	13.25
579.189	13.31
579.384	13.23
579.58	13.12
579.776	13.14
579.972	13.2
580.168	13.2
580.364	13.17
580.56	13.16
580.756	13.08
580.952	13.01
581.148	12.9
581.343	12.98
581.539	12.97
581.735	12.98
581.931	12.92
582.127	12.92
582.322	12.84
582.518	12.88
582.714	12.84
582.909	12.88
583.105	12.83
583.301	12.91
583.496	12.74
583.692	12.73
583.888	12.68
584.083	12.73
584.279	12.64
584.474	12.72
584.67	12.68
584.866	12.64
585.061	12.64
585.257	12.62
585.452	12.62
585.648	12.69
585.843	12.59
586.039	12.56
586.234	12.57
586.429	12.58
586.625	12.48
586.82	12.57
587.015	12.51
587.211	12.5
587.406	12.57
587.601	12.63
587.797	12.58
587.992	12.61
588.187	12.58
588.383	12.5
588.578	12.47
588.773	12.52
588.968	12.6
589.163	12.67
589.359	12.62
589.554	12.67
589.749	12.71
589.944	12.68
590.139	12.59
590.334	12.72
590.529	12.76
590.724	12.82
590.919	12.84
591.114	12.98
591.309	12.89
591.504	12.85
591.699	12.75
591.894	12.8
592.089	12.8
592.284	12.91
592.479	12.99
592.674	13.18
592.869	13.17
593.064	13.17
593.259	13.16
593.454	13.21
593.648	13.13
593.843	13.21
594.038	13.23
594.233	13.24
594.428	13.22
594.622	13.27
594.817	13.23
595.012	13.34
595.206	13.41
595.401	13.47
595.596	13.51
595.79	13.62
595.985	13.63
596.18	13.79
596.374	13.91
596.569	13.96
596.763	14
596.958	14.07
597.153	13.97
597.347	13.99
597.542	14.03
597.736	14.14
597.931	14.14
598.125	14.25
598.319	14.42
598.514	14.54
598.708	14.55
598.903	14.59
599.097	14.76
599.291	14.7
599.486	14.71
599.68	14.84
599.874	14.94
600.069	14.88
600.263	14.99
600.457	15.09
600.651	15.07
600.846	15.11
601.04	15.09
601.234	15.06
601.428	14.95
601.622	14.98
601.817	14.96
602.011	15.04
602.205	15.09
602.399	15.17
602.593	15.2
602.787	15.25
602.981	15.31
603.175	15.32
603.369	15.29
603.563	15.24
603.757	15.22
603.951	15.07
604.145	15.02
604.339	14.98
604.533	15.01
604.727	15.06
604.921	15.18
605.115	15.14
605.309	15.21
605.502	15.23
605.696	15.12
605.89	15.04
606.084	15.1
606.278	15.03
606.471	14.92
606.665	14.88
606.859	14.84
607.053	14.75
607.246	14.69
607.44	14.63
607.634	14.58
607.827	14.49
608.021	14.45
608.214	14.44
608.408	14.43
608.602	14.42
608.795	14.51
608.989	14.4
609.182	14.38
609.376	14.26
609.569	14.28
609.763	14.12
609.956	14.12
610.15	14.05
610.343	14.12
610.537	14.06
610.73	14.03
610.923	13.97
611.117	13.99
611.31	13.91
611.504	13.79
611.697	13.86
611.89	13.8
612.083	13.68
612.277	13.58
612.47	13.58
612.663	13.4
612.856	13.32
613.05	13.29
613.243	13.26
613.436	13.14
613.629	13.09
613.822	13.06
614.015	13.06
614.209	13
614.402	13.06
614.595	13.07
614.788	12.99
614.981	12.94
615.174	12.9
615.367	12.75
615.56	12.69
615.753	12.75
615.946	12.68
616.139	12.64
616.332	12.54
616.525	12.41
616.718	12.35
616.911	12.29
617.103	12.33
617.296	12.36
617.489	12.36
617.682	12.33
617.875	12.22
618.067	12.09
618.26	12.09
618.453	12.08
618.646	11.97
618.838	11.99
619.031	11.89
619.224	11.78
619.417	11.82
619.609	11.85
619.802	11.86
619.994	11.9
620.187	11.93
620.38	11.85
620.572	11.79
620.765	11.67
620.957	11.62
621.15	11.59
621.342	11.6
621.535	11.52
621.727	11.56
621.92	11.53
622.112	11.58
622.305	11.49
622.497	11.49
622.69	11.47
622.882	11.48
623.074	11.31
623.267	11.27
623.459	11.29
623.651	11.26
623.844	11.3
624.036	11.38
624.228	11.39
624.42	11.37
624.613	11.4
624.805	11.37
624.997	11.31
625.189	11.35
625.381	11.39
625.574	11.37
625.766	11.27
625.958	11.28
626.15	11.25
626.342	11.17
626.534	11.15
626.726	11.14
626.918	11.18
627.11	11.12
627.302	11.07
627.494	11
627.686	11.05
627.878	10.94
628.07	10.9
628.262	10.88
628.454	10.88
628.646	10.75
628.838	10.73
629.029	10.72
629.221	10.74
629.413	10.63
629.605	10.62
629.797	10.56
629.989	10.5
630.18	10.49
630.372	10.53
630.564	10.51
630.755	10.52
630.947	10.54
631.139	10.45
631.33	10.37
631.522	10.34
631.714	10.3
631.905	10.36
632.097	10.32
632.289	10.4
632.48	10.5
632.672	10.48
632.863	10.42
633.055	10.43
633.246	10.37
633.438	10.29
633.629	10.38
633.821	10.3
634.012	10.37
634.203	10.4
634.395	10.35
634.586	10.26
634.777	10.22
634.969	10.19
635.16	10.23
635.351	10.24
635.543	10.27
635.734	10.31
635.925	10.35
636.117	10.27
636.308	10.3
636.499	10.15
636.69	10.15
636.881	10.1
637.073	10.09
637.264	10.1
637.455	10.25
637.646	10.29
637.837	10.3
638.028	10.27
638.219	10.19
638.41	10.14
638.601	10.03
638.792	9.97
638.983	10
639.174	9.98
639.365	9.92
639.556	9.94
639.747	10
639.938	9.96
640.129	9.98
640.32	10.04
640.511	10.02
640.701	9.98
640.892	9.99
641.083	9.93
641.274	9.92
641.465	9.94
641.655	9.92
641.846	9.91
642.037	10
642.228	9.92
642.418	9.86
642.609	9.77
642.8	9.72
642.99	9.67
643.181	9.68
643.372	9.68
643.562	9.69
643.753	9.74
643.943	9.64
644.134	9.64
644.324	9.66
644.515	9.68
644.705	9.62
644.896	9.63
645.086	9.65
645.277	9.58
645.467	9.64
645.658	9.64
645.848	9.71
646.038	9.68
646.229	9.75
646.419	9.66
646.61	9.67
646.8	9.66
646.99	9.65
647.18	9.65
647.371	9.57
647.561	9.57
647.751	9.55
647.941	9.56
648.132	9.63
648.322	9.68
648.512	9.67
648.702	9.67
648.892	9.6
649.082	9.5
649.272	9.54
649.462	9.44
649.653	9.38
649.843	9.42
650.033	9.38
650.223	9.29
650.413	9.36
650.603	9.37
650.793	9.33
650.983	9.35
651.172	9.31
651.362	9.24
651.552	9.23
651.742	9.26
651.932	9.12
652.122	9.22
652.312	9.17
652.502	9.08
652.691	8.98
652.881	9.1
653.071	9
653.261	8.93
653.45	8.87
653.64	8.82
653.83	8.73
654.019	8.62
654.209	8.57
654.399	8.56
654.588	8.43
654.778	8.29
654.968	8.2
655.157	8.11
655.347	8.03
655.536	8.04
655.726	7.94
655.915	7.87
656.105	7.81
656.294	7.66
656.484	7.5
656.673	7.54
656.863	7.45
657.052	7.45
657.241	7.55
657.431	7.52
657.62	7.32
657.809	7.26
657.999	7.17
658.188	7.02
658.377	6.96
658.567	6.85
658.756	6.84
658.945	6.74
659.134	6.61
659.324	6.55
659.513	6.52
659.702	6.34
659.891	6.31
660.08	6.17
660.269	6.03
660.458	6.02
660.648	6.01
660.837	5.89
661.026	5.85
661.215	5.83
661.404	5.74
661.593	5.64
661.782	5.55
661.971	5.49
662.16	5.42
662.349	5.29
662.538	5.26
662.726	5.28
662.915	5.31
663.104	5.32
663.293	5.31
663.482	5.32
663.671	5.3
663.86	5.31
664.048	5.2
664.237	5.12
664.426	5.08
664.615	4.92
664.803	4.77
664.992	4.75
665.181	4.75
665.369	4.67
665.558	4.68
665.747	4.65
665.935	4.56
666.124	4.6
666.312	4.58
666.501	4.6
666.69	4.59
666.878	4.67
667.067	4.63
667.255	4.63
667.444	4.63
667.632	4.57
667.82	4.47
668.009	4.44
668.197	4.51
668.386	4.51
668.574	4.59
668.762	4.65
668.951	4.59
669.139	4.51
669.327	4.53
669.516	4.4
669.704	4.36
669.892	4.57
670.08	4.6
670.269	4.6
670.457	4.74
670.645	4.73
670.833	4.46
671.021	4.45
671.21	4.47
671.398	4.5
671.586	4.56
671.774	4.77
671.962	4.73
672.15	4.8
672.338	4.85
672.526	4.83
672.714	4.84
672.902	4.87
673.09	4.81
673.278	4.74
673.466	4.76
673.654	4.63
673.842	4.78
674.03	4.74
674.218	4.87
674.405	4.97
674.593	5.14
674.781	5.11
674.969	5.06
675.157	4.96
675.344	4.96
675.532	4.85
675.72	4.82
675.908	4.98
676.095	5.04
676.283	5.08
676.471	5.12
676.658	5.21
676.846	5.25
677.033	5.33
677.221	5.35
677.409	5.45
677.596	5.58
677.784	5.58
677.971	5.6
678.159	5.52
678.346	5.46
678.534	5.37
678.721	5.27
678.909	5.3
679.096	5.35
679.283	5.42
679.471	5.51
679.658	5.77
679.846	5.97
680.033	6.15
680.22	6.19
680.408	6.21
680.595	6.12
680.782	6.05
680.969	5.92
681.157	5.96
681.344	5.96
681.531	6.1
681.718	6.09
681.905	6.26
682.093	6.36
682.28	6.3
682.467	6.38
682.654	6.43
682.841	6.55
683.028	6.65
683.215	6.97
683.402	7.03
683.589	7.19
683.776	7.24
683.963	7.28
684.15	7.21
684.337	7.38
684.524	7.36
684.711	7.41
684.898	7.53
685.085	7.66
685.271	7.65
685.458	7.82
685.645	8.07
685.832	8.24
686.019	8.48
686.205	8.67
686.392	8.87
686.579	8.99
686.766	9.07
686.952	9.17
687.139	9.39
687.326	9.52
687.512	9.89
687.699	10.21
687.886	10.42
688.072	10.6
688.259	10.91
688.445	11
688.632	11.31
688.818	11.69
689.005	12.02
689.191	12.2
689.378	12.43
689.564	12.6
689.751	12.86
689.937	13.14
690.124	13.62
690.31	14.08
690.496	14.45
690.683	14.87
690.869	15.11
691.055	15.36
691.242	15.76
691.428	16.34
691.614	16.57
691.8	17.18
691.987	17.64
692.173	18.03
692.359	18.28
692.545	19.01
692.731	19.56
692.918	20.06
693.104	20.53
693.29	21.08
693.476	21.38
693.662	21.79
693.848	22.49
694.034	23.03
694.22	23.66
694.406	24.32
694.592	24.91
694.778	25.32
694.964	25.91
695.15	26.48
695.336	26.88
695.522	27.27
695.708	28
695.894	28.48
696.08	29.03
696.265	29.86
696.451	30.54
696.637	31.04
696.823	31.74
697.009	32.33
697.194	32.84
697.38	33.47
697.566	33.97
697.751	34.65
697.937	35.14
698.123	35.68
698.308	36.43
698.494	36.97
698.68	37.52
698.865	38.27
699.051	38.51
699.236	38.81
699.422	39.71
699.607	40.15
699.793	40.36
699.978	41.19
700.164	41.78
700.349	42.16
700.535	42.55
700.72	43.28
700.906	43.79
701.091	44.43
701.276	44.62
701.462	45.31
701.647	45.99
701.832	46.49
702.018	46.71
702.203	47.67
702.388	48.33
702.573	48.74
702.759	48.88
702.944	49.41
703.129	49.43
703.314	49.6
703.499	49.87
703.684	50.61
703.87	50.89
704.055	51.45
704.24	51.66
704.425	51.93
704.61	52.34
704.795	53
704.98	53.19
705.165	53.77
705.35	54.26
705.535	54.44
705.72	54.53
705.905	54.83
706.09	55.23
706.275	55.5
706.459	56.17
706.644	56.82
706.829	57.5
707.014	57.76
707.199	58.11
707.384	58.18
707.568	58.61
707.753	58.8
707.938	58.86
708.123	59.11
708.307	59.33
708.492	59.53
708.677	59.46
708.861	60.19
709.046	60.43
709.231	60.53
709.415	60.32
709.6	60.9
709.784	61.08
709.969	61.28
710.153	62.08
710.338	62.51
710.522	62.54
710.707	62.58
710.891	62.84
711.076	62.3
711.26	62.13
711.445	62.24
711.629	62.49
711.813	62.42
711.998	63.01
712.182	63.54
712.366	64.13
712.551	64.69
712.735	65.01
712.919	64.88
713.103	65.05
713.288	64.92
713.472	64.5
713.656	64.46
713.84	64.68
714.024	64.42
714.208	64.58
714.393	64.48
714.577	64.83
714.761	65.06
714.945	65.46
715.129	65.6
715.313	65.5
715.497	65.61
715.681	66.21
715.865	66.31
716.049	66.2
716.233	66.99
716.417	67.42
716.601	67.22
716.785	67.76
716.968	67.88
717.152	67.53
717.336	67.95
717.52	67.44
717.704	67.54
717.888	68.35
718.071	68.64
718.255	68.33
718.439	68.99
718.622	68.67
718.806	68.26
718.99	68.28
719.174	67.7
719.357	67.53
719.541	68
719.724	68.13
719.908	68.14
720.092	68.67
720.275	68.78
720.459	68.78
720.642	68.68
720.826	69.16
721.009	69.17
721.193	69.31
721.376	69.02
721.559	69.12
721.743	69.44
721.926	69.66
722.11	69.63
722.293	70.31
722.476	70.59
722.66	70.16
722.843	70.3
723.026	70.39
723.21	70.15
723.393	70.34
723.576	70.81
723.759	70.91
723.942	71.17
724.126	71.2
724.309	71.25
724.492	70.99
724.675	71.21
724.858	71.25
725.041	71.54
725.224	71.39
725.407	72.03
725.59	72.01
725.774	72.85
725.957	73.03
726.14	73.59
726.322	73.33
726.505	73.87
726.688	73.28
726.871	73.15
727.054	73.14
727.237	73.59
727.42	73.43
727.603	73.63
727.786	73.46
727.968	73.38
728.151	72.47
728.334	72.12
728.517	72.27
728.699	72.6
728.882	73.15
729.065	73.52
729.248	73.93
729.43	74.58
729.613	74.69
729.796	74.41
729.978	74.73
730.161	74.47
730.343	74.54
730.526	74.55
730.708	74.4
730.891	74.85
731.073	75.73
731.256	75.59
731.438	75.58
731.621	75.06
731.803	74.86
731.986	74.76
732.168	75.07
732.35	75.57
732.533	76.26
732.715	76.43
732.898	76.38
733.08	76.47
733.262	76.67
733.444	76.82
733.627	76.96
733.809	77.53
733.991	77.4
734.173	77.08
734.355	77.61
734.538	77.82
734.72	77.62
734.902	77.76
735.084	78.38
735.266	77.92
735.448	77.61
735.63	77.83
735.812	77.79
735.994	77.53
736.176	77.43
736.358	78.05
736.54	78.12
736.722	77.95
736.904	78.25
737.086	79.24
737.268	79.31
737.45	79.49
737.632	79.59
737.814	79.12
737.995	78.19
738.177	78.58
738.359	77.89
738.541	78.24
738.723	79.14
738.904	79.92
739.086	78.8
739.268	79.05
739.449	79.14
739.631	79.09
739.813	79.4
739.994	80.44
740.176	80.33
740.358	80.03
740.539	79.45
740.721	78.7
740.902	78.26
741.084	78.63
741.265	79.34
741.447	79.32
741.628	80.31
741.81	80.48
741.991	80.04
742.172	79.48
742.354	79.75
742.535	79.49
742.717	79.92
742.898	79.82
743.079	79.91
743.261	80.94
743.442	81.42
743.623	80.54
743.804	81.95
743.986	82.74
744.167	80.97
744.348	81.48
744.529	81.75
744.71	80.68
744.891	80.28
745.073	81.55
745.254	80.12
745.435	80.56
745.616	81.12
745.797	80.21
745.978	79.19
746.159	79.19
746.34	78.9
746.521	78.09
746.702	78.32
746.883	79.1
747.064	79.69
747.245	80.01
747.426	79.99
747.606	80.12
747.787	79.97
747.968	79.72
748.149	80.13
748.33	81.63
748.51	81.24
748.691	81.61
748.872	81.16
749.053	80.34
749.233	79.86
749.414	80.66
749.595	80.89
749.775	81.51
749.956	81.77
750.137	81.22
750.317	81.94
750.498	81.16
750.678	82.05
750.859	82.12
751.04	82.29
751.22	82.81
751.4	84.5
751.581	83.14
751.761	83.78
751.942	83
752.122	82.71
752.303	82.06
752.483	81.65
752.663	80.47
752.844	80.44
753.024	80.51
753.204	80.65
753.385	81.42
753.565	82.97
753.745	83.75
753.925	82.6
754.106	82.03
754.286	82.5
754.466	81.73
754.646	83.27
754.826	84.28
755.006	84.96
755.187	84.9
755.367	83.42
755.547	81.88
755.727	80.7
755.907	81.08
756.087	80.06
756.267	81.82
756.447	81.98
756.627	82.95
756.807	80.74
756.987	81.97
757.167	81.75
757.346	82.68
757.526	82.41
757.706	83.92
757.886	84.75
758.066	83.14
758.246	81.39
758.425	80.69
758.605	80.38
758.785	79.05
758.965	79.61
759.144	81.18
759.324	81.1
759.504	81.74
759.683	80.3
759.863	81.72
760.043	80.83
760.222	80.85
760.402	80.94
760.581	83.69
760.761	83.19
760.94	81.56
761.12	82.86
761.299	81.59
761.479	79.26
761.658	79.38
761.838	80.83
762.017	78.67
762.197	79.77
762.376	81.14
762.555	80.86
762.735	80.72
762.914	81.17
763.093	80.71
763.273	80.1
763.452	78.76
763.631	78.7
763.81	80.38
763.99	79.85
764.169	80.21
764.348	81.5
764.527	81.14
764.706	80.49
764.885	78.9
765.064	79.14
765.243	78.73
765.423	79.46
765.602	78.15
765.781	79.45
765.96	80.12
766.139	80.36
766.318	81.73
766.497	82.8
766.676	82.33
766.854	81.09
767.033	81.72
767.212	80.18
767.391	79.48
767.57	79.94
767.749	80.01
767.928	79.56
768.106	79.86
768.285	80.08
768.464	81.16
768.643	79.57
768.821	78.83
769	79.3
769.179	79.51
769.357	78.92
769.536	80.84
769.715	80.03
769.893	79.14
770.072	77.74
770.25	78
770.429	77.88
770.607	78.92
770.786	79.86
770.964	80.31
771.143	78.76
771.321	77.65
771.5	77.85
771.678	77.31
771.857	78.76
772.035	78.43
772.213	78.19
772.392	78.58
772.57	76.51
772.748	76.22
772.927	78.24
773.105	80.89
773.283	80.43
773.461	83.91
773.64	82.7
773.818	81.29
773.996	79.07
774.174	78.05
774.352	75.72
774.531	76.06
774.709	76.92
774.887	77.77
775.065	79.78
775.243	78.2
775.421	77.78
775.599	76.64
775.777	75.25
775.955	72.48
776.133	74.1
776.311	74.44
776.489	74.89
776.667	73.42
776.844	74.62
777.022	73.14
777.2	74.02
777.378	74.86
777.556	77.05
777.734	77.38
777.911	79.88
778.089	79.57
778.267	78.67
778.445	79.55
778.622	79.34
778.8	79.03
778.978	79.14
779.155	78.38
779.333	76.58
779.511	76.86
779.688	76.68
779.866	77.94
780.043	79.92
780.221	79.74
780.398	80.9
780.576	80.94
780.753	78.84
780.931	78.38
781.108	80.29
781.286	78.69
781.463	77.34
781.64	77.03
781.818	76.12
781.995	74.23
782.172	75.23
782.35	75.63
782.527	73.41
782.704	73.42
782.882	75.16
783.059	75.04
783.236	75.32
783.413	77.95
783.59	77.41
783.768	79.29
783.945	77.2
784.122	77.15
784.299	78.27
784.476	78.35
784.653	77.43
784.83	79.42
785.007	79.03
785.184	78.21
785.361	78.27
785.538	76.78
785.715	77.85
785.892	79.87
786.069	76.79
786.246	76.54
786.423	74.75
786.6	75.42
786.776	74.44
786.953	74.75
787.13	75.47
787.307	76.36
787.484	71.98
787.66	71.2
787.837	75.33
788.014	74.82
788.191	75.4
788.367	78.08
788.544	78.01
788.721	74.55
788.897	72.58
789.074	71.6
789.25	70.71
789.427	70.29
789.603	72.16
789.78	74.82
789.956	74.71
790.133	75.99
790.309	71.67
790.486	72.01
790.662	71.91
790.839	71.7
791.015	74.96
791.192	78.98
791.368	76.96
791.544	75
791.721	78.34
791.897	73.07
792.073	76.61
792.249	75.71
792.426	77.14
792.602	73.75
792.778	74.78
792.954	73.54
793.13	74.96
793.307	73.68
793.483	74.37
793.659	74.58
793.835	71.8
794.011	69.44
794.187	70.7
794.363	75.23
794.539	75.07
794.715	75.03
794.891	76.24
795.067	76.16
795.243	70.43
795.419	71.24
795.595	71.95
795.771	75.34
795.947	74.76
796.122	75.89
796.298	74.08
796.474	73.97
796.65	69.4
796.826	69.81
797.001	71.21
797.177	68.48
797.353	68.53
797.529	71.32
797.704	72.21
797.88	73.43
798.056	73.09
798.231	73.46
798.407	74.84
798.582	73.98
798.758	74.61
798.934	75.6
799.109	74.92
799.285	72.3
799.46	70.76
799.636	68.19
799.811	69.19
799.986	68.73
800.162	66.73
800.337	67.46
800.513	66.96
800.688	63.86
800.863	65.7
801.039	66
801.214	71.89
801.389	73.77
801.565	79.96
801.74	81.98
801.915	83.12
802.09	80.95
802.265	78.61
802.441	75.69
802.616	68.91
802.791	69.08
802.966	67.71
803.141	68.05
803.316	68.19
803.491	73.25
803.666	75.28
803.841	74.87
804.016	72.48
804.191	72.59
804.366	75.79
804.541	76.63
804.716	74.53
804.891	77.62
805.066	77.91
805.241	73.83
805.416	68.66
805.591	73.91
805.765	71.95
805.94	71.42
806.115	67.59
806.29	70.23
806.464	65.36
806.639	68.32
806.814	69.68
806.989	75.29
807.163	77.43
807.338	81.16
807.512	82.48
807.687	79.21
807.862	84.61
808.036	83.84
808.211	82.93
808.385	76.67
808.56	72.72
808.734	65.88
808.909	61.36
809.083	62.38
809.258	69.89
809.432	72.47
809.606	73.02
809.781	81.2
809.955	74.15
810.13	67.39
810.304	69.13
810.478	71.25
810.652	68.24
810.827	73.76
811.001	75.88
811.175	75.78
811.349	71.86
811.524	69.28
811.698	64.66
811.872	64.54
812.046	66.13
812.22	65.95
812.394	69.51
812.568	71.97
812.742	75.37
812.916	74.15
813.09	79.59
813.264	81.24
813.438	82.01
813.612	77.63
813.786	78.91
813.96	75.13
814.134	72.04
814.308	74.88
814.482	72.19
814.656	72.26
814.83	79.22
815.003	79.39
815.177	77.54
815.351	76.3
815.525	67.85
815.698	53.73
815.872	57.4
816.046	57.92
816.219	69.75
816.393	73.22
816.567	72.85
816.74	67.62
816.914	69.83
817.088	65.53
817.261	69.01
817.435	70.45
817.608	73.77
817.782	68.27
817.955	66.83
818.129	71.47
818.302	73.16
818.475	72.33
818.649	61.25
818.822	56.1
818.996	51.68
819.169	48.76
819.342	51.2
819.516	67.68
819.689	70.09
819.862	64.71
820.035	59.88
820.209	57.27
820.382	58.66
820.555	57.99
820.728	60.52
820.901	68.67
821.075	61.08
821.248	55.25
821.421	53.97
821.594	54.65
821.767	59.08
821.94	62.8
822.113	61.07
822.286	54.44
822.459	63.16
822.632	60.06
822.805	64.56
822.978	72.06
823.151	90.25
823.324	81.39
823.496	80.08
823.669	78.98
823.842	74.16
824.015	70.3
824.188	77.83
824.361	78.82
824.533	73.26
824.706	56.93
824.879	49.88
825.051	48.32
825.224	50.29
825.397	54.8
825.569	67.48
825.742	76.87
825.915	78.38
826.087	71.6
826.26	69.89
826.432	84.81
826.605	73.92
826.777	71.92
826.95	70.27
827.122	74.43
827.295	59.16
827.467	67.85
827.64	67.59
827.812	70.21
827.984	71.76
828.157	75.52
828.329	72.28
828.501	72.67
828.674	67.28
828.846	59.37
829.018	56.8
829.19	57.23
829.363	63.83
829.535	65.33
829.707	72.25
829.879	76.2
830.051	69.06
830.223	66.96
830.395	59.45
830.568	69.68
830.74	66.47
830.912	66.35
831.084	55.37
831.256	75.93
831.428	57.98
831.6	63.16
831.772	79.74
831.943	89.49
832.115	75.59
832.287	78.95
832.459	63.14
832.631	58.34
832.803	50.39
832.975	56.09
833.146	53.45
833.318	54.95
833.49	53.03
833.662	59.27
833.833	57.43
834.005	64.44
834.177	75.54
834.348	58.91
834.52	53.47
834.692	59
834.863	61.11
835.035	65.12
835.206	74.03
835.378	67.3
835.549	57.23
835.721	53.47
835.892	45.89
836.064	55.05
836.235	69.42
836.407	67.91
836.578	72.57
836.749	68.23
836.921	49.06
837.092	37.72
837.264	53.04
837.435	42.04
837.606	45.79
837.777	57.08
837.949	68.88
838.12	79.15
838.291	74.64
838.462	80.47
838.633	87.19
838.805	73.29
838.976	60.59
839.147	58.91
839.318	40.08
839.489	41.95
839.66	59.5
839.831	52.26
840.002	57.78
840.173	64.97
840.344	59.43
840.515	42.01
840.686	37.94
840.857	25.87
841.028	26.73
841.199	34.8
841.369	47.1
841.54	62.45
841.711	71.91
841.882	69.02
842.053	69.8
842.223	67.9
842.394	67.65
842.565	67.6
842.736	89.31
842.906	81.19
843.077	86.92
843.248	73.26
843.418	80.09
843.589	70.4
843.759	67.62
843.93	61.65
844.101	51.61
844.271	44.17
844.442	44.61
844.612	46.5
844.783	48.42
844.953	55.55
845.123	47.93
845.294	38.8
845.464	26.42
845.635	32.8
845.805	43.1
845.975	48.26
846.146	63.51
846.316	77.59
846.486	68.93
846.656	68.53
846.827	67.6
846.997	61.21
847.167	74.12
847.337	75.01
847.507	74.98
847.677	86.04
847.848	71.22
848.018	58.47
848.188	53.84
848.358	59.82
848.528	51.07
848.698	59.26
848.868	69.9
849.038	73.24
849.208	63.88
849.378	64.81
849.548	70.49
849.718	38.91
849.887	40.27
850.057	38.17
850.227	34.91
850.397	35.7
850.567	56.51
850.737	43.39
850.906	48.54
851.076	50.84
851.246	44.15
851.415	46.49
851.585	48.12
851.755	35.64
851.924	45.5
852.094	49.9
852.264	42.5
852.433	57.56
852.603	73.82
852.772	98.65
852.942	87.85
853.111	98.21
853.281	68.63
853.45	73.01
853.62	52.35
853.789	63.12
853.959	57.51
854.128	68.51
854.297	63.38
854.467	54.86
854.636	53.76
854.805	49.94
854.975	55.61
855.144	59.91
855.313	50.4
855.482	59.55
855.652	63.52
855.821	63.09
855.99	47.86
856.159	69.45
856.328	75.93
856.497	73.53
856.667	75.5
856.836	68.3
857.005	61.57
857.174	55.11
857.343	69.22
857.512	55.27
857.681	68.28
857.85	60.06
858.019	50.4
858.188	33.07
858.356	28.05
858.525	35.71
858.694	41.53
858.863	51.38
859.032	72.18
859.201	80.9
859.369	59.59
859.538	48.95
859.707	49.95
859.876	44.35
860.044	56.57
860.213	61.34
860.382	54.74
860.55	29.32
860.719	22.17
860.888	33.45
861.056	38.61
861.225	53.95
861.393	55.49
861.562	59.28
861.73	58.34
861.899	39.51
862.067	37.53
862.236	48.72
862.404	64.34
862.572	50.18
862.741	83.73
862.909	72.81
863.078	96.08
863.246	63.81
863.414	55.06
863.582	46.07
863.751	66.99
863.919	60.63
864.087	62.49
864.255	56.66
864.424	59.84
864.592	40.75
864.76	62.04
864.928	80.3
865.096	91.73
865.264	98.99
865.432	90.14
865.6	60.25
865.768	57.81
865.936	75.08
866.104	59.54
866.272	77.68
866.44	109.57
866.608	104.31
866.776	88.18
866.944	81.81
867.112	76.52
867.28	65.62
867.448	51.67
867.615	49.29
867.783	69.31
867.951	49.52
868.119	17.32
868.286	41.75
868.454	45.67
868.622	14.7
868.789	38.07
868.957	58.3
869.125	60.03
869.292	62
869.46	73.89
869.627	76.42
869.795	73.45
869.963	89.33
870.13	94.81
870.298	78.54
870.465	85.4
870.632	78
870.8	73.46
870.967	92.94
871.135	137.18
871.302	167.57
871.469	169.18
871.637	66.67
871.804	41.21
871.971	49.94
872.139	55.22
872.306	51.07
872.473	70.21
872.64	69.11
872.807	61.12
872.975	53.02
873.142	64.91
873.309	66.93
873.476	62.42
873.643	55.07
873.81	63.28
873.977	31.65
874.144	28.48
874.311	43.84
874.478	42.13
874.645	42.01
874.812	67.62
874.979	73.34
875.146	76.89
875.313	92.85
875.48	77.79
875.647	66.51
875.813	70.27
875.98	67.82
876.147	65.27
876.314	85.05
876.481	77.1
876.647	67.01
876.814	62.47
876.981	41.21
877.147	0.66
877.314	11.95
877.481	20.72
877.647	37.47
877.814	46.34
877.98	65.43
878.147	75.38
878.314	83.15
878.48	72.27
878.647	82.11
878.813	74.31
878.979	77.47
879.146	88.98
879.312	79.9
879.479	83.09
879.645	79.88
879.811	100.23
879.978	118.59
880.144	132.25
880.31	98.46
880.477	182.33
880.643	128.05
880.809	32.51
880.975	12.79
881.142	39.18
881.308	5.16
881.474	11.13
881.64	56.08
881.806	45.09
881.972	37.45
882.138	50.69
882.304	40.42
882.47	15.36
882.636	-17.79
882.802	-45.93
882.968	-19.88
883.134	-1.89
883.3	-8.09
883.466	4.73
883.632	24.01
883.798	34.97
883.964	35.31
884.129	26.72
884.295	44.87
884.461	44.54
884.627	41.61
884.793	31.8
884.958	47.76
885.124	31.43
885.29	31
885.455	27.95
885.621	74.49
885.787	67.38
885.952	64.62
886.118	55.38
886.283	63.2
886.449	46.1
886.614	43.56
886.78	78.56
886.945	84.21
887.111	132.71
887.276	161.76
887.442	122.57
887.607	67.56
887.773	74.8
887.938	46.96
888.103	40.7
888.269	28.04
888.434	28.46
888.599	23.78
888.764	32.03
888.93	25.72
889.095	46.64
889.26	69.26
889.425	74.34
889.59	77.38
889.756	85.54
889.921	111.38
890.086	26.67
890.251	28.77
890.416	44.33
890.581	-44.75
890.746	49.52
890.911	96.34
891.076	90.61
891.241	83.93
891.406	75.97
891.571	39.81
891.736	34.71
891.901	49.58
892.065	35.5
892.23	53.08
892.395	41.4
892.56	29.93
892.725	33.96
892.889	42.67
893.054	44.69
893.219	67.02
893.384	73.06
893.548	61.34
893.713	60
893.878	58.39
