Data from Ofav_PP_Phys_9DW32_Reflection_2.txt Node
Date: Tue Aug 03 18:06:37 EDT 2021
User: Adam
Spectrometer: FLMT01687
Trigger mode: 0
Integration Time (sec): 8.750000E-1
Scans to average: 2
Electric dark correction enabled: true
Nonlinearity correction enabled: false
Boxcar width: 2
XAxis mode: Wavelengths
Number of Pixels in Spectrum: 3648
>>>>>Begin Spectral Data<<<<<
179.494	92.79
179.716	86.71
179.937	87.35
180.158	175.59
180.38	531.58
180.601	5.26
180.823	-24.5
181.044	30.84
181.265	-31.74
181.486	243.28
181.708	60.49
181.929	-3.76
182.15	-59.83
182.372	8.86
182.593	97.47
182.814	319.78
183.035	-529.79
183.257	-817.65
183.478	292.05
183.699	357.83
183.92	79.1
184.141	12.68
184.363	13.6
184.584	-71.98
184.805	7.16
185.026	17.99
185.247	30.46
185.468	24.52
185.689	32.78
185.91	40.92
186.132	19.45
186.353	28.63
186.574	-18.07
186.795	-0.74
187.016	-8.28
187.237	13.68
187.458	5.67
187.679	38.41
187.9	37.18
188.121	44.51
188.342	41.48
188.563	31.04
188.784	33.6
189.005	26.08
189.226	24.54
189.447	40.25
189.667	50.85
189.888	70.76
190.109	88.03
190.33	93.25
190.551	59.54
190.772	74.02
190.993	26.11
191.214	24.31
191.434	18.61
191.655	23.54
191.876	-3.81
192.097	15.27
192.318	34.47
192.538	53.44
192.759	53.51
192.98	76.38
193.201	85.69
193.421	56.98
193.642	54.89
193.863	45.09
194.083	50.5
194.304	58.78
194.525	77.78
194.745	52.58
194.966	67.74
195.187	77.92
195.407	63.37
195.628	65.81
195.848	71.68
196.069	75.81
196.29	42.61
196.51	73.71
196.731	64.91
196.951	44.95
197.172	57.97
197.392	108.79
197.613	94.2
197.833	70.68
198.054	79.41
198.274	26.41
198.495	24.74
198.715	38.78
198.936	62.93
199.156	68.36
199.377	82.56
199.597	59.56
199.817	59.74
200.038	33.99
200.258	56.35
200.479	40.22
200.699	48.67
200.919	-1.65
201.14	34.79
201.36	19.62
201.58	25.54
201.801	13.07
202.021	23.32
202.241	20.31
202.461	22.66
202.682	30.46
202.902	35.54
203.122	35.3
203.342	49.25
203.563	55.95
203.783	24.53
204.003	34.66
204.223	50.05
204.443	35.81
204.663	30.32
204.884	39.54
205.104	38.38
205.324	31
205.544	25.73
205.764	29.75
205.984	10.25
206.204	6.43
206.424	-71.22
206.644	4.42
206.864	-1.41
207.084	34.99
207.304	29.98
207.525	66.13
207.745	46.64
207.964	34.37
208.184	40.74
208.404	58.96
208.624	53.41
208.844	68.52
209.064	75.33
209.284	78.15
209.504	63.16
209.724	62.29
209.944	48.61
210.164	0.17
210.384	24.96
210.604	19.77
210.823	-16.6
211.043	33.46
211.263	93.78
211.483	90.84
211.703	106.37
211.922	103.37
212.142	103.66
212.362	97.63
212.582	73
212.801	62.87
213.021	48.17
213.241	46.73
213.461	55.98
213.68	69.86
213.9	69.11
214.12	70.89
214.339	76.55
214.559	96.19
214.779	112.29
214.998	95.42
215.218	95.13
215.438	77.47
215.657	72.61
215.877	53.51
216.096	42.63
216.316	33.64
216.535	25.04
216.755	1.27
216.974	21.24
217.194	45.27
217.413	66.62
217.633	62.44
217.852	75.16
218.072	68.04
218.291	56.6
218.511	52.19
218.73	58.39
218.95	40.94
219.169	47.27
219.389	41.46
219.608	37.43
219.827	6.34
220.047	15.51
220.266	20.95
220.485	33.67
220.705	32.7
220.924	46.54
221.143	36.76
221.363	45.68
221.582	29.95
221.801	1.36
222.021	17.71
222.24	15.37
222.459	-42.19
222.678	-18.63
222.897	2.85
223.117	0.78
223.336	-17.99
223.555	56.85
223.774	68.73
223.993	64.27
224.213	29.74
224.432	18.52
224.651	34.49
224.87	41.6
225.089	19.92
225.308	-3.23
225.527	-4.04
225.746	-57.88
225.965	-58.96
226.184	-109.17
226.404	9.99
226.623	35.13
226.842	38.85
227.061	-0.11
227.28	24.98
227.499	20.64
227.718	9.13
227.936	12.8
228.155	36.18
228.374	25.77
228.593	15.97
228.812	1.93
229.031	-4.5
229.25	10.37
229.469	-20
229.688	-69.62
229.907	-123.68
230.125	-72.59
230.344	-57.73
230.563	-37.39
230.782	-16.16
231.001	24.26
231.22	15.24
231.438	21.62
231.657	11.86
231.876	24.3
232.095	15.83
232.313	16.22
232.532	7.82
232.751	45.25
232.969	45.45
233.188	48.45
233.407	37.34
233.625	44.37
233.844	22.38
234.063	20.87
234.281	7.34
234.5	0.12
234.719	10.78
234.937	18.69
235.156	8.25
235.374	11.81
235.593	40.02
235.811	15.72
236.03	32.06
236.249	49.19
236.467	73.78
236.686	55.7
236.904	52.93
237.123	43.12
237.341	43.61
237.559	36.34
237.778	34.84
237.996	33.24
238.215	19.79
238.433	11.88
238.652	22.23
238.87	34.06
239.088	42.34
239.307	54.57
239.525	51.04
239.743	42.76
239.962	44.59
240.18	39.36
240.398	48.3
240.617	40.89
240.835	18.76
241.053	10.89
241.271	-22.08
241.49	-20.67
241.708	30.63
241.926	54.51
242.144	54.45
242.363	55.84
242.581	55.42
242.799	39.63
243.017	39.86
243.235	53.79
243.453	58.83
243.672	57.13
243.89	57.26
244.108	61.73
244.326	37.06
244.544	27.14
244.762	22.48
244.98	9.88
245.198	10.43
245.416	37.82
245.634	34.98
245.852	35.37
246.07	33.33
246.288	22.02
246.506	45.03
246.724	51.3
246.942	68.88
247.16	63.5
247.378	37.36
247.596	13.67
247.814	-0.87
248.032	-10.98
248.25	-20.24
248.468	-2.09
248.685	-4.32
248.903	0.34
249.121	8.57
249.339	7.99
249.557	14.92
249.775	17.11
249.992	31.63
250.21	23.94
250.428	22.63
250.646	22.24
250.863	18.02
251.081	5.04
251.299	2.26
251.517	12.11
251.734	13.79
251.952	13.5
252.17	25.94
252.387	20.24
252.605	18.45
252.823	50.13
253.04	30.11
253.258	40.1
253.475	59.21
253.693	74.1
253.911	73.7
254.128	90.55
254.346	68.64
254.563	51.39
254.781	59.09
254.998	46.6
255.216	30.31
255.433	26.92
255.651	22.9
255.868	-15.35
256.086	-14.53
256.303	7.55
256.521	18.78
256.738	32.73
256.956	35.89
257.173	33.11
257.39	29.19
257.608	32.87
257.825	26.33
258.043	17.13
258.26	23.32
258.477	42.54
258.695	52.26
258.912	48.56
259.129	60.75
259.346	72.67
259.564	65.4
259.781	60.56
259.998	61.67
260.216	76.12
260.433	65.39
260.65	57.06
260.867	48.37
261.084	43.69
261.302	-9.14
261.519	1.92
261.736	15.08
261.953	31.56
262.17	24.92
262.387	34.13
262.604	44.39
262.822	50.87
263.039	44.47
263.256	44.49
263.473	56.21
263.69	56.8
263.907	45.79
264.124	12.97
264.341	7.15
264.558	-9.15
264.775	-5.3
264.992	-7.63
265.209	9.51
265.426	0.12
265.643	13.42
265.86	4.4
266.077	13.59
266.294	20.87
266.51	24.19
266.727	31.84
266.944	32.8
267.161	40.62
267.378	46.89
267.595	47.39
267.812	31.14
268.028	34.69
268.245	21.23
268.462	30.81
268.679	52.58
268.896	59.55
269.112	55.87
269.329	41.54
269.546	-0.95
269.763	-18.29
269.979	-8.16
270.196	-2.79
270.413	15.15
270.629	10.62
270.846	10.1
271.063	16.92
271.279	20.61
271.496	33
271.712	39.66
271.929	40.25
272.146	42.69
272.362	42.38
272.579	42.03
272.795	37.69
273.012	40.5
273.228	34.96
273.445	24.6
273.661	25.53
273.878	27.9
274.094	24.14
274.311	23.03
274.527	15.28
274.744	-6.74
274.96	-12.83
275.177	-34.99
275.393	-18.78
275.609	-9.01
275.826	1.19
276.042	12.99
276.259	19.89
276.475	7.07
276.691	20.08
276.908	28.15
277.124	34.53
277.34	41.17
277.557	36.34
277.773	35.29
277.989	36.87
278.205	36.59
278.422	38.49
278.638	39.15
278.854	32.26
279.07	19.38
279.286	23.93
279.503	32.96
279.719	33.38
279.935	42.37
280.151	51.36
280.367	27.66
280.583	0.79
280.799	3.58
281.016	-15.63
281.232	-10.29
281.448	10.51
281.664	16.94
281.88	23.84
282.096	54.04
282.312	52.46
282.528	53.86
282.744	52.11
282.96	50.76
283.176	30.69
283.392	34.03
283.608	35.39
283.824	31.03
284.04	31.27
284.256	35.57
284.471	19.06
284.687	22.9
284.903	16.35
285.119	13.21
285.335	-3
285.551	3.73
285.767	9.43
285.982	15.65
286.198	22.04
286.414	34.79
286.63	43.1
286.846	29.18
287.061	30.71
287.277	31.71
287.493	26.19
287.709	10.1
287.924	25.67
288.14	29.14
288.356	14.17
288.571	21.61
288.787	32.16
289.003	26.65
289.218	28.17
289.434	39.67
289.65	41.44
289.865	21.1
290.081	3.4
290.296	5.58
290.512	9.41
290.727	3.54
290.943	46.88
291.159	59.36
291.374	62.51
291.59	83.7
291.805	76.35
292.021	79.81
292.236	69
292.451	63.28
292.667	50.35
292.882	52.94
293.098	25.85
293.313	30.7
293.529	36.97
293.744	35.23
293.959	35.41
294.175	52.79
294.39	51.62
294.605	57.52
294.821	52.81
295.036	59.97
295.251	63.3
295.467	58.46
295.682	53.72
295.897	39.27
296.112	34.55
296.328	39.53
296.543	41.66
296.758	32.03
296.973	39.8
297.188	35.68
297.404	30.05
297.619	32.78
297.834	40.25
298.049	37.31
298.264	46.96
298.479	43.71
298.694	25.2
298.909	29.55
299.125	25.82
299.34	-4.36
299.555	-3.21
299.77	-12.49
299.985	-8.58
300.2	-0.24
300.415	14.98
300.63	31.26
300.845	47.24
301.06	61.06
301.275	60.12
301.49	44.32
301.704	31.38
301.919	38.56
302.134	26
302.349	29.11
302.564	44.11
302.779	52.62
302.994	41.54
303.209	39.51
303.423	39.92
303.638	28.45
303.853	26.31
304.068	33.5
304.283	39.99
304.497	44.13
304.712	53.17
304.927	52.41
305.142	42.73
305.356	46.54
305.571	53.91
305.786	33.21
306	30.31
306.215	34.23
306.43	50.5
306.644	32.06
306.859	33.02
307.074	36.06
307.288	32.67
307.503	20.11
307.717	13.41
307.932	13.82
308.147	0.94
308.361	0.47
308.576	8.56
308.79	29.16
309.005	39.53
309.219	39.15
309.434	24.35
309.648	7.71
309.863	-4.12
310.077	-27.66
310.292	-2.98
310.506	10.56
310.72	35.18
310.935	30.83
311.149	25.13
311.364	-1.89
311.578	-8.47
311.792	-12.52
312.007	-15.54
312.221	3.53
312.435	9.35
312.649	42.8
312.864	36.99
313.078	25.84
313.292	30.42
313.507	45.15
313.721	34.5
313.935	27.03
314.149	45.37
314.363	33.58
314.578	12.76
314.792	0.53
315.006	-10.1
315.22	2.1
315.434	-0.69
315.648	-21.78
315.862	13.16
316.077	19.25
316.291	13.57
316.505	14.65
316.719	19.88
316.933	19.66
317.147	9.94
317.361	10.7
317.575	18.95
317.789	20.78
318.003	16.36
318.217	19.72
318.431	13.4
318.645	4.84
318.859	15.22
319.073	14.98
319.287	35.37
319.5	53.92
319.714	66.78
319.928	65.81
320.142	62.17
320.356	52.8
320.57	41.63
320.784	21.66
320.997	14.47
321.211	20.39
321.425	24.58
321.639	23.32
321.853	14.06
322.066	9.34
322.28	17.07
322.494	31.73
322.707	16.48
322.921	18.3
323.135	13.35
323.349	14.64
323.562	13.19
323.776	25.58
323.989	30.7
324.203	39.26
324.417	45.7
324.63	46.62
324.844	33.61
325.057	29.45
325.271	29.85
325.485	26.66
325.698	10.52
325.912	37.78
326.125	55.15
326.339	34.92
326.552	18.91
326.766	32.65
326.979	25.34
327.193	14.24
327.406	17.92
327.619	34.4
327.833	12.49
328.046	4.41
328.26	13.94
328.473	19.38
328.686	18.74
328.9	40.29
329.113	55.69
329.326	51.29
329.54	57.34
329.753	65.21
329.966	51.79
330.179	37.16
330.393	42.36
330.606	54.52
330.819	47.58
331.032	42.24
331.246	40.26
331.459	16.47
331.672	-7.58
331.885	5.26
332.098	19.6
332.311	36.44
332.525	47.9
332.738	44.23
332.951	37.49
333.164	36.52
333.377	45.39
333.59	51.49
333.803	55.83
334.016	59.77
334.229	42.05
334.442	5.79
334.655	-9.24
334.868	-14.62
335.081	-23.22
335.294	-10.31
335.507	23.12
335.72	33.84
335.933	29.45
336.146	24.51
336.359	23.18
336.572	11.72
336.785	16.13
336.997	41.39
337.21	48.07
337.423	52.13
337.636	68.6
337.849	67.74
338.062	50.24
338.274	33.67
338.487	40.75
338.7	27.71
338.913	31.8
339.125	29.01
339.338	29.64
339.551	24.98
339.763	24.9
339.976	26.94
340.189	24.25
340.402	24.09
340.614	20.07
340.827	23.4
341.039	18.18
341.252	32.05
341.465	49.06
341.677	48.22
341.89	50.51
342.102	51.83
342.315	43.9
342.527	47.44
342.74	42.46
342.952	39.73
343.165	54.44
343.377	48.1
343.59	37.51
343.802	52.69
344.015	40.22
344.227	14.32
344.44	29.63
344.652	20.98
344.864	-5.15
345.077	-0.92
345.289	-6.34
345.502	-22.4
345.714	-30.69
345.926	4.38
346.139	22.41
346.351	25.42
346.563	37.66
346.775	46.99
346.988	35.66
347.2	35.2
347.412	34.3
347.624	34.98
347.837	29.69
348.049	27.95
348.261	15.6
348.473	6.27
348.685	6.59
348.897	27.08
349.11	21.54
349.322	19.09
349.534	23.61
349.746	25.63
349.958	19.25
350.17	21.66
350.382	24.9
350.594	30.81
350.806	28.98
351.018	23.65
351.23	21.48
351.442	26.06
351.654	1.67
351.866	5.45
352.078	-0.9
352.29	9.59
352.502	-2.46
352.714	19.12
352.926	17.81
353.138	7.21
353.35	11.77
353.561	24.87
353.773	20
353.985	24.28
354.197	31.15
354.409	29.88
354.621	37.44
354.832	37.67
355.044	35.14
355.256	49.83
355.468	38.77
355.679	30.19
355.891	39.58
356.103	42.24
356.314	33.68
356.526	34.46
356.738	32.38
356.949	20.75
357.161	-8.06
357.373	-2.99
357.584	6.47
357.796	3.85
358.008	-2.58
358.219	6.07
358.431	10.47
358.642	12.24
358.854	-1.45
359.065	15.01
359.277	29.34
359.488	9.09
359.7	18.46
359.911	32.16
360.123	30.21
360.334	29.25
360.546	48.85
360.757	35.82
360.969	19.32
361.18	22.47
361.391	26.3
361.603	26.15
361.814	22.9
362.025	38.23
362.237	45.4
362.448	40.48
362.659	30.74
362.871	33.26
363.082	24.3
363.293	10.66
363.504	20.53
363.716	29.03
363.927	25.84
364.138	27.12
364.349	30.86
364.56	20.89
364.772	26.7
364.983	27.74
365.194	28.83
365.405	23.38
365.616	24.07
365.827	13.01
366.038	16.03
366.25	7.76
366.461	26.18
366.672	20.96
366.883	22.47
367.094	15.27
367.305	16.97
367.516	1.47
367.727	11.85
367.938	11.01
368.149	13.8
368.36	5.37
368.571	-2.22
368.781	2.23
368.992	10.69
369.203	13.51
369.414	28.44
369.625	29.74
369.836	23.13
370.047	20.03
370.258	21.14
370.468	15.81
370.679	27.19
370.89	24.24
371.101	19
371.312	18.23
371.522	22.16
371.733	24.64
371.944	32.7
372.155	37.21
372.365	32.81
372.576	40.04
372.787	33.91
372.997	29.42
373.208	32.84
373.419	34.8
373.629	29.69
373.84	32.86
374.05	28.41
374.261	28.97
374.472	32.91
374.682	32.55
374.893	23.86
375.103	21.88
375.314	22.63
375.524	30.19
375.735	27.94
375.945	30.65
376.156	37.74
376.366	32.43
376.577	28.92
376.787	32.07
376.997	34.38
377.208	31.71
377.418	25.74
377.629	15.75
377.839	3.02
378.049	0.65
378.26	-1.28
378.47	5.41
378.68	7.97
378.89	19.85
379.101	22.83
379.311	21.56
379.521	20.22
379.732	33.26
379.942	24.51
380.152	26.27
380.362	25.91
380.572	28.34
380.783	27.4
380.993	34.68
381.203	35.23
381.413	23.97
381.623	19.41
381.833	12.74
382.043	13.18
382.253	13.25
382.463	18.81
382.674	19.42
382.884	17.34
383.094	12.73
383.304	11.72
383.514	15.17
383.724	6.19
383.934	8.08
384.144	12.37
384.353	8.25
384.563	1.14
384.773	2.6
384.983	2.82
385.193	0.43
385.403	3.51
385.613	7.63
385.823	11.51
386.033	9.45
386.242	10.49
386.452	13.36
386.662	12.17
386.872	13.9
387.082	13.2
387.291	10.58
387.501	7.22
387.711	10.87
387.921	10.99
388.13	11.24
388.34	8.11
388.55	9.45
388.759	8.42
388.969	5.91
389.179	5.35
389.388	5.59
389.598	6.87
389.807	5.94
390.017	6.87
390.227	8.26
390.436	9.76
390.646	5.83
390.855	3.66
391.065	2.48
391.274	2.37
391.484	4.25
391.693	4.99
391.903	7.17
392.112	8.51
392.322	6.35
392.531	5.1
392.74	6.08
392.95	6.44
393.159	5.32
393.369	6.69
393.578	6.21
393.787	6.85
393.997	6.2
394.206	6.53
394.415	6.15
394.625	5.89
394.834	5.08
395.043	4.89
395.252	4.96
395.462	5.21
395.671	4.22
395.88	4.33
396.089	4.47
396.298	4.2
396.508	4.15
396.717	5.17
396.926	4.89
397.135	4.02
397.344	4.13
397.553	3.74
397.762	3.28
397.971	3.11
398.181	3.58
398.39	3.69
398.599	3.75
398.808	3.83
399.017	3.41
399.226	3.33
399.435	2.88
399.644	2.74
399.853	2.84
400.062	3.09
400.27	3.13
400.479	3.27
400.688	3.43
400.897	3.47
401.106	3.34
401.315	3.54
401.524	3.71
401.733	3.54
401.941	3.3
402.15	3.67
402.359	3.65
402.568	3.49
402.777	3.23
402.985	3.38
403.194	3.35
403.403	3.08
403.612	3.06
403.82	3.36
404.029	3.32
404.238	3.36
404.446	3.35
404.655	3.19
404.864	3.07
405.072	3.1
405.281	2.87
405.489	2.84
405.698	3.02
405.906	3.19
406.115	3.19
406.324	3.29
406.532	3.25
406.741	3.2
406.949	3.02
407.158	3.03
407.366	3.09
407.574	3.1
407.783	3.13
407.991	3.18
408.2	3.04
408.408	2.85
408.617	2.91
408.825	2.84
409.033	2.8
409.242	2.86
409.45	2.83
409.658	2.86
409.867	2.91
410.075	2.93
410.283	2.94
410.491	2.99
410.7	2.89
410.908	2.8
411.116	2.8
411.324	2.86
411.533	2.82
411.741	2.91
411.949	3.03
412.157	3.1
412.365	2.99
412.573	3.13
412.781	3.1
412.99	3.03
413.198	2.92
413.406	2.89
413.614	2.73
413.822	2.74
414.03	2.8
414.238	2.79
414.446	2.85
414.654	2.92
414.862	2.95
415.07	2.75
415.278	2.78
415.486	2.77
415.694	2.81
415.902	2.71
416.109	2.88
416.317	2.9
416.525	2.82
416.733	2.9
416.941	2.96
417.149	3
417.357	2.94
417.564	2.97
417.772	2.87
417.98	2.95
418.188	2.95
418.395	2.96
418.603	3.06
418.811	3.1
419.019	2.92
419.226	2.81
419.434	2.78
419.642	2.68
419.849	2.66
420.057	2.77
420.265	2.59
420.472	2.66
420.68	2.69
420.887	2.62
421.095	2.52
421.302	2.79
421.51	2.67
421.717	2.58
421.925	2.44
422.132	2.43
422.34	2.41
422.547	2.57
422.755	2.55
422.962	2.75
423.17	2.85
423.377	2.79
423.585	2.73
423.792	2.81
423.999	2.69
424.207	2.67
424.414	2.51
424.621	2.31
424.829	2.3
425.036	2.37
425.243	2.31
425.451	2.46
425.658	2.58
425.865	2.73
426.072	2.66
426.28	2.71
426.487	2.67
426.694	2.76
426.901	2.66
427.108	2.78
427.315	2.92
427.523	2.91
427.73	2.94
427.937	2.98
428.144	2.94
428.351	2.74
428.558	2.77
428.765	2.72
428.972	2.79
429.179	2.8
429.386	2.91
429.593	2.88
429.8	2.94
430.007	2.87
430.214	2.81
430.421	2.76
430.628	2.76
430.835	2.65
431.042	2.62
431.249	2.63
431.456	2.73
431.662	2.76
431.869	2.81
432.076	2.69
432.283	2.56
432.49	2.44
432.697	2.54
432.903	2.54
433.11	2.6
433.317	2.64
433.524	2.64
433.73	2.51
433.937	2.46
434.144	2.47
434.35	2.56
434.557	2.74
434.764	2.98
434.97	3.13
435.177	3.2
435.384	3.23
435.59	3.16
435.797	3.09
436.003	3.09
436.21	3.08
436.416	3.17
436.623	3.07
436.829	2.91
437.036	2.85
437.242	2.89
437.449	2.76
437.655	2.82
437.862	2.85
438.068	2.8
438.275	2.77
438.481	2.78
438.687	2.84
438.894	2.95
439.1	3.07
439.307	3.05
439.513	3.04
439.719	2.98
439.926	2.96
440.132	3.02
440.338	3.12
440.544	3.06
440.751	3.16
440.957	3.19
441.163	3.19
441.369	3.2
441.575	3.37
441.782	3.38
441.988	3.44
442.194	3.35
442.4	3.33
442.606	3.27
442.812	3.22
443.018	3.08
443.224	3.05
443.431	2.99
443.637	3.04
443.843	3.11
444.049	3.21
444.255	3.33
444.461	3.45
444.667	3.45
444.873	3.41
445.079	3.36
445.284	3.37
445.49	3.39
445.696	3.5
445.902	3.49
446.108	3.61
446.314	3.56
446.52	3.63
446.726	3.5
446.931	3.58
447.137	3.48
447.343	3.53
447.549	3.55
447.755	3.65
447.96	3.6
448.166	3.68
448.372	3.6
448.578	3.55
448.783	3.6
448.989	3.61
449.195	3.55
449.4	3.58
449.606	3.56
449.812	3.5
450.017	3.49
450.223	3.56
450.428	3.66
450.634	3.68
450.84	3.68
451.045	3.74
451.251	3.78
451.456	3.72
451.662	3.51
451.867	3.46
452.073	3.5
452.278	3.38
452.483	3.33
452.689	3.49
452.894	3.56
453.1	3.45
453.305	3.55
453.51	3.59
453.716	3.6
453.921	3.67
454.127	3.74
454.332	3.76
454.537	3.85
454.742	3.85
454.948	3.81
455.153	3.83
455.358	3.82
455.563	3.64
455.769	3.74
455.974	3.7
456.179	3.64
456.384	3.59
456.589	3.78
456.795	3.74
457	3.71
457.205	3.65
457.41	3.7
457.615	3.7
457.82	3.67
458.025	3.79
458.23	3.91
458.435	3.87
458.64	3.84
458.845	3.87
459.05	3.88
459.255	3.89
459.46	3.87
459.665	3.85
459.87	3.8
460.075	3.76
460.28	3.83
460.485	3.91
460.69	3.94
460.895	4.01
461.099	4.05
461.304	3.92
461.509	3.93
461.714	4.03
461.919	4
462.123	4.01
462.328	4
462.533	4
462.738	4.04
462.942	4
463.147	4.04
463.352	4.08
463.556	4.09
463.761	3.96
463.966	3.91
464.17	3.89
464.375	3.94
464.58	4
464.784	4.02
464.989	4.12
465.193	4.13
465.398	4.18
465.602	4.06
465.807	4.14
466.011	4.13
466.216	4.1
466.42	4.05
466.625	4.22
466.829	4.16
467.034	4.13
467.238	4.16
467.443	4.18
467.647	4.13
467.851	4.21
468.056	4.25
468.26	4.33
468.464	4.29
468.669	4.34
468.873	4.31
469.077	4.3
469.282	4.32
469.486	4.41
469.69	4.36
469.894	4.39
470.099	4.41
470.303	4.39
470.507	4.39
470.711	4.45
470.915	4.49
471.119	4.57
471.324	4.58
471.528	4.54
471.732	4.51
471.936	4.47
472.14	4.37
472.344	4.35
472.548	4.39
472.752	4.37
472.956	4.39
473.16	4.39
473.364	4.42
473.568	4.45
473.772	4.44
473.976	4.52
474.18	4.64
474.384	4.62
474.588	4.62
474.792	4.72
474.995	4.65
475.199	4.61
475.403	4.57
475.607	4.6
475.811	4.63
476.015	4.56
476.218	4.57
476.422	4.68
476.626	4.67
476.83	4.57
477.033	4.66
477.237	4.64
477.441	4.55
477.644	4.44
477.848	4.48
478.052	4.51
478.255	4.5
478.459	4.49
478.663	4.59
478.866	4.69
479.07	4.63
479.273	4.7
479.477	4.67
479.681	4.69
479.884	4.61
480.088	4.63
480.291	4.59
480.495	4.62
480.698	4.53
480.901	4.57
481.105	4.58
481.308	4.63
481.512	4.74
481.715	4.83
481.919	4.82
482.122	4.82
482.325	4.8
482.529	4.69
482.732	4.68
482.935	4.67
483.138	4.63
483.342	4.69
483.545	4.7
483.748	4.67
483.952	4.65
484.155	4.73
484.358	4.7
484.561	4.73
484.764	4.79
484.967	4.81
485.171	4.82
485.374	4.86
485.577	4.82
485.78	4.79
485.983	4.78
486.186	4.77
486.389	4.74
486.592	4.8
486.795	4.78
486.998	4.77
487.201	4.78
487.404	4.77
487.607	4.75
487.81	4.7
488.013	4.77
488.216	4.71
488.419	4.59
488.622	4.62
488.825	4.73
489.028	4.65
489.231	4.71
489.433	4.8
489.636	4.79
489.839	4.74
490.042	4.77
490.245	4.77
490.447	4.82
490.65	4.81
490.853	4.79
491.056	4.73
491.258	4.75
491.461	4.69
491.664	4.68
491.866	4.71
492.069	4.73
492.272	4.65
492.474	4.67
492.677	4.64
492.879	4.6
493.082	4.6
493.285	4.66
493.487	4.7
493.69	4.71
493.892	4.71
494.095	4.69
494.297	4.7
494.5	4.62
494.702	4.62
494.905	4.71
495.107	4.65
495.309	4.61
495.512	4.66
495.714	4.72
495.917	4.61
496.119	4.73
496.321	4.72
496.524	4.7
496.726	4.65
496.928	4.72
497.13	4.77
497.333	4.8
497.535	4.83
497.737	4.88
497.939	4.83
498.142	4.74
498.344	4.78
498.546	4.77
498.748	4.77
498.95	4.88
499.152	4.92
499.355	4.92
499.557	4.87
499.759	4.77
499.961	4.69
500.163	4.7
500.365	4.7
500.567	4.67
500.769	4.76
500.971	4.8
501.173	4.78
501.375	4.77
501.577	4.87
501.779	4.89
501.981	4.91
502.183	4.92
502.385	4.9
502.587	4.87
502.788	4.8
502.99	4.75
503.192	4.8
503.394	4.83
503.596	4.84
503.798	4.88
503.999	4.9
504.201	4.88
504.403	4.83
504.605	4.82
504.806	4.91
505.008	4.92
505.21	4.87
505.411	4.94
505.613	4.95
505.815	4.88
506.016	4.83
506.218	4.89
506.42	4.9
506.621	4.88
506.823	4.92
507.024	4.99
507.226	4.97
507.427	5
507.629	5.05
507.83	5.02
508.032	5
508.233	4.97
508.435	4.94
508.636	4.93
508.838	4.93
509.039	4.93
509.24	4.95
509.442	4.88
509.643	4.91
509.845	4.91
510.046	4.87
510.247	4.84
510.448	4.89
510.65	4.87
510.851	4.89
511.052	4.95
511.254	5.06
511.455	5.02
511.656	4.97
511.857	4.89
512.058	4.88
512.26	4.81
512.461	4.86
512.662	4.91
512.863	4.99
513.064	5.03
513.265	5.02
513.466	5.01
513.667	5
513.868	4.97
514.069	4.93
514.27	4.88
514.471	4.85
514.672	4.92
514.873	4.91
515.074	4.91
515.275	5
515.476	5.1
515.677	5.06
515.878	5.1
516.079	5.15
516.28	5.14
516.481	5.1
516.682	5.08
516.882	5.07
517.083	5.07
517.284	5.09
517.485	5.08
517.686	5.08
517.886	5.16
518.087	5.1
518.288	5.07
518.488	5.08
518.689	5.03
518.89	5
519.091	5.09
519.291	5.09
519.492	5.02
519.692	5.09
519.893	5.02
520.094	4.98
520.294	5
520.495	5.13
520.695	5.16
520.896	5.19
521.096	5.21
521.297	5.23
521.497	5.22
521.698	5.2
521.898	5.17
522.099	5.18
522.299	5.17
522.499	5.16
522.7	5.23
522.9	5.28
523.101	5.25
523.301	5.25
523.501	5.23
523.702	5.17
523.902	5.15
524.102	5.18
524.302	5.19
524.503	5.18
524.703	5.2
524.903	5.27
525.103	5.31
525.304	5.25
525.504	5.22
525.704	5.25
525.904	5.23
526.104	5.24
526.304	5.33
526.504	5.37
526.705	5.31
526.905	5.3
527.105	5.25
527.305	5.22
527.505	5.27
527.705	5.31
527.905	5.34
528.105	5.34
528.305	5.37
528.505	5.33
528.705	5.36
528.905	5.37
529.105	5.43
529.304	5.44
529.504	5.52
529.704	5.53
529.904	5.54
530.104	5.54
530.304	5.54
530.503	5.5
530.703	5.48
530.903	5.48
531.103	5.45
531.303	5.45
531.502	5.47
531.702	5.5
531.902	5.48
532.101	5.52
532.301	5.55
532.501	5.52
532.7	5.54
532.9	5.64
533.1	5.64
533.299	5.68
533.499	5.71
533.698	5.69
533.898	5.66
534.097	5.65
534.297	5.55
534.496	5.56
534.696	5.59
534.895	5.56
535.095	5.6
535.294	5.75
535.494	5.75
535.693	5.73
535.892	5.77
536.092	5.79
536.291	5.72
536.491	5.75
536.69	5.79
536.889	5.83
537.088	5.85
537.288	5.91
537.487	5.95
537.686	5.98
537.886	5.98
538.085	6
538.284	5.99
538.483	5.96
538.682	5.92
538.882	5.95
539.081	5.93
539.28	5.92
539.479	5.98
539.678	6.03
539.877	5.99
540.076	6.02
540.275	6.06
540.474	5.97
540.673	6.01
540.872	6.05
541.071	6.09
541.27	6.16
541.469	6.22
541.668	6.23
541.867	6.3
542.066	6.34
542.265	6.38
542.464	6.45
542.663	6.44
542.862	6.41
543.06	6.44
543.259	6.43
543.458	6.45
543.657	6.54
543.856	6.6
544.054	6.58
544.253	6.61
544.452	6.66
544.651	6.64
544.849	6.68
545.048	6.75
545.247	6.76
545.445	6.78
545.644	6.84
545.843	6.89
546.041	6.89
546.24	6.87
546.438	6.85
546.637	6.87
546.836	6.87
547.034	6.9
547.233	7.02
547.431	7.16
547.63	7.23
547.828	7.27
548.027	7.33
548.225	7.36
548.423	7.37
548.622	7.41
548.82	7.47
549.019	7.47
549.217	7.46
549.415	7.52
549.614	7.6
549.812	7.6
550.01	7.77
550.209	7.86
550.407	7.89
550.605	7.89
550.803	8.01
551.002	8.03
551.2	8.11
551.398	8.12
551.596	8.18
551.794	8.23
551.993	8.22
552.191	8.25
552.389	8.32
552.587	8.35
552.785	8.38
552.983	8.44
553.181	8.5
553.379	8.52
553.577	8.63
553.775	8.75
553.973	8.77
554.171	8.81
554.369	8.97
554.567	9.02
554.765	9.07
554.963	9.18
555.161	9.3
555.359	9.3
555.557	9.31
555.755	9.36
555.952	9.43
556.15	9.46
556.348	9.55
556.546	9.68
556.744	9.68
556.941	9.71
557.139	9.79
557.337	9.88
557.535	10
557.732	10.12
557.93	10.16
558.128	10.24
558.325	10.26
558.523	10.29
558.721	10.34
558.918	10.44
559.116	10.49
559.313	10.57
559.511	10.63
559.708	10.69
559.906	10.76
560.104	10.86
560.301	10.94
560.498	10.98
560.696	11.07
560.893	11.17
561.091	11.21
561.288	11.28
561.486	11.35
561.683	11.42
561.88	11.42
562.078	11.46
562.275	11.5
562.473	11.56
562.67	11.56
562.867	11.72
563.064	11.82
563.262	11.88
563.459	11.98
563.656	12.03
563.853	12.01
564.051	12.17
564.248	12.19
564.445	12.28
564.642	12.36
564.839	12.44
565.036	12.39
565.234	12.52
565.431	12.56
565.628	12.6
565.825	12.68
566.022	12.7
566.219	12.75
566.416	12.79
566.613	12.93
566.81	12.99
567.007	13.04
567.204	13.12
567.401	13.13
567.598	13.11
567.795	13.1
567.991	13.16
568.188	13.18
568.385	13.12
568.582	13.18
568.779	13.23
568.976	13.21
569.172	13.2
569.369	13.29
569.566	13.28
569.763	13.22
569.96	13.3
570.156	13.32
570.353	13.4
570.55	13.49
570.746	13.65
570.943	13.7
571.14	13.78
571.336	13.77
571.533	13.76
571.729	13.72
571.926	13.74
572.123	13.65
572.319	13.74
572.516	13.72
572.712	13.72
572.909	13.74
573.105	13.8
573.302	13.75
573.498	13.78
573.695	13.84
573.891	13.78
574.087	13.83
574.284	13.94
574.48	13.96
574.677	13.93
574.873	13.96
575.069	13.98
575.266	13.91
575.462	13.91
575.658	13.88
575.854	13.9
576.051	13.79
576.247	13.8
576.443	13.73
576.639	13.85
576.835	13.76
577.032	13.78
577.228	13.68
577.424	13.72
577.62	13.61
577.816	13.67
578.012	13.7
578.208	13.6
578.404	13.58
578.6	13.63
578.796	13.58
578.993	13.63
579.189	13.73
579.384	13.8
579.58	13.73
579.776	13.76
579.972	13.69
580.168	13.69
580.364	13.58
580.56	13.64
580.756	13.57
580.952	13.53
581.148	13.49
581.343	13.5
581.539	13.43
581.735	13.4
581.931	13.38
582.127	13.46
582.322	13.44
582.518	13.34
582.714	13.45
582.909	13.43
583.105	13.28
583.301	13.29
583.496	13.28
583.692	13.21
583.888	13.24
584.083	13.3
584.279	13.22
584.474	13.25
584.67	13.22
584.866	13.19
585.061	13.2
585.257	13.25
585.452	13.23
585.648	13.21
585.843	13.19
586.039	13.17
586.234	13.1
586.429	13.07
586.625	13.02
586.82	13.1
587.015	13.1
587.211	13.16
587.406	13.24
587.601	13.3
587.797	13.17
587.992	13.1
588.187	13.12
588.383	13.12
588.578	13.18
588.773	13.25
588.968	13.28
589.163	13.3
589.359	13.28
589.554	13.22
589.749	13.26
589.944	13.31
590.139	13.28
590.334	13.37
590.529	13.44
590.724	13.48
590.919	13.51
591.114	13.55
591.309	13.45
591.504	13.42
591.699	13.41
591.894	13.45
592.089	13.49
592.284	13.63
592.479	13.64
592.674	13.74
592.869	13.73
593.064	13.77
593.259	13.75
593.454	13.82
593.648	13.8
593.843	13.84
594.038	13.83
594.233	13.86
594.428	13.89
594.622	13.96
594.817	14.04
595.012	14.12
595.206	14.21
595.401	14.29
595.596	14.32
595.79	14.38
595.985	14.44
596.18	14.49
596.374	14.57
596.569	14.63
596.763	14.66
596.958	14.68
597.153	14.72
597.347	14.76
597.542	14.74
597.736	14.89
597.931	14.99
598.125	15.07
598.319	15.2
598.514	15.3
598.708	15.36
598.903	15.34
599.097	15.39
599.291	15.31
599.486	15.38
599.68	15.37
599.874	15.44
600.069	15.45
600.263	15.52
600.457	15.52
600.651	15.52
600.846	15.65
601.04	15.68
601.234	15.69
601.428	15.67
601.622	15.7
601.817	15.66
602.011	15.68
602.205	15.75
602.399	15.8
602.593	15.86
602.787	15.89
602.981	15.9
603.175	15.95
603.369	15.96
603.563	15.91
603.757	15.89
603.951	15.97
604.145	15.96
604.339	15.92
604.533	15.92
604.727	15.91
604.921	15.78
605.115	15.67
605.309	15.7
605.502	15.7
605.696	15.72
605.89	15.71
606.084	15.79
606.278	15.87
606.471	15.84
606.665	15.78
606.859	15.72
607.053	15.66
607.246	15.49
607.44	15.42
607.634	15.38
607.827	15.32
608.021	15.21
608.214	15.19
608.408	15.12
608.602	15.05
608.795	15.19
608.989	15.2
609.182	15.13
609.376	15.06
609.569	15.02
609.763	14.82
609.956	14.74
610.15	14.71
610.343	14.77
610.537	14.68
610.73	14.62
610.923	14.62
611.117	14.6
611.31	14.45
611.504	14.44
611.697	14.47
611.89	14.39
612.083	14.31
612.277	14.24
612.47	14.22
612.663	14.07
612.856	13.96
613.05	13.85
613.243	13.84
613.436	13.68
613.629	13.66
613.822	13.64
614.015	13.66
614.209	13.6
614.402	13.66
614.595	13.71
614.788	13.68
614.981	13.59
615.174	13.52
615.367	13.36
615.56	13.18
615.753	13.19
615.946	13.19
616.139	13.15
616.332	13.17
616.525	13.12
616.718	13.06
616.911	13.04
617.103	13.03
617.296	12.99
617.489	13.05
617.682	12.99
617.875	12.89
618.067	12.82
618.26	12.83
618.453	12.78
618.646	12.75
618.838	12.66
619.031	12.63
619.224	12.61
619.417	12.61
619.609	12.62
619.802	12.72
619.994	12.66
620.187	12.59
620.38	12.51
620.572	12.45
620.765	12.37
620.957	12.42
621.15	12.45
621.342	12.45
621.535	12.29
621.727	12.21
621.92	12.13
622.112	12.07
622.305	12.03
622.497	12.18
622.69	12.23
622.882	12.23
623.074	12.16
623.267	12.15
623.459	12.08
623.651	12.08
623.844	12.07
624.036	12.12
624.228	12.12
624.42	12.08
624.613	12.04
624.805	12.02
624.997	11.96
625.189	11.93
625.381	11.95
625.574	11.93
625.766	11.88
625.958	11.92
626.15	11.85
626.342	11.88
626.534	11.81
626.726	11.86
626.918	11.77
627.11	11.75
627.302	11.61
627.494	11.64
627.686	11.62
627.878	11.58
628.07	11.58
628.262	11.64
628.454	11.56
628.646	11.55
628.838	11.56
629.029	11.53
629.221	11.49
629.413	11.46
629.605	11.36
629.797	11.33
629.989	11.32
630.18	11.25
630.372	11.24
630.564	11.22
630.755	11.15
630.947	11.11
631.139	11.13
631.33	11.11
631.522	11.1
631.714	11.08
631.905	11.08
632.097	10.99
632.289	11.01
632.48	10.99
632.672	11.04
632.863	10.97
633.055	10.91
633.246	10.79
633.438	10.75
633.629	10.69
633.821	10.74
634.012	10.83
634.203	10.95
634.395	10.98
634.586	11.01
634.777	10.99
634.969	11.02
635.16	10.99
635.351	10.98
635.543	10.95
635.734	10.87
635.925	10.87
636.117	10.86
636.308	10.8
636.499	10.79
636.69	10.83
636.881	10.77
637.073	10.69
637.264	10.71
637.455	10.72
637.646	10.72
637.837	10.75
638.028	10.81
638.219	10.85
638.41	10.79
638.601	10.76
638.792	10.73
638.983	10.68
639.174	10.64
639.365	10.7
639.556	10.7
639.747	10.65
639.938	10.68
640.129	10.72
640.32	10.63
640.511	10.65
640.701	10.65
640.892	10.63
641.083	10.55
641.274	10.57
641.465	10.48
641.655	10.52
641.846	10.5
642.037	10.54
642.228	10.44
642.418	10.39
642.609	10.35
642.8	10.27
642.99	10.2
643.181	10.26
643.372	10.25
643.562	10.2
643.753	10.18
643.943	10.22
644.134	10.17
644.324	10.23
644.515	10.21
644.705	10.26
644.896	10.21
645.086	10.25
645.277	10.18
645.467	10.24
645.658	10.24
645.848	10.21
646.038	10.19
646.229	10.26
646.419	10.18
646.61	10.13
646.8	10.12
646.99	10.09
647.18	10.05
647.371	10.07
647.561	10.07
647.751	10.06
647.941	10.09
648.132	10.12
648.322	10.11
648.512	10.09
648.702	10.06
648.892	10.06
649.082	10.01
649.272	10
649.462	9.99
649.653	9.96
649.843	9.9
650.033	9.8
650.223	9.71
650.413	9.73
650.603	9.78
650.793	9.74
650.983	9.82
651.172	9.88
651.362	9.76
651.552	9.71
651.742	9.74
651.932	9.68
652.122	9.66
652.312	9.71
652.502	9.68
652.691	9.63
652.881	9.59
653.071	9.53
653.261	9.4
653.45	9.32
653.64	9.17
653.83	9.08
654.019	8.95
654.209	8.91
654.399	8.8
654.588	8.79
654.778	8.7
654.968	8.63
655.157	8.59
655.347	8.53
655.536	8.41
655.726	8.34
655.915	8.22
656.105	8.13
656.294	8.02
656.484	7.99
656.673	8.02
656.863	8.04
657.052	7.94
657.241	7.98
657.431	7.88
657.62	7.73
657.809	7.55
657.999	7.51
658.188	7.38
658.377	7.34
658.567	7.27
658.756	7.18
658.945	7.15
659.134	7.07
659.324	6.97
659.513	6.89
659.702	6.91
659.891	6.82
660.08	6.74
660.269	6.64
660.458	6.51
660.648	6.42
660.837	6.31
661.026	6.21
661.215	6.16
661.404	6.11
661.593	5.99
661.782	5.86
661.971	5.78
662.16	5.69
662.349	5.6
662.538	5.58
662.726	5.6
662.915	5.55
663.104	5.51
663.293	5.49
663.482	5.37
663.671	5.28
663.86	5.23
664.048	5.12
664.237	5.02
664.426	5.01
664.615	4.9
664.803	4.86
664.992	4.93
665.181	4.94
665.369	4.95
665.558	4.97
665.747	4.9
665.935	4.8
666.124	4.84
666.312	4.76
666.501	4.79
666.69	4.82
666.878	4.89
667.067	4.78
667.255	4.8
667.444	4.71
667.632	4.67
667.82	4.54
668.009	4.6
668.197	4.66
668.386	4.76
668.574	4.76
668.762	4.84
668.951	4.83
669.139	4.97
669.327	4.94
669.516	4.93
669.704	4.99
669.892	5.08
670.08	4.85
670.269	4.9
670.457	4.96
670.645	4.91
670.833	4.81
671.021	4.84
671.21	4.86
671.398	4.78
671.586	4.82
671.774	4.87
671.962	4.99
672.15	5.02
672.338	5.2
672.526	5.21
672.714	5.25
672.902	5.21
673.09	5.17
673.278	5.11
673.466	5.14
673.654	5.17
673.842	5.29
674.03	5.38
674.218	5.48
674.405	5.59
674.593	5.59
674.781	5.55
674.969	5.43
675.157	5.31
675.344	5.17
675.532	5.1
675.72	5.21
675.908	5.28
676.095	5.48
676.283	5.57
676.471	5.6
676.658	5.65
676.846	5.71
677.033	5.74
677.221	5.84
677.409	5.97
677.596	5.96
677.784	5.96
677.971	5.98
678.159	5.98
678.346	5.91
678.534	6
678.721	6.02
678.909	5.97
679.096	6.01
679.283	6.13
679.471	6.17
679.658	6.29
679.846	6.44
680.033	6.53
680.22	6.58
680.408	6.59
680.595	6.67
680.782	6.68
680.969	6.71
681.157	6.79
681.344	6.77
681.531	6.78
681.718	6.84
681.905	6.88
682.093	7
682.28	7.07
682.467	7.2
682.654	7.17
682.841	7.31
683.028	7.32
683.215	7.53
683.402	7.56
683.589	7.85
683.776	7.91
683.963	8.01
684.15	8.01
684.337	8.2
684.524	8.34
684.711	8.4
684.898	8.49
685.085	8.57
685.271	8.63
685.458	8.68
685.645	8.89
685.832	9.08
686.019	9.37
686.205	9.53
686.392	9.68
686.579	9.89
686.766	10.01
686.952	10.05
687.139	10.32
687.326	10.52
687.512	10.61
687.699	10.7
687.886	10.93
688.072	11.02
688.259	11.26
688.445	11.59
688.632	12.13
688.818	12.47
689.005	12.73
689.191	13.19
689.378	13.58
689.564	13.79
689.751	14.11
689.937	14.48
690.124	14.72
690.31	15.02
690.496	15.36
690.683	15.78
690.869	16.2
691.055	16.47
691.242	16.78
691.428	17.08
691.614	17.42
691.8	17.97
691.987	18.42
692.173	19.03
692.359	19.6
692.545	20.21
692.731	20.66
692.918	21.08
693.104	21.4
693.29	21.78
693.476	22.12
693.662	22.51
693.848	23.02
694.034	23.58
694.22	24.26
694.406	24.87
694.592	25.27
694.778	25.98
694.964	26.34
695.15	26.96
695.336	27.57
695.522	27.98
695.708	28.44
695.894	29.13
696.08	29.62
696.265	29.91
696.451	31
696.637	31.69
696.823	32.32
697.009	32.86
697.194	33.43
697.38	33.6
697.566	34.1
697.751	34.77
697.937	35.37
698.123	36.03
698.308	36.55
698.494	37.15
698.68	37.17
698.865	37.48
699.051	37.85
699.236	38.23
699.422	38.62
699.607	39.66
699.793	40.07
699.978	40.73
700.164	41.69
700.349	41.94
700.535	42.16
700.72	42.65
700.906	43.08
701.091	43.15
701.276	43.56
701.462	43.71
701.647	44.29
701.832	44.66
702.018	45.01
702.203	45.73
702.388	46.41
702.573	46.83
702.759	47.04
702.944	47.73
703.129	47.9
703.314	48.07
703.499	48.33
703.684	48.94
703.87	49.1
704.055	49.5
704.24	50.07
704.425	50.36
704.61	50.73
704.795	51.31
704.98	51.61
705.165	51.77
705.35	52.3
705.535	52.44
705.72	52.65
705.905	53.08
706.09	53.49
706.275	53.83
706.459	54.28
706.644	54.52
706.829	54.65
707.014	55.09
707.199	55.27
707.384	55.32
707.568	55.32
707.753	55.83
707.938	55.59
708.123	55.67
708.307	56.21
708.492	56.63
708.677	56.37
708.861	56.71
709.046	56.88
709.231	57.16
709.415	57.35
709.6	57.78
709.784	58.4
709.969	58.82
710.153	58.95
710.338	59.34
710.522	59.53
710.707	59.52
710.891	59.47
711.076	59.09
711.26	59.01
711.445	59
711.629	59.07
711.813	59.18
711.998	59.56
712.182	59.88
712.366	60.63
712.551	60.81
712.735	61
712.919	61.25
713.103	61.32
713.288	61.01
713.472	61.12
713.656	61.12
713.84	61.35
714.024	61.38
714.208	61.64
714.393	61.86
714.577	62.19
714.761	61.96
714.945	61.98
715.129	61.94
715.313	62.01
715.497	62.36
715.681	62.43
715.865	62.53
716.049	62.64
716.233	62.52
716.417	62.28
716.601	62.4
716.785	62.83
716.968	63.14
717.152	63.34
717.336	63.72
717.52	64.17
717.704	64.07
717.888	64.25
718.071	64.11
718.255	64.05
718.439	64.07
718.622	64.26
718.806	64.04
718.99	64.58
719.174	64.93
719.357	64.81
719.541	64.79
719.724	64.9
719.908	65.08
720.092	64.96
720.275	65.26
720.459	65.43
720.642	65.38
720.826	65.36
721.009	64.97
721.193	65.36
721.376	65.88
721.559	65.71
721.743	65.66
721.926	66.3
722.11	65.82
722.293	65.36
722.476	65.64
722.66	65.54
722.843	65.27
723.026	66.2
723.21	66.77
723.393	66.9
723.576	67.02
723.759	67.15
723.942	66.07
724.126	65.13
724.309	65.84
724.492	66.27
724.675	66.68
724.858	67.46
725.041	68.27
725.224	68.24
725.407	67.93
725.59	67.75
725.774	67.78
725.957	67.96
726.14	67.8
726.322	68.25
726.505	68.66
726.688	69.15
726.871	68.83
727.054	69.21
727.237	69.46
727.42	69.37
727.603	70.05
727.786	70.42
727.968	70.56
728.151	70.85
728.334	71.13
728.517	70.65
728.699	70.89
728.882	70.85
729.065	70.74
729.248	70.82
729.43	70.77
729.613	71.07
729.796	71.65
729.978	71.78
730.161	72.08
730.343	72.06
730.526	71.58
730.708	71.89
730.891	72.61
731.073	73.05
731.256	73.09
731.438	74.14
731.621	73.58
731.803	72.6
731.986	72.57
732.168	73.64
732.35	73.74
732.533	74.31
732.715	75.46
732.898	74.6
733.08	73.83
733.262	73.48
733.444	73.28
733.627	72.93
733.809	74
733.991	74.41
734.173	75.15
734.355	75.31
734.538	75.69
734.72	75.54
734.902	75.61
735.084	74.89
735.266	74.58
735.448	74.83
735.63	75.42
735.812	75.53
735.994	76.14
736.176	77.04
736.358	76.06
736.54	75.36
736.722	75.78
736.904	75.88
737.086	75.24
737.268	75.96
737.45	76.7
737.632	76.32
737.814	76.2
737.995	76.73
738.177	77.22
738.359	77.54
738.541	77.51
738.723	77.98
738.904	77.88
739.086	77.96
739.268	77.56
739.449	77.5
739.631	77.12
739.813	77.36
739.994	77.25
740.176	77.28
740.358	77.65
740.539	78.44
740.721	79.02
740.902	78.74
741.084	78.5
741.265	79.46
741.447	78.47
741.628	78.37
741.81	78.66
741.991	79.57
742.172	78.32
742.354	79.76
742.535	80.04
742.717	80.32
742.898	80.15
743.079	81.33
743.261	81.23
743.442	80.84
743.623	80.44
743.804	80.19
743.986	79.97
744.167	79.44
744.348	78.98
744.529	78.93
744.71	78.64
744.891	78.24
745.073	78.79
745.254	78.92
745.435	79.26
745.616	80.21
745.797	80.46
745.978	81.18
746.159	81.34
746.34	80.99
746.521	80.63
746.702	80.38
746.883	79.08
747.064	79.39
747.245	80.3
747.426	80.22
747.606	80.32
747.787	80.44
747.968	80.44
748.149	80.24
748.33	79.89
748.51	79.99
748.691	79.83
748.872	80.21
749.053	81.42
749.233	83.55
749.414	83.25
749.595	83.72
749.775	84.46
749.956	83.66
750.137	81.8
750.317	82.19
750.498	81.67
750.678	81.11
750.859	80.65
751.04	80.7
751.22	81.96
751.4	81.79
751.581	81.48
751.761	81.23
751.942	81.29
752.122	80.18
752.303	81.38
752.483	81.84
752.663	81.85
752.844	81.77
753.024	82.52
753.204	82.46
753.385	82.42
753.565	82.05
753.745	81.1
753.925	79.89
754.106	79.24
754.286	79.08
754.466	79.99
754.646	82.37
754.826	83.37
755.006	83.89
755.187	82.55
755.367	82.95
755.547	82.01
755.727	81.69
755.907	81.57
756.087	81.82
756.267	81.12
756.447	81.72
756.627	81.69
756.807	81.42
756.987	83.48
757.167	84.45
757.346	83.48
757.526	82.33
757.706	81.58
757.886	80.63
758.066	79.83
758.246	80.04
758.425	82.81
758.605	83.39
758.785	83.19
758.965	82.96
759.144	84.41
759.324	82.67
759.504	83.39
759.683	83.84
759.863	83.29
760.043	82.07
760.222	83
760.402	82.11
760.581	81.27
760.761	81.74
760.94	81.14
761.12	79.53
761.299	79.37
761.479	79.59
761.658	81.1
761.838	81.61
762.017	84.02
762.197	83.26
762.376	84.67
762.555	83.35
762.735	82.46
762.914	79.97
763.093	80.57
763.273	78.69
763.452	78.62
763.631	78.45
763.81	79.68
763.99	81.72
764.169	82.4
764.348	81.63
764.527	82.81
764.706	83.5
764.885	82.5
765.064	80.48
765.243	80.82
765.423	80.86
765.602	78.64
765.781	78.78
765.96	80.49
766.139	81.77
766.318	81.45
766.497	82.4
766.676	82.21
766.854	82.45
767.033	81.37
767.212	81.73
767.391	82.06
767.57	82.71
767.749	82.75
767.928	81.57
768.106	81.55
768.285	80.69
768.464	79.79
768.643	79.69
768.821	80.3
769	78.75
769.179	79.19
769.357	80.59
769.536	81.43
769.715	81.06
769.893	82.05
770.072	82.55
770.25	81.03
770.429	80.13
770.607	80.74
770.786	80.75
770.964	79.15
771.143	80.73
771.321	80.71
771.5	78.9
771.678	79.83
771.857	81.41
772.035	80.05
772.213	80.12
772.392	81.21
772.57	79.17
772.748	79.36
772.927	79.67
773.105	79.81
773.283	81.14
773.461	81.94
773.64	81.2
773.818	80.06
773.996	79.62
774.174	76.92
774.352	76.58
774.531	76.4
774.709	77.05
774.887	77.5
775.065	82.92
775.243	85.73
775.421	85.2
775.599	85.24
775.777	84.26
775.955	80.41
776.133	78.62
776.311	78.7
776.489	79.66
776.667	79.91
776.844	81.37
777.022	83
777.2	83.22
777.378	82.32
777.556	82.86
777.734	82.16
777.911	81.17
778.089	80.83
778.267	80.84
778.445	81.49
778.622	79.49
778.8	77.7
778.978	77.87
779.155	77.09
779.333	78.84
779.511	79.17
779.688	79.73
779.866	81.41
780.043	84.4
780.221	81.4
780.398	81.1
780.576	80.18
780.753	79.97
780.931	77.18
781.108	78.57
781.286	79.88
781.463	79.29
781.64	77.48
781.818	79.77
781.995	79.92
782.172	79.41
782.35	81.25
782.527	85.02
782.704	80.14
782.882	77.89
783.059	78.7
783.236	80.49
783.413	76.9
783.59	78.93
783.768	81.19
783.945	80.4
784.122	81.19
784.299	81.59
784.476	81.27
784.653	81.8
784.83	82.12
785.007	80.98
785.184	81
785.361	83.21
785.538	81.76
785.715	82.53
785.892	80.04
786.069	79.84
786.246	79.07
786.423	80.85
786.6	81.91
786.776	83.33
786.953	84.32
787.13	83.49
787.307	80.52
787.484	79.49
787.66	77.94
787.837	78.19
788.014	77.79
788.191	82.49
788.367	82.43
788.544	83.62
788.721	84.05
788.897	84.31
789.074	80.98
789.25	79.68
789.427	79.86
789.603	77.75
789.78	76.38
789.956	75.46
790.133	76.48
790.309	76.06
790.486	71.67
790.662	75.29
790.839	76.86
791.015	73.27
791.192	71.82
791.368	75.8
791.544	76.18
791.721	76.29
791.897	78.54
792.073	79.78
792.249	81.91
792.426	78.4
792.602	74.44
792.778	77.35
792.954	78.16
793.13	79.41
793.307	80.55
793.483	82.36
793.659	82.57
793.835	81.77
794.011	76.16
794.187	76.88
794.363	79.54
794.539	76.76
794.715	79.7
794.891	82.34
795.067	81.61
795.243	80.18
795.419	81.27
795.595	76.63
795.771	78.68
795.947	74.48
796.122	75.6
796.298	74.75
796.474	78.07
796.65	74.55
796.826	80.81
797.001	79.67
797.177	78.73
797.353	78.33
797.529	82.62
797.704	82.34
797.88	83.34
798.056	82.85
798.231	82.14
798.407	78.68
798.582	77.57
798.758	76.31
798.934	76.42
799.109	75.49
799.285	77.49
799.46	75.31
799.636	72.87
799.811	75.19
799.986	75.15
800.162	75.86
800.337	73.24
800.513	77.9
800.688	84.07
800.863	87.76
801.039	85.06
801.214	90.43
801.389	89.88
801.565	87.3
801.74	85.13
801.915	81.18
802.09	76.33
802.265	70.2
802.441	69.01
802.616	63.64
802.791	70.01
802.966	75.04
803.141	83.64
803.316	85.16
803.491	91.01
803.666	88.01
803.841	87.92
804.016	84.1
804.191	85
804.366	88.59
804.541	88.08
804.716	90.13
804.891	91.22
805.066	87.28
805.241	86.54
805.416	81.32
805.591	77.47
805.765	75.08
805.94	76.97
806.115	73.11
806.29	79.91
806.464	79.72
806.639	76.39
806.814	76.51
806.989	77.54
807.163	72.15
807.338	76
807.512	78.68
807.687	75.74
807.862	79.39
808.036	82.38
808.211	81.96
808.385	84.85
808.56	85.23
808.734	88.74
808.909	88.97
809.083	90.64
809.258	83.91
809.432	85.13
809.606	79.93
809.781	79.01
809.955	74.03
810.13	75.06
810.304	72.9
810.478	72.07
810.652	74.07
810.827	73.22
811.001	75.16
811.175	77.32
811.349	80.29
811.524	78.64
811.698	73.94
811.872	70.7
812.046	72.3
812.22	66.45
812.394	71.13
812.568	84.23
812.742	87.32
812.916	88.56
813.09	86.33
813.264	84.9
813.438	87.05
813.612	94.46
813.786	100.09
813.96	105.16
814.134	106.36
814.308	91.12
814.482	85.99
814.656	81.05
814.83	81.25
815.003	83.44
815.177	89.21
815.351	86.29
815.525	90.01
815.698	85.41
815.872	78.64
816.046	77.5
816.219	73.53
816.393	69.48
816.567	75.67
816.74	77.35
816.914	75.09
817.088	83.9
817.261	81.08
817.435	79.04
817.608	80.7
817.782	86.96
817.955	82.4
818.129	80.67
818.302	83.99
818.475	81.78
818.649	75.25
818.822	80.45
818.996	73.78
819.169	66.52
819.342	60.92
819.516	65.22
819.689	63.15
819.862	78.78
820.035	78.15
820.209	79.52
820.382	84.67
820.555	79.63
820.728	70.91
820.901	73.76
821.075	72.42
821.248	58.97
821.421	71.45
821.594	74.01
821.767	80.49
821.94	87.96
822.113	91.93
822.286	72.11
822.459	69.65
822.632	57.2
822.805	53.87
822.978	64.33
823.151	68.94
823.324	75.8
823.496	88.89
823.669	94.34
823.842	78.71
824.015	92.55
824.188	81.51
824.361	79.75
824.533	71.48
824.706	75.02
824.879	69.1
825.051	75.56
825.224	75.28
825.397	79.07
825.569	81.55
825.742	83.72
825.915	87.19
826.087	82.94
826.26	83.18
826.432	87.39
826.605	80.53
826.777	68.81
826.95	67.27
827.122	67.17
827.295	68.05
827.467	69.41
827.64	67.73
827.812	80.24
827.984	77.41
828.157	69.69
828.329	76.87
828.501	86.81
828.674	84.23
828.846	84.07
829.018	93.33
829.19	88.61
829.363	80.92
829.535	67.21
829.707	74.87
829.879	66.64
830.051	60.39
830.223	65.99
830.395	77.78
830.568	74.61
830.74	62.74
830.912	79.79
831.084	66.99
831.256	66.54
831.428	66.74
831.6	84.2
831.772	77.39
831.943	85.87
832.115	75.57
832.287	79.41
832.459	72.14
832.631	65.69
832.803	68.54
832.975	96.07
833.146	84.92
833.318	113.62
833.49	107.53
833.662	81.88
833.833	69.13
834.005	70.53
834.177	72.49
834.348	82.11
834.52	82.6
834.692	80.21
834.863	86.65
835.035	65.04
835.206	68.11
835.378	74.87
835.549	85.22
835.721	78.89
835.892	76.1
836.064	56.4
836.235	52.83
836.407	52.47
836.578	44.97
836.749	51.07
836.921	64.56
837.092	70.22
837.264	78.49
837.435	96.29
837.606	94.71
837.777	84.28
837.949	87.53
838.12	93.45
838.291	78.41
838.462	81.43
838.633	79.98
838.805	93.06
838.976	93.32
839.147	95.27
839.318	117.8
839.489	123.27
839.66	94.7
839.831	67.88
840.002	65.73
840.173	55.18
840.344	49.59
840.515	47.39
840.686	38.37
840.857	46.02
841.028	50.66
841.199	50.04
841.369	62.9
841.54	79
841.711	93.69
841.882	123.68
842.053	102.28
842.223	92.25
842.394	92.3
842.565	81.64
842.736	51.34
842.906	48.63
843.077	67.43
843.248	75.96
843.418	62.72
843.589	80.76
843.759	101.63
843.93	101.61
844.101	76.08
844.271	87.42
844.442	81.72
844.612	75.1
844.783	74.61
844.953	80.84
845.123	78.41
845.294	74.72
845.464	76.87
845.635	69.42
845.805	74.91
845.975	94.85
846.146	91.09
846.316	86.53
846.486	94.42
846.656	92.5
846.827	83.6
846.997	73.7
847.167	80.84
847.337	91.5
847.507	90.31
847.677	87
847.848	80.02
848.018	75.36
848.188	58.71
848.358	76.85
848.528	62.87
848.698	80.09
848.868	85.9
849.038	75.39
849.208	82.04
849.378	87.1
849.548	87.47
849.718	87.9
849.887	89.7
850.057	82.87
850.227	102.78
850.397	76.9
850.567	73.77
850.737	56.46
850.906	31.93
851.076	33.61
851.246	57.07
851.415	79.25
851.585	103.39
851.755	173.87
851.924	170.45
852.094	106.36
852.264	98.02
852.433	96.77
852.603	98.07
852.772	86.51
852.942	112.48
853.111	72.76
853.281	87.09
853.45	59.44
853.62	54.26
853.789	61.25
853.959	81.67
854.128	80.82
854.297	92.64
854.467	84.83
854.636	103.06
854.805	131.27
854.975	101.9
855.144	101.63
855.313	150.51
855.482	94.62
855.652	86.43
855.821	93.95
855.99	89.21
856.159	85.44
856.328	90.49
856.497	92.19
856.667	90.43
856.836	80.72
857.005	89.51
857.174	80.85
857.343	93.69
857.512	95.06
857.681	96.34
857.85	83.94
858.019	102.27
858.188	117.6
858.356	108.79
858.525	178.47
858.694	435.1
858.863	294.42
859.032	240.66
859.201	258.14
859.369	189.09
859.538	101.09
859.707	68.16
859.876	39.48
860.044	43.52
860.213	41.85
860.382	52.58
860.55	53.36
860.719	66.03
860.888	86.2
861.056	78.67
861.225	67.97
861.393	65.5
861.562	43.1
861.73	22.89
861.899	37.49
862.067	46.63
862.236	79.68
862.404	115.77
862.572	137.52
862.741	176.63
862.909	179.78
863.078	147.95
863.246	118.8
863.414	72.31
863.582	47.32
863.751	42.01
863.919	39.63
864.087	35.81
864.255	55.46
864.424	71.71
864.592	99.63
864.76	112.15
864.928	96.15
865.096	113.84
865.264	120.38
865.432	123.79
865.6	125.21
865.768	109.54
865.936	97.03
866.104	93.98
866.272	103.45
866.44	133.96
866.608	96.88
866.776	84.15
866.944	73.61
867.112	80.82
867.28	62.18
867.448	72.63
867.615	81.6
867.783	92.3
867.951	82.01
868.119	64.36
868.286	79.33
868.454	115.72
868.622	147.98
868.789	141.75
868.957	207.12
869.125	178.49
869.292	113.46
869.46	115.15
869.627	117.02
869.795	117.46
869.963	97.62
870.13	116.87
870.298	108.42
870.465	87.45
870.632	77.64
870.8	102.24
870.967	94.91
871.135	82.1
871.302	71.7
871.469	65.09
871.637	66.13
871.804	55.49
871.971	58.67
872.139	87.01
872.306	88.69
872.473	79.63
872.64	95.08
872.807	102.57
872.975	75.93
873.142	124.67
873.309	169.1
873.476	175.41
873.643	175.07
873.81	240.07
873.977	136.56
874.144	89.63
874.311	100.72
874.478	102.91
874.645	91.41
874.812	107.57
874.979	101.49
875.146	111.13
875.313	132.58
875.48	101.83
875.647	110.94
875.813	106.58
875.98	83.11
876.147	90.18
876.314	116.53
876.481	138.1
876.647	255.98
876.814	276.96
876.981	-692.98
877.147	-703.39
877.314	204.91
877.481	153.33
877.647	181.59
877.814	135.73
877.98	132.73
878.147	147.57
878.314	138.36
878.48	111.82
878.647	103.16
878.813	77.59
878.979	62.79
879.146	86.76
879.312	108.56
879.479	138.11
879.645	134.17
879.811	145.8
879.978	140.47
880.144	88.03
880.31	56.49
880.477	42.18
880.643	30.95
880.809	-15.56
880.975	-1.12
881.142	8.88
881.308	-15.92
881.474	79.54
881.64	79.59
881.806	95.55
881.972	115.05
882.138	101.64
882.304	129.74
882.47	160.39
882.636	163.29
882.802	83.16
882.968	56.23
883.134	64.08
883.3	73.61
883.466	70.27
883.632	86.27
883.798	96.56
883.964	114.91
884.129	113.15
884.295	99.78
884.461	101.23
884.627	83.42
884.793	59.96
884.958	53.08
885.124	88.28
885.29	88.18
885.455	134.62
885.621	214.04
885.787	202.3
885.952	153.47
886.118	7.07
886.283	85.92
886.449	148.03
886.614	123.2
886.78	125.42
886.945	272.41
887.111	409.33
887.276	-2500
887.442	-1134.29
887.607	426.72
887.773	166.15
887.938	138.76
888.103	99.48
888.269	109.02
888.434	146.29
888.599	131.03
888.764	169.45
888.93	268.16
889.095	173.07
889.26	153.94
889.425	-4014.29
889.59	-732
889.756	250.35
889.921	1115.38
890.086	100
890.251	106.37
890.416	104.5
890.581	45.23
890.746	42.79
890.911	70.58
891.076	88.49
891.241	39.84
891.406	76.62
891.571	83.3
891.736	96.78
891.901	68.94
892.065	166.27
892.23	49.11
892.395	129.44
892.56	66.74
892.725	-2.49
892.889	28.68
893.054	73.36
893.219	64.59
893.384	86.85
893.548	205.99
893.713	173.28
893.878	248.84
