Data from Ofav_PP_Phys_2AZ2_Reflection_3.txt Node
Date: Tue Aug 03 18:08:01 EDT 2021
User: Adam
Spectrometer: FLMT01687
Trigger mode: 0
Integration Time (sec): 8.750000E-1
Scans to average: 2
Electric dark correction enabled: true
Nonlinearity correction enabled: false
Boxcar width: 2
XAxis mode: Wavelengths
Number of Pixels in Spectrum: 3648
>>>>>Begin Spectral Data<<<<<
179.494	99.1
179.716	116.76
179.937	104.35
180.158	283.46
180.38	652.63
180.601	116.96
180.823	71.52
181.044	81.27
181.265	-17.96
181.486	161.19
181.708	134.95
181.929	135.34
182.15	98.74
182.372	298.73
182.593	35.44
182.814	248.35
183.035	55.32
183.257	-376.47
183.478	185.43
183.699	-26.51
183.92	-39.8
184.141	-92.96
184.363	-35.65
184.584	-157.98
184.805	-45.03
185.026	-29.79
185.247	2.07
185.468	-6.54
185.689	7.91
185.91	26.26
186.132	-0.79
186.353	-2.49
186.574	-46.82
186.795	-31.5
187.016	-34.9
187.237	-11.83
187.458	-20.43
187.679	-6.46
187.9	-11.73
188.121	0.52
188.342	-37.97
188.563	-43.18
188.784	-36.06
189.005	-48.19
189.226	-64.4
189.447	-22.81
189.667	-16.56
189.888	17.82
190.109	60.17
190.33	94.56
190.551	86.24
190.772	136.49
190.993	74.55
191.214	67.21
191.434	32.03
191.655	15.69
191.876	-2.39
192.097	26.01
192.318	26.21
192.538	25.66
192.759	18.2
192.98	27.38
193.201	-7.15
193.421	-3.02
193.642	-10.28
193.863	0.85
194.083	25.18
194.304	21.02
194.525	-2.26
194.745	22.68
194.966	23.43
195.187	4.48
195.407	28.53
195.628	41.25
195.848	21.61
196.069	36.29
196.29	1.7
196.51	-37.71
196.731	-34.07
196.951	-7.34
197.172	10.72
197.392	31.63
197.613	27.47
197.833	33.51
198.054	39.6
198.274	-6.19
198.495	9.66
198.715	29.53
198.936	16.74
199.156	-3.48
199.377	4.21
199.597	-4.14
199.817	3.71
200.038	1.96
200.258	-4.29
200.479	-60.22
200.699	-38.26
200.919	-34.04
201.14	33.83
201.36	44.23
201.58	53.15
201.801	32.63
202.021	15.34
202.241	-21.23
202.461	-1.8
202.682	16.15
202.902	0.33
203.122	14.78
203.342	33.17
203.563	-3.9
203.783	20.32
204.003	37.28
204.223	40.55
204.443	23.27
204.663	23.36
204.884	1.45
205.104	-3.3
205.324	-14.85
205.544	-21.92
205.764	0.38
205.984	-32.69
206.204	-17.48
206.424	-76.01
206.644	-25.86
206.864	-39.84
207.084	26.29
207.304	19.69
207.525	34.22
207.745	65.58
207.964	-2.66
208.184	-14.81
208.404	16.81
208.624	28.2
208.844	13.02
209.064	52.38
209.284	56.44
209.504	35.25
209.724	14.77
209.944	5.03
210.164	-28.27
210.384	-4.02
210.604	-39.92
210.823	-73.36
211.043	9.18
211.263	-1.83
211.483	-9.47
211.703	37.72
211.922	27.9
212.142	27.66
212.362	19.97
212.582	0.9
212.801	-20.82
213.021	-8.34
213.241	-29.98
213.461	28.38
213.68	56.79
213.9	38.1
214.12	27.77
214.339	27.67
214.559	25.67
214.779	22.43
214.998	42.46
215.218	44.96
215.438	45.84
215.657	30.28
215.877	23.43
216.096	7.62
216.316	10.26
216.535	-19.96
216.755	-50.82
216.974	-20.78
217.194	-7.92
217.413	12.48
217.633	34.67
217.852	59.83
218.072	56.48
218.291	54.53
218.511	39.7
218.73	50.05
218.95	34.13
219.169	28.57
219.389	21.05
219.608	22.91
219.827	-3.73
220.047	-13.59
220.266	-6.34
220.485	10.99
220.705	21.35
220.924	15.07
221.143	22.31
221.363	41.66
221.582	34.37
221.801	29.24
222.021	22.64
222.24	17.28
222.459	-27.29
222.678	-14.79
222.897	-30.28
223.117	-100.26
223.336	-300.72
223.555	-131.95
223.774	-115.64
223.993	-60.32
224.213	-11.18
224.432	10.15
224.651	17.76
224.87	28.45
225.089	10.53
225.308	9.58
225.527	-14.93
225.746	-49.75
225.965	-69.5
226.184	-105.44
226.404	-45.44
226.623	-2.42
226.842	12.84
227.061	-13.9
227.28	9.22
227.499	24.57
227.718	11.91
227.936	3.33
228.155	21.77
228.374	24.18
228.593	14.75
228.812	-7.21
229.031	-3.09
229.25	16.45
229.469	-14.48
229.688	-70.89
229.907	-69.16
230.125	-81
230.344	-58.82
230.563	-66.33
230.782	-33.48
231.001	4.09
231.22	9.44
231.438	-1.32
231.657	15.33
231.876	14.16
232.095	5.31
232.313	0.85
232.532	-16.74
232.751	23.07
232.969	25.09
233.188	17.67
233.407	20.6
233.625	44.46
233.844	6.36
234.063	-0.72
234.281	16.73
234.5	-2.1
234.719	-17.58
234.937	23.74
235.156	19.05
235.374	3.03
235.593	23.61
235.811	20.96
236.03	10.47
236.249	17.37
236.467	19.27
236.686	8.43
236.904	12.1
237.123	12.44
237.341	21.5
237.559	27.24
237.778	38.69
237.996	29.7
238.215	25.99
238.433	12.13
238.652	14.7
238.87	19.15
239.088	18.18
239.307	19.36
239.525	18.07
239.743	20.86
239.962	19.74
240.18	26.53
240.398	45.1
240.617	42.22
240.835	25.62
241.053	10.38
241.271	-43.09
241.49	-37.67
241.708	2.7
241.926	13.73
242.144	5.85
242.363	35.67
242.581	32.45
242.799	10.25
243.017	5.91
243.235	39.45
243.453	33.5
243.672	17.62
243.89	34.65
244.108	32.19
244.326	-4.06
244.544	-3.43
244.762	12.82
244.98	4.11
245.198	9.66
245.416	22.83
245.634	12.7
245.852	2.26
246.07	9.8
246.288	-10.66
246.506	8.89
246.724	6.34
246.942	7.24
247.16	-3.57
247.378	-6.55
247.596	-4.52
247.814	10.86
248.032	15.04
248.25	13.96
248.468	16.92
248.685	23.26
248.903	-4.26
249.121	-12.92
249.339	2.47
249.557	22.61
249.775	6.2
249.992	33.99
250.21	33.5
250.428	23.77
250.646	-15.6
250.863	-9.68
251.081	-35.92
251.299	-36.48
251.517	-18.65
251.734	-17.64
251.952	-36.92
252.17	-21.29
252.387	-61.69
252.605	-98.38
252.823	-65.45
253.04	-79.56
253.258	-22.26
253.475	24.1
253.693	26.7
253.911	51.63
254.128	88.89
254.346	81.3
254.563	56.11
254.781	59.4
254.998	44.87
255.216	14.5
255.433	-15.59
255.651	-13.68
255.868	-54.97
256.086	-65.84
256.303	-50.73
256.521	-29.5
256.738	-20.54
256.956	16.26
257.173	23.1
257.39	32.19
257.608	25.73
257.825	3.37
258.043	-40.88
258.26	2.2
258.477	8.98
258.695	16.92
258.912	19
259.129	31.31
259.346	26.76
259.564	23.13
259.781	26.15
259.998	43.14
260.216	27.32
260.433	27.36
260.65	23.14
260.867	24.87
261.084	3.13
261.302	2.12
261.519	-4.06
261.736	14.99
261.953	11.02
262.17	-7.32
262.387	-2.93
262.604	1.26
262.822	-1.28
263.039	-5.92
263.256	14.91
263.473	31.75
263.69	24.85
263.907	21.2
264.124	6.22
264.341	-19.15
264.558	-71.88
264.775	-41.66
264.992	-37.59
265.209	-28.14
265.426	-7.93
265.643	12.47
265.86	17.01
266.077	14.36
266.294	8.13
266.51	13.35
266.727	22.97
266.944	17.96
267.161	22.2
267.378	18.36
267.595	12.61
267.812	-2.79
268.028	-10.72
268.245	-2.05
268.462	27.84
268.679	28.95
268.896	6.1
269.112	18.59
269.329	-11.64
269.546	-72.21
269.763	-40.44
269.979	-15.71
270.196	-2.69
270.413	18.4
270.629	23.31
270.846	28.68
271.063	31.87
271.279	26.21
271.496	20.94
271.712	-1.99
271.929	-28.13
272.146	-3.6
272.362	-6.07
272.579	-28.64
272.795	-24.16
273.012	-0.34
273.228	4.53
273.445	-2.26
273.661	9.39
273.878	26.78
274.094	24.22
274.311	16.13
274.527	8.22
274.744	24.69
274.96	6.21
275.177	-29.19
275.393	-7.79
275.609	-9.77
275.826	-6.3
276.042	8.08
276.259	17.13
276.475	6.76
276.691	20.59
276.908	16.55
277.124	5.02
277.34	8.97
277.557	-7.57
277.773	5.38
277.989	7.51
278.205	14.13
278.422	8.2
278.638	27.03
278.854	20.81
279.07	18.5
279.286	10.17
279.503	26.81
279.719	24.14
279.935	16.38
280.151	16.27
280.367	15.25
280.583	-10.42
280.799	-19.19
281.016	-20.84
281.232	-16.36
281.448	-2.22
281.664	-4.77
281.88	-2.03
282.096	8.17
282.312	-7.33
282.528	-4.01
282.744	0.95
282.96	13.38
283.176	16.56
283.392	21.3
283.608	12.8
283.824	18.39
284.04	14.83
284.256	10.63
284.471	13.86
284.687	26.19
284.903	23.53
285.119	3.04
285.335	-12.53
285.551	-22.39
285.767	-28.57
285.982	-40
286.198	-6.74
286.414	-1.14
286.63	-0.33
286.846	-1.46
287.061	9.72
287.277	6.63
287.493	6.88
287.709	-12.45
287.924	-3.83
288.14	-11.37
288.356	-23.85
288.571	-4.3
288.787	12.83
289.003	7.77
289.218	3.69
289.434	17.29
289.65	12.49
289.865	13.57
290.081	-50.45
290.296	-33.2
290.512	-51.23
290.727	-77.91
290.943	-51.26
291.159	6.75
291.374	5.23
291.59	15.38
291.805	32.29
292.021	41.98
292.236	32.34
292.451	29.74
292.667	31.99
292.882	23.09
293.098	4.49
293.313	2.63
293.529	12.56
293.744	4.98
293.959	13.36
294.175	13.18
294.39	15.93
294.605	21.67
294.821	17.06
295.036	5.35
295.251	-0.43
295.467	16.82
295.682	7.17
295.897	-7.12
296.112	-2.65
296.328	2.55
296.543	0.69
296.758	0
296.973	20.77
297.188	16.41
297.404	15.99
297.619	10.29
297.834	8.2
298.049	-2.94
298.264	17.52
298.479	15.56
298.694	10.64
298.909	12.26
299.125	27.92
299.34	1.85
299.555	3.47
299.77	-18.05
299.985	-3.05
300.2	-7.61
300.415	-2.13
300.63	-12.22
300.845	14.44
301.06	-17.9
301.275	-43.78
301.49	-21.48
301.704	-14.27
301.919	-1.94
302.134	20.58
302.349	22.99
302.564	27.68
302.779	20.55
302.994	18.15
303.209	9.34
303.423	15.8
303.638	4.73
303.853	9.06
304.068	7.61
304.283	23.95
304.497	19.08
304.712	23.08
304.927	28.28
305.142	31.53
305.356	17.76
305.571	3.86
305.786	10.01
306	24.89
306.215	20.68
306.43	19.11
306.644	21.72
306.859	17.12
307.074	10.79
307.288	26.02
307.503	29.92
307.717	32.31
307.932	30.6
308.147	25.87
308.361	7.86
308.576	-5.62
308.79	10.06
309.005	19.35
309.219	9.72
309.434	10.17
309.648	19.31
309.863	-4.68
310.077	-27.23
310.292	-17.34
310.506	-10.68
310.72	6.09
310.935	-3.76
311.149	2.58
311.364	-8.34
311.578	-29.58
311.792	-26.27
312.007	-12.48
312.221	-31.64
312.435	-4.48
312.649	24.92
312.864	-4.68
313.078	-2.89
313.292	0.97
313.507	4.37
313.721	-16.48
313.935	-10.32
314.149	0.69
314.363	-5.62
314.578	-10.91
314.792	5.48
315.006	-4.78
315.22	-11.3
315.434	-2.94
315.648	-41.48
315.862	-17.33
316.077	-6.99
316.291	-0.44
316.505	0.95
316.719	18.2
316.933	12.58
317.147	11.61
317.361	16.49
317.575	6.64
317.789	4.69
318.003	15.49
318.217	7.81
318.431	9.84
318.645	1.24
318.859	10.82
319.073	12.84
319.287	32.4
319.5	54.14
319.714	70.15
319.928	63.1
320.142	63.38
320.356	58.03
320.57	31.99
320.784	22.46
320.997	22.28
321.211	31.73
321.425	24.65
321.639	21.19
321.853	1.36
322.066	-8.32
322.28	-11.52
322.494	-24.82
322.707	-32.96
322.921	-1.24
323.135	-3.27
323.349	-11.87
323.562	11.5
323.776	24.32
323.989	20.17
324.203	32.69
324.417	30.82
324.63	34.45
324.844	35.86
325.057	30.09
325.271	24.63
325.485	37.12
325.698	5.32
325.912	-15.49
326.125	4.08
326.339	-1.95
326.552	-43.94
326.766	-16.46
326.979	-0.65
327.193	-10.61
327.406	-17.42
327.619	19.2
327.833	9
328.046	3.69
328.26	22.17
328.473	15.24
328.686	23.65
328.9	24.68
329.113	27
329.326	19.38
329.54	31.92
329.753	15.44
329.966	37.11
330.179	30.61
330.393	27.69
330.606	39.05
330.819	40.74
331.032	28.22
331.246	24
331.459	35.51
331.672	19.11
331.885	33.54
332.098	22.25
332.311	58.19
332.525	44.64
332.738	39.92
332.951	35.09
333.164	26.78
333.377	16.07
333.59	21.66
333.803	24.45
334.016	14.42
334.229	28.68
334.442	7.72
334.655	-23.76
334.868	-35.56
335.081	-24.97
335.294	-30.81
335.507	6.5
335.72	26.33
335.933	28.01
336.146	23.44
336.359	13.92
336.572	4.93
336.785	9.48
336.997	24.36
337.21	18.56
337.423	37.39
337.636	45.18
337.849	40.54
338.062	26.68
338.274	25.82
338.487	29.99
338.7	18.04
338.913	17.99
339.125	13.93
339.338	8.16
339.551	-3.31
339.763	-2.24
339.976	-2.11
340.189	-0.15
340.402	-1.48
340.614	2.03
340.827	5.58
341.039	10.89
341.252	13.93
341.465	23.58
341.677	24.6
341.89	36.38
342.102	29.53
342.315	31.2
342.527	42.31
342.74	36.35
342.952	34.04
343.165	54.89
343.377	27.66
343.59	15.26
343.802	15.63
344.015	-21.65
344.227	-59.66
344.44	-4.99
344.652	-1.84
344.864	-3.11
345.077	11.62
345.289	13.77
345.502	-41.08
345.714	-83.7
345.926	-55.67
346.139	-49.94
346.351	-49.5
346.563	-13.21
346.775	34.26
346.988	23.18
347.2	28.73
347.412	41.59
347.624	40.52
347.837	27.08
348.049	34.19
348.261	1.91
348.473	-12.33
348.685	-2.36
348.897	0.81
349.11	-13.2
349.322	-0.34
349.534	-8.12
349.746	-18.97
349.958	-33.24
350.17	-27.61
350.382	-19.28
350.594	-6.11
350.806	-11.14
351.018	3.01
351.23	15.89
351.442	21.46
351.654	7.87
351.866	24.66
352.078	21.81
352.29	8.47
352.502	-2.55
352.714	8.5
352.926	1.63
353.138	-11.6
353.35	13.99
353.561	27.8
353.773	31.19
353.985	35.42
354.197	40.99
354.409	28.54
354.621	18.62
354.832	26.31
355.044	18.3
355.256	20.84
355.468	6.99
355.679	19.27
355.891	14.75
356.103	29.48
356.314	25.96
356.526	40.15
356.738	43.55
356.949	41.36
357.161	28.33
357.373	34.06
357.584	19.48
357.796	17.44
358.008	-4.02
358.219	-1.76
358.431	3.52
358.642	-0.73
358.854	-21.8
359.065	3.77
359.277	16.85
359.488	6.34
359.7	15.44
359.911	8.09
360.123	4.69
360.334	-0.99
360.546	5.1
360.757	7.27
360.969	6.79
361.18	10.81
361.391	17.97
361.603	10.3
361.814	6.39
362.025	13.59
362.237	20.61
362.448	15.26
362.659	20.24
362.871	12.35
363.082	4.15
363.293	-9.39
363.504	-5.45
363.716	-2.9
363.927	11.24
364.138	12.38
364.349	15.52
364.56	19.07
364.772	29.04
364.983	13.08
365.194	25.69
365.405	22.33
365.616	10.48
365.827	7.4
366.038	20.52
366.25	9.06
366.461	13.89
366.672	-3.91
366.883	-13.3
367.094	-13.91
367.305	7.82
367.516	-1.15
367.727	15.41
367.938	14.38
368.149	6.99
368.36	-3.94
368.571	12.83
368.781	17.4
368.992	26.18
369.203	34.66
369.414	26.35
369.625	20.7
369.836	25.67
370.047	24.42
370.258	11.2
370.468	12.73
370.679	32.54
370.89	27.55
371.101	27.28
371.312	32.88
371.522	32.8
371.733	21.37
371.944	22.98
372.155	24.68
372.365	16.5
372.576	32.15
372.787	19.05
372.997	18.67
373.208	15.38
373.419	14.35
373.629	3.03
373.84	11.92
374.05	-1.76
374.261	-8.22
374.472	7.28
374.682	10.04
374.893	12.58
375.103	21.18
375.314	35.56
375.524	29.29
375.735	18.59
375.945	17.48
376.156	14.33
376.366	5.41
376.577	12.11
376.787	12.99
376.997	12.37
377.208	21.07
377.418	21.55
377.629	12.35
377.839	8.09
378.049	10.69
378.26	6.83
378.47	6.54
378.68	3.67
378.89	10.34
379.101	6.04
379.311	1
379.521	10.58
379.732	19.1
379.942	20.37
380.152	30.24
380.362	30.12
380.572	27.6
380.783	22.66
380.993	18.27
381.203	7.69
381.413	4.92
381.623	1.09
381.833	-1.15
382.043	6.05
382.253	8.04
382.463	13.12
382.674	11.79
382.884	14.07
383.094	5.77
383.304	8.96
383.514	4.4
383.724	3.69
383.934	11.15
384.144	12.66
384.353	6.74
384.563	6.91
384.773	7.89
384.983	3.97
385.193	2.37
385.403	9.41
385.613	14.22
385.823	12.57
386.033	9.18
386.242	11.87
386.452	9.76
386.662	3.33
386.872	4.03
387.082	1.7
387.291	-2.11
387.501	-1.58
387.711	1.42
387.921	6.87
388.13	11.22
388.34	8.95
388.55	9.79
388.759	10.91
388.969	6.83
389.179	6.19
389.388	9.56
389.598	9.75
389.807	7.1
390.017	6.97
390.227	5.39
390.436	4.79
390.646	2.42
390.855	2.69
391.065	2.63
391.274	4.5
391.484	6.15
391.693	7.09
391.903	7.44
392.112	8.58
392.322	7.57
392.531	5.67
392.74	4.12
392.95	4.83
393.159	3.14
393.369	3.45
393.578	3.25
393.787	5.8
393.997	5.83
394.206	6.73
394.415	6.38
394.625	6.91
394.834	5.86
395.043	6.29
395.252	6.18
395.462	6.29
395.671	5.12
395.88	5.36
396.089	4.38
396.298	4.65
396.508	5
396.717	5.73
396.926	5.41
397.135	4.85
397.344	4.63
397.553	4.51
397.762	4.04
397.971	3.93
398.181	4.86
398.39	4.97
398.599	4.55
398.808	5.15
399.017	4.88
399.226	4.64
399.435	4.24
399.644	4.79
399.853	4.74
400.062	5.11
400.27	4.96
400.479	5.38
400.688	5.25
400.897	5.36
401.106	5.18
401.315	5.6
401.524	5.63
401.733	5.22
401.941	4.91
402.15	5.23
402.359	5.15
402.568	5.03
402.777	5.15
402.985	5.24
403.194	5.02
403.403	4.83
403.612	4.79
403.82	4.82
404.029	4.84
404.238	4.89
404.446	4.81
404.655	4.6
404.864	4.55
405.072	4.57
405.281	4.52
405.489	4.64
405.698	4.78
405.906	4.86
406.115	4.9
406.324	4.93
406.532	4.83
406.741	4.93
406.949	4.87
407.158	4.8
407.366	4.81
407.574	4.65
407.783	4.57
407.991	4.61
408.2	4.44
408.408	4.4
408.617	4.56
408.825	4.6
409.033	4.57
409.242	4.63
409.45	4.46
409.658	4.38
409.867	4.28
410.075	4.31
410.283	4.26
410.491	4.35
410.7	4.37
410.908	4.27
411.116	4.14
411.324	4.19
411.533	4.04
411.741	3.98
411.949	3.94
412.157	4.03
412.365	3.96
412.573	4.05
412.781	4.1
412.99	4.29
413.198	4.14
413.406	4.16
413.614	4.09
413.822	4.18
414.03	4.17
414.238	4.25
414.446	4.33
414.654	4.47
414.862	4.51
415.07	4.35
415.278	4.31
415.486	4.27
415.694	4.25
415.902	4.03
416.109	4.13
416.317	4.23
416.525	4.21
416.733	4.21
416.941	4.28
417.149	4.3
417.357	4.16
417.564	4.22
417.772	4.12
417.98	4.21
418.188	4.19
418.395	4.18
418.603	4.1
418.811	4.17
419.019	4.05
419.226	3.99
419.434	3.98
419.642	3.96
419.849	4
420.057	3.94
420.265	3.9
420.472	4.05
420.68	4.03
420.887	3.95
421.095	3.84
421.302	3.91
421.51	3.68
421.717	3.61
421.925	3.39
422.132	3.48
422.34	3.42
422.547	3.36
422.755	3.27
422.962	3.44
423.17	3.45
423.377	3.53
423.585	3.73
423.792	3.76
423.999	3.65
424.207	3.62
424.414	3.36
424.621	3.16
424.829	3.3
425.036	3.4
425.243	3.37
425.451	3.54
425.658	3.63
425.865	3.62
426.072	3.6
426.28	3.65
426.487	3.68
426.694	3.5
426.901	3.46
427.108	3.6
427.315	3.73
427.523	3.57
427.73	3.67
427.937	3.79
428.144	3.65
428.351	3.61
428.558	3.65
428.765	3.9
428.972	3.75
429.179	3.71
429.386	3.61
429.593	3.78
429.8	3.81
430.007	3.92
430.214	4.13
430.421	4.22
430.628	4.11
430.835	3.97
431.042	3.85
431.249	3.71
431.456	3.72
431.662	3.72
431.869	3.74
432.076	3.73
432.283	3.8
432.49	3.78
432.697	3.86
432.903	3.88
433.11	3.82
433.317	3.73
433.524	3.71
433.73	3.69
433.937	3.7
434.144	3.84
434.35	3.86
434.557	3.96
434.764	3.98
434.97	4.05
435.177	4.12
435.384	4.27
435.59	4.15
435.797	4.08
436.003	3.84
436.21	3.84
436.416	3.83
436.623	3.85
436.829	3.84
437.036	4.09
437.242	3.99
437.449	3.86
437.655	3.92
437.862	3.97
438.068	3.89
438.275	3.92
438.481	3.84
438.687	3.83
438.894	3.97
439.1	4
439.307	3.86
439.513	4.02
439.719	3.97
439.926	3.92
440.132	3.97
440.338	4.19
440.544	4.15
440.751	4.27
440.957	4.18
441.163	4.17
441.369	4.23
441.575	4.22
441.782	4.29
441.988	4.4
442.194	4.39
442.4	4.33
442.606	4.35
442.812	4.34
443.018	4.24
443.224	4.27
443.431	4.22
443.637	4.29
443.843	4.19
444.049	4.24
444.255	4.26
444.461	4.38
444.667	4.41
444.873	4.42
445.079	4.48
445.284	4.46
445.49	4.42
445.696	4.44
445.902	4.45
446.108	4.42
446.314	4.43
446.52	4.56
446.726	4.52
446.931	4.62
447.137	4.63
447.343	4.68
447.549	4.55
447.755	4.61
447.96	4.54
448.166	4.5
448.372	4.52
448.578	4.61
448.783	4.56
448.989	4.58
449.195	4.65
449.4	4.63
449.606	4.56
449.812	4.62
450.017	4.6
450.223	4.59
450.428	4.72
450.634	4.71
450.84	4.74
451.045	4.82
451.251	4.85
451.456	4.72
451.662	4.66
451.867	4.56
452.073	4.52
452.278	4.45
452.483	4.48
452.689	4.5
452.894	4.54
453.1	4.55
453.305	4.58
453.51	4.58
453.716	4.62
453.921	4.75
454.127	4.75
454.332	4.83
454.537	4.8
454.742	4.88
454.948	4.77
455.153	4.8
455.358	4.73
455.563	4.68
455.769	4.64
455.974	4.69
456.179	4.7
456.384	4.68
456.589	4.83
456.795	4.77
457	4.75
457.205	4.73
457.41	4.75
457.615	4.73
457.82	4.82
458.025	4.83
458.23	4.94
458.435	4.93
458.64	4.89
458.845	4.95
459.05	4.99
459.255	4.89
459.46	4.97
459.665	4.96
459.87	4.92
460.075	4.88
460.28	5.09
460.485	5.02
460.69	5.03
460.895	5.13
461.099	5.13
461.304	4.92
461.509	4.98
461.714	5.04
461.919	4.88
462.123	4.86
462.328	4.97
462.533	5.04
462.738	5.1
462.942	5.14
463.147	5.23
463.352	5.08
463.556	5.12
463.761	4.98
463.966	4.96
464.17	4.91
464.375	5.04
464.58	5.01
464.784	5
464.989	5.14
465.193	5.12
465.398	5.16
465.602	5.03
465.807	5.09
466.011	5.04
466.216	5.06
466.42	5.05
466.625	5.21
466.829	5.25
467.034	5.25
467.238	5.29
467.443	5.26
467.647	5.26
467.851	5.32
468.056	5.3
468.26	5.31
468.464	5.28
468.669	5.29
468.873	5.18
469.077	5.23
469.282	5.26
469.486	5.29
469.69	5.18
469.894	5.24
470.099	5.27
470.303	5.23
470.507	5.35
470.711	5.5
470.915	5.53
471.119	5.55
471.324	5.66
471.528	5.57
471.732	5.43
471.936	5.44
472.14	5.36
472.344	5.31
472.548	5.29
472.752	5.29
472.956	5.24
473.16	5.26
473.364	5.29
473.568	5.42
473.772	5.55
473.976	5.68
474.18	5.77
474.384	5.79
474.588	5.75
474.792	5.8
474.995	5.68
475.199	5.66
475.403	5.52
475.607	5.55
475.811	5.45
476.015	5.45
476.218	5.37
476.422	5.43
476.626	5.38
476.83	5.44
477.033	5.49
477.237	5.57
477.441	5.59
477.644	5.59
477.848	5.63
478.052	5.68
478.255	5.65
478.459	5.68
478.663	5.62
478.866	5.6
479.07	5.55
479.273	5.58
479.477	5.47
479.681	5.51
479.884	5.49
480.088	5.48
480.291	5.41
480.495	5.53
480.698	5.52
480.901	5.49
481.105	5.47
481.308	5.47
481.512	5.54
481.715	5.6
481.919	5.63
482.122	5.69
482.325	5.72
482.529	5.65
482.732	5.62
482.935	5.62
483.138	5.51
483.342	5.5
483.545	5.49
483.748	5.46
483.952	5.52
484.155	5.54
484.358	5.53
484.561	5.53
484.764	5.54
484.967	5.48
485.171	5.51
485.374	5.61
485.577	5.55
485.78	5.57
485.983	5.53
486.186	5.55
486.389	5.5
486.592	5.59
486.795	5.55
486.998	5.62
487.201	5.63
487.404	5.63
487.607	5.61
487.81	5.64
488.013	5.54
488.216	5.48
488.419	5.39
488.622	5.42
488.825	5.41
489.028	5.49
489.231	5.54
489.433	5.56
489.636	5.53
489.839	5.52
490.042	5.52
490.245	5.58
490.447	5.58
490.65	5.54
490.853	5.56
491.056	5.55
491.258	5.49
491.461	5.57
491.664	5.55
491.866	5.6
492.069	5.63
492.272	5.63
492.474	5.57
492.677	5.64
492.879	5.58
493.082	5.46
493.285	5.45
493.487	5.48
493.69	5.45
493.892	5.48
494.095	5.53
494.297	5.56
494.5	5.48
494.702	5.41
494.905	5.43
495.107	5.41
495.309	5.37
495.512	5.43
495.714	5.52
495.917	5.42
496.119	5.47
496.321	5.5
496.524	5.46
496.726	5.4
496.928	5.44
497.13	5.49
497.333	5.48
497.535	5.5
497.737	5.56
497.939	5.59
498.142	5.58
498.344	5.58
498.546	5.59
498.748	5.57
498.95	5.57
499.152	5.51
499.355	5.52
499.557	5.45
499.759	5.43
499.961	5.38
500.163	5.43
500.365	5.41
500.567	5.42
500.769	5.46
500.971	5.5
501.173	5.46
501.375	5.46
501.577	5.45
501.779	5.43
501.981	5.46
502.183	5.49
502.385	5.48
502.587	5.51
502.788	5.54
502.99	5.46
503.192	5.47
503.394	5.55
503.596	5.6
503.798	5.56
503.999	5.64
504.201	5.63
504.403	5.56
504.605	5.52
504.806	5.55
505.008	5.54
505.21	5.52
505.411	5.56
505.613	5.6
505.815	5.64
506.016	5.6
506.218	5.64
506.42	5.67
506.621	5.65
506.823	5.61
507.024	5.66
507.226	5.68
507.427	5.69
507.629	5.74
507.83	5.71
508.032	5.67
508.233	5.65
508.435	5.59
508.636	5.57
508.838	5.57
509.039	5.63
509.24	5.63
509.442	5.61
509.643	5.62
509.845	5.64
510.046	5.62
510.247	5.61
510.448	5.59
510.65	5.61
510.851	5.61
511.052	5.56
511.254	5.61
511.455	5.62
511.656	5.51
511.857	5.47
512.058	5.51
512.26	5.49
512.461	5.53
512.662	5.61
512.863	5.65
513.064	5.68
513.265	5.64
513.466	5.64
513.667	5.64
513.868	5.57
514.069	5.59
514.27	5.55
514.471	5.53
514.672	5.57
514.873	5.63
515.074	5.57
515.275	5.6
515.476	5.66
515.677	5.63
515.878	5.62
516.079	5.67
516.28	5.65
516.481	5.59
516.682	5.6
516.882	5.65
517.083	5.61
517.284	5.66
517.485	5.66
517.686	5.63
517.886	5.67
518.087	5.66
518.288	5.63
518.488	5.68
518.689	5.68
518.89	5.66
519.091	5.69
519.291	5.7
519.492	5.68
519.692	5.69
519.893	5.62
520.094	5.64
520.294	5.73
520.495	5.78
520.695	5.82
520.896	5.86
521.096	5.87
521.297	5.8
521.497	5.79
521.698	5.77
521.898	5.72
522.099	5.71
522.299	5.69
522.499	5.65
522.7	5.7
522.9	5.79
523.101	5.71
523.301	5.73
523.501	5.77
523.702	5.76
523.902	5.72
524.102	5.78
524.302	5.83
524.503	5.81
524.703	5.82
524.903	5.85
525.103	5.87
525.304	5.83
525.504	5.81
525.704	5.81
525.904	5.79
526.104	5.8
526.304	5.85
526.504	5.87
526.705	5.91
526.905	5.97
527.105	5.96
527.305	5.93
527.505	5.96
527.705	5.93
527.905	5.91
528.105	5.89
528.305	5.9
528.505	5.88
528.705	5.86
528.905	5.88
529.105	5.89
529.304	5.9
529.504	5.95
529.704	6.02
529.904	6.03
530.104	6.09
530.304	6.11
530.503	6.12
530.703	6.08
530.903	6.15
531.103	6.13
531.303	6.15
531.502	6.18
531.702	6.21
531.902	6.16
532.101	6.2
532.301	6.19
532.501	6.15
532.7	6.16
532.9	6.19
533.1	6.18
533.299	6.23
533.499	6.25
533.698	6.23
533.898	6.18
534.097	6.2
534.297	6.12
534.496	6.1
534.696	6.11
534.895	6.14
535.095	6.14
535.294	6.21
535.494	6.21
535.693	6.24
535.892	6.24
536.092	6.2
536.291	6.21
536.491	6.24
536.69	6.26
536.889	6.29
537.088	6.36
537.288	6.39
537.487	6.37
537.686	6.35
537.886	6.39
538.085	6.39
538.284	6.33
538.483	6.39
538.682	6.43
538.882	6.43
539.081	6.4
539.28	6.51
539.479	6.53
539.678	6.54
539.877	6.53
540.076	6.62
540.275	6.57
540.474	6.51
540.673	6.53
540.872	6.58
541.071	6.59
541.27	6.68
541.469	6.68
541.668	6.62
541.867	6.69
542.066	6.67
542.265	6.67
542.464	6.81
542.663	6.92
542.862	6.9
543.06	6.92
543.259	6.95
543.458	6.91
543.657	6.91
543.856	6.99
544.054	7.01
544.253	7.07
544.452	7.16
544.651	7.15
544.849	7.18
545.048	7.26
545.247	7.26
545.445	7.24
545.644	7.31
545.843	7.25
546.041	7.19
546.24	7.22
546.438	7.26
546.637	7.33
546.836	7.42
547.034	7.5
547.233	7.59
547.431	7.67
547.63	7.71
547.828	7.73
548.027	7.74
548.225	7.77
548.423	7.79
548.622	7.81
548.82	7.84
549.019	7.88
549.217	7.83
549.415	7.91
549.614	7.97
549.812	7.95
550.01	8.08
550.209	8.17
550.407	8.19
550.605	8.18
550.803	8.3
551.002	8.25
551.2	8.31
551.398	8.29
551.596	8.39
551.794	8.43
551.993	8.5
552.191	8.53
552.389	8.57
552.587	8.58
552.785	8.63
552.983	8.68
553.181	8.7
553.379	8.77
553.577	8.87
553.775	8.93
553.973	8.93
554.171	9
554.369	9.1
554.567	9.12
554.765	9.14
554.963	9.23
555.161	9.31
555.359	9.32
555.557	9.33
555.755	9.41
555.952	9.49
556.15	9.49
556.348	9.59
556.546	9.67
556.744	9.68
556.941	9.69
557.139	9.8
557.337	9.83
557.535	9.91
557.732	10.01
557.93	10.07
558.128	10.17
558.325	10.16
558.523	10.18
558.721	10.22
558.918	10.33
559.116	10.31
559.313	10.4
559.511	10.49
559.708	10.56
559.906	10.64
560.104	10.69
560.301	10.77
560.498	10.81
560.696	10.9
560.893	10.93
561.091	11.08
561.288	11.16
561.486	11.24
561.683	11.23
561.88	11.22
562.078	11.19
562.275	11.24
562.473	11.25
562.67	11.23
562.867	11.34
563.064	11.38
563.262	11.48
563.459	11.56
563.656	11.6
563.853	11.61
564.051	11.75
564.248	11.73
564.445	11.78
564.642	11.89
564.839	11.99
565.036	12.02
565.234	11.94
565.431	11.98
565.628	11.98
565.825	11.95
566.022	11.92
566.219	12.12
566.416	12.13
566.613	12.24
566.81	12.37
567.007	12.44
567.204	12.41
567.401	12.36
567.598	12.32
567.795	12.26
567.991	12.28
568.188	12.36
568.385	12.37
568.582	12.47
568.779	12.5
568.976	12.53
569.172	12.53
569.369	12.7
569.566	12.67
569.763	12.6
569.96	12.55
570.156	12.57
570.353	12.58
570.55	12.57
570.746	12.69
570.943	12.7
571.14	12.72
571.336	12.72
571.533	12.76
571.729	12.78
571.926	12.86
572.123	12.78
572.319	12.74
572.516	12.77
572.712	12.79
572.909	12.73
573.105	12.76
573.302	12.8
573.498	12.74
573.695	12.72
573.891	12.71
574.087	12.79
574.284	12.74
574.48	12.81
574.677	12.78
574.873	12.89
575.069	12.87
575.266	12.88
575.462	12.87
575.658	12.85
575.854	12.79
576.051	12.67
576.247	12.74
576.443	12.73
576.639	12.83
576.835	12.74
577.032	12.87
577.228	12.8
577.424	12.76
577.62	12.72
577.816	12.78
578.012	12.75
578.208	12.67
578.404	12.65
578.6	12.6
578.796	12.6
578.993	12.61
579.189	12.7
579.384	12.75
579.58	12.72
579.776	12.64
579.972	12.64
580.168	12.61
580.364	12.5
580.56	12.49
580.756	12.51
580.952	12.47
581.148	12.39
581.343	12.39
581.539	12.34
581.735	12.25
581.931	12.2
582.127	12.26
582.322	12.22
582.518	12.23
582.714	12.25
582.909	12.25
583.105	12.13
583.301	12.1
583.496	12.04
583.692	12.06
583.888	12.01
584.083	11.94
584.279	12.01
584.474	11.94
584.67	11.83
584.866	11.81
585.061	11.9
585.257	11.83
585.452	11.93
585.648	12.09
585.843	12.11
586.039	12.07
586.234	12.02
586.429	11.93
586.625	11.79
586.82	11.72
587.015	11.72
587.211	11.83
587.406	11.85
587.601	11.95
587.797	11.96
587.992	11.88
588.187	11.78
588.383	11.81
588.578	11.77
588.773	11.75
588.968	11.83
589.163	11.91
589.359	11.86
589.554	11.89
589.749	11.91
589.944	11.85
590.139	11.76
590.334	11.79
590.529	11.83
590.724	11.89
590.919	11.96
591.114	12.02
591.309	11.95
591.504	11.93
591.699	11.93
591.894	11.92
592.089	11.97
592.284	12.05
592.479	12.07
592.674	12.11
592.869	12.13
593.064	12.12
593.259	12.11
593.454	12.14
593.648	12.14
593.843	12.21
594.038	12.26
594.233	12.3
594.428	12.32
594.622	12.37
594.817	12.45
595.012	12.51
595.206	12.55
595.401	12.57
595.596	12.59
595.79	12.53
595.985	12.52
596.18	12.65
596.374	12.61
596.569	12.72
596.763	12.81
596.958	12.88
597.153	12.87
597.347	12.96
597.542	12.91
597.736	12.96
597.931	12.97
598.125	13
598.319	13.18
598.514	13.31
598.708	13.33
598.903	13.32
599.097	13.36
599.291	13.21
599.486	13.19
599.68	13.23
599.874	13.33
600.069	13.4
600.263	13.56
600.457	13.64
600.651	13.66
600.846	13.71
601.04	13.63
601.234	13.51
601.428	13.53
601.622	13.59
601.817	13.6
602.011	13.69
602.205	13.8
602.399	13.76
602.593	13.65
602.787	13.64
602.981	13.63
603.175	13.63
603.369	13.63
603.563	13.66
603.757	13.62
603.951	13.55
604.145	13.49
604.339	13.45
604.533	13.44
604.727	13.38
604.921	13.37
605.115	13.36
605.309	13.39
605.502	13.37
605.696	13.4
605.89	13.41
606.084	13.45
606.278	13.45
606.471	13.39
606.665	13.29
606.859	13.21
607.053	13.12
607.246	13.04
607.44	13.04
607.634	13.06
607.827	13.06
608.021	13.01
608.214	12.99
608.408	12.93
608.602	12.91
608.795	12.87
608.989	12.85
609.182	12.83
609.376	12.8
609.569	12.69
609.763	12.61
609.956	12.54
610.15	12.4
610.343	12.34
610.537	12.33
610.73	12.25
610.923	12.27
611.117	12.3
611.31	12.19
611.504	12.14
611.697	12.14
611.89	11.96
612.083	11.82
612.277	11.79
612.47	11.74
612.663	11.71
612.856	11.66
613.05	11.62
613.243	11.57
613.436	11.52
613.629	11.44
613.822	11.47
614.015	11.52
614.209	11.53
614.402	11.5
614.595	11.55
614.788	11.49
614.981	11.41
615.174	11.33
615.367	11.27
615.56	11.07
615.753	11.05
615.946	10.99
616.139	10.94
616.332	10.91
616.525	10.93
616.718	10.86
616.911	10.79
617.103	10.75
617.296	10.72
617.489	10.78
617.682	10.77
617.875	10.68
618.067	10.65
618.26	10.68
618.453	10.58
618.646	10.5
618.838	10.56
619.031	10.46
619.224	10.4
619.417	10.39
619.609	10.43
619.802	10.43
619.994	10.47
620.187	10.47
620.38	10.49
620.572	10.46
620.765	10.36
620.957	10.36
621.15	10.38
621.342	10.31
621.535	10.23
621.727	10.21
621.92	10.16
622.112	10.1
622.305	10.11
622.497	10.18
622.69	10.18
622.882	10.18
623.074	10.18
623.267	10.1
623.459	10.1
623.651	10.13
623.844	10.12
624.036	10.11
624.228	10.17
624.42	10.12
624.613	10.05
624.805	10.08
624.997	10.02
625.189	10.01
625.381	10
625.574	10
625.766	9.95
625.958	9.95
626.15	9.87
626.342	9.9
626.534	9.91
626.726	9.88
626.918	9.88
627.11	9.88
627.302	9.78
627.494	9.73
627.686	9.76
627.878	9.71
628.07	9.7
628.262	9.66
628.454	9.59
628.646	9.56
628.838	9.52
629.029	9.49
629.221	9.5
629.413	9.51
629.605	9.44
629.797	9.39
629.989	9.38
630.18	9.37
630.372	9.29
630.564	9.26
630.755	9.26
630.947	9.23
631.139	9.22
631.33	9.29
631.522	9.22
631.714	9.22
631.905	9.26
632.097	9.24
632.289	9.23
632.48	9.29
632.672	9.25
632.863	9.18
633.055	9.17
633.246	9.09
633.438	9.07
633.629	9.14
633.821	9.13
634.012	9.12
634.203	9.2
634.395	9.19
634.586	9.15
634.777	9.14
634.969	9.1
635.16	9.09
635.351	9.14
635.543	9.09
635.734	9.08
635.925	9.13
636.117	9.05
636.308	8.94
636.499	8.96
636.69	8.98
636.881	8.94
637.073	8.97
637.264	8.96
637.455	9
637.646	8.95
637.837	8.93
638.028	8.97
638.219	9.02
638.41	8.98
638.601	8.94
638.792	8.99
638.983	8.98
639.174	9.02
639.365	8.95
639.556	9.02
639.747	8.94
639.938	8.81
640.129	8.72
640.32	8.75
640.511	8.7
640.701	8.72
640.892	8.79
641.083	8.77
641.274	8.67
641.465	8.68
641.655	8.69
641.846	8.65
642.037	8.66
642.228	8.68
642.418	8.53
642.609	8.48
642.8	8.51
642.99	8.49
643.181	8.5
643.372	8.55
643.562	8.55
643.753	8.47
643.943	8.44
644.134	8.46
644.324	8.48
644.515	8.53
644.705	8.56
644.896	8.56
645.086	8.55
645.277	8.5
645.467	8.5
645.658	8.5
645.848	8.46
646.038	8.44
646.229	8.49
646.419	8.41
646.61	8.39
646.8	8.43
646.99	8.37
647.18	8.34
647.371	8.3
647.561	8.35
647.751	8.39
647.941	8.42
648.132	8.48
648.322	8.48
648.512	8.41
648.702	8.32
648.892	8.24
649.082	8.17
649.272	8.2
649.462	8.17
649.653	8.16
649.843	8.24
650.033	8.19
650.223	8.13
650.413	8.11
650.603	8.15
650.793	8.1
650.983	8.16
651.172	8.16
651.362	8.07
651.552	8
651.742	8.01
651.932	7.93
652.122	8.01
652.312	8.03
652.502	8.03
652.691	7.98
652.881	8.03
653.071	7.96
653.261	7.89
653.45	7.83
653.64	7.74
653.83	7.62
654.019	7.55
654.209	7.51
654.399	7.38
654.588	7.37
654.778	7.29
654.968	7.19
655.157	7.16
655.347	7.19
655.536	7.16
655.726	7.09
655.915	7
656.105	6.96
656.294	6.92
656.484	6.8
656.673	6.84
656.863	6.85
657.052	6.78
657.241	6.76
657.431	6.73
657.62	6.67
657.809	6.5
657.999	6.43
658.188	6.37
658.377	6.36
658.567	6.2
658.756	6.21
658.945	6.22
659.134	6.13
659.324	6.08
659.513	6.06
659.702	6
659.891	5.93
660.08	5.9
660.269	5.85
660.458	5.77
660.648	5.77
660.837	5.71
661.026	5.62
661.215	5.42
661.404	5.46
661.593	5.34
661.782	5.23
661.971	5.13
662.16	5.18
662.349	4.99
662.538	5.04
662.726	5.04
662.915	5.07
663.104	5.01
663.293	5.05
663.482	5
663.671	5.01
663.86	4.99
664.048	4.95
664.237	4.93
664.426	4.83
664.615	4.79
664.803	4.76
664.992	4.8
665.181	4.85
665.369	4.82
665.558	4.82
665.747	4.77
665.935	4.8
666.124	4.76
666.312	4.81
666.501	4.8
666.69	4.81
666.878	4.74
667.067	4.7
667.255	4.66
667.444	4.57
667.632	4.55
667.82	4.51
668.009	4.57
668.197	4.71
668.386	4.81
668.574	4.79
668.762	4.88
668.951	4.88
669.139	4.82
669.327	4.9
669.516	4.86
669.704	4.87
669.892	5
670.08	5
670.269	4.94
670.457	4.98
670.645	4.97
670.833	4.83
671.021	4.85
671.21	4.83
671.398	4.84
671.586	4.9
671.774	4.99
671.962	5.09
672.15	5.23
672.338	5.41
672.526	5.37
672.714	5.33
672.902	5.34
673.09	5.3
673.278	5.23
673.466	5.3
673.654	5.29
673.842	5.36
674.03	5.36
674.218	5.57
674.405	5.65
674.593	5.8
674.781	5.71
674.969	5.77
675.157	5.62
675.344	5.62
675.532	5.53
675.72	5.56
675.908	5.59
676.095	5.68
676.283	5.72
676.471	5.82
676.658	5.91
676.846	5.99
677.033	6.08
677.221	6.14
677.409	6.24
677.596	6.42
677.784	6.41
677.971	6.45
678.159	6.4
678.346	6.3
678.534	6.19
678.721	6.15
678.909	6.16
679.096	6.22
679.283	6.33
679.471	6.46
679.658	6.61
679.846	6.69
680.033	6.7
680.22	6.74
680.408	6.64
680.595	6.56
680.782	6.49
680.969	6.53
681.157	6.56
681.344	6.53
681.531	6.62
681.718	6.81
681.905	6.85
682.093	7.02
682.28	7.2
682.467	7.28
682.654	7.12
682.841	7.19
683.028	7.17
683.215	7.16
683.402	7.27
683.589	7.49
683.776	7.61
683.963	7.65
684.15	7.72
684.337	7.85
684.524	7.94
684.711	7.91
684.898	8.03
685.085	8.07
685.271	8.07
685.458	8.24
685.645	8.44
685.832	8.46
686.019	8.73
686.205	8.83
686.392	8.77
686.579	8.94
686.766	9.05
686.952	9.06
687.139	9.26
687.326	9.44
687.512	9.51
687.699	9.61
687.886	9.72
688.072	9.81
688.259	10.15
688.445	10.41
688.632	10.76
688.818	11.03
689.005	11.14
689.191	11.25
689.378	11.44
689.564	11.52
689.751	11.8
689.937	12.18
690.124	12.2
690.31	12.46
690.496	12.9
690.683	13.12
690.869	13.42
691.055	13.84
691.242	14.01
691.428	14.32
691.614	14.53
691.8	14.95
691.987	15.25
692.173	15.7
692.359	15.91
692.545	16.35
692.731	16.49
692.918	16.79
693.104	17.07
693.29	17.48
693.476	17.88
693.662	18.48
693.848	19.07
694.034	19.62
694.22	20.18
694.406	20.81
694.592	21.22
694.778	21.75
694.964	21.96
695.15	22.41
695.336	22.75
695.522	23
695.708	23.4
695.894	24.09
696.08	24.5
696.265	24.85
696.451	25.59
696.637	26.09
696.823	26.62
697.009	27.18
697.194	27.72
697.38	28.19
697.566	28.8
697.751	29.4
697.937	29.88
698.123	30.44
698.308	30.81
698.494	31.4
698.68	31.56
698.865	32.07
699.051	32.41
699.236	32.9
699.422	33.24
699.607	34.04
699.793	34.47
699.978	34.97
700.164	35.71
700.349	35.94
700.535	36.25
700.72	36.68
700.906	37.47
701.091	37.49
701.276	38.04
701.462	38.28
701.647	38.8
701.832	38.93
702.018	39.69
702.203	40.28
702.388	41.03
702.573	41.62
702.759	41.86
702.944	42.45
703.129	42.8
703.314	43.33
703.499	43.73
703.684	44.53
703.87	44.53
704.055	44.94
704.24	45.2
704.425	45.52
704.61	46.16
704.795	46.83
704.98	47.16
705.165	47.65
705.35	48.08
705.535	48.07
705.72	48.23
705.905	48.7
706.09	48.8
706.275	49.22
706.459	49.5
706.644	49.76
706.829	49.82
707.014	50.21
707.199	50.17
707.384	50.29
707.568	50.64
707.753	50.99
707.938	51.02
708.123	51.37
708.307	52.03
708.492	52.44
708.677	52.58
708.861	52.82
709.046	53.07
709.231	53.43
709.415	53.64
709.6	53.91
709.784	54.49
709.969	54.78
710.153	55.1
710.338	55.72
710.522	56.44
710.707	56.76
710.891	57.02
711.076	56.73
711.26	56.56
711.445	56.28
711.629	56.32
711.813	56.65
711.998	57.05
712.182	57.4
712.366	57.74
712.551	57.7
712.735	57.31
712.919	57.57
713.103	57.57
713.288	57.86
713.472	58.16
713.656	58.49
713.84	58.78
714.024	58.77
714.208	58.67
714.393	59.17
714.577	59.57
714.761	59.59
714.945	60
715.129	60.4
715.313	59.95
715.497	60.35
715.681	60.09
715.865	60.05
716.049	60.29
716.233	60.63
716.417	60.79
716.601	61.56
716.785	62.03
716.968	62.23
717.152	62.58
717.336	62.39
717.52	62.37
717.704	62.45
717.888	62.57
718.071	62.66
718.255	62.6
718.439	62.96
718.622	62.63
718.806	62.38
718.99	62.74
719.174	63.2
719.357	62.89
719.541	63.32
719.724	64.03
719.908	64.07
720.092	64.25
720.275	64.4
720.459	64.49
720.642	64.51
720.826	64.87
721.009	64.77
721.193	65.04
721.376	65.28
721.559	65.36
721.743	64.49
721.926	64.82
722.11	64.76
722.293	64.99
722.476	64.64
722.66	65.24
722.843	65.03
723.026	65.57
723.21	65.71
723.393	66.12
723.576	66.74
723.759	67.01
723.942	66.76
724.126	66.58
724.309	66.87
724.492	66.64
724.675	66.98
724.858	66.95
725.041	66.95
725.224	67.03
725.407	66.95
725.59	66.88
725.774	67.31
725.957	68.08
726.14	68.34
726.322	68.57
726.505	69.12
726.688	69.5
726.871	69.5
727.054	69.31
727.237	69.64
727.42	69.47
727.603	69.71
727.786	69.59
727.968	70.13
728.151	70.29
728.334	70.88
728.517	71.04
728.699	71.51
728.882	71.8
729.065	72.03
729.248	72.4
729.43	72.45
729.613	72.57
729.796	72.42
729.978	72.96
730.161	72.3
730.343	72
730.526	72.17
730.708	72.33
730.891	72.27
731.073	72.98
731.256	73.53
731.438	74
731.621	74.58
731.803	74.22
731.986	74.48
732.168	75.17
732.35	75.33
732.533	75.45
732.715	76.23
732.898	76.43
733.08	75.82
733.262	76.35
733.444	76.23
733.627	76.14
733.809	76.51
733.991	76.69
734.173	76.43
734.355	76.41
734.538	76.79
734.72	76.84
734.902	76.68
735.084	76.39
735.266	76.41
735.448	76.25
735.63	76.96
735.812	77.89
735.994	78.2
736.176	78.95
736.358	78.79
736.54	77.41
736.722	76.93
736.904	77.1
737.086	76.14
737.268	76.89
737.45	77.64
737.632	78.31
737.814	78.36
737.995	79.3
738.177	79.3
738.359	79.86
738.541	79.38
738.723	79.94
738.904	79.66
739.086	79.74
739.268	79.22
739.449	79.6
739.631	79.23
739.813	79.61
739.994	79.83
740.176	79.7
740.358	80.1
740.539	81.2
740.721	81.92
740.902	81.61
741.084	81.56
741.265	82.48
741.447	81.74
741.628	81.72
741.81	82.4
741.991	83.25
742.172	81.88
742.354	81.84
742.535	82.1
742.717	81.18
742.898	80.88
743.079	81.3
743.261	82.27
743.442	82.21
743.623	82.76
743.804	83.03
743.986	83.29
744.167	82.63
744.348	82.76
744.529	81.91
744.71	81.54
744.891	81.67
745.073	82.29
745.254	82.12
745.435	83.45
745.616	84.53
745.797	84.38
745.978	83.67
746.159	83.47
746.34	82.79
746.521	82.05
746.702	81.98
746.883	82.55
747.064	83.13
747.245	83.83
747.426	84.09
747.606	84.46
747.787	83.61
747.968	84.13
748.149	84.45
748.33	84.11
748.51	84.11
748.691	84.89
748.872	84.56
749.053	84.27
749.233	86.25
749.414	86.22
749.595	85.48
749.775	85.77
749.956	85.91
750.137	84.05
750.317	82.43
750.498	82.94
750.678	82
750.859	81.8
751.04	81.86
751.22	83.86
751.4	83.67
751.581	82.96
751.761	82.67
751.942	82.95
752.122	82.12
752.303	81.46
752.483	81.45
752.663	82.04
752.844	83.86
753.024	84.96
753.204	86.62
753.385	88.24
753.565	87.53
753.745	85.38
753.925	84.6
754.106	84.17
754.286	83.35
754.466	84.66
754.646	85.13
754.826	86.22
755.006	84.99
755.187	85.43
755.367	84.1
755.547	84.28
755.727	83.58
755.907	83.87
756.087	82.65
756.267	83.4
756.447	83.48
756.627	83.04
756.807	83.16
756.987	85.22
757.167	86.13
757.346	86.02
757.526	86.36
757.706	85.92
757.886	85.75
758.066	84.8
758.246	85.1
758.425	86.24
758.605	86.91
758.785	86.45
758.965	86.34
759.144	86.58
759.324	85.31
759.504	85.38
759.683	85.76
759.863	84.76
760.043	83.43
760.222	83.6
760.402	82.12
760.581	82.14
760.761	83.01
760.94	83.12
761.12	83.21
761.299	84.46
761.479	82.8
761.658	83.03
761.838	83.44
762.017	83.92
762.197	84.71
762.376	85.75
762.555	85.38
762.735	84.92
762.914	83.56
763.093	82.5
763.273	82.05
763.452	82.65
763.631	83.49
763.81	84.14
763.99	85.91
764.169	86.48
764.348	84.89
764.527	85.34
764.706	84.69
764.885	83.25
765.064	82.47
765.243	83.89
765.423	82.99
765.602	82.78
765.781	83.08
765.96	82.82
766.139	83.19
766.318	83.91
766.497	84.91
766.676	86.51
766.854	86.42
767.033	85.77
767.212	83.58
767.391	83.63
767.57	83.01
767.749	83.73
767.928	83.05
768.106	84.17
768.285	83.03
768.464	82.2
768.643	82.3
768.821	81.44
769	80.4
769.179	81.38
769.357	82.53
769.536	82.81
769.715	82.7
769.893	83.72
770.072	83.52
770.25	81.77
770.429	81
770.607	81.49
770.786	81.62
770.964	81.5
771.143	81.64
771.321	81.26
771.5	81.25
771.678	81.31
771.857	81.58
772.035	81.27
772.213	80.81
772.392	80.82
772.57	79.98
772.748	79.66
772.927	80.87
773.105	80.63
773.283	83.82
773.461	86.1
773.64	85.62
773.818	85.28
773.996	85.85
774.174	81.98
774.352	79.58
774.531	78.1
774.709	77.23
774.887	77.99
775.065	79.88
775.243	81.4
775.421	82.72
775.599	82.73
775.777	82.07
775.955	80.32
776.133	79.71
776.311	78.91
776.489	79.27
776.667	80.16
776.844	80.14
777.022	80.17
777.2	80.44
777.378	78.66
777.556	78.5
777.734	80.09
777.911	81.32
778.089	83.28
778.267	85.55
778.445	85.36
778.622	84.85
778.8	82.44
778.978	78.65
779.155	77.87
779.333	77.63
779.511	76.72
779.688	73.76
779.866	77.97
780.043	78.42
780.221	77.1
780.398	75.6
780.576	77.03
780.753	75.83
780.931	75.08
781.108	74.59
781.286	76.43
781.463	78.26
781.64	76.95
781.818	77.86
781.995	78.66
782.172	79.82
782.35	80.52
782.527	81.72
782.704	80.61
782.882	82.09
783.059	79.92
783.236	79.21
783.413	78.41
783.59	79.37
783.768	80.33
783.945	81.65
784.122	82.74
784.299	83.61
784.476	82.33
784.653	81.95
784.83	81.76
785.007	82.22
785.184	81.34
785.361	81.23
785.538	80.95
785.715	81.74
785.892	80.03
786.069	77.51
786.246	78.37
786.423	76.06
786.6	77.21
786.776	78.76
786.953	83.91
787.13	82.07
787.307	84.74
787.484	85.24
787.66	83.96
787.837	80.37
788.014	85.75
788.191	84.56
788.367	80.31
788.544	81.43
788.721	81.91
788.897	76.89
789.074	72.93
789.25	73
789.427	71.13
789.603	71.56
789.78	75.33
789.956	77.71
790.133	81.04
790.309	82.56
790.486	81.4
790.662	77.89
790.839	80.95
791.015	79.32
791.192	75.63
791.368	77.58
791.544	80.13
791.721	79.59
791.897	75.75
792.073	79.76
792.249	79.6
792.426	77.19
792.602	73.7
792.778	78.38
792.954	76.82
793.13	78.93
793.307	78.46
793.483	78.53
793.659	76.84
793.835	74.26
794.011	72.94
794.187	75
794.363	77.14
794.539	76.44
794.715	80.06
794.891	76.09
795.067	74.95
795.243	75.94
795.419	75.95
795.595	72.37
795.771	75.58
795.947	73.83
796.122	74.73
796.298	76.61
796.474	78.17
796.65	79.82
796.826	82.58
797.001	78.63
797.177	76.01
797.353	74.5
797.529	74.61
797.704	72.69
797.88	76.77
798.056	81.07
798.231	82.5
798.407	77.59
798.582	80.27
798.758	77.33
798.934	70.09
799.109	71.57
799.285	75.35
799.46	74.83
799.636	73.65
799.811	78.1
799.986	77.56
800.162	74.25
800.337	72.55
800.513	77.37
800.688	77.17
800.863	80.65
801.039	78.52
801.214	77.94
801.389	77.65
801.565	80.95
801.74	74.47
801.915	74.43
802.09	72.47
802.265	64.65
802.441	65.9
802.616	70.3
802.791	72.09
802.966	75.24
803.141	83.14
803.316	78.16
803.491	81.33
803.666	86.58
803.841	86.46
804.016	81.69
804.191	81.85
804.366	80.36
804.541	79.32
804.716	75.44
804.891	76.57
805.066	70.82
805.241	73.21
805.416	68.36
805.591	72.14
805.765	72.72
805.94	78.46
806.115	75.83
806.29	75.62
806.464	77.42
806.639	78.93
806.814	76.97
806.989	77.38
807.163	83.02
807.338	79.7
807.512	75.89
807.687	74.53
807.862	72.7
808.036	71.78
808.211	78.3
808.385	81.61
808.56	79.81
808.734	85.18
808.909	81.78
809.083	84.29
809.258	76.52
809.432	77.03
809.606	69.73
809.781	66.87
809.955	55.89
810.13	58.29
810.304	62.98
810.478	68.25
810.652	72.38
810.827	83.4
811.001	87.21
811.175	91.7
811.349	92.67
811.524	86.26
811.698	72.85
811.872	68.05
812.046	64.48
812.22	59.58
812.394	69.67
812.568	75.82
812.742	76.68
812.916	78.93
813.09	76.15
813.264	71.75
813.438	74.06
813.612	78.13
813.786	83.64
813.96	83.15
814.134	92.55
814.308	94.1
814.482	93.52
814.656	89.07
814.83	89.65
815.003	86.34
815.177	81.51
815.351	84.87
815.525	76.36
815.698	83.87
815.872	82.28
816.046	76.32
816.219	72.78
816.393	71.66
816.567	74.84
816.74	70.6
816.914	64.96
817.088	65.02
817.261	67.33
817.435	55.41
817.608	49.8
817.782	64.6
817.955	64.85
818.129	63.45
818.302	71.11
818.475	67.87
818.649	54.7
818.822	57.58
818.996	47.74
819.169	43.72
819.342	51.55
819.516	60.29
819.689	55.49
819.862	70.52
820.035	74.07
820.209	70.63
820.382	63.57
820.555	60.27
820.728	55.02
820.901	54.4
821.075	59.13
821.248	57.57
821.421	69.95
821.594	69.58
821.767	78.48
821.94	72.97
822.113	73.96
822.286	71.26
822.459	67.14
822.632	62.39
822.805	67.54
822.978	74.4
823.151	68.16
823.324	77.73
823.496	83.39
823.669	77.2
823.842	72.61
824.015	79.92
824.188	68.98
824.361	72.8
824.533	69.7
824.706	68.25
824.879	59.43
825.051	59.25
825.224	56.05
825.397	58.65
825.569	56.4
825.742	59.65
825.915	60.77
826.087	60.9
826.26	65.4
826.432	79.28
826.605	88.15
826.777	80.57
826.95	74.78
827.122	68.55
827.295	55.69
827.467	43.96
827.64	44.47
827.812	53.81
827.984	42.12
828.157	45.12
828.329	57.7
828.501	60.24
828.674	51.03
828.846	81.42
829.018	74.21
829.19	58.47
829.363	54.4
829.535	57.3
829.707	43.02
829.879	44.71
830.051	54.07
830.223	61.25
830.395	59.89
830.568	64.01
830.74	55.3
830.912	51.18
831.084	41.21
831.256	41.48
831.428	46.62
831.6	63.49
831.772	66.49
831.943	67.33
832.115	76.02
832.287	64.13
832.459	52.91
832.631	48.38
832.803	54.15
832.975	47.33
833.146	64.28
833.318	102.27
833.49	103.12
833.662	104.49
833.833	89.69
834.005	72.56
834.177	61.58
834.348	55.36
834.52	46.13
834.692	52.66
834.863	85.69
835.035	76.81
835.206	73.14
835.378	84.48
835.549	95.74
835.721	85.45
835.892	80.49
836.064	81.52
836.235	64.38
836.407	61.49
836.578	51.36
836.749	48.24
836.921	39.79
837.092	27.71
837.264	32.35
837.435	26.15
837.606	33.99
837.777	48.47
837.949	54.45
838.12	47.27
838.291	48.71
838.462	58.11
838.633	58.35
838.805	73.16
838.976	74.19
839.147	74.07
839.318	68.97
839.489	70.3
839.66	62.61
839.831	55.57
840.002	52.04
840.173	66.67
840.344	61.15
840.515	50.2
840.686	50.04
840.857	67.92
841.028	61.22
841.199	62.71
841.369	79.44
841.54	85.52
841.711	92.71
841.882	87.59
842.053	79.2
842.223	91.52
842.394	70.65
842.565	62.55
842.736	63.45
842.906	63.97
843.077	58.34
843.248	49.95
843.418	48.63
843.589	41.71
843.759	28.77
843.93	0.96
844.101	25.2
844.271	26.7
844.442	16.76
844.612	14.73
844.783	31.92
844.953	31.38
845.123	15.86
845.294	28.12
845.464	34.29
845.635	29.77
845.805	34.19
845.975	46.85
846.146	55.76
846.316	54.63
846.486	45.86
846.656	59.65
846.827	63.91
846.997	69.15
847.167	67.42
847.337	73.61
847.507	67.82
847.677	65.46
847.848	51.11
848.018	60.94
848.188	46.72
848.358	73.53
848.528	71.39
848.698	78.73
848.868	72.42
849.038	72.88
849.208	69.43
849.378	50.22
849.548	62.86
849.718	72.82
849.887	72.98
850.057	60.86
850.227	98.19
850.397	89.11
850.567	81.01
850.737	71.94
850.906	52.7
851.076	55.64
851.246	25.76
851.415	32.92
851.585	49.79
851.755	89.37
851.924	86.48
852.094	65.61
852.264	74.96
852.433	56.09
852.603	48.86
852.772	41.6
852.942	57.28
853.111	27.24
853.281	38.51
853.45	30.64
853.62	22.74
853.789	32.29
853.959	21.95
854.128	37.39
854.297	45.26
854.467	47.12
854.636	23.77
854.805	23.72
854.975	14.22
855.144	38.15
855.313	37.71
855.482	61.91
855.652	72.97
855.821	60.75
855.99	45.49
856.159	45.73
856.328	34.13
856.497	43.51
856.667	41.03
856.836	50.39
857.005	71.38
857.174	84.2
857.343	80.45
857.512	77.12
857.681	88.4
857.85	74.33
858.019	59.64
858.188	92.42
858.356	93.02
858.525	154.57
858.694	393.38
858.863	294.02
859.032	222.51
859.201	310.96
859.369	193.51
859.538	67.51
859.707	53.55
859.876	14.58
860.044	15.6
860.213	13.85
860.382	33.64
860.55	22.22
860.719	47.15
860.888	51.49
861.056	72.23
861.225	66.38
861.393	67
861.562	60.32
861.73	58.9
861.899	57.21
862.067	66.34
862.236	60.22
862.404	69.34
862.572	57.31
862.741	45.69
862.909	65.31
863.078	92.79
863.246	99.19
863.414	79.53
863.582	52.43
863.751	45.14
863.919	38.28
864.087	3.4
864.255	12.97
864.424	45.08
864.592	36.33
864.76	46.41
864.928	69.32
865.096	94.55
865.264	72.97
865.432	61.09
865.6	57.48
865.768	54.84
865.936	23.73
866.104	27.07
866.272	33.28
866.44	54.68
866.608	47.33
866.776	62.09
866.944	73.74
867.112	75.02
867.28	84.48
867.448	71.11
867.615	62.02
867.783	36.64
867.951	29.63
868.119	-9.22
868.286	18.44
868.454	63.99
868.622	105.12
868.789	93.95
868.957	84.07
869.125	97.87
869.292	54.7
869.46	54.43
869.627	68.9
869.795	76.97
869.963	66.52
870.13	90.61
870.298	96.21
870.465	76.26
870.632	100.13
870.8	129.28
870.967	114.79
871.135	87.16
871.302	90.94
871.469	61.01
871.637	40
871.804	45.39
871.971	61.5
872.139	65.4
872.306	70.07
872.473	78.53
872.64	81.24
872.807	78.9
872.975	66.67
873.142	83.89
873.309	66.91
873.476	33.72
873.643	18.77
873.81	29.32
873.977	14.34
874.144	58.79
874.311	70.38
874.478	77.15
874.645	77.58
874.812	82.41
874.979	54
875.146	90.21
875.313	54.14
875.48	32.91
875.647	36.47
875.813	49.63
875.98	11.85
876.147	32.81
876.314	37.28
876.481	34.47
876.647	-11.48
876.814	31.34
876.981	284.21
877.147	345.76
877.314	-9.06
877.481	33.09
877.647	9.63
877.814	51.65
877.98	68.25
878.147	77.48
878.314	35.29
878.48	74.4
878.647	51.32
878.813	20.17
878.979	26.87
879.146	45.8
879.312	68.45
879.479	104.17
879.645	98.83
879.811	74.42
879.978	117.09
880.144	47.45
880.31	-11.72
880.477	73.21
880.643	88.42
880.809	-13.33
880.975	-128.09
881.142	-17.76
881.308	-94.27
881.474	7.92
881.64	37.85
881.806	80.39
881.972	86.97
882.138	61.19
882.304	-55.38
882.47	56.47
882.636	-184.81
882.802	-124.21
882.968	-27.92
883.134	53.69
883.3	28.3
883.466	33.12
883.632	16.6
883.798	32.84
883.964	36.52
884.129	23.63
884.295	41.92
884.461	64.96
884.627	50.57
884.793	34.67
884.958	47.14
885.124	42.49
885.29	36.67
885.455	53.77
885.621	97.02
885.787	167.74
885.952	273.27
886.118	169.7
886.283	102.35
886.449	101.31
886.614	50.16
886.78	25.42
886.945	68.97
887.111	333.33
887.276	-1088.89
887.442	-377.14
887.607	145.04
887.773	91.99
887.938	54.11
888.103	65.37
888.269	60.55
888.434	110.11
888.599	61.68
888.764	67.52
888.93	24.88
889.095	16.72
889.26	4.58
889.425	142.86
889.59	312
889.756	185.82
889.921	1569.23
890.086	-14.08
890.251	80.25
890.416	104.18
890.581	-63.9
890.746	1.96
890.911	35.82
891.076	68.49
891.241	44.48
891.406	81.39
891.571	54.81
891.736	71.63
891.901	38.99
892.065	46.57
892.23	-108.88
892.395	17.32
892.56	25.82
892.725	2.77
892.889	16.02
893.054	90.43
893.219	105.03
893.384	130.8
893.548	162.78
893.713	165.52
893.878	176.74
