Data from Ofav_PP_Phys_2Z21_Reflection_3.txt Node
Date: Tue Aug 03 18:12:50 EDT 2021
User: Adam
Spectrometer: FLMT01687
Trigger mode: 0
Integration Time (sec): 8.750000E-1
Scans to average: 2
Electric dark correction enabled: true
Nonlinearity correction enabled: false
Boxcar width: 2
XAxis mode: Wavelengths
Number of Pixels in Spectrum: 3648
>>>>>Begin Spectral Data<<<<<
179.494	170.12
179.716	195.76
179.937	260.94
180.158	368.64
180.38	853.51
180.601	62.09
180.823	25.28
181.044	37.51
181.265	13.27
181.486	65.42
181.708	124.57
181.929	111.15
182.15	87.8
182.372	194.73
182.593	207.81
182.814	446.34
183.035	-153.55
183.257	-142.16
183.478	192.16
183.699	-21.49
183.92	-30.76
184.141	-37.48
184.363	41.14
184.584	-65.3
184.805	-3.81
185.026	-22.4
185.247	-11.33
185.468	-21.67
185.689	-31.6
185.91	-31.04
186.132	9.86
186.353	23.26
186.574	6.57
186.795	30.34
187.016	28.56
187.237	26.98
187.458	28.52
187.679	26.09
187.9	18.56
188.121	24.39
188.342	6.52
188.563	-0.41
188.784	1.2
189.005	-17.29
189.226	-38.56
189.447	-12.75
189.667	-8.39
189.888	-1.65
190.109	28.75
190.33	34.18
190.551	28.88
190.772	-6.15
190.993	-20.66
191.214	-4.21
191.434	-11.23
191.655	-25.65
191.876	-7.6
192.097	23.46
192.318	25.85
192.538	30.45
192.759	32.86
192.98	37.43
193.201	26.63
193.421	14.36
193.642	13.29
193.863	12.54
194.083	26.33
194.304	10.81
194.525	-0.35
194.745	2.97
194.966	15.31
195.187	24.99
195.407	41.19
195.628	43.98
195.848	74.48
196.069	79.07
196.29	71.68
196.51	71.65
196.731	88.27
196.951	35.93
197.172	37.54
197.392	37.29
197.613	39.49
197.833	13.29
198.054	49.14
198.274	32.82
198.495	35.75
198.715	39.88
198.936	67.29
199.156	61.56
199.377	71.6
199.597	68.23
199.817	78.7
200.038	52.05
200.258	49.4
200.479	-14.59
200.699	-21.27
200.919	-83.65
201.14	-4.34
201.36	6.68
201.58	41.03
201.801	16.33
202.021	35.66
202.241	16.27
202.461	17.61
202.682	27.57
202.902	57.22
203.122	45.02
203.342	51.44
203.563	-15.95
203.783	-29.58
204.003	-0.61
204.223	10.89
204.443	7.64
204.663	26.71
204.884	25.41
205.104	13.5
205.324	10.5
205.544	9.43
205.764	30.74
205.984	7.25
206.204	-22.07
206.424	-92.19
206.644	-19.61
206.864	-39
207.084	4.29
207.304	23.67
207.525	73.83
207.745	69.28
207.964	57.69
208.184	52.77
208.404	59.6
208.624	34.91
208.844	34.81
209.064	51.18
209.284	53.34
209.504	20.36
209.724	27.58
209.944	11.15
210.164	5.26
210.384	7.73
210.604	20.37
210.823	35.59
211.043	57.01
211.263	54.88
211.483	61.7
211.703	81.03
211.922	53.11
212.142	40.93
212.362	30.25
212.582	22.74
212.801	-6.45
213.021	20.25
213.241	8.32
213.461	41.36
213.68	54.82
213.9	47.13
214.12	28.86
214.339	55.35
214.559	58.73
214.779	45.49
214.998	58.89
215.218	66.99
215.438	50.36
215.657	38.74
215.877	37.32
216.096	27.1
216.316	18.95
216.535	12.99
216.755	13.46
216.974	29.17
217.194	45.81
217.413	72.89
217.633	79.07
217.852	79.41
218.072	78.41
218.291	68.72
218.511	32.68
218.73	59.11
218.95	45.27
219.169	48.15
219.389	48.21
219.608	58.34
219.827	-0.23
220.047	-6.18
220.266	18.14
220.485	27.08
220.705	28.81
220.924	49.76
221.143	53.17
221.363	41.22
221.582	52.07
221.801	28.88
222.021	10.94
222.24	22.38
222.459	7.93
222.678	1.16
222.897	49.5
223.117	66.02
223.336	11.63
223.555	83.89
223.774	113.52
223.993	25.56
224.213	34.36
224.432	53.25
224.651	28.39
224.87	35.74
225.089	17.35
225.308	-1.18
225.527	-16.38
225.746	-33.8
225.965	-44.33
226.184	-94.51
226.404	-21.1
226.623	-5.63
226.842	5.89
227.061	-36.9
227.28	1.31
227.499	-2.4
227.718	-14.2
227.936	-20.38
228.155	6.63
228.374	6.58
228.593	15.33
228.812	-8.73
229.031	-4.61
229.25	23.14
229.469	28.6
229.688	-10.08
229.907	-44.18
230.125	6.91
230.344	-23.06
230.563	-34.15
230.782	-12.79
231.001	46.9
231.22	24.4
231.438	24.61
231.657	12.24
231.876	12.23
232.095	-1.41
232.313	-10.59
232.532	-19.46
232.751	19.79
232.969	31.78
233.188	45.39
233.407	43.23
233.625	54.18
233.844	36.07
234.063	15.94
234.281	-8.22
234.5	-3.94
234.719	-6.27
234.937	-10.62
235.156	-6.95
235.374	11.07
235.593	37.8
235.811	17.77
236.03	45.69
236.249	68.42
236.467	47.48
236.686	37.86
236.904	31.91
237.123	22.04
237.341	21.86
237.559	32
237.778	34.78
237.996	20.78
238.215	8.38
238.433	1.47
238.652	11.18
238.87	11.22
239.088	34.25
239.307	34.99
239.525	20.09
239.743	17.8
239.962	8.67
240.18	2.94
240.398	25.31
240.617	53.57
240.835	26
241.053	24.03
241.271	-15.41
241.49	-23.25
241.708	-8.07
241.926	17.25
242.144	21.94
242.363	54.21
242.581	51.59
242.799	35.98
243.017	27.13
243.235	39.28
243.453	40.78
243.672	59.78
243.89	67.38
244.108	66.53
244.326	51.39
244.544	25.62
244.762	16.5
244.98	4.64
245.198	15.61
245.416	38.55
245.634	48.67
245.852	36.85
246.07	30.69
246.288	26.67
246.506	35.34
246.724	25.39
246.942	34.04
247.16	34.63
247.378	19.05
247.596	16.05
247.814	25.82
248.032	31.48
248.25	17.56
248.468	18.92
248.685	15.7
248.903	-16.82
249.121	-17.62
249.339	4.97
249.557	20.4
249.775	12.88
249.992	48.74
250.21	30.95
250.428	21.5
250.646	17.48
250.863	28.03
251.081	3.96
251.299	-8.77
251.517	21.24
251.734	16.17
251.952	11.65
252.17	3.62
252.387	5.53
252.605	-11.6
252.823	-18.66
253.04	-60.18
253.258	-0.3
253.475	31.54
253.693	15.51
253.911	30.18
254.128	50.09
254.346	37.65
254.563	35.33
254.781	47.58
254.998	41.03
255.216	32.65
255.433	45.33
255.651	38.57
255.868	-6.69
256.086	-20.1
256.303	-13.51
256.521	-3.13
256.738	-10.76
256.956	41.66
257.173	40.5
257.39	46.86
257.608	37.68
257.825	18.7
258.043	-50.8
258.26	1.24
258.477	9
258.695	5.35
258.912	5.35
259.129	28.72
259.346	38.13
259.564	38.5
259.781	63.68
259.998	61.76
260.216	60.38
260.433	39.6
260.65	28.72
260.867	0.02
261.084	4.26
261.302	2.94
261.519	13.1
261.736	33.38
261.953	37.88
262.17	20.77
262.387	17.58
262.604	10.24
262.822	1.48
263.039	-7.12
263.256	6.83
263.473	12.95
263.69	39.55
263.907	17.04
264.124	6.45
264.341	-23.74
264.558	-57.54
264.775	-67.25
264.992	-37.58
265.209	-24.06
265.426	-9.08
265.643	4.69
265.86	6.86
266.077	26.76
266.294	15.01
266.51	22.07
266.727	27.84
266.944	29.35
267.161	27.94
267.378	34.76
267.595	17.44
267.812	23.02
268.028	10.9
268.245	4.28
268.462	21.38
268.679	42.86
268.896	45.44
269.112	42.92
269.329	34.12
269.546	-7.91
269.763	-1.08
269.979	-11.46
270.196	1.17
270.413	14.13
270.629	19.17
270.846	24.22
271.063	22.75
271.279	44.65
271.496	53.26
271.712	33.08
271.929	11.66
272.146	34.37
272.362	24.12
272.579	2.91
272.795	18.36
273.012	33.2
273.228	20.94
273.445	10.19
273.661	25.8
273.878	20.62
274.094	26.36
274.311	30.14
274.527	21.72
274.744	21.05
274.96	24.85
275.177	-8.6
275.393	8.65
275.609	-2.59
275.826	3.71
276.042	21.77
276.259	28.75
276.475	-12.87
276.691	0.02
276.908	-5.03
277.124	-15.95
277.34	-21.51
277.557	-13.87
277.773	0.83
277.989	8.55
278.205	29.62
278.422	35.62
278.638	32.58
278.854	38.62
279.07	36.82
279.286	22.8
279.503	38.44
279.719	45.85
279.935	42.01
280.151	43.4
280.367	31.64
280.583	6.36
280.799	19.21
281.016	26.45
281.232	18.61
281.448	12.38
281.664	4.79
281.88	16.52
282.096	17.68
282.312	6.09
282.528	6.24
282.744	13.22
282.96	8.58
283.176	6.68
283.392	1.93
283.608	17.13
283.824	2.31
284.04	-0.6
284.256	-5.77
284.471	17.75
284.687	6.89
284.903	23.15
285.119	9.62
285.335	20.54
285.551	13.8
285.767	25.04
285.982	20.74
286.198	38.74
286.414	26.56
286.63	6.21
286.846	-2.57
287.061	-6.03
287.277	-20.98
287.493	-10.3
287.709	-20.45
287.924	12.03
288.14	-0.39
288.356	-9.77
288.571	2.07
288.787	21.02
289.003	9.23
289.218	15.76
289.434	39.21
289.65	31.66
289.865	18.47
290.081	-2.47
290.296	1.58
290.512	-7.79
290.727	1.38
290.943	16.22
291.159	26.52
291.374	32.45
291.59	45.56
291.805	41.71
292.021	46.7
292.236	35.51
292.451	33.97
292.667	23.17
292.882	17.15
293.098	8.16
293.313	16.84
293.529	28.44
293.744	20.9
293.959	31.12
294.175	44.72
294.39	55.46
294.605	44.49
294.821	45.21
295.036	50.4
295.251	42.36
295.467	29.09
295.682	35.89
295.897	21.57
296.112	22.71
296.328	19.97
296.543	29.94
296.758	27.58
296.973	41.25
297.188	34.15
297.404	43.58
297.619	44.33
297.834	34.83
298.049	14.22
298.264	33.64
298.479	2.71
298.694	-4.87
298.909	6.79
299.125	23.23
299.34	-6.84
299.555	15.8
299.77	-2.92
299.985	10.6
300.2	31.26
300.415	46.14
300.63	13.67
300.845	41.74
301.06	10.66
301.275	-29.36
301.49	-14.58
301.704	19.78
301.919	34.29
302.134	41.8
302.349	51.49
302.564	58.83
302.779	41.24
302.994	21.14
303.209	16.6
303.423	6.93
303.638	-3.19
303.853	15.16
304.068	33.43
304.283	46.58
304.497	41.6
304.712	53.11
304.927	48.96
305.142	40.23
305.356	27.33
305.571	23.57
305.786	33.86
306	29.17
306.215	13.46
306.43	22.76
306.644	13.74
306.859	-14.1
307.074	-16.17
307.288	16.58
307.503	23.49
307.717	21.35
307.932	12.19
308.147	21.46
308.361	-6.53
308.576	-24.24
308.79	6.95
309.005	22.16
309.219	17.28
309.434	14.47
309.648	15.8
309.863	2.25
310.077	9.95
310.292	11.92
310.506	14.49
310.72	36.72
310.935	31.78
311.149	34.03
311.364	9.55
311.578	-2.77
311.792	-3.7
312.007	-24.15
312.221	-23.94
312.435	-6.83
312.649	23.31
312.864	-34.37
313.078	-12.12
313.292	-22.16
313.507	-2.3
313.721	-14.14
313.935	14.54
314.149	11.68
314.363	12.47
314.578	-12.63
314.792	-4.41
315.006	-14.75
315.22	-9.28
315.434	-10.37
315.648	-35.83
315.862	-5.54
316.077	23.41
316.291	29.36
316.505	20.6
316.719	26.42
316.933	24.31
317.147	-7.37
317.361	-2.34
317.575	10.15
317.789	19.25
318.003	24.99
318.217	40.46
318.431	33.19
318.645	25.86
318.859	30.23
319.073	-4.26
319.287	10.46
319.5	28.45
319.714	52.43
319.928	56.2
320.142	74.23
320.356	64.97
320.57	43.98
320.784	31.84
320.997	3.25
321.211	3.42
321.425	13.54
321.639	15.35
321.853	-14.14
322.066	3.39
322.28	11.54
322.494	-25.93
322.707	-37.15
322.921	-11.77
323.135	-3.83
323.349	0.43
323.562	31.41
323.776	39.35
323.989	31.68
324.203	32.07
324.417	24.67
324.63	31.81
324.844	35.59
325.057	37.34
325.271	24.49
325.485	26.22
325.698	-10.83
325.912	-26.41
326.125	-8.14
326.339	-7.33
326.552	-17.42
326.766	4.32
326.979	5.03
327.193	5.32
327.406	27.64
327.619	43.21
327.833	24.99
328.046	39.2
328.26	41.51
328.473	18.56
328.686	24.15
328.9	28.34
329.113	24.81
329.326	36.64
329.54	47.17
329.753	53.97
329.966	61.76
330.179	66.48
330.393	56.43
330.606	52.59
330.819	43.21
331.032	44.42
331.246	31.84
331.459	14
331.672	-8.29
331.885	1.98
332.098	-4.53
332.311	18.49
332.525	39.73
332.738	41.63
332.951	34.45
333.164	29.15
333.377	26.63
333.59	-0.6
333.803	-11.89
334.016	-14.24
334.229	-4.02
334.442	-42.66
334.655	-9.12
334.868	3.06
335.081	1.42
335.294	-10.91
335.507	19.5
335.72	15.88
335.933	9.25
336.146	4.33
336.359	-4.08
336.572	-6.29
336.785	3.48
336.997	31.08
337.21	33.18
337.423	59.96
337.636	63.38
337.849	50.9
338.062	36.91
338.274	27.36
338.487	39.08
338.7	36.35
338.913	44.22
339.125	44.59
339.338	44.5
339.551	17.9
339.763	0.49
339.976	-3.61
340.189	-2.13
340.402	-0.73
340.614	6.79
340.827	24.22
341.039	28.6
341.252	35.84
341.465	39.01
341.677	37.07
341.89	38.73
342.102	31.56
342.315	21.84
342.527	26.05
342.74	34.01
342.952	32.18
343.165	46.86
343.377	38.7
343.59	43.28
343.802	40.22
344.015	9.86
344.227	-5.23
344.44	22.26
344.652	22.13
344.864	10.08
345.077	16.12
345.289	5.15
345.502	-28.51
345.714	-47.55
345.926	-18.61
346.139	-4.59
346.351	1.57
346.563	7.67
346.775	9.2
346.988	-15.77
347.2	-3.02
347.412	9.69
347.624	9.46
347.837	14.82
348.049	28.19
348.261	7.67
348.473	-14.99
348.685	-7.26
348.897	9.07
349.11	-3.83
349.322	-6.21
349.534	4.16
349.746	3.69
349.958	-14.26
350.17	-12.93
350.382	-0.66
350.594	-11.09
350.806	-7.12
351.018	1.08
351.23	-5.09
351.442	-7.38
351.654	-5.69
351.866	-5.88
352.078	-12.03
352.29	0.53
352.502	16.24
352.714	15.12
352.926	6.52
353.138	-1.33
353.35	-3.49
353.561	6.33
353.773	8.45
353.985	12.25
354.197	15.61
354.409	34.72
354.621	23.28
354.832	34.96
355.044	45.06
355.256	52.38
355.468	27.52
355.679	25.57
355.891	18.87
356.103	20.26
356.314	19.22
356.526	22.4
356.738	26.83
356.949	28.14
357.161	18.17
357.373	22.13
357.584	31.83
357.796	35.05
358.008	19.35
358.219	21.12
358.431	22.88
358.642	19.24
358.854	10.7
359.065	23.97
359.277	41.41
359.488	26.37
359.7	42.64
359.911	37.54
360.123	47.38
360.334	17.74
360.546	28.9
360.757	7.48
360.969	11.7
361.18	4.73
361.391	20.47
361.603	25.27
361.814	16.58
362.025	25.71
362.237	30.66
362.448	24.34
362.659	3.96
362.871	6.65
363.082	-7.12
363.293	-12.87
363.504	-16.32
363.716	17.87
363.927	19.29
364.138	20.5
364.349	18.61
364.56	30.15
364.772	28.17
364.983	28.37
365.194	25.7
365.405	30.24
365.616	16.25
365.827	11.11
366.038	17.27
366.25	17.72
366.461	18.96
366.672	15.19
366.883	8.29
367.094	-0.15
367.305	4.81
367.516	2.06
367.727	7.37
367.938	17.58
368.149	23.33
368.36	27.48
368.571	28.74
368.781	36.19
368.992	31.84
369.203	21.42
369.414	20.75
369.625	15.47
369.836	24.86
370.047	10.9
370.258	16.59
370.468	22.03
370.679	41.77
370.89	47.8
371.101	56.8
371.312	57.15
371.522	48.8
371.733	47.82
371.944	36.84
372.155	41.87
372.365	39.43
372.576	51.67
372.787	37.88
372.997	41.12
373.208	35.98
373.419	20.27
373.629	12.52
373.84	14.23
374.05	1.37
374.261	0.65
374.472	20.34
374.682	16.5
374.893	7.67
375.103	-11.75
375.314	-0.48
375.524	-1.29
375.735	8.67
375.945	16
376.156	37.25
376.366	26.65
376.577	20.27
376.787	21.98
376.997	23.18
377.208	15.57
377.418	14.86
377.629	20.55
377.839	6.3
378.049	9.64
378.26	2.2
378.47	5.84
378.68	4.83
378.89	11.99
379.101	11.45
379.311	18.95
379.521	21.85
379.732	23.26
379.942	27.67
380.152	31.05
380.362	27.54
380.572	30.92
380.783	31.13
380.993	22.86
381.203	22.15
381.413	14.26
381.623	13.14
381.833	6.71
382.043	20.4
382.253	16.42
382.463	20.05
382.674	15.84
382.884	19.45
383.094	15.63
383.304	19.12
383.514	13.61
383.724	4.31
383.934	9.54
384.144	7.44
384.353	1.41
384.563	2.22
384.773	6.21
384.983	1.75
385.193	1.65
385.403	6.66
385.613	12.9
385.823	14.39
386.033	12.03
386.242	13.18
386.452	15.61
386.662	13.77
386.872	9.76
387.082	9.04
387.291	6.65
387.501	0.95
387.711	2.67
387.921	6.25
388.13	7.6
388.34	5.61
388.55	10.95
388.759	10.05
388.969	7.62
389.179	7.17
389.388	8.86
389.598	6.42
389.807	5.62
390.017	9.88
390.227	11.7
390.436	12.07
390.646	9.22
390.855	8.85
391.065	5.66
391.274	5.29
391.484	6.83
391.693	7.54
391.903	8.24
392.112	9.21
392.322	8.51
392.531	5.71
392.74	5.55
392.95	7.2
393.159	7.09
393.369	6.88
393.578	7.72
393.787	8.17
393.997	7.46
394.206	8.11
394.415	8.46
394.625	8.2
394.834	8.84
395.043	8.26
395.252	7.59
395.462	7.42
395.671	6.11
395.88	5.83
396.089	5.39
396.298	5.6
396.508	5.51
396.717	6.81
396.926	6.67
397.135	6.37
397.344	5.82
397.553	5.33
397.762	5
397.971	4.6
398.181	5.2
398.39	5.8
398.599	5.92
398.808	5.83
399.017	5.72
399.226	5.36
399.435	5.04
399.644	5.13
399.853	5.17
400.062	5.32
400.27	5.4
400.479	5.46
400.688	5.32
400.897	5.41
401.106	5.44
401.315	5.61
401.524	5.7
401.733	5.56
401.941	5.47
402.15	5.65
402.359	5.62
402.568	5.31
402.777	5.34
402.985	5.43
403.194	5.21
403.403	5.06
403.612	5.21
403.82	5.52
404.029	5.42
404.238	5.73
404.446	5.74
404.655	5.75
404.864	5.65
405.072	5.64
405.281	5.34
405.489	5.46
405.698	5.42
405.906	5.4
406.115	5.49
406.324	5.53
406.532	5.38
406.741	5.25
406.949	5.15
407.158	5.16
407.366	5.1
407.574	5.02
407.783	5.11
407.991	5.15
408.2	4.93
408.408	4.94
408.617	5.1
408.825	5.2
409.033	5.2
409.242	5.26
409.45	5.21
409.658	5.15
409.867	5
410.075	4.95
410.283	4.95
410.491	5.07
410.7	5.14
410.908	5.14
411.116	4.96
411.324	5.01
411.533	4.89
411.741	4.73
411.949	4.66
412.157	4.83
412.365	4.86
412.573	4.9
412.781	4.94
412.99	5.08
413.198	4.99
413.406	4.84
413.614	4.8
413.822	4.82
414.03	4.79
414.238	4.9
414.446	4.94
414.654	4.93
414.862	4.97
415.07	4.86
415.278	4.79
415.486	4.82
415.694	4.99
415.902	4.98
416.109	5.02
416.317	5.03
416.525	5.02
416.733	4.96
416.941	4.98
417.149	4.98
417.357	4.99
417.564	4.95
417.772	4.83
417.98	4.83
418.188	4.79
418.395	4.75
418.603	4.79
418.811	4.85
419.019	4.66
419.226	4.6
419.434	4.48
419.642	4.51
419.849	4.48
420.057	4.44
420.265	4.45
420.472	4.63
420.68	4.54
420.887	4.6
421.095	4.5
421.302	4.73
421.51	4.46
421.717	4.28
421.925	4.11
422.132	4.21
422.34	4.04
422.547	4.1
422.755	4.24
422.962	4.34
423.17	4.39
423.377	4.42
423.585	4.44
423.792	4.35
423.999	4.32
424.207	4.36
424.414	4.17
424.621	4.15
424.829	4.22
425.036	4.19
425.243	4.22
425.451	4.29
425.658	4.35
425.865	4.28
426.072	4.33
426.28	4.12
426.487	4.16
426.694	4.18
426.901	4.28
427.108	4.35
427.315	4.69
427.523	4.5
427.73	4.48
427.937	4.47
428.144	4.42
428.351	4.3
428.558	4.43
428.765	4.46
428.972	4.51
429.179	4.26
429.386	4.06
429.593	4.06
429.8	4.28
430.007	4.23
430.214	4.44
430.421	4.64
430.628	4.71
430.835	4.74
431.042	4.61
431.249	4.52
431.456	4.48
431.662	4.49
431.869	4.4
432.076	4.52
432.283	4.57
432.49	4.48
432.697	4.55
432.903	4.58
433.11	4.59
433.317	4.48
433.524	4.49
433.73	4.6
433.937	4.45
434.144	4.48
434.35	4.56
434.557	4.68
434.764	4.55
434.97	4.81
435.177	4.86
435.384	5.08
435.59	5.06
435.797	4.99
436.003	4.81
436.21	4.83
436.416	4.78
436.623	4.65
436.829	4.68
437.036	4.72
437.242	4.74
437.449	4.64
437.655	4.85
437.862	4.9
438.068	4.88
438.275	4.77
438.481	4.67
438.687	4.73
438.894	4.72
439.1	4.8
439.307	4.7
439.513	4.71
439.719	4.55
439.926	4.56
440.132	4.65
440.338	4.82
440.544	4.94
440.751	5.11
440.957	5.1
441.163	5.03
441.369	5.06
441.575	5.1
441.782	5.09
441.988	5.28
442.194	5.28
442.4	5.23
442.606	5.22
442.812	5.21
443.018	4.95
443.224	4.93
443.431	4.94
443.637	5.04
443.843	5.08
444.049	5.24
444.255	5.44
444.461	5.52
444.667	5.53
444.873	5.38
445.079	5.37
445.284	5.27
445.49	5.35
445.696	5.4
445.902	5.45
446.108	5.59
446.314	5.57
446.52	5.63
446.726	5.6
446.931	5.66
447.137	5.5
447.343	5.57
447.549	5.48
447.755	5.45
447.96	5.44
448.166	5.49
448.372	5.38
448.578	5.4
448.783	5.45
448.989	5.48
449.195	5.43
449.4	5.54
449.606	5.49
449.812	5.39
450.017	5.41
450.223	5.46
450.428	5.54
450.634	5.51
450.84	5.56
451.045	5.54
451.251	5.65
451.456	5.55
451.662	5.39
451.867	5.37
452.073	5.44
452.278	5.37
452.483	5.26
452.689	5.46
452.894	5.47
453.1	5.41
453.305	5.38
453.51	5.54
453.716	5.53
453.921	5.61
454.127	5.57
454.332	5.7
454.537	5.64
454.742	5.71
454.948	5.63
455.153	5.63
455.358	5.51
455.563	5.45
455.769	5.39
455.974	5.51
456.179	5.54
456.384	5.54
456.589	5.7
456.795	5.73
457	5.69
457.205	5.56
457.41	5.55
457.615	5.49
457.82	5.45
458.025	5.35
458.23	5.48
458.435	5.48
458.64	5.42
458.845	5.44
459.05	5.5
459.255	5.52
459.46	5.51
459.665	5.5
459.87	5.55
460.075	5.59
460.28	5.59
460.485	5.59
460.69	5.62
460.895	5.56
461.099	5.51
461.304	5.39
461.509	5.37
461.714	5.41
461.919	5.37
462.123	5.49
462.328	5.65
462.533	5.77
462.738	5.81
462.942	5.88
463.147	5.84
463.352	5.68
463.556	5.72
463.761	5.61
463.966	5.56
464.17	5.52
464.375	5.62
464.58	5.53
464.784	5.56
464.989	5.62
465.193	5.57
465.398	5.62
465.602	5.53
465.807	5.59
466.011	5.51
466.216	5.6
466.42	5.65
466.625	5.75
466.829	5.74
467.034	5.83
467.238	5.85
467.443	5.77
467.647	5.86
467.851	5.97
468.056	5.97
468.26	5.98
468.464	6.05
468.669	5.91
468.873	5.79
469.077	5.8
469.282	5.86
469.486	5.76
469.69	5.84
469.894	5.78
470.099	5.7
470.303	5.56
470.507	5.66
470.711	5.73
470.915	5.85
471.119	6.06
471.324	6.22
471.528	6.27
471.732	6.22
471.936	6.28
472.14	6.09
472.344	6.02
472.548	5.97
472.752	5.9
472.956	5.78
473.16	5.86
473.364	5.89
473.568	5.93
473.772	5.97
473.976	6.02
474.18	6.07
474.384	6.05
474.588	6.11
474.792	6.26
474.995	6.28
475.199	6.25
475.403	6.22
475.607	6.1
475.811	6.06
476.015	6.08
476.218	6.06
476.422	6.09
476.626	6.1
476.83	5.98
477.033	5.97
477.237	6.01
477.441	5.99
477.644	5.98
477.848	6.07
478.052	6.06
478.255	6.08
478.459	6.13
478.663	6.1
478.866	6.17
479.07	6.14
479.273	6.06
479.477	5.95
479.681	5.99
479.884	5.95
480.088	6.01
480.291	6.05
480.495	6.19
480.698	6.22
480.901	6.2
481.105	6.16
481.308	6.23
481.512	6.28
481.715	6.27
481.919	6.33
482.122	6.38
482.325	6.41
482.529	6.37
482.732	6.39
482.935	6.35
483.138	6.29
483.342	6.15
483.545	6.1
483.748	6.01
483.952	5.98
484.155	5.95
484.358	6.08
484.561	6.07
484.764	6.18
484.967	6.19
485.171	6.19
485.374	6.17
485.577	6.25
485.78	6.2
485.983	6.19
486.186	6.31
486.389	6.31
486.592	6.28
486.795	6.3
486.998	6.28
487.201	6.2
487.404	6.19
487.607	6.18
487.81	6.19
488.013	6.13
488.216	6.13
488.419	6.08
488.622	6.1
488.825	6.11
489.028	6.22
489.231	6.28
489.433	6.37
489.636	6.42
489.839	6.43
490.042	6.48
490.245	6.57
490.447	6.54
490.65	6.54
490.853	6.54
491.056	6.51
491.258	6.42
491.461	6.41
491.664	6.3
491.866	6.33
492.069	6.29
492.272	6.28
492.474	6.32
492.677	6.39
492.879	6.38
493.082	6.35
493.285	6.4
493.487	6.46
493.69	6.52
493.892	6.56
494.095	6.63
494.297	6.67
494.5	6.64
494.702	6.58
494.905	6.64
495.107	6.66
495.309	6.62
495.512	6.62
495.714	6.66
495.917	6.58
496.119	6.61
496.321	6.55
496.524	6.63
496.726	6.68
496.928	6.74
497.13	6.82
497.333	6.97
497.535	6.93
497.737	7
497.939	7.1
498.142	7.07
498.344	7.06
498.546	7.04
498.748	6.95
498.95	6.94
499.152	6.98
499.355	7.02
499.557	7.02
499.759	7.02
499.961	7.05
500.163	7.05
500.365	7.09
500.567	7.08
500.769	7.21
500.971	7.21
501.173	7.26
501.375	7.25
501.577	7.39
501.779	7.41
501.981	7.45
502.183	7.46
502.385	7.53
502.587	7.52
502.788	7.47
502.99	7.45
503.192	7.49
503.394	7.49
503.596	7.53
503.798	7.64
503.999	7.66
504.201	7.64
504.403	7.64
504.605	7.65
504.806	7.61
505.008	7.65
505.21	7.65
505.411	7.63
505.613	7.61
505.815	7.59
506.016	7.51
506.218	7.51
506.42	7.61
506.621	7.62
506.823	7.61
507.024	7.62
507.226	7.58
507.427	7.5
507.629	7.54
507.83	7.51
508.032	7.49
508.233	7.52
508.435	7.5
508.636	7.43
508.838	7.45
509.039	7.52
509.24	7.56
509.442	7.57
509.643	7.6
509.845	7.63
510.046	7.62
510.247	7.56
510.448	7.52
510.65	7.52
510.851	7.49
511.052	7.51
511.254	7.61
511.455	7.54
511.656	7.49
511.857	7.43
512.058	7.41
512.26	7.28
512.461	7.38
512.662	7.4
512.863	7.5
513.064	7.48
513.265	7.5
513.466	7.47
513.667	7.51
513.868	7.45
514.069	7.39
514.27	7.35
514.471	7.35
514.672	7.31
514.873	7.31
515.074	7.36
515.275	7.39
515.476	7.44
515.677	7.41
515.878	7.39
516.079	7.38
516.28	7.36
516.481	7.31
516.682	7.33
516.882	7.38
517.083	7.39
517.284	7.44
517.485	7.43
517.686	7.44
517.886	7.43
518.087	7.41
518.288	7.36
518.488	7.4
518.689	7.35
518.89	7.41
519.091	7.48
519.291	7.49
519.492	7.46
519.692	7.53
519.893	7.38
520.094	7.35
520.294	7.4
520.495	7.43
520.695	7.43
520.896	7.52
521.096	7.53
521.297	7.52
521.497	7.47
521.698	7.51
521.898	7.47
522.099	7.46
522.299	7.44
522.499	7.5
522.7	7.45
522.9	7.52
523.101	7.47
523.301	7.48
523.501	7.51
523.702	7.51
523.902	7.46
524.102	7.49
524.302	7.52
524.503	7.5
524.703	7.51
524.903	7.56
525.103	7.61
525.304	7.54
525.504	7.45
525.704	7.42
525.904	7.41
526.104	7.4
526.304	7.44
526.504	7.49
526.705	7.56
526.905	7.5
527.105	7.49
527.305	7.49
527.505	7.49
527.705	7.49
527.905	7.55
528.105	7.54
528.305	7.51
528.505	7.56
528.705	7.55
528.905	7.6
529.105	7.63
529.304	7.68
529.504	7.68
529.704	7.72
529.904	7.73
530.104	7.76
530.304	7.74
530.503	7.74
530.703	7.7
530.903	7.71
531.103	7.69
531.303	7.73
531.502	7.76
531.702	7.78
531.902	7.76
532.101	7.73
532.301	7.77
532.501	7.73
532.7	7.81
532.9	7.91
533.1	7.94
533.299	7.93
533.499	7.97
533.698	7.95
533.898	7.9
534.097	7.93
534.297	7.87
534.496	7.84
534.696	7.82
534.895	7.79
535.095	7.8
535.294	7.87
535.494	7.87
535.693	7.87
535.892	7.87
536.092	7.89
536.291	7.92
536.491	8.01
536.69	8.02
536.889	8.09
537.088	8.08
537.288	8.05
537.487	8.05
537.686	8.1
537.886	8.05
538.085	8.1
538.284	8.05
538.483	8.11
538.682	8.12
538.882	8.16
539.081	8.11
539.28	8.2
539.479	8.21
539.678	8.27
539.877	8.29
540.076	8.38
540.275	8.38
540.474	8.29
540.673	8.26
540.872	8.29
541.071	8.34
541.27	8.4
541.469	8.44
541.668	8.41
541.867	8.49
542.066	8.46
542.265	8.43
542.464	8.52
542.663	8.55
542.862	8.54
543.06	8.59
543.259	8.63
543.458	8.61
543.657	8.68
543.856	8.74
544.054	8.74
544.253	8.77
544.452	8.86
544.651	8.85
544.849	8.89
545.048	8.91
545.247	8.94
545.445	8.92
545.644	8.94
545.843	8.88
546.041	8.89
546.24	8.93
546.438	8.93
546.637	9.06
546.836	9.08
547.034	9.13
547.233	9.15
547.431	9.25
547.63	9.22
547.828	9.33
548.027	9.4
548.225	9.49
548.423	9.55
548.622	9.57
548.82	9.62
549.019	9.68
549.217	9.55
549.415	9.58
549.614	9.7
549.812	9.7
550.01	9.81
550.209	9.97
550.407	9.98
550.605	9.97
550.803	10.01
551.002	9.99
551.2	10.06
551.398	10.08
551.596	10.1
551.794	10.13
551.993	10.24
552.191	10.32
552.389	10.36
552.587	10.48
552.785	10.61
552.983	10.53
553.181	10.51
553.379	10.59
553.577	10.64
553.775	10.63
553.973	10.71
554.171	10.78
554.369	10.86
554.567	10.95
554.765	11
554.963	11.05
555.161	11.1
555.359	11.16
555.557	11.1
555.755	11.22
555.952	11.26
556.15	11.37
556.348	11.43
556.546	11.54
556.744	11.53
556.941	11.61
557.139	11.69
557.337	11.81
557.535	11.95
557.732	12.02
557.93	12.03
558.128	12.06
558.325	12
558.523	12.01
558.721	12.05
558.918	12.17
559.116	12.18
559.313	12.23
559.511	12.26
559.708	12.39
559.906	12.49
560.104	12.59
560.301	12.74
560.498	12.82
560.696	12.84
560.893	12.89
561.091	12.91
561.288	12.95
561.486	12.96
561.683	13.03
561.88	13.09
562.078	13.14
562.275	13.19
562.473	13.27
562.67	13.31
562.867	13.3
563.064	13.37
563.262	13.43
563.459	13.55
563.656	13.51
563.853	13.55
564.051	13.67
564.248	13.69
564.445	13.72
564.642	13.86
564.839	14.02
565.036	14.08
565.234	14.04
565.431	14.11
565.628	14.16
565.825	14.08
566.022	14.05
566.219	14.24
566.416	14.18
566.613	14.27
566.81	14.44
567.007	14.5
567.204	14.51
567.401	14.61
567.598	14.56
567.795	14.54
567.991	14.62
568.188	14.72
568.385	14.51
568.582	14.59
568.779	14.59
568.976	14.53
569.172	14.42
569.369	14.64
569.566	14.63
569.763	14.59
569.96	14.64
570.156	14.66
570.353	14.73
570.55	14.84
570.746	14.92
570.943	14.97
571.14	15.07
571.336	15.02
571.533	14.93
571.729	14.98
571.926	14.96
572.123	14.91
572.319	14.91
572.516	15.01
572.712	15.07
572.909	15.08
573.105	15.06
573.302	15.05
573.498	14.91
573.695	14.85
573.891	14.82
574.087	14.86
574.284	14.9
574.48	14.97
574.677	14.95
574.873	14.97
575.069	14.94
575.266	14.89
575.462	14.84
575.658	14.67
575.854	14.62
576.051	14.59
576.247	14.69
576.443	14.7
576.639	14.85
576.835	14.85
577.032	14.87
577.228	14.78
577.424	14.77
577.62	14.74
577.816	14.68
578.012	14.65
578.208	14.57
578.404	14.54
578.6	14.54
578.796	14.6
578.993	14.63
579.189	14.7
579.384	14.71
579.58	14.7
579.776	14.65
579.972	14.58
580.168	14.56
580.364	14.6
580.56	14.56
580.756	14.57
580.952	14.61
581.148	14.57
581.343	14.44
581.539	14.37
581.735	14.33
581.931	14.2
582.127	14.32
582.322	14.37
582.518	14.36
582.714	14.38
582.909	14.41
583.105	14.27
583.301	14.26
583.496	14.19
583.692	14.18
583.888	14.16
584.083	14.11
584.279	14.01
584.474	14.04
584.67	13.95
584.866	13.98
585.061	14.03
585.257	14.05
585.452	14.07
585.648	14.08
585.843	13.96
586.039	13.94
586.234	13.91
586.429	13.9
586.625	13.81
586.82	13.87
587.015	13.81
587.211	13.81
587.406	13.9
587.601	14.02
587.797	13.97
587.992	14
588.187	14.05
588.383	13.99
588.578	13.92
588.773	13.91
588.968	13.89
589.163	13.85
589.359	13.76
589.554	13.83
589.749	13.87
589.944	13.8
590.139	13.72
590.334	13.83
590.529	13.85
590.724	13.89
590.919	13.98
591.114	14.08
591.309	14.02
591.504	13.98
591.699	14.03
591.894	14.06
592.089	14.06
592.284	14.09
592.479	14.17
592.674	14.19
592.869	14.21
593.064	14.24
593.259	14.26
593.454	14.21
593.648	14.24
593.843	14.27
594.038	14.27
594.233	14.32
594.428	14.42
594.622	14.45
594.817	14.57
595.012	14.74
595.206	14.85
595.401	14.91
595.596	14.84
595.79	14.8
595.985	14.79
596.18	14.78
596.374	14.83
596.569	14.94
596.763	15.05
596.958	15.11
597.153	15.12
597.347	15.14
597.542	15.11
597.736	15.14
597.931	15.2
598.125	15.3
598.319	15.34
598.514	15.51
598.708	15.58
598.903	15.55
599.097	15.6
599.291	15.65
599.486	15.73
599.68	15.75
599.874	15.78
600.069	15.75
600.263	15.74
600.457	15.65
600.651	15.62
600.846	15.72
601.04	15.77
601.234	15.76
601.428	15.84
601.622	15.87
601.817	15.83
602.011	15.85
602.205	15.94
602.399	15.97
602.593	16
602.787	15.98
602.981	16.03
603.175	16.08
603.369	16.02
603.563	15.98
603.757	15.93
603.951	15.85
604.145	15.78
604.339	15.82
604.533	15.81
604.727	15.89
604.921	15.84
605.115	15.79
605.309	15.75
605.502	15.73
605.696	15.72
605.89	15.7
606.084	15.72
606.278	15.71
606.471	15.74
606.665	15.65
606.859	15.6
607.053	15.6
607.246	15.52
607.44	15.45
607.634	15.48
607.827	15.47
608.021	15.44
608.214	15.44
608.408	15.34
608.602	15.28
608.795	15.31
608.989	15.2
609.182	15.12
609.376	15.1
609.569	15.04
609.763	14.95
609.956	14.99
610.15	14.97
610.343	14.96
610.537	14.95
610.73	14.85
610.923	14.74
611.117	14.65
611.31	14.59
611.504	14.52
611.697	14.51
611.89	14.42
612.083	14.39
612.277	14.3
612.47	14.29
612.663	14.19
612.856	14.15
613.05	14.08
613.243	14.01
613.436	13.78
613.629	13.78
613.822	13.69
614.015	13.68
614.209	13.66
614.402	13.67
614.595	13.73
614.788	13.69
614.981	13.67
615.174	13.59
615.367	13.59
615.56	13.36
615.753	13.39
615.946	13.34
616.139	13.34
616.332	13.25
616.525	13.22
616.718	13.08
616.911	13.09
617.103	13.04
617.296	13.08
617.489	13.12
617.682	13.21
617.875	13.06
618.067	13.03
618.26	13.01
618.453	12.88
618.646	12.73
618.838	12.7
619.031	12.63
619.224	12.56
619.417	12.65
619.609	12.61
619.802	12.6
619.994	12.55
620.187	12.47
620.38	12.35
620.572	12.37
620.765	12.33
620.957	12.33
621.15	12.36
621.342	12.4
621.535	12.32
621.727	12.28
621.92	12.24
622.112	12.29
622.305	12.28
622.497	12.35
622.69	12.34
622.882	12.33
623.074	12.26
623.267	12.24
623.459	12.23
623.651	12.24
623.844	12.21
624.036	12.2
624.228	12.26
624.42	12.24
624.613	12.25
624.805	12.27
624.997	12.29
625.189	12.2
625.381	12.18
625.574	12.12
625.766	12.04
625.958	12.03
626.15	12.02
626.342	11.98
626.534	11.97
626.726	12.04
626.918	11.98
627.11	11.89
627.302	11.83
627.494	11.84
627.686	11.75
627.878	11.72
628.07	11.75
628.262	11.77
628.454	11.67
628.646	11.72
628.838	11.68
629.029	11.62
629.221	11.58
629.413	11.65
629.605	11.51
629.797	11.51
629.989	11.51
630.18	11.45
630.372	11.38
630.564	11.42
630.755	11.33
630.947	11.3
631.139	11.35
631.33	11.31
631.522	11.25
631.714	11.24
631.905	11.23
632.097	11.18
632.289	11.21
632.48	11.28
632.672	11.25
632.863	11.24
633.055	11.25
633.246	11.2
633.438	11.08
633.629	11.13
633.821	11.17
634.012	11.08
634.203	11.12
634.395	11.17
634.586	11.18
634.777	11.11
634.969	11.15
635.16	11.16
635.351	11.16
635.543	11.09
635.734	11.06
635.925	11.15
636.117	11.08
636.308	11.06
636.499	11.1
636.69	11.16
636.881	11.12
637.073	11.12
637.264	11.16
637.455	11.16
637.646	11.12
637.837	11.1
638.028	11.12
638.219	11.08
638.41	11.1
638.601	11.09
638.792	11.07
638.983	11.1
639.174	11.11
639.365	10.96
639.556	11.01
639.747	10.98
639.938	10.94
640.129	10.9
640.32	10.97
640.511	10.91
640.701	10.95
640.892	10.95
641.083	10.86
641.274	10.83
641.465	10.79
641.655	10.76
641.846	10.7
642.037	10.81
642.228	10.78
642.418	10.78
642.609	10.73
642.8	10.71
642.99	10.7
643.181	10.65
643.372	10.67
643.562	10.61
643.753	10.58
643.943	10.59
644.134	10.68
644.324	10.6
644.515	10.7
644.705	10.64
644.896	10.59
645.086	10.55
645.277	10.57
645.467	10.57
645.658	10.7
645.848	10.74
646.038	10.72
646.229	10.8
646.419	10.7
646.61	10.64
646.8	10.56
646.99	10.55
647.18	10.41
647.371	10.38
647.561	10.35
647.751	10.42
647.941	10.43
648.132	10.52
648.322	10.64
648.512	10.59
648.702	10.59
648.892	10.57
649.082	10.53
649.272	10.47
649.462	10.51
649.653	10.48
649.843	10.5
650.033	10.46
650.223	10.34
650.413	10.37
650.603	10.34
650.793	10.26
650.983	10.33
651.172	10.37
651.362	10.28
651.552	10.24
651.742	10.31
651.932	10.22
652.122	10.31
652.312	10.31
652.502	10.32
652.691	10.15
652.881	10.15
653.071	9.99
653.261	9.86
653.45	9.73
653.64	9.66
653.83	9.56
654.019	9.53
654.209	9.5
654.399	9.47
654.588	9.5
654.778	9.37
654.968	9.21
655.157	9.15
655.347	9.09
655.536	9.04
655.726	8.94
655.915	8.92
656.105	8.81
656.294	8.73
656.484	8.63
656.673	8.71
656.863	8.68
657.052	8.65
657.241	8.68
657.431	8.62
657.62	8.43
657.809	8.3
657.999	8.23
658.188	8.15
658.377	8.11
658.567	8.05
658.756	8.03
658.945	7.98
659.134	7.86
659.324	7.68
659.513	7.59
659.702	7.51
659.891	7.47
660.08	7.37
660.269	7.38
660.458	7.32
660.648	7.3
660.837	7.18
661.026	7.04
661.215	6.96
661.404	6.93
661.593	6.72
661.782	6.64
661.971	6.6
662.16	6.55
662.349	6.5
662.538	6.57
662.726	6.57
662.915	6.58
663.104	6.53
663.293	6.45
663.482	6.38
663.671	6.27
663.86	6.25
664.048	6.19
664.237	6.18
664.426	6.19
664.615	6.15
664.803	6.07
664.992	6.06
665.181	6.06
665.369	5.98
665.558	6.01
665.747	5.98
665.935	6.04
666.124	6.09
666.312	6.08
666.501	6.06
666.69	6.08
666.878	6.1
667.067	5.98
667.255	5.95
667.444	5.8
667.632	5.74
667.82	5.54
668.009	5.49
668.197	5.57
668.386	5.68
668.574	5.69
668.762	5.78
668.951	5.81
669.139	5.8
669.327	5.88
669.516	5.72
669.704	5.84
669.892	5.96
670.08	5.95
670.269	5.96
670.457	6.12
670.645	6.07
670.833	5.96
671.021	5.96
671.21	5.95
671.398	5.94
671.586	5.87
671.774	5.89
671.962	6
672.15	5.92
672.338	6.03
672.526	6.18
672.714	6.23
672.902	6.23
673.09	6.25
673.278	6.23
673.466	6.13
673.654	6.05
673.842	6.09
674.03	6.21
674.218	6.33
674.405	6.48
674.593	6.61
674.781	6.57
674.969	6.48
675.157	6.3
675.344	6.32
675.532	6.27
675.72	6.38
675.908	6.42
676.095	6.57
676.283	6.51
676.471	6.55
676.658	6.54
676.846	6.61
677.033	6.61
677.221	6.72
677.409	6.82
677.596	6.93
677.784	6.98
677.971	7.17
678.159	7.22
678.346	7.05
678.534	7.08
678.721	7.02
678.909	6.91
679.096	6.84
679.283	7.07
679.471	6.98
679.658	7.12
679.846	7.19
680.033	7.26
680.22	7.37
680.408	7.4
680.595	7.34
680.782	7.44
680.969	7.48
681.157	7.48
681.344	7.52
681.531	7.65
681.718	7.66
681.905	7.76
682.093	7.76
682.28	7.78
682.467	7.73
682.654	7.72
682.841	7.84
683.028	7.9
683.215	8
683.402	8.17
683.589	8.35
683.776	8.41
683.963	8.38
684.15	8.44
684.337	8.6
684.524	8.64
684.711	8.66
684.898	8.91
685.085	8.92
685.271	8.87
685.458	8.97
685.645	9.09
685.832	9.09
686.019	9.48
686.205	9.52
686.392	9.69
686.579	9.86
686.766	9.93
686.952	9.99
687.139	10.29
687.326	10.47
687.512	10.6
687.699	10.93
687.886	11.09
688.072	11.22
688.259	11.39
688.445	11.53
688.632	11.7
688.818	11.81
689.005	12.13
689.191	12.46
689.378	12.69
689.564	12.93
689.751	13.27
689.937	13.59
690.124	13.67
690.31	14.05
690.496	14.41
690.683	14.8
690.869	14.96
691.055	15.45
691.242	15.55
691.428	15.85
691.614	15.95
691.8	16.4
691.987	16.71
692.173	17.17
692.359	17.5
692.545	18.01
692.731	18.43
692.918	18.64
693.104	19.08
693.29	19.46
693.476	19.91
693.662	20.09
693.848	20.72
694.034	21.38
694.22	21.95
694.406	22.55
694.592	23.04
694.778	23.63
694.964	23.83
695.15	24.28
695.336	24.41
695.522	24.9
695.708	25.15
695.894	25.45
696.08	25.69
696.265	26.23
696.451	26.74
696.637	27.27
696.823	27.94
697.009	28.65
697.194	29.21
697.38	29.46
697.566	29.96
697.751	30.42
697.937	30.67
698.123	30.98
698.308	31.49
698.494	32.01
698.68	32.5
698.865	32.9
699.051	33.21
699.236	33.78
699.422	34.12
699.607	34.83
699.793	35.35
699.978	36.02
700.164	36.62
700.349	36.86
700.535	37.03
700.72	37.23
700.906	37.74
701.091	37.9
701.276	38.27
701.462	38.52
701.647	39.23
701.832	39.38
702.018	39.93
702.203	40.52
702.388	41.13
702.573	41.54
702.759	41.75
702.944	42.14
703.129	42.41
703.314	42.62
703.499	42.88
703.684	43.61
703.87	43.69
704.055	44.02
704.24	44.24
704.425	44.49
704.61	44.76
704.795	45.31
704.98	45.73
705.165	46.02
705.35	46.45
705.535	46.6
705.72	47.01
705.905	47.22
706.09	47.8
706.275	48
706.459	48.67
706.644	48.77
706.829	48.61
707.014	48.66
707.199	49.13
707.384	48.92
707.568	49.1
707.753	49.49
707.938	49.69
708.123	49.45
708.307	49.83
708.492	49.84
708.677	50.07
708.861	50.35
709.046	50.78
709.231	50.73
709.415	51.18
709.6	51.76
709.784	51.91
709.969	51.77
710.153	52.47
710.338	52.8
710.522	53
710.707	53.09
710.891	53.48
711.076	53.13
711.26	53.08
711.445	52.81
711.629	52.99
711.813	53.27
711.998	53.38
712.182	53.66
712.366	53.94
712.551	53.93
712.735	53.6
712.919	53.78
713.103	53.52
713.288	53.77
713.472	53.98
713.656	54.41
713.84	55.13
714.024	55.33
714.208	55.04
714.393	54.95
714.577	55.18
714.761	54.55
714.945	54.8
715.129	55.18
715.313	55.65
715.497	55.84
715.681	55.82
715.865	56.09
716.049	55.93
716.233	56.03
716.417	55.75
716.601	56.04
716.785	55.8
716.968	56.14
717.152	56.41
717.336	56.53
717.52	56.64
717.704	56.98
717.888	57.29
718.071	57.24
718.255	57.37
718.439	57.52
718.622	57.2
718.806	56.92
718.99	57.1
719.174	57.2
719.357	57.34
719.541	58.37
719.724	58.58
719.908	58.83
720.092	58.91
720.275	59.22
720.459	58.68
720.642	58.91
720.826	59
721.009	59.15
721.193	59.15
721.376	59.5
721.559	59.22
721.743	59.21
721.926	59.76
722.11	59.95
722.293	60.15
722.476	60.49
722.66	60.4
722.843	60.21
723.026	60.25
723.21	60.56
723.393	60.29
723.576	60.14
723.759	60.47
723.942	60.42
724.126	59.95
724.309	61.07
724.492	61.26
724.675	61.3
724.858	61.53
725.041	61.78
725.224	61.5
725.407	61.72
725.59	62.11
725.774	62.24
725.957	62.92
726.14	63.14
726.322	63.3
726.505	63.21
726.688	63.62
726.871	63.31
727.054	63.57
727.237	63.45
727.42	63.24
727.603	63.41
727.786	63.47
727.968	63.3
728.151	63.75
728.334	64.46
728.517	64.66
728.699	64.82
728.882	65.13
729.065	65.46
729.248	64.73
729.43	64.68
729.613	64.93
729.796	65.16
729.978	65.15
730.161	65.88
730.343	65.89
730.526	66.06
730.708	66.02
730.891	66.65
731.073	66.93
731.256	67.17
731.438	67.7
731.621	67.38
731.803	66.9
731.986	67.05
732.168	67.79
732.35	68.21
732.533	69.14
732.715	70.2
732.898	70.27
733.08	69.88
733.262	69.34
733.444	69.11
733.627	69.02
733.809	69.29
733.991	69.14
734.173	70.01
734.355	69.98
734.538	69.93
734.72	69.72
734.902	69.86
735.084	69.59
735.266	70.15
735.448	70.2
735.63	70.95
735.812	72.15
735.994	71.7
736.176	72
736.358	71.2
736.54	70.59
736.722	70.09
736.904	70.92
737.086	69.86
737.268	71.39
737.45	71.61
737.632	72.43
737.814	72.19
737.995	73.37
738.177	73.68
738.359	74.66
738.541	73.71
738.723	74.48
738.904	74.69
739.086	74.17
739.268	73.73
739.449	74.42
739.631	73.45
739.813	73.35
739.994	73.6
740.176	73.7
740.358	73.45
740.539	73.28
740.721	73.58
740.902	73.58
741.084	73.27
741.265	73.99
741.447	74.18
741.628	74.36
741.81	74.39
741.991	75.12
742.172	74.24
742.354	75.02
742.535	75.31
742.717	75.43
742.898	76.2
743.079	77.57
743.261	77.79
743.442	77.09
743.623	76.62
743.804	76.28
743.986	76.41
744.167	76.7
744.348	77.4
744.529	77.21
744.71	75.86
744.891	74.59
745.073	75.04
745.254	74.03
745.435	74.29
745.616	75.09
745.797	75.34
745.978	75
746.159	76.71
746.34	76.7
746.521	77.17
746.702	77.46
746.883	77.31
747.064	76.52
747.245	77.77
747.426	77.67
747.606	77.31
747.787	76.34
747.968	76.58
748.149	75.09
748.33	74.9
748.51	74.99
748.691	76.25
748.872	76.39
749.053	77.86
749.233	79.46
749.414	80.16
749.595	79.21
749.775	80.61
749.956	80.68
750.137	79.64
750.317	78.48
750.498	79.38
750.678	78.15
750.859	78.06
751.04	77.72
751.22	79.98
751.4	79.57
751.581	79.24
751.761	78.31
751.942	79.05
752.122	77.86
752.303	77.75
752.483	78.2
752.663	78.47
752.844	78.25
753.024	78.95
753.204	79.8
753.385	79.44
753.565	79.78
753.745	79.06
753.925	78.09
754.106	78.4
754.286	78.78
754.466	78.81
754.646	80.3
754.826	81.22
755.006	81.32
755.187	81
755.367	80.6
755.547	79.83
755.727	78.68
755.907	78.31
756.087	77.05
756.267	76.85
756.447	76.9
756.627	77.16
756.807	76.26
756.987	78.86
757.167	79.49
757.346	78.9
757.526	79.82
757.706	79.4
757.886	78.66
758.066	78.12
758.246	78.19
758.425	78.29
758.605	79.42
758.785	78.75
758.965	79.34
759.144	80.13
759.324	79.62
759.504	79.58
759.683	81.27
759.863	81.3
760.043	80.76
760.222	79.89
760.402	79.54
760.581	76.77
760.761	75.14
760.94	75.16
761.12	76.09
761.299	75.3
761.479	75.85
761.658	77.96
761.838	78.43
762.017	78.38
762.197	80.14
762.376	82.53
762.555	81.33
762.735	80.09
762.914	79.44
763.093	77.35
763.273	75.31
763.452	75.6
763.631	76.12
763.81	77.63
763.99	79.32
764.169	80.8
764.348	80.55
764.527	80.37
764.706	78.43
764.885	75.95
765.064	74.48
765.243	75.75
765.423	75.89
765.602	75.19
765.781	77.18
765.96	78.66
766.139	79.11
766.318	78.43
766.497	80.12
766.676	78.81
766.854	76.99
767.033	75.68
767.212	75.85
767.391	77.15
767.57	78.65
767.749	78.11
767.928	76.69
768.106	77.67
768.285	76.11
768.464	77.02
768.643	78.86
768.821	79.19
769	77.19
769.179	78.18
769.357	79.79
769.536	80.1
769.715	79.94
769.893	82.13
770.072	80.31
770.25	77.36
770.429	75.67
770.607	76
770.786	75.6
770.964	74.26
771.143	74.79
771.321	73.36
771.5	72.57
771.678	72.01
771.857	73.93
772.035	73.63
772.213	74.9
772.392	76.53
772.57	75.58
772.748	76.06
772.927	76.18
773.105	76.37
773.283	75.75
773.461	77.48
773.64	77.78
773.818	77.84
773.996	76.95
774.174	76.76
774.352	77.14
774.531	75.28
774.709	74.72
774.887	75.79
775.065	76.54
775.243	76.43
775.421	77.08
775.599	76.41
775.777	77.95
775.955	76.47
776.133	76.35
776.311	76.38
776.489	79.23
776.667	79.35
776.844	80.08
777.022	80.11
777.2	80.85
777.378	78.15
777.556	77.34
777.734	77.83
777.911	77.94
778.089	76.85
778.267	77.56
778.445	78.58
778.622	78.08
778.8	76.86
778.978	77.51
779.155	75.63
779.333	76.32
779.511	75.92
779.688	75.32
779.866	77.02
780.043	80.73
780.221	76.87
780.398	76.93
780.576	75.43
780.753	75.32
780.931	73.73
781.108	74.1
781.286	73.39
781.463	76.9
781.64	74.84
781.818	73.82
781.995	75.88
782.172	77.43
782.35	76.2
782.527	77.36
782.704	77.84
782.882	77.73
783.059	77.93
783.236	77.54
783.413	76.37
783.59	77.69
783.768	78.82
783.945	77.39
784.122	80.56
784.299	80.49
784.476	80.15
784.653	80.59
784.83	81.08
785.007	79.56
785.184	81.94
785.361	82.39
785.538	79.77
785.715	82.32
785.892	80.52
786.069	77.76
786.246	75.43
786.423	74.37
786.6	74.46
786.776	76.84
786.953	78.32
787.13	79.94
787.307	78.94
787.484	78.06
787.66	79.84
787.837	79.52
788.014	81.28
788.191	83.55
788.367	81.37
788.544	77.57
788.721	77.75
788.897	75.44
789.074	72.81
789.25	72.02
789.427	74.09
789.603	73.01
789.78	70.12
789.956	70.98
790.133	70.63
790.309	69.45
790.486	64.98
790.662	67.42
790.839	70.29
791.015	69.62
791.192	68.43
791.368	71.36
791.544	73.66
791.721	72.6
791.897	74.62
792.073	76.36
792.249	76.73
792.426	75.1
792.602	71.42
792.778	76.15
792.954	76.92
793.13	80.95
793.307	82.43
793.483	86.43
793.659	81.89
793.835	78.35
794.011	74.12
794.187	73.12
794.363	76.01
794.539	78.17
794.715	78.93
794.891	80.6
795.067	80.36
795.243	80.08
795.419	76.48
795.595	73.26
795.771	73.8
795.947	73.61
796.122	72.69
796.298	74.32
796.474	80.42
796.65	79.62
796.826	82.5
797.001	80.72
797.177	80.4
797.353	75.39
797.529	74.49
797.704	75.77
797.88	80.05
798.056	84.56
798.231	89.7
798.407	88.57
798.582	85.04
798.758	79.59
798.934	72.09
799.109	68.61
799.285	71.2
799.46	69.09
799.636	72.5
799.811	75.75
799.986	72.52
800.162	73.31
800.337	69.93
800.513	74.02
800.688	76.26
800.863	79.66
801.039	76.1
801.214	80.43
801.389	75.22
801.565	68.55
801.74	69.71
801.915	68.44
802.09	68.32
802.265	65.13
802.441	64.59
802.616	66.62
802.791	66.01
802.966	66.58
803.141	75.26
803.316	84.58
803.491	85.27
803.666	89.11
803.841	94.31
804.016	86.52
804.191	87.59
804.366	91.3
804.541	93.09
804.716	83.37
804.891	83.47
805.066	74.07
805.241	72.27
805.416	69.24
805.591	71.31
805.765	70.43
805.94	77.22
806.115	72.71
806.29	73.75
806.464	75.51
806.639	79.75
806.814	79.85
806.989	86.71
807.163	86.64
807.338	83.03
807.512	83.21
807.687	82.34
807.862	75.92
808.036	70.25
808.211	77.17
808.385	70.98
808.56	66.27
808.734	62.67
808.909	68.32
809.083	64.17
809.258	60.65
809.432	59.7
809.606	67.17
809.781	67.93
809.955	65.77
810.13	68.86
810.304	75.23
810.478	76.74
810.652	78.5
810.827	86.11
811.001	90.61
811.175	90.5
811.349	88.44
811.524	80.52
811.698	70.95
811.872	66.45
812.046	61.38
812.22	51.91
812.394	62.4
812.568	66.9
812.742	75.54
812.916	79.81
813.09	87.87
813.264	87.1
813.438	92.28
813.612	86.5
813.786	93.1
813.96	92.61
814.134	93.41
814.308	84.54
814.482	90.62
814.656	90.4
814.83	87.06
815.003	90.25
815.177	97.34
815.351	93.52
815.525	80.86
815.698	90.84
815.872	81.34
816.046	76.61
816.219	78.08
816.393	75.87
816.567	70.29
816.74	71.14
816.914	65.89
817.088	68.14
817.261	75.41
817.435	78.04
817.608	78.02
817.782	86.61
817.955	76.34
818.129	71.6
818.302	59.18
818.475	56.09
818.649	54.82
818.822	59.28
818.996	50.95
819.169	63.82
819.342	59.96
819.516	54.52
819.689	55.18
819.862	72.1
820.035	71.7
820.209	68.99
820.382	83.84
820.555	78.2
820.728	63.54
820.901	67.16
821.075	75.17
821.248	74.02
821.421	80.51
821.594	89.63
821.767	81.77
821.94	69.69
822.113	66.01
822.286	63.14
822.459	68.38
822.632	67.46
822.805	74.17
822.978	77.78
823.151	76.48
823.324	82.95
823.496	91.73
823.669	89.15
823.842	84.18
824.015	97.18
824.188	74.77
824.361	68.44
824.533	70.94
824.706	69.6
824.879	61.92
825.051	58.96
825.224	68.42
825.397	69.18
825.569	70.95
825.742	67.22
825.915	70.17
826.087	60.67
826.26	72.88
826.432	68.76
826.605	73.97
826.777	76.91
826.95	79.45
827.122	65.67
827.295	70.61
827.467	67.38
827.64	63.45
827.812	69.39
827.984	62.01
828.157	59.57
828.329	64.2
828.501	70.52
828.674	71.71
828.846	92.85
829.018	90.01
829.19	89.61
829.363	84.76
829.535	75.89
829.707	62.1
829.879	67.57
830.051	61.3
830.223	72.85
830.395	82.91
830.568	84.16
830.74	79.55
830.912	89.72
831.084	76.73
831.256	64.74
831.428	55.29
831.6	54.96
831.772	62.84
831.943	70.37
832.115	77.46
832.287	91.22
832.459	92.42
832.631	79.38
832.803	80.47
832.975	79.84
833.146	61.09
833.318	79.35
833.49	75.58
833.662	74.42
833.833	75.21
834.005	86.61
834.177	85.69
834.348	120.52
834.52	117.97
834.692	119.9
834.863	118.89
835.035	92.65
835.206	77.88
835.378	82.53
835.549	92.7
835.721	87.16
835.892	96.65
836.064	71.77
836.235	51.49
836.407	42.84
836.578	50.64
836.749	46.37
836.921	64.89
837.092	76.74
837.264	86.04
837.435	72.6
837.606	74.24
837.777	57.75
837.949	50.43
838.12	55.03
838.291	65.49
838.462	57.07
838.633	58.83
838.805	65.89
838.976	60
839.147	38.05
839.318	50.21
839.489	62.81
839.66	67.73
839.831	54.2
840.002	73.03
840.173	76.98
840.344	70.26
840.515	61.16
840.686	52.1
840.857	53.01
841.028	53.52
841.199	60.39
841.369	70.88
841.54	97.56
841.711	107.53
841.882	96.74
842.053	90.61
842.223	103.05
842.394	81.3
842.565	85.82
842.736	90.05
842.906	99.43
843.077	72.14
843.248	63.64
843.418	60.38
843.589	63.29
843.759	21.19
843.93	58.13
844.101	18.21
844.271	32.63
844.442	19.82
844.612	3.5
844.783	2.92
844.953	53.19
845.123	19.01
845.294	1.92
845.464	28.05
845.635	36.56
845.805	32
845.975	52.79
846.146	74.36
846.316	82.9
846.486	67.22
846.656	69.37
846.827	79.25
846.997	77.43
847.167	68.15
847.337	82.4
847.507	81.4
847.677	88.45
847.848	83.39
848.018	92.85
848.188	68.5
848.358	94.55
848.528	70.06
848.698	75.67
848.868	78.78
849.038	84.72
849.208	72.77
849.378	74.82
849.548	86.84
849.718	104.43
849.887	86.66
850.057	114.06
850.227	119.36
850.397	94.63
850.567	85.01
850.737	80.11
850.906	58.94
851.076	53.17
851.246	57.58
851.415	40.96
851.585	54.05
851.755	86.88
851.924	83.83
852.094	44.33
852.264	63.67
852.433	64.05
852.603	41.18
852.772	36.59
852.942	61.95
853.111	44.7
853.281	34.22
853.45	21.16
853.62	46
853.789	57.28
853.959	65.47
854.128	93.4
854.297	120.42
854.467	94.25
854.636	105.63
854.805	74.98
854.975	102.45
855.144	144.46
855.313	196.02
855.482	124.65
855.652	129.1
855.821	119.69
855.99	81.38
856.159	81.02
856.328	74.15
856.497	77.57
856.667	59.52
856.836	53.21
857.005	67.07
857.174	71.99
857.343	81.74
857.512	86.81
857.681	114.31
857.85	105.85
858.019	107.32
858.188	137.94
858.356	107.02
858.525	136.92
858.694	292.83
858.863	182.54
859.032	150.94
859.201	144.91
859.369	100.34
859.538	65.73
859.707	76.15
859.876	40.46
860.044	60.5
860.213	71.82
860.382	69.52
860.55	54.07
860.719	86.46
860.888	88.79
861.056	70.13
861.225	68.95
861.393	85.27
861.562	63.55
861.73	41.79
861.899	56.07
862.067	67.58
862.236	58.01
862.404	71.11
862.572	80.67
862.741	73.14
862.909	52.72
863.078	53.83
863.246	59.99
863.414	55.4
863.582	25.49
863.751	42.79
863.919	44.49
864.087	24.03
864.255	27.91
864.424	53.94
864.592	42.23
864.76	49.39
864.928	54.71
865.096	61
865.264	80.97
865.432	89.89
865.6	81.71
865.768	83.48
865.936	84.82
866.104	96.87
866.272	123.1
866.44	137.29
866.608	141.24
866.776	118.38
866.944	112.31
867.112	74.66
867.28	77.1
867.448	59.67
867.615	88.06
867.783	69.56
867.951	104.09
868.119	56.25
868.286	61.39
868.454	55.61
868.622	87.38
868.789	54.73
868.957	49.55
869.125	106.9
869.292	95.11
869.46	85
869.627	86.49
869.795	86.24
869.963	72.17
870.13	51.45
870.298	38.73
870.465	60.78
870.632	76.77
870.8	81.63
870.967	117.04
871.135	117.79
871.302	107.18
871.469	67.89
871.637	55.21
871.804	54.78
871.971	70.38
872.139	86.92
872.306	100.99
872.473	104.81
872.64	105.58
872.807	106.82
872.975	74.5
873.142	87.4
873.309	93.27
873.476	36.57
873.643	-7.58
873.81	30.02
873.977	29.45
874.144	22.53
874.311	92.67
874.478	110.99
874.645	97.96
874.812	112.73
874.979	108.41
875.146	101.76
875.313	88.26
875.48	61.82
875.647	76.6
875.813	81.34
875.98	68.77
876.147	69.48
876.314	56.1
876.481	63.53
876.647	106.3
876.814	88.56
876.981	269.88
877.147	-332.49
877.314	136.67
877.481	97.82
877.647	94.1
877.814	117.7
877.98	94.85
878.147	74.26
878.314	14.36
878.48	37.67
878.647	30.96
878.813	-19
878.979	12.45
879.146	42.61
879.312	48.16
879.479	55.57
879.645	75.74
879.811	78.03
879.978	112.41
880.144	91.83
880.31	125.59
880.477	133.73
880.643	129.72
880.809	147.63
880.975	188.95
881.142	111.26
881.308	131.32
881.474	65.4
881.64	58.66
881.806	106.56
881.972	119.66
882.138	91.2
882.304	64.7
882.47	184.38
882.636	215.4
882.802	143.33
882.968	-19.56
883.134	67.33
883.3	26.8
883.466	46.96
883.632	39.51
883.798	78.55
883.964	83.25
884.129	82.12
884.295	61.11
884.461	63.96
884.627	53.7
884.793	43.15
884.958	40.67
885.124	72.3
885.29	93.39
885.455	145.45
885.621	236.67
885.787	303.3
885.952	461.55
886.118	416.33
886.283	225.43
886.449	295.27
886.614	171.84
886.78	151.23
886.945	393.22
887.111	712.22
887.276	-3179.63
887.442	-1069.05
887.607	442.88
887.773	139.58
887.938	128.37
888.103	105.08
888.269	149.14
888.434	162.73
888.599	104.7
888.764	56.65
888.93	72.72
889.095	64.45
889.26	71.8
889.425	-1916.67
889.59	-920.67
889.756	256.86
889.921	185.9
890.086	563.15
890.251	-197.35
890.416	-44.32
890.581	-109.47
890.746	-44.95
890.911	22.21
891.076	64.16
891.241	58.27
891.406	68.71
891.571	65.73
891.736	102.25
891.901	97.02
892.065	84.83
892.23	-2.27
892.395	114.36
892.56	56.05
892.725	-29.32
892.889	4.18
893.054	59.69
893.219	53.96
893.384	101.79
893.548	185.54
893.713	237.64
893.878	313.57
