Data from Ofav_PP_Phys_2JQ6_Reflection_1.txt Node
Date: Tue Aug 03 18:13:34 EDT 2021
User: Adam
Spectrometer: FLMT01687
Trigger mode: 0
Integration Time (sec): 8.750000E-1
Scans to average: 2
Electric dark correction enabled: true
Nonlinearity correction enabled: false
Boxcar width: 2
XAxis mode: Wavelengths
Number of Pixels in Spectrum: 3648
>>>>>Begin Spectral Data<<<<<
179.494	283.18
179.716	283.04
179.937	384.85
180.158	554.07
180.38	1503.51
180.601	30.21
180.823	30.24
181.044	-1.83
181.265	-4.99
181.486	30.35
181.708	26.24
181.929	-83.96
182.15	-20.78
182.372	53.59
182.593	100.84
182.814	138.1
183.035	68.79
183.257	-633.33
183.478	232.89
183.699	100.8
183.92	84.41
184.141	30.83
184.363	47.03
184.584	-43.71
184.805	47.41
185.026	-4.71
185.247	-18.3
185.468	-11.05
185.689	-44.54
185.91	-92.41
186.132	-52.32
186.353	22.08
186.574	7.17
186.795	31.75
187.016	29.51
187.237	31.2
187.458	12.32
187.679	11.26
187.9	26.84
188.121	32.99
188.342	22.32
188.563	11.35
188.784	9.82
189.005	-8.46
189.226	-34.94
189.447	6.35
189.667	2.06
189.888	13.05
190.109	38.23
190.33	77.99
190.551	39.08
190.772	72.92
190.993	52.16
191.214	62.59
191.434	25.64
191.655	4.8
191.876	-4.17
192.097	12.38
192.318	8.9
192.538	23.8
192.759	34.78
192.98	20.65
193.201	-1.76
193.421	1.47
193.642	1.93
193.863	-12.28
194.083	30.79
194.304	39.51
194.525	25.93
194.745	27.93
194.966	77.7
195.187	74.51
195.407	55.05
195.628	50.43
195.848	29.73
196.069	13.74
196.29	-4.47
196.51	24.7
196.731	46.96
196.951	58.41
197.172	76.96
197.392	121.56
197.613	118.31
197.833	98.72
198.054	121.52
198.274	83.36
198.495	47.39
198.715	29.25
198.936	52.57
199.156	40.01
199.377	44.76
199.597	55.75
199.817	84.99
200.038	50.02
200.258	36.43
200.479	-5.23
200.699	-49.48
200.919	-108.83
201.14	-13.69
201.36	6.62
201.58	29.74
201.801	28.79
202.021	39.14
202.241	33.25
202.461	23.41
202.682	29.89
202.902	7.88
203.122	13.74
203.342	7.24
203.563	-10.2
203.783	1.69
204.003	33.68
204.223	42.73
204.443	22.03
204.663	32.55
204.884	37.44
205.104	3.81
205.324	-7.62
205.544	-0.97
205.764	5.69
205.984	-44.97
206.204	24.08
206.424	-34.81
206.644	20.89
206.864	-4.09
207.084	2.07
207.304	-42.09
207.525	-4.69
207.745	-4.14
207.964	-16.48
208.184	20.69
208.404	42.23
208.624	34.61
208.844	33.57
209.064	49.11
209.284	31.43
209.504	23.01
209.724	18.04
209.944	3.4
210.164	-20.65
210.384	7.98
210.604	5.96
210.823	12.23
211.043	57.3
211.263	47.84
211.483	40.25
211.703	63.17
211.922	49.46
212.142	20.3
212.362	17.83
212.582	37.53
212.801	-7.36
213.021	7.04
213.241	19.72
213.461	40.41
213.68	28.1
213.9	45.52
214.12	46.68
214.339	48.5
214.559	51.8
214.779	32.21
214.998	35.18
215.218	60.45
215.438	45.02
215.657	48.16
215.877	60.14
216.096	52.12
216.316	34.85
216.535	52.83
216.755	29.7
216.974	27.24
217.194	71.89
217.413	64.16
217.633	58.17
217.852	72.41
218.072	75.14
218.291	49.25
218.511	43.93
218.73	69.11
218.95	55.77
219.169	64.97
219.389	74.58
219.608	73.56
219.827	42.69
220.047	40.72
220.266	50.7
220.485	44.93
220.705	39.05
220.924	44.75
221.143	44.2
221.363	34.25
221.582	27.77
221.801	53.74
222.021	56.15
222.24	78.99
222.459	41.23
222.678	54.86
222.897	61.42
223.117	2.51
223.336	-175.78
223.555	13.97
223.774	-1.58
223.993	-37.2
224.213	-1.26
224.432	38.64
224.651	41.48
224.87	42.96
225.089	58.58
225.308	51.7
225.527	26.4
225.746	-2.71
225.965	29.51
226.184	7.35
226.404	29.18
226.623	51.37
226.842	56.76
227.061	7.56
227.28	18.03
227.499	31.18
227.718	12.84
227.936	6.42
228.155	25.58
228.374	38.77
228.593	29.85
228.812	6.39
229.031	24.41
229.25	42.87
229.469	-1.21
229.688	-24.89
229.907	-52.44
230.125	-33.13
230.344	-50.62
230.563	-23.41
230.782	-13.15
231.001	31.49
231.22	3.9
231.438	7.87
231.657	-16.57
231.876	-14.94
232.095	-8.61
232.313	1.45
232.532	-25.56
232.751	30.88
232.969	47.83
233.188	56.21
233.407	45.73
233.625	76.09
233.844	80.35
234.063	72.09
234.281	61.48
234.5	55.14
234.719	45.38
234.937	16.6
235.156	7.39
235.374	6.03
235.593	21.92
235.811	22.42
236.03	30.42
236.249	36.88
236.467	46.04
236.686	39.79
236.904	49.73
237.123	51.14
237.341	60.76
237.559	72.66
237.778	61.65
237.996	39.05
238.215	38.96
238.433	26.65
238.652	9.36
238.87	30.68
239.088	21.92
239.307	12
239.525	17.43
239.743	30.21
239.962	29.41
240.18	69.57
240.398	97.68
240.617	105.42
240.835	81.4
241.053	63.04
241.271	35.13
241.49	6.38
241.708	38.28
241.926	23.1
242.144	40.4
242.363	56.25
242.581	52.58
242.799	22.27
243.017	37.27
243.235	50.38
243.453	41.34
243.672	60.28
243.89	86.16
244.108	78.49
244.326	52.35
244.544	48.3
244.762	50.42
244.98	23.58
245.198	34.87
245.416	61.33
245.634	44.74
245.852	31.15
246.07	35.11
246.288	2.48
246.506	11.42
246.724	2
246.942	-1.49
247.16	4.11
247.378	10.41
247.596	3.25
247.814	15.29
248.032	16.39
248.25	18.91
248.468	10.71
248.685	11.07
248.903	-24.06
249.121	-27.62
249.339	-14.21
249.557	4.79
249.775	5.24
249.992	43.78
250.21	42.13
250.428	18.53
250.646	-0.04
250.863	6.35
251.081	-8.9
251.299	-13.36
251.517	12.61
251.734	30.77
251.952	21.14
252.17	21.24
252.387	18.4
252.605	15.43
252.823	-47.36
253.04	-21.17
253.258	24.82
253.475	44.23
253.693	48.29
253.911	76.68
254.128	67.65
254.346	63.61
254.563	52.44
254.781	64.76
254.998	70.02
255.216	60.59
255.433	46.98
255.651	51.36
255.868	10.28
256.086	-14.2
256.303	-2.07
256.521	13.93
256.738	2.78
256.956	35.22
257.173	31.21
257.39	45.47
257.608	42.77
257.825	35.24
258.043	3.99
258.26	21.69
258.477	0.86
258.695	-0.73
258.912	0.18
259.129	15.54
259.346	13.44
259.564	19.79
259.781	15.4
259.998	25.8
260.216	21.36
260.433	19.86
260.65	9.75
260.867	9.87
261.084	12.92
261.302	14.26
261.519	18.68
261.736	46.92
261.953	55.79
262.17	39.23
262.387	33.46
262.604	26.34
262.822	28.75
263.039	19.29
263.256	35.66
263.473	37.15
263.69	46.18
263.907	30.03
264.124	18.83
264.341	10.63
264.558	14.92
264.775	18.59
264.992	11.78
265.209	8.83
265.426	-9.84
265.643	-5.92
265.86	-15.48
266.077	-1.58
266.294	7.02
266.51	12.94
266.727	30.78
266.944	31.44
267.161	34.45
267.378	30.93
267.595	31.01
267.812	27.75
268.028	24.83
268.245	27.6
268.462	35.95
268.679	42.33
268.896	40.19
269.112	59.62
269.329	37.57
269.546	6.36
269.763	7.66
269.979	-3.05
270.196	8.23
270.413	19.64
270.629	25.66
270.846	41.92
271.063	39.36
271.279	38.71
271.496	38.85
271.712	35.92
271.929	-5.85
272.146	21.88
272.362	7.16
272.579	-1.9
272.795	-3.3
273.012	17.68
273.228	15.49
273.445	30.32
273.661	36.18
273.878	54.56
274.094	57.71
274.311	55.56
274.527	17.88
274.744	40.88
274.96	24.49
275.177	-23.6
275.393	-4.78
275.609	7.78
275.826	-25.44
276.042	-11.2
276.259	13.29
276.475	-0.46
276.691	15.1
276.908	39.12
277.124	29.21
277.34	27.59
277.557	27.92
277.773	20.02
277.989	11.01
278.205	20.16
278.422	11.53
278.638	10.51
278.854	-0.98
279.07	16.91
279.286	23.81
279.503	33.01
279.719	37.87
279.935	49.57
280.151	45.82
280.367	25.6
280.583	14.68
280.799	25.86
281.016	20.54
281.232	18.79
281.448	14.3
281.664	0.71
281.88	13.97
282.096	22
282.312	-3.8
282.528	-3.04
282.744	11.75
282.96	1.4
283.176	2.49
283.392	15.67
283.608	21.25
283.824	28.62
284.04	29.78
284.256	23.25
284.471	28.25
284.687	30.99
284.903	22.6
285.119	9.74
285.335	16.86
285.551	23.32
285.767	30.22
285.982	29.81
286.198	38.86
286.414	35.8
286.63	12.52
286.846	-8.27
287.061	10.97
287.277	-2.25
287.493	-8.73
287.709	-15.26
287.924	37.25
288.14	4.23
288.356	-28.37
288.571	-33.15
288.787	-19.27
289.003	-43.39
289.218	-62.77
289.434	8.42
289.65	20.85
289.865	26.26
290.081	-10.79
290.296	11.37
290.512	16.16
290.727	14.11
290.943	36.08
291.159	52.99
291.374	47.4
291.59	44
291.805	53.38
292.021	52.73
292.236	42.41
292.451	32.97
292.667	37.21
292.882	26.26
293.098	13.44
293.313	35.22
293.529	62.99
293.744	46.94
293.959	60.54
294.175	51.52
294.39	47.76
294.605	53.29
294.821	45.89
295.036	44.15
295.251	55.34
295.467	52.92
295.682	37.82
295.897	33.52
296.112	20.35
296.328	17.68
296.543	20.98
296.758	17.36
296.973	20.29
297.188	22.1
297.404	39.15
297.619	50.93
297.834	47.5
298.049	42.75
298.264	61.22
298.479	31.86
298.694	6.6
298.909	2.9
299.125	16.96
299.34	-12.64
299.555	0.14
299.77	-16.61
299.985	15.05
300.2	20.12
300.415	22.49
300.63	19.36
300.845	45.5
301.06	26.08
301.275	3.25
301.49	16.02
301.704	23.39
301.919	33.12
302.134	38.31
302.349	48.57
302.564	62.52
302.779	68.29
302.994	57.27
303.209	47.5
303.423	35.69
303.638	11.72
303.853	1.22
304.068	13.04
304.283	34.57
304.497	45.41
304.712	55.21
304.927	58.06
305.142	52.68
305.356	42.11
305.571	41.18
305.786	47.83
306	47.08
306.215	22.1
306.43	26.72
306.644	20.65
306.859	7.49
307.074	2.36
307.288	35.64
307.503	40.35
307.717	38.88
307.932	32.76
308.147	33.84
308.361	10.45
308.576	6.09
308.79	18.51
309.005	34.57
309.219	34.17
309.434	36.9
309.648	39.34
309.863	22.71
310.077	0.52
310.292	12.12
310.506	26.06
310.72	25.4
310.935	29.18
311.149	34.75
311.364	14.47
311.578	-0.04
311.792	11.85
312.007	-16.51
312.221	-19.41
312.435	-6.63
312.649	23.46
312.864	-3.63
313.078	12.52
313.292	0.95
313.507	13.21
313.721	-6.3
313.935	-13.5
314.149	-27.24
314.363	-0.77
314.578	-20.32
314.792	-11.84
315.006	-8.72
315.22	-5.13
315.434	-25.69
315.648	-35.9
315.862	-3.89
316.077	13.95
316.291	16.12
316.505	22.14
316.719	16.12
316.933	19.99
317.147	-0.03
317.361	-5.92
317.575	17.09
317.789	26.33
318.003	13.71
318.217	26.79
318.431	53.01
318.645	15.61
318.859	14.62
319.073	7.1
319.287	-0.57
319.5	3.32
319.714	37.04
319.928	43.6
320.142	38.78
320.356	35.11
320.57	19.43
320.784	10.23
320.997	-3.62
321.211	20.29
321.425	42.17
321.639	46.93
321.853	23.05
322.066	32.58
322.28	42.06
322.494	40.01
322.707	3.43
322.921	36.16
323.135	34.74
323.349	28.42
323.562	32.99
323.776	64.7
323.989	54.92
324.203	62.1
324.417	44.08
324.63	39.98
324.844	26.83
325.057	29.36
325.271	0.6
325.485	19.08
325.698	-6.9
325.912	-4.85
326.125	2.68
326.339	24.18
326.552	2.45
326.766	30.46
326.979	16.65
327.193	17.3
327.406	22.39
327.619	41.04
327.833	4.01
328.046	33.61
328.26	31.14
328.473	21.46
328.686	20.73
328.9	35.47
329.113	26.39
329.326	32.49
329.54	26.28
329.753	37.92
329.966	50.77
330.179	42.06
330.393	42.84
330.606	53.9
330.819	37.79
331.032	17.28
331.246	15.97
331.459	-8.49
331.672	-16.23
331.885	-21.58
332.098	-20.78
332.311	10.1
332.525	31.59
332.738	30.69
332.951	32.73
333.164	28.25
333.377	32.12
333.59	4.25
333.803	8.45
334.016	8.52
334.229	17.6
334.442	-19.33
334.655	12.15
334.868	-11.73
335.081	-18.71
335.294	-18.92
335.507	12.97
335.72	14.82
335.933	26.92
336.146	25.43
336.359	32.24
336.572	32.48
336.785	35.89
336.997	52.57
337.21	64.2
337.423	69.21
337.636	86.65
337.849	91.8
338.062	76.03
338.274	62.59
338.487	65.37
338.7	46.96
338.913	50.42
339.125	51.1
339.338	47.14
339.551	34.57
339.763	23.35
339.976	15.52
340.189	7.47
340.402	1.31
340.614	6.58
340.827	23.75
341.039	29.11
341.252	29.44
341.465	42.45
341.677	27.01
341.89	39.94
342.102	31.68
342.315	26.06
342.527	31.06
342.74	37.8
342.952	17.46
343.165	8.39
343.377	-10.57
343.59	-18.22
343.802	-18.71
344.015	-43.58
344.227	-30.27
344.44	4.38
344.652	18.39
344.864	-7.47
345.077	17.91
345.289	11.02
345.502	-6.32
345.714	-12.97
345.926	20.61
346.139	7.13
346.351	-13.13
346.563	2.51
346.775	6.48
346.988	-11.22
347.2	6.04
347.412	27.41
347.624	25.17
347.837	17.33
348.049	24.77
348.261	10.69
348.473	-6.82
348.685	-10.06
348.897	8.54
349.11	-1.86
349.322	-0.03
349.534	1.46
349.746	7.93
349.958	14.99
350.17	20.68
350.382	18.25
350.594	24.75
350.806	16.86
351.018	5.28
351.23	10.19
351.442	9.53
351.654	1.54
351.866	17.49
352.078	8.6
352.29	13.63
352.502	17.65
352.714	14.14
352.926	-1.06
353.138	-2.7
353.35	-0.16
353.561	21.58
353.773	24.69
353.985	34.49
354.197	38.49
354.409	41.56
354.621	25.85
354.832	36.39
355.044	44.33
355.256	51.66
355.468	41
355.679	45.94
355.891	41.67
356.103	46.83
356.314	33.85
356.526	41.13
356.738	41.59
356.949	39.03
357.161	12.52
357.373	21.28
357.584	19.16
357.796	16.94
358.008	4.94
358.219	2.43
358.431	7.81
358.642	14.11
358.854	-9.83
359.065	15.07
359.277	38.23
359.488	33.33
359.7	28.39
359.911	36.03
360.123	42.32
360.334	33.61
360.546	48.06
360.757	54.86
360.969	43.7
361.18	22.98
361.391	30.54
361.603	21.12
361.814	9.11
362.025	21.47
362.237	32.17
362.448	29.81
362.659	25.57
362.871	36.32
363.082	21.49
363.293	9.23
363.504	6.3
363.716	22.43
363.927	16.66
364.138	30.34
364.349	41.62
364.56	47.07
364.772	57.56
364.983	53.11
365.194	54.69
365.405	41.44
365.616	25.17
365.827	17.68
366.038	22.14
366.25	8.35
366.461	17.94
366.672	22.81
366.883	16.36
367.094	26.19
367.305	38.59
367.516	28.99
367.727	35.94
367.938	37.74
368.149	32.21
368.36	22.41
368.571	17.24
368.781	14.29
368.992	3.39
369.203	7.11
369.414	14.37
369.625	27.31
369.836	25.23
370.047	27.19
370.258	22.23
370.468	30.09
370.679	35.64
370.89	37.64
371.101	39.78
371.312	46.48
371.522	48.78
371.733	49.02
371.944	49.63
372.155	44.87
372.365	39.93
372.576	34.66
372.787	32.11
372.997	34.59
373.208	39.13
373.419	23.64
373.629	26.05
373.84	22.53
374.05	13.54
374.261	-2.46
374.472	19.14
374.682	14.61
374.893	16.38
375.103	8.76
375.314	37.01
375.524	26.34
375.735	17.04
375.945	16.43
376.156	27.97
376.366	11.46
376.577	16.17
376.787	20.18
376.997	17.57
377.208	17.05
377.418	21.42
377.629	14.75
377.839	10
378.049	5.73
378.26	-6.97
378.47	-8.59
378.68	-3.58
378.89	11.2
379.101	17.04
379.311	29.06
379.521	36.3
379.732	43.37
379.942	37.73
380.152	42.88
380.362	38.51
380.572	39.25
380.783	33.93
380.993	29.48
381.203	21.97
381.413	17.33
381.623	20.03
381.833	25.72
382.043	34.4
382.253	32.81
382.463	32.99
382.674	25.88
382.884	23.98
383.094	10.49
383.304	19.74
383.514	16.95
383.724	12.21
383.934	10.79
384.144	14.67
384.353	8.34
384.563	6.49
384.773	13.34
384.983	7.93
385.193	5.79
385.403	7.96
385.613	12.06
385.823	12.12
386.033	11.58
386.242	17.78
386.452	19.78
386.662	22.35
386.872	20.1
387.082	21.64
387.291	17.19
387.501	14.17
387.711	10.62
387.921	12.18
388.13	13.71
388.34	11.6
388.55	15.66
388.759	16.16
388.969	11.87
389.179	9.12
389.388	7.86
389.598	5.79
389.807	4.49
390.017	8.43
390.227	9.49
390.436	11.74
390.646	7.8
390.855	6.79
391.065	4.45
391.274	5.33
391.484	5.97
391.693	7.65
391.903	9.01
392.112	11.03
392.322	9.19
392.531	6.98
392.74	7.21
392.95	8.27
393.159	6.54
393.369	6.51
393.578	7.37
393.787	7.88
393.997	6.7
394.206	6.74
394.415	6.79
394.625	6.53
394.834	6.26
395.043	6.3
395.252	6.59
395.462	6.6
395.671	5.45
395.88	5.17
396.089	4.95
396.298	5.16
396.508	5.02
396.717	6.27
396.926	6.03
397.135	5.39
397.344	5.45
397.553	4.92
397.762	4.41
397.971	4.25
398.181	4.35
398.39	4.3
398.599	4.54
398.808	4.68
399.017	4.31
399.226	4.13
399.435	3.53
399.644	3.53
399.853	3.16
400.062	3.58
400.27	4.06
400.479	4.5
400.688	4.63
400.897	5.07
401.106	5.11
401.315	5.11
401.524	5.29
401.733	4.84
401.941	4.37
402.15	4.33
402.359	4.24
402.568	3.6
402.777	3.6
402.985	3.93
403.194	3.92
403.403	3.84
403.612	4.01
403.82	4.18
404.029	4.08
404.238	4.21
404.446	4.13
404.655	3.99
404.864	3.94
405.072	4.04
405.281	3.85
405.489	4.02
405.698	4.24
405.906	4.5
406.115	4.38
406.324	4.47
406.532	4.34
406.741	4.17
406.949	3.89
407.158	3.94
407.366	3.81
407.574	3.74
407.783	3.84
407.991	3.92
408.2	3.64
408.408	3.61
408.617	3.72
408.825	3.75
409.033	3.74
409.242	3.9
409.45	3.83
409.658	3.82
409.867	3.78
410.075	3.76
410.283	3.82
410.491	4
410.7	3.98
410.908	3.88
411.116	3.73
411.324	3.68
411.533	3.49
411.741	3.38
411.949	3.22
412.157	3.3
412.365	3.31
412.573	3.48
412.781	3.44
412.99	3.74
413.198	3.7
413.406	3.66
413.614	3.51
413.822	3.59
414.03	3.46
414.238	3.56
414.446	3.5
414.654	3.66
414.862	3.57
415.07	3.52
415.278	3.4
415.486	3.46
415.694	3.49
415.902	3.58
416.109	3.57
416.317	3.63
416.525	3.55
416.733	3.37
416.941	3.31
417.149	3.33
417.357	3.24
417.564	3.21
417.772	3.14
417.98	3.23
418.188	3.3
418.395	3.38
418.603	3.42
418.811	3.61
419.019	3.51
419.226	3.34
419.434	3.16
419.642	3.16
419.849	3
420.057	2.95
420.265	2.98
420.472	3.21
420.68	3.14
420.887	3.34
421.095	3.19
421.302	3.26
421.51	3.06
421.717	3.17
421.925	2.9
422.132	3.03
422.34	3.13
422.547	3.17
422.755	3.09
422.962	3.24
423.17	3.33
423.377	3.35
423.585	3.38
423.792	3.37
423.999	3.21
424.207	3.18
424.414	2.88
424.621	2.64
424.829	2.65
425.036	2.88
425.243	2.89
425.451	2.98
425.658	3.25
425.865	3.33
426.072	3.09
426.28	2.97
426.487	2.99
426.694	2.9
426.901	2.84
427.108	3.06
427.315	3.26
427.523	3.19
427.73	3.26
427.937	3.4
428.144	3.34
428.351	3.13
428.558	3.15
428.765	3.14
428.972	3.01
429.179	2.81
429.386	2.89
429.593	3.09
429.8	3.28
430.007	3.34
430.214	3.46
430.421	3.56
430.628	3.35
430.835	3.34
431.042	3.27
431.249	3.23
431.456	3.22
431.662	3.37
431.869	3.34
432.076	3.41
432.283	3.4
432.49	3.34
432.697	3.41
432.903	3.45
433.11	3.41
433.317	3.44
433.524	3.41
433.73	3.52
433.937	3.17
434.144	3.19
434.35	3.17
434.557	3.37
434.764	3.37
434.97	3.85
435.177	3.93
435.384	4.01
435.59	4.03
435.797	3.84
436.003	3.52
436.21	3.46
436.416	3.46
436.623	3.31
436.829	3.21
437.036	3.25
437.242	3.35
437.449	3.17
437.655	3.25
437.862	3.39
438.068	3.47
438.275	3.44
438.481	3.61
438.687	3.71
438.894	3.87
439.1	3.92
439.307	3.8
439.513	3.82
439.719	3.78
439.926	3.66
440.132	3.76
440.338	3.88
440.544	3.79
440.751	3.82
440.957	3.79
441.163	3.7
441.369	3.71
441.575	3.94
441.782	3.98
441.988	4.2
442.194	4.23
442.4	4.3
442.606	4.18
442.812	4.26
443.018	4.05
443.224	3.98
443.431	3.85
443.637	3.99
443.843	3.96
444.049	4.03
444.255	4.3
444.461	4.46
444.667	4.45
444.873	4.33
445.079	4.42
445.284	4.23
445.49	4.24
445.696	4.27
445.902	4.33
446.108	4.36
446.314	4.39
446.52	4.46
446.726	4.52
446.931	4.53
447.137	4.55
447.343	4.59
447.549	4.61
447.755	4.51
447.96	4.55
448.166	4.52
448.372	4.44
448.578	4.35
448.783	4.41
448.989	4.46
449.195	4.48
449.4	4.59
449.606	4.68
449.812	4.7
450.017	4.6
450.223	4.59
450.428	4.68
450.634	4.65
450.84	4.66
451.045	4.81
451.251	4.91
451.456	4.84
451.662	4.68
451.867	4.56
452.073	4.54
452.278	4.44
452.483	4.33
452.689	4.47
452.894	4.6
453.1	4.52
453.305	4.62
453.51	4.78
453.716	4.85
453.921	4.88
454.127	4.89
454.332	4.9
454.537	4.78
454.742	4.71
454.948	4.67
455.153	4.77
455.358	4.69
455.563	4.59
455.769	4.61
455.974	4.55
456.179	4.44
456.384	4.44
456.589	4.69
456.795	4.7
457	4.8
457.205	4.84
457.41	4.9
457.615	4.84
457.82	4.81
458.025	4.76
458.23	4.8
458.435	4.68
458.64	4.72
458.845	4.73
459.05	4.68
459.255	4.71
459.46	4.82
459.665	4.79
459.87	4.88
460.075	4.95
460.28	5.01
460.485	4.97
460.69	4.96
460.895	4.97
461.099	4.91
461.304	4.81
461.509	4.86
461.714	4.94
461.919	4.91
462.123	5.02
462.328	5.08
462.533	5.13
462.738	5.12
462.942	5.11
463.147	5.15
463.352	4.97
463.556	5.04
463.761	4.99
463.966	4.95
464.17	4.91
464.375	5.16
464.58	5.14
464.784	5.18
464.989	5.33
465.193	5.35
465.398	5.36
465.602	5.26
465.807	5.32
466.011	5.22
466.216	5.22
466.42	5.16
466.625	5.28
466.829	5.32
467.034	5.42
467.238	5.4
467.443	5.5
467.647	5.48
467.851	5.52
468.056	5.52
468.26	5.62
468.464	5.58
468.669	5.54
468.873	5.53
469.077	5.51
469.282	5.56
469.486	5.46
469.69	5.52
469.894	5.54
470.099	5.55
470.303	5.39
470.507	5.53
470.711	5.61
470.915	5.64
471.119	5.73
471.324	5.93
471.528	6
471.732	5.92
471.936	6.03
472.14	5.86
472.344	5.89
472.548	5.76
472.752	5.77
472.956	5.62
473.16	5.84
473.364	5.81
473.568	5.98
473.772	5.96
473.976	6.1
474.18	6.15
474.384	6.23
474.588	6.22
474.792	6.5
474.995	6.48
475.199	6.4
475.403	6.33
475.607	6.32
475.811	6.28
476.015	6.21
476.218	6.22
476.422	6.32
476.626	6.36
476.83	6.3
477.033	6.46
477.237	6.46
477.441	6.37
477.644	6.28
477.848	6.29
478.052	6.27
478.255	6.33
478.459	6.4
478.663	6.43
478.866	6.51
479.07	6.51
479.273	6.59
479.477	6.58
479.681	6.6
479.884	6.56
480.088	6.6
480.291	6.52
480.495	6.53
480.698	6.64
480.901	6.58
481.105	6.55
481.308	6.61
481.512	6.68
481.715	6.61
481.919	6.72
482.122	6.74
482.325	6.77
482.529	6.76
482.732	6.79
482.935	6.8
483.138	6.8
483.342	6.72
483.545	6.68
483.748	6.59
483.952	6.55
484.155	6.51
484.358	6.55
484.561	6.62
484.764	6.73
484.967	6.72
485.171	6.81
485.374	6.89
485.577	6.87
485.78	6.85
485.983	6.88
486.186	6.88
486.389	6.84
486.592	6.86
486.795	6.84
486.998	6.88
487.201	6.87
487.404	6.86
487.607	6.86
487.81	6.86
488.013	6.82
488.216	6.81
488.419	6.85
488.622	6.91
488.825	6.91
489.028	6.94
489.231	6.95
489.433	6.92
489.636	6.84
489.839	6.92
490.042	6.99
490.245	7.11
490.447	7.14
490.65	7.16
490.853	7.11
491.056	7.1
491.258	7
491.461	6.98
491.664	6.96
491.866	6.95
492.069	6.87
492.272	6.9
492.474	6.88
492.677	6.93
492.879	6.93
493.082	6.91
493.285	6.85
493.487	6.93
493.69	7.02
493.892	7.11
494.095	7.17
494.297	7.3
494.5	7.27
494.702	7.23
494.905	7.22
495.107	7.22
495.309	7.17
495.512	7.19
495.714	7.18
495.917	7.15
496.119	7.13
496.321	7.12
496.524	7.17
496.726	7.24
496.928	7.25
497.13	7.34
497.333	7.38
497.535	7.36
497.737	7.38
497.939	7.44
498.142	7.49
498.344	7.51
498.546	7.49
498.748	7.48
498.95	7.52
499.152	7.47
499.355	7.52
499.557	7.5
499.759	7.47
499.961	7.45
500.163	7.46
500.365	7.46
500.567	7.42
500.769	7.48
500.971	7.53
501.173	7.57
501.375	7.57
501.577	7.69
501.779	7.74
501.981	7.74
502.183	7.78
502.385	7.82
502.587	7.8
502.788	7.71
502.99	7.69
503.192	7.78
503.394	7.81
503.596	7.82
503.798	7.91
503.999	7.99
504.201	7.89
504.403	7.87
504.605	7.91
504.806	7.97
505.008	7.94
505.21	7.96
505.411	7.99
505.613	8.05
505.815	8.07
506.016	8.06
506.218	8.02
506.42	8.01
506.621	8.02
506.823	7.99
507.024	8.06
507.226	8.23
507.427	8.22
507.629	8.28
507.83	8.33
508.032	8.33
508.233	8.28
508.435	8.37
508.636	8.33
508.838	8.31
509.039	8.35
509.24	8.36
509.442	8.38
509.643	8.42
509.845	8.41
510.046	8.38
510.247	8.39
510.448	8.37
510.65	8.38
510.851	8.4
511.052	8.43
511.254	8.55
511.455	8.47
511.656	8.42
511.857	8.41
512.058	8.46
512.26	8.4
512.461	8.52
512.662	8.57
512.863	8.6
513.064	8.68
513.265	8.67
513.466	8.66
513.667	8.67
513.868	8.74
514.069	8.64
514.27	8.63
514.471	8.64
514.672	8.65
514.873	8.66
515.074	8.69
515.275	8.78
515.476	8.91
515.677	8.99
515.878	8.96
516.079	9.01
516.28	8.95
516.481	8.82
516.682	8.83
516.882	8.95
517.083	8.96
517.284	9.08
517.485	9.16
517.686	9.11
517.886	9.07
518.087	9.04
518.288	9
518.488	9.09
518.689	9.09
518.89	9.16
519.091	9.2
519.291	9.18
519.492	9.11
519.692	9.17
519.893	9.03
520.094	9.09
520.294	9.17
520.495	9.2
520.695	9.21
520.896	9.37
521.096	9.35
521.297	9.32
521.497	9.34
521.698	9.37
521.898	9.35
522.099	9.37
522.299	9.4
522.499	9.41
522.7	9.42
522.9	9.5
523.101	9.38
523.301	9.44
523.501	9.44
523.702	9.45
523.902	9.36
524.102	9.46
524.302	9.46
524.503	9.51
524.703	9.53
524.903	9.61
525.103	9.68
525.304	9.64
525.504	9.65
525.704	9.65
525.904	9.66
526.104	9.69
526.304	9.74
526.504	9.66
526.705	9.72
526.905	9.68
527.105	9.68
527.305	9.68
527.505	9.81
527.705	9.82
527.905	9.87
528.105	9.85
528.305	9.9
528.505	9.88
528.705	9.86
528.905	9.93
529.105	9.91
529.304	9.89
529.504	9.92
529.704	9.99
529.904	9.97
530.104	10.06
530.304	10.08
530.503	10.12
530.703	10.11
530.903	10.12
531.103	10.09
531.303	10.08
531.502	10.1
531.702	10.1
531.902	10.08
532.101	10.15
532.301	10.2
532.501	10.18
532.7	10.24
532.9	10.29
533.1	10.25
533.299	10.33
533.499	10.33
533.698	10.32
533.898	10.33
534.097	10.4
534.297	10.27
534.496	10.27
534.696	10.3
534.895	10.36
535.095	10.36
535.294	10.48
535.494	10.52
535.693	10.49
535.892	10.48
536.092	10.49
536.291	10.54
536.491	10.61
536.69	10.71
536.889	10.81
537.088	10.86
537.288	10.77
537.487	10.78
537.686	10.69
537.886	10.66
538.085	10.68
538.284	10.71
538.483	10.73
538.682	10.78
538.882	10.77
539.081	10.74
539.28	10.81
539.479	10.8
539.678	10.82
539.877	10.82
540.076	10.94
540.275	10.95
540.474	10.92
540.673	11.02
540.872	11.05
541.071	11.09
541.27	11.19
541.469	11.24
541.668	11.2
541.867	11.3
542.066	11.25
542.265	11.25
542.464	11.4
542.663	11.51
542.862	11.48
543.06	11.52
543.259	11.54
543.458	11.5
543.657	11.48
543.856	11.56
544.054	11.6
544.253	11.65
544.452	11.76
544.651	11.79
544.849	11.85
545.048	11.92
545.247	12.01
545.445	11.99
545.644	12.14
545.843	12.17
546.041	12.14
546.24	12.08
546.438	12.13
546.637	12.15
546.836	12.15
547.034	12.22
547.233	12.34
547.431	12.44
547.63	12.48
547.828	12.53
548.027	12.63
548.225	12.65
548.423	12.66
548.622	12.71
548.82	12.79
549.019	12.86
549.217	12.85
549.415	12.92
549.614	12.98
549.812	13.03
550.01	13.16
550.209	13.29
550.407	13.38
550.605	13.4
550.803	13.45
551.002	13.49
551.2	13.59
551.398	13.59
551.596	13.7
551.794	13.83
551.993	13.88
552.191	13.99
552.389	14.1
552.587	14.2
552.785	14.28
552.983	14.27
553.181	14.32
553.379	14.41
553.577	14.45
553.775	14.52
553.973	14.62
554.171	14.68
554.369	14.79
554.567	14.89
554.765	14.98
554.963	15.02
555.161	15.17
555.359	15.26
555.557	15.36
555.755	15.41
555.952	15.57
556.15	15.63
556.348	15.67
556.546	15.68
556.744	15.76
556.941	15.8
557.139	15.82
557.337	15.93
557.535	16.06
557.732	16.19
557.93	16.26
558.128	16.4
558.325	16.47
558.523	16.52
558.721	16.54
558.918	16.72
559.116	16.84
559.313	16.86
559.511	17.07
559.708	17.26
559.906	17.3
560.104	17.34
560.301	17.5
560.498	17.51
560.696	17.57
560.893	17.69
561.091	17.77
561.288	17.91
561.486	18.05
561.683	18.08
561.88	18.13
562.078	18.19
562.275	18.24
562.473	18.28
562.67	18.37
562.867	18.44
563.064	18.56
563.262	18.67
563.459	18.78
563.656	18.81
563.853	18.96
564.051	19.15
564.248	19.21
564.445	19.29
564.642	19.45
564.839	19.59
565.036	19.53
565.234	19.57
565.431	19.7
565.628	19.75
565.825	19.73
566.022	19.84
566.219	20
566.416	19.99
566.613	20.14
566.81	20.29
567.007	20.41
567.204	20.49
567.401	20.61
567.598	20.65
567.795	20.71
567.991	20.72
568.188	20.72
568.385	20.61
568.582	20.81
568.779	20.81
568.976	20.99
569.172	21
569.369	21.21
569.566	21.13
569.763	21.09
569.96	21.08
570.156	21.18
570.353	21.19
570.55	21.25
570.746	21.39
570.943	21.46
571.14	21.58
571.336	21.64
571.533	21.7
571.729	21.77
571.926	21.8
572.123	21.77
572.319	21.8
572.516	21.82
572.712	21.88
572.909	21.89
573.105	21.84
573.302	21.87
573.498	21.86
573.695	21.85
573.891	21.87
574.087	22.02
574.284	22.09
574.48	22.17
574.677	22.2
574.873	22.28
575.069	22.32
575.266	22.34
575.462	22.23
575.658	22.16
575.854	22.16
576.051	22.1
576.247	22.12
576.443	22.21
576.639	22.38
576.835	22.32
577.032	22.33
577.228	22.3
577.424	22.3
577.62	22.19
577.816	22.24
578.012	22.19
578.208	22.15
578.404	22.25
578.6	22.32
578.796	22.35
578.993	22.43
579.189	22.49
579.384	22.46
579.58	22.4
579.776	22.43
579.972	22.45
580.168	22.49
580.364	22.43
580.56	22.5
580.756	22.5
580.952	22.46
581.148	22.43
581.343	22.42
581.539	22.39
581.735	22.32
581.931	22.21
582.127	22.29
582.322	22.31
582.518	22.26
582.714	22.3
582.909	22.41
583.105	22.27
583.301	22.27
583.496	22.25
583.692	22.16
583.888	22.12
584.083	22.1
584.279	22.08
584.474	21.99
584.67	22.05
584.866	22.05
585.061	22.24
585.257	22.25
585.452	22.34
585.648	22.31
585.843	22.39
586.039	22.33
586.234	22.35
586.429	22.38
586.625	22.35
586.82	22.3
587.015	22.23
587.211	22.2
587.406	22.25
587.601	22.32
587.797	22.3
587.992	22.33
588.187	22.31
588.383	22.25
588.578	22.28
588.773	22.34
588.968	22.28
589.163	22.44
589.359	22.52
589.554	22.48
589.749	22.5
589.944	22.59
590.139	22.41
590.334	22.39
590.529	22.42
590.724	22.51
590.919	22.45
591.114	22.6
591.309	22.61
591.504	22.63
591.699	22.66
591.894	22.77
592.089	22.84
592.284	22.87
592.479	22.95
592.674	22.97
592.869	23.06
593.064	23.07
593.259	23.18
593.454	23.16
593.648	23.27
593.843	23.39
594.038	23.49
594.233	23.49
594.428	23.65
594.622	23.79
594.817	23.74
595.012	23.8
595.206	23.95
595.401	23.94
595.596	23.83
595.79	23.93
595.985	23.94
596.18	23.97
596.374	24.04
596.569	24.09
596.763	24.18
596.958	24.3
597.153	24.31
597.347	24.4
597.542	24.52
597.736	24.59
597.931	24.57
598.125	24.69
598.319	24.83
598.514	24.92
598.708	24.98
598.903	25.06
599.097	25.13
599.291	25.14
599.486	25.16
599.68	25.22
599.874	25.32
600.069	25.31
600.263	25.38
600.457	25.37
600.651	25.31
600.846	25.44
601.04	25.52
601.234	25.49
601.428	25.48
601.622	25.57
601.817	25.4
602.011	25.42
602.205	25.48
602.399	25.58
602.593	25.67
602.787	25.72
602.981	25.83
603.175	25.87
603.369	25.97
603.563	25.84
603.757	25.97
603.951	25.82
604.145	25.87
604.339	25.74
604.533	25.81
604.727	25.78
604.921	25.8
605.115	25.78
605.309	25.8
605.502	25.77
605.696	25.71
605.89	25.73
606.084	25.62
606.278	25.65
606.471	25.69
606.665	25.69
606.859	25.64
607.053	25.69
607.246	25.54
607.44	25.39
607.634	25.38
607.827	25.4
608.021	25.27
608.214	25.35
608.408	25.3
608.602	25.28
608.795	25.29
608.989	25.24
609.182	25.04
609.376	24.94
609.569	24.8
609.763	24.64
609.956	24.62
610.15	24.66
610.343	24.76
610.537	24.71
610.73	24.66
610.923	24.58
611.117	24.57
611.31	24.39
611.504	24.37
611.697	24.33
611.89	24.25
612.083	24.13
612.277	24.17
612.47	24.07
612.663	23.94
612.856	23.8
613.05	23.74
613.243	23.64
613.436	23.54
613.629	23.6
613.822	23.62
614.015	23.58
614.209	23.51
614.402	23.5
614.595	23.42
614.788	23.36
614.981	23.27
615.174	23.25
615.367	23.13
615.56	23.01
615.753	23.04
615.946	23.04
616.139	22.92
616.332	22.92
616.525	22.83
616.718	22.73
616.911	22.68
617.103	22.65
617.296	22.63
617.489	22.67
617.682	22.69
617.875	22.55
618.067	22.49
618.26	22.42
618.453	22.28
618.646	22.14
618.838	22.09
619.031	22.05
619.224	22.17
619.417	22.26
619.609	22.37
619.802	22.4
619.994	22.43
620.187	22.25
620.38	22.14
620.572	22
620.765	21.92
620.957	21.9
621.15	21.9
621.342	21.86
621.535	21.75
621.727	21.79
621.92	21.82
622.112	21.83
622.305	21.79
622.497	21.93
622.69	21.98
622.882	21.92
623.074	21.81
623.267	21.86
623.459	21.75
623.651	21.71
623.844	21.68
624.036	21.77
624.228	21.76
624.42	21.81
624.613	21.77
624.805	21.74
624.997	21.64
625.189	21.58
625.381	21.52
625.574	21.47
625.766	21.39
625.958	21.37
626.15	21.28
626.342	21.22
626.534	21.11
626.726	21.11
626.918	21.14
627.11	21.17
627.302	21.15
627.494	21.26
627.686	21.33
627.878	21.24
628.07	21.13
628.262	21.04
628.454	20.85
628.646	20.72
628.838	20.62
629.029	20.69
629.221	20.58
629.413	20.61
629.605	20.59
629.797	20.68
629.989	20.55
630.18	20.64
630.372	20.53
630.564	20.44
630.755	20.32
630.947	20.37
631.139	20.41
631.33	20.46
631.522	20.44
631.714	20.39
631.905	20.39
632.097	20.24
632.289	20.27
632.48	20.22
632.672	20.17
632.863	20.1
633.055	20.09
633.246	19.96
633.438	19.88
633.629	19.89
633.821	19.89
634.012	19.82
634.203	19.82
634.395	19.84
634.586	19.88
634.777	19.8
634.969	19.84
635.16	19.84
635.351	19.85
635.543	19.76
635.734	19.78
635.925	19.84
636.117	19.79
636.308	19.76
636.499	19.79
636.69	19.79
636.881	19.72
637.073	19.68
637.264	19.61
637.455	19.55
637.646	19.44
637.837	19.39
638.028	19.41
638.219	19.45
638.41	19.45
638.601	19.49
638.792	19.41
638.983	19.4
639.174	19.31
639.365	19.19
639.556	19.14
639.747	19.17
639.938	19.1
640.129	19.09
640.32	19.07
640.511	18.98
640.701	18.94
640.892	18.89
641.083	18.77
641.274	18.7
641.465	18.63
641.655	18.58
641.846	18.61
642.037	18.69
642.228	18.68
642.418	18.66
642.609	18.66
642.8	18.56
642.99	18.41
643.181	18.28
643.372	18.2
643.562	18.08
643.753	18.07
643.943	18.13
644.134	18.22
644.324	18.21
644.515	18.28
644.705	18.16
644.896	18.11
645.086	18.01
645.277	17.97
645.467	17.98
645.658	18.02
645.848	18.02
646.038	18.05
646.229	18.17
646.419	18.08
646.61	18.01
646.8	18.04
646.99	18.01
647.18	17.89
647.371	17.79
647.561	17.88
647.751	17.85
647.941	17.92
648.132	18.05
648.322	18.12
648.512	18.07
648.702	17.97
648.892	17.8
649.082	17.68
649.272	17.69
649.462	17.59
649.653	17.63
649.843	17.74
650.033	17.68
650.223	17.56
650.413	17.58
650.603	17.51
650.793	17.41
650.983	17.48
651.172	17.47
651.362	17.41
651.552	17.39
651.742	17.4
651.932	17.28
652.122	17.24
652.312	17.22
652.502	17.16
652.691	17.09
652.881	17.02
653.071	16.97
653.261	16.91
653.45	16.78
653.64	16.71
653.83	16.67
654.019	16.61
654.209	16.42
654.399	16.44
654.588	16.32
654.778	16.19
654.968	16.09
655.157	16
655.347	15.92
655.536	15.88
655.726	15.69
655.915	15.55
656.105	15.47
656.294	15.27
656.484	15.13
656.673	15.2
656.863	15.2
657.052	15.22
657.241	15.25
657.431	15.19
657.62	14.96
657.809	14.79
657.999	14.59
658.188	14.41
658.377	14.24
658.567	14.17
658.756	14.01
658.945	13.91
659.134	13.73
659.324	13.48
659.513	13.36
659.702	13.19
659.891	12.98
660.08	12.8
660.269	12.7
660.458	12.49
660.648	12.46
660.837	12.39
661.026	12.32
661.215	12.31
661.404	12.27
661.593	11.99
661.782	11.85
661.971	11.67
662.16	11.43
662.349	11.18
662.538	11.12
662.726	10.95
662.915	10.92
663.104	10.87
663.293	10.79
663.482	10.67
663.671	10.64
663.86	10.49
664.048	10.36
664.237	10.27
664.426	10.16
664.615	9.96
664.803	9.84
664.992	9.73
665.181	9.67
665.369	9.66
665.558	9.61
665.747	9.53
665.935	9.55
666.124	9.5
666.312	9.42
666.501	9.47
666.69	9.51
666.878	9.38
667.067	9.3
667.255	9.27
667.444	8.92
667.632	8.8
667.82	8.76
668.009	8.77
668.197	8.76
668.386	8.91
668.574	8.92
668.762	8.94
668.951	8.93
669.139	9.02
669.327	9.2
669.516	9.07
669.704	9.16
669.892	9.17
670.08	8.94
670.269	8.85
670.457	8.94
670.645	8.86
670.833	8.85
671.021	8.84
671.21	8.9
671.398	8.85
671.586	8.91
671.774	9.01
671.962	9.24
672.15	9.3
672.338	9.6
672.526	9.7
672.714	9.72
672.902	9.73
673.09	9.72
673.278	9.53
673.466	9.49
673.654	9.54
673.842	9.64
674.03	9.63
674.218	9.93
674.405	10.04
674.593	10.09
674.781	9.98
674.969	10.07
675.157	9.9
675.344	9.94
675.532	10
675.72	10.25
675.908	10.35
676.095	10.56
676.283	10.66
676.471	10.67
676.658	10.76
676.846	10.86
677.033	10.88
677.221	11.04
677.409	11.21
677.596	11.41
677.784	11.39
677.971	11.65
678.159	11.65
678.346	11.68
678.534	11.7
678.721	11.78
678.909	11.76
679.096	11.94
679.283	12.02
679.471	12.17
679.658	12.41
679.846	12.59
680.033	12.58
680.22	12.76
680.408	12.79
680.595	12.87
680.782	12.97
680.969	13.07
681.157	13.3
681.344	13.37
681.531	13.56
681.718	13.66
681.905	13.92
682.093	13.96
682.28	14.16
682.467	14.44
682.654	14.59
682.841	14.98
683.028	15.25
683.215	15.48
683.402	15.67
683.589	15.98
683.776	16.14
683.963	16.34
684.15	16.46
684.337	16.74
684.524	17.04
684.711	17.12
684.898	17.54
685.085	17.99
685.271	18.25
685.458	18.46
685.645	18.79
685.832	18.98
686.019	19.35
686.205	19.66
686.392	20.14
686.579	20.57
686.766	20.84
686.952	21.08
687.139	21.39
687.326	21.78
687.512	22.1
687.699	22.55
687.886	23.08
688.072	23.61
688.259	24.02
688.445	24.73
688.632	25.4
688.818	25.68
689.005	26.14
689.191	26.61
689.378	27.03
689.564	27.34
689.751	28.06
689.937	28.56
690.124	29.06
690.31	29.38
690.496	30.03
690.683	30.54
690.869	31.1
691.055	31.63
691.242	32.3
691.428	32.68
691.614	33.2
691.8	34
691.987	34.64
692.173	35.28
692.359	36.03
692.545	36.83
692.731	37.26
692.918	38.11
693.104	38.63
693.29	39.18
693.476	39.71
693.662	40.26
693.848	40.56
694.034	41.38
694.22	42.06
694.406	42.65
694.592	43.17
694.778	43.94
694.964	44.18
695.15	44.79
695.336	45.46
695.522	45.89
695.708	46.42
695.894	47.04
696.08	47.72
696.265	48.27
696.451	49.12
696.637	49.56
696.823	50.28
697.009	50.83
697.194	51.21
697.38	51.62
697.566	52.32
697.751	53.01
697.937	53.32
698.123	53.82
698.308	54.24
698.494	54.9
698.68	54.87
698.865	55.13
699.051	55.35
699.236	56.04
699.422	56.24
699.607	57.12
699.793	57.77
699.978	58.6
700.164	59.13
700.349	59.26
700.535	59.73
700.72	60.24
700.906	60.67
701.091	60.87
701.276	61.32
701.462	61.28
701.647	61.91
701.832	61.82
702.018	62.24
702.203	62.91
702.388	63.8
702.573	64.36
702.759	65.01
702.944	65.37
703.129	65.72
703.314	65.85
703.499	65.91
703.684	66.53
703.87	66.84
704.055	66.89
704.24	67.23
704.425	67.74
704.61	68
704.795	68.58
704.98	69.16
705.165	69.76
705.35	70.06
705.535	70.65
705.72	70.68
705.905	71.07
706.09	71.13
706.275	71.43
706.459	71.49
706.644	72.31
706.829	72.58
707.014	73.26
707.199	73.45
707.384	73.54
707.568	73.5
707.753	73.76
707.938	73.39
708.123	73.52
708.307	73.99
708.492	74.16
708.677	74.28
708.861	74.79
709.046	75.01
709.231	75.29
709.415	75.7
709.6	76.3
709.784	76.61
709.969	76.91
710.153	76.96
710.338	77.35
710.522	77.25
710.707	77.31
710.891	77.3
711.076	77.31
711.26	77.49
711.445	77.54
711.629	77.95
711.813	78.28
711.998	78.71
712.182	78.62
712.366	79.06
712.551	78.88
712.735	79.27
712.919	79.22
713.103	79.38
713.288	79.54
713.472	79.79
713.656	79.44
713.84	80.06
714.024	79.72
714.208	79.84
714.393	80.21
714.577	81.18
714.761	81.06
714.945	81.43
715.129	81.58
715.313	81.53
715.497	81.32
715.681	81.53
715.865	82.03
716.049	82.17
716.233	82.53
716.417	82.5
716.601	82.08
716.785	82.43
716.968	82.59
717.152	82.51
717.336	82.58
717.52	83.07
717.704	82.61
717.888	83
718.071	83.02
718.255	83.06
718.439	83.3
718.622	83.87
718.806	83.44
718.99	83.78
719.174	84.19
719.357	84.51
719.541	84.7
719.724	85.07
719.908	85.65
720.092	85.87
720.275	86.13
720.459	86.22
720.642	86.36
720.826	86.15
721.009	86.02
721.193	85.74
721.376	85.86
721.559	85.44
721.743	85.62
721.926	86.1
722.11	86.22
722.293	86.21
722.476	86.64
722.66	86.33
722.843	86.04
723.026	86.57
723.21	86.84
723.393	86.8
723.576	86.94
723.759	86.94
723.942	86.54
724.126	86.05
724.309	86.55
724.492	86.85
724.675	87.13
724.858	87.23
725.041	87.52
725.224	87.68
725.407	87.7
725.59	87.88
725.774	88.09
725.957	88.53
726.14	88.63
726.322	88.22
726.505	88.36
726.688	88.31
726.871	88.05
727.054	88.27
727.237	88.89
727.42	88.3
727.603	89.27
727.786	89.97
727.968	89.93
728.151	90.54
728.334	91.62
728.517	91.3
728.699	90.77
728.882	90.67
729.065	90.3
729.248	89.87
729.43	89.76
729.613	90.26
729.796	90.5
729.978	90.89
730.161	90.94
730.343	91.05
730.526	90.76
730.708	91.07
730.891	91.67
731.073	92.14
731.256	92.53
731.438	93.12
731.621	92.99
731.803	92.16
731.986	92.06
732.168	92.17
732.35	92.22
732.533	92.46
732.715	92.75
732.898	92.99
733.08	92.34
733.262	92.56
733.444	92.93
733.627	92.91
733.809	92.58
733.991	92.94
734.173	92.64
734.355	91.82
734.538	92.26
734.72	92.74
734.902	92.93
735.084	93.29
735.266	93.47
735.448	93.19
735.63	94.14
735.812	94.23
735.994	93.85
736.176	94.54
736.358	93.84
736.54	92.75
736.722	92.39
736.904	92.77
737.086	92.05
737.268	92.72
737.45	93.33
737.632	93.88
737.814	93.62
737.995	93.8
738.177	93.86
738.359	94.19
738.541	93.82
738.723	93.56
738.904	93.42
739.086	93.43
739.268	92.38
739.449	92.75
739.631	92.87
739.813	93.76
739.994	93.55
740.176	93.52
740.358	93.96
740.539	93.83
740.721	93.56
740.902	93.56
741.084	93.08
741.265	93.66
741.447	94.33
741.628	94.62
741.81	95.04
741.991	96.8
742.172	95.58
742.354	94.54
742.535	95.06
742.717	95.45
742.898	95.18
743.079	95.18
743.261	96.51
743.442	95.89
743.623	94.78
743.804	94.34
743.986	94.87
744.167	94.48
744.348	94.86
744.529	94.77
744.71	93.45
744.891	93.5
745.073	93.94
745.254	92.94
745.435	93.42
745.616	95.6
745.797	94.32
745.978	93.7
746.159	94.56
746.34	94.76
746.521	93.28
746.702	94.84
746.883	95.77
747.064	95.24
747.245	95.66
747.426	96.6
747.606	95.6
747.787	94.39
747.968	93.87
748.149	92.96
748.33	92.87
748.51	92.02
748.691	92.63
748.872	93.36
749.053	95.63
749.233	97.3
749.414	99.43
749.595	98.5
749.775	99.08
749.956	97.65
750.137	95.79
750.317	94.26
750.498	94.81
750.678	94.5
750.859	94.15
751.04	93.66
751.22	95.16
751.4	94.98
751.581	95.55
751.761	93.73
751.942	93.46
752.122	92.92
752.303	93.98
752.483	93.13
752.663	95.21
752.844	96.62
753.024	96.35
753.204	94.9
753.385	95.4
753.565	94.99
753.745	93.71
753.925	92.59
754.106	92.94
754.286	92.14
754.466	92.59
754.646	93.12
754.826	94.15
755.006	95.54
755.187	95.88
755.367	95.56
755.547	95.38
755.727	94.32
755.907	94.13
756.087	93.12
756.267	93.65
756.447	93.98
756.627	95.63
756.807	94.65
756.987	96.26
757.167	96.32
757.346	95.01
757.526	94
757.706	93.32
757.886	93.04
758.066	91.73
758.246	93.51
758.425	94.92
758.605	96.21
758.785	96.26
758.965	96.91
759.144	97.24
759.324	97.09
759.504	96.1
759.683	95.84
759.863	95.12
760.043	94.06
760.222	93.81
760.402	93.04
760.581	93
760.761	93.38
760.94	93.67
761.12	92.5
761.299	92.63
761.479	91.37
761.658	91.92
761.838	92.13
762.017	91.99
762.197	92.35
762.376	94.46
762.555	92.05
762.735	89.75
762.914	89.27
763.093	89.6
763.273	88.35
763.452	89.87
763.631	91.72
763.81	93.95
763.99	94.58
764.169	94.69
764.348	93.4
764.527	92.78
764.706	92.13
764.885	91.38
765.064	91.21
765.243	91.49
765.423	92.23
765.602	90.21
765.781	90.46
765.96	91.57
766.139	92.84
766.318	92.26
766.497	94.08
766.676	94.56
766.854	92.78
767.033	94.16
767.212	93.61
767.391	93.01
767.57	92.42
767.749	93.48
767.928	91.37
768.106	91.89
768.285	91.91
768.464	92.37
768.643	92
768.821	89.23
769	88.64
769.179	89.86
769.357	91.04
769.536	92.36
769.715	94.56
769.893	93.42
770.072	92.8
770.25	91.37
770.429	88.42
770.607	88.98
770.786	90.23
770.964	87.61
771.143	87.21
771.321	85.96
771.5	84.39
771.678	84.99
771.857	86.84
772.035	86.25
772.213	87.46
772.392	89.52
772.57	86.97
772.748	86.4
772.927	89.31
773.105	89.36
773.283	88.83
773.461	91.12
773.64	92.2
773.818	89.59
773.996	89.34
774.174	88.78
774.352	86.81
774.531	85.96
774.709	86.14
774.887	87.75
775.065	89.68
775.243	93.08
775.421	93.09
775.599	93.96
775.777	93.4
775.955	91.41
776.133	90.29
776.311	90.44
776.489	89.24
776.667	90.71
776.844	91.67
777.022	91.93
777.2	90.48
777.378	93.05
777.556	90.91
777.734	90.72
777.911	89.83
778.089	89.62
778.267	86.84
778.445	88.26
778.622	86.14
778.8	86.73
778.978	86.07
779.155	86.22
779.333	84.71
779.511	85.31
779.688	81.18
779.866	84.45
780.043	86.28
780.221	86.86
780.398	87.07
780.576	88.27
780.753	87.47
780.931	86.41
781.108	85.76
781.286	87.92
781.463	89.33
781.64	88.07
781.818	87.43
781.995	88.01
782.172	87.95
782.35	89.89
782.527	90.4
782.704	89.31
782.882	90.31
783.059	89.56
783.236	89.26
783.413	88.66
783.59	91.47
783.768	92.03
783.945	90.76
784.122	88.49
784.299	87.81
784.476	85.95
784.653	85.08
784.83	85.59
785.007	88.07
785.184	88.3
785.361	89.44
785.538	85.33
785.715	84.31
785.892	81.8
786.069	82.8
786.246	82.08
786.423	85.59
786.6	88.4
786.776	91.12
786.953	90.05
787.13	87.92
787.307	87.67
787.484	87.26
787.66	86.02
787.837	87.55
788.014	90.17
788.191	90.92
788.367	89.23
788.544	89.35
788.721	88.56
788.897	86.21
789.074	84.65
789.25	84.46
789.427	84.38
789.603	82.78
789.78	84.95
789.956	84.64
790.133	86.94
790.309	85.2
790.486	81.06
790.662	80.32
790.839	83.31
791.015	80.44
791.192	81.33
791.368	86.13
791.544	86.94
791.721	84.9
791.897	84.14
792.073	83.51
792.249	85.43
792.426	85.74
792.602	84.01
792.778	87.15
792.954	89.94
793.13	93.59
793.307	92.7
793.483	94.31
793.659	94.77
793.835	94.74
794.011	87.65
794.187	89.36
794.363	88.1
794.539	88.2
794.715	87.92
794.891	90.93
795.067	85.58
795.243	85.52
795.419	82.41
795.595	79.46
795.771	80.77
795.947	78.27
796.122	81.67
796.298	80.35
796.474	81.8
796.65	78.56
796.826	85.94
797.001	84.28
797.177	86.49
797.353	84.17
797.529	86.59
797.704	84.79
797.88	85.15
798.056	88.36
798.231	91.38
798.407	90.57
798.582	90.27
798.758	88.96
798.934	82.47
799.109	82.72
799.285	81.27
799.46	80.07
799.636	80.49
799.811	80.89
799.986	78.59
800.162	80.4
800.337	77.58
800.513	82.17
800.688	87.8
800.863	91.01
801.039	88.6
801.214	93.04
801.389	89.99
801.565	87.86
801.74	89.1
801.915	85.67
802.09	79.08
802.265	80.48
802.441	80.28
802.616	74.71
802.791	79.11
802.966	86.4
803.141	87.54
803.316	94.66
803.491	100.32
803.666	98.84
803.841	102.14
804.016	98.43
804.191	91.87
804.366	88.01
804.541	90.44
804.716	83.68
804.891	83.83
805.066	81.99
805.241	84.55
805.416	79.75
805.591	79.64
805.765	76.3
805.94	75.97
806.115	75.99
806.29	77.43
806.464	80.7
806.639	83.76
806.814	85.46
806.989	85.25
807.163	83.9
807.338	82.36
807.512	81.47
807.687	81.82
807.862	81.39
808.036	79.39
808.211	84.86
808.385	84.59
808.56	76.93
808.734	77.96
808.909	85.72
809.083	82.65
809.258	75.34
809.432	81.22
809.606	77.83
809.781	71.49
809.955	68.08
810.13	69.11
810.304	66.44
810.478	72.42
810.652	74.85
810.827	79.39
811.001	78.64
811.175	79.68
811.349	76.67
811.524	71.15
811.698	64.94
811.872	70.52
812.046	72.18
812.22	64.02
812.394	72.19
812.568	72.48
812.742	67.6
812.916	70.11
813.09	78.57
813.264	80.37
813.438	92.17
813.612	100.73
813.786	107.7
813.96	97.74
814.134	101.17
814.308	92.36
814.482	89.98
814.656	85.16
814.83	92.24
815.003	94.99
815.177	98.88
815.351	98.88
815.525	97.68
815.698	100.04
815.872	86.29
816.046	79.72
816.219	77.8
816.393	74.68
816.567	79.46
816.74	81.17
816.914	80.42
817.088	81.01
817.261	79.29
817.435	80.3
817.608	80.91
817.782	85.87
817.955	86.07
818.129	89.74
818.302	79.74
818.475	73.85
818.649	61.27
818.822	57.88
818.996	38.79
819.169	50.11
819.342	54.21
819.516	63.06
819.689	59.44
819.862	79.91
820.035	82.97
820.209	82.85
820.382	75.53
820.555	78.7
820.728	68.66
820.901	65.32
821.075	59.71
821.248	57.33
821.421	67.89
821.594	75.75
821.767	70.12
821.94	71.23
822.113	83.77
822.286	72.93
822.459	63.04
822.632	70.14
822.805	80.67
822.978	83.27
823.151	82.03
823.324	103.79
823.496	104.76
823.669	93.34
823.842	89.34
824.015	102.39
824.188	82.47
824.361	81.25
824.533	84.68
824.706	81.03
824.879	71.62
825.051	67.02
825.224	66.4
825.397	67.02
825.569	69.5
825.742	67.38
825.915	78.69
826.087	75.9
826.26	77.42
826.432	83.69
826.605	82.09
826.777	69.09
826.95	65.18
827.122	61.83
827.295	49.08
827.467	58.93
827.64	66.08
827.812	76.68
827.984	73.95
828.157	82.87
828.329	88.71
828.501	86.6
828.674	85.07
828.846	111.64
829.018	114.54
829.19	107.64
829.363	109.97
829.535	108.48
829.707	98.28
829.879	89.4
830.051	83.09
830.223	88.16
830.395	91.54
830.568	81.57
830.74	73.66
830.912	65.31
831.084	75.08
831.256	72.09
831.428	71.5
831.6	84.82
831.772	103.43
831.943	98.99
832.115	100.43
832.287	109.71
832.459	108.6
832.631	109.54
832.803	102.16
832.975	91.13
833.146	93.28
833.318	115.13
833.49	93.61
833.662	85.99
833.833	95.07
834.005	85.03
834.177	85.51
834.348	95.16
834.52	102.45
834.692	90.73
834.863	99.18
835.035	72.24
835.206	75.78
835.378	75.67
835.549	95.07
835.721	92.23
835.892	104.15
836.064	91.07
836.235	89.54
836.407	84.84
836.578	84.79
836.749	98.51
836.921	112.92
837.092	111
837.264	112.76
837.435	119.97
837.606	94.21
837.777	79.38
837.949	75.13
838.12	63.72
838.291	49.39
838.462	67.45
838.633	78.19
838.805	86
838.976	92.37
839.147	98.6
839.318	113.68
839.489	107.35
839.66	93.98
839.831	61.64
840.002	56.5
840.173	60.94
840.344	52.32
840.515	44.54
840.686	45.32
840.857	63.96
841.028	67.36
841.199	75.98
841.369	92.18
841.54	114.62
841.711	138.81
841.882	131.48
842.053	113.17
842.223	128.97
842.394	115.76
842.565	99.81
842.736	94.5
842.906	87.24
843.077	53.31
843.248	59.86
843.418	54.84
843.589	50.95
843.759	47.44
843.93	62.87
844.101	55.13
844.271	78.78
844.442	70.48
844.612	29.94
844.783	42.77
844.953	65.83
845.123	28.05
845.294	7.21
845.464	67.44
845.635	42.99
845.805	45.72
845.975	72.8
846.146	81.67
846.316	75.37
846.486	94.08
846.656	82.68
846.827	80.89
846.997	92.11
847.167	85.71
847.337	83.87
847.507	76.52
847.677	66.34
847.848	68.44
848.018	89.18
848.188	86.73
848.358	105
848.528	97.38
848.698	88.3
848.868	81.2
849.038	78.43
849.208	82.99
849.378	84.02
849.548	89.92
849.718	90.22
849.887	82.83
850.057	92.71
850.227	107.88
850.397	88.19
850.567	93.56
850.737	102.87
850.906	79.93
851.076	88.28
851.246	119.18
851.415	85.15
851.585	85.1
851.755	135.8
851.924	113.8
852.094	80.5
852.264	116.78
852.433	100.98
852.603	82.27
852.772	73.79
852.942	92.25
853.111	54.92
853.281	66.55
853.45	48.94
853.62	50.14
853.789	50.13
853.959	53.34
854.128	55.19
854.297	72.43
854.467	74.18
854.636	41.03
854.805	43.04
854.975	39.65
855.144	55.5
855.313	49.05
855.482	92.82
855.652	85.47
855.821	94.21
855.99	77.1
856.159	71.86
856.328	81.63
856.497	82.24
856.667	85.41
856.836	83
857.005	100.76
857.174	84.62
857.343	92.77
857.512	70
857.681	79.81
857.85	66.09
858.019	59.27
858.188	85.49
858.356	84.67
858.525	140.31
858.694	312.36
858.863	253.25
859.032	194.29
859.201	263.01
859.369	142.08
859.538	55.47
859.707	59.29
859.876	38.19
860.044	15.98
860.213	21.24
860.382	41.51
860.55	28.49
860.719	42.04
860.888	62.58
861.056	74.73
861.225	76.1
861.393	65.56
861.562	53.23
861.73	66.35
861.899	76.78
862.067	69.24
862.236	75.3
862.404	99.08
862.572	103.05
862.741	102.93
862.909	111.63
863.078	118.45
863.246	103.03
863.414	77.71
863.582	29.67
863.751	42.24
863.919	46.52
864.087	32.48
864.255	50.77
864.424	91.9
864.592	112.97
864.76	115.96
864.928	91.87
865.096	86.55
865.264	59.63
865.432	44
865.6	33.22
865.768	70
865.936	83.27
866.104	122.06
866.272	156.62
866.44	174.92
866.608	128.96
866.776	110.39
866.944	92.07
867.112	81.26
867.28	80.54
867.448	68.5
867.615	50.94
867.783	50.6
867.951	30.98
868.119	21.45
868.286	40.01
868.454	71.24
868.622	98.56
868.789	93.04
868.957	62.26
869.125	105.36
869.292	93.08
869.46	96.49
869.627	110.97
869.795	108.9
869.963	78.19
870.13	73.42
870.298	52.97
870.465	46.21
870.632	46.46
870.8	65.55
870.967	75.3
871.135	88.67
871.302	91.84
871.469	62.59
871.637	67.69
871.804	75.21
871.971	68.35
872.139	71.63
872.306	76.64
872.473	77.01
872.64	76.02
872.807	62.69
872.975	34.42
873.142	82.1
873.309	95
873.476	50.98
873.643	23.36
873.81	104.78
873.977	65.83
874.144	36.79
874.311	74.63
874.478	96.92
874.645	77.53
874.812	80.1
874.979	77.78
875.146	102.05
875.313	93.65
875.48	83.67
875.647	87.75
875.813	89.94
875.98	62.77
876.147	71.58
876.314	67.69
876.481	77.02
876.647	73.52
876.814	167.59
876.981	-462.57
877.147	-474.01
877.314	168.93
877.481	142.14
877.647	96.22
877.814	67.9
877.98	93.94
878.147	87.15
878.314	42.37
878.48	42.38
878.647	29.82
878.813	-81.33
878.979	-79.67
879.146	11.03
879.312	36.3
879.479	81.61
879.645	124.57
879.811	150.57
879.978	158.28
880.144	142.28
880.31	154.67
880.477	154.82
880.643	119.09
880.809	95.85
880.975	46.82
881.142	50.06
881.308	-70.28
881.474	15.73
881.64	47.8
881.806	85.35
881.972	87.65
882.138	59.07
882.304	12.14
882.47	49.28
882.636	-142.19
882.802	-145.61
882.968	-1.64
883.134	39.26
883.3	65.71
883.466	69.84
883.632	68.34
883.798	73.9
883.964	65.8
884.129	62.81
884.295	50.58
884.461	73.51
884.627	72.5
884.793	79.02
884.958	70.45
885.124	109.85
885.29	91.4
885.455	125.8
885.621	188.79
885.787	243.16
885.952	356.11
886.118	389.56
886.283	177.31
886.449	223.44
886.614	160.4
886.78	119.62
886.945	231.49
887.111	706.22
887.276	-4440.74
887.442	-999.05
887.607	326.46
887.773	192.16
887.938	111.09
888.103	79.33
888.269	94.31
888.434	129.81
888.599	69.84
888.764	112.43
888.93	185.9
889.095	147.27
889.26	145.97
889.425	-4280.95
889.59	-350.67
889.756	297.64
889.921	3197.44
890.086	-222.07
890.251	203.61
890.416	193.46
890.581	93.64
890.746	47.84
890.911	32.34
891.076	64.57
891.241	56.27
891.406	67.77
891.571	58.02
891.736	113.01
891.901	89.96
892.065	128.86
892.23	63.71
892.395	130.59
892.56	86.14
892.725	46.45
892.889	52.11
893.054	115.51
893.219	149.23
893.384	280.16
893.548	386.01
893.713	460.06
893.878	689.15
