Data from Ofav_PP_Phys_2JQ31_Reflection_2.txt Node
Date: Tue Aug 03 18:08:42 EDT 2021
User: Adam
Spectrometer: FLMT01687
Trigger mode: 0
Integration Time (sec): 8.750000E-1
Scans to average: 2
Electric dark correction enabled: true
Nonlinearity correction enabled: false
Boxcar width: 2
XAxis mode: Wavelengths
Number of Pixels in Spectrum: 3648
>>>>>Begin Spectral Data<<<<<
179.494	198.8
179.716	237.76
179.937	250.33
180.158	287.66
180.38	522.81
180.601	-30.8
180.823	-75.94
181.044	34.97
181.265	82.24
181.486	-58.71
181.708	26.95
181.929	-53.63
182.15	-17.29
182.372	51.48
182.593	67.51
182.814	98.17
183.035	397.16
183.257	956.86
183.478	88.3
183.699	1.61
183.92	14.59
184.141	41.94
184.363	41.49
184.584	-87.42
184.805	1.98
185.026	-1.68
185.247	-9.75
185.468	-8.12
185.689	5.16
185.91	-3.21
186.132	12.05
186.353	34.49
186.574	11.93
186.795	30.51
187.016	23.61
187.237	15.07
187.458	-0.84
187.679	17.45
187.9	19.43
188.121	17.57
188.342	17.6
188.563	15.4
188.784	8.21
189.005	-3.82
189.226	-1.8
189.447	23.87
189.667	30.66
189.888	64.09
190.109	73.05
190.33	64.79
190.551	39.03
190.772	33.26
190.993	-25.73
191.214	-16.1
191.434	-17.41
191.655	-15.5
191.876	2.54
192.097	24.96
192.318	26.53
192.538	44.49
192.759	42.07
192.98	21.46
193.201	23.94
193.421	12.24
193.642	-13.38
193.863	-1.23
194.083	36.12
194.304	49.42
194.525	58.25
194.745	59.11
194.966	57.95
195.187	31.25
195.407	26.15
195.628	10.49
195.848	16.55
196.069	26.07
196.29	18.56
196.51	18.16
196.731	41.11
196.951	31.11
197.172	41.65
197.392	82.48
197.613	57.9
197.833	72.83
198.054	96.9
198.274	61.08
198.495	39.43
198.715	51.78
198.936	58.79
199.156	49.54
199.377	59.15
199.597	64.96
199.817	75.67
200.038	57.81
200.258	80.02
200.479	70.39
200.699	59.4
200.919	-28.53
201.14	14.1
201.36	-4.12
201.58	-11.53
201.801	-21.08
202.021	-2.56
202.241	-14.77
202.461	-3.91
202.682	10.05
202.902	-2.75
203.122	16.31
203.342	2.54
203.563	21.31
203.783	35.03
204.003	47.68
204.223	49.52
204.443	55.3
204.663	30.36
204.884	30.87
205.104	20.54
205.324	15.62
205.544	-20.73
205.764	-1.66
205.984	-91.04
206.204	-68.04
206.424	-125.71
206.644	3.82
206.864	-5.37
207.084	26.88
207.304	35.3
207.525	48.72
207.745	25.93
207.964	25.13
208.184	52.94
208.404	58.01
208.624	60.85
208.844	54.83
209.064	63.43
209.284	65.71
209.504	48.51
209.724	21.76
209.944	5.47
210.164	-39.56
210.384	-38.3
210.604	-57
210.823	-77.48
211.043	9.82
211.263	52.53
211.483	51.81
211.703	72.42
211.922	64.72
212.142	54.1
212.362	37.23
212.582	36.37
212.801	18.47
213.021	5.48
213.241	32.75
213.461	60.26
213.68	62.93
213.9	43.93
214.12	42.63
214.339	31.57
214.559	33.21
214.779	7.27
214.998	25.01
215.218	43.26
215.438	28.53
215.657	15.38
215.877	25.43
216.096	22.6
216.316	13.15
216.535	-11.68
216.755	-24.08
216.974	5.17
217.194	8.49
217.413	40.17
217.633	46.78
217.852	51.87
218.072	59.63
218.291	40.06
218.511	18.5
218.73	33.7
218.95	22.95
219.169	17.58
219.389	39.83
219.608	37.26
219.827	12.09
220.047	14.67
220.266	9.89
220.485	12.34
220.705	21.1
220.924	29.03
221.143	33.88
221.363	42.5
221.582	33.61
221.801	35.35
222.021	51.58
222.24	45.66
222.459	-7.3
222.678	5.88
222.897	6.8
223.117	-45.37
223.336	-209.11
223.555	-35.96
223.774	-72.97
223.993	-68.37
224.213	-103.93
224.432	-33.01
224.651	-7.69
224.87	3.35
225.089	-14.1
225.308	17.17
225.527	6.04
225.746	-48.2
225.965	-37.09
226.184	-13.94
226.404	1.64
226.623	4.22
226.842	30.61
227.061	5.36
227.28	25.19
227.499	36.39
227.718	34.71
227.936	21.37
228.155	34.51
228.374	10.81
228.593	-7.72
228.812	-32.52
229.031	-4.46
229.25	15.18
229.469	-21.46
229.688	-47.76
229.907	-69.99
230.125	-85.57
230.344	-63.33
230.563	7.67
230.782	37.75
231.001	50.49
231.22	48.12
231.438	47.35
231.657	26.99
231.876	19.21
232.095	-13.76
232.313	-34.43
232.532	-62.64
232.751	-15.8
232.969	-17.34
233.188	-8.64
233.407	6.2
233.625	35.07
233.844	15.41
234.063	37.31
234.281	54.48
234.5	22.51
234.719	15.81
234.937	29.65
235.156	-3.1
235.374	-7.66
235.593	18.58
235.811	14.9
236.03	20.87
236.249	35.98
236.467	44.03
236.686	53.03
236.904	43.55
237.123	37.65
237.341	35.71
237.559	31.46
237.778	22.79
237.996	14.8
238.215	7.42
238.433	1.08
238.652	-1.12
238.87	10.96
239.088	11.41
239.307	11.5
239.525	22.65
239.743	18.22
239.962	13.8
240.18	29.74
240.398	41.74
240.617	43.39
240.835	36.72
241.053	18.85
241.271	-17.35
241.49	-27.67
241.708	-27.35
241.926	-18.66
242.144	-6.66
242.363	27.65
242.581	32.74
242.799	23.7
243.017	24.19
243.235	48.52
243.453	36.46
243.672	45.17
243.89	60.63
244.108	58.57
244.326	27.14
244.544	14.19
244.762	10.11
244.98	-13.95
245.198	4.1
245.416	34.79
245.634	29.21
245.852	27.27
246.07	29.11
246.288	15.9
246.506	10.68
246.724	26.43
246.942	23.8
247.16	33.24
247.378	24.7
247.596	22.75
247.814	26.9
248.032	19.99
248.25	10.9
248.468	7.89
248.685	13.16
248.903	-5.69
249.121	4.64
249.339	3.52
249.557	27
249.775	27.02
249.992	52.44
250.21	43.48
250.428	30.38
250.646	12.03
250.863	11.47
251.081	-24.44
251.299	-41.37
251.517	5.93
251.734	8.36
251.952	5.7
252.17	8.3
252.387	10.87
252.605	-46.82
252.823	-42.25
253.04	-64.32
253.258	0.87
253.475	27.96
253.693	37.29
253.911	52.27
254.128	59.43
254.346	35.93
254.563	15.64
254.781	20.7
254.998	13.13
255.216	11.61
255.433	7.71
255.651	20.03
255.868	-4.99
256.086	-31.64
256.303	-19.92
256.521	-4.98
256.738	-15.49
256.956	24.05
257.173	55.81
257.39	47.21
257.608	43.66
257.825	8.21
258.043	-56.48
258.26	-45.01
258.477	-26.56
258.695	-16.76
258.912	10.17
259.129	36.77
259.346	43.82
259.564	43.28
259.781	36.37
259.998	45.66
260.216	33.17
260.433	20.66
260.65	10.83
260.867	20.79
261.084	10.43
261.302	5.74
261.519	8.27
261.736	31.5
261.953	35.67
262.17	30.65
262.387	24.28
262.604	34.74
262.822	20.47
263.039	7.77
263.256	16.76
263.473	19.36
263.69	26.63
263.907	19.92
264.124	-1.79
264.341	-2.75
264.558	-8.43
264.775	-18.46
264.992	7.88
265.209	27.29
265.426	7.86
265.643	16.05
265.86	26.33
266.077	40.81
266.294	30.29
266.51	31.26
266.727	40.09
266.944	38.7
267.161	24.33
267.378	33.24
267.595	40.28
267.812	32.48
268.028	21.72
268.245	28.2
268.462	32.62
268.679	33.8
268.896	8.74
269.112	22.2
269.329	2.07
269.546	-33.02
269.763	-17.15
269.979	3.36
270.196	7.43
270.413	8.83
270.629	20.59
270.846	24.78
271.063	28.05
271.279	35.64
271.496	52.58
271.712	31.01
271.929	20.89
272.146	43.46
272.362	29.48
272.579	19.89
272.795	12.47
273.012	21.61
273.228	-5.11
273.445	-2.89
273.661	-2.79
273.878	14.71
274.094	12.9
274.311	12.76
274.527	-16.72
274.744	-14.93
274.96	-21.53
275.177	-39.25
275.393	-16.23
275.609	6.01
275.826	14.04
276.042	12.06
276.259	18.01
276.475	10.7
276.691	7.6
276.908	-4.1
277.124	9.09
277.34	10.88
277.557	6.25
277.773	16.73
277.989	25.26
278.205	18.45
278.422	10.38
278.638	17.28
278.854	15.07
279.07	13.57
279.286	29.21
279.503	35.61
279.719	31.42
279.935	40.9
280.151	32.32
280.367	13.57
280.583	-6.19
280.799	13.56
281.016	11.35
281.232	28.17
281.448	44.17
281.664	37.31
281.88	35.18
282.096	29
282.312	22.76
282.528	21.6
282.744	41.79
282.96	44.01
283.176	50.53
283.392	51.35
283.608	47.13
283.824	33.89
284.04	26.82
284.256	15.02
284.471	2.17
284.687	6.97
284.903	17.41
285.119	-2.94
285.335	-2.6
285.551	6.44
285.767	-3.98
285.982	-19.34
286.198	12.04
286.414	4.87
286.63	-3.74
286.846	-7.81
287.061	-0.43
287.277	-9.36
287.493	3.17
287.709	-2.31
287.924	5.79
288.14	-3.32
288.356	-15.77
288.571	-14.09
288.787	-4.7
289.003	-9.45
289.218	-24.19
289.434	8.77
289.65	22.1
289.865	37.26
290.081	24.21
290.296	43.23
290.512	29.14
290.727	-18.66
290.943	-14.96
291.159	8.78
291.374	3.95
291.59	23.71
291.805	38.36
292.021	58.91
292.236	64.15
292.451	58.24
292.667	52.29
292.882	40.91
293.098	9.75
293.313	2.77
293.529	-1.92
293.744	1.11
293.959	34.16
294.175	28.13
294.39	28.95
294.605	33.88
294.821	31.79
295.036	14.78
295.251	21.43
295.467	25.89
295.682	31.33
295.897	20.56
296.112	24.8
296.328	28.46
296.543	35.51
296.758	27.67
296.973	24.33
297.188	18.12
297.404	23.01
297.619	9.24
297.834	1.12
298.049	-1.52
298.264	14.94
298.479	-0.83
298.694	-3.72
298.909	8.36
299.125	17.1
299.34	-2.84
299.555	10.87
299.77	7.28
299.985	20.96
300.2	36.27
300.415	41.8
300.63	21.72
300.845	39.85
301.06	32.08
301.275	-2.8
301.49	17.66
301.704	25.56
301.919	32.12
302.134	35.14
302.349	38.22
302.564	39.48
302.779	28.27
302.994	18.23
303.209	10.41
303.423	2.91
303.638	4.07
303.853	22.74
304.068	26.74
304.283	36.17
304.497	45.66
304.712	60.95
304.927	58.54
305.142	66.06
305.356	61.98
305.571	60.85
305.786	46.53
306	49.01
306.215	33.44
306.43	39.79
306.644	23.57
306.859	3.51
307.074	-8.46
307.288	9.77
307.503	12.26
307.717	10.14
307.932	24.93
308.147	28.2
308.361	14.9
308.576	33.89
308.79	53.56
309.005	44.59
309.219	41.02
309.434	38.12
309.648	42.84
309.863	28.24
310.077	36.22
310.292	55.28
310.506	60.18
310.72	42.91
310.935	20.78
311.149	-0.2
311.364	-33.83
311.578	-64.17
311.792	-64.77
312.007	-33.02
312.221	5.73
312.435	26.53
312.649	41.2
312.864	39.18
313.078	19.66
313.292	12.84
313.507	11
313.721	9.58
313.935	-3.56
314.149	31.01
314.363	47.05
314.578	43.11
314.792	59.78
315.006	47.48
315.22	22.74
315.434	2.68
315.648	-10.77
315.862	-13.55
316.077	-0.7
316.291	15.95
316.505	30.98
316.719	26.36
316.933	28.83
317.147	18.59
317.361	3.47
317.575	-5.47
317.789	4.8
318.003	12.91
318.217	24.36
318.431	16.71
318.645	-0.83
318.859	-0.98
319.073	-16.99
319.287	2.46
319.5	23.98
319.714	42.05
319.928	49.36
320.142	45.22
320.356	39.16
320.57	35.11
320.784	26.47
320.997	11.62
321.211	20.85
321.425	12.01
321.639	10.22
321.853	-14.42
322.066	0.82
322.28	17.73
322.494	27.55
322.707	-3.8
322.921	21.23
323.135	3.97
323.349	-11.12
323.562	0.54
323.776	28.93
323.989	20
324.203	36.03
324.417	32.56
324.63	43.74
324.844	30.49
325.057	44.1
325.271	23.17
325.485	29.78
325.698	-3.17
325.912	-0.36
326.125	-9.59
326.339	4.68
326.552	-14.35
326.766	4.05
326.979	9.34
327.193	6.66
327.406	8.94
327.619	37.27
327.833	16.35
328.046	14.91
328.26	19.03
328.473	11.51
328.686	5.26
328.9	14.27
329.113	15.36
329.326	35.52
329.54	44.21
329.753	48.31
329.966	59.87
330.179	58.74
330.393	22.7
330.606	24.63
330.819	35.31
331.032	29.29
331.246	41.48
331.459	42.99
331.672	27.76
331.885	7.51
332.098	-9.95
332.311	9.86
332.525	27.75
332.738	40.72
332.951	42.71
333.164	58.24
333.377	47.42
333.59	46.78
333.803	27.33
334.016	22.91
334.229	15.19
334.442	-9.84
334.655	-20.78
334.868	-16.45
335.081	-21.78
335.294	-37.85
335.507	-3.45
335.72	-7.99
335.933	-0.66
336.146	4.55
336.359	3.88
336.572	4.86
336.785	24.92
336.997	36.66
337.21	46.65
337.423	67
337.636	75.79
337.849	57.64
338.062	40.43
338.274	15.81
338.487	18.39
338.7	1.38
338.913	21.24
339.125	13.16
339.338	11.81
339.551	-4.55
339.763	-25.67
339.976	-26.92
340.189	-13.21
340.402	-11.61
340.614	-15.64
340.827	20.79
341.039	16.7
341.252	22.65
341.465	27.92
341.677	34.27
341.89	34.45
342.102	29.47
342.315	26.03
342.527	39.49
342.74	47.49
342.952	33.52
343.165	55.02
343.377	43.25
343.59	26.05
343.802	15.16
344.015	8.28
344.227	-30.31
344.44	-9.46
344.652	-2.32
344.864	-23.55
345.077	-12.3
345.289	0.45
345.502	-27.48
345.714	-41.51
345.926	-17.81
346.139	-11.61
346.351	-28.26
346.563	7.34
346.775	20.41
346.988	15.72
347.2	11.76
347.412	21.18
347.624	18.02
347.837	13.41
348.049	19.03
348.261	16.78
348.473	27.48
348.685	28.06
348.897	34.87
349.11	33.67
349.322	15.59
349.534	5.41
349.746	-3.57
349.958	-11.52
350.17	-16.28
350.382	3.46
350.594	8.8
350.806	9.52
351.018	13.76
351.23	23.21
351.442	25.55
351.654	8.98
351.866	24.25
352.078	11.01
352.29	0.81
352.502	-10.27
352.714	9.55
352.926	-7.14
353.138	-11.65
353.35	6.81
353.561	20.18
353.773	22.22
353.985	31.64
354.197	30.05
354.409	25.7
354.621	18.57
354.832	20.82
355.044	15.75
355.256	32.31
355.468	31.81
355.679	43.78
355.891	35.36
356.103	39.62
356.314	31.11
356.526	29.6
356.738	32.74
356.949	38.88
357.161	38.96
357.373	49.5
357.584	45.9
357.796	28.86
358.008	17.16
358.219	19.64
358.431	10.5
358.642	0.48
358.854	-2.52
359.065	7.33
359.277	22.51
359.488	25.3
359.7	36.55
359.911	25.85
360.123	18.69
360.334	10.05
360.546	-5.15
360.757	-8.14
360.969	-8.17
361.18	4.37
361.391	5.86
361.603	23.43
361.814	18.35
362.025	32.94
362.237	40.65
362.448	39.54
362.659	26.31
362.871	22.68
363.082	11.1
363.293	-14.67
363.504	-15.5
363.716	-0.16
363.927	2.44
364.138	9.94
364.349	23.24
364.56	27.98
364.772	27.35
364.983	18.67
365.194	18.95
365.405	10.08
365.616	2.79
365.827	9.1
366.038	18.27
366.25	10.66
366.461	27.46
366.672	21.89
366.883	5.95
367.094	9.7
367.305	18.89
367.516	-0.43
367.727	13.5
367.938	10.91
368.149	3.57
368.36	-0.45
368.571	-2.8
368.781	-5.9
368.992	3.54
369.203	20.84
369.414	30.62
369.625	40.81
369.836	34.82
370.047	34.85
370.258	23.85
370.468	6.09
370.679	18.53
370.89	25.25
371.101	24.03
371.312	29.49
371.522	37
371.733	40.6
371.944	42.88
372.155	45.69
372.365	42
372.576	52.22
372.787	38.4
372.997	34.89
373.208	33.92
373.419	32.93
373.629	20.76
373.84	46.47
374.05	35.07
374.261	24.49
374.472	23.83
374.682	21.41
374.893	-2.78
375.103	0.42
375.314	17.23
375.524	23.05
375.735	21.35
375.945	24.8
376.156	28.06
376.366	17.51
376.577	15.92
376.787	22.05
376.997	24.22
377.208	27.19
377.418	21.51
377.629	18.2
377.839	6.12
378.049	1.72
378.26	-1.63
378.47	5.55
378.68	8.11
378.89	12.83
379.101	16.37
379.311	11.77
379.521	19.02
379.732	20.31
379.942	30.52
380.152	29.5
380.362	27.22
380.572	22.7
380.783	26.87
380.993	19.59
381.203	15.77
381.413	13.64
381.623	11.42
381.833	10.81
382.043	15.11
382.253	18.36
382.463	21.76
382.674	21.91
382.884	12.14
383.094	-0.32
383.304	2.69
383.514	3.81
383.724	-1.95
383.934	5.69
384.144	8.98
384.353	3.98
384.563	-3.89
384.773	-5.49
384.983	-8.17
385.193	-1.27
385.403	7.59
385.613	13.26
385.823	17.76
386.033	19.09
386.242	16.14
386.452	11.97
386.662	13.21
386.872	12.08
387.082	7.97
387.291	7.9
387.501	5.51
387.711	2.87
387.921	1.63
388.13	4.66
388.34	2.47
388.55	7.38
388.759	8.34
388.969	8.12
389.179	8.97
389.388	9.64
389.598	9.47
389.807	9.58
390.017	11.88
390.227	9.99
390.436	9.59
390.646	5.85
390.855	3.54
391.065	2.24
391.274	2.56
391.484	4.32
391.693	4.53
391.903	4.41
392.112	5.04
392.322	4.14
392.531	2.71
392.74	1.69
392.95	3.9
393.159	2.73
393.369	3.96
393.578	4.41
393.787	6.4
393.997	6.21
394.206	7.1
394.415	6.43
394.625	7.06
394.834	6.73
395.043	6.33
395.252	6.15
395.462	6.42
395.671	4.31
395.88	4.42
396.089	4.67
396.298	4.42
396.508	4.57
396.717	5.49
396.926	5.3
397.135	4.55
397.344	4.55
397.553	3.86
397.762	3.33
397.971	3.07
398.181	3.18
398.39	3.57
398.599	3.79
398.808	4.14
399.017	3.95
399.226	3.71
399.435	3.4
399.644	3.63
399.853	3.53
400.062	3.7
400.27	4.07
400.479	4.11
400.688	3.89
400.897	4.17
401.106	4.46
401.315	4.31
401.524	4.66
401.733	4.55
401.941	4.4
402.15	4.16
402.359	4.47
402.568	4.06
402.777	4.09
402.985	4.04
403.194	4.24
403.403	3.94
403.612	4.03
403.82	4.09
404.029	4.07
404.238	3.99
404.446	3.91
404.655	3.78
404.864	3.79
405.072	3.85
405.281	3.8
405.489	3.87
405.698	3.96
405.906	4.05
406.115	4.02
406.324	3.98
406.532	4.04
406.741	3.91
406.949	3.81
407.158	3.91
407.366	3.85
407.574	3.7
407.783	3.77
407.991	3.76
408.2	3.49
408.408	3.36
408.617	3.42
408.825	3.47
409.033	3.42
409.242	3.52
409.45	3.55
409.658	3.6
409.867	3.49
410.075	3.54
410.283	3.49
410.491	3.51
410.7	3.47
410.908	3.45
411.116	3.3
411.324	3.37
411.533	3.36
411.741	3.36
411.949	3.3
412.157	3.42
412.365	3.4
412.573	3.45
412.781	3.37
412.99	3.55
413.198	3.54
413.406	3.49
413.614	3.38
413.822	3.48
414.03	3.38
414.238	3.29
414.446	3.33
414.654	3.55
414.862	3.46
415.07	3.39
415.278	3.34
415.486	3.33
415.694	3.27
415.902	3.26
416.109	3.35
416.317	3.38
416.525	3.27
416.733	3.37
416.941	3.41
417.149	3.5
417.357	3.59
417.564	3.69
417.772	3.47
417.98	3.66
418.188	3.6
418.395	3.51
418.603	3.43
418.811	3.42
419.019	3.05
419.226	2.9
419.434	2.89
419.642	2.93
419.849	2.95
420.057	3.08
420.265	3.05
420.472	3.12
420.68	3.05
420.887	3.15
421.095	3.02
421.302	3.15
421.51	2.98
421.717	3.04
421.925	2.89
422.132	3.11
422.34	3.13
422.547	3.18
422.755	3.18
422.962	3.36
423.17	3.39
423.377	3.4
423.585	3.4
423.792	3.39
423.999	3.21
424.207	3.04
424.414	2.92
424.621	2.74
424.829	2.64
425.036	2.82
425.243	2.8
425.451	2.83
425.658	3.19
425.865	3.35
426.072	3.17
426.28	3.21
426.487	3.27
426.694	3.05
426.901	2.96
427.108	3.09
427.315	3.22
427.523	3.05
427.73	3.09
427.937	3.19
428.144	3.09
428.351	2.97
428.558	3.02
428.765	3.02
428.972	3.13
429.179	3.01
429.386	3
429.593	3.1
429.8	3.28
430.007	3.08
430.214	3.35
430.421	3.55
430.628	3.54
430.835	3.51
431.042	3.54
431.249	3.53
431.456	3.42
431.662	3.44
431.869	3.58
432.076	3.56
432.283	3.57
432.49	3.55
432.697	3.67
432.903	3.57
433.11	3.6
433.317	3.52
433.524	3.5
433.73	3.39
433.937	3.36
434.144	3.45
434.35	3.47
434.557	3.55
434.764	3.64
434.97	3.72
435.177	3.67
435.384	3.74
435.59	3.72
435.797	3.62
436.003	3.52
436.21	3.6
436.416	3.62
436.623	3.54
436.829	3.55
437.036	3.62
437.242	3.6
437.449	3.49
437.655	3.65
437.862	3.66
438.068	3.58
438.275	3.54
438.481	3.6
438.687	3.57
438.894	3.8
439.1	3.88
439.307	3.8
439.513	3.7
439.719	3.67
439.926	3.49
440.132	3.46
440.338	3.6
440.544	3.62
440.751	3.65
440.957	3.67
441.163	3.8
441.369	3.83
441.575	4.01
441.782	4.1
441.988	4.2
442.194	4.09
442.4	4.1
442.606	3.97
442.812	3.94
443.018	3.83
443.224	3.89
443.431	3.79
443.637	3.94
443.843	3.91
444.049	3.98
444.255	4.06
444.461	4.2
444.667	4.25
444.873	4.11
445.079	4.07
445.284	4.02
445.49	4.04
445.696	4.02
445.902	4.19
446.108	4.28
446.314	4.27
446.52	4.29
446.726	4.29
446.931	4.3
447.137	4.32
447.343	4.38
447.549	4.38
447.755	4.32
447.96	4.3
448.166	4.27
448.372	4.23
448.578	4.21
448.783	4.24
448.989	4.26
449.195	4.29
449.4	4.35
449.606	4.33
449.812	4.37
450.017	4.4
450.223	4.42
450.428	4.48
450.634	4.51
450.84	4.46
451.045	4.53
451.251	4.61
451.456	4.5
451.662	4.41
451.867	4.39
452.073	4.32
452.278	4.09
452.483	4.18
452.689	4.28
452.894	4.34
453.1	4.35
453.305	4.56
453.51	4.56
453.716	4.61
453.921	4.72
454.127	4.75
454.332	4.82
454.537	4.84
454.742	4.87
454.948	4.83
455.153	4.82
455.358	4.71
455.563	4.51
455.769	4.5
455.974	4.51
456.179	4.55
456.384	4.54
456.589	4.8
456.795	4.78
457	4.71
457.205	4.66
457.41	4.68
457.615	4.61
457.82	4.64
458.025	4.69
458.23	4.75
458.435	4.67
458.64	4.74
458.845	4.68
459.05	4.7
459.255	4.76
459.46	4.85
459.665	4.74
459.87	4.77
460.075	4.79
460.28	4.8
460.485	4.81
460.69	4.88
460.895	4.87
461.099	4.85
461.304	4.78
461.509	4.81
461.714	4.94
461.919	4.89
462.123	5.03
462.328	5.08
462.533	5.12
462.738	5.14
462.942	5.16
463.147	5.14
463.352	5.06
463.556	5.18
463.761	5.05
463.966	5.11
464.17	5.05
464.375	5.17
464.58	5.07
464.784	5.17
464.989	5.23
465.193	5.3
465.398	5.29
465.602	5.24
465.807	5.26
466.011	5.24
466.216	5.13
466.42	5.21
466.625	5.36
466.829	5.3
467.034	5.32
467.238	5.44
467.443	5.35
467.647	5.37
467.851	5.47
468.056	5.51
468.26	5.47
468.464	5.45
468.669	5.39
468.873	5.23
469.077	5.25
469.282	5.38
469.486	5.31
469.69	5.27
469.894	5.36
470.099	5.32
470.303	5.26
470.507	5.48
470.711	5.6
470.915	5.71
471.119	5.83
471.324	5.93
471.528	5.83
471.732	5.79
471.936	5.72
472.14	5.61
472.344	5.48
472.548	5.47
472.752	5.46
472.956	5.47
473.16	5.46
473.364	5.57
473.568	5.65
473.772	5.7
473.976	5.75
474.18	5.75
474.384	5.76
474.588	5.81
474.792	5.89
474.995	5.85
475.199	5.96
475.403	5.85
475.607	5.84
475.811	5.73
476.015	5.71
476.218	5.63
476.422	5.71
476.626	5.59
476.83	5.58
477.033	5.65
477.237	5.67
477.441	5.67
477.644	5.7
477.848	5.78
478.052	5.83
478.255	5.83
478.459	5.83
478.663	5.83
478.866	5.86
479.07	5.79
479.273	5.75
479.477	5.64
479.681	5.72
479.884	5.67
480.088	5.64
480.291	5.72
480.495	5.82
480.698	5.82
480.901	5.77
481.105	5.77
481.308	5.74
481.512	5.8
481.715	5.74
481.919	5.81
482.122	5.89
482.325	5.9
482.529	5.88
482.732	5.95
482.935	5.97
483.138	5.93
483.342	5.94
483.545	5.88
483.748	5.81
483.952	5.78
484.155	5.76
484.358	5.78
484.561	5.78
484.764	5.8
484.967	5.79
485.171	5.77
485.374	5.77
485.577	5.81
485.78	5.79
485.983	5.81
486.186	5.87
486.389	5.84
486.592	5.91
486.795	5.91
486.998	5.91
487.201	5.93
487.404	5.91
487.607	5.83
487.81	5.84
488.013	5.8
488.216	5.76
488.419	5.74
488.622	5.7
488.825	5.73
489.028	5.77
489.231	5.77
489.433	5.86
489.636	5.92
489.839	5.86
490.042	5.87
490.245	5.91
490.447	5.88
490.65	5.84
490.853	5.84
491.056	5.77
491.258	5.7
491.461	5.68
491.664	5.7
491.866	5.76
492.069	5.77
492.272	5.81
492.474	5.8
492.677	5.77
492.879	5.73
493.082	5.72
493.285	5.7
493.487	5.72
493.69	5.78
493.892	5.81
494.095	5.82
494.297	5.86
494.5	5.78
494.702	5.72
494.905	5.68
495.107	5.68
495.309	5.64
495.512	5.66
495.714	5.69
495.917	5.67
496.119	5.7
496.321	5.71
496.524	5.74
496.726	5.72
496.928	5.75
497.13	5.77
497.333	5.73
497.535	5.7
497.737	5.73
497.939	5.74
498.142	5.72
498.344	5.78
498.546	5.83
498.748	5.81
498.95	5.79
499.152	5.79
499.355	5.81
499.557	5.69
499.759	5.62
499.961	5.65
500.163	5.69
500.365	5.7
500.567	5.75
500.769	5.78
500.971	5.73
501.173	5.72
501.375	5.7
501.577	5.72
501.779	5.78
501.981	5.83
502.183	5.84
502.385	5.86
502.587	5.86
502.788	5.78
502.99	5.72
503.192	5.73
503.394	5.76
503.596	5.77
503.798	5.84
503.999	5.89
504.201	5.9
504.403	5.86
504.605	5.83
504.806	5.85
505.008	5.86
505.21	5.82
505.411	5.86
505.613	5.88
505.815	5.88
506.016	5.83
506.218	5.83
506.42	5.81
506.621	5.84
506.823	5.84
507.024	5.89
507.226	5.92
507.427	5.91
507.629	5.85
507.83	5.85
508.032	5.83
508.233	5.81
508.435	5.83
508.636	5.91
508.838	5.88
509.039	5.88
509.24	5.85
509.442	5.81
509.643	5.8
509.845	5.82
510.046	5.79
510.247	5.81
510.448	5.81
510.65	5.85
510.851	5.76
511.052	5.82
511.254	5.9
511.455	5.89
511.656	5.81
511.857	5.8
512.058	5.76
512.26	5.7
512.461	5.69
512.662	5.73
512.863	5.87
513.064	5.92
513.265	5.9
513.466	5.99
513.667	6
513.868	5.93
514.069	5.93
514.27	5.87
514.471	5.81
514.672	5.8
514.873	5.77
515.074	5.74
515.275	5.82
515.476	5.89
515.677	5.93
515.878	5.95
516.079	5.97
516.28	5.97
516.481	5.89
516.682	5.87
516.882	5.94
517.083	5.94
517.284	5.94
517.485	5.95
517.686	5.92
517.886	5.88
518.087	5.84
518.288	5.82
518.488	5.87
518.689	5.89
518.89	5.92
519.091	5.95
519.291	5.91
519.492	5.84
519.692	5.88
519.893	5.77
520.094	5.84
520.294	5.9
520.495	5.95
520.695	5.96
520.896	6.02
521.096	6
521.297	6.03
521.497	6.04
521.698	6.02
521.898	6.01
522.099	6.04
522.299	6.05
522.499	6.05
522.7	6.05
522.9	6.07
523.101	6
523.301	5.96
523.501	5.95
523.702	5.92
523.902	5.9
524.102	5.9
524.302	5.91
524.503	5.88
524.703	5.92
524.903	5.99
525.103	6.02
525.304	5.99
525.504	6.01
525.704	6
525.904	5.97
526.104	6.01
526.304	6.05
526.504	6.05
526.705	6.04
526.905	6.03
527.105	5.98
527.305	5.98
527.505	6.04
527.705	6.08
527.905	6.09
528.105	6.07
528.305	6.09
528.505	6.03
528.705	6.04
528.905	6.1
529.105	6.15
529.304	6.11
529.504	6.16
529.704	6.17
529.904	6.16
530.104	6.18
530.304	6.19
530.503	6.18
530.703	6.17
530.903	6.2
531.103	6.14
531.303	6.12
531.502	6.16
531.702	6.12
531.902	6.09
532.101	6.16
532.301	6.26
532.501	6.2
532.7	6.24
532.9	6.29
533.1	6.25
533.299	6.25
533.499	6.26
533.698	6.24
533.898	6.24
534.097	6.25
534.297	6.21
534.496	6.21
534.696	6.2
534.895	6.18
535.095	6.21
535.294	6.28
535.494	6.33
535.693	6.33
535.892	6.34
536.092	6.35
536.291	6.36
536.491	6.41
536.69	6.45
536.889	6.5
537.088	6.57
537.288	6.54
537.487	6.54
537.686	6.55
537.886	6.52
538.085	6.47
538.284	6.45
538.483	6.48
538.682	6.45
538.882	6.44
539.081	6.46
539.28	6.53
539.479	6.58
539.678	6.63
539.877	6.68
540.076	6.71
540.275	6.72
540.474	6.68
540.673	6.72
540.872	6.72
541.071	6.78
541.27	6.84
541.469	6.84
541.668	6.8
541.867	6.89
542.066	6.84
542.265	6.88
542.464	6.96
542.663	7
542.862	7
543.06	7.08
543.259	7.06
543.458	7.03
543.657	7.1
543.856	7.18
544.054	7.13
544.253	7.19
544.452	7.27
544.651	7.22
544.849	7.21
545.048	7.3
545.247	7.28
545.445	7.28
545.644	7.33
545.843	7.31
546.041	7.24
546.24	7.26
546.438	7.28
546.637	7.39
546.836	7.51
547.034	7.62
547.233	7.68
547.431	7.78
547.63	7.75
547.828	7.77
548.027	7.78
548.225	7.79
548.423	7.77
548.622	7.74
548.82	7.8
549.019	7.88
549.217	7.85
549.415	7.97
549.614	8.13
549.812	8.14
550.01	8.24
550.209	8.36
550.407	8.37
550.605	8.39
550.803	8.42
551.002	8.43
551.2	8.48
551.398	8.51
551.596	8.57
551.794	8.65
551.993	8.67
552.191	8.76
552.389	8.83
552.587	8.83
552.785	8.9
552.983	8.93
553.181	8.88
553.379	9
553.577	9.07
553.775	9.08
553.973	9.08
554.171	9.18
554.369	9.19
554.567	9.24
554.765	9.36
554.963	9.47
555.161	9.56
555.359	9.57
555.557	9.58
555.755	9.63
555.952	9.7
556.15	9.75
556.348	9.79
556.546	9.87
556.744	9.84
556.941	9.87
557.139	9.93
557.337	10.05
557.535	10.19
557.732	10.3
557.93	10.34
558.128	10.41
558.325	10.41
558.523	10.42
558.721	10.42
558.918	10.53
559.116	10.6
559.313	10.65
559.511	10.72
559.708	10.82
559.906	10.86
560.104	10.88
560.301	10.99
560.498	11.11
560.696	11.18
560.893	11.26
561.091	11.33
561.288	11.4
561.486	11.39
561.683	11.46
561.88	11.5
562.078	11.56
562.275	11.66
562.473	11.71
562.67	11.76
562.867	11.81
563.064	11.82
563.262	11.86
563.459	11.88
563.656	11.84
563.853	11.86
564.051	12
564.248	11.96
564.445	12.08
564.642	12.18
564.839	12.24
565.036	12.3
565.234	12.38
565.431	12.46
565.628	12.5
565.825	12.54
566.022	12.51
566.219	12.56
566.416	12.52
566.613	12.63
566.81	12.7
567.007	12.73
567.204	12.86
567.401	12.95
567.598	12.9
567.795	12.93
567.991	12.93
568.188	12.88
568.385	12.76
568.582	12.84
568.779	12.86
568.976	12.9
569.172	12.86
569.369	12.97
569.566	12.91
569.763	12.81
569.96	12.86
570.156	12.88
570.353	12.94
570.55	13.04
570.746	13.16
570.943	13.17
571.14	13.14
571.336	13.16
571.533	13.11
571.729	13.14
571.926	13.16
572.123	13.24
572.319	13.2
572.516	13.2
572.712	13.15
572.909	13.01
573.105	12.97
573.302	12.98
573.498	12.94
573.695	12.98
573.891	13.03
574.087	13.05
574.284	13.11
574.48	13.15
574.677	13.1
574.873	13.15
575.069	13.26
575.266	13.23
575.462	13.17
575.658	13.18
575.854	13.22
576.051	13.09
576.247	13.09
576.443	13.13
576.639	13.17
576.835	13.01
577.032	12.96
577.228	12.97
577.424	12.9
577.62	12.89
577.816	12.96
578.012	12.98
578.208	12.83
578.404	12.81
578.6	12.71
578.796	12.69
578.993	12.7
579.189	12.78
579.384	12.84
579.58	12.86
579.776	12.88
579.972	12.88
580.168	12.82
580.364	12.82
580.56	12.81
580.756	12.76
580.952	12.75
581.148	12.79
581.343	12.71
581.539	12.69
581.735	12.73
581.931	12.61
582.127	12.65
582.322	12.7
582.518	12.71
582.714	12.63
582.909	12.65
583.105	12.56
583.301	12.48
583.496	12.41
583.692	12.4
583.888	12.41
584.083	12.39
584.279	12.42
584.474	12.45
584.67	12.33
584.866	12.33
585.061	12.33
585.257	12.29
585.452	12.31
585.648	12.39
585.843	12.33
586.039	12.34
586.234	12.33
586.429	12.28
586.625	12.24
586.82	12.23
587.015	12.22
587.211	12.27
587.406	12.24
587.601	12.24
587.797	12.21
587.992	12.16
588.187	12.11
588.383	12.13
588.578	12.31
588.773	12.3
588.968	12.34
589.163	12.37
589.359	12.33
589.554	12.21
589.749	12.24
589.944	12.27
590.139	12.19
590.334	12.26
590.529	12.29
590.724	12.34
590.919	12.26
591.114	12.31
591.309	12.22
591.504	12.13
591.699	12.13
591.894	12.23
592.089	12.23
592.284	12.29
592.479	12.35
592.674	12.46
592.869	12.41
593.064	12.46
593.259	12.49
593.454	12.53
593.648	12.45
593.843	12.53
594.038	12.54
594.233	12.56
594.428	12.55
594.622	12.7
594.817	12.74
595.012	12.8
595.206	12.92
595.401	13
595.596	12.94
595.79	12.88
595.985	12.91
596.18	12.99
596.374	13.04
596.569	13.07
596.763	13.17
596.958	13.19
597.153	13.11
597.347	13.11
597.542	13.19
597.736	13.26
597.931	13.29
598.125	13.38
598.319	13.52
598.514	13.62
598.708	13.72
598.903	13.76
599.097	13.76
599.291	13.7
599.486	13.67
599.68	13.62
599.874	13.63
600.069	13.7
600.263	13.82
600.457	13.85
600.651	13.87
600.846	13.97
601.04	13.96
601.234	13.89
601.428	13.84
601.622	13.83
601.817	13.83
602.011	13.83
602.205	13.93
602.399	13.99
602.593	14
602.787	14.01
602.981	14.05
603.175	14.01
603.369	13.99
603.563	14
603.757	13.95
603.951	13.98
604.145	13.89
604.339	13.83
604.533	13.81
604.727	13.84
604.921	13.79
605.115	13.77
605.309	13.8
605.502	13.79
605.696	13.65
605.89	13.54
606.084	13.55
606.278	13.53
606.471	13.54
606.665	13.59
606.859	13.54
607.053	13.57
607.246	13.48
607.44	13.35
607.634	13.3
607.827	13.24
608.021	13.15
608.214	13.21
608.408	13.21
608.602	13.22
608.795	13.37
608.989	13.37
609.182	13.29
609.376	13.2
609.569	13.11
609.763	12.96
609.956	12.9
610.15	12.85
610.343	12.86
610.537	12.83
610.73	12.78
610.923	12.75
611.117	12.69
611.31	12.65
611.504	12.7
611.697	12.68
611.89	12.59
612.083	12.54
612.277	12.51
612.47	12.36
612.663	12.37
612.856	12.25
613.05	12.14
613.243	12.01
613.436	11.94
613.629	11.82
613.822	11.82
614.015	11.85
614.209	11.83
614.402	11.81
614.595	11.83
614.788	11.77
614.981	11.71
615.174	11.67
615.367	11.63
615.56	11.53
615.753	11.56
615.946	11.6
616.139	11.64
616.332	11.57
616.525	11.53
616.718	11.43
616.911	11.34
617.103	11.29
617.296	11.24
617.489	11.26
617.682	11.26
617.875	11.15
618.067	11.08
618.26	11.12
618.453	11.05
618.646	10.97
618.838	11.04
619.031	10.92
619.224	10.88
619.417	10.92
619.609	10.88
619.802	10.81
619.994	10.82
620.187	10.78
620.38	10.71
620.572	10.75
620.765	10.74
620.957	10.78
621.15	10.76
621.342	10.75
621.535	10.66
621.727	10.66
621.92	10.63
622.112	10.66
622.305	10.66
622.497	10.75
622.69	10.7
622.882	10.62
623.074	10.54
623.267	10.51
623.459	10.43
623.651	10.45
623.844	10.51
624.036	10.49
624.228	10.52
624.42	10.52
624.613	10.48
624.805	10.46
624.997	10.44
625.189	10.38
625.381	10.38
625.574	10.37
625.766	10.3
625.958	10.34
626.15	10.26
626.342	10.21
626.534	10.17
626.726	10.22
626.918	10.13
627.11	10.12
627.302	10.08
627.494	10.12
627.686	10.1
627.878	10.12
628.07	10.07
628.262	10.06
628.454	10.01
628.646	9.92
628.838	9.92
629.029	9.93
629.221	9.88
629.413	9.87
629.605	9.83
629.797	9.72
629.989	9.68
630.18	9.69
630.372	9.68
630.564	9.67
630.755	9.6
630.947	9.56
631.139	9.54
631.33	9.46
631.522	9.45
631.714	9.51
631.905	9.55
632.097	9.51
632.289	9.56
632.48	9.49
632.672	9.44
632.863	9.38
633.055	9.37
633.246	9.32
633.438	9.34
633.629	9.37
633.821	9.35
634.012	9.37
634.203	9.36
634.395	9.37
634.586	9.41
634.777	9.4
634.969	9.33
635.16	9.4
635.351	9.45
635.543	9.41
635.734	9.38
635.925	9.5
636.117	9.38
636.308	9.35
636.499	9.34
636.69	9.34
636.881	9.27
637.073	9.21
637.264	9.15
637.455	9.13
637.646	9.07
637.837	9.01
638.028	9.07
638.219	9.09
638.41	9.09
638.601	9.1
638.792	9.16
638.983	9.17
639.174	9.1
639.365	8.99
639.556	9.05
639.747	8.96
639.938	8.94
640.129	8.92
640.32	8.96
640.511	8.94
640.701	8.92
640.892	8.86
641.083	8.83
641.274	8.79
641.465	8.69
641.655	8.64
641.846	8.65
642.037	8.7
642.228	8.62
642.418	8.54
642.609	8.56
642.8	8.53
642.99	8.44
643.181	8.48
643.372	8.52
643.562	8.54
643.753	8.53
643.943	8.53
644.134	8.55
644.324	8.53
644.515	8.5
644.705	8.45
644.896	8.48
645.086	8.46
645.277	8.44
645.467	8.49
645.658	8.5
645.848	8.47
646.038	8.4
646.229	8.42
646.419	8.35
646.61	8.32
646.8	8.33
646.99	8.33
647.18	8.33
647.371	8.33
647.561	8.28
647.751	8.33
647.941	8.38
648.132	8.42
648.322	8.43
648.512	8.5
648.702	8.42
648.892	8.37
649.082	8.35
649.272	8.38
649.462	8.38
649.653	8.36
649.843	8.41
650.033	8.33
650.223	8.16
650.413	8.14
650.603	8.1
650.793	7.99
650.983	8.05
651.172	8.11
651.362	8.08
651.552	8.13
651.742	8.22
651.932	8.16
652.122	8.19
652.312	8.21
652.502	8.11
652.691	8
652.881	8.02
653.071	7.97
653.261	7.85
653.45	7.82
653.64	7.8
653.83	7.71
654.019	7.63
654.209	7.63
654.399	7.52
654.588	7.49
654.778	7.37
654.968	7.3
655.157	7.22
655.347	7.25
655.536	7.17
655.726	7.14
655.915	7.07
656.105	7.03
656.294	6.92
656.484	6.91
656.673	7.01
656.863	6.96
657.052	6.99
657.241	7.05
657.431	7.02
657.62	6.86
657.809	6.84
657.999	6.73
658.188	6.68
658.377	6.53
658.567	6.46
658.756	6.44
658.945	6.42
659.134	6.25
659.324	6.25
659.513	6.3
659.702	6.27
659.891	6.28
660.08	6.28
660.269	6.23
660.458	6.08
660.648	5.99
660.837	5.92
661.026	5.89
661.215	5.88
661.404	5.87
661.593	5.79
661.782	5.69
661.971	5.66
662.16	5.62
662.349	5.55
662.538	5.53
662.726	5.54
662.915	5.56
663.104	5.45
663.293	5.43
663.482	5.35
663.671	5.32
663.86	5.3
664.048	5.33
664.237	5.35
664.426	5.45
664.615	5.38
664.803	5.31
664.992	5.34
665.181	5.34
665.369	5.32
665.558	5.36
665.747	5.35
665.935	5.35
666.124	5.4
666.312	5.31
666.501	5.33
666.69	5.32
666.878	5.35
667.067	5.3
667.255	5.39
667.444	5.32
667.632	5.33
667.82	5.19
668.009	5.24
668.197	5.31
668.386	5.43
668.574	5.5
668.762	5.67
668.951	5.72
669.139	5.77
669.327	5.76
669.516	5.67
669.704	5.7
669.892	5.79
670.08	5.76
670.269	5.81
670.457	5.94
670.645	5.95
670.833	5.84
671.021	5.85
671.21	5.93
671.398	5.88
671.586	5.83
671.774	5.96
671.962	6.06
672.15	6.09
672.338	6.33
672.526	6.46
672.714	6.56
672.902	6.59
673.09	6.55
673.278	6.45
673.466	6.52
673.654	6.4
673.842	6.51
674.03	6.6
674.218	6.73
674.405	6.85
674.593	7.06
674.781	7.02
674.969	7.09
675.157	7.08
675.344	7.03
675.532	6.94
675.72	7.05
675.908	7.12
676.095	7.21
676.283	7.17
676.471	7.21
676.658	7.27
676.846	7.26
677.033	7.28
677.221	7.49
677.409	7.59
677.596	7.66
677.784	7.66
677.971	7.72
678.159	7.69
678.346	7.58
678.534	7.56
678.721	7.55
678.909	7.7
679.096	7.76
679.283	7.92
679.471	8.05
679.658	8.3
679.846	8.35
680.033	8.44
680.22	8.55
680.408	8.61
680.595	8.56
680.782	8.5
680.969	8.49
681.157	8.51
681.344	8.46
681.531	8.54
681.718	8.66
681.905	8.64
682.093	8.69
682.28	8.78
682.467	8.82
682.654	8.79
682.841	8.89
683.028	8.99
683.215	9.06
683.402	9.06
683.589	9.19
683.776	9.21
683.963	9.21
684.15	9.17
684.337	9.24
684.524	9.35
684.711	9.47
684.898	9.66
685.085	9.74
685.271	9.85
685.458	9.83
685.645	10.03
685.832	10.06
686.019	10.38
686.205	10.49
686.392	10.78
686.579	10.77
686.766	10.9
686.952	10.78
687.139	10.9
687.326	10.97
687.512	11.12
687.699	11.2
687.886	11.42
688.072	11.63
688.259	11.8
688.445	12.16
688.632	12.45
688.818	12.75
689.005	13.01
689.191	13.21
689.378	13.39
689.564	13.68
689.751	13.96
689.937	14.31
690.124	14.64
690.31	14.91
690.496	15.35
690.683	15.58
690.869	15.82
691.055	16.25
691.242	16.54
691.428	16.6
691.614	16.91
691.8	17.3
691.987	17.47
692.173	17.87
692.359	18.48
692.545	18.97
692.731	19.47
692.918	19.97
693.104	20.37
693.29	20.57
693.476	21
693.662	21.31
693.848	22.02
694.034	22.63
694.22	23.31
694.406	23.93
694.592	24.46
694.778	24.75
694.964	25.21
695.15	25.68
695.336	26.23
695.522	26.65
695.708	26.97
695.894	27.46
696.08	27.9
696.265	28.31
696.451	29.04
696.637	29.74
696.823	30.31
697.009	31.15
697.194	31.66
697.38	31.97
697.566	32.73
697.751	33.23
697.937	33.44
698.123	34.05
698.308	34.51
698.494	34.95
698.68	35.3
698.865	35.74
699.051	36
699.236	36.61
699.422	36.94
699.607	37.57
699.793	38.17
699.978	38.79
700.164	39.29
700.349	39.67
700.535	40.39
700.72	40.93
700.906	41.5
701.091	41.96
701.276	42.47
701.462	42.57
701.647	43.26
701.832	43.65
702.018	44.3
702.203	45.04
702.388	45.7
702.573	46.02
702.759	46.28
702.944	46.39
703.129	46.67
703.314	46.79
703.499	47.28
703.684	47.93
703.87	48.52
704.055	48.77
704.24	49.28
704.425	49.58
704.61	50.04
704.795	50.39
704.98	50.8
705.165	51.42
705.35	51.79
705.535	51.99
705.72	52.27
705.905	52.45
706.09	52.6
706.275	53.03
706.459	53.74
706.644	54.2
706.829	54.6
707.014	54.9
707.199	54.89
707.384	54.88
707.568	55.17
707.753	55.46
707.938	55.31
708.123	55.45
708.307	55.42
708.492	55.52
708.677	55.85
708.861	56.45
709.046	56.88
709.231	57.28
709.415	57.69
709.6	58.17
709.784	58.77
709.969	58.91
710.153	59.36
710.338	59.49
710.522	59.89
710.707	59.68
710.891	59.91
711.076	59.92
711.26	59.92
711.445	59.75
711.629	60.57
711.813	60.96
711.998	60.98
712.182	61.51
712.366	61.71
712.551	61.32
712.735	61.35
712.919	61.78
713.103	61.8
713.288	62.23
713.472	62.7
713.656	62.79
713.84	63.01
714.024	63.1
714.208	62.95
714.393	63.18
714.577	63.55
714.761	63.73
714.945	64.27
715.129	64.49
715.313	64.45
715.497	64.77
715.681	64.74
715.865	64.84
716.049	65.34
716.233	65.32
716.417	65.43
716.601	65.51
716.785	65.82
716.968	65.65
717.152	66.02
717.336	66.42
717.52	66.88
717.704	66.64
717.888	67.23
718.071	67.44
718.255	67.48
718.439	67.92
718.622	68.16
718.806	67.78
718.99	67.8
719.174	67.81
719.357	67.77
719.541	67.99
719.724	68.57
719.908	69.18
720.092	69.49
720.275	69.58
720.459	69.88
720.642	69.89
720.826	70.23
721.009	69.94
721.193	70.37
721.376	70.74
721.559	70.43
721.743	69.89
721.926	70.51
722.11	70.16
722.293	70.13
722.476	70.48
722.66	70.5
722.843	70.08
723.026	70.64
723.21	70.65
723.393	70.51
723.576	70.67
723.759	71.36
723.942	70.96
724.126	70.79
724.309	71.19
724.492	71.7
724.675	71.91
724.858	72.59
725.041	72.59
725.224	72.97
725.407	73.19
725.59	73.28
725.774	72.8
725.957	73.99
726.14	74.24
726.322	74.03
726.505	74.06
726.688	74.56
726.871	74.02
727.054	74.17
727.237	74.74
727.42	74.78
727.603	75.3
727.786	75.77
727.968	76.01
728.151	76.28
728.334	77.23
728.517	77.86
728.699	77.35
728.882	77.38
729.065	77.42
729.248	77.16
729.43	76.97
729.613	77.72
729.796	78
729.978	78.33
730.161	77.92
730.343	77.64
730.526	77.59
730.708	77.8
730.891	78
731.073	78.31
731.256	78.6
731.438	79.54
731.621	79.32
731.803	79
731.986	79.4
732.168	80.25
732.35	79.89
732.533	80.33
732.715	81.26
732.898	81.46
733.08	80.98
733.262	81.05
733.444	81.09
733.627	80.99
733.809	81.55
733.991	80.77
734.173	80.85
734.355	81.34
734.538	81.92
734.72	82.15
734.902	83.12
735.084	83.46
735.266	83.57
735.448	83.79
735.63	84.32
735.812	84.95
735.994	84.69
736.176	84.7
736.358	82.88
736.54	81.73
736.722	81.88
736.904	82.37
737.086	81.73
737.268	82.86
737.45	83.5
737.632	83.81
737.814	83.77
737.995	84.28
738.177	84.69
738.359	84.96
738.541	84.98
738.723	85.65
738.904	86.02
739.086	86.29
739.268	86.01
739.449	85.34
739.631	84.2
739.813	85.14
739.994	84.89
740.176	84.76
740.358	85.35
740.539	85.57
740.721	85.62
740.902	86.23
741.084	85.56
741.265	86.05
741.447	86.61
741.628	85.83
741.81	85.04
741.991	85.83
742.172	85.03
742.354	85.86
742.535	86.96
742.717	87.4
742.898	87.71
743.079	88.5
743.261	87.92
743.442	86.64
743.623	86.75
743.804	87.71
743.986	87.83
744.167	88.73
744.348	89.26
744.529	89.11
744.71	88.44
744.891	88.51
745.073	87.4
745.254	87.4
745.435	87.38
745.616	87.64
745.797	87.54
745.978	88.2
746.159	88.39
746.34	88.39
746.521	88.31
746.702	87.13
746.883	87.83
747.064	88.19
747.245	89.11
747.426	89.21
747.606	90.38
747.787	89.5
747.968	88.25
748.149	88.45
748.33	87.96
748.51	87.3
748.691	87.75
748.872	88.79
749.053	88.73
749.233	90.38
749.414	90.88
749.595	90.55
749.775	90.59
749.956	90.76
750.137	90.29
750.317	89.57
750.498	89.18
750.678	89.37
750.859	87.98
751.04	87.9
751.22	90.02
751.4	90.07
751.581	90.31
751.761	90.06
751.942	89
752.122	87.94
752.303	88.54
752.483	88.74
752.663	90.33
752.844	92.33
753.024	92.69
753.204	93.73
753.385	94.23
753.565	93.05
753.745	91.06
753.925	89.56
754.106	88.76
754.286	88.14
754.466	88.7
754.646	89.82
754.826	90.03
755.006	90.68
755.187	89.49
755.367	89.36
755.547	89.59
755.727	90.88
755.907	89.42
756.087	89.74
756.267	89.55
756.447	88.32
756.627	88.67
756.807	88.88
756.987	90.21
757.167	91.49
757.346	91.8
757.526	90.36
757.706	90.69
757.886	91.03
758.066	89.91
758.246	89.88
758.425	92.55
758.605	93.26
758.785	92.08
758.965	93.22
759.144	93.75
759.324	92.04
759.504	91.63
759.683	93.27
759.863	92.15
760.043	91.51
760.222	92.51
760.402	91.15
760.581	89.79
760.761	89.84
760.94	90.61
761.12	89.01
761.299	89.6
761.479	88.67
761.658	89.75
761.838	88.91
762.017	89.07
762.197	89.63
762.376	91.08
762.555	89.02
762.735	88.74
762.914	88.76
763.093	88.2
763.273	86.22
763.452	87.7
763.631	88.09
763.81	89.11
763.99	90.69
764.169	92.96
764.348	91.51
764.527	91.91
764.706	89.91
764.885	89.15
765.064	86.85
765.243	87.83
765.423	87.76
765.602	87.67
765.781	88.01
765.96	88.9
766.139	88.65
766.318	89.31
766.497	90.33
766.676	89.48
766.854	88.59
767.033	89.69
767.212	88.24
767.391	88.4
767.57	87.59
767.749	89.31
767.928	87.87
768.106	88.23
768.285	88.73
768.464	90.93
768.643	90.55
768.821	89.73
769	88.62
769.179	88.52
769.357	88.76
769.536	88.43
769.715	87.63
769.893	87.6
770.072	88.05
770.25	85.86
770.429	85.22
770.607	86.34
770.786	85.96
770.964	83.4
771.143	83.7
771.321	82.16
771.5	81.61
771.678	82.8
771.857	84.65
772.035	85.09
772.213	85.9
772.392	86.59
772.57	86.77
772.748	86.2
772.927	87.19
773.105	87.69
773.283	88.53
773.461	87.36
773.64	87.52
773.818	85.66
773.996	85.41
774.174	84.21
774.352	84.82
774.531	84.14
774.709	84.69
774.887	84.12
775.065	86.07
775.243	88.08
775.421	87.69
775.599	88.09
775.777	89.22
775.955	86.87
776.133	85.78
776.311	85.18
776.489	85.77
776.667	86.1
776.844	86.48
777.022	86.81
777.2	86.6
777.378	84.77
777.556	86.03
777.734	85.59
777.911	84.09
778.089	85.36
778.267	85.9
778.445	86.01
778.622	85.62
778.8	84.12
778.978	84.01
779.155	82.98
779.333	82.44
779.511	82.8
779.688	81.89
779.866	83.89
780.043	86.29
780.221	83.6
780.398	83.87
780.576	84.46
780.753	84.5
780.931	83.61
781.108	83.88
781.286	84.09
781.463	85.27
781.64	82.33
781.818	82.21
781.995	85.97
782.172	87.59
782.35	88.89
782.527	91.82
782.704	90.94
782.882	86.92
783.059	86.89
783.236	86.4
783.413	84.32
783.59	84.67
783.768	88.23
783.945	86.28
784.122	88.45
784.299	87.73
784.476	85.03
784.653	83.63
784.83	83.63
785.007	81.07
785.184	81.36
785.361	85.55
785.538	84.37
785.715	81.95
785.892	82.37
786.069	82.26
786.246	81.05
786.423	81.32
786.6	85.85
786.776	88.55
786.953	90.63
787.13	90.53
787.307	88.63
787.484	89.61
787.66	85.93
787.837	84.33
788.014	84.8
788.191	86.91
788.367	84.51
788.544	85.48
788.721	85.59
788.897	83.42
789.074	82.24
789.25	81.2
789.427	79.06
789.603	75.86
789.78	79.99
789.956	79.23
790.133	81.76
790.309	86.5
790.486	85.63
790.662	82.33
790.839	85.97
791.015	81.71
791.192	74.26
791.368	78.15
791.544	83.24
791.721	80.63
791.897	79.01
792.073	84.18
792.249	83.65
792.426	79.3
792.602	78.98
792.778	83.33
792.954	82.87
793.13	87.1
793.307	88.69
793.483	89.26
793.659	88.41
793.835	90.93
794.011	88.94
794.187	86.59
794.363	90.91
794.539	90.3
794.715	88.48
794.891	86.22
795.067	85.61
795.243	84.29
795.419	83.21
795.595	76.22
795.771	78.69
795.947	77.37
796.122	74.19
796.298	74.83
796.474	80.37
796.65	76.54
796.826	78.43
797.001	79.04
797.177	78.21
797.353	76.43
797.529	80.28
797.704	81.5
797.88	83.39
798.056	83.49
798.231	84.94
798.407	80.78
798.582	78.56
798.758	77.77
798.934	75.45
799.109	73.66
799.285	75.64
799.46	75.14
799.636	74.75
799.811	77.64
799.986	76.69
800.162	76.62
800.337	72.07
800.513	74
800.688	77.94
800.863	85.16
801.039	85.78
801.214	92.51
801.389	89.16
801.565	87.75
801.74	83.75
801.915	85.66
802.09	82.31
802.265	81.2
802.441	79.23
802.616	78.54
802.791	74.67
802.966	78.64
803.141	79.99
803.316	83.44
803.491	88.64
803.666	93.73
803.841	94.59
804.016	93.04
804.191	91.05
804.366	89.25
804.541	85.45
804.716	78.39
804.891	78.18
805.066	73.28
805.241	74.41
805.416	72.14
805.591	75.91
805.765	75.77
805.94	83.35
806.115	82.4
806.29	81.35
806.464	78.17
806.639	77.03
806.814	68.75
806.989	65.98
807.163	69.67
807.338	76.01
807.512	73.5
807.687	78.05
807.862	80.62
808.036	77.97
808.211	77.9
808.385	76.65
808.56	75.2
808.734	72.55
808.909	72.55
809.083	80.18
809.258	83.37
809.432	82.12
809.606	84.96
809.781	85.12
809.955	70.52
810.13	72.51
810.304	74.41
810.478	70.91
810.652	71.59
810.827	75.8
811.001	73.61
811.175	77.9
811.349	79.11
811.524	75.11
811.698	72.5
811.872	67.69
812.046	65.9
812.22	59.86
812.394	64.74
812.568	70.75
812.742	72.93
812.916	76.08
813.09	83.75
813.264	91.62
813.438	94.14
813.612	102.83
813.786	101.53
813.96	101.54
814.134	98.97
814.308	93.98
814.482	88.91
814.656	86.56
814.83	80.15
815.003	80.03
815.177	81.16
815.351	86.31
815.525	85.42
815.698	81.33
815.872	76.33
816.046	72.68
816.219	76.46
816.393	73.24
816.567	84.96
816.74	87.94
816.914	83.02
817.088	78.07
817.261	83.62
817.435	82.13
817.608	83.36
817.782	90.13
817.955	93.7
818.129	97.33
818.302	95.34
818.475	85.83
818.649	81.22
818.822	80.89
818.996	63.27
819.169	58.56
819.342	62.05
819.516	67.43
819.689	57.7
819.862	65.66
820.035	80.69
820.209	77.77
820.382	66.33
820.555	71.54
820.728	68.25
820.901	71.31
821.075	72.24
821.248	82.47
821.421	89.46
821.594	94.31
821.767	80.81
821.94	73.64
822.113	74.16
822.286	65.12
822.459	53.62
822.632	65.43
822.805	78.41
822.978	84.18
823.151	87.13
823.324	110.76
823.496	99.91
823.669	88.59
823.842	79.49
824.015	78.63
824.188	56.61
824.361	56.08
824.533	61.79
824.706	61.63
824.879	68.14
825.051	68.4
825.224	78.44
825.397	80.66
825.569	84.89
825.742	79.24
825.915	87.7
826.087	71.79
826.26	71.16
826.432	75.77
826.605	88.25
826.777	77.81
826.95	81.26
827.122	79.27
827.295	73.54
827.467	64.73
827.64	59.9
827.812	76.43
827.984	66.93
828.157	64.14
828.329	72.76
828.501	87.72
828.674	69.27
828.846	91.18
829.018	93.19
829.19	76.18
829.363	67.42
829.535	71.3
829.707	59.08
829.879	44.94
830.051	47.63
830.223	58.64
830.395	61.57
830.568	71.17
830.74	63.44
830.912	59.8
831.084	59.71
831.256	58.39
831.428	56.44
831.6	84.79
831.772	96.91
831.943	87.08
832.115	93.39
832.287	95.75
832.459	80.86
832.631	70.46
832.803	80.97
832.975	83.9
833.146	76.85
833.318	108.4
833.49	101.97
833.662	87.19
833.833	92.71
834.005	91.46
834.177	89.19
834.348	100.37
834.52	104.02
834.692	102.65
834.863	113.9
835.035	77.04
835.206	75.41
835.378	75.8
835.549	89.26
835.721	75.18
835.892	105.55
836.064	96.32
836.235	77.56
836.407	69.12
836.578	68.04
836.749	76.85
836.921	75.79
837.092	59.32
837.264	63.11
837.435	58.86
837.606	40.35
837.777	46.26
837.949	56.4
838.12	51.37
838.291	49.54
838.462	54.59
838.633	61.84
838.805	77.17
838.976	74.3
839.147	76.37
839.318	87.43
839.489	86.46
839.66	77.66
839.831	56.09
840.002	63.2
840.173	68.71
840.344	58.56
840.515	57.71
840.686	59.67
840.857	72.63
841.028	67.64
841.199	59.96
841.369	68.01
841.54	82.75
841.711	87.85
841.882	82.36
842.053	90.72
842.223	95.85
842.394	86.76
842.565	82.54
842.736	87.6
842.906	99.33
843.077	85.05
843.248	95.68
843.418	91.14
843.589	84.05
843.759	59.07
843.93	56.39
844.101	32.43
844.271	15.83
844.442	21.04
844.612	20.26
844.783	29.42
844.953	64.83
845.123	78.46
845.294	78.88
845.464	73.38
845.635	97.34
845.805	77.9
845.975	74.05
846.146	86.29
846.316	107.7
846.486	81.89
846.656	81.73
846.827	92.21
846.997	87.79
847.167	64.96
847.337	74.66
847.507	74.69
847.677	67.67
847.848	65.3
848.018	89.33
848.188	94.11
848.358	87.39
848.528	82.23
848.698	79.58
848.868	73.25
849.038	66.58
849.208	65.01
849.378	55.39
849.548	74.22
849.718	86.5
849.887	96.25
850.057	123.09
850.227	137.6
850.397	104.44
850.567	104.02
850.737	81.41
850.906	54.28
851.076	58.05
851.246	90.51
851.415	100.6
851.585	112.49
851.755	177.18
851.924	179.19
852.094	112.28
852.264	103.44
852.433	118.84
852.603	95.71
852.772	80.38
852.942	81.93
853.111	71.6
853.281	63.57
853.45	55.81
853.62	74.08
853.789	93.79
853.959	66.6
854.128	91.79
854.297	114.75
854.467	88.3
854.636	80.02
854.805	104.94
854.975	34.76
855.144	26.52
855.313	47.59
855.482	77.7
855.652	84.41
855.821	92.16
855.99	76.83
856.159	66.82
856.328	61.72
856.497	84.15
856.667	81.94
856.836	75.17
857.005	80.88
857.174	65.9
857.343	50.86
857.512	53.85
857.681	58.04
857.85	61.31
858.019	63.75
858.188	100.57
858.356	111.97
858.525	209.83
858.694	457.84
858.863	387.78
859.032	262.75
859.201	320.04
859.369	220.45
859.538	119.66
859.707	69.08
859.876	46.4
860.044	34.07
860.213	33.11
860.382	58.29
860.55	53.41
860.719	63.03
860.888	65.02
861.056	79.34
861.225	72.46
861.393	62.12
861.562	56.61
861.73	72.2
861.899	65.9
862.067	63.57
862.236	89.38
862.404	79.52
862.572	77.89
862.741	92.68
862.909	87.45
863.078	121.12
863.246	159.37
863.414	132.74
863.582	101.54
863.751	77.37
863.919	63.01
864.087	48.18
864.255	54.2
864.424	58.05
864.592	78.41
864.76	104.11
864.928	89
865.096	108.3
865.264	128.41
865.432	103.87
865.6	89.3
865.768	101.54
865.936	70.37
866.104	46.82
866.272	92.2
866.44	108.39
866.608	71.17
866.776	82.08
866.944	81.16
867.112	70.02
867.28	65.71
867.448	58.4
867.615	40.91
867.783	48
867.951	38.33
868.119	19.56
868.286	42.82
868.454	84.7
868.622	93.62
868.789	71.68
868.957	45.88
869.125	38.14
869.292	38.62
869.46	69.75
869.627	71.59
869.795	83.63
869.963	93.32
870.13	85.35
870.298	66.11
870.465	72.49
870.632	76.41
870.8	91.73
870.967	98.78
871.135	77.22
871.302	66.98
871.469	69.71
871.637	46.91
871.804	70.77
871.971	104.47
872.139	93.77
872.306	85.43
872.473	99.3
872.64	105.48
872.807	95.66
872.975	101.36
873.142	129.37
873.309	132.24
873.476	102.89
873.643	50.83
873.81	94.25
873.977	9.8
874.144	-4.8
874.311	41.89
874.478	82.61
874.645	73.03
874.812	91.17
874.979	105.65
875.146	128.47
875.313	126.65
875.48	94.58
875.647	128.1
875.813	125.46
875.98	86.42
876.147	93.33
876.314	121.45
876.481	113.68
876.647	201.59
876.814	217.2
876.981	-247.95
877.147	-59.89
877.314	62.39
877.481	56.63
877.647	74.6
877.814	77.15
877.98	89.98
878.147	96.82
878.314	84.74
878.48	86.51
878.647	78.27
878.813	75.44
878.979	69.08
879.146	71.08
879.312	77.6
879.479	114.22
879.645	102.74
879.811	97.56
879.978	113.43
880.144	76.57
880.31	5.58
880.477	58.71
880.643	50.39
880.809	-42.07
880.975	-97.38
881.142	30.63
881.308	-87.05
881.474	64.47
881.64	71.49
881.806	101.99
881.972	109.6
882.138	116.5
882.304	83.76
882.47	138.56
882.636	44.73
882.802	-55.44
882.968	-19.12
883.134	50.16
883.3	64.12
883.466	57.02
883.632	79.45
883.798	96.82
883.964	82.4
884.129	71.54
884.295	67.48
884.461	75.93
884.627	68.74
884.793	78.78
884.958	79.28
885.124	94.91
885.29	68.68
885.455	106.18
885.621	175.89
885.787	194.16
885.952	413.2
886.118	536.7
886.283	221.28
886.449	270.45
886.614	180.36
886.78	159.64
886.945	374.71
887.111	719.11
887.276	-3881.48
887.442	-1335.24
887.607	480.41
887.773	179.67
887.938	146.5
888.103	101.6
888.269	120.34
888.434	128.84
888.599	90.72
888.764	63.45
888.93	18.57
889.095	22.08
889.26	50.72
889.425	1438.1
889.59	50.67
889.756	242.08
889.921	1148.72
890.086	-13.15
890.251	86.2
890.416	55.73
890.581	-23.51
890.746	2.77
890.911	30.56
891.076	66.67
891.241	77.01
891.406	95.43
891.571	106.23
891.736	90.41
891.901	73.43
892.065	59.5
892.23	-105.72
892.395	0.58
892.56	59.37
892.725	21.42
892.889	30.32
893.054	68.54
893.219	64.25
893.384	35.06
893.548	91.27
893.713	109.77
893.878	178.29
