Data from Ofav_PP_Phys_9AZ7_Reflection_2.txt Node
Date: Tue Aug 03 18:16:17 EDT 2021
User: Adam
Spectrometer: FLMT01687
Trigger mode: 0
Integration Time (sec): 8.750000E-1
Scans to average: 2
Electric dark correction enabled: true
Nonlinearity correction enabled: false
Boxcar width: 2
XAxis mode: Wavelengths
Number of Pixels in Spectrum: 3648
>>>>>Begin Spectral Data<<<<<
179.494	186.64
179.716	217.53
179.937	241.04
180.158	398.29
180.38	462.28
180.601	19.79
180.823	18.43
181.044	25.31
181.265	-31.24
181.486	-71.39
181.708	49.9
181.929	135.46
182.15	26.01
182.372	314.14
182.593	75.74
182.814	292.12
183.035	-250.71
183.257	-551.96
183.478	303.2
183.699	16.67
183.92	22.8
184.141	18.7
184.363	69.44
184.584	-30.42
184.805	25.8
185.026	-18.21
185.247	-1.06
185.468	4.43
185.689	4.59
185.91	-17.1
186.132	-38.54
186.353	-18
186.574	-76.1
186.795	-44.3
187.016	-12.25
187.237	22.29
187.458	29.99
187.679	41.27
187.9	26.47
188.121	20.04
188.342	-7.04
188.563	-24.29
188.784	-23.86
189.005	-29.03
189.226	-28.68
189.447	-10.28
189.667	-7.64
189.888	7.03
190.109	49.54
190.33	62.26
190.551	101.46
190.772	132.34
190.993	117.54
191.214	93.94
191.434	66.64
191.655	23.94
191.876	16.09
192.097	7.27
192.318	10.05
192.538	19.42
192.759	14.62
192.98	-4.62
193.201	-23.2
193.421	-13.1
193.642	-19.26
193.863	3.96
194.083	82.86
194.304	75.5
194.525	95.64
194.745	70.37
194.966	86.56
195.187	75.49
195.407	81.66
195.628	75.15
195.848	69.76
196.069	65.52
196.29	12.54
196.51	10.25
196.731	20.07
196.951	10.2
197.172	19.16
197.392	36.88
197.613	36.33
197.833	20.22
198.054	93.43
198.274	64.45
198.495	65.86
198.715	60.96
198.936	87.27
199.156	40.03
199.377	54.41
199.597	52.35
199.817	70.71
200.038	38.86
200.258	67.23
200.479	1.25
200.699	-13.6
200.919	-72.85
201.14	-8.48
201.36	-15.95
201.58	2.04
201.801	-23.48
202.021	-2.09
202.241	-5
202.461	-0.47
202.682	27.75
202.902	43.61
203.122	30.19
203.342	42.43
203.563	-10.56
203.783	-35.44
204.003	1.66
204.223	14.36
204.443	-21.68
204.663	13.33
204.884	34.08
205.104	15.38
205.324	20.65
205.544	75.13
205.764	66.38
205.984	16.02
206.204	38
206.424	-59.1
206.644	-1.01
206.864	-0.03
207.084	33.72
207.304	16.59
207.525	80.54
207.745	75.73
207.964	34.11
208.184	30.79
208.404	39.53
208.624	25.55
208.844	10.63
209.064	25.87
209.284	28.85
209.504	22.81
209.724	6.6
209.944	26.73
210.164	21.61
210.384	29.45
210.604	27.09
210.823	90.28
211.043	67.65
211.263	62.86
211.483	55.24
211.703	69.83
211.922	57.12
212.142	21.47
212.362	12.86
212.582	16.63
212.801	0.54
213.021	2.76
213.241	-1.62
213.461	34.62
213.68	45.31
213.9	25.98
214.12	-1.89
214.339	14.75
214.559	5.32
214.779	-27.37
214.998	-1.95
215.218	39.61
215.438	30.54
215.657	28.82
215.877	36.72
216.096	28.67
216.316	4.77
216.535	-3.88
216.755	-19.27
216.974	0.59
217.194	25.79
217.413	62.91
217.633	62.93
217.852	63.39
218.072	72.75
218.291	46.66
218.511	18.77
218.73	51.64
218.95	54.63
219.169	46.01
219.389	61.48
219.608	65.09
219.827	41.72
220.047	18.59
220.266	15.38
220.485	21.35
220.705	30.11
220.924	23.1
221.143	35.29
221.363	47.39
221.582	22.56
221.801	-0.81
222.021	20.48
222.24	17.51
222.459	-67.53
222.678	-17.95
222.897	-12.02
223.117	-91.47
223.336	-308.03
223.555	-28.28
223.774	-52.42
223.993	-22.78
224.213	-10.01
224.432	17.81
224.651	32.05
224.87	39.98
225.089	12.37
225.308	7.17
225.527	-33.8
225.746	-107.82
225.965	-94.67
226.184	-150.76
226.404	-57.91
226.623	7.78
226.842	36.54
227.061	2.37
227.28	21.55
227.499	47.31
227.718	34.18
227.936	35.99
228.155	47.79
228.374	60.15
228.593	41.25
228.812	26.23
229.031	23.66
229.25	46.7
229.469	13.3
229.688	-24.85
229.907	-64.85
230.125	-78.56
230.344	-88.05
230.563	-70.42
230.782	-55.63
231.001	-0.43
231.22	2.34
231.438	6.13
231.657	-5.77
231.876	4.38
232.095	-12.89
232.313	-39.04
232.532	-73
232.751	-17.51
232.969	-2.32
233.188	6.46
233.407	22.01
233.625	48.48
233.844	30.1
234.063	16.39
234.281	-7.74
234.5	-7.47
234.719	-36.84
234.937	-22.94
235.156	-19.53
235.374	-7.17
235.593	5.18
235.811	16.02
236.03	23.01
236.249	38.64
236.467	49.44
236.686	47.16
236.904	51.09
237.123	55.64
237.341	46.33
237.559	38.47
237.778	38.24
237.996	19.74
238.215	2.23
238.433	-3.89
238.652	-17.91
238.87	-0.74
239.088	0.97
239.307	17.32
239.525	7.09
239.743	30.54
239.962	17.13
240.18	22.55
240.398	36.47
240.617	51.89
240.835	7.12
241.053	-10.8
241.271	-54.97
241.49	-84.25
241.708	-51.57
241.926	-19.67
242.144	-11.47
242.363	11.07
242.581	17.58
242.799	10.56
243.017	12.83
243.235	36.15
243.453	28.44
243.672	35.23
243.89	38.86
244.108	31.73
244.326	5.47
244.544	5.76
244.762	18.9
244.98	9.73
245.198	28.74
245.416	51.77
245.634	63.06
245.852	39.98
246.07	29.8
246.288	17.09
246.506	13.31
246.724	2.02
246.942	15.18
247.16	25.57
247.378	25.57
247.596	18.28
247.814	38.39
248.032	36.29
248.25	30.09
248.468	14.71
248.685	8.09
248.903	-45.14
249.121	-36.29
249.339	-31.51
249.557	-11.32
249.775	-8.74
249.992	29.45
250.21	16.54
250.428	29.6
250.646	26.76
250.863	41.38
251.081	44.01
251.299	16.76
251.517	17.56
251.734	18.61
251.952	-6.18
252.17	-22.51
252.387	-24.79
252.605	-29.18
252.823	-9.39
253.04	-38.28
253.258	-8.21
253.475	26.63
253.693	-5.63
253.911	6.49
254.128	7.39
254.346	7.18
254.563	-4.13
254.781	29.68
254.998	22.32
255.216	20.73
255.433	37.98
255.651	31.07
255.868	-13.44
256.086	-47.47
256.303	-13.55
256.521	-12.41
256.738	-10.8
256.956	21.9
257.173	45.09
257.39	30.17
257.608	21.5
257.825	3.87
258.043	-32.81
258.26	-0.02
258.477	-2.94
258.695	3.92
258.912	-4.93
259.129	26.43
259.346	42.52
259.564	61.21
259.781	58.29
259.998	70.4
260.216	47.36
260.433	15.94
260.65	-8.03
260.867	-5.5
261.084	-11.42
261.302	1.04
261.519	1.79
261.736	31.35
261.953	39.63
262.17	21.75
262.387	30.91
262.604	36.4
262.822	30.05
263.039	26.62
263.256	37.26
263.473	44.08
263.69	60.37
263.907	33.52
264.124	13.06
264.341	7.49
264.558	-39.3
264.775	-30.29
264.992	-12.91
265.209	-12.19
265.426	-34.09
265.643	-8.5
265.86	-7.25
266.077	22.74
266.294	23.29
266.51	50.59
266.727	52.27
266.944	49.41
267.161	43.89
267.378	38.33
267.595	29.2
267.812	40.58
268.028	36.87
268.245	32.19
268.462	47.4
268.679	55.1
268.896	18.74
269.112	13.47
269.329	-7.6
269.546	-67.71
269.763	-26.98
269.979	4.21
270.196	18.81
270.413	16.48
270.629	33.25
270.846	32.68
271.063	25.95
271.279	31.7
271.496	54.62
271.712	50.21
271.929	36.26
272.146	46.8
272.362	45.8
272.579	22.66
272.795	14.7
273.012	25.95
273.228	24.75
273.445	24.3
273.661	47.12
273.878	62.99
274.094	47.51
274.311	41.38
274.527	8.62
274.744	-0.02
274.96	-16.95
275.177	-24.9
275.393	-7.26
275.609	5.85
275.826	7.37
276.042	4.22
276.259	10.45
276.475	-18.6
276.691	-11.52
276.908	-9.91
277.124	-0.01
277.34	2.32
277.557	14.77
277.773	19.71
277.989	14.12
278.205	4.53
278.422	10.8
278.638	22.44
278.854	35.94
279.07	46.33
279.286	66.42
279.503	54.03
279.719	49.8
279.935	36.77
280.151	33.35
280.367	4.2
280.583	-19.95
280.799	-13.66
281.016	-15.01
281.232	-26.04
281.448	-13.37
281.664	-19.85
281.88	-5.67
282.096	3.21
282.312	10.03
282.528	5.6
282.744	21.94
282.96	24.25
283.176	35.27
283.392	31.53
283.608	38.85
283.824	35.53
284.04	38.91
284.256	29.31
284.471	29.23
284.687	19.45
284.903	18.22
285.119	-1.45
285.335	-1.47
285.551	-8.25
285.767	18.66
285.982	14.91
286.198	30.06
286.414	1.31
286.63	-0.52
286.846	-16.18
287.061	-16.88
287.277	-34.94
287.493	10.9
287.709	1.91
287.924	24.24
288.14	2.42
288.356	-19.79
288.571	-34.44
288.787	-7.71
289.003	-27.3
289.218	-17.49
289.434	32.64
289.65	41.32
289.865	26.49
290.081	-5.75
290.296	9.06
290.512	-8.13
290.727	-18.58
290.943	6.35
291.159	29.87
291.374	16.03
291.59	24.51
291.805	27.45
292.021	34.91
292.236	46.56
292.451	45.99
292.667	49.13
292.882	55.62
293.098	37.39
293.313	29.16
293.529	43.86
293.744	52.89
293.959	51.59
294.175	55.2
294.39	57.69
294.605	52.02
294.821	28.84
295.036	25.52
295.251	14.75
295.467	11.61
295.682	25.1
295.897	26.41
296.112	25.84
296.328	37.8
296.543	39.66
296.758	16.43
296.973	19.1
297.188	6.29
297.404	17.71
297.619	13.43
297.834	43.17
298.049	35.41
298.264	51.29
298.479	44.36
298.694	37.47
298.909	32.37
299.125	48.43
299.34	21.86
299.555	32.77
299.77	20.76
299.985	39.12
300.2	39.96
300.415	58.43
300.63	22.02
300.845	37.09
301.06	-5.58
301.275	-46.5
301.49	-11.28
301.704	5.84
301.919	16.32
302.134	25.6
302.349	29.58
302.564	33.79
302.779	24.73
302.994	3.49
303.209	-2.52
303.423	-16.64
303.638	-19.08
303.853	9.35
304.068	40.02
304.283	49.8
304.497	63.68
304.712	72.37
304.927	57.56
305.142	52.84
305.356	33.74
305.571	22.72
305.786	26.01
306	27.01
306.215	6.19
306.43	37.84
306.644	37.69
306.859	20.68
307.074	30.75
307.288	54.22
307.503	37.64
307.717	44.07
307.932	43.86
308.147	36.24
308.361	25.99
308.576	26.29
308.79	45.12
309.005	57.1
309.219	55.48
309.434	39.95
309.648	45.67
309.863	12.47
310.077	10.47
310.292	9.55
310.506	17.77
310.72	30.42
310.935	28.17
311.149	15.78
311.364	-10.34
311.578	-16.1
311.792	-18.61
312.007	-31.36
312.221	-19.07
312.435	-2.13
312.649	22.45
312.864	3.77
313.078	16.39
313.292	5.67
313.507	16.69
313.721	4.22
313.935	8.21
314.149	-1.16
314.363	21.47
314.578	6.96
314.792	12.21
315.006	2.59
315.22	8.4
315.434	-5.11
315.648	-21.65
315.862	6.4
316.077	10.55
316.291	17.45
316.505	18.04
316.719	21.85
316.933	32.01
317.147	29.18
317.361	34.33
317.575	33.87
317.789	38.79
318.003	20.89
318.217	23.61
318.431	22.16
318.645	1.72
318.859	17.57
319.073	10.99
319.287	19.07
319.5	29.49
319.714	54.39
319.928	48.89
320.142	41.86
320.356	26.6
320.57	23.37
320.784	12.01
320.997	-9.9
321.211	14.67
321.425	29.33
321.639	28.13
321.853	9.49
322.066	35.3
322.28	21.97
322.494	0.26
322.707	-17.37
322.921	11.77
323.135	20.73
323.349	15.54
323.562	35.21
323.776	58.99
323.989	56.36
324.203	52.96
324.417	57.13
324.63	64.6
324.844	49.61
325.057	36.89
325.271	22.9
325.485	12
325.698	-28.81
325.912	-22.19
326.125	19.91
326.339	13.39
326.552	5.64
326.766	23.74
326.979	9.38
327.193	-9.74
327.406	5.99
327.619	38.21
327.833	4.03
328.046	17.83
328.26	25.67
328.473	21.84
328.686	22.35
328.9	33.65
329.113	36.52
329.326	37.55
329.54	38.16
329.753	40.36
329.966	53.52
330.179	29.19
330.393	31.78
330.606	40.05
330.819	34.88
331.032	32.16
331.246	42.71
331.459	14.34
331.672	-6.04
331.885	-6.63
332.098	-15.7
332.311	9.52
332.525	44.47
332.738	46.98
332.951	45.08
333.164	43.39
333.377	42.55
333.59	26.68
333.803	19.06
334.016	7.87
334.229	7.75
334.442	-34.3
334.655	-32.1
334.868	-27.62
335.081	-26.39
335.294	-18.9
335.507	19.32
335.72	31.88
335.933	29.81
336.146	25.58
336.359	19.48
336.572	-0.61
336.785	-1.66
336.997	1.4
337.21	-8.78
337.423	5.72
337.636	35.98
337.849	30.39
338.062	24.96
338.274	23.45
338.487	38.91
338.7	29.19
338.913	40.91
339.125	41.06
339.338	43.84
339.551	18.68
339.763	3.35
339.976	-14.96
340.189	-14.7
340.402	-16.17
340.614	-4.76
340.827	13.49
341.039	21.36
341.252	23.74
341.465	26.29
341.677	23.98
341.89	22.16
342.102	25.63
342.315	30.16
342.527	30.25
342.74	34.42
342.952	30.59
343.165	30.73
343.377	5.37
343.59	2.91
343.802	-14.23
344.015	-58.57
344.227	-78.34
344.44	-23.22
344.652	-13.53
344.864	-9.12
345.077	13.64
345.289	2.68
345.502	-51.09
345.714	-59.64
345.926	-31.44
346.139	-22.3
346.351	-2.68
346.563	19.91
346.775	32.9
346.988	16.77
347.2	23.77
347.412	35.51
347.624	44.34
347.837	40.23
348.049	44.74
348.261	35.39
348.473	27.32
348.685	30.47
348.897	40.25
349.11	38.85
349.322	30.77
349.534	24.01
349.746	15.75
349.958	12.57
350.17	5.51
350.382	10.55
350.594	15.59
350.806	5.38
351.018	-3.56
351.23	3.96
351.442	8.28
351.654	-2.97
351.866	10.35
352.078	8.94
352.29	8.11
352.502	18.03
352.714	19.18
352.926	11.81
353.138	2.22
353.35	12.77
353.561	8.84
353.773	7.08
353.985	7.85
354.197	14.48
354.409	17.7
354.621	36.27
354.832	49.42
355.044	57.23
355.256	64.83
355.468	63.39
355.679	47.95
355.891	39.12
356.103	45.53
356.314	42.3
356.526	42.77
356.738	56.15
356.949	60.23
357.161	53.59
357.373	47.77
357.584	49.06
357.796	29.68
358.008	20.27
358.219	4.56
358.431	17.57
358.642	18.3
358.854	-8.25
359.065	22.79
359.277	49.81
359.488	37.68
359.7	37.36
359.911	55.18
360.123	45.01
360.334	35.78
360.546	44.34
360.757	46.6
360.969	25.43
361.18	16.13
361.391	27.14
361.603	23.05
361.814	18.38
362.025	33.22
362.237	44.55
362.448	29.68
362.659	20.49
362.871	24.57
363.082	8.28
363.293	-17.45
363.504	-10.02
363.716	17.61
363.927	15.48
364.138	27.83
364.349	47
364.56	51.9
364.772	58.07
364.983	49.13
365.194	38.12
365.405	35.65
365.616	22.59
365.827	21.97
366.038	28.79
366.25	26.89
366.461	26.94
366.672	14.26
366.883	-11.53
367.094	-25.27
367.305	-6.19
367.516	-16.37
367.727	-0.36
367.938	11.17
368.149	22.75
368.36	21.06
368.571	23.52
368.781	28.16
368.992	19.32
369.203	25.64
369.414	36.71
369.625	43.05
369.836	36.91
370.047	32.09
370.258	23.89
370.468	21.26
370.679	36.19
370.89	42.29
371.101	48.56
371.312	46.97
371.522	41.38
371.733	38.41
371.944	35.67
372.155	27.33
372.365	25.14
372.576	34.43
372.787	33.38
372.997	30.72
373.208	32.99
373.419	25.67
373.629	23.03
373.84	21
374.05	24.26
374.261	21.06
374.472	30.49
374.682	17.84
374.893	9.15
375.103	0.3
375.314	14.47
375.524	15.93
375.735	21.12
375.945	27.25
376.156	32.39
376.366	23.92
376.577	10.97
376.787	17.12
376.997	6.3
377.208	8.2
377.418	11.16
377.629	28.84
377.839	18.23
378.049	22.77
378.26	10.59
378.47	3.08
378.68	-13.32
378.89	-0.89
379.101	4.96
379.311	21.83
379.521	35.42
379.732	48.56
379.942	42.83
380.152	43.99
380.362	33.16
380.572	33.25
380.783	30.33
380.993	31.31
381.203	24.65
381.413	18.5
381.623	14.98
381.833	12.33
382.043	18.63
382.253	20.76
382.463	28.06
382.674	27.62
382.884	30.94
383.094	22.8
383.304	15.27
383.514	10.08
383.724	6.68
383.934	7.27
384.144	12.2
384.353	17.96
384.563	17.14
384.773	15.98
384.983	14.07
385.193	8.96
385.403	13.06
385.613	14.1
385.823	20.52
386.033	21.8
386.242	27.85
386.452	24.62
386.662	26.68
386.872	18.86
387.082	11.52
387.291	7.21
387.501	4.45
387.711	0.99
387.921	6.99
388.13	12.05
388.34	4.72
388.55	9.78
388.759	11.75
388.969	9.21
389.179	7.11
389.388	10.72
389.598	10.65
389.807	9.9
390.017	12.41
390.227	13.8
390.436	14.23
390.646	10.52
390.855	9.9
391.065	7.53
391.274	7.28
391.484	8.51
391.693	9.67
391.903	9.91
392.112	10.94
392.322	11.05
392.531	10.27
392.74	9.48
392.95	10.69
393.159	8.73
393.369	8.99
393.578	8.04
393.787	9.93
393.997	9.53
394.206	11.15
394.415	11.07
394.625	11.81
394.834	10.89
395.043	11.02
395.252	10.26
395.462	9.42
395.671	8.13
395.88	8.07
396.089	7.79
396.298	7.91
396.508	8.02
396.717	8.6
396.926	8.4
397.135	7.88
397.344	7.82
397.553	7.81
397.762	7.54
397.971	7.55
398.181	7.9
398.39	8.42
398.599	8.39
398.808	8.62
399.017	8.08
399.226	7.62
399.435	7
399.644	7.2
399.853	7.19
400.062	7.53
400.27	7.79
400.479	7.84
400.688	7.76
400.897	7.77
401.106	7.65
401.315	7.7
401.524	8.08
401.733	7.65
401.941	7.47
402.15	7.46
402.359	7.56
402.568	6.9
402.777	7.04
402.985	7.13
403.194	7.28
403.403	6.91
403.612	7.16
403.82	7.19
404.029	7.27
404.238	7.37
404.446	7.39
404.655	7.31
404.864	7.34
405.072	7.28
405.281	7.16
405.489	7.31
405.698	7.6
405.906	7.63
406.115	7.53
406.324	7.49
406.532	7.42
406.741	7.28
406.949	7.22
407.158	7.38
407.366	7.38
407.574	7.27
407.783	7.34
407.991	7.4
408.2	7.1
408.408	7.07
408.617	7.26
408.825	7.12
409.033	7.07
409.242	7.23
409.45	7.04
409.658	7.06
409.867	7
410.075	7.09
410.283	7.04
410.491	7.11
410.7	7.07
410.908	7.08
411.116	6.85
411.324	6.89
411.533	6.83
411.741	6.65
411.949	6.53
412.157	6.7
412.365	6.67
412.573	6.69
412.781	6.73
412.99	6.87
413.198	6.68
413.406	6.64
413.614	6.52
413.822	6.58
414.03	6.57
414.238	6.54
414.446	6.51
414.654	6.8
414.862	6.73
415.07	6.63
415.278	6.58
415.486	6.58
415.694	6.38
415.902	6.33
416.109	6.35
416.317	6.46
416.525	6.47
416.733	6.58
416.941	6.49
417.149	6.43
417.357	6.34
417.564	6.28
417.772	6
417.98	6.12
418.188	6.11
418.395	6.17
418.603	6.22
418.811	6.43
419.019	6.33
419.226	6.22
419.434	6.09
419.642	6
419.849	5.81
420.057	5.83
420.265	5.93
420.472	6.13
420.68	6.06
420.887	6.2
421.095	5.99
421.302	5.95
421.51	5.6
421.717	5.65
421.925	5.39
422.132	5.6
422.34	5.61
422.547	5.61
422.755	5.59
422.962	5.9
423.17	5.99
423.377	6.05
423.585	6.15
423.792	6.21
423.999	6.01
424.207	5.89
424.414	5.61
424.621	5.52
424.829	5.57
425.036	5.74
425.243	5.79
425.451	6
425.658	6.07
425.865	6
426.072	5.74
426.28	5.58
426.487	5.67
426.694	5.53
426.901	5.55
427.108	5.76
427.315	6.03
427.523	5.75
427.73	5.83
427.937	5.93
428.144	5.91
428.351	5.79
428.558	5.73
428.765	5.71
428.972	5.75
429.179	5.64
429.386	5.4
429.593	5.62
429.8	5.75
430.007	5.62
430.214	5.63
430.421	5.82
430.628	5.83
430.835	5.93
431.042	5.79
431.249	5.68
431.456	5.8
431.662	5.85
431.869	5.9
432.076	6.01
432.283	6.15
432.49	6.03
432.697	6.01
432.903	5.95
433.11	5.95
433.317	5.87
433.524	5.78
433.73	5.87
433.937	5.76
434.144	5.88
434.35	6
434.557	6.15
434.764	6.12
434.97	6.32
435.177	6.24
435.384	6.37
435.59	6.45
435.797	6.39
436.003	6.12
436.21	6.24
436.416	6.11
436.623	5.92
436.829	5.91
437.036	6.05
437.242	5.97
437.449	5.93
437.655	6.12
437.862	6.21
438.068	6.18
438.275	6.25
438.481	6.21
438.687	6.23
438.894	6.3
439.1	6.43
439.307	6.19
439.513	6.37
439.719	6.24
439.926	6.17
440.132	6.17
440.338	6.46
440.544	6.34
440.751	6.55
440.957	6.5
441.163	6.58
441.369	6.54
441.575	6.61
441.782	6.58
441.988	6.71
442.194	6.71
442.4	6.67
442.606	6.65
442.812	6.59
443.018	6.43
443.224	6.35
443.431	6.3
443.637	6.42
443.843	6.42
444.049	6.58
444.255	6.71
444.461	6.81
444.667	6.76
444.873	6.65
445.079	6.58
445.284	6.53
445.49	6.57
445.696	6.67
445.902	6.79
446.108	6.86
446.314	6.81
446.52	6.88
446.726	6.67
446.931	6.69
447.137	6.65
447.343	6.68
447.549	6.61
447.755	6.83
447.96	6.81
448.166	6.85
448.372	6.88
448.578	6.92
448.783	6.86
448.989	6.86
449.195	6.79
449.4	6.75
449.606	6.66
449.812	6.68
450.017	6.73
450.223	6.76
450.428	6.89
450.634	6.9
450.84	6.93
451.045	7.01
451.251	7.12
451.456	6.99
451.662	6.87
451.867	6.82
452.073	6.74
452.278	6.59
452.483	6.53
452.689	6.66
452.894	6.58
453.1	6.56
453.305	6.66
453.51	6.76
453.716	6.83
453.921	6.93
454.127	6.98
454.332	7.09
454.537	7.14
454.742	7.13
454.948	7.16
455.153	7.16
455.358	7.07
455.563	6.87
455.769	6.8
455.974	6.75
456.179	6.71
456.384	6.56
456.589	6.77
456.795	6.84
457	6.84
457.205	6.82
457.41	6.98
457.615	6.93
457.82	6.86
458.025	6.96
458.23	7.01
458.435	6.97
458.64	6.97
458.845	6.95
459.05	6.9
459.255	6.98
459.46	6.95
459.665	6.83
459.87	6.81
460.075	6.83
460.28	6.82
460.485	6.85
460.69	6.98
460.895	7.1
461.099	7.26
461.304	7.23
461.509	7.27
461.714	7.35
461.919	7.33
462.123	7.18
462.328	7.11
462.533	7.16
462.738	7.05
462.942	7.13
463.147	7.14
463.352	7.06
463.556	7.12
463.761	7.11
463.966	6.96
464.17	6.96
464.375	7.12
464.58	7.04
464.784	7.01
464.989	7.23
465.193	7.29
465.398	7.26
465.602	7.17
465.807	7.29
466.011	7.22
466.216	7.12
466.42	7.2
466.625	7.34
466.829	7.32
467.034	7.33
467.238	7.36
467.443	7.34
467.647	7.34
467.851	7.38
468.056	7.33
468.26	7.38
468.464	7.37
468.669	7.34
468.873	7.26
469.077	7.23
469.282	7.26
469.486	7.2
469.69	7.21
469.894	7.27
470.099	7.44
470.303	7.32
470.507	7.4
470.711	7.45
470.915	7.53
471.119	7.55
471.324	7.76
471.528	7.73
471.732	7.75
471.936	7.73
472.14	7.57
472.344	7.44
472.548	7.52
472.752	7.48
472.956	7.44
473.16	7.53
473.364	7.71
473.568	7.75
473.772	7.71
473.976	7.81
474.18	7.87
474.384	7.88
474.588	7.91
474.792	8.03
474.995	7.99
475.199	7.9
475.403	7.77
475.607	7.76
475.811	7.7
476.015	7.7
476.218	7.71
476.422	7.76
476.626	7.78
476.83	7.87
477.033	7.94
477.237	8
477.441	7.97
477.644	7.89
477.848	7.9
478.052	7.9
478.255	7.9
478.459	7.89
478.663	7.93
478.866	7.92
479.07	7.84
479.273	7.75
479.477	7.73
479.681	7.74
479.884	7.68
480.088	7.78
480.291	7.88
480.495	7.95
480.698	7.96
480.901	7.95
481.105	7.87
481.308	7.88
481.512	7.93
481.715	7.93
481.919	7.97
482.122	8.05
482.325	8.07
482.529	8.06
482.732	8.04
482.935	8.06
483.138	8.06
483.342	8
483.545	8.01
483.748	8.05
483.952	8.05
484.155	8.05
484.358	8.12
484.561	8.13
484.764	8.13
484.967	8.21
485.171	8.2
485.374	8.36
485.577	8.39
485.78	8.46
485.983	8.43
486.186	8.58
486.389	8.58
486.592	8.62
486.795	8.61
486.998	8.71
487.201	8.71
487.404	8.71
487.607	8.81
487.81	8.91
488.013	8.97
488.216	9.06
488.419	9.11
488.622	9.28
488.825	9.43
489.028	9.52
489.231	9.69
489.433	9.87
489.636	9.95
489.839	10.11
490.042	10.32
490.245	10.45
490.447	10.49
490.65	10.54
490.853	10.59
491.056	10.61
491.258	10.7
491.461	10.91
491.664	10.98
491.866	11.17
492.069	11.31
492.272	11.49
492.474	11.67
492.677	11.94
492.879	12.13
493.082	12.33
493.285	12.51
493.487	12.7
493.69	12.98
493.892	13.29
494.095	13.52
494.297	13.73
494.5	13.92
494.702	14.04
494.905	14.19
495.107	14.45
495.309	14.62
495.512	14.89
495.714	15.21
495.917	15.42
496.119	15.74
496.321	16.05
496.524	16.37
496.726	16.63
496.928	16.89
497.13	17.18
497.333	17.43
497.535	17.63
497.737	17.96
497.939	18.29
498.142	18.57
498.344	18.78
498.546	19.11
498.748	19.31
498.95	19.6
499.152	19.84
499.355	20.2
499.557	20.33
499.759	20.53
499.961	20.73
500.163	20.94
500.365	21.2
500.567	21.37
500.769	21.73
500.971	21.91
501.173	22.13
501.375	22.27
501.577	22.65
501.779	22.77
501.981	23
502.183	23.12
502.385	23.19
502.587	23.21
502.788	23.11
502.99	23.21
503.192	23.24
503.394	23.35
503.596	23.4
503.798	23.59
503.999	23.59
504.201	23.66
504.403	23.73
504.605	23.75
504.806	23.86
505.008	23.82
505.21	23.74
505.411	23.69
505.613	23.66
505.815	23.49
506.016	23.53
506.218	23.52
506.42	23.5
506.621	23.44
506.823	23.5
507.024	23.32
507.226	23.27
507.427	23.19
507.629	23.1
507.83	22.93
508.032	22.81
508.233	22.73
508.435	22.62
508.636	22.47
508.838	22.35
509.039	22.32
509.24	22.19
509.442	22
509.643	21.9
509.845	21.76
510.046	21.66
510.247	21.46
510.448	21.33
510.65	21.24
510.851	20.99
511.052	20.78
511.254	20.79
511.455	20.64
511.656	20.38
511.857	20.32
512.058	20.22
512.26	19.97
512.461	19.89
512.662	19.85
512.863	19.78
513.064	19.72
513.265	19.58
513.466	19.48
513.667	19.43
513.868	19.27
514.069	19.07
514.27	18.96
514.471	18.81
514.672	18.65
514.873	18.55
515.074	18.44
515.275	18.37
515.476	18.37
515.677	18.24
515.878	18.2
516.079	18.23
516.28	18.18
516.481	18.08
516.682	18
516.882	17.89
517.083	17.63
517.284	17.66
517.485	17.62
517.686	17.6
517.886	17.52
518.087	17.4
518.288	17.21
518.488	17.1
518.689	16.96
518.89	16.99
519.091	17.03
519.291	16.97
519.492	16.85
519.692	16.82
519.893	16.6
520.094	16.54
520.294	16.5
520.495	16.53
520.695	16.47
520.896	16.45
521.096	16.41
521.297	16.37
521.497	16.31
521.698	16.29
521.898	16.31
522.099	16.28
522.299	16.1
522.499	16.02
522.7	15.96
522.9	15.88
523.101	15.76
523.301	15.81
523.501	15.85
523.702	15.8
523.902	15.77
524.102	15.78
524.302	15.74
524.503	15.62
524.703	15.59
524.903	15.59
525.103	15.59
525.304	15.48
525.504	15.4
525.704	15.31
525.904	15.18
526.104	15.11
526.304	15.14
526.504	15.19
526.705	15.23
526.905	15.28
527.105	15.27
527.305	15.27
527.505	15.27
527.705	15.27
527.905	15.27
528.105	15.25
528.305	15.25
528.505	15.18
528.705	15.14
528.905	15.12
529.105	15.09
529.304	15.12
529.504	15.15
529.704	15.15
529.904	15.17
530.104	15.23
530.304	15.2
530.503	15.24
530.703	15.24
530.903	15.24
531.103	15.17
531.303	15.16
531.502	15.13
531.702	15.1
531.902	15.08
532.101	15.1
532.301	15.13
532.501	15.12
532.7	15.19
532.9	15.19
533.1	15.16
533.299	15.2
533.499	15.21
533.698	15.19
533.898	15.23
534.097	15.28
534.297	15.15
534.496	15.11
534.696	15.07
534.895	15.01
535.095	14.98
535.294	15.11
535.494	15.12
535.693	15.17
535.892	15.18
536.092	15.31
536.291	15.26
536.491	15.31
536.69	15.26
536.889	15.28
537.088	15.22
537.288	15.24
537.487	15.19
537.686	15.22
537.886	15.2
538.085	15.17
538.284	15.06
538.483	15.11
538.682	15.11
538.882	15.12
539.081	15.05
539.28	15.13
539.479	15.15
539.678	15.17
539.877	15.14
540.076	15.27
540.275	15.28
540.474	15.17
540.673	15.14
540.872	15.18
541.071	15.16
541.27	15.16
541.469	15.14
541.668	15.09
541.867	15.18
542.066	15.1
542.265	15.08
542.464	15.18
542.663	15.2
542.862	15.06
543.06	15.13
543.259	15.13
543.458	15.1
543.657	15.16
543.856	15.2
544.054	15.14
544.253	15.15
544.452	15.16
544.651	15
544.849	15.06
545.048	15.07
545.247	15.01
545.445	14.91
545.644	15
545.843	14.97
546.041	14.97
546.24	14.97
546.438	15.01
546.637	15.03
546.836	15.07
547.034	15.07
547.233	15.17
547.431	15.23
547.63	15.23
547.828	15.2
548.027	15.25
548.225	15.2
548.423	15.2
548.622	15.19
548.82	15.31
549.019	15.28
549.217	15.23
549.415	15.26
549.614	15.36
549.812	15.29
550.01	15.36
550.209	15.46
550.407	15.54
550.605	15.56
550.803	15.51
551.002	15.58
551.2	15.61
551.398	15.48
551.596	15.47
551.794	15.54
551.993	15.49
552.191	15.6
552.389	15.69
552.587	15.73
552.785	15.8
552.983	15.79
553.181	15.72
553.379	15.82
553.577	15.85
553.775	15.84
553.973	15.9
554.171	15.93
554.369	15.94
554.567	16.02
554.765	16.08
554.963	16.08
555.161	16.21
555.359	16.23
555.557	16.16
555.755	16.25
555.952	16.35
556.15	16.38
556.348	16.43
556.546	16.52
556.744	16.56
556.941	16.59
557.139	16.65
557.337	16.77
557.535	16.92
557.732	16.94
557.93	16.9
558.128	16.93
558.325	16.86
558.523	16.87
558.721	16.9
558.918	16.97
559.116	16.93
559.313	17
559.511	16.99
559.708	17.1
559.906	17.24
560.104	17.33
560.301	17.4
560.498	17.47
560.696	17.48
560.893	17.59
561.091	17.63
561.288	17.78
561.486	17.82
561.683	17.83
561.88	17.84
562.078	17.91
562.275	17.89
562.473	17.92
562.67	17.93
562.867	17.96
563.064	17.96
563.262	18.03
563.459	18.04
563.656	18.03
563.853	18.05
564.051	18.16
564.248	18.17
564.445	18.33
564.642	18.49
564.839	18.6
565.036	18.67
565.234	18.65
565.431	18.67
565.628	18.68
565.825	18.61
566.022	18.53
566.219	18.59
566.416	18.56
566.613	18.6
566.81	18.7
567.007	18.75
567.204	18.82
567.401	18.9
567.598	18.85
567.795	18.89
567.991	18.89
568.188	18.93
568.385	18.78
568.582	18.91
568.779	18.88
568.976	18.9
569.172	18.87
569.369	19.03
569.566	18.98
569.763	18.93
569.96	18.97
570.156	19.03
570.353	19.02
570.55	19
570.746	19.04
570.943	19.07
571.14	19.1
571.336	19.14
571.533	19.18
571.729	19.27
571.926	19.26
572.123	19.14
572.319	19.12
572.516	19.11
572.712	19.09
572.909	19.09
573.105	19.1
573.302	19.09
573.498	19.03
573.695	19.07
573.891	18.98
574.087	19.03
574.284	19.08
574.48	19.11
574.677	19.1
574.873	19.18
575.069	19.21
575.266	19.21
575.462	19.2
575.658	19.08
575.854	19.03
576.051	18.91
576.247	18.86
576.443	18.82
576.639	18.88
576.835	18.85
577.032	18.89
577.228	18.89
577.424	18.83
577.62	18.76
577.816	18.62
578.012	18.55
578.208	18.41
578.404	18.43
578.6	18.38
578.796	18.46
578.993	18.49
579.189	18.59
579.384	18.62
579.58	18.62
579.776	18.55
579.972	18.48
580.168	18.46
580.364	18.49
580.56	18.52
580.756	18.49
580.952	18.57
581.148	18.5
581.343	18.32
581.539	18.19
581.735	18.22
581.931	18.17
582.127	18.15
582.322	18.19
582.518	18.22
582.714	18.24
582.909	18.17
583.105	18.08
583.301	18.06
583.496	18.01
583.692	17.96
583.888	17.91
584.083	17.88
584.279	17.8
584.474	17.79
584.67	17.73
584.866	17.7
585.061	17.83
585.257	17.87
585.452	17.91
585.648	17.95
585.843	17.89
586.039	17.78
586.234	17.75
586.429	17.75
586.625	17.59
586.82	17.65
587.015	17.6
587.211	17.61
587.406	17.6
587.601	17.7
587.797	17.65
587.992	17.67
588.187	17.59
588.383	17.53
588.578	17.47
588.773	17.48
588.968	17.5
589.163	17.57
589.359	17.55
589.554	17.51
589.749	17.48
589.944	17.49
590.139	17.42
590.334	17.4
590.529	17.53
590.724	17.66
590.919	17.6
591.114	17.7
591.309	17.71
591.504	17.66
591.699	17.59
591.894	17.6
592.089	17.57
592.284	17.62
592.479	17.64
592.674	17.75
592.869	17.84
593.064	17.89
593.259	17.97
593.454	18
593.648	18.02
593.843	17.98
594.038	18.01
594.233	17.98
594.428	17.99
594.622	17.99
594.817	18.06
595.012	18.13
595.206	18.26
595.401	18.34
595.596	18.38
595.79	18.38
595.985	18.37
596.18	18.41
596.374	18.45
596.569	18.52
596.763	18.61
596.958	18.67
597.153	18.57
597.347	18.6
597.542	18.55
597.736	18.65
597.931	18.66
598.125	18.74
598.319	18.72
598.514	18.82
598.708	18.83
598.903	18.84
599.097	18.88
599.291	19.01
599.486	19.02
599.68	19.07
599.874	19.09
600.069	19.11
600.263	19.12
600.457	19.18
600.651	19.12
600.846	19.25
601.04	19.24
601.234	19.23
601.428	19.18
601.622	19.22
601.817	19.14
602.011	19.23
602.205	19.27
602.399	19.26
602.593	19.27
602.787	19.27
602.981	19.16
603.175	19.2
603.369	19.24
603.563	19.23
603.757	19.26
603.951	19.29
604.145	19.18
604.339	19.13
604.533	19.14
604.727	19.13
604.921	19.13
605.115	19.1
605.309	19.13
605.502	19.05
605.696	19.01
605.89	18.94
606.084	18.98
606.278	18.99
606.471	18.96
606.665	18.89
606.859	18.92
607.053	18.85
607.246	18.72
607.44	18.63
607.634	18.64
607.827	18.55
608.021	18.47
608.214	18.51
608.408	18.48
608.602	18.45
608.795	18.55
608.989	18.55
609.182	18.49
609.376	18.4
609.569	18.32
609.763	18.06
609.956	17.95
610.15	17.82
610.343	17.89
610.537	17.8
610.73	17.79
610.923	17.78
611.117	17.76
611.31	17.59
611.504	17.5
611.697	17.48
611.89	17.4
612.083	17.31
612.277	17.32
612.47	17.39
612.663	17.31
612.856	17.2
613.05	17.21
613.243	17.1
613.436	16.99
613.629	16.93
613.822	16.92
614.015	16.89
614.209	16.85
614.402	16.83
614.595	16.87
614.788	16.85
614.981	16.74
615.174	16.75
615.367	16.65
615.56	16.51
615.753	16.49
615.946	16.53
616.139	16.47
616.332	16.36
616.525	16.32
616.718	16.22
616.911	16.15
617.103	16.14
617.296	16.13
617.489	16.08
617.682	16.13
617.875	16.03
618.067	15.92
618.26	15.97
618.453	15.94
618.646	15.76
618.838	15.68
619.031	15.63
619.224	15.57
619.417	15.64
619.609	15.65
619.802	15.66
619.994	15.68
620.187	15.59
620.38	15.48
620.572	15.53
620.765	15.49
620.957	15.48
621.15	15.51
621.342	15.54
621.535	15.31
621.727	15.34
621.92	15.38
622.112	15.34
622.305	15.26
622.497	15.4
622.69	15.3
622.882	15.15
623.074	15.12
623.267	15.12
623.459	15.07
623.651	15.11
623.844	15.13
624.036	15.08
624.228	15.05
624.42	15.06
624.613	15.02
624.805	15
624.997	15.06
625.189	15.06
625.381	15.06
625.574	15.05
625.766	15.07
625.958	14.99
626.15	14.9
626.342	14.89
626.534	14.81
626.726	14.72
626.918	14.66
627.11	14.68
627.302	14.58
627.494	14.64
627.686	14.71
627.878	14.68
628.07	14.59
628.262	14.6
628.454	14.56
628.646	14.5
628.838	14.48
629.029	14.49
629.221	14.43
629.413	14.34
629.605	14.3
629.797	14.23
629.989	14.22
630.18	14.17
630.372	14.14
630.564	14.05
630.755	14.05
630.947	14.03
631.139	14.03
631.33	14.03
631.522	13.98
631.714	14
631.905	14.02
632.097	13.97
632.289	14.01
632.48	14.05
632.672	14
632.863	13.96
633.055	13.98
633.246	13.95
633.438	13.91
633.629	13.9
633.821	13.94
634.012	13.9
634.203	13.88
634.395	13.94
634.586	13.98
634.777	13.88
634.969	13.91
635.16	13.9
635.351	13.9
635.543	13.87
635.734	13.93
635.925	14
636.117	13.98
636.308	13.95
636.499	13.92
636.69	13.92
636.881	13.84
637.073	13.81
637.264	13.78
637.455	13.8
637.646	13.75
637.837	13.74
638.028	13.71
638.219	13.71
638.41	13.8
638.601	13.78
638.792	13.79
638.983	13.84
639.174	13.77
639.365	13.64
639.556	13.68
639.747	13.68
639.938	13.65
640.129	13.7
640.32	13.71
640.511	13.72
640.701	13.65
640.892	13.62
641.083	13.53
641.274	13.53
641.465	13.46
641.655	13.55
641.846	13.5
642.037	13.53
642.228	13.38
642.418	13.22
642.609	13.17
642.8	13.24
642.99	13.27
643.181	13.3
643.372	13.45
643.562	13.45
643.753	13.43
643.943	13.41
644.134	13.49
644.324	13.41
644.515	13.42
644.705	13.33
644.896	13.3
645.086	13.2
645.277	13.21
645.467	13.27
645.658	13.32
645.848	13.24
646.038	13.32
646.229	13.31
646.419	13.11
646.61	13.09
646.8	13.14
646.99	13.05
647.18	13.07
647.371	13.09
647.561	13.05
647.751	13.08
647.941	13.07
648.132	13.17
648.322	13.27
648.512	13.31
648.702	13.28
648.892	13.2
649.082	13.06
649.272	12.95
649.462	12.89
649.653	12.91
649.843	12.94
650.033	12.86
650.223	12.81
650.413	12.78
650.603	12.74
650.793	12.74
650.983	12.79
651.172	12.86
651.362	12.79
651.552	12.67
651.742	12.7
651.932	12.6
652.122	12.55
652.312	12.51
652.502	12.53
652.691	12.42
652.881	12.42
653.071	12.42
653.261	12.38
653.45	12.31
653.64	12.31
653.83	12.27
654.019	12.16
654.209	12.11
654.399	11.96
654.588	11.87
654.778	11.7
654.968	11.5
655.157	11.4
655.347	11.38
655.536	11.27
655.726	11.25
655.915	11.21
656.105	11.18
656.294	11.1
656.484	11.11
656.673	11.14
656.863	11.07
657.052	10.98
657.241	10.97
657.431	10.86
657.62	10.68
657.809	10.56
657.999	10.48
658.188	10.38
658.377	10.29
658.567	10.16
658.756	10.08
658.945	10
659.134	9.92
659.324	9.82
659.513	9.68
659.702	9.7
659.891	9.62
660.08	9.53
660.269	9.42
660.458	9.33
660.648	9.22
660.837	9.14
661.026	8.98
661.215	8.94
661.404	8.99
661.593	8.79
661.782	8.68
661.971	8.66
662.16	8.55
662.349	8.39
662.538	8.44
662.726	8.43
662.915	8.47
663.104	8.4
663.293	8.25
663.482	8.1
663.671	7.99
663.86	7.86
664.048	7.86
664.237	7.99
664.426	8.04
664.615	7.98
664.803	7.89
664.992	7.75
665.181	7.64
665.369	7.53
665.558	7.49
665.747	7.49
665.935	7.63
666.124	7.63
666.312	7.56
666.501	7.57
666.69	7.56
666.878	7.42
667.067	7.43
667.255	7.52
667.444	7.31
667.632	7.34
667.82	7.21
668.009	7.15
668.197	7.15
668.386	7.25
668.574	7.11
668.762	7.25
668.951	7.25
669.139	7.33
669.327	7.44
669.516	7.43
669.704	7.4
669.892	7.4
670.08	7.22
670.269	7.21
670.457	7.17
670.645	7.27
670.833	7.2
671.021	7.27
671.21	7.23
671.398	7.25
671.586	7.24
671.774	7.4
671.962	7.46
672.15	7.57
672.338	7.71
672.526	7.74
672.714	7.72
672.902	7.6
673.09	7.45
673.278	7.35
673.466	7.33
673.654	7.19
673.842	7.45
674.03	7.58
674.218	7.78
674.405	7.74
674.593	7.86
674.781	7.66
674.969	7.55
675.157	7.46
675.344	7.53
675.532	7.48
675.72	7.66
675.908	7.77
676.095	7.85
676.283	7.95
676.471	7.92
676.658	7.85
676.846	8.01
677.033	8.08
677.221	8.06
677.409	8.28
677.596	8.4
677.784	8.37
677.971	8.39
678.159	8.46
678.346	8.47
678.534	8.57
678.721	8.5
678.909	8.54
679.096	8.59
679.283	8.57
679.471	8.54
679.658	8.69
679.846	8.69
680.033	8.58
680.22	8.74
680.408	8.78
680.595	8.82
680.782	9.03
680.969	9.09
681.157	9.03
681.344	9
681.531	9.02
681.718	9.03
681.905	9.07
682.093	9.19
682.28	9.18
682.467	9.36
682.654	9.32
682.841	9.52
683.028	9.65
683.215	9.91
683.402	9.85
683.589	9.97
683.776	10.1
683.963	10.18
684.15	10.2
684.337	10.47
684.524	10.59
684.711	10.64
684.898	10.73
685.085	10.89
685.271	11
685.458	11.1
685.645	11.28
685.832	11.43
686.019	11.62
686.205	11.63
686.392	11.94
686.579	12.2
686.766	12.17
686.952	12.21
687.139	12.53
687.326	12.64
687.512	12.67
687.699	13.03
687.886	13.18
688.072	13.37
688.259	13.71
688.445	14.14
688.632	14.6
688.818	14.95
689.005	15.09
689.191	15.24
689.378	15.43
689.564	15.55
689.751	15.87
689.937	16.34
690.124	16.62
690.31	16.91
690.496	17.36
690.683	17.68
690.869	17.79
691.055	18.14
691.242	18.44
691.428	18.53
691.614	18.85
691.8	19.41
691.987	19.65
692.173	20.01
692.359	20.46
692.545	20.85
692.731	21.24
692.918	21.65
693.104	22.08
693.29	22.44
693.476	22.86
693.662	23.23
693.848	23.78
694.034	24.19
694.22	24.7
694.406	25.43
694.592	25.84
694.778	26.28
694.964	26.63
695.15	27.28
695.336	27.42
695.522	27.87
695.708	28.37
695.894	28.84
696.08	29.26
696.265	29.87
696.451	30.46
696.637	31.03
696.823	31.62
697.009	32.14
697.194	32.57
697.38	32.88
697.566	33.31
697.751	34.02
697.937	34.42
698.123	34.83
698.308	35.2
698.494	35.62
698.68	35.73
698.865	36.14
699.051	36.57
699.236	37.17
699.422	37.7
699.607	38.39
699.793	38.94
699.978	39.38
700.164	40.11
700.349	40.21
700.535	40.52
700.72	40.92
700.906	41.46
701.091	41.58
701.276	42.16
701.462	42.52
701.647	42.85
701.832	43.14
702.018	43.63
702.203	44.23
702.388	44.9
702.573	45.58
702.759	45.9
702.944	46.31
703.129	46.54
703.314	46.76
703.499	46.81
703.684	47.4
703.87	47.58
704.055	47.89
704.24	48.43
704.425	48.91
704.61	49.36
704.795	49.91
704.98	50.29
705.165	50.34
705.35	50.53
705.535	50.99
705.72	51.11
705.905	51.36
706.09	51.84
706.275	52.37
706.459	52.49
706.644	52.9
706.829	53.39
707.014	53.54
707.199	53.8
707.384	53.65
707.568	53.87
707.753	54.15
707.938	54.18
708.123	54.22
708.307	55.17
708.492	55.41
708.677	55.49
708.861	55.97
709.046	56.41
709.231	56.29
709.415	56.49
709.6	56.69
709.784	57.35
709.969	57.35
710.153	57.67
710.338	58.19
710.522	58.45
710.707	58.12
710.891	58.18
711.076	57.9
711.26	57.81
711.445	57.73
711.629	58.22
711.813	58.67
711.998	59.11
712.182	59.31
712.366	59.98
712.551	60.15
712.735	60.45
712.919	60.47
713.103	60.82
713.288	60.71
713.472	60.88
713.656	60.71
713.84	60.99
714.024	60.97
714.208	61.42
714.393	61.69
714.577	62.2
714.761	62.35
714.945	62.51
715.129	62.18
715.313	61.9
715.497	61.98
715.681	61.84
715.865	62.08
716.049	62.53
716.233	62.89
716.417	62.7
716.601	63.17
716.785	63.43
716.968	63.58
717.152	63.55
717.336	63.83
717.52	64.04
717.704	64.12
717.888	64.22
718.071	64.14
718.255	64.15
718.439	64.2
718.622	64.32
718.806	63.94
718.99	64.29
719.174	64.71
719.357	64.94
719.541	64.8
719.724	65.53
719.908	65.93
720.092	65.85
720.275	65.75
720.459	66.13
720.642	65.84
720.826	66.06
721.009	65.86
721.193	66.51
721.376	66.32
721.559	66.47
721.743	65.79
721.926	66.05
722.11	65.75
722.293	65.86
722.476	65.97
722.66	66.31
722.843	66.58
723.026	66.59
723.21	66.94
723.393	66.78
723.576	67
723.759	67.17
723.942	67.57
724.126	67.83
724.309	68.7
724.492	69.02
724.675	69.41
724.858	69.38
725.041	68.51
725.224	68.53
725.407	68.69
725.59	68.57
725.774	68.67
725.957	69.9
726.14	69.73
726.322	69.29
726.505	69.49
726.688	69.86
726.871	69.38
727.054	69.71
727.237	69.85
727.42	69.48
727.603	69.62
727.786	70.03
727.968	70.25
728.151	71.1
728.334	71.68
728.517	72.16
728.699	72.23
728.882	72.16
729.065	72.33
729.248	72.25
729.43	71.82
729.613	71.84
729.796	72.32
729.978	72.32
730.161	72.73
730.343	72.78
730.526	72.81
730.708	73.02
730.891	72.89
731.073	73.16
731.256	73.66
731.438	74.32
731.621	73.96
731.803	73.79
731.986	73.43
732.168	73.63
732.35	73.85
732.533	73.72
732.715	74.68
732.898	74.39
733.08	73.65
733.262	73.25
733.444	73.76
733.627	73.65
733.809	74.84
733.991	74.97
734.173	75.19
734.355	74.95
734.538	75.61
734.72	75.48
734.902	75.64
735.084	75.84
735.266	75.92
735.448	75.46
735.63	75.89
735.812	76.99
735.994	75.67
736.176	76.31
736.358	75.39
736.54	74.75
736.722	74.07
736.904	75.79
737.086	75.29
737.268	76.28
737.45	77.12
737.632	77.55
737.814	77.71
737.995	77.51
738.177	77.09
738.359	76.89
738.541	76.65
738.723	76.61
738.904	76.75
739.086	77.12
739.268	76.27
739.449	76.5
739.631	76.28
739.813	76.43
739.994	76.81
740.176	77.45
740.358	77.47
740.539	77.19
740.721	77.51
740.902	77.08
741.084	76.05
741.265	76.55
741.447	76.59
741.628	75.96
741.81	76.68
741.991	77.55
742.172	76.71
742.354	76.87
742.535	78.04
742.717	78.1
742.898	78.84
743.079	79.7
743.261	80.02
743.442	80.42
743.623	79.27
743.804	78.7
743.986	78.67
744.167	79.06
744.348	78.82
744.529	79.23
744.71	78.98
744.891	78.89
745.073	78.96
745.254	78.7
745.435	78.94
745.616	80.06
745.797	79.46
745.978	80.15
746.159	80.45
746.34	80.78
746.521	80.03
746.702	80.89
746.883	80.41
747.064	81.15
747.245	81.24
747.426	81.61
747.606	81.34
747.787	81.11
747.968	80.02
748.149	80.62
748.33	80.41
748.51	79.89
748.691	79.61
748.872	80.69
749.053	80.55
749.233	81.82
749.414	81.61
749.595	81.55
749.775	81.28
749.956	81.68
750.137	80.28
750.317	79.91
750.498	78.99
750.678	78.29
750.859	77.25
751.04	77.44
751.22	79.78
751.4	80.09
751.581	80.44
751.761	79.24
751.942	78.54
752.122	77.48
752.303	77.91
752.483	78.08
752.663	79.03
752.844	79.84
753.024	80.67
753.204	81.41
753.385	81.03
753.565	81.04
753.745	80.69
753.925	79.45
754.106	79.15
754.286	78.65
754.466	80.34
754.646	80.4
754.826	81.44
755.006	82.57
755.187	82.05
755.367	80.34
755.547	80.99
755.727	80.38
755.907	79.65
756.087	79.51
756.267	81.34
756.447	80.02
756.627	79.39
756.807	77.74
756.987	79.69
757.167	79.18
757.346	79.73
757.526	79.96
757.706	80.09
757.886	80.02
758.066	79.02
758.246	78.85
758.425	80.37
758.605	81.57
758.785	80.86
758.965	82.03
759.144	83.32
759.324	82.28
759.504	82.29
759.683	84.01
759.863	82.21
760.043	80.87
760.222	80.73
760.402	79.69
760.581	78.79
760.761	78.65
760.94	79.57
761.12	79
761.299	79.42
761.479	77.89
761.658	79.23
761.838	78.74
762.017	78.98
762.197	79.65
762.376	81.08
762.555	78.97
762.735	78.16
762.914	79.1
763.093	78.02
763.273	77.1
763.452	78.51
763.631	78.67
763.81	78.59
763.99	79.96
764.169	81.48
764.348	79.68
764.527	80.31
764.706	78.75
764.885	78.45
765.064	76.06
765.243	77.66
765.423	77.62
765.602	77.1
765.781	77.27
765.96	79.19
766.139	78.97
766.318	78.93
766.497	79.78
766.676	79.43
766.854	77.7
767.033	77.77
767.212	78.36
767.391	79.41
767.57	79.15
767.749	80.21
767.928	80.31
768.106	80.28
768.285	79.94
768.464	81.12
768.643	82.14
768.821	80.87
769	79.42
769.179	79.07
769.357	79.76
769.536	78.01
769.715	77.51
769.893	77.69
770.072	78.43
770.25	76.66
770.429	77.71
770.607	78.87
770.786	78.95
770.964	77.66
771.143	77.8
771.321	76.24
771.5	75.2
771.678	74.79
771.857	75.31
772.035	74.77
772.213	74.91
772.392	75.94
772.57	76.93
772.748	76.29
772.927	78.03
773.105	77.21
773.283	76.45
773.461	77.06
773.64	77.96
773.818	77.38
773.996	77.93
774.174	76.94
774.352	76.08
774.531	74.49
774.709	73.19
774.887	74.49
775.065	77.22
775.243	80.14
775.421	80.24
775.599	80.91
775.777	79.06
775.955	76.91
776.133	76.16
776.311	75.97
776.489	76.78
776.667	77.68
776.844	77.66
777.022	75.13
777.2	77.29
777.378	76.93
777.556	78.12
777.734	79.47
777.911	79.57
778.089	77.67
778.267	76.8
778.445	77.38
778.622	76.46
778.8	75.04
778.978	73.98
779.155	76.63
779.333	75.44
779.511	75.05
779.688	74.37
779.866	78.36
780.043	77.78
780.221	76.48
780.398	77.01
780.576	76.07
780.753	74.2
780.931	71.57
781.108	71.82
781.286	72.91
781.463	77.31
781.64	77.51
781.818	77.26
781.995	78.1
782.172	77.24
782.35	77.94
782.527	77.18
782.704	77.35
782.882	78.2
783.059	78.31
783.236	75.41
783.413	75.42
783.59	75.42
783.768	78.34
783.945	78.41
784.122	80.61
784.299	79.93
784.476	80.83
784.653	78.76
784.83	79.03
785.007	77.9
785.184	78.12
785.361	79.42
785.538	75.78
785.715	75.44
785.892	75.74
786.069	75.06
786.246	71.86
786.423	73.14
786.6	73.68
786.776	73.72
786.953	75.12
787.13	76.68
787.307	76.54
787.484	78.46
787.66	77.83
787.837	78.81
788.014	79.76
788.191	80.74
788.367	79.23
788.544	77.22
788.721	79.47
788.897	79.85
789.074	78.81
789.25	77.89
789.427	80.52
789.603	77.03
789.78	76.36
789.956	77.56
790.133	78.2
790.309	77.83
790.486	74.28
790.662	76.43
790.839	78.06
791.015	75.65
791.192	77.16
791.368	79.82
791.544	78.7
791.721	78.61
791.897	79.91
792.073	78.16
792.249	79.91
792.426	76.43
792.602	73.3
792.778	75.41
792.954	76.29
793.13	77.26
793.307	80.61
793.483	81.26
793.659	81.18
793.835	80.88
794.011	76.59
794.187	75.19
794.363	76.88
794.539	73.25
794.715	74.75
794.891	75.42
795.067	76.59
795.243	76.63
795.419	79.16
795.595	74.3
795.771	78.62
795.947	74.64
796.122	74.46
796.298	74.02
796.474	74.65
796.65	69.28
796.826	73.67
797.001	72.25
797.177	71.42
797.353	72.47
797.529	75.89
797.704	76.37
797.88	77.21
798.056	79.31
798.231	82.41
798.407	74.72
798.582	73.03
798.758	73.99
798.934	73.46
799.109	71.56
799.285	79.63
799.46	76.52
799.636	76.18
799.811	74.37
799.986	71.83
800.162	67.44
800.337	68.38
800.513	71.88
800.688	76.43
800.863	78.22
801.039	81.44
801.214	86.99
801.389	84.89
801.565	81
801.74	81.76
801.915	80.07
802.09	75.75
802.265	71.21
802.441	73.22
802.616	72.5
802.791	76.12
802.966	74.89
803.141	80.3
803.316	84.57
803.491	83.29
803.666	75.2
803.841	79.73
804.016	77.16
804.191	74.07
804.366	80.89
804.541	91.42
804.716	86.43
804.891	84.56
805.066	77.36
805.241	75.42
805.416	74.41
805.591	72.35
805.765	70.53
805.94	70.58
806.115	67.76
806.29	62.02
806.464	63.11
806.639	64.67
806.814	71.33
806.989	73.93
807.163	72
807.338	70.28
807.512	71.5
807.687	70.09
807.862	65.63
808.036	66.25
808.211	73.34
808.385	75.42
808.56	69.55
808.734	70.61
808.909	74.77
809.083	75.52
809.258	67.1
809.432	70.64
809.606	69.47
809.781	70.57
809.955	63.37
810.13	62.29
810.304	66.97
810.478	73.34
810.652	69.25
810.827	75.81
811.001	77.23
811.175	77.63
811.349	75.19
811.524	75.28
811.698	70.61
811.872	71.4
812.046	71.83
812.22	70.93
812.394	86.51
812.568	88.45
812.742	88.4
812.916	87.63
813.09	90.68
813.264	82.85
813.438	94.6
813.612	98.98
813.786	106.46
813.96	97.18
814.134	94.72
814.308	77.98
814.482	79.59
814.656	72.15
814.83	75.26
815.003	77.19
815.177	89.78
815.351	84.65
815.525	73.54
815.698	72.58
815.872	68.84
816.046	69.47
816.219	67.04
816.393	71.75
816.567	81.04
816.74	85.93
816.914	67.3
817.088	71.6
817.261	78
817.435	72.77
817.608	62.08
817.782	77.12
817.955	81.87
818.129	78.02
818.302	70.6
818.475	67.42
818.649	58.3
818.822	56.3
818.996	42.01
819.169	51.89
819.342	54.22
819.516	53.9
819.689	44.23
819.862	58.1
820.035	60.25
820.209	70.38
820.382	73.75
820.555	81.7
820.728	73.32
820.901	75.8
821.075	78.94
821.248	78.81
821.421	88.05
821.594	89.49
821.767	93.06
821.94	80.13
822.113	84.02
822.286	73.28
822.459	68.26
822.632	59.59
822.805	62.47
822.978	70.81
823.151	72.45
823.324	90.03
823.496	103.95
823.669	100.66
823.842	98.32
824.015	115.38
824.188	97.56
824.361	84.57
824.533	89.97
824.706	74.58
824.879	63.52
825.051	54.56
825.224	55.2
825.397	53.15
825.569	61.14
825.742	60.31
825.915	68.08
826.087	69.06
826.26	64.61
826.432	68.04
826.605	61.57
826.777	57.17
826.95	61.2
827.122	65.65
827.295	65.99
827.467	72.81
827.64	81.2
827.812	84.36
827.984	74.86
828.157	69.85
828.329	66.89
828.501	75.7
828.674	70.23
828.846	89.77
829.018	89.49
829.19	93.84
829.363	78.27
829.535	78.36
829.707	66.21
829.879	69.64
830.051	70.45
830.223	77.04
830.395	75.95
830.568	86.39
830.74	79.85
830.912	66.65
831.084	48.51
831.256	50.42
831.428	54.51
831.6	56.64
831.772	67.69
831.943	74.31
832.115	68.35
832.287	64.75
832.459	76.19
832.631	68.6
832.803	72.82
832.975	80.03
833.146	60.68
833.318	64.74
833.49	66.51
833.662	85.3
833.833	77.82
834.005	74.23
834.177	74.97
834.348	91.97
834.52	69.1
834.692	88.87
834.863	108.85
835.035	92.76
835.206	87.45
835.378	99.76
835.549	95.73
835.721	84.92
835.892	75.37
836.064	67.24
836.235	57.84
836.407	53.79
836.578	65.43
836.749	79.13
836.921	83.51
837.092	94.99
837.264	103.8
837.435	88.18
837.606	61.93
837.777	49.78
837.949	42.15
838.12	40.5
838.291	46.55
838.462	54.78
838.633	68.04
838.805	77.21
838.976	87.87
839.147	78.97
839.318	119.39
839.489	127.74
839.66	106.95
839.831	63.23
840.002	73.49
840.173	71.11
840.344	64.86
840.515	63.22
840.686	68.51
840.857	75.95
841.028	77.55
841.199	74.02
841.369	87.65
841.54	108.2
841.711	129.04
841.882	125.8
842.053	111.86
842.223	118.52
842.394	99.58
842.565	92.95
842.736	78.01
842.906	72.51
843.077	62.72
843.248	79.15
843.418	84.37
843.589	94.77
843.759	105.54
843.93	109.44
844.101	86.42
844.271	59.29
844.442	36.76
844.612	-22.78
844.783	-3.65
844.953	18.66
845.123	1.28
845.294	-2.87
845.464	47.87
845.635	45.17
845.805	45.98
845.975	76.68
846.146	92.72
846.316	109.99
846.486	104.27
846.656	85.07
846.827	89.34
846.997	88.82
847.167	79.19
847.337	88.54
847.507	93.28
847.677	93.71
847.848	82.71
848.018	85.75
848.188	72.91
848.358	84.23
848.528	69.84
848.698	91.57
848.868	88.97
849.038	86.87
849.208	83.16
849.378	84.55
849.548	98.6
849.718	114.24
849.887	115.86
850.057	162.46
850.227	135.16
850.397	100.97
850.567	95.26
850.737	58.89
850.906	48.66
851.076	63.68
851.246	66.11
851.415	66.09
851.585	117.66
851.755	150.6
851.924	138.2
852.094	114.3
852.264	111.72
852.433	102.18
852.603	85.42
852.772	72.44
852.942	81.74
853.111	72.86
853.281	75.41
853.45	58.02
853.62	83.79
853.789	74.04
853.959	47.52
854.128	56.55
854.297	63.53
854.467	57.41
854.636	34.61
854.805	100.76
854.975	66.27
855.144	93.69
855.313	74.69
855.482	97.15
855.652	91.66
855.821	114.21
855.99	97.99
856.159	86.22
856.328	76.9
856.497	61.06
856.667	59.12
856.836	45.08
857.005	65.43
857.174	71.95
857.343	80.43
857.512	52.83
857.681	76.17
857.85	94.78
858.019	74.53
858.188	109.98
858.356	128.12
858.525	183.43
858.694	417.11
858.863	316.27
859.032	209.16
859.201	233.83
859.369	127.97
859.538	58.05
859.707	63.07
859.876	59.4
860.044	71.22
860.213	71.4
860.382	76.38
860.55	60.61
860.719	45.86
860.888	42.83
861.056	51.3
861.225	50.46
861.393	53.95
861.562	38.27
861.73	41.48
861.899	58.11
862.067	73.91
862.236	80.28
862.404	117.38
862.572	123.46
862.741	147.95
862.909	121.68
863.078	162.54
863.246	141.95
863.414	105.13
863.582	54.91
863.751	64.74
863.919	50.98
864.087	44.19
864.255	70.9
864.424	96.78
864.592	110.06
864.76	113.78
864.928	92.4
865.096	82.45
865.264	77.67
865.432	61.65
865.6	12.07
865.768	47.67
865.936	55.85
866.104	62.53
866.272	102.64
866.44	141.56
866.608	124.3
866.776	103.54
866.944	75.53
867.112	50.51
867.28	69.46
867.448	40.21
867.615	21.27
867.783	34.75
867.951	56.41
868.119	-4.94
868.286	11.1
868.454	54.08
868.622	69.5
868.789	83.05
868.957	124.01
869.125	159.3
869.292	109.09
869.46	99.59
869.627	57.72
869.795	63.7
869.963	59.79
870.13	67.73
870.298	46.26
870.465	49.18
870.632	63.26
870.8	57.25
870.967	47.35
871.135	64.05
871.302	65.47
871.469	29.34
871.637	-2.07
871.804	12.86
871.971	48.44
872.139	67.39
872.306	69.49
872.473	82.68
872.64	88.46
872.807	60.52
872.975	59.49
873.142	95.77
873.309	125.38
873.476	110.97
873.643	45.11
873.81	73.56
873.977	60.87
874.144	-1.78
874.311	49.16
874.478	115.96
874.645	122.07
874.812	133.15
874.979	125.85
875.146	145.07
875.313	132.79
875.48	102.71
875.647	93.67
875.813	101.92
875.98	58.94
876.147	60.58
876.314	36.93
876.481	33.52
876.647	35.33
876.814	139.09
876.981	172.22
877.147	-159.04
877.314	150.88
877.481	112.06
877.647	57.18
877.814	103.66
877.98	106.55
878.147	85.38
878.314	31.67
878.48	72.17
878.647	61.83
878.813	-29.74
878.979	-47.07
879.146	18.57
879.312	29.56
879.479	36.63
879.645	102.15
879.811	116.61
879.978	136.71
880.144	84.22
880.31	89.47
880.477	66.8
880.643	86.7
880.809	31.04
880.975	8.8
881.142	88.74
881.308	59.77
881.474	47.47
881.64	55.26
881.806	69.8
881.972	60.15
882.138	20.09
882.304	-80.09
882.47	98.76
882.636	47.89
882.802	-99.12
882.968	-15.91
883.134	43.45
883.3	14.5
883.466	36.48
883.632	37.17
883.798	60.14
883.964	54.64
884.129	52.35
884.295	47.03
884.461	81.49
884.627	80.6
884.793	87.91
884.958	78.9
885.124	94.49
885.29	76.94
885.455	65.55
885.621	87.59
885.787	157.53
885.952	336.47
886.118	409.93
886.283	333.26
886.449	371.98
886.614	235.68
886.78	256.13
886.945	347.47
887.111	522.44
887.276	-931.48
887.442	-462.38
887.607	65.52
887.773	54.74
887.938	61.4
888.103	63.27
888.269	66
888.434	70.97
888.599	67.63
888.764	41.75
888.93	69.57
889.095	104.59
889.26	134.82
889.425	-3911.9
889.59	-1327.33
889.756	389.95
889.921	2014.1
890.086	48.12
890.251	27.92
890.416	89.34
890.581	-27.46
890.746	-26.94
890.911	29.82
891.076	32.83
891.241	10.21
891.406	39.51
891.571	40.62
891.736	62.74
891.901	58.29
892.065	10.1
892.23	-172.88
892.395	2.53
892.56	16.16
892.725	-20.54
892.889	54.22
893.054	117.04
893.219	95.74
893.384	72.61
893.548	125.5
893.713	98.56
893.878	-1.94
