Data from Ofav_PP_Phys_9AZ7_Reflection_3.txt Node
Date: Tue Aug 03 18:16:27 EDT 2021
User: Adam
Spectrometer: FLMT01687
Trigger mode: 0
Integration Time (sec): 8.750000E-1
Scans to average: 2
Electric dark correction enabled: true
Nonlinearity correction enabled: false
Boxcar width: 2
XAxis mode: Wavelengths
Number of Pixels in Spectrum: 3648
>>>>>Begin Spectral Data<<<<<
179.494	242.34
179.716	291.33
179.937	386.17
180.158	630.71
180.38	3931.58
180.601	326.9
180.823	392.72
181.044	140.92
181.265	182.63
181.486	195.52
181.708	93.31
181.929	238.35
182.15	134.31
182.372	558.23
182.593	-224.05
182.814	-5.49
183.035	542.55
183.257	723.53
183.478	195.36
183.699	-136.14
183.92	-54.23
184.141	-84.04
184.363	5.74
184.584	-156.03
184.805	14.14
185.026	-12.96
185.247	9.47
185.468	1.93
185.689	29.82
185.91	40.92
186.132	32.81
186.353	65.98
186.574	35.28
186.795	56.32
187.016	17.71
187.237	37.54
187.458	4.67
187.679	6.57
187.9	-13.34
188.121	1.64
188.342	-44.6
188.563	-35.34
188.784	-15.07
189.005	-12.28
189.226	-21.42
189.447	16.99
189.667	19.05
189.888	26.72
190.109	25.47
190.33	21.95
190.551	32.01
190.772	52.99
190.993	26.77
191.214	38.01
191.434	52.96
191.655	19.54
191.876	18.61
192.097	44.43
192.318	42.45
192.538	41.34
192.759	42.43
192.98	37.93
193.201	4.15
193.421	16.23
193.642	-10.45
193.863	1
194.083	13.44
194.304	31.4
194.525	16.38
194.745	41.09
194.966	63.33
195.187	59.04
195.407	60.13
195.628	47.35
195.848	52.41
196.069	44.59
196.29	10.7
196.51	15.05
196.731	56.39
196.951	28.96
197.172	51.2
197.392	107.03
197.613	85.69
197.833	91.62
198.054	143.96
198.274	86.16
198.495	59.59
198.715	47.42
198.936	38.12
199.156	12.05
199.377	36.84
199.597	56.64
199.817	73.51
200.038	36.78
200.258	48.84
200.479	-11.83
200.699	-57.38
200.919	-99.53
201.14	17.33
201.36	14.39
201.58	23.71
201.801	2.12
202.021	21.66
202.241	-10.09
202.461	3.49
202.682	8.93
202.902	25.62
203.122	22.82
203.342	27.03
203.563	-41.13
203.783	-22.79
204.003	4.29
204.223	17.97
204.443	-9.33
204.663	20.12
204.884	20.68
205.104	-8.67
205.324	-27.51
205.544	0.22
205.764	-9.4
205.984	-25.76
206.204	-25.96
206.424	-73.43
206.644	-14.89
206.864	-38.43
207.084	-24.69
207.304	-19.91
207.525	39.75
207.745	41.75
207.964	31.26
208.184	40.44
208.404	63.66
208.624	51.25
208.844	30.18
209.064	52.07
209.284	51.11
209.504	17.29
209.724	-2.09
209.944	8.87
210.164	-22.51
210.384	8.54
210.604	22.41
210.823	102.32
211.043	79.35
211.263	102.19
211.483	85.34
211.703	100.27
211.922	60.85
212.142	41.71
212.362	36.14
212.582	21.71
212.801	8.02
213.021	19.09
213.241	9.41
213.461	27.37
213.68	60.65
213.9	28.96
214.12	30.57
214.339	46.31
214.559	65.44
214.779	22.58
214.998	54.89
215.218	66.63
215.438	63.96
215.657	43.56
215.877	53.33
216.096	40.22
216.316	47.78
216.535	40.11
216.755	3.45
216.974	14.73
217.194	49.05
217.413	46.5
217.633	54.18
217.852	74.6
218.072	76.28
218.291	52.89
218.511	31.7
218.73	49.35
218.95	45.73
219.169	35.76
219.389	42.01
219.608	52.92
219.827	17.02
220.047	4.87
220.266	24.8
220.485	25.33
220.705	3.34
220.924	16.2
221.143	11.35
221.363	24.97
221.582	14.89
221.801	33.72
222.021	16.64
222.24	25.79
222.459	-49.73
222.678	-17.5
222.897	-17.54
223.117	-47.53
223.336	-232.37
223.555	-67.63
223.774	-89.82
223.993	-61.95
224.213	-52.5
224.432	4.8
224.651	11.65
224.87	17.43
225.089	8.77
225.308	18.8
225.527	-8.94
225.746	-30.68
225.965	-41.96
226.184	-69.05
226.404	-15.77
226.623	22.21
226.842	34.49
227.061	10.53
227.28	32.35
227.499	35.95
227.718	26.99
227.936	29.86
228.155	60.73
228.374	53.14
228.593	30.72
228.812	14.03
229.031	-10.17
229.25	2.74
229.469	-37.14
229.688	-34.68
229.907	-96.26
230.125	-69.47
230.344	-67.76
230.563	-40.1
230.782	-42.36
231.001	11.16
231.22	11.5
231.438	17.67
231.657	16.65
231.876	19.9
232.095	6.03
232.313	-7.53
232.532	-34.98
232.751	2.15
232.969	2.88
233.188	-0.15
233.407	-0.14
233.625	34.86
233.844	10.92
234.063	27.38
234.281	24.32
234.5	38.53
234.719	32.67
234.937	49.25
235.156	5.92
235.374	10.51
235.593	5.79
235.811	2.67
236.03	-2.38
236.249	56.57
236.467	56.31
236.686	54.8
236.904	52.55
237.123	54.54
237.341	30.22
237.559	25.26
237.778	33.53
237.996	25.31
238.215	19.04
238.433	7.84
238.652	18.16
238.87	20.69
239.088	32.84
239.307	31.62
239.525	36.99
239.743	48.59
239.962	57.92
240.18	57.97
240.398	89.18
240.617	99.18
240.835	63.95
241.053	39.57
241.271	10.59
241.49	0.15
241.708	29.01
241.926	34.05
242.144	47.87
242.363	57.92
242.581	47.74
242.799	33.28
243.017	34.76
243.235	62.19
243.453	64.48
243.672	63.49
243.89	63.76
244.108	64.46
244.326	23.05
244.544	13.07
244.762	20.04
244.98	5.01
245.198	20.31
245.416	49.24
245.634	46.82
245.852	28.14
246.07	21.83
246.288	-15.85
246.506	-6.2
246.724	-5.55
246.942	-5.67
247.16	0.66
247.378	1.54
247.596	0.1
247.814	4.75
248.032	24.11
248.25	17.45
248.468	17.01
248.685	11.72
248.903	-4.6
249.121	-8.82
249.339	8.21
249.557	36.05
249.775	34.1
249.992	57.51
250.21	42.46
250.428	40.15
250.646	21.07
250.863	27.5
251.081	14.88
251.299	6.26
251.517	18.33
251.734	-8.57
251.952	-11.45
252.17	-16.04
252.387	-36.74
252.605	-63.75
252.823	14.81
253.04	-1.98
253.258	45.01
253.475	69.41
253.693	58.88
253.911	50.54
254.128	45.08
254.346	33.8
254.563	26.72
254.781	46.63
254.998	51.47
255.216	44.01
255.433	55.66
255.651	20.41
255.868	-45.81
256.086	-67.7
256.303	-45.43
256.521	-45.72
256.738	-38.64
256.956	22.19
257.173	31.57
257.39	37.62
257.608	46.9
257.825	43.45
258.043	-16.76
258.26	3.3
258.477	-10.89
258.695	-17.5
258.912	-8.22
259.129	38.52
259.346	41.87
259.564	56.46
259.781	58.41
259.998	51.08
260.216	34.48
260.433	25.18
260.65	14.35
260.867	7.48
261.084	7.71
261.302	6.23
261.519	9.58
261.736	35.86
261.953	42.4
262.17	33.88
262.387	26.99
262.604	25.56
262.822	28.87
263.039	25.67
263.256	32.75
263.473	39.5
263.69	53.13
263.907	37.27
264.124	15.33
264.341	-17.58
264.558	-62.06
264.775	-56.02
264.992	-38.99
265.209	-35.11
265.426	-17.62
265.643	8.57
265.86	12.41
266.077	-0.99
266.294	-4.79
266.51	7.69
266.727	7
266.944	22.13
267.161	34.06
267.378	38.25
267.595	29.46
267.812	38.87
268.028	22.83
268.245	21.07
268.462	50.38
268.679	74
268.896	55.93
269.112	57.1
269.329	57.78
269.546	22.87
269.763	15.27
269.979	25.48
270.196	26.8
270.413	20.22
270.629	18.49
270.846	20.89
271.063	14.77
271.279	22.13
271.496	39.58
271.712	25.2
271.929	24.73
272.146	36.83
272.362	32.8
272.579	16.11
272.795	22.62
273.012	9.72
273.228	27.11
273.445	34.02
273.661	32.54
273.878	36.48
274.094	44.4
274.311	31.39
274.527	2.63
274.744	27.77
274.96	29.2
275.177	-12.44
275.393	-0.42
275.609	18.35
275.826	17.7
276.042	19.35
276.259	33.02
276.475	22.28
276.691	16.45
276.908	16.45
277.124	33.81
277.34	28.25
277.557	24.8
277.773	19.48
277.989	20.53
278.205	3.78
278.422	24.32
278.638	22.94
278.854	20.72
279.07	20.16
279.286	29.89
279.503	19.7
279.719	29.11
279.935	35.22
280.151	25.55
280.367	6.08
280.583	-4.64
280.799	5.66
281.016	16.14
281.232	12.52
281.448	33
281.664	20.2
281.88	24.75
282.096	23.65
282.312	-5.34
282.528	-20.96
282.744	2.31
282.96	2.77
283.176	6.75
283.392	35.95
283.608	55.44
283.824	47.66
284.04	32.97
284.256	26.03
284.471	21.83
284.687	17.92
284.903	13.38
285.119	-10.33
285.335	-9.54
285.551	-6.99
285.767	0.84
285.982	6.94
286.198	33.45
286.414	22.27
286.63	19.33
286.846	2.83
287.061	10.36
287.277	-22.87
287.493	-10.82
287.709	-38.87
287.924	-12.64
288.14	-17.36
288.356	-18.25
288.571	-19.74
288.787	0.88
289.003	-17.62
289.218	-11.19
289.434	23.73
289.65	38.86
289.865	33.62
290.081	25.58
290.296	21.4
290.512	35.17
290.727	46.04
290.943	49.54
291.159	58.39
291.374	50.65
291.59	45.47
291.805	37.32
292.021	46.25
292.236	43.71
292.451	38.47
292.667	39.48
292.882	27.67
293.098	5.9
293.313	-3.55
293.529	16.79
293.744	4.39
293.959	33.03
294.175	36.45
294.39	36.14
294.605	36.28
294.821	34.47
295.036	33.91
295.251	35.94
295.467	47.25
295.682	39.55
295.897	35.71
296.112	36.87
296.328	34.28
296.543	25.33
296.758	5.25
296.973	3.24
297.188	-18.39
297.404	-12.86
297.619	-3.07
297.834	11.8
298.049	11.84
298.264	31.81
298.479	26.42
298.694	3.23
298.909	2.1
299.125	32.04
299.34	20.85
299.555	39.98
299.77	45.86
299.985	57.98
300.2	48.45
300.415	65.57
300.63	43.47
300.845	56.87
301.06	50.91
301.275	13.34
301.49	23.67
301.704	29.19
301.919	27.89
302.134	17.99
302.349	29.8
302.564	34.4
302.779	23.82
302.994	3.43
303.209	-3.41
303.423	-21.98
303.638	-17.32
303.853	-1.33
304.068	19.93
304.283	35.7
304.497	53.33
304.712	57.96
304.927	50.04
305.142	48.82
305.356	43.41
305.571	32.59
305.786	38.67
306	45.78
306.215	27.82
306.43	41.4
306.644	32.06
306.859	7.43
307.074	9.49
307.288	34.67
307.503	11.38
307.717	16.08
307.932	8.35
308.147	7.06
308.361	-18.62
308.576	-9.07
308.79	18.88
309.005	42.33
309.219	25.4
309.434	26.67
309.648	32.78
309.863	1.45
310.077	-38.72
310.292	-18.76
310.506	-15.54
310.72	-1.88
310.935	-1.62
311.149	-2.81
311.364	-31.88
311.578	-45.12
311.792	-32.09
312.007	-48.21
312.221	-18.28
312.435	-6.46
312.649	30.13
312.864	-7.47
313.078	9.44
313.292	-8.39
313.507	6.1
313.721	-8.53
313.935	-10.94
314.149	-25.71
314.363	-2.56
314.578	-10.58
314.792	-5.37
315.006	7.27
315.22	18.27
315.434	7.54
315.648	-14.96
315.862	8.45
316.077	8.2
316.291	12.55
316.505	11.96
316.719	29.27
316.933	47.11
317.147	51.98
317.361	46.22
317.575	61.57
317.789	61.03
318.003	39.59
318.217	21.92
318.431	34.62
318.645	14.53
318.859	14.54
319.073	-10.91
319.287	20.25
319.5	27.6
319.714	40.04
319.928	44.44
320.142	58.29
320.356	37
320.57	41.81
320.784	32.63
320.997	7.64
321.211	22.61
321.425	31.28
321.639	15.57
321.853	-22.79
322.066	-14.74
322.28	-7.64
322.494	-26.38
322.707	-35.32
322.921	19.75
323.135	39.29
323.349	21.39
323.562	36.77
323.776	54.42
323.989	46.61
324.203	41.26
324.417	37.52
324.63	47.63
324.844	42.47
325.057	33.57
325.271	10.99
325.485	21.93
325.698	-18.49
325.912	-32.71
326.125	6.68
326.339	29.08
326.552	15.06
326.766	29.84
326.979	32.96
327.193	15.65
327.406	9.91
327.619	13.96
327.833	-18.34
328.046	-17.33
328.26	-6.92
328.473	-4.87
328.686	15.85
328.9	21.4
329.113	20.76
329.326	24.62
329.54	22.85
329.753	28.74
329.966	49.2
330.179	53.47
330.393	49.74
330.606	53.34
330.819	39.58
331.032	30.57
331.246	23.06
331.459	5.98
331.672	4.47
331.885	5.02
332.098	20.35
332.311	40.02
332.525	57.9
332.738	43.38
332.951	47.37
333.164	33.91
333.377	35.59
333.59	11.06
333.803	20.29
334.016	5.28
334.229	10.23
334.442	-40.98
334.655	-19.39
334.868	-41.29
335.081	-39.09
335.294	-39.63
335.507	16.16
335.72	27.76
335.933	47.31
336.146	53.7
336.359	48.08
336.572	36.95
336.785	21.97
336.997	16.33
337.21	-7.4
337.423	11.97
337.636	33.33
337.849	34.64
338.062	26.4
338.274	19.66
338.487	39.72
338.7	21.09
338.913	35.33
339.125	43.31
339.338	47.36
339.551	24.85
339.763	27.46
339.976	13.06
340.189	16.76
340.402	21.13
340.614	27.18
340.827	31.62
341.039	30.43
341.252	31.25
341.465	40.44
341.677	41.53
341.89	45.82
342.102	37.37
342.315	25.15
342.527	20.1
342.74	32.3
342.952	25.53
343.165	37.42
343.377	13.1
343.59	21
343.802	0.1
344.015	-44.9
344.227	-60.58
344.44	-12.94
344.652	-14.43
344.864	-38.2
345.077	-7.03
345.289	-18.76
345.502	-27.82
345.714	-41.85
345.926	-9.99
346.139	-7.04
346.351	4.55
346.563	3.82
346.775	27.08
346.988	18.08
347.2	20.51
347.412	27.36
347.624	22.25
347.837	-3.96
348.049	15.04
348.261	-3.16
348.473	-2.36
348.685	13.08
348.897	32.26
349.11	18.42
349.322	19.26
349.534	14.83
349.746	-3.44
349.958	-11.36
350.17	-17.52
350.382	-14.33
350.594	-16.49
350.806	-2.35
351.018	8.77
351.23	10.88
351.442	29.13
351.654	17.8
351.866	11.89
352.078	6.92
352.29	7
352.502	6.84
352.714	16.29
352.926	17.07
353.138	11.23
353.35	10.56
353.561	17.75
353.773	27.71
353.985	30.2
354.197	30.03
354.409	44.44
354.621	39.63
354.832	42.46
355.044	51.77
355.256	57.64
355.468	54.78
355.679	58.17
355.891	62.16
356.103	64.65
356.314	57.04
356.526	53.97
356.738	56.56
356.949	56.58
357.161	37.91
357.373	45.12
357.584	43.64
357.796	39.04
358.008	6.41
358.219	13.63
358.431	9.51
358.642	9.52
358.854	-16.8
359.065	16.98
359.277	41.9
359.488	41.28
359.7	40.54
359.911	38.19
360.123	36.07
360.334	21.62
360.546	34.07
360.757	40.26
360.969	43.07
361.18	33.74
361.391	41.77
361.603	41.94
361.814	28.25
362.025	46.26
362.237	43.46
362.448	31.82
362.659	22.47
362.871	14.74
363.082	-0.32
363.293	1.27
363.504	-5.37
363.716	16.72
363.927	30.93
364.138	33.04
364.349	40.79
364.56	53.27
364.772	56.12
364.983	38.61
365.194	44.88
365.405	23.5
365.616	9.01
365.827	1.33
366.038	18.37
366.25	2.68
366.461	22.67
366.672	9.69
366.883	-2.19
367.094	-10.95
367.305	10.41
367.516	-8.5
367.727	9.63
367.938	14.32
368.149	21.58
368.36	5.37
368.571	15.05
368.781	31.49
368.992	30.71
369.203	42.74
369.414	44.56
369.625	33.33
369.836	29.58
370.047	38.87
370.258	17.4
370.468	24.64
370.679	45.49
370.89	44.34
371.101	33.75
371.312	47.28
371.522	37.33
371.733	37.86
371.944	31.56
372.155	36
372.365	26.39
372.576	46.18
372.787	36.55
372.997	42.11
373.208	43.24
373.419	32.16
373.629	17.71
373.84	24.02
374.05	17.83
374.261	1.61
374.472	18.46
374.682	17.54
374.893	13.6
375.103	-6.35
375.314	11.11
375.524	14.24
375.735	10.5
375.945	12.48
376.156	29.15
376.366	20.84
376.577	18.51
376.787	27.7
376.997	30.02
377.208	21.99
377.418	30.09
377.629	26.14
377.839	17.28
378.049	11.22
378.26	5.3
378.47	7.67
378.68	9.01
378.89	18.75
379.101	19.37
379.311	21.89
379.521	25.79
379.732	37.52
379.942	35.2
380.152	41.03
380.362	44.85
380.572	45.23
380.783	37.75
380.993	30.57
381.203	27.37
381.413	16.05
381.623	4.34
381.833	2.86
382.043	15.57
382.253	16.21
382.463	26.84
382.674	33.03
382.884	34.22
383.094	26.93
383.304	26.83
383.514	16.13
383.724	5.5
383.934	10.77
384.144	14.58
384.353	10.05
384.563	9.02
384.773	7.66
384.983	2.54
385.193	-3.06
385.403	6.08
385.613	13.64
385.823	22.51
386.033	21.88
386.242	27.15
386.452	22.74
386.662	21.39
386.872	14.04
387.082	10.19
387.291	7.1
387.501	4.3
387.711	0.24
387.921	4.04
388.13	7.98
388.34	4.6
388.55	8.83
388.759	10.57
388.969	10.62
389.179	10.39
389.388	10.99
389.598	10.29
389.807	10.64
390.017	11.04
390.227	9.66
390.436	10.22
390.646	9.67
390.855	8.01
391.065	6.86
391.274	8.12
391.484	9.9
391.693	8.09
391.903	7.69
392.112	7.99
392.322	6.14
392.531	4.6
392.74	5.31
392.95	7.49
393.159	6.11
393.369	7.03
393.578	6.9
393.787	7.77
393.997	7.8
394.206	9.58
394.415	9.25
394.625	9.82
394.834	9.58
395.043	8.92
395.252	8.51
395.462	8.2
395.671	6.88
395.88	6.93
396.089	6.44
396.298	6.47
396.508	7.28
396.717	7.92
396.926	7.37
397.135	7.03
397.344	6.54
397.553	5.56
397.762	4.93
397.971	5.02
398.181	5.36
398.39	5.81
398.599	6.14
398.808	6.49
399.017	6.01
399.226	5.7
399.435	5.07
399.644	4.95
399.853	5.24
400.062	5.52
400.27	5.54
400.479	5.98
400.688	6.07
400.897	5.91
401.106	5.57
401.315	5.97
401.524	6.1
401.733	5.8
401.941	5.37
402.15	5.56
402.359	5.52
402.568	4.91
402.777	4.69
402.985	4.99
403.194	5.1
403.403	4.85
403.612	5.17
403.82	5.55
404.029	5.5
404.238	5.6
404.446	5.6
404.655	5.5
404.864	5.29
405.072	5.31
405.281	5.12
405.489	5.1
405.698	5.15
405.906	5.26
406.115	5.06
406.324	5.14
406.532	5.09
406.741	5.05
406.949	5.07
407.158	5.32
407.366	5.31
407.574	5.3
407.783	5.27
407.991	5.24
408.2	4.99
408.408	4.92
408.617	5.03
408.825	5.18
409.033	5.27
409.242	5.25
409.45	5.14
409.658	5.15
409.867	4.92
410.075	4.79
410.283	4.84
410.491	4.94
410.7	4.88
410.908	4.78
411.116	4.58
411.324	4.66
411.533	4.55
411.741	4.49
411.949	4.52
412.157	4.65
412.365	4.53
412.573	4.61
412.781	4.63
412.99	4.79
413.198	4.77
413.406	4.75
413.614	4.64
413.822	4.72
414.03	4.64
414.238	4.73
414.446	4.76
414.654	4.87
414.862	4.77
415.07	4.72
415.278	4.54
415.486	4.51
415.694	4.5
415.902	4.44
416.109	4.44
416.317	4.54
416.525	4.55
416.733	4.56
416.941	4.57
417.149	4.46
417.357	4.43
417.564	4.42
417.772	4.23
417.98	4.28
418.188	4.39
418.395	4.34
418.603	4.25
418.811	4.48
419.019	4.35
419.226	4.32
419.434	4.24
419.642	4.36
419.849	4.2
420.057	4.25
420.265	4.21
420.472	4.38
420.68	4.21
420.887	4.37
421.095	4.23
421.302	4.38
421.51	4.14
421.717	4.25
421.925	4.1
422.132	4.17
422.34	4.07
422.547	4.08
422.755	4.02
422.962	4.05
423.17	4.2
423.377	4.29
423.585	4.26
423.792	4.29
423.999	4.15
424.207	4.06
424.414	3.74
424.621	3.73
424.829	3.81
425.036	3.88
425.243	3.79
425.451	3.92
425.658	4.03
425.865	3.96
426.072	3.96
426.28	3.92
426.487	4.05
426.694	3.94
426.901	3.94
427.108	4.1
427.315	4.39
427.523	4.25
427.73	4.37
427.937	4.61
428.144	4.49
428.351	4.33
428.558	4.15
428.765	4.13
428.972	4.02
429.179	3.86
429.386	3.81
429.593	4.08
429.8	4.31
430.007	4.21
430.214	4.4
430.421	4.58
430.628	4.58
430.835	4.49
431.042	4.39
431.249	4.22
431.456	4.27
431.662	4.26
431.869	4.27
432.076	4.22
432.283	4.31
432.49	4.22
432.697	4.21
432.903	4.16
433.11	4.31
433.317	4.36
433.524	4.31
433.73	4.49
433.937	4.41
434.144	4.45
434.35	4.4
434.557	4.59
434.764	4.45
434.97	4.63
435.177	4.63
435.384	4.77
435.59	4.63
435.797	4.54
436.003	4.45
436.21	4.52
436.416	4.48
436.623	4.47
436.829	4.49
437.036	4.52
437.242	4.47
437.449	4.52
437.655	4.58
437.862	4.67
438.068	4.72
438.275	4.78
438.481	4.62
438.687	4.72
438.894	4.8
439.1	4.96
439.307	4.71
439.513	4.77
439.719	4.66
439.926	4.58
440.132	4.57
440.338	4.83
440.544	4.8
440.751	4.89
440.957	4.89
441.163	4.86
441.369	4.86
441.575	5.02
441.782	5.04
441.988	5.27
442.194	5.22
442.4	5.22
442.606	5.13
442.812	5.13
443.018	4.89
443.224	4.82
443.431	4.85
443.637	4.99
443.843	5
444.049	5.02
444.255	5.24
444.461	5.3
444.667	5.32
444.873	5.26
445.079	5.29
445.284	5.2
445.49	5.23
445.696	5.21
445.902	5.27
446.108	5.41
446.314	5.37
446.52	5.4
446.726	5.39
446.931	5.41
447.137	5.3
447.343	5.45
447.549	5.46
447.755	5.48
447.96	5.44
448.166	5.47
448.372	5.43
448.578	5.4
448.783	5.45
448.989	5.47
449.195	5.43
449.4	5.35
449.606	5.42
449.812	5.44
450.017	5.45
450.223	5.65
450.428	5.84
450.634	5.85
450.84	5.93
451.045	6.12
451.251	6.1
451.456	6
451.662	5.77
451.867	5.65
452.073	5.64
452.278	5.55
452.483	5.51
452.689	5.71
452.894	5.71
453.1	5.67
453.305	5.7
453.51	5.73
453.716	5.79
453.921	5.82
454.127	5.73
454.332	5.88
454.537	5.94
454.742	5.95
454.948	5.93
455.153	5.96
455.358	5.96
455.563	5.75
455.769	5.75
455.974	5.84
456.179	5.89
456.384	5.79
456.589	6.05
456.795	6.04
457	6
457.205	5.94
457.41	5.93
457.615	5.94
457.82	5.94
458.025	6.01
458.23	6.16
458.435	6.2
458.64	6.15
458.845	6.14
459.05	6.22
459.255	6.18
459.46	6.14
459.665	6.11
459.87	6.08
460.075	5.99
460.28	5.99
460.485	6.05
460.69	6.09
460.895	6.25
461.099	6.29
461.304	6.17
461.509	6.13
461.714	6.27
461.919	6.21
462.123	6.25
462.328	6.34
462.533	6.54
462.738	6.48
462.942	6.49
463.147	6.46
463.352	6.49
463.556	6.5
463.761	6.45
463.966	6.43
464.17	6.38
464.375	6.42
464.58	6.43
464.784	6.45
464.989	6.53
465.193	6.6
465.398	6.6
465.602	6.47
465.807	6.57
466.011	6.61
466.216	6.53
466.42	6.57
466.625	6.68
466.829	6.65
467.034	6.6
467.238	6.6
467.443	6.63
467.647	6.66
467.851	6.72
468.056	6.69
468.26	6.78
468.464	6.78
468.669	6.76
468.873	6.54
469.077	6.57
469.282	6.65
469.486	6.66
469.69	6.63
469.894	6.78
470.099	6.77
470.303	6.68
470.507	6.74
470.711	6.87
470.915	6.87
471.119	6.99
471.324	7.04
471.528	6.99
471.732	6.96
471.936	6.97
472.14	6.85
472.344	6.86
472.548	6.91
472.752	6.92
472.956	6.95
473.16	6.99
473.364	7.05
473.568	7.01
473.772	7.03
473.976	7.12
474.18	7.17
474.384	7.26
474.588	7.36
474.792	7.46
474.995	7.34
475.199	7.3
475.403	7.15
475.607	7.13
475.811	7.06
476.015	7.08
476.218	7.07
476.422	7.21
476.626	7.1
476.83	7.03
477.033	7.16
477.237	7.2
477.441	7.11
477.644	7.2
477.848	7.34
478.052	7.31
478.255	7.33
478.459	7.38
478.663	7.32
478.866	7.31
479.07	7.23
479.273	7.16
479.477	7.12
479.681	7.14
479.884	7.11
480.088	7.17
480.291	7.27
480.495	7.35
480.698	7.32
480.901	7.3
481.105	7.22
481.308	7.2
481.512	7.26
481.715	7.31
481.919	7.37
482.122	7.42
482.325	7.48
482.529	7.4
482.732	7.41
482.935	7.34
483.138	7.35
483.342	7.29
483.545	7.25
483.748	7.19
483.952	7.25
484.155	7.21
484.358	7.26
484.561	7.3
484.764	7.29
484.967	7.24
485.171	7.26
485.374	7.28
485.577	7.23
485.78	7.25
485.983	7.27
486.186	7.37
486.389	7.31
486.592	7.39
486.795	7.38
486.998	7.35
487.201	7.28
487.404	7.28
487.607	7.19
487.81	7.21
488.013	7.25
488.216	7.17
488.419	7.17
488.622	7.22
488.825	7.23
489.028	7.23
489.231	7.37
489.433	7.38
489.636	7.36
489.839	7.37
490.042	7.38
490.245	7.36
490.447	7.32
490.65	7.35
490.853	7.37
491.056	7.31
491.258	7.33
491.461	7.41
491.664	7.31
491.866	7.32
492.069	7.33
492.272	7.28
492.474	7.21
492.677	7.28
492.879	7.27
493.082	7.16
493.285	7.13
493.487	7.16
493.69	7.22
493.892	7.22
494.095	7.31
494.297	7.36
494.5	7.35
494.702	7.29
494.905	7.3
495.107	7.27
495.309	7.23
495.512	7.2
495.714	7.19
495.917	7.13
496.119	7.18
496.321	7.16
496.524	7.21
496.726	7.27
496.928	7.34
497.13	7.37
497.333	7.41
497.535	7.36
497.737	7.38
497.939	7.36
498.142	7.31
498.344	7.32
498.546	7.37
498.748	7.31
498.95	7.26
499.152	7.32
499.355	7.36
499.557	7.35
499.759	7.36
499.961	7.43
500.163	7.45
500.365	7.46
500.567	7.36
500.769	7.44
500.971	7.42
501.173	7.4
501.375	7.36
501.577	7.46
501.779	7.43
501.981	7.41
502.183	7.45
502.385	7.54
502.587	7.54
502.788	7.51
502.99	7.54
503.192	7.52
503.394	7.44
503.596	7.52
503.798	7.57
503.999	7.63
504.201	7.61
504.403	7.62
504.605	7.56
504.806	7.61
505.008	7.58
505.21	7.48
505.411	7.53
505.613	7.51
505.815	7.45
506.016	7.46
506.218	7.55
506.42	7.56
506.621	7.57
506.823	7.55
507.024	7.55
507.226	7.62
507.427	7.58
507.629	7.65
507.83	7.67
508.032	7.66
508.233	7.61
508.435	7.65
508.636	7.58
508.838	7.57
509.039	7.64
509.24	7.6
509.442	7.53
509.643	7.58
509.845	7.61
510.046	7.55
510.247	7.54
510.448	7.59
510.65	7.6
510.851	7.63
511.052	7.63
511.254	7.76
511.455	7.68
511.656	7.57
511.857	7.46
512.058	7.48
512.26	7.4
512.461	7.43
512.662	7.53
512.863	7.66
513.064	7.7
513.265	7.69
513.466	7.73
513.667	7.77
513.868	7.73
514.069	7.64
514.27	7.61
514.471	7.65
514.672	7.62
514.873	7.6
515.074	7.65
515.275	7.7
515.476	7.71
515.677	7.71
515.878	7.71
516.079	7.73
516.28	7.77
516.481	7.71
516.682	7.74
516.882	7.79
517.083	7.75
517.284	7.79
517.485	7.79
517.686	7.76
517.886	7.78
518.087	7.74
518.288	7.68
518.488	7.73
518.689	7.69
518.89	7.69
519.091	7.74
519.291	7.71
519.492	7.69
519.692	7.73
519.893	7.63
520.094	7.67
520.294	7.72
520.495	7.7
520.695	7.7
520.896	7.79
521.096	7.7
521.297	7.72
521.497	7.73
521.698	7.81
521.898	7.79
522.099	7.87
522.299	7.81
522.499	7.87
522.7	7.83
522.9	7.91
523.101	7.82
523.301	7.85
523.501	7.82
523.702	7.86
523.902	7.78
524.102	7.79
524.302	7.84
524.503	7.84
524.703	7.79
524.903	7.81
525.103	7.91
525.304	7.83
525.504	7.74
525.704	7.74
525.904	7.76
526.104	7.77
526.304	7.82
526.504	7.84
526.705	7.85
526.905	7.8
527.105	7.74
527.305	7.76
527.505	7.84
527.705	7.84
527.905	7.89
528.105	7.87
528.305	7.87
528.505	7.87
528.705	7.86
528.905	7.87
529.105	7.97
529.304	7.94
529.504	7.98
529.704	8.05
529.904	8.05
530.104	8.05
530.304	8.07
530.503	8.09
530.703	8.06
530.903	8.09
531.103	8.05
531.303	8.08
531.502	8.05
531.702	8.05
531.902	8.05
532.101	8.09
532.301	8.15
532.501	8.12
532.7	8.19
532.9	8.23
533.1	8.19
533.299	8.21
533.499	8.19
533.698	8.17
533.898	8.11
534.097	8.2
534.297	8.1
534.496	8.15
534.696	8.19
534.895	8.2
535.095	8.16
535.294	8.21
535.494	8.24
535.693	8.23
535.892	8.28
536.092	8.35
536.291	8.39
536.491	8.41
536.69	8.35
536.889	8.36
537.088	8.38
537.288	8.39
537.487	8.39
537.686	8.47
537.886	8.46
538.085	8.48
538.284	8.39
538.483	8.43
538.682	8.4
538.882	8.41
539.081	8.43
539.28	8.55
539.479	8.64
539.678	8.69
539.877	8.71
540.076	8.74
540.275	8.79
540.474	8.66
540.673	8.64
540.872	8.69
541.071	8.74
541.27	8.8
541.469	8.87
541.668	8.9
541.867	8.99
542.066	9.01
542.265	8.99
542.464	9.1
542.663	9.15
542.862	9.11
543.06	9.13
543.259	9.12
543.458	9.09
543.657	9.12
543.856	9.21
544.054	9.19
544.253	9.23
544.452	9.31
544.651	9.26
544.849	9.27
545.048	9.31
545.247	9.38
545.445	9.33
545.644	9.42
545.843	9.4
546.041	9.4
546.24	9.33
546.438	9.38
546.637	9.46
546.836	9.53
547.034	9.58
547.233	9.66
547.431	9.76
547.63	9.77
547.828	9.83
548.027	9.92
548.225	9.99
548.423	10.08
548.622	10.09
548.82	10.18
549.019	10.17
549.217	10.1
549.415	10.11
549.614	10.28
549.812	10.29
550.01	10.42
550.209	10.61
550.407	10.64
550.605	10.55
550.803	10.6
551.002	10.63
551.2	10.68
551.398	10.69
551.596	10.83
551.794	10.89
551.993	10.92
552.191	10.94
552.389	10.92
552.587	10.95
552.785	11.01
552.983	10.98
553.181	11.01
553.379	11.13
553.577	11.22
553.775	11.23
553.973	11.36
554.171	11.4
554.369	11.53
554.567	11.55
554.765	11.64
554.963	11.63
555.161	11.81
555.359	11.88
555.557	11.89
555.755	11.95
555.952	12.08
556.15	12.09
556.348	12.09
556.546	12.15
556.744	12.21
556.941	12.21
557.139	12.29
557.337	12.38
557.535	12.59
557.732	12.7
557.93	12.8
558.128	12.86
558.325	12.85
558.523	12.83
558.721	12.82
558.918	13.07
559.116	13.13
559.313	13.23
559.511	13.3
559.708	13.4
559.906	13.36
560.104	13.43
560.301	13.52
560.498	13.7
560.696	13.77
560.893	13.84
561.091	13.94
561.288	14.06
561.486	14.05
561.683	14.12
561.88	14.15
562.078	14.19
562.275	14.21
562.473	14.23
562.67	14.22
562.867	14.19
563.064	14.2
563.262	14.25
563.459	14.36
563.656	14.32
563.853	14.45
564.051	14.58
564.248	14.58
564.445	14.63
564.642	14.77
564.839	14.88
565.036	14.93
565.234	14.98
565.431	15.08
565.628	15.12
565.825	15.04
566.022	15
566.219	15.07
566.416	15.04
566.613	15.13
566.81	15.28
567.007	15.38
567.204	15.49
567.401	15.53
567.598	15.54
567.795	15.62
567.991	15.69
568.188	15.72
568.385	15.61
568.582	15.71
568.779	15.71
568.976	15.72
569.172	15.67
569.369	15.8
569.566	15.78
569.763	15.62
569.96	15.62
570.156	15.62
570.353	15.74
570.55	15.8
570.746	15.89
570.943	15.93
571.14	15.97
571.336	15.96
571.533	15.91
571.729	15.94
571.926	15.98
572.123	15.96
572.319	15.91
572.516	15.91
572.712	15.98
572.909	15.94
573.105	15.97
573.302	16
573.498	16.04
573.695	16.01
573.891	15.98
574.087	15.99
574.284	16.04
574.48	16.08
574.677	16.12
574.873	16.21
575.069	16.24
575.266	16.17
575.462	16.18
575.658	16.08
575.854	16.03
576.051	15.97
576.247	15.99
576.443	15.91
576.639	16.01
576.835	15.98
577.032	16.01
577.228	15.98
577.424	15.98
577.62	15.92
577.816	15.86
578.012	15.81
578.208	15.75
578.404	15.71
578.6	15.69
578.796	15.75
578.993	15.76
579.189	15.82
579.384	15.87
579.58	15.85
579.776	15.87
579.972	15.79
580.168	15.77
580.364	15.72
580.56	15.71
580.756	15.61
580.952	15.69
581.148	15.65
581.343	15.67
581.539	15.54
581.735	15.49
581.931	15.34
582.127	15.4
582.322	15.37
582.518	15.43
582.714	15.5
582.909	15.58
583.105	15.5
583.301	15.46
583.496	15.37
583.692	15.36
583.888	15.24
584.083	15.2
584.279	15.17
584.474	15.16
584.67	15.05
584.866	15.15
585.061	15.17
585.257	15.18
585.452	15.22
585.648	15.21
585.843	15.16
586.039	15.06
586.234	15.03
586.429	15.01
586.625	14.99
586.82	14.99
587.015	15.06
587.211	15.09
587.406	15.2
587.601	15.26
587.797	15.25
587.992	15.24
588.187	15.16
588.383	15.06
588.578	15.07
588.773	15.03
588.968	15
589.163	15.04
589.359	15.09
589.554	15.11
589.749	15.14
589.944	15.16
590.139	15.12
590.334	15.09
590.529	15.11
590.724	15.14
590.919	15.11
591.114	15.2
591.309	15.1
591.504	15.06
591.699	15.08
591.894	15.16
592.089	15.26
592.284	15.42
592.479	15.43
592.674	15.49
592.869	15.48
593.064	15.42
593.259	15.48
593.454	15.55
593.648	15.61
593.843	15.68
594.038	15.71
594.233	15.71
594.428	15.76
594.622	15.83
594.817	15.86
595.012	15.88
595.206	15.91
595.401	15.91
595.596	15.86
595.79	15.85
595.985	15.89
596.18	15.94
596.374	16.03
596.569	16.11
596.763	16.29
596.958	16.38
597.153	16.39
597.347	16.44
597.542	16.45
597.736	16.49
597.931	16.49
598.125	16.59
598.319	16.71
598.514	16.78
598.708	16.8
598.903	16.87
599.097	16.93
599.291	16.94
599.486	16.99
599.68	16.97
599.874	16.99
600.069	16.96
600.263	16.98
600.457	17.02
600.651	16.98
600.846	17.03
601.04	17.11
601.234	17.12
601.428	17.08
601.622	17.25
601.817	17.17
602.011	17.25
602.205	17.25
602.399	17.34
602.593	17.34
602.787	17.42
602.981	17.39
603.175	17.44
603.369	17.4
603.563	17.36
603.757	17.37
603.951	17.26
604.145	17.19
604.339	17.11
604.533	17.14
604.727	17.13
604.921	17.14
605.115	17.07
605.309	17.08
605.502	17.1
605.696	17
605.89	17.03
606.084	17.06
606.278	17.06
606.471	16.98
606.665	17.01
606.859	16.86
607.053	16.92
607.246	16.79
607.44	16.71
607.634	16.64
607.827	16.66
608.021	16.55
608.214	16.61
608.408	16.53
608.602	16.58
608.795	16.56
608.989	16.52
609.182	16.41
609.376	16.4
609.569	16.25
609.763	16.09
609.956	16.03
610.15	15.96
610.343	15.99
610.537	15.94
610.73	15.98
610.923	15.89
611.117	15.87
611.31	15.78
611.504	15.78
611.697	15.74
611.89	15.65
612.083	15.57
612.277	15.47
612.47	15.41
612.663	15.35
612.856	15.36
613.05	15.3
613.243	15.23
613.436	15.08
613.629	15.05
613.822	14.98
614.015	15.06
614.209	15.05
614.402	15.11
614.595	15.07
614.788	15.07
614.981	14.96
615.174	14.88
615.367	14.77
615.56	14.61
615.753	14.54
615.946	14.53
616.139	14.49
616.332	14.39
616.525	14.48
616.718	14.42
616.911	14.34
617.103	14.3
617.296	14.27
617.489	14.22
617.682	14.21
617.875	14.12
618.067	14.04
618.26	14.1
618.453	13.97
618.646	13.89
618.838	13.85
619.031	13.72
619.224	13.7
619.417	13.8
619.609	13.78
619.802	13.71
619.994	13.8
620.187	13.72
620.38	13.66
620.572	13.65
620.765	13.72
620.957	13.74
621.15	13.87
621.342	13.8
621.535	13.7
621.727	13.66
621.92	13.65
622.112	13.54
622.305	13.5
622.497	13.62
622.69	13.62
622.882	13.48
623.074	13.49
623.267	13.47
623.459	13.41
623.651	13.38
623.844	13.46
624.036	13.42
624.228	13.39
624.42	13.34
624.613	13.26
624.805	13.25
624.997	13.25
625.189	13.26
625.381	13.28
625.574	13.34
625.766	13.32
625.958	13.31
626.15	13.22
626.342	13.18
626.534	13.15
626.726	13.14
626.918	13.06
627.11	13.14
627.302	13.06
627.494	13.03
627.686	12.97
627.878	12.95
628.07	12.96
628.262	12.94
628.454	12.85
628.646	12.8
628.838	12.76
629.029	12.67
629.221	12.61
629.413	12.68
629.605	12.64
629.797	12.6
629.989	12.62
630.18	12.69
630.372	12.55
630.564	12.58
630.755	12.55
630.947	12.54
631.139	12.54
631.33	12.62
631.522	12.53
631.714	12.51
631.905	12.37
632.097	12.22
632.289	12.22
632.48	12.17
632.672	12.09
632.863	12.19
633.055	12.18
633.246	12.04
633.438	12.03
633.629	12.06
633.821	12
634.012	12.04
634.203	12.14
634.395	12.12
634.586	12.18
634.777	12.2
634.969	12.23
635.16	12.21
635.351	12.3
635.543	12.25
635.734	12.24
635.925	12.25
636.117	12.26
636.308	12.22
636.499	12.22
636.69	12.25
636.881	12.2
637.073	12.11
637.264	12.09
637.455	12.02
637.646	11.97
637.837	12.04
638.028	12.14
638.219	12.19
638.41	12.28
638.601	12.22
638.792	12.13
638.983	12.09
639.174	12.05
639.365	11.99
639.556	12
639.747	11.99
639.938	11.9
640.129	11.84
640.32	11.81
640.511	11.82
640.701	11.86
640.892	11.9
641.083	11.81
641.274	11.78
641.465	11.77
641.655	11.75
641.846	11.76
642.037	11.84
642.228	11.82
642.418	11.71
642.609	11.66
642.8	11.57
642.99	11.6
643.181	11.59
643.372	11.62
643.562	11.63
643.753	11.66
643.943	11.64
644.134	11.69
644.324	11.77
644.515	11.81
644.705	11.74
644.896	11.68
645.086	11.68
645.277	11.62
645.467	11.53
645.658	11.61
645.848	11.59
646.038	11.5
646.229	11.5
646.419	11.51
646.61	11.49
646.8	11.53
646.99	11.55
647.18	11.5
647.371	11.39
647.561	11.4
647.751	11.42
647.941	11.45
648.132	11.51
648.322	11.62
648.512	11.59
648.702	11.57
648.892	11.62
649.082	11.56
649.272	11.56
649.462	11.59
649.653	11.55
649.843	11.49
650.033	11.47
650.223	11.37
650.413	11.29
650.603	11.27
650.793	11.21
650.983	11.22
651.172	11.23
651.362	11.19
651.552	11.16
651.742	11.21
651.932	11.11
652.122	11.07
652.312	11.11
652.502	11.09
652.691	10.9
652.881	10.95
653.071	10.84
653.261	10.69
653.45	10.61
653.64	10.55
653.83	10.54
654.019	10.52
654.209	10.48
654.399	10.4
654.588	10.4
654.778	10.21
654.968	10.07
655.157	9.94
655.347	9.89
655.536	9.84
655.726	9.72
655.915	9.7
656.105	9.68
656.294	9.58
656.484	9.46
656.673	9.5
656.863	9.39
657.052	9.32
657.241	9.35
657.431	9.29
657.62	9.2
657.809	9.1
657.999	9.08
658.188	8.93
658.377	8.84
658.567	8.73
658.756	8.65
658.945	8.56
659.134	8.49
659.324	8.47
659.513	8.4
659.702	8.38
659.891	8.32
660.08	8.29
660.269	8.2
660.458	8.08
660.648	8.06
660.837	7.96
661.026	7.72
661.215	7.65
661.404	7.69
661.593	7.54
661.782	7.5
661.971	7.53
662.16	7.35
662.349	7.17
662.538	7.25
662.726	7.23
662.915	7.24
663.104	7.32
663.293	7.23
663.482	7.06
663.671	6.94
663.86	6.88
664.048	6.87
664.237	6.9
664.426	6.9
664.615	6.85
664.803	6.72
664.992	6.65
665.181	6.63
665.369	6.54
665.558	6.54
665.747	6.57
665.935	6.55
666.124	6.54
666.312	6.53
666.501	6.54
666.69	6.53
666.878	6.42
667.067	6.46
667.255	6.43
667.444	6.19
667.632	6.05
667.82	6.03
668.009	6.01
668.197	6.07
668.386	6.19
668.574	6.24
668.762	6.3
668.951	6.27
669.139	6.23
669.327	6.36
669.516	6.22
669.704	6.2
669.892	6.26
670.08	6.22
670.269	6.23
670.457	6.47
670.645	6.5
670.833	6.44
671.021	6.38
671.21	6.35
671.398	6.18
671.586	6.2
671.774	6.3
671.962	6.56
672.15	6.6
672.338	6.84
672.526	6.91
672.714	6.94
672.902	6.97
673.09	6.88
673.278	6.69
673.466	6.65
673.654	6.64
673.842	6.71
674.03	6.71
674.218	6.95
674.405	7.02
674.593	6.95
674.781	6.81
674.969	6.96
675.157	6.82
675.344	6.8
675.532	6.91
675.72	6.93
675.908	6.91
676.095	7.1
676.283	7.17
676.471	7.07
676.658	7.22
676.846	7.41
677.033	7.3
677.221	7.4
677.409	7.55
677.596	7.59
677.784	7.54
677.971	7.64
678.159	7.73
678.346	7.67
678.534	7.7
678.721	7.61
678.909	7.64
679.096	7.6
679.283	7.7
679.471	7.76
679.658	7.94
679.846	7.97
680.033	7.87
680.22	7.91
680.408	7.9
680.595	7.83
680.782	7.96
680.969	8.16
681.157	8.18
681.344	8.17
681.531	8.23
681.718	8.29
681.905	8.32
682.093	8.44
682.28	8.49
682.467	8.64
682.654	8.63
682.841	8.73
683.028	8.77
683.215	8.95
683.402	9
683.589	9.06
683.776	9.14
683.963	9.28
684.15	9.22
684.337	9.39
684.524	9.69
684.711	9.68
684.898	9.84
685.085	10.03
685.271	10.16
685.458	10.13
685.645	10.37
685.832	10.49
686.019	10.76
686.205	10.8
686.392	11.05
686.579	11.2
686.766	11.26
686.952	11.4
687.139	11.58
687.326	11.77
687.512	11.99
687.699	12.18
687.886	12.28
688.072	12.5
688.259	12.73
688.445	12.94
688.632	13.27
688.818	13.51
689.005	13.74
689.191	14
689.378	14.44
689.564	14.61
689.751	14.96
689.937	15.35
690.124	15.57
690.31	15.58
690.496	15.96
690.683	16.19
690.869	16.47
691.055	16.87
691.242	17.23
691.428	17.49
691.614	17.84
691.8	18.18
691.987	18.57
692.173	19.09
692.359	19.67
692.545	20.24
692.731	20.78
692.918	21.04
693.104	21.45
693.29	21.72
693.476	22.11
693.662	22.46
693.848	23.14
694.034	23.57
694.22	24.15
694.406	24.68
694.592	24.98
694.778	25.41
694.964	25.79
695.15	26.26
695.336	26.63
695.522	27.18
695.708	27.53
695.894	27.98
696.08	28.59
696.265	29.02
696.451	29.62
696.637	30.14
696.823	30.82
697.009	31.4
697.194	31.87
697.38	32.42
697.566	32.96
697.751	33.45
697.937	33.72
698.123	34.15
698.308	34.11
698.494	34.43
698.68	34.65
698.865	35.02
699.051	35.42
699.236	36.23
699.422	36.79
699.607	37.69
699.793	38.26
699.978	39.11
700.164	39.71
700.349	39.88
700.535	40.07
700.72	40.37
700.906	40.6
701.091	40.82
701.276	41.31
701.462	41.61
701.647	42.16
701.832	42.62
702.018	43.15
702.203	43.64
702.388	44.25
702.573	44.64
702.759	44.82
702.944	45.32
703.129	45.69
703.314	45.82
703.499	46.11
703.684	46.58
703.87	46.79
704.055	47.03
704.24	47.59
704.425	47.96
704.61	48.47
704.795	49.09
704.98	49.6
705.165	50.17
705.35	50.66
705.535	50.9
705.72	51.09
705.905	51.35
706.09	51.43
706.275	51.77
706.459	52.13
706.644	52.44
706.829	52.66
707.014	52.88
707.199	53.09
707.384	53.54
707.568	53.7
707.753	54.04
707.938	54.15
708.123	54.33
708.307	54.65
708.492	54.84
708.677	55.24
708.861	55.93
709.046	56.53
709.231	56.62
709.415	57.26
709.6	57.45
709.784	57.49
709.969	57.4
710.153	57.95
710.338	58.15
710.522	58.51
710.707	59.02
710.891	59.2
711.076	59.05
711.26	58.91
711.445	58.65
711.629	58.55
711.813	58.7
711.998	58.8
712.182	59.4
712.366	59.81
712.551	59.88
712.735	60.27
712.919	60.32
713.103	60.14
713.288	60.62
713.472	60.89
713.656	60.89
713.84	61.34
714.024	61.35
714.208	61.42
714.393	61.88
714.577	62.05
714.761	62.01
714.945	62.93
715.129	63.18
715.313	62.61
715.497	62.81
715.681	62.84
715.865	62.95
716.049	62.82
716.233	63.18
716.417	63.33
716.601	63.51
716.785	63.07
716.968	63.36
717.152	63.32
717.336	63.48
717.52	63.82
717.704	64.2
717.888	64.74
718.071	65.41
718.255	65.03
718.439	65.24
718.622	65.48
718.806	64.8
718.99	64.94
719.174	65.78
719.357	65.54
719.541	65.59
719.724	66.02
719.908	66.5
720.092	66.1
720.275	66.33
720.459	66.36
720.642	66.82
720.826	66.89
721.009	67.02
721.193	67.37
721.376	67.82
721.559	67.54
721.743	67.23
721.926	67.41
722.11	67.42
722.293	67.33
722.476	67.95
722.66	68.33
722.843	68.88
723.026	69.47
723.21	69.98
723.393	69.22
723.576	68.8
723.759	68.55
723.942	68.42
724.126	68.01
724.309	69.24
724.492	69.94
724.675	70.24
724.858	70.44
725.041	70.32
725.224	70.24
725.407	70.04
725.59	70.36
725.774	70.48
725.957	71.09
726.14	70.53
726.322	70.03
726.505	70.36
726.688	70.84
726.871	70.61
727.054	71.1
727.237	72.04
727.42	71.49
727.603	71.89
727.786	72.54
727.968	72.6
728.151	73.09
728.334	73.72
728.517	73.58
728.699	73.44
728.882	73.75
729.065	73.49
729.248	73.29
729.43	73.2
729.613	73.57
729.796	74.19
729.978	74.35
730.161	74.75
730.343	74.49
730.526	73.58
730.708	73.4
730.891	73.68
731.073	73.94
731.256	74.56
731.438	76.49
731.621	76.04
731.803	75.31
731.986	75.36
732.168	75.92
732.35	74.83
732.533	75.7
732.715	77.04
732.898	77.06
733.08	76.09
733.262	76.52
733.444	76.54
733.627	76.45
733.809	76.69
733.991	76.65
734.173	77.24
734.355	77.22
734.538	77.21
734.72	77.12
734.902	77.49
735.084	76.8
735.266	76.24
735.448	76.46
735.63	76.9
735.812	77.81
735.994	77.39
736.176	78.52
736.358	77.33
736.54	77.28
736.722	76.66
736.904	77.45
737.086	76.93
737.268	77.61
737.45	77.68
737.632	78.41
737.814	78.2
737.995	78.13
738.177	78.55
738.359	79.27
738.541	78.76
738.723	79.01
738.904	79.53
739.086	80.01
739.268	79.08
739.449	79.38
739.631	79.34
739.813	79.68
739.994	79.91
740.176	80.23
740.358	80.25
740.539	80.22
740.721	79.86
740.902	79.45
741.084	78.82
741.265	79.12
741.447	79.6
741.628	79.23
741.81	79.64
741.991	80.76
742.172	80.12
742.354	79.79
742.535	81.29
742.717	80.55
742.898	80.9
743.079	81.58
743.261	82.61
743.442	82
743.623	81.89
743.804	81.41
743.986	80.83
744.167	79.92
744.348	80.01
744.529	80.79
744.71	80.08
744.891	79.91
745.073	81.17
745.254	80.94
745.435	80.64
745.616	81.43
745.797	82.56
745.978	82.58
746.159	83.34
746.34	83.76
746.521	83.16
746.702	82.88
746.883	82.33
747.064	82.43
747.245	82.31
747.426	82.69
747.606	82.31
747.787	81.6
747.968	80.02
748.149	79.69
748.33	79.77
748.51	80.18
748.691	80.35
748.872	81.24
749.053	81.88
749.233	83.43
749.414	83.59
749.595	83.97
749.775	84.91
749.956	85.48
750.137	84.06
750.317	82.89
750.498	82.45
750.678	82.21
750.859	81.19
751.04	80.84
751.22	82.36
751.4	82.17
751.581	82.39
751.761	82.11
751.942	82.54
752.122	81.63
752.303	82.39
752.483	80.63
752.663	81.98
752.844	81.23
753.024	82.13
753.204	82.22
753.385	83.4
753.565	82.4
753.745	83.46
753.925	82.77
754.106	82.6
754.286	82.33
754.466	82.51
754.646	81.93
754.826	81.54
755.006	81.08
755.187	81.32
755.367	81.11
755.547	81.4
755.727	80.87
755.907	80.9
756.087	79.53
756.267	79.4
756.447	79.4
756.627	79.49
756.807	80.37
756.987	82.58
757.167	83.61
757.346	83.95
757.526	83.78
757.706	82.77
757.886	81.52
758.066	80.87
758.246	80.67
758.425	82.28
758.605	82.25
758.785	82.49
758.965	83.19
759.144	84.32
759.324	82.87
759.504	82.64
759.683	84.03
759.863	83.16
760.043	82.59
760.222	84.05
760.402	84.28
760.581	82.38
760.761	81.7
760.94	80.36
761.12	79.43
761.299	79.82
761.479	79.68
761.658	81.09
761.838	81.87
762.017	81.58
762.197	81.42
762.376	83.44
762.555	81.47
762.735	81.17
762.914	82.24
763.093	82.82
763.273	79.92
763.452	81.55
763.631	81.49
763.81	81.51
763.99	82.66
764.169	84.27
764.348	82.37
764.527	82.49
764.706	80.28
764.885	78.8
765.064	78.37
765.243	79.7
765.423	79.74
765.602	80.73
765.781	81.06
765.96	80.97
766.139	81.92
766.318	81.73
766.497	82.93
766.676	83.04
766.854	81.74
767.033	81.38
767.212	81.46
767.391	82.07
767.57	81.48
767.749	82.71
767.928	81.59
768.106	81.61
768.285	81.23
768.464	81.82
768.643	82.81
768.821	82.31
769	81.78
769.179	81.85
769.357	83.94
769.536	83.04
769.715	81.76
769.893	80.98
770.072	81.43
770.25	79.5
770.429	79.79
770.607	81.57
770.786	82
770.964	78.99
771.143	78.44
771.321	76.49
771.5	76
771.678	76.77
771.857	78.62
772.035	77.88
772.213	79.92
772.392	80.66
772.57	79.96
772.748	78.76
772.927	80.74
773.105	79.14
773.283	79.61
773.461	78.93
773.64	80.78
773.818	79.2
773.996	80.72
774.174	78.94
774.352	79.44
774.531	77.52
774.709	77.7
774.887	77.06
775.065	78.96
775.243	79.37
775.421	79.39
775.599	79.67
775.777	79.92
775.955	77.72
776.133	78.49
776.311	79.2
776.489	80.24
776.667	81.02
776.844	82.84
777.022	83.54
777.2	83.44
777.378	83.08
777.556	82.6
777.734	82.88
777.911	82.45
778.089	83.2
778.267	82.24
778.445	82.96
778.622	82.42
778.8	80.47
778.978	77.56
779.155	77.43
779.333	75.06
779.511	73.5
779.688	71.45
779.866	74.51
780.043	74.71
780.221	74.25
780.398	75.65
780.576	77.29
780.753	75.96
780.931	75.29
781.108	77.54
781.286	76.97
781.463	79.46
781.64	78.76
781.818	77.45
781.995	74.95
782.172	73.54
782.35	72.52
782.527	73.53
782.704	74.87
782.882	76.41
783.059	78.17
783.236	75.57
783.413	73.61
783.59	74.02
783.768	77.76
783.945	76.58
784.122	80.49
784.299	81.43
784.476	80.8
784.653	78.28
784.83	79.81
785.007	80.12
785.184	78.93
785.361	79.77
785.538	75.15
785.715	75.45
785.892	73.52
786.069	77.21
786.246	76.47
786.423	81.81
786.6	80.96
786.776	81.89
786.953	80.88
787.13	82.3
787.307	82.73
787.484	82.92
787.66	81.67
787.837	79.56
788.014	79.84
788.191	77.66
788.367	78.06
788.544	77.11
788.721	78.48
788.897	76.22
789.074	74.97
789.25	73.65
789.427	74.36
789.603	74.02
789.78	76.35
789.956	75.21
790.133	75.25
790.309	76.32
790.486	73.65
790.662	71.4
790.839	75.34
791.015	72.69
791.192	71.89
791.368	74.14
791.544	77.36
791.721	76.36
791.897	79.29
792.073	78.5
792.249	80.5
792.426	78.4
792.602	75.3
792.778	78.46
792.954	80.8
793.13	81.58
793.307	84.9
793.483	89.49
793.659	87.19
793.835	86.01
794.011	83.06
794.187	79.26
794.363	78.37
794.539	77.39
794.715	78.46
794.891	77.64
795.067	76.92
795.243	76.57
795.419	75.97
795.595	74.55
795.771	79.24
795.947	77
796.122	77.31
796.298	74.34
796.474	74.19
796.65	69.74
796.826	71.43
797.001	70.32
797.177	76.19
797.353	74.32
797.529	74.39
797.704	75.38
797.88	78.15
798.056	79.63
798.231	83.11
798.407	81.67
798.582	80.63
798.758	74.42
798.934	69.89
799.109	65.81
799.285	71.57
799.46	67.47
799.636	73.4
799.811	73.24
799.986	75.87
800.162	72.88
800.337	72.63
800.513	77.29
800.688	81.94
800.863	82.67
801.039	77.06
801.214	82.21
801.389	77.13
801.565	72.98
801.74	72.01
801.915	72.88
802.09	66.37
802.265	63.53
802.441	64.15
802.616	68.43
802.791	68.63
802.966	74.24
803.141	74.01
803.316	79.64
803.491	72.79
803.666	72.32
803.841	80.45
804.016	83.86
804.191	80.52
804.366	89.84
804.541	97.24
804.716	88.08
804.891	85.27
805.066	80.99
805.241	76.09
805.416	72.34
805.591	76
805.765	74.3
805.94	77.78
806.115	78.66
806.29	80.83
806.464	79.12
806.639	81.48
806.814	81.46
806.989	78.2
807.163	70.96
807.338	68.3
807.512	64.28
807.687	64.79
807.862	62.92
808.036	66.29
808.211	73.88
808.385	79.08
808.56	74.47
808.734	72.61
808.909	71.4
809.083	64.8
809.258	60.61
809.432	63.66
809.606	74.33
809.781	76.63
809.955	73.22
810.13	78.4
810.304	80.16
810.478	76.77
810.652	75.15
810.827	81.81
811.001	79.98
811.175	82.62
811.349	84.38
811.524	79.15
811.698	74.2
811.872	75.39
812.046	78.51
812.22	68.98
812.394	85.05
812.568	86.7
812.742	77.78
812.916	73.78
813.09	78.47
813.264	77.79
813.438	84.38
813.612	98.24
813.786	96.43
813.96	98.66
814.134	101.33
814.308	87.59
814.482	80.17
814.656	84.59
814.83	83.39
815.003	78.11
815.177	90.89
815.351	94.1
815.525	79.56
815.698	82.56
815.872	77.47
816.046	75.7
816.219	75.47
816.393	74.12
816.567	80.13
816.74	81.93
816.914	63.65
817.088	60.22
817.261	69.89
817.435	60.89
817.608	62.49
817.782	79.52
817.955	86.42
818.129	83.89
818.302	86.97
818.475	70.1
818.649	60.17
818.822	57
818.996	41.96
819.169	48.3
819.342	56.58
819.516	62.73
819.689	64.33
819.862	80.95
820.035	86.57
820.209	79.16
820.382	79.29
820.555	76.43
820.728	62
820.901	60.46
821.075	68.74
821.248	72.05
821.421	78.28
821.594	91.74
821.767	78.85
821.94	68.46
822.113	66.53
822.286	50.54
822.459	39.4
822.632	47.27
822.805	53.19
822.978	60.35
823.151	67.38
823.324	86.33
823.496	92.39
823.669	87.24
823.842	80.44
824.015	95.31
824.188	95.93
824.361	91.26
824.533	92.5
824.706	85.25
824.879	76.55
825.051	57.31
825.224	56.52
825.397	55.9
825.569	56.06
825.742	52.23
825.915	54.85
826.087	57.48
826.26	58.22
826.432	76.16
826.605	64.83
826.777	71.29
826.95	73.79
827.122	68.75
827.295	52.02
827.467	65.94
827.64	62.78
827.812	65.37
827.984	62.17
828.157	71.46
828.329	72.04
828.501	86.05
828.674	79.19
828.846	91.15
829.018	91.86
829.19	91.95
829.363	76.56
829.535	81.58
829.707	91.72
829.879	93.55
830.051	87.49
830.223	95.49
830.395	95.43
830.568	90.08
830.74	77.44
830.912	68.08
831.084	71.63
831.256	78.32
831.428	72.06
831.6	74.38
831.772	92.69
831.943	82.44
832.115	71.28
832.287	69.12
832.459	67.28
832.631	57.63
832.803	65.3
832.975	69.03
833.146	65.5
833.318	92.83
833.49	90.74
833.662	79.24
833.833	76.88
834.005	73.61
834.177	63.08
834.348	69.62
834.52	71.43
834.692	83.19
834.863	95.61
835.035	82.79
835.206	71.69
835.378	70.48
835.549	84.9
835.721	75.66
835.892	81
836.064	74.78
836.235	77.53
836.407	68.16
836.578	76.38
836.749	89.7
836.921	114.72
837.092	115.08
837.264	121.51
837.435	125.17
837.606	88.29
837.777	77.34
837.949	75.62
838.12	72.99
838.291	78.06
838.462	97.43
838.633	104.46
838.805	104.4
838.976	105.18
839.147	89.08
839.318	96.29
839.489	92.73
839.66	96.47
839.831	71.43
840.002	70.86
840.173	74.95
840.344	70.77
840.515	62.51
840.686	66.25
840.857	84.41
841.028	87.2
841.199	88.14
841.369	100.35
841.54	103.39
841.711	113.93
841.882	102.85
842.053	105.32
842.223	119.69
842.394	105.05
842.565	75.61
842.736	77.71
842.906	74.08
843.077	57.04
843.248	45.91
843.418	61.78
843.589	59.21
843.759	27.82
843.93	4.33
844.101	16.11
844.271	36.07
844.442	36.02
844.612	44.58
844.783	69.04
844.953	88.5
845.123	49.28
845.294	27.65
845.464	37.96
845.635	44.79
845.805	46.37
845.975	81.47
846.146	102.13
846.316	115.53
846.486	105.58
846.656	113.54
846.827	112.26
846.997	122.99
847.167	93.33
847.337	100.14
847.507	91.28
847.677	87.91
847.848	71.33
848.018	91.4
848.188	89.12
848.358	106.43
848.528	85.65
848.698	99.64
848.868	97.89
849.038	81.37
849.208	80.38
849.378	78.55
849.548	83.59
849.718	93.85
849.887	88.01
850.057	99.7
850.227	114.46
850.397	97.14
850.567	78.38
850.737	78.35
850.906	67.98
851.076	89.87
851.246	93.64
851.415	105.81
851.585	114.14
851.755	118.74
851.924	114.02
852.094	70.87
852.264	61.53
852.433	67.11
852.603	57.64
852.772	36.91
852.942	60.83
853.111	63.92
853.281	60.14
853.45	57.71
853.62	65.88
853.789	75.89
853.959	55.29
854.128	90.03
854.297	116.5
854.467	97.37
854.636	87.78
854.805	115.09
854.975	21.33
855.144	7.36
855.313	5.05
855.482	77.93
855.652	80.06
855.821	94.95
855.99	92.03
856.159	94.99
856.328	75.1
856.497	98.33
856.667	97.26
856.836	86
857.005	83.12
857.174	86.16
857.343	95.21
857.512	69.92
857.681	96.58
857.85	119.53
858.019	136.3
858.188	188.51
858.356	231.27
858.525	285.25
858.694	629.8
858.863	437.85
859.032	257.03
859.201	229.57
859.369	131.27
859.538	64.43
859.707	45.59
859.876	38.65
860.044	69.65
860.213	66.83
860.382	68.79
860.55	68.18
860.719	68.06
860.888	63.34
861.056	76.35
861.225	74.97
861.393	67.9
861.562	54.01
861.73	53.95
861.899	67.94
862.067	92.66
862.236	98.51
862.404	113.27
862.572	126
862.741	141.83
862.909	112.24
863.078	136.26
863.246	159.32
863.414	132.11
863.582	61.05
863.751	63.48
863.919	59.65
864.087	24.12
864.255	28.65
864.424	66.41
864.592	76.51
864.76	93.37
864.928	95.38
865.096	112.96
865.264	115.07
865.432	104.11
865.6	67.39
865.768	106.26
865.936	90.61
866.104	80.15
866.272	86.81
866.44	116.98
866.608	71.91
866.776	80.18
866.944	83.44
867.112	89.74
867.28	82.12
867.448	70.76
867.615	51.91
867.783	60.56
867.951	54.14
868.119	36.71
868.286	62.8
868.454	103.66
868.622	160.38
868.789	125.05
868.957	141.36
869.125	173.76
869.292	120.48
869.46	113.86
869.627	102.79
869.795	113.25
869.963	99.78
870.13	98.1
870.298	86.54
870.465	96.31
870.632	103.81
870.8	122.4
870.967	111.45
871.135	94.03
871.302	90.14
871.469	58.24
871.637	45.99
871.804	61.64
871.971	72.45
872.139	94.18
872.306	93.93
872.473	107.12
872.64	113.71
872.807	96.33
872.975	69.76
873.142	106.1
873.309	91.96
873.476	17.56
873.643	4.4
873.81	-12.7
873.977	-65.59
874.144	-33.72
874.311	49.01
874.478	79.92
874.645	95.23
874.812	87.53
874.979	53.45
875.146	89.25
875.313	89.97
875.48	67.09
875.647	82.05
875.813	97.31
875.98	97.33
876.147	99.28
876.314	108.75
876.481	155.33
876.647	310.53
876.814	271.43
876.981	-482.46
877.147	-683.05
877.314	269.06
877.481	185.43
877.647	185.55
877.814	153.2
877.98	139.44
878.147	114.05
878.314	98.47
878.48	124.51
878.647	118.63
878.813	96.08
878.979	62.79
879.146	83.18
879.312	81.46
879.479	88.02
879.645	106.37
879.811	136.85
879.978	140.86
880.144	117.29
880.31	134.31
880.477	133.42
880.643	133.68
880.809	83.11
880.975	73.03
881.142	57.53
881.308	-47.77
881.474	-3.63
881.64	62.15
881.806	80.53
881.972	113.94
882.138	79.88
882.304	89.74
882.47	134.51
882.636	49.37
882.802	-76.84
882.968	-26.04
883.134	13.42
883.3	26.58
883.466	39.24
883.632	31.62
883.798	80.71
883.964	99.01
884.129	106.09
884.295	112.71
884.461	129.83
884.627	134.61
884.793	137.36
884.958	111.89
885.124	134.92
885.29	132.09
885.455	184.73
885.621	260.85
885.787	423.5
885.952	852.48
886.118	633.33
886.283	228.64
886.449	304.37
886.614	199.69
886.78	164.88
886.945	334.48
887.111	788
887.276	-4611.11
887.442	-1237.14
887.607	367.18
887.773	179.59
887.938	130.35
888.103	112.45
888.269	102.58
888.434	118.88
888.599	116.07
888.764	150.16
888.93	143.78
889.095	115.48
889.26	175.32
889.425	-2300
889.59	-540
889.756	206.38
889.921	1330.77
890.086	330.99
890.251	-3.18
890.416	62.7
890.581	30.29
890.746	8.56
890.911	35.61
891.076	44.11
891.241	31.84
891.406	26.7
891.571	44.46
891.736	87.53
891.901	74.01
892.065	129.25
892.23	205.33
892.395	196.97
892.56	107.88
892.725	37.95
892.889	59.69
893.054	78.99
893.219	104.43
893.384	152.6
893.548	322.71
893.713	323.28
893.878	481.4
