Data from Ofav_PP_Phys_2EV44_Reflection_1.txt Node
Date: Tue Aug 03 18:04:33 EDT 2021
User: Adam
Spectrometer: FLMT01687
Trigger mode: 0
Integration Time (sec): 8.750000E-1
Scans to average: 2
Electric dark correction enabled: true
Nonlinearity correction enabled: false
Boxcar width: 2
XAxis mode: Wavelengths
Number of Pixels in Spectrum: 3648
>>>>>Begin Spectral Data<<<<<
179.494	96.42
179.716	157.2
179.937	275.09
180.158	-1043.43
180.38	-165.32
180.601	-789.52
180.823	379.6
181.044	176.6
181.265	21.33
181.486	-295.4
181.708	167.62
181.929	193.27
182.15	220.25
182.372	137.68
182.593	-358.67
182.814	60.83
183.035	102.09
183.257	21.75
183.478	36.18
183.699	16.22
183.92	14.44
184.141	-20.26
184.363	-10.91
184.584	-37.43
184.805	-17.7
185.026	-19.4
185.247	-9.84
185.468	-7.11
185.689	-15.57
185.91	-2.52
186.132	-18.44
186.353	4.48
186.574	-17.21
186.795	-4.98
187.016	-17.98
187.237	10.62
187.458	9.98
187.679	12.55
187.9	23.32
188.121	38.96
188.342	24.95
188.563	25.27
188.784	25.26
189.005	25.18
189.226	10.22
189.447	20.59
189.667	7.87
189.888	7.98
190.109	17.58
190.33	23.09
190.551	25.96
190.772	19.96
190.993	27.35
191.214	31.33
191.434	12.34
191.655	0.04
191.876	-5.14
192.097	22.59
192.318	22.35
192.538	36.74
192.759	67.75
192.98	85.72
193.201	38.63
193.421	34.41
193.642	31.12
193.863	15.88
194.083	15.68
194.304	21.6
194.525	0.61
194.745	24.14
194.966	35.23
195.187	37.49
195.407	19.32
195.628	17.99
195.848	8.03
196.069	14.48
196.29	1.49
196.51	2.49
196.731	18.48
196.951	23.45
197.172	23.8
197.392	39.24
197.613	28.33
197.833	41.9
198.054	50.34
198.274	24.39
198.495	40.21
198.715	44.17
198.936	47.6
199.156	25.17
199.377	52.71
199.597	47.84
199.817	63.93
200.038	35.95
200.258	43.27
200.479	42.05
200.699	25.39
200.919	-32.28
201.14	78.37
201.36	67.06
201.58	69.16
201.801	66.24
202.021	56.16
202.241	28.02
202.461	9.12
202.682	8.15
202.902	-4.26
203.122	17.38
203.342	7.3
203.563	35.8
203.783	35.87
204.003	45.25
204.223	40.03
204.443	27.23
204.663	22.8
204.884	17.48
205.104	12.98
205.324	11.8
205.544	9.98
205.764	21.26
205.984	4.57
206.204	22.57
206.424	7.07
206.644	42.34
206.864	8.82
207.084	14.56
207.304	-11.04
207.525	-8.42
207.745	-20.54
207.964	-22.32
208.184	0.94
208.404	2.11
208.624	29.42
208.844	40.99
209.064	58.79
209.284	44.54
209.504	51.6
209.724	40.64
209.944	29.09
210.164	-58.58
210.384	-29.16
210.604	-14.97
210.823	-18.02
211.043	1.02
211.263	28.88
211.483	43.01
211.703	74.4
211.922	42.49
212.142	32.08
212.362	22.59
212.582	27.1
212.801	15.12
213.021	26.11
213.241	11.8
213.461	25.01
213.68	17.68
213.9	14.57
214.12	8.2
214.339	8.82
214.559	28.17
214.779	32.42
214.998	44.66
215.218	50.72
215.438	49.15
215.657	40.03
215.877	42.11
216.096	40.79
216.316	21.68
216.535	11.47
216.755	-11.92
216.974	-5.39
217.194	-10.24
217.413	13.4
217.633	28.22
217.852	37.28
218.072	37.88
218.291	36.22
218.511	50.48
218.73	34.75
218.95	28
219.169	36.23
219.389	41.77
219.608	5.34
219.827	16.12
220.047	17.9
220.266	-5.38
220.485	17.18
220.705	24.29
220.924	25.52
221.143	11.9
221.363	15.5
221.582	4.37
221.801	11.9
222.021	-0.94
222.24	24.63
222.459	-1.56
222.678	2.55
222.897	5.23
223.117	-4.78
223.336	-84.16
223.555	-8.85
223.774	5.64
223.993	-11.24
224.213	8.37
224.432	19.4
224.651	37.92
224.87	34.83
225.089	49.32
225.308	25.08
225.527	7.06
225.746	-39.02
225.965	-30.69
226.184	-31.76
226.404	-7.09
226.623	18.94
226.842	37.25
227.061	27.12
227.28	28.87
227.499	35.79
227.718	19.66
227.936	3.49
228.155	8.93
228.374	11.63
228.593	14.94
228.812	-1.66
229.031	3.6
229.25	25.64
229.469	26.59
229.688	2.94
229.907	-18.72
230.125	-2.59
230.344	-38.22
230.563	-49.52
230.782	-42.62
231.001	5.17
231.22	0.96
231.438	11.56
231.657	6.83
231.876	17.38
232.095	25.16
232.313	23.32
232.532	-2.85
232.751	7.92
232.969	6.94
233.188	0.66
233.407	5.9
233.625	34.56
233.844	22.93
234.063	17.74
234.281	7.25
234.5	-1.44
234.719	-27.38
234.937	10.11
235.156	-11.16
235.374	13.96
235.593	27.24
235.811	34.54
236.03	38.21
236.249	72.22
236.467	65.82
236.686	55.45
236.904	46.27
237.123	48.39
237.341	43.35
237.559	31.31
237.778	33.01
237.996	28.36
238.215	18.31
238.433	9.97
238.652	21.1
238.87	23.43
239.088	30.28
239.307	34.3
239.525	45.74
239.743	36.73
239.962	37.11
240.18	32.28
240.398	32.75
240.617	17.49
240.835	14.79
241.053	0.2
241.271	-27.87
241.49	-19.52
241.708	-3.14
241.926	-0.38
242.144	10.51
242.363	23.82
242.581	24.55
242.799	36.32
243.017	34.91
243.235	40.88
243.453	48.75
243.672	43.03
243.89	31.95
244.108	33.76
244.326	14.71
244.544	7.58
244.762	16.31
244.98	4.08
245.198	15.83
245.416	47.49
245.634	50.67
245.852	36.26
246.07	38.96
246.288	25.47
246.506	14.36
246.724	-3.35
246.942	-8.82
247.16	-0.12
247.378	-1.06
247.596	-2.81
247.814	19.6
248.032	23.16
248.25	16.11
248.468	21.9
248.685	33.51
248.903	12.85
249.121	10.34
249.339	4.52
249.557	13.19
249.775	3.07
249.992	19.41
250.21	25.87
250.428	20.88
250.646	-15.23
250.863	-1.52
251.081	-19.4
251.299	-15.38
251.517	15.1
251.734	27.71
251.952	3.47
252.17	13.91
252.387	-65.59
252.605	-56.47
252.823	-47.38
253.04	-38.16
253.258	-7.03
253.475	25.74
253.693	20.68
253.911	36.11
254.128	44.94
254.346	53.8
254.563	47.68
254.781	60.81
254.998	42.61
255.216	25.59
255.433	19.21
255.651	27.32
255.868	2.62
256.086	-0.62
256.303	15.89
256.521	18.79
256.738	10.04
256.956	30.35
257.173	23.11
257.39	15.31
257.608	4.6
257.825	-4.69
258.043	-43.29
258.26	-13.87
258.477	-1.15
258.695	5.6
258.912	4.82
259.129	13.37
259.346	9.99
259.564	18.78
259.781	10.13
259.998	24.5
260.216	28.69
260.433	31.69
260.65	22.18
260.867	34.32
261.084	24.19
261.302	16.68
261.519	4.01
261.736	2.97
261.953	3.22
262.17	-3.07
262.387	14.17
262.604	21.56
262.822	33.86
263.039	32.02
263.256	39.88
263.473	46.52
263.69	50.06
263.907	37.59
264.124	29.72
264.341	34.43
264.558	3.06
264.775	9.01
264.992	4.43
265.209	-0.29
265.426	-4.74
265.643	0.29
265.86	-0.57
266.077	14.09
266.294	12.96
266.51	19.79
266.727	33.74
266.944	27.28
267.161	28.34
267.378	36.4
267.595	25.07
267.812	13.2
268.028	2.54
268.245	1.12
268.462	3.08
268.679	-6.11
268.896	-13.19
269.112	20.11
269.329	5.17
269.546	-8.35
269.763	19.19
269.979	16.48
270.196	9.17
270.413	26.7
270.629	26.86
270.846	37.67
271.063	46.76
271.279	31.73
271.496	20.7
271.712	3.89
271.929	6.27
272.146	18.45
272.362	1.14
272.579	7.73
272.795	23.53
273.012	8.43
273.228	16.09
273.445	27.29
273.661	31.03
273.878	23.95
274.094	33.33
274.311	11.49
274.527	-5.71
274.744	-7.64
274.96	5.22
275.177	-17.41
275.393	0.9
275.609	6.75
275.826	7.35
276.042	-7.13
276.259	9.75
276.475	-2.49
276.691	10.38
276.908	3.88
277.124	19.33
277.34	0.51
277.557	3.5
277.773	3.97
277.989	12.26
278.205	14.82
278.422	21.53
278.638	26.73
278.854	20.06
279.07	19.84
279.286	11.09
279.503	14.74
279.719	7.61
279.935	-1.49
280.151	-18.2
280.367	-22.8
280.583	-46.26
280.799	-30.58
281.016	-28.88
281.232	-29.14
281.448	-11.62
281.664	-14.27
281.88	-19.48
282.096	-1.53
282.312	-4.51
282.528	-5.58
282.744	13.92
282.96	19.31
283.176	23.73
283.392	36.6
283.608	39.44
283.824	33.51
284.04	36.97
284.256	30
284.471	20.4
284.687	15.12
284.903	25.97
285.119	20.47
285.335	26.64
285.551	30.05
285.767	29.73
285.982	21.38
286.198	22.33
286.414	14.54
286.63	10.58
286.846	19.17
287.061	15.39
287.277	16.43
287.493	13.41
287.709	10.23
287.924	9.2
288.14	-0.96
288.356	-18.62
288.571	-5.22
288.787	4.36
289.003	-8.72
289.218	0.2
289.434	16.43
289.65	20.39
289.865	14.6
290.081	10.04
290.296	22.4
290.512	19.27
290.727	-1.82
290.943	14.28
291.159	26.93
291.374	8.72
291.59	19.72
291.805	38.78
292.021	42.09
292.236	46.12
292.451	46.03
292.667	37.98
292.882	20.84
293.098	-3.9
293.313	-19.21
293.529	-3.26
293.744	-9.78
293.959	11.72
294.175	24.78
294.39	29.05
294.605	33.38
294.821	26.18
295.036	22.29
295.251	19.16
295.467	30.45
295.682	36.24
295.897	45
296.112	42.55
296.328	59.03
296.543	55.1
296.758	45.83
296.973	59.63
297.188	59.21
297.404	52.74
297.619	44.05
297.834	38.89
298.049	14.49
298.264	16.8
298.479	19.01
298.694	21.64
298.909	35.52
299.125	45.76
299.34	35.29
299.555	32.66
299.77	16.46
299.985	7.47
300.2	15.32
300.415	15.58
300.63	20.92
300.845	37.73
301.06	22.27
301.275	8.9
301.49	30.69
301.704	20.14
301.919	17.23
302.134	26.45
302.349	28.92
302.564	32.76
302.779	24.22
302.994	25.94
303.209	21.03
303.423	27.95
303.638	22.99
303.853	29.77
304.068	30.53
304.283	40.97
304.497	38.79
304.712	32.05
304.927	41.02
305.142	40.14
305.356	25.94
305.571	26.89
305.786	38.06
306	30.09
306.215	36.4
306.43	29.28
306.644	10.43
306.859	-1.84
307.074	-12.95
307.288	-15.98
307.503	-0.86
307.717	2.67
307.932	14.11
308.147	31.95
308.361	18.48
308.576	18.83
308.79	22.25
309.005	27.42
309.219	17.39
309.434	8.7
309.648	13.08
309.863	0.65
310.077	-16.72
310.292	-3.86
310.506	5.86
310.72	16.14
310.935	21.24
311.149	20.37
311.364	7.62
311.578	-3.68
311.792	-21.43
312.007	-20.18
312.221	-12.78
312.435	8.41
312.649	21.68
312.864	46.13
313.078	41.39
313.292	37.98
313.507	25.92
313.721	33.28
313.935	24.52
314.149	24.39
314.363	29.68
314.578	39.07
314.792	39.79
315.006	17.45
315.22	25.19
315.434	14.5
315.648	-3.45
315.862	-3.24
316.077	22.23
316.291	21.1
316.505	25.84
316.719	31.15
316.933	42.11
317.147	10.41
317.361	15.32
317.575	14.22
317.789	12.5
318.003	5.31
318.217	6.92
318.431	11.08
318.645	10.58
318.859	20.74
319.073	18.82
319.287	37.84
319.5	33.47
319.714	43.15
319.928	42.55
320.142	37.02
320.356	25.33
320.57	23.14
320.784	12.46
320.997	3.85
321.211	21.68
321.425	30.11
321.639	22.38
321.853	19.68
322.066	19.76
322.28	12.34
322.494	9.48
322.707	14.92
322.921	18.68
323.135	23.16
323.349	14.55
323.562	22.35
323.776	41.66
323.989	40.85
324.203	43.25
324.417	51.24
324.63	48.14
324.844	34.82
325.057	40.71
325.271	26.81
325.485	16.44
325.698	7.48
325.912	9.65
326.125	11.68
326.339	13.44
326.552	-10.17
326.766	5.62
326.979	7.76
327.193	-5.45
327.406	-0.99
327.619	28.67
327.833	13.41
328.046	4.7
328.26	6.04
328.473	9.73
328.686	1.45
328.9	13.5
329.113	22.35
329.326	28.76
329.54	21.34
329.753	15.59
329.966	14.1
330.179	-6.39
330.393	-7.66
330.606	1.27
330.819	10.77
331.032	7.84
331.246	18.2
331.459	24.02
331.672	12.15
331.885	8.37
332.098	1.38
332.311	17.91
332.525	19.28
332.738	22.93
332.951	30.57
333.164	32.91
333.377	20.53
333.59	12.34
333.803	11.12
334.016	6.67
334.229	9.6
334.442	-25.15
334.655	-7.28
334.868	-15.61
335.081	-20.72
335.294	-23.84
335.507	5.22
335.72	1.96
335.933	23.18
336.146	27.65
336.359	21.25
336.572	18.25
336.785	19.7
336.997	21.93
337.21	25.72
337.423	22.45
337.636	31.19
337.849	28.89
338.062	28.06
338.274	12.31
338.487	23.43
338.7	32.35
338.913	36.03
339.125	25.49
339.338	21.89
339.551	8.82
339.763	-13.3
339.976	-11.87
340.189	-9.8
340.402	1.46
340.614	2.29
340.827	8.82
341.039	4.25
341.252	8.73
341.465	22.57
341.677	20.31
341.89	30.41
342.102	29.19
342.315	34.11
342.527	13.59
342.74	21.75
342.952	12.96
343.165	19.27
343.377	11.16
343.59	16.23
343.802	15.2
344.015	10.42
344.227	0.35
344.44	9.13
344.652	3.82
344.864	-16.86
345.077	-30.63
345.289	-31.05
345.502	-66.25
345.714	-97.42
345.926	-36.67
346.139	-11.81
346.351	-8.74
346.563	8.35
346.775	36.68
346.988	16.47
347.2	13.9
347.412	21.52
347.624	22.95
347.837	14.43
348.049	28.31
348.261	29.76
348.473	18.41
348.685	23.18
348.897	30.71
349.11	30.76
349.322	32.03
349.534	34.7
349.746	25.22
349.958	15.62
350.17	7.49
350.382	-9.23
350.594	-10.41
350.806	-12.88
351.018	-11.2
351.23	-11.15
351.442	-1.02
351.654	-16.61
351.866	-11.11
352.078	-7.37
352.29	1.07
352.502	13.2
352.714	39.38
352.926	31.09
353.138	29.22
353.35	21.41
353.561	23.9
353.773	11.05
353.985	20.45
354.197	19.48
354.409	28.1
354.621	24.18
354.832	28.35
355.044	29.88
355.256	32.28
355.468	29.2
355.679	29.59
355.891	33.79
356.103	37.58
356.314	31.68
356.526	27.4
356.738	28.62
356.949	28.86
357.161	25.46
357.373	38.45
357.584	44.3
357.796	52.85
358.008	29.99
358.219	16.96
358.431	8.14
358.642	6.73
358.854	-19.12
359.065	-2.77
359.277	12.16
359.488	0.83
359.7	6.32
359.911	10.32
360.123	12.71
360.334	-3.8
360.546	1.02
360.757	1.62
360.969	8.7
361.18	22.66
361.391	46.69
361.603	42.07
361.814	35.67
362.025	40.73
362.237	37.35
362.448	20.58
362.659	17.88
362.871	21.93
363.082	9.87
363.293	1.67
363.504	8.33
363.716	18.41
363.927	17.23
364.138	27.09
364.349	31.37
364.56	23.25
364.772	27.38
364.983	27.36
365.194	21.01
365.405	8.09
365.616	25.82
365.827	34.37
366.038	26.9
366.25	22.99
366.461	37.48
366.672	16.24
366.883	6.85
367.094	2.31
367.305	14.43
367.516	6.59
367.727	13.22
367.938	14.06
368.149	14.19
368.36	2.19
368.571	14.46
368.781	11.35
368.992	7.29
369.203	14.64
369.414	21.32
369.625	8.06
369.836	9.36
370.047	10.67
370.258	9.96
370.468	5.72
370.679	19.5
370.89	24.92
371.101	27.67
371.312	35.5
371.522	29.28
371.733	26.81
371.944	27.35
372.155	31.29
372.365	21.81
372.576	30.61
372.787	27.44
372.997	26.23
373.208	25.25
373.419	20.72
373.629	15.59
373.84	20.47
374.05	15.95
374.261	10.22
374.472	15.64
374.682	20.95
374.893	10.57
375.103	-9.02
375.314	-6.37
375.524	-1.71
375.735	-8.15
375.945	0.12
376.156	14.84
376.366	14.33
376.577	18.95
376.787	18.6
376.997	10.63
377.208	11.3
377.418	0.12
377.629	-9.81
377.839	-13.71
378.049	-10.89
378.26	-11.38
378.47	-6.72
378.68	0.38
378.89	12.96
379.101	12.23
379.311	9.25
379.521	11.98
379.732	12.07
379.942	7.84
380.152	19.47
380.362	15.97
380.572	25.46
380.783	29.55
380.993	29.71
381.203	22.09
381.413	28.88
381.623	21.7
381.833	16.8
382.043	18.56
382.253	16.21
382.463	15.43
382.674	16.38
382.884	13.61
383.094	6.21
383.304	5.89
383.514	3.33
383.724	0.4
383.934	2.38
384.144	10.22
384.353	7.2
384.563	7.28
384.773	6.9
384.983	11.99
385.193	8.27
385.403	13.05
385.613	12.36
385.823	12.81
386.033	7.54
386.242	12.35
386.452	13.16
386.662	18.22
386.872	17.49
387.082	17
387.291	10.99
387.501	8.13
387.711	3.69
387.921	5.65
388.13	7.57
388.34	4.84
388.55	5.66
388.759	4.2
388.969	5.46
389.179	5.87
389.388	7.55
389.598	6.89
389.807	7.81
390.017	7.12
390.227	5.38
390.436	5.79
390.646	5.68
390.855	4.85
391.065	4.27
391.274	5.05
391.484	7.37
391.693	7.87
391.903	7.39
392.112	8.07
392.322	8.07
392.531	6.18
392.74	4.32
392.95	5.43
393.159	3.14
393.369	3.47
393.578	2.58
393.787	4.22
393.997	4.13
394.206	5.33
394.415	4.59
394.625	4.91
394.834	4.11
395.043	3.76
395.252	3.95
395.462	4.31
395.671	3.65
395.88	3.56
396.089	3.36
396.298	3.05
396.508	2.22
396.717	3.3
396.926	3.62
397.135	2.93
397.344	2.99
397.553	3
397.762	2.37
397.971	1.83
398.181	2.64
398.39	2.88
398.599	2.58
398.808	2.99
399.017	2.93
399.226	2.57
399.435	2.32
399.644	2.72
399.853	2.26
400.062	2.6
400.27	2.92
400.479	2.83
400.688	2.84
400.897	3.12
401.106	3.05
401.315	2.82
401.524	3.14
401.733	2.91
401.941	2.74
402.15	2.7
402.359	2.76
402.568	2.45
402.777	2.48
402.985	2.47
403.194	2.51
403.403	2.42
403.612	2.4
403.82	2.48
404.029	2.53
404.238	2.67
404.446	2.7
404.655	2.57
404.864	2.6
405.072	2.68
405.281	2.44
405.489	2.32
405.698	2.45
405.906	2.54
406.115	2.42
406.324	2.43
406.532	2.49
406.741	2.53
406.949	2.39
407.158	2.42
407.366	2.45
407.574	2.39
407.783	2.35
407.991	2.29
408.2	2.12
408.408	2.05
408.617	2.12
408.825	2.13
409.033	2.16
409.242	2.29
409.45	2.33
409.658	2.37
409.867	2.37
410.075	2.41
410.283	2.41
410.491	2.26
410.7	2.23
410.908	2.25
411.116	2.23
411.324	2.15
411.533	2.18
411.741	2.23
411.949	2.15
412.157	2.18
412.365	2.16
412.573	2.27
412.781	2.22
412.99	2.21
413.198	2.19
413.406	2.24
413.614	2.13
413.822	2.12
414.03	2.16
414.238	2.15
414.446	2.19
414.654	2.36
414.862	2.34
415.07	2.13
415.278	2.07
415.486	2.1
415.694	2.03
415.902	1.92
416.109	2.11
416.317	2.1
416.525	1.9
416.733	1.95
416.941	2.09
417.149	2.03
417.357	2.01
417.564	2.19
417.772	2.19
417.98	2.2
418.188	2.22
418.395	2.28
418.603	2.16
418.811	2.2
419.019	2.03
419.226	2.04
419.434	1.94
419.642	2.05
419.849	1.82
420.057	1.95
420.265	1.8
420.472	2
420.68	1.87
420.887	1.96
421.095	1.71
421.302	1.88
421.51	1.58
421.717	1.64
421.925	1.58
422.132	1.72
422.34	1.68
422.547	1.85
422.755	1.88
422.962	2.04
423.17	2.15
423.377	2.22
423.585	2.28
423.792	2.22
423.999	2.08
424.207	2.03
424.414	1.95
424.621	1.82
424.829	1.87
425.036	1.99
425.243	1.98
425.451	1.95
425.658	2.03
425.865	2.09
426.072	1.99
426.28	2.02
426.487	1.92
426.694	1.88
426.901	1.77
427.108	1.91
427.315	2.12
427.523	2.09
427.73	2.02
427.937	2.21
428.144	2.06
428.351	1.82
428.558	1.95
428.765	2.1
428.972	2.01
429.179	1.99
429.386	2.1
429.593	2.1
429.8	2.13
430.007	1.98
430.214	2.12
430.421	2.07
430.628	2.05
430.835	2.02
431.042	2.17
431.249	2.07
431.456	2.2
431.662	2.12
431.869	2.11
432.076	1.94
432.283	1.93
432.49	1.8
432.697	1.91
432.903	1.92
433.11	2.01
433.317	2.04
433.524	2.08
433.73	2.22
433.937	2.23
434.144	2.27
434.35	2.32
434.557	2.33
434.764	2.34
434.97	2.33
435.177	2.33
435.384	2.27
435.59	2.32
435.797	2.13
436.003	1.99
436.21	1.98
436.416	2.03
436.623	1.93
436.829	2
437.036	2.14
437.242	2.15
437.449	2.06
437.655	2.07
437.862	2.07
438.068	2.05
438.275	2.04
438.481	2
438.687	2
438.894	2.04
439.1	2.12
439.307	2.02
439.513	2.06
439.719	2
439.926	1.93
440.132	1.88
440.338	1.98
440.544	1.95
440.751	2.04
440.957	1.97
441.163	1.9
441.369	1.99
441.575	2.1
441.782	2.12
441.988	2.23
442.194	2.29
442.4	2.21
442.606	2.27
442.812	2.22
443.018	2.18
443.224	2.25
443.431	2.24
443.637	2.26
443.843	2.26
444.049	2.33
444.255	2.39
444.461	2.55
444.667	2.52
444.873	2.46
445.079	2.39
445.284	2.26
445.49	2.18
445.696	2.11
445.902	2.15
446.108	2.2
446.314	2.26
446.52	2.26
446.726	2.3
446.931	2.34
447.137	2.37
447.343	2.39
447.549	2.37
447.755	2.43
447.96	2.39
448.166	2.35
448.372	2.19
448.578	2.16
448.783	2.14
448.989	2.23
449.195	2.23
449.4	2.35
449.606	2.5
449.812	2.52
450.017	2.46
450.223	2.47
450.428	2.6
450.634	2.56
450.84	2.54
451.045	2.61
451.251	2.6
451.456	2.51
451.662	2.32
451.867	2.28
452.073	2.22
452.278	2.26
452.483	2.3
452.689	2.33
452.894	2.35
453.1	2.35
453.305	2.29
453.51	2.19
453.716	2.22
453.921	2.32
454.127	2.36
454.332	2.45
454.537	2.47
454.742	2.56
454.948	2.61
455.153	2.55
455.358	2.48
455.563	2.47
455.769	2.43
455.974	2.31
456.179	2.29
456.384	2.23
456.589	2.34
456.795	2.35
457	2.45
457.205	2.51
457.41	2.47
457.615	2.47
457.82	2.42
458.025	2.37
458.23	2.39
458.435	2.45
458.64	2.32
458.845	2.42
459.05	2.41
459.255	2.45
459.46	2.45
459.665	2.4
459.87	2.4
460.075	2.31
460.28	2.35
460.485	2.34
460.69	2.48
460.895	2.41
461.099	2.5
461.304	2.44
461.509	2.49
461.714	2.53
461.919	2.56
462.123	2.49
462.328	2.48
462.533	2.49
462.738	2.44
462.942	2.47
463.147	2.55
463.352	2.52
463.556	2.57
463.761	2.52
463.966	2.49
464.17	2.5
464.375	2.54
464.58	2.52
464.784	2.5
464.989	2.6
465.193	2.62
465.398	2.72
465.602	2.64
465.807	2.77
466.011	2.83
466.216	2.72
466.42	2.67
466.625	2.85
466.829	2.77
467.034	2.67
467.238	2.73
467.443	2.7
467.647	2.64
467.851	2.78
468.056	2.74
468.26	2.8
468.464	2.71
468.669	2.64
468.873	2.52
469.077	2.59
469.282	2.62
469.486	2.68
469.69	2.62
469.894	2.65
470.099	2.63
470.303	2.52
470.507	2.58
470.711	2.7
470.915	2.71
471.119	2.78
471.324	2.88
471.528	2.89
471.732	2.88
471.936	2.92
472.14	2.83
472.344	2.79
472.548	2.81
472.752	2.8
472.956	2.77
473.16	2.83
473.364	2.89
473.568	2.9
473.772	2.96
473.976	3
474.18	3.02
474.384	3
474.588	3.05
474.792	3.08
474.995	2.99
475.199	2.94
475.403	2.91
475.607	2.89
475.811	2.8
476.015	2.86
476.218	2.88
476.422	2.96
476.626	2.91
476.83	2.92
477.033	2.95
477.237	2.92
477.441	2.81
477.644	2.8
477.848	2.82
478.052	2.82
478.255	2.85
478.459	2.99
478.663	2.99
478.866	3.08
479.07	3.04
479.273	3.09
479.477	2.97
479.681	3.02
479.884	3
480.088	3
480.291	2.96
480.495	2.99
480.698	2.92
480.901	2.84
481.105	2.81
481.308	2.82
481.512	2.89
481.715	2.95
481.919	3.02
482.122	3.05
482.325	3.1
482.529	3.09
482.732	3.11
482.935	3.06
483.138	3.02
483.342	3.06
483.545	3.08
483.748	3.05
483.952	3.1
484.155	3.2
484.358	3.13
484.561	3.14
484.764	3.18
484.967	3.19
485.171	3.16
485.374	3.19
485.577	3.13
485.78	3.17
485.983	3.21
486.186	3.2
486.389	3.21
486.592	3.25
486.795	3.21
486.998	3.15
487.201	3.19
487.404	3.25
487.607	3.26
487.81	3.23
488.013	3.26
488.216	3.3
488.419	3.19
488.622	3.18
488.825	3.25
489.028	3.32
489.231	3.2
489.433	3.26
489.636	3.27
489.839	3.23
490.042	3.19
490.245	3.3
490.447	3.31
490.65	3.24
490.853	3.25
491.056	3.22
491.258	3.17
491.461	3.15
491.664	3.18
491.866	3.17
492.069	3.17
492.272	3.18
492.474	3.16
492.677	3.18
492.879	3.16
493.082	3.08
493.285	3.04
493.487	3.11
493.69	3.13
493.892	3.19
494.095	3.25
494.297	3.23
494.5	3.15
494.702	3.07
494.905	3.02
495.107	3.06
495.309	3.09
495.512	3.16
495.714	3.21
495.917	3.21
496.119	3.2
496.321	3.2
496.524	3.16
496.726	3.15
496.928	3.16
497.13	3.23
497.333	3.28
497.535	3.29
497.737	3.37
497.939	3.45
498.142	3.43
498.344	3.4
498.546	3.38
498.748	3.34
498.95	3.35
499.152	3.38
499.355	3.43
499.557	3.36
499.759	3.39
499.961	3.31
500.163	3.25
500.365	3.2
500.567	3.26
500.769	3.31
500.971	3.41
501.173	3.42
501.375	3.41
501.577	3.44
501.779	3.43
501.981	3.39
502.183	3.44
502.385	3.5
502.587	3.52
502.788	3.48
502.99	3.53
503.192	3.56
503.394	3.63
503.596	3.66
503.798	3.75
503.999	3.74
504.201	3.75
504.403	3.74
504.605	3.72
504.806	3.73
505.008	3.73
505.21	3.66
505.411	3.63
505.613	3.64
505.815	3.68
506.016	3.68
506.218	3.76
506.42	3.78
506.621	3.8
506.823	3.74
507.024	3.76
507.226	3.76
507.427	3.78
507.629	3.86
507.83	3.86
508.032	3.84
508.233	3.87
508.435	3.95
508.636	3.86
508.838	3.83
509.039	3.84
509.24	3.86
509.442	3.75
509.643	3.83
509.845	3.88
510.046	3.92
510.247	3.88
510.448	3.87
510.65	3.89
510.851	3.97
511.052	3.95
511.254	4.04
511.455	4.11
511.656	4.1
511.857	4.01
512.058	4.03
512.26	4.01
512.461	4.05
512.662	4.08
512.863	4.16
513.064	4.17
513.265	4.15
513.466	4.14
513.667	4.14
513.868	4.11
514.069	4.13
514.27	4.07
514.471	4.04
514.672	4.01
514.873	4.04
515.074	4.08
515.275	4.21
515.476	4.29
515.677	4.33
515.878	4.37
516.079	4.31
516.28	4.24
516.481	4.2
516.682	4.23
516.882	4.25
517.083	4.26
517.284	4.38
517.485	4.36
517.686	4.34
517.886	4.38
518.087	4.43
518.288	4.37
518.488	4.44
518.689	4.43
518.89	4.4
519.091	4.42
519.291	4.4
519.492	4.4
519.692	4.47
519.893	4.43
520.094	4.46
520.294	4.54
520.495	4.53
520.695	4.53
520.896	4.59
521.096	4.61
521.297	4.57
521.497	4.63
521.698	4.66
521.898	4.65
522.099	4.69
522.299	4.7
522.499	4.68
522.7	4.66
522.9	4.73
523.101	4.69
523.301	4.73
523.501	4.76
523.702	4.78
523.902	4.75
524.102	4.76
524.302	4.74
524.503	4.72
524.703	4.77
524.903	4.8
525.103	4.82
525.304	4.83
525.504	4.85
525.704	4.86
525.904	4.84
526.104	4.89
526.304	4.96
526.504	4.96
526.705	4.99
526.905	5.04
527.105	5
527.305	4.99
527.505	5.04
527.705	5.05
527.905	5.07
528.105	5.08
528.305	5.11
528.505	5.12
528.705	5.11
528.905	5.12
529.105	5.17
529.304	5.16
529.504	5.16
529.704	5.2
529.904	5.24
530.104	5.26
530.304	5.32
530.503	5.39
530.703	5.39
530.903	5.4
531.103	5.4
531.303	5.37
531.502	5.41
531.702	5.44
531.902	5.46
532.101	5.45
532.301	5.49
532.501	5.42
532.7	5.44
532.9	5.43
533.1	5.47
533.299	5.48
533.499	5.56
533.698	5.6
533.898	5.65
534.097	5.68
534.297	5.67
534.496	5.65
534.696	5.68
534.895	5.71
535.095	5.73
535.294	5.78
535.494	5.79
535.693	5.8
535.892	5.8
536.092	5.82
536.291	5.88
536.491	5.97
536.69	5.96
536.889	5.95
537.088	6
537.288	5.94
537.487	5.94
537.686	6.03
537.886	6.09
538.085	6.14
538.284	6.2
538.483	6.26
538.682	6.27
538.882	6.29
539.081	6.26
539.28	6.28
539.479	6.31
539.678	6.31
539.877	6.37
540.076	6.5
540.275	6.56
540.474	6.54
540.673	6.57
540.872	6.56
541.071	6.56
541.27	6.67
541.469	6.77
541.668	6.81
541.867	6.89
542.066	6.94
542.265	6.92
542.464	6.99
542.663	7.03
542.862	7.15
543.06	7.15
543.259	7.19
543.458	7.24
543.657	7.3
543.856	7.27
544.054	7.35
544.253	7.36
544.452	7.38
544.651	7.38
544.849	7.39
545.048	7.44
545.247	7.56
545.445	7.55
545.644	7.67
545.843	7.69
546.041	7.73
546.24	7.76
546.438	7.86
546.637	7.87
546.836	7.94
547.034	8
547.233	8.06
547.431	8.13
547.63	8.23
547.828	8.35
548.027	8.38
548.225	8.43
548.423	8.51
548.622	8.56
548.82	8.63
549.019	8.73
549.217	8.76
549.415	8.81
549.614	8.96
549.812	9.05
550.01	9.12
550.209	9.25
550.407	9.27
550.605	9.25
550.803	9.32
551.002	9.4
551.2	9.47
551.398	9.56
551.596	9.63
551.794	9.65
551.993	9.73
552.191	9.79
552.389	9.9
552.587	10.05
552.785	10.12
552.983	10.19
553.181	10.31
553.379	10.45
553.577	10.51
553.775	10.64
553.973	10.72
554.171	10.73
554.369	10.79
554.567	10.87
554.765	10.92
554.963	10.96
555.161	11.07
555.359	11.14
555.557	11.15
555.755	11.26
555.952	11.36
556.15	11.43
556.348	11.46
556.546	11.57
556.744	11.63
556.941	11.71
557.139	11.84
557.337	12.02
557.535	12.2
557.732	12.32
557.93	12.34
558.128	12.41
558.325	12.42
558.523	12.51
558.721	12.5
558.918	12.69
559.116	12.79
559.313	12.88
559.511	12.95
559.708	13.09
559.906	13.21
560.104	13.31
560.301	13.37
560.498	13.43
560.696	13.49
560.893	13.58
561.091	13.68
561.288	13.87
561.486	13.98
561.683	14.13
561.88	14.19
562.078	14.23
562.275	14.23
562.473	14.25
562.67	14.27
562.867	14.34
563.064	14.43
563.262	14.58
563.459	14.76
563.656	14.83
563.853	14.88
564.051	14.98
564.248	15.02
564.445	14.99
564.642	15.07
564.839	15.14
565.036	15.17
565.234	15.17
565.431	15.23
565.628	15.28
565.825	15.38
566.022	15.5
566.219	15.64
566.416	15.75
566.613	15.85
566.81	15.98
567.007	16.01
567.204	16.09
567.401	16.15
567.598	16.16
567.795	16.11
567.991	16.07
568.188	16.07
568.385	16.05
568.582	16.1
568.779	16.12
568.976	16.14
569.172	16.19
569.369	16.28
569.566	16.35
569.763	16.25
569.96	16.33
570.156	16.39
570.353	16.39
570.55	16.45
570.746	16.6
570.943	16.61
571.14	16.58
571.336	16.59
571.533	16.6
571.729	16.63
571.926	16.73
572.123	16.72
572.319	16.72
572.516	16.71
572.712	16.71
572.909	16.65
573.105	16.59
573.302	16.64
573.498	16.61
573.695	16.63
573.891	16.55
574.087	16.63
574.284	16.61
574.48	16.57
574.677	16.56
574.873	16.63
575.069	16.73
575.266	16.82
575.462	16.8
575.658	16.78
575.854	16.85
576.051	16.73
576.247	16.68
576.443	16.71
576.639	16.75
576.835	16.63
577.032	16.57
577.228	16.55
577.424	16.49
577.62	16.39
577.816	16.39
578.012	16.45
578.208	16.4
578.404	16.44
578.6	16.47
578.796	16.48
578.993	16.49
579.189	16.53
579.384	16.59
579.58	16.53
579.776	16.54
579.972	16.4
580.168	16.3
580.364	16.22
580.56	16.26
580.756	16.2
580.952	16.22
581.148	16.24
581.343	16.22
581.539	16.18
581.735	16.11
581.931	16.05
582.127	16.02
582.322	15.96
582.518	15.96
582.714	15.97
582.909	15.97
583.105	15.98
583.301	15.97
583.496	15.92
583.692	15.9
583.888	15.97
584.083	15.96
584.279	15.89
584.474	15.89
584.67	15.88
584.866	15.8
585.061	15.78
585.257	15.75
585.452	15.71
585.648	15.78
585.843	15.74
586.039	15.7
586.234	15.71
586.429	15.7
586.625	15.64
586.82	15.68
587.015	15.66
587.211	15.69
587.406	15.67
587.601	15.64
587.797	15.65
587.992	15.65
588.187	15.66
588.383	15.72
588.578	15.72
588.773	15.67
588.968	15.7
589.163	15.7
589.359	15.58
589.554	15.55
589.749	15.58
589.944	15.55
590.139	15.53
590.334	15.66
590.529	15.7
590.724	15.78
590.919	15.83
591.114	15.86
591.309	15.82
591.504	15.78
591.699	15.73
591.894	15.78
592.089	15.85
592.284	15.9
592.479	15.95
592.674	16.06
592.869	16.1
593.064	16.14
593.259	16.23
593.454	16.27
593.648	16.21
593.843	16.23
594.038	16.25
594.233	16.24
594.428	16.32
594.622	16.43
594.817	16.42
595.012	16.57
595.206	16.68
595.401	16.78
595.596	16.77
595.79	16.82
595.985	16.87
596.18	16.95
596.374	16.91
596.569	17.08
596.763	17.2
596.958	17.22
597.153	17.17
597.347	17.3
597.542	17.3
597.736	17.37
597.931	17.41
598.125	17.6
598.319	17.69
598.514	17.85
598.708	17.84
598.903	17.82
599.097	17.85
599.291	17.82
599.486	17.76
599.68	17.81
599.874	17.96
600.069	17.98
600.263	18.07
600.457	18.1
600.651	18.13
600.846	18.08
601.04	18.08
601.234	18.11
601.428	18.12
601.622	18.16
601.817	18.19
602.011	18.21
602.205	18.25
602.399	18.33
602.593	18.36
602.787	18.39
602.981	18.35
603.175	18.28
603.369	18.23
603.563	18.23
603.757	18.24
603.951	18.27
604.145	18.3
604.339	18.35
604.533	18.37
604.727	18.34
604.921	18.32
605.115	18.34
605.309	18.35
605.502	18.31
605.696	18.31
605.89	18.32
606.084	18.28
606.278	18.15
606.471	18.13
606.665	18.11
606.859	18.03
607.053	17.98
607.246	17.97
607.44	17.94
607.634	17.84
607.827	17.83
608.021	17.82
608.214	17.8
608.408	17.68
608.602	17.74
608.795	17.66
608.989	17.52
609.182	17.38
609.376	17.32
609.569	17.14
609.763	17.04
609.956	17.04
610.15	17.04
610.343	17.03
610.537	17.01
610.73	16.98
610.923	16.96
611.117	16.94
611.31	16.79
611.504	16.79
611.697	16.87
611.89	16.76
612.083	16.69
612.277	16.69
612.47	16.57
612.663	16.38
612.856	16.19
613.05	16.09
613.243	16.01
613.436	15.87
613.629	15.79
613.822	15.85
614.015	15.82
614.209	15.71
614.402	15.73
614.595	15.74
614.788	15.68
614.981	15.6
615.174	15.56
615.367	15.44
615.56	15.31
615.753	15.26
615.946	15.17
616.139	15.11
616.332	15.13
616.525	15.06
616.718	15.08
616.911	15.12
617.103	15.11
617.296	15
617.489	15.02
617.682	14.93
617.875	14.8
618.067	14.76
618.26	14.76
618.453	14.64
618.646	14.63
618.838	14.66
619.031	14.58
619.224	14.51
619.417	14.58
619.609	14.54
619.802	14.48
619.994	14.48
620.187	14.51
620.38	14.46
620.572	14.38
620.765	14.26
620.957	14.27
621.15	14.28
621.342	14.22
621.535	14.14
621.727	14.14
621.92	14.03
622.112	13.97
622.305	13.89
622.497	13.97
622.69	13.94
622.882	13.96
623.074	13.9
623.267	13.93
623.459	13.83
623.651	13.93
623.844	13.91
624.036	13.97
624.228	13.99
624.42	13.98
624.613	13.89
624.805	13.93
624.997	13.89
625.189	13.88
625.381	13.86
625.574	13.86
625.766	13.71
625.958	13.64
626.15	13.58
626.342	13.55
626.534	13.48
626.726	13.47
626.918	13.41
627.11	13.35
627.302	13.37
627.494	13.4
627.686	13.36
627.878	13.41
628.07	13.37
628.262	13.32
628.454	13.31
628.646	13.32
628.838	13.18
629.029	13.24
629.221	13.14
629.413	13.04
629.605	12.99
629.797	13.03
629.989	12.98
630.18	13
630.372	12.98
630.564	12.94
630.755	12.88
630.947	12.76
631.139	12.71
631.33	12.6
631.522	12.49
631.714	12.5
631.905	12.58
632.097	12.57
632.289	12.61
632.48	12.66
632.672	12.6
632.863	12.6
633.055	12.58
633.246	12.58
633.438	12.6
633.629	12.58
633.821	12.42
634.012	12.38
634.203	12.36
634.395	12.34
634.586	12.35
634.777	12.4
634.969	12.41
635.16	12.4
635.351	12.39
635.543	12.44
635.734	12.45
635.925	12.52
636.117	12.47
636.308	12.44
636.499	12.3
636.69	12.23
636.881	12.18
637.073	12.17
637.264	12.12
637.455	12.2
637.646	12.2
637.837	12.16
638.028	12.17
638.219	12.15
638.41	12.1
638.601	12.03
638.792	11.99
638.983	12
639.174	12.05
639.365	11.95
639.556	12.01
639.747	12.07
639.938	11.98
640.129	11.94
640.32	11.99
640.511	11.98
640.701	11.96
640.892	12
641.083	11.99
641.274	11.97
641.465	11.9
641.655	11.78
641.846	11.78
642.037	11.74
642.228	11.61
642.418	11.57
642.609	11.48
642.8	11.43
642.99	11.4
643.181	11.44
643.372	11.46
643.562	11.51
643.753	11.48
643.943	11.45
644.134	11.52
644.324	11.48
644.515	11.42
644.705	11.43
644.896	11.45
645.086	11.43
645.277	11.39
645.467	11.43
645.658	11.37
645.848	11.37
646.038	11.29
646.229	11.3
646.419	11.29
646.61	11.26
646.8	11.17
646.99	11.18
647.18	11.16
647.371	11.06
647.561	11.1
647.751	11.18
647.941	11.21
648.132	11.31
648.322	11.37
648.512	11.43
648.702	11.43
648.892	11.32
649.082	11.21
649.272	11.21
649.462	11.07
649.653	11.02
649.843	11.13
650.033	11.11
650.223	11.01
650.413	11.01
650.603	11.01
650.793	10.94
650.983	10.96
651.172	10.96
651.362	10.94
651.552	10.93
651.742	10.89
651.932	10.84
652.122	10.96
652.312	10.94
652.502	10.81
652.691	10.74
652.881	10.67
653.071	10.52
653.261	10.44
653.45	10.34
653.64	10.28
653.83	10.22
654.019	10.09
654.209	9.99
654.399	9.99
654.588	9.87
654.778	9.77
654.968	9.67
655.157	9.66
655.347	9.52
655.536	9.48
655.726	9.35
655.915	9.16
656.105	8.94
656.294	8.85
656.484	8.72
656.673	8.76
656.863	8.82
657.052	8.74
657.241	8.82
657.431	8.73
657.62	8.51
657.809	8.36
657.999	8.26
658.188	7.98
658.377	7.88
658.567	7.78
658.756	7.66
658.945	7.57
659.134	7.53
659.324	7.4
659.513	7.3
659.702	7.27
659.891	7.24
660.08	7.07
660.269	6.96
660.458	6.84
660.648	6.71
660.837	6.53
661.026	6.49
661.215	6.3
661.404	6.23
661.593	6.04
661.782	5.94
661.971	5.83
662.16	5.8
662.349	5.68
662.538	5.63
662.726	5.55
662.915	5.51
663.104	5.46
663.293	5.41
663.482	5.33
663.671	5.26
663.86	5.18
664.048	5.08
664.237	5.06
664.426	5.03
664.615	4.93
664.803	4.8
664.992	4.81
665.181	4.7
665.369	4.64
665.558	4.63
665.747	4.57
665.935	4.48
666.124	4.49
666.312	4.45
666.501	4.53
666.69	4.54
666.878	4.6
667.067	4.54
667.255	4.53
667.444	4.48
667.632	4.38
667.82	4.15
668.009	4.18
668.197	4.24
668.386	4.21
668.574	4.23
668.762	4.32
668.951	4.29
669.139	4.24
669.327	4.28
669.516	4.27
669.704	4.35
669.892	4.39
670.08	4.28
670.269	4.25
670.457	4.32
670.645	4.26
670.833	4.23
671.021	4.28
671.21	4.23
671.398	4.18
671.586	4.18
671.774	4.21
671.962	4.28
672.15	4.36
672.338	4.49
672.526	4.58
672.714	4.63
672.902	4.68
673.09	4.67
673.278	4.57
673.466	4.51
673.654	4.57
673.842	4.67
674.03	4.7
674.218	4.85
674.405	5
674.593	5.05
674.781	5.03
674.969	5.06
675.157	5.07
675.344	5.07
675.532	5.02
675.72	4.99
675.908	5.08
676.095	5.09
676.283	5.11
676.471	5.04
676.658	5.11
676.846	5.14
677.033	5.23
677.221	5.28
677.409	5.49
677.596	5.54
677.784	5.5
677.971	5.48
678.159	5.65
678.346	5.53
678.534	5.6
678.721	5.65
678.909	5.76
679.096	5.71
679.283	5.84
679.471	5.91
679.658	6.09
679.846	6.2
680.033	6.35
680.22	6.45
680.408	6.51
680.595	6.5
680.782	6.52
680.969	6.58
681.157	6.62
681.344	6.67
681.531	6.8
681.718	6.85
681.905	6.78
682.093	6.94
682.28	7
682.467	7.17
682.654	7.21
682.841	7.49
683.028	7.56
683.215	7.65
683.402	7.77
683.589	7.96
683.776	7.95
683.963	8.1
684.15	8.29
684.337	8.38
684.524	8.51
684.711	8.61
684.898	8.58
685.085	8.63
685.271	8.79
685.458	8.94
685.645	9.21
685.832	9.57
686.019	9.96
686.205	10.03
686.392	10.28
686.579	10.54
686.766	10.64
686.952	10.77
687.139	11.06
687.326	11.26
687.512	11.6
687.699	11.78
687.886	11.99
688.072	12.33
688.259	12.72
688.445	12.78
688.632	13.31
688.818	13.73
689.005	14.17
689.191	14.41
689.378	14.86
689.564	15.1
689.751	15.49
689.937	15.71
690.124	16.11
690.31	16.41
690.496	16.95
690.683	17.27
690.869	17.71
691.055	18.07
691.242	18.64
691.428	18.91
691.614	19.33
691.8	19.76
691.987	20.25
692.173	20.79
692.359	21.44
692.545	22.1
692.731	22.62
692.918	23.24
693.104	23.64
693.29	24.05
693.476	24.49
693.662	25.11
693.848	25.73
694.034	26.35
694.22	27
694.406	27.57
694.592	27.88
694.778	28.33
694.964	28.82
695.15	29.52
695.336	29.94
695.522	30.52
695.708	31.26
695.894	32
696.08	32.46
696.265	32.93
696.451	33.57
696.637	33.97
696.823	34.21
697.009	34.76
697.194	35.44
697.38	35.84
697.566	36.36
697.751	37.1
697.937	37.46
698.123	38.25
698.308	39.02
698.494	39.77
698.68	40.31
698.865	41.08
699.051	41.27
699.236	41.81
699.422	42.07
699.607	42.22
699.793	42.37
699.978	43.11
700.164	43.32
700.349	43.91
700.535	44.62
700.72	45.22
700.906	45.57
701.091	46.22
701.276	46.5
701.462	46.94
701.647	47.34
701.832	47.93
702.018	48.37
702.203	48.92
702.388	49.71
702.573	50.15
702.759	50.42
702.944	50.77
703.129	51.06
703.314	51.04
703.499	51.77
703.684	52.17
703.87	52.68
704.055	52.93
704.24	53.39
704.425	53.47
704.61	53.89
704.795	54.23
704.98	54.59
705.165	55
705.35	55.52
705.535	55.55
705.72	55.39
705.905	55.8
706.09	55.91
706.275	56.24
706.459	56.62
706.644	57.37
706.829	57.65
707.014	58.12
707.199	58.21
707.384	58.19
707.568	58.39
707.753	58.71
707.938	58.61
708.123	59.03
708.307	59.86
708.492	59.87
708.677	59.79
708.861	60.19
709.046	60.09
709.231	60.25
709.415	60.15
709.6	60.48
709.784	60.73
709.969	60.59
710.153	60.55
710.338	61.06
710.522	61.4
710.707	61.34
710.891	61.71
711.076	61.7
711.26	61.54
711.445	61.59
711.629	61.85
711.813	62.25
711.998	62.79
712.182	63.33
712.366	63.63
712.551	63.67
712.735	63.65
712.919	63.66
713.103	64.02
713.288	64.29
713.472	64.8
713.656	65.27
713.84	65.39
714.024	64.81
714.208	64.65
714.393	64.46
714.577	64.41
714.761	64.3
714.945	64.81
715.129	64.79
715.313	64.75
715.497	64.6
715.681	64.82
715.865	64.92
716.049	64.86
716.233	65.46
716.417	66
716.601	66.06
716.785	66.95
716.968	67.42
717.152	67.06
717.336	67.33
717.52	67.45
717.704	67.21
717.888	67.77
718.071	68.11
718.255	67.48
718.439	67.59
718.622	67.58
718.806	67.21
718.99	67.37
719.174	67.4
719.357	67.84
719.541	67.79
719.724	68.1
719.908	67.94
720.092	68.26
720.275	68.29
720.459	68.18
720.642	67.61
720.826	67.97
721.009	68.2
721.193	68.01
721.376	67.86
721.559	68.21
721.743	68.39
721.926	68.49
722.11	68.23
722.293	68.95
722.476	69.11
722.66	69.16
722.843	68.93
723.026	69.15
723.21	69.22
723.393	69.36
723.576	69.13
723.759	69.77
723.942	70.37
724.126	70.48
724.309	70.88
724.492	70.64
724.675	70.47
724.858	70.03
725.041	69.42
725.224	69.23
725.407	70.15
725.59	70.23
725.774	71.2
725.957	71.62
726.14	72.3
726.322	72.16
726.505	72.75
726.688	72.17
726.871	72.5
727.054	71.76
727.237	72.1
727.42	71.58
727.603	71.43
727.786	71.25
727.968	71.31
728.151	71
728.334	71.06
728.517	71.7
728.699	71.9
728.882	72.77
729.065	72.93
729.248	72.9
729.43	73.34
729.613	73.44
729.796	72.98
729.978	73.06
730.161	73.76
730.343	73.83
730.526	74.36
730.708	74.5
730.891	75.19
731.073	75.63
731.256	75.39
731.438	74.72
731.621	74.1
731.803	73.71
731.986	74.09
732.168	74.43
732.35	75.49
732.533	76.48
732.715	77.33
732.898	76.27
733.08	75.93
733.262	76.12
733.444	76.76
733.627	76.19
733.809	76.4
733.991	76.73
734.173	75.95
734.355	75.42
734.538	76.05
734.72	76.66
734.902	76.82
735.084	76.96
735.266	77.01
735.448	76.82
735.63	77.29
735.812	77.55
735.994	77.62
736.176	77.34
736.358	77.23
736.54	77.06
736.722	76.01
736.904	77.71
737.086	78.8
737.268	79.39
737.45	79.31
737.632	80.15
737.814	79.14
737.995	79.36
738.177	79.34
738.359	79.3
738.541	79.37
738.723	80.06
738.904	79.41
739.086	78.46
739.268	78.35
739.449	78.99
739.631	79.1
739.813	79.54
739.994	80.78
740.176	81.23
740.358	80.31
740.539	80.1
740.721	79.73
740.902	79.6
741.084	79.32
741.265	80.15
741.447	79.68
741.628	80.01
741.81	79.65
741.991	79.58
742.172	79.66
742.354	79.15
742.535	79.98
742.717	80.05
742.898	79.19
743.079	79.23
743.261	79.91
743.442	80.29
743.623	79.59
743.804	81.24
743.986	80.34
744.167	80.05
744.348	79.85
744.529	81.15
744.71	80.9
744.891	81.73
745.073	82.7
745.254	81.94
745.435	82.51
745.616	82.68
745.797	82.33
745.978	81.62
746.159	81.6
746.34	81.86
746.521	81.05
746.702	80.67
746.883	80.38
747.064	80
747.245	79.06
747.426	79.82
747.606	81.35
747.787	81.44
747.968	81.81
748.149	81.93
748.33	82.25
748.51	80.81
748.691	82.03
748.872	81.94
749.053	81.22
749.233	80.79
749.414	81
749.595	80.68
749.775	80.44
749.956	80.32
750.137	79.87
750.317	79.88
750.498	79.06
750.678	80.55
750.859	80.9
751.04	81.89
751.22	82.63
751.4	84.34
751.581	83.48
751.761	83.83
751.942	82.44
752.122	83.37
752.303	82.86
752.483	82.29
752.663	82.27
752.844	82.8
753.024	82.32
753.204	81.76
753.385	81.76
753.565	82.54
753.745	83.52
753.925	82.74
754.106	83.4
754.286	84.45
754.466	82.76
754.646	83.28
754.826	84.08
755.006	83.85
755.187	83.26
755.367	83.9
755.547	82.25
755.727	81.36
755.907	80.92
756.087	80.25
756.267	79.59
756.447	79.6
756.627	80.24
756.807	78.94
756.987	79.47
757.167	80.71
757.346	81.59
757.526	81.51
757.706	82.86
757.886	82.14
758.066	81.27
758.246	81.28
758.425	80.57
758.605	80.71
758.785	82.77
758.965	82.74
759.144	82.28
759.324	82.17
759.504	81.62
759.683	80.24
759.863	81.65
760.043	82.61
760.222	83.43
760.402	84.93
760.581	85.63
760.761	85.33
760.94	84.5
761.12	83.95
761.299	82.23
761.479	82.1
761.658	81.54
761.838	81.35
762.017	81.05
762.197	81.03
762.376	80.64
762.555	80.77
762.735	79.95
762.914	80.62
763.093	81.74
763.273	81.73
763.452	80.74
763.631	80.69
763.81	81.75
763.99	82.18
764.169	82.48
764.348	83.91
764.527	84.03
764.706	81.65
764.885	80.39
765.064	81.24
765.243	80.24
765.423	81.32
765.602	82.24
765.781	82.22
765.96	81.53
766.139	82.28
766.318	82.51
766.497	81.87
766.676	80.87
766.854	80.55
767.033	79.82
767.212	79.64
767.391	79.22
767.57	79.99
767.749	79.32
767.928	78.99
768.106	79.34
768.285	80.17
768.464	80.12
768.643	78.57
768.821	78.91
769	78.1
769.179	77.06
769.357	77.49
769.536	80.24
769.715	79.96
769.893	79.99
770.072	80.66
770.25	80.88
770.429	79.46
770.607	79.71
770.786	79.48
770.964	79.92
771.143	78.63
771.321	77.98
771.5	76.93
771.678	77.79
771.857	78.12
772.035	78.33
772.213	78.68
772.392	80.45
772.57	78.11
772.748	78.31
772.927	79.18
773.105	80.02
773.283	79.21
773.461	81.6
773.64	82.05
773.818	81.21
773.996	80.55
774.174	79.9
774.352	78.8
774.531	77.49
774.709	77.65
774.887	77.5
775.065	79.13
775.243	79.18
775.421	78.9
775.599	79.89
775.777	79.85
775.955	78.23
776.133	78.66
776.311	77.43
776.489	76.04
776.667	74.83
776.844	75.63
777.022	74.43
777.2	78.11
777.378	78.01
777.556	78.8
777.734	77.18
777.911	76.36
778.089	74.35
778.267	74.81
778.445	75.05
778.622	76.64
778.8	78.97
778.978	77.9
779.155	77.52
779.333	76.39
779.511	75.35
779.688	73.53
779.866	73.39
780.043	73.12
780.221	74.23
780.398	74.09
780.576	76.43
780.753	77.82
780.931	76.98
781.108	79.17
781.286	80.15
781.463	78.14
781.64	75.39
781.818	74.96
781.995	72.27
782.172	72.47
782.35	71.04
782.527	71.4
782.704	73.56
782.882	74.38
783.059	74.28
783.236	76.89
783.413	77.58
783.59	77.84
783.768	77.51
783.945	75.18
784.122	73.05
784.299	75.02
784.476	75.37
784.653	77.54
784.83	80.89
785.007	81.94
785.184	81.13
785.361	81.6
785.538	80.38
785.715	76.09
785.892	77.06
786.069	75.94
786.246	73.49
786.423	69.65
786.6	73.91
786.776	71.73
786.953	70.75
787.13	70.98
787.307	73.07
787.484	69.93
787.66	70.42
787.837	72.99
788.014	73.68
788.191	73.99
788.367	76.21
788.544	73.12
788.721	71.43
788.897	69.55
789.074	68.44
789.25	66.54
789.427	70.23
789.603	69.05
789.78	71.16
789.956	74.62
790.133	75.13
790.309	69.9
790.486	72.51
790.662	71.22
790.839	68.77
791.015	70.1
791.192	72.57
791.368	71.44
791.544	71.92
791.721	70.64
791.897	70.87
792.073	74.11
792.249	74.7
792.426	72.65
792.602	72.95
792.778	73.8
792.954	71.34
793.13	70.97
793.307	70.9
793.483	71.19
793.659	69.94
793.835	74.35
794.011	74.07
794.187	75.87
794.363	75.02
794.539	76.48
794.715	75.07
794.891	74.1
795.067	74.24
795.243	74.03
795.419	72.81
795.595	71.06
795.771	74.52
795.947	76.11
796.122	75.36
796.298	73
796.474	72.65
796.65	67.42
796.826	66.74
797.001	69.22
797.177	70.82
797.353	72.15
797.529	74.21
797.704	71.46
797.88	70.39
798.056	70.8
798.231	69.93
798.407	71.17
798.582	70.29
798.758	71.88
798.934	70.44
799.109	68.57
799.285	67.16
799.46	68.11
799.636	68.08
799.811	64.41
799.986	67.17
800.162	67.52
800.337	66.17
800.513	67.56
800.688	71.51
800.863	69.83
801.039	70.8
801.214	77.31
801.389	77
801.565	75.3
801.74	75.01
801.915	73.46
802.09	68.06
802.265	66.23
802.441	66.51
802.616	71.24
802.791	72.47
802.966	71.4
803.141	68.78
803.316	74.22
803.491	71.99
803.666	74.86
803.841	76.13
804.016	75.41
804.191	73.47
804.366	70.46
804.541	67.58
804.716	68.06
804.891	74.54
805.066	74.79
805.241	77.82
805.416	73.42
805.591	79.14
805.765	70.97
805.94	70.25
806.115	65.86
806.29	68.83
806.464	66.79
806.639	70.16
806.814	71.83
806.989	77.08
807.163	75.46
807.338	71.45
807.512	71.46
807.687	68.74
807.862	68.68
808.036	65
808.211	68.85
808.385	65.5
808.56	64.47
808.734	62.34
808.909	66.68
809.083	63.7
809.258	73.92
809.432	72.19
809.606	70.69
809.781	70.94
809.955	72.77
810.13	60.96
810.304	67.8
810.478	70.16
810.652	66.46
810.827	63.94
811.001	73.01
811.175	68.82
811.349	67.06
811.524	66.98
811.698	68.56
811.872	62.26
812.046	60.79
812.22	63.6
812.394	71.15
812.568	67.14
812.742	70.62
812.916	72.75
813.09	75.31
813.264	79.98
813.438	87.93
813.612	85.94
813.786	89.06
813.96	80.24
814.134	70.22
814.308	64.17
814.482	61.13
814.656	61.11
814.83	66.82
815.003	72.15
815.177	71.09
815.351	74.41
815.525	66.05
815.698	63.77
815.872	67.8
816.046	75.61
816.219	85.2
816.393	89.31
816.567	83.94
816.74	77.43
816.914	76.8
817.088	71.19
817.261	69.71
817.435	73.2
817.608	76.05
817.782	74.06
817.955	69.71
818.129	80.78
818.302	75.96
818.475	74.93
818.649	69.72
818.822	69.21
818.996	52.4
819.169	49.79
819.342	53.08
819.516	49
819.689	45.75
819.862	51.96
820.035	51.06
820.209	54.04
820.382	57.65
820.555	64.18
820.728	64.09
820.901	74.2
821.075	64.02
821.248	63.61
821.421	67.03
821.594	69.56
821.767	64.08
821.94	61.94
822.113	61.84
822.286	52.6
822.459	54.84
822.632	61.6
822.805	67.49
822.978	78.87
823.151	82.92
823.324	76.32
823.496	79.43
823.669	74.47
823.842	69.06
824.015	73.34
824.188	87.57
824.361	77.94
824.533	82.54
824.706	70.34
824.879	61.62
825.051	57.34
825.224	58.43
825.397	57.18
825.569	67.19
825.742	78.81
825.915	81.19
826.087	76.76
826.26	65.08
826.432	64.62
826.605	46.15
826.777	52.27
826.95	50.97
827.122	66.14
827.295	58.09
827.467	67.46
827.64	63.56
827.812	67.99
827.984	67.72
828.157	70.99
828.329	67.14
828.501	76.68
828.674	73.67
828.846	63.95
829.018	67.77
829.19	79.19
829.363	64.94
829.535	59.12
829.707	60.29
829.879	71.37
830.051	66.93
830.223	66.11
830.395	64.34
830.568	78.58
830.74	65.74
830.912	53.07
831.084	54.44
831.256	72.62
831.428	57.6
831.6	52.65
831.772	65.86
831.943	69.07
832.115	65.75
832.287	61.93
832.459	63.03
832.631	56.09
832.803	57.7
832.975	58.26
833.146	62.55
833.318	68.86
833.49	67.12
833.662	69.33
833.833	71.71
834.005	77.32
834.177	77.28
834.348	70.36
834.52	66.85
834.692	60.86
834.863	67.77
835.035	61.72
835.206	71.8
835.378	68.14
835.549	59.87
835.721	47.58
835.892	54.6
836.064	42.93
836.235	44.78
836.407	58.52
836.578	75.52
836.749	69.99
836.921	95.56
837.092	99.28
837.264	96.95
837.435	92.2
837.606	80.51
837.777	74.06
837.949	67.75
838.12	79.71
838.291	65.64
838.462	75.14
838.633	80.69
838.805	80.09
838.976	72.53
839.147	77.3
839.318	76.42
839.489	70
839.66	65.3
839.831	36.81
840.002	56.32
840.173	66.98
840.344	58.9
840.515	47.87
840.686	67.42
840.857	50.52
841.028	41.05
841.199	40.24
841.369	62.83
841.54	53.84
841.711	55.26
841.882	58.79
842.053	61.09
842.223	48.48
842.394	49.43
842.565	52.59
842.736	50.34
842.906	51.77
843.077	66.64
843.248	79.01
843.418	73.95
843.589	73.89
843.759	82.54
843.93	63.67
844.101	32.84
844.271	45.11
844.442	48.6
844.612	36.85
844.783	53
844.953	78.06
845.123	71.47
845.294	63.75
845.464	57.12
845.635	55.13
845.805	41.17
845.975	51.01
846.146	60.57
846.316	75.98
846.486	69.87
846.656	66.83
846.827	67.86
846.997	61.86
847.167	62.66
847.337	62.22
847.507	68.29
847.677	66.69
847.848	72.47
848.018	68.08
848.188	55.94
848.358	64.82
848.528	54.59
848.698	45.92
848.868	48.06
849.038	63.48
849.208	59.93
849.378	50.65
849.548	62.21
849.718	54.85
849.887	42.66
850.057	25.89
850.227	35.06
850.397	26.93
850.567	23.48
850.737	34.17
850.906	58.44
851.076	57.01
851.246	51.43
851.415	76.79
851.585	53.23
851.755	38.6
851.924	48.64
852.094	46.03
852.264	33.55
852.433	43.36
852.603	47.13
852.772	64.23
852.942	81.37
853.111	78.7
853.281	86.94
853.45	92.07
853.62	81.58
853.789	68.24
853.959	68.23
854.128	53.73
854.297	54.82
854.467	44.11
854.636	44.77
854.805	33.67
854.975	55.67
855.144	75.32
855.313	55.63
855.482	68.51
855.652	97.18
855.821	101.35
855.99	89.69
856.159	95.75
856.328	103.51
856.497	78.49
856.667	61.23
856.836	58.17
857.005	68.4
857.174	61.95
857.343	76.34
857.512	78.68
857.681	77.8
857.85	73.91
858.019	77.84
858.188	51.38
858.356	49.53
858.525	57.76
858.694	66.49
858.863	69.76
859.032	87.31
859.201	100.18
859.369	67.35
859.538	59.35
859.707	51.39
859.876	35.15
860.044	25.89
860.213	36.84
860.382	18.36
860.55	-11.64
860.719	13.59
860.888	25.95
861.056	24.52
861.225	32.29
861.393	41.81
861.562	34.82
861.73	32.24
861.899	39.34
862.067	33.33
862.236	48.23
862.404	61.62
862.572	67.94
862.741	82.03
862.909	97.31
863.078	69.9
863.246	66.04
863.414	47.52
863.582	41.84
863.751	46.42
863.919	65.18
864.087	59.74
864.255	57.96
864.424	64.6
864.592	51.03
864.76	47.32
864.928	53.08
865.096	72.04
865.264	78.32
865.432	78.3
865.6	46.47
865.768	47.64
865.936	43.22
866.104	30.6
866.272	34.84
866.44	60.18
866.608	60.37
866.776	69.65
866.944	76.03
867.112	73.91
867.28	74.69
867.448	71.37
867.615	60.74
867.783	63.22
867.951	74.6
868.119	42.26
868.286	29.51
868.454	23.97
868.622	-4.39
868.789	19.52
868.957	28.8
869.125	48.57
869.292	69.03
869.46	69.55
869.627	88.56
869.795	88.04
869.963	97.07
870.13	85.4
870.298	89.6
870.465	68.87
870.632	74.77
870.8	80.56
870.967	114.04
871.135	135.26
871.302	184.48
871.469	136.5
871.637	80.88
871.804	66.49
871.971	71.78
872.139	70.07
872.306	59.92
872.473	49.66
872.64	37.95
872.807	21.76
872.975	19.58
873.142	49.9
873.309	33.8
873.476	32.08
873.643	38.24
873.81	34.04
873.977	17.86
874.144	26.21
874.311	21.04
874.478	26.77
874.645	37.37
874.812	25.76
874.979	48.81
875.146	70.83
875.313	67.92
875.48	59.14
875.647	64.84
875.813	55.81
875.98	64.59
876.147	72.87
876.314	77.41
876.481	66.61
876.647	92.67
876.814	83.37
876.981	73.79
877.147	66.28
877.314	63.36
877.481	57.27
877.647	43.83
877.814	38.55
877.98	49.2
878.147	60.85
878.314	20.76
878.48	36.19
878.647	37.64
878.813	4.69
878.979	4.26
879.146	44.66
879.312	59.72
879.479	89.53
879.645	119.87
879.811	125.93
879.978	95.96
880.144	82.48
880.31	37.64
880.477	48.53
880.643	58.45
880.809	-62.07
880.975	-68.34
881.142	-69.25
881.308	-22.29
881.474	21.97
881.64	67.8
881.806	64
881.972	37.01
882.138	13.03
882.304	-6.85
882.47	48.82
882.636	-12.85
882.802	0.58
882.968	20.41
883.134	18.95
883.3	11.11
883.466	44.8
883.632	42.8
883.798	49.24
883.964	53.2
884.129	42.36
884.295	44.9
884.461	71.99
884.627	87.87
884.793	77.92
884.958	95.56
885.124	100.74
885.29	100.2
885.455	94.48
885.621	105.09
885.787	94.85
885.952	85.08
886.118	73.1
886.283	58.04
886.449	89.12
886.614	80.79
886.78	74.87
886.945	63.47
887.111	74.79
887.276	-6.79
887.442	9.58
887.607	41.06
887.773	62.02
887.938	58.46
888.103	57.2
888.269	53.98
888.434	45.76
888.599	51.95
888.764	30.64
888.93	44.37
889.095	44.97
889.26	60.08
889.425	24.31
889.59	51.66
889.756	56.06
889.921	65.95
890.086	20.33
890.251	47.2
890.416	58.84
890.581	29.38
890.746	68.01
890.911	65.96
891.076	80.65
891.241	98.53
891.406	96.39
891.571	71.28
891.736	71.87
891.901	53.91
892.065	37.57
892.23	19.64
892.395	27.18
892.56	28.54
892.725	20.98
892.889	25.6
893.054	26.41
893.219	56.65
893.384	82.24
893.548	104.22
893.713	135.97
893.878	169.1
