Data from Ofav_PP_Phys_2EV44_Reflection_3.txt Node
Date: Tue Aug 03 18:05:10 EDT 2021
User: Adam
Spectrometer: FLMT01687
Trigger mode: 0
Integration Time (sec): 8.750000E-1
Scans to average: 2
Electric dark correction enabled: true
Nonlinearity correction enabled: false
Boxcar width: 2
XAxis mode: Wavelengths
Number of Pixels in Spectrum: 3648
>>>>>Begin Spectral Data<<<<<
179.494	177.24
179.716	270.08
179.937	466.12
180.158	-600.51
180.38	-48.43
180.601	-189.05
180.823	343.53
181.044	233.64
181.265	212.53
181.486	338.51
181.708	97.43
181.929	150.16
182.15	263.4
182.372	152.69
182.593	-303.33
182.814	111.35
183.035	90.26
183.257	36.16
183.478	27.33
183.699	7.72
183.92	-4.7
184.141	-24.72
184.363	-32.05
184.584	-47.19
184.805	-12.13
185.026	-32.47
185.247	-9.86
185.468	-4.75
185.689	-13.97
185.91	-2.83
186.132	-1.11
186.353	7.24
186.574	-3.43
186.795	19.84
187.016	5.17
187.237	31.26
187.458	22.32
187.679	21.02
187.9	8.03
188.121	12.75
188.342	9.69
188.563	24.41
188.784	32.99
189.005	40.48
189.226	31.44
189.447	18.44
189.667	-13.2
189.888	-25.97
190.109	2.94
190.33	-9.51
190.551	-19.31
190.772	8.77
190.993	9.01
191.214	-17.42
191.434	1.53
191.655	-6.79
191.876	-3.8
192.097	11.41
192.318	32.45
192.538	36.39
192.759	44.72
192.98	12.37
193.201	-15.87
193.421	-21.79
193.642	-22.15
193.863	15.28
194.083	39.39
194.304	23.07
194.525	13.92
194.745	33.39
194.966	11.66
195.187	18.37
195.407	30.28
195.628	26.95
195.848	0.55
196.069	41.15
196.29	17.29
196.51	4.09
196.731	19.83
196.951	31.65
197.172	24.75
197.392	33.85
197.613	38.57
197.833	37.11
198.054	48.42
198.274	26.85
198.495	45.61
198.715	67.64
198.936	61.84
199.156	59.87
199.377	68.82
199.597	70.01
199.817	52.41
200.038	57.95
200.258	53.92
200.479	44.23
200.699	51.45
200.919	22.99
201.14	55.52
201.36	24.27
201.58	26.9
201.801	-29.63
202.021	-15.8
202.241	-32.46
202.461	10.08
202.682	21.58
202.902	33.47
203.122	42.56
203.342	57.45
203.563	28.37
203.783	33.84
204.003	48.6
204.223	40.02
204.443	19.85
204.663	32.79
204.884	14.63
205.104	17.49
205.324	27.26
205.544	11.62
205.764	6.45
205.984	-7.13
206.204	-26.26
206.424	-52.39
206.644	-20.53
206.864	-16.99
207.084	11.4
207.304	1.57
207.525	11.03
207.745	10.2
207.964	9.12
208.184	11.29
208.404	23.44
208.624	16.62
208.844	23.69
209.064	30.26
209.284	31.26
209.504	13.97
209.724	29.41
209.944	7.73
210.164	-45.69
210.384	-15.47
210.604	-3.07
210.823	-12.73
211.043	7.85
211.263	12.72
211.483	7.92
211.703	48.53
211.922	29.68
212.142	43.32
212.362	33.23
212.582	40.83
212.801	16.93
213.021	26.82
213.241	-5.5
213.461	26.02
213.68	19.9
213.9	15.47
214.12	-3.69
214.339	34.04
214.559	54.54
214.779	36.79
214.998	55.03
215.218	69.42
215.438	42.76
215.657	30.8
215.877	27.57
216.096	9.61
216.316	-5.76
216.535	-24.9
216.755	-45.23
216.974	-23.01
217.194	-0.99
217.413	31.63
217.633	46.64
217.852	42.18
218.072	34.21
218.291	26.14
218.511	20.84
218.73	20.07
218.95	32.87
219.169	45.93
219.389	48.14
219.608	35.8
219.827	6.53
220.047	-25.4
220.266	-12.67
220.485	30.83
220.705	36.31
220.924	31.54
221.143	22.63
221.363	24.35
221.582	-4.89
221.801	-20.28
222.021	3.9
222.24	28.59
222.459	3.67
222.678	35.91
222.897	31.66
223.117	5.62
223.336	-114.88
223.555	-26.72
223.774	-14.09
223.993	-18.7
224.213	-7.02
224.432	0.84
224.651	10.13
224.87	11.57
225.089	25.85
225.308	17.57
225.527	23.35
225.746	7.55
225.965	9.42
226.184	5.97
226.404	26.13
226.623	34.06
226.842	37.5
227.061	23.95
227.28	25.58
227.499	28.82
227.718	20.82
227.936	5.84
228.155	28.27
228.374	29.18
228.593	29.84
228.812	15.05
229.031	38.14
229.25	29.88
229.469	8.98
229.688	-27.58
229.907	-34.59
230.125	-25.76
230.344	-33.77
230.563	-25.27
230.782	7.73
231.001	30.06
231.22	28
231.438	5.7
231.657	-4.52
231.876	-4.66
232.095	-10.63
232.313	-23.76
232.532	-45.23
232.751	-21.71
232.969	-20.15
233.188	-23.39
233.407	-4.8
233.625	26.73
233.844	17.11
234.063	21.9
234.281	20.5
234.5	10.53
234.719	-8.91
234.937	17.44
235.156	0.25
235.374	8.37
235.593	21.78
235.811	26.75
236.03	24.74
236.249	42.25
236.467	50.06
236.686	31.19
236.904	20.94
237.123	29.78
237.341	26.86
237.559	25.36
237.778	27.87
237.996	36.81
238.215	29.92
238.433	13.89
238.652	13.06
238.87	19.52
239.088	8.5
239.307	15.42
239.525	21.16
239.743	19.49
239.962	21.65
240.18	29.98
240.398	33.95
240.617	33.5
240.835	18.37
241.053	7.1
241.271	-21.47
241.49	-31.28
241.708	-23.9
241.926	3.96
242.144	8.7
242.363	26.11
242.581	13.19
242.799	13.52
243.017	4.89
243.235	18.66
243.453	18.79
243.672	29.09
243.89	34.92
244.108	43.28
244.326	13.18
244.544	7.92
244.762	5.37
244.98	-0.65
245.198	12.25
245.416	39.5
245.634	32.98
245.852	28.43
246.07	26.48
246.288	8.21
246.506	15.23
246.724	22.08
246.942	31.71
247.16	33.12
247.378	36.67
247.596	37.88
247.814	31.52
248.032	27
248.25	16.1
248.468	18.02
248.685	15.88
248.903	3.47
249.121	3.22
249.339	8.83
249.557	6.83
249.775	-3.91
249.992	12.22
250.21	4.71
250.428	-6.37
250.646	-38.59
250.863	-43.79
251.081	-55.43
251.299	-52.45
251.517	-28.08
251.734	-7.05
251.952	-8.23
252.17	-24.02
252.387	-32.79
252.605	-48.27
252.823	-72.83
253.04	-45.71
253.258	2.43
253.475	7.8
253.693	5.07
253.911	18.62
254.128	6.6
254.346	3.92
254.563	5.68
254.781	22.66
254.998	14.43
255.216	17.9
255.433	13.9
255.651	29.79
255.868	28.5
256.086	31.71
256.303	54.76
256.521	52.2
256.738	16.33
256.956	21.54
257.173	17.12
257.39	13.98
257.608	0.59
257.825	-0.41
258.043	-39.39
258.26	-8.2
258.477	1.36
258.695	-6.03
258.912	-6.49
259.129	26.26
259.346	19.67
259.564	13.93
259.781	19.51
259.998	36.74
260.216	31.51
260.433	26.62
260.65	21.72
260.867	35.4
261.084	10.84
261.302	-8.41
261.519	-5.64
261.736	9.26
261.953	4.33
262.17	7.27
262.387	6.63
262.604	-10.85
262.822	-5.27
263.039	-7.53
263.256	-2.25
263.473	13.41
263.69	29.4
263.907	19.02
264.124	-4.32
264.341	-9.89
264.558	-48.3
264.775	-32.29
264.992	-18.13
265.209	-3.34
265.426	4.01
265.643	27.35
265.86	26.66
266.077	32.98
266.294	27.3
266.51	19.3
266.727	14.49
266.944	5.97
267.161	0.18
267.378	8.62
267.595	18.38
267.812	19.97
268.028	25.42
268.245	26.27
268.462	35.92
268.679	34.07
268.896	3.6
269.112	9.58
269.329	-10.02
269.546	-49.12
269.763	-34.42
269.979	-15.4
270.196	-2.66
270.413	8.48
270.629	16.44
270.846	0.22
271.063	31.55
271.279	22.29
271.496	14.26
271.712	16.54
271.929	19.85
272.146	22.34
272.362	21.78
272.579	14.92
272.795	10.21
273.012	9.21
273.228	12.83
273.445	3.98
273.661	10.46
273.878	15.25
274.094	15.79
274.311	-8.74
274.527	-19.26
274.744	-5.88
274.96	-2.13
275.177	-33.43
275.393	-8.34
275.609	13.64
275.826	20.39
276.042	12.46
276.259	39.91
276.475	30.09
276.691	22.67
276.908	4.03
277.124	21.02
277.34	5
277.557	1.67
277.773	-1.14
277.989	4.72
278.205	-5.08
278.422	11.46
278.638	22.42
278.854	19.66
279.07	31.52
279.286	37.8
279.503	34.21
279.719	30.19
279.935	24.33
280.151	2.73
280.367	-11.21
280.583	-54.04
280.799	-35.74
281.016	-37.65
281.232	-26.55
281.448	-9.83
281.664	-2.58
281.88	0.01
282.096	10.2
282.312	5.15
282.528	11.82
282.744	32.93
282.96	27.19
283.176	23.43
283.392	31.94
283.608	33.06
283.824	21.94
284.04	25.13
284.256	32.02
284.471	30.81
284.687	22.82
284.903	29.79
285.119	33.32
285.335	33.99
285.551	23.31
285.767	27.53
285.982	13.56
286.198	5.68
286.414	-3.01
286.63	-12.18
286.846	-9.06
287.061	-4.46
287.277	-2.42
287.493	4.42
287.709	-2.15
287.924	-3.82
288.14	-0.48
288.356	-2.55
288.571	9.56
288.787	16.87
289.003	-4.7
289.218	-14.21
289.434	-13.18
289.65	-29.58
289.865	-29.46
290.081	-47.38
290.296	-45.86
290.512	-49.06
290.727	-52.82
290.943	-24.82
291.159	12.16
291.374	12.32
291.59	27.71
291.805	26.06
292.021	21.99
292.236	12.36
292.451	22.81
292.667	24.44
292.882	31.1
293.098	23.07
293.313	33.13
293.529	23.02
293.744	-5.01
293.959	5.45
294.175	28.02
294.39	44
294.605	50.33
294.821	65.07
295.036	57.67
295.251	47.85
295.467	31
295.682	44.93
295.897	33.56
296.112	36.68
296.328	44.72
296.543	60.59
296.758	39.75
296.973	34.45
297.188	31.98
297.404	48.08
297.619	40.9
297.834	39.03
298.049	42.58
298.264	40.16
298.479	12.24
298.694	5.64
298.909	20.32
299.125	25.24
299.34	29.06
299.555	32.64
299.77	23.28
299.985	6.76
300.2	6.2
300.415	-10.87
300.63	1.35
300.845	14.24
301.06	8.91
301.275	-0.99
301.49	15.86
301.704	-2.72
301.919	7.13
302.134	5.09
302.349	10.14
302.564	17.47
302.779	29.36
302.994	29.22
303.209	29.04
303.423	33.27
303.638	34.11
303.853	39.76
304.068	38.41
304.283	44.69
304.497	41.09
304.712	33.79
304.927	33.53
305.142	35.17
305.356	33.67
305.571	38.22
305.786	41.05
306	38.99
306.215	33.38
306.43	37.82
306.644	25.84
306.859	25.79
307.074	24.29
307.288	39.86
307.503	32.49
307.717	42.25
307.932	33.84
308.147	32.62
308.361	3.75
308.576	5.72
308.79	15.21
309.005	29.2
309.219	28.65
309.434	27.16
309.648	26.3
309.863	6.57
310.077	-14.25
310.292	-6.94
310.506	7.9
310.72	14.41
310.935	10.34
311.149	11.22
311.364	-3.78
311.578	-1.66
311.792	7.75
312.007	14.32
312.221	16.77
312.435	18.62
312.649	18.27
312.864	-8.31
313.078	9.98
313.292	19.33
313.507	30.21
313.721	21.19
313.935	37.16
314.149	23.71
314.363	17.87
314.578	7.58
314.792	14.29
315.006	12.43
315.22	7.73
315.434	0.8
315.648	-11.35
315.862	4.41
316.077	7.82
316.291	12.84
316.505	20.92
316.719	27.61
316.933	30.05
317.147	19.11
317.361	-1.26
317.575	14.35
317.789	13.98
318.003	6.42
318.217	11.93
318.431	24.01
318.645	-9.14
318.859	-9.23
319.073	-11.06
319.287	-3.44
319.5	4.37
319.714	19.51
319.928	25.36
320.142	18.63
320.356	10.62
320.57	13.17
320.784	13.91
320.997	11.23
321.211	26.59
321.425	35.34
321.639	28.54
321.853	24.46
322.066	27.72
322.28	18.38
322.494	24.3
322.707	26.97
322.921	21.9
323.135	22.81
323.349	23.07
323.562	26.62
323.776	31.52
323.989	47.42
324.203	46.17
324.417	42.07
324.63	43.68
324.844	42.56
325.057	41.88
325.271	27.47
325.485	32.55
325.698	15.63
325.912	3.17
326.125	8.34
326.339	20.47
326.552	13.15
326.766	22.82
326.979	30.64
327.193	19.29
327.406	17.61
327.619	21.93
327.833	3.66
328.046	19.3
328.26	17.02
328.473	8.01
328.686	6.8
328.9	29.63
329.113	29.16
329.326	35.81
329.54	47.21
329.753	48.84
329.966	44.73
330.179	23.58
330.393	18.08
330.606	19.22
330.819	14.5
331.032	11.01
331.246	11.29
331.459	17.55
331.672	4.7
331.885	11.37
332.098	5.12
332.311	26.12
332.525	28.35
332.738	42.86
332.951	39.08
333.164	38.84
333.377	30.46
333.59	29.92
333.803	19.27
334.016	18.14
334.229	24.27
334.442	1.46
334.655	-7.12
334.868	-16.94
335.081	-18.61
335.294	-25.56
335.507	-3.36
335.72	-6.23
335.933	4.39
336.146	8.03
336.359	9.74
336.572	-1.87
336.785	6.34
336.997	19.91
337.21	15.14
337.423	5.78
337.636	21.14
337.849	9.79
338.062	8.16
338.274	12.15
338.487	28.85
338.7	26.04
338.913	35.3
339.125	27.15
339.338	20.82
339.551	5.69
339.763	-11.07
339.976	-13.56
340.189	-6.2
340.402	0.44
340.614	1.23
340.827	28.42
341.039	40.04
341.252	50.89
341.465	46.06
341.677	44.34
341.89	33.81
342.102	34.75
342.315	9.65
342.527	22.33
342.74	18.61
342.952	13.7
343.165	15.68
343.377	21.06
343.59	12.56
343.802	15.89
344.015	11.2
344.227	-2.24
344.44	4.23
344.652	13.24
344.864	5.17
345.077	8.92
345.289	-0.41
345.502	-21.61
345.714	-34.25
345.926	-9.58
346.139	-9.99
346.351	-1.99
346.563	12.5
346.775	15.26
346.988	8.08
347.2	18.17
347.412	20.77
347.624	8.26
347.837	0.37
348.049	4.67
348.261	-8.83
348.473	-5.33
348.685	0.88
348.897	8.43
349.11	5.43
349.322	-3.19
349.534	-17.32
349.746	-14.09
349.958	-5.84
350.17	-2.27
350.382	0.88
350.594	7.74
350.806	8.57
351.018	1.12
351.23	10.04
351.442	12.09
351.654	-2.97
351.866	-0.43
352.078	8.38
352.29	-0.61
352.502	6.5
352.714	25.71
352.926	22
353.138	10.69
353.35	16.61
353.561	28.6
353.773	30.44
353.985	27.29
354.197	28.21
354.409	27.05
354.621	24.17
354.832	22.67
355.044	27.18
355.256	29.87
355.468	28.93
355.679	33.72
355.891	31.48
356.103	34.63
356.314	19.85
356.526	13.7
356.738	19.46
356.949	13.7
357.161	-17.87
357.373	2.02
357.584	5.7
357.796	2.72
358.008	-5.62
358.219	11.36
358.431	14.69
358.642	18.53
358.854	9.76
359.065	20.18
359.277	39.27
359.488	28.1
359.7	16.69
359.911	2.23
360.123	4.53
360.334	-11.96
360.546	-6.09
360.757	-11.68
360.969	-1.37
361.18	12.12
361.391	20.53
361.603	27.82
361.814	43.3
362.025	49.22
362.237	42.05
362.448	34.4
362.659	28.64
362.871	21.34
363.082	5.07
363.293	6.34
363.504	8.64
363.716	22.46
363.927	20.64
364.138	31.02
364.349	18.27
364.56	22.41
364.772	20.28
364.983	10.33
365.194	2.46
365.405	8.08
365.616	16.12
365.827	21.96
366.038	31.81
366.25	25.3
366.461	26.71
366.672	2.4
366.883	-7.37
367.094	-14.2
367.305	-4.9
367.516	-11.9
367.727	8.28
367.938	7.72
368.149	14.18
368.36	-0.14
368.571	10.41
368.781	12.57
368.992	19.25
369.203	23.95
369.414	38.7
369.625	22.52
369.836	13.26
370.047	9.53
370.258	-6.03
370.468	-5.17
370.679	16.56
370.89	14.85
371.101	14.64
371.312	26.68
371.522	23.35
371.733	18.24
371.944	20.86
372.155	20.78
372.365	11.19
372.576	19.24
372.787	10.54
372.997	11.23
373.208	20.3
373.419	10.48
373.629	-1.32
373.84	12.64
374.05	9.06
374.261	-0.26
374.472	14.66
374.682	14.13
374.893	8.76
375.103	1.7
375.314	4.04
375.524	5.09
375.735	15.18
375.945	18.32
376.156	27.63
376.366	22.33
376.577	24.75
376.787	26.7
376.997	24.22
377.208	26.07
377.418	22.89
377.629	18.34
377.839	1.67
378.049	-4.11
378.26	-13.84
378.47	-3.63
378.68	-11.17
378.89	9.35
379.101	16.4
379.311	13.28
379.521	12.39
379.732	20.39
379.942	14.31
380.152	15.51
380.362	15.16
380.572	16.42
380.783	21.66
380.993	20.61
381.203	9.32
381.413	13.62
381.623	11.69
381.833	5.85
382.043	15.18
382.253	19.27
382.463	19.04
382.674	17.56
382.884	12.59
383.094	-3.13
383.304	-0.54
383.514	4.22
383.724	-1.47
383.934	5.67
384.144	8.91
384.353	4.91
384.563	-1.38
384.773	-1.99
384.983	-4.13
385.193	-0.55
385.403	7.16
385.613	13.27
385.823	19.57
386.033	16.1
386.242	18.62
386.452	17.38
386.662	14.38
386.872	8.77
387.082	5.72
387.291	2.73
387.501	-2.63
387.711	-5.02
387.921	1.89
388.13	6.04
388.34	3.65
388.55	9.11
388.759	11.47
388.969	9.62
389.179	9.66
389.388	7.4
389.598	4.91
389.807	1.68
390.017	1.02
390.227	0.42
390.436	3.26
390.646	0.34
390.855	1.16
391.065	0.61
391.274	3.03
391.484	3.36
391.693	5.28
391.903	5.82
392.112	7.41
392.322	4.84
392.531	3.72
392.74	3.55
392.95	5.11
393.159	3
393.369	5.15
393.578	5.72
393.787	5.86
393.997	4.17
394.206	4.79
394.415	3.26
394.625	3.21
394.834	3.61
395.043	4.36
395.252	4.48
395.462	4.81
395.671	4.03
395.88	3.56
396.089	3.24
396.298	3.18
396.508	2.86
396.717	3.32
396.926	2.68
397.135	2.09
397.344	1.98
397.553	1.88
397.762	1.78
397.971	2.29
398.181	2.51
398.39	2.88
398.599	2.9
398.808	3.3
399.017	2.91
399.226	2.83
399.435	2.37
399.644	2.58
399.853	2.18
400.062	2.38
400.27	2.51
400.479	2.48
400.688	2.19
400.897	2.62
401.106	2.62
401.315	2.59
401.524	2.67
401.733	2.54
401.941	2.28
402.15	2.27
402.359	2.43
402.568	2.34
402.777	2.53
402.985	2.51
403.194	2.61
403.403	2.33
403.612	2.3
403.82	2.23
404.029	2.25
404.238	2.33
404.446	2.26
404.655	2.31
404.864	2.32
405.072	2.2
405.281	2.12
405.489	2.3
405.698	2.29
405.906	2.41
406.115	2.5
406.324	2.42
406.532	2.3
406.741	2.36
406.949	2.21
407.158	2.28
407.366	2.33
407.574	2.36
407.783	2.33
407.991	2.32
408.2	2.18
408.408	2.01
408.617	2.02
408.825	2.02
409.033	2.1
409.242	2.19
409.45	2.22
409.658	2.26
409.867	2.27
410.075	2.21
410.283	2.08
410.491	2
410.7	1.98
410.908	1.93
411.116	1.89
411.324	1.92
411.533	1.94
411.741	1.99
411.949	1.96
412.157	1.98
412.365	1.94
412.573	2.09
412.781	2.09
412.99	2.14
413.198	2.14
413.406	2.17
413.614	2.04
413.822	2.02
414.03	1.96
414.238	2.02
414.446	2.03
414.654	2.04
414.862	2.03
415.07	1.97
415.278	1.89
415.486	1.91
415.694	2.05
415.902	1.92
416.109	1.94
416.317	2
416.525	1.9
416.733	1.95
416.941	2.02
417.149	2.03
417.357	1.96
417.564	2.07
417.772	1.96
417.98	2.13
418.188	2.21
418.395	2.19
418.603	2.09
418.811	2.06
419.019	1.77
419.226	1.75
419.434	1.67
419.642	1.64
419.849	1.6
420.057	1.78
420.265	1.63
420.472	1.84
420.68	1.9
420.887	1.95
421.095	1.71
421.302	1.95
421.51	1.64
421.717	1.75
421.925	1.57
422.132	1.72
422.34	1.68
422.547	1.81
422.755	1.61
422.962	1.8
423.17	1.9
423.377	1.86
423.585	2
423.792	2.01
423.999	1.84
424.207	1.76
424.414	1.5
424.621	1.39
424.829	1.52
425.036	1.77
425.243	1.65
425.451	1.72
425.658	1.71
425.865	1.64
426.072	1.49
426.28	1.45
426.487	1.44
426.694	1.4
426.901	1.4
427.108	1.51
427.315	1.82
427.523	1.88
427.73	1.91
427.937	2.12
428.144	1.9
428.351	1.85
428.558	1.99
428.765	2.01
428.972	1.81
429.179	1.78
429.386	1.62
429.593	1.48
429.8	1.44
430.007	1.41
430.214	1.58
430.421	1.74
430.628	1.65
430.835	1.77
431.042	1.82
431.249	1.76
431.456	1.78
431.662	1.91
431.869	1.92
432.076	1.75
432.283	1.78
432.49	1.74
432.697	1.82
432.903	1.74
433.11	1.76
433.317	1.81
433.524	1.74
433.73	1.66
433.937	1.71
434.144	1.84
434.35	1.66
434.557	1.7
434.764	1.75
434.97	1.74
435.177	1.76
435.384	1.95
435.59	1.95
435.797	1.84
436.003	1.78
436.21	1.75
436.416	1.78
436.623	1.66
436.829	1.72
437.036	1.8
437.242	1.8
437.449	1.69
437.655	1.78
437.862	1.8
438.068	1.73
438.275	1.76
438.481	1.77
438.687	1.82
438.894	1.97
439.1	2.01
439.307	1.96
439.513	2.06
439.719	2.03
439.926	1.88
440.132	1.94
440.338	2
440.544	1.88
440.751	1.81
440.957	1.64
441.163	1.64
441.369	1.62
441.575	1.68
441.782	1.85
441.988	2.03
442.194	2.01
442.4	2.07
442.606	2.12
442.812	2.08
443.018	1.97
443.224	1.92
443.431	1.89
443.637	1.89
443.843	1.87
444.049	2.03
444.255	2.17
444.461	2.27
444.667	2.16
444.873	2.13
445.079	2.03
445.284	1.97
445.49	1.91
445.696	1.95
445.902	2.03
446.108	2.08
446.314	2.09
446.52	2.2
446.726	2.32
446.931	2.3
447.137	2.28
447.343	2.33
447.549	2.2
447.755	2.16
447.96	2.09
448.166	1.98
448.372	1.83
448.578	1.85
448.783	1.82
448.989	1.9
449.195	2.01
449.4	2.12
449.606	2.04
449.812	2.02
450.017	2.01
450.223	2.04
450.428	2.09
450.634	2.17
450.84	2.21
451.045	2.24
451.251	2.22
451.456	2.24
451.662	2.14
451.867	2.04
452.073	2.04
452.278	1.96
452.483	1.94
452.689	1.94
452.894	2
453.1	1.9
453.305	1.97
453.51	1.94
453.716	1.99
453.921	2.02
454.127	2.08
454.332	2.15
454.537	2.16
454.742	2.23
454.948	2.26
455.153	2.28
455.358	2.19
455.563	2.05
455.769	2.1
455.974	2.08
456.179	2.07
456.384	2.07
456.589	2.24
456.795	2.12
457	2.15
457.205	2.12
457.41	2.09
457.615	2.02
457.82	2.03
458.025	2.03
458.23	2.01
458.435	2.08
458.64	2.11
458.845	2.11
459.05	2.06
459.255	2.01
459.46	1.98
459.665	1.89
459.87	1.92
460.075	1.88
460.28	2.06
460.485	2.13
460.69	2.17
460.895	2.09
461.099	2.12
461.304	1.97
461.509	2.01
461.714	2.07
461.919	2.12
462.123	2.18
462.328	2.32
462.533	2.28
462.738	2.25
462.942	2.3
463.147	2.47
463.352	2.33
463.556	2.36
463.761	2.32
463.966	2.23
464.17	2.1
464.375	2.2
464.58	2.2
464.784	2.17
464.989	2.23
465.193	2.26
465.398	2.29
465.602	2.21
465.807	2.38
466.011	2.38
466.216	2.31
466.42	2.23
466.625	2.3
466.829	2.17
467.034	2.2
467.238	2.17
467.443	2.14
467.647	2.15
467.851	2.25
468.056	2.27
468.26	2.36
468.464	2.39
468.669	2.4
468.873	2.25
469.077	2.12
469.282	2.14
469.486	2.14
469.69	2.08
469.894	2.07
470.099	2.23
470.303	2.22
470.507	2.23
470.711	2.29
470.915	2.48
471.119	2.49
471.324	2.5
471.528	2.49
471.732	2.52
471.936	2.44
472.14	2.42
472.344	2.38
472.548	2.45
472.752	2.36
472.956	2.44
473.16	2.41
473.364	2.53
473.568	2.53
473.772	2.59
473.976	2.59
474.18	2.66
474.384	2.58
474.588	2.59
474.792	2.66
474.995	2.6
475.199	2.57
475.403	2.54
475.607	2.56
475.811	2.49
476.015	2.42
476.218	2.43
476.422	2.47
476.626	2.48
476.83	2.52
477.033	2.67
477.237	2.65
477.441	2.55
477.644	2.53
477.848	2.54
478.052	2.51
478.255	2.51
478.459	2.58
478.663	2.65
478.866	2.64
479.07	2.59
479.273	2.64
479.477	2.54
479.681	2.49
479.884	2.52
480.088	2.53
480.291	2.53
480.495	2.58
480.698	2.58
480.901	2.52
481.105	2.49
481.308	2.44
481.512	2.53
481.715	2.55
481.919	2.59
482.122	2.61
482.325	2.64
482.529	2.64
482.732	2.63
482.935	2.62
483.138	2.59
483.342	2.59
483.545	2.55
483.748	2.47
483.952	2.49
484.155	2.54
484.358	2.56
484.561	2.6
484.764	2.63
484.967	2.64
485.171	2.66
485.374	2.71
485.577	2.7
485.78	2.75
485.983	2.69
486.186	2.7
486.389	2.67
486.592	2.67
486.795	2.67
486.998	2.71
487.201	2.67
487.404	2.68
487.607	2.67
487.81	2.7
488.013	2.67
488.216	2.65
488.419	2.58
488.622	2.64
488.825	2.66
489.028	2.68
489.231	2.69
489.433	2.7
489.636	2.61
489.839	2.55
490.042	2.61
490.245	2.72
490.447	2.73
490.65	2.76
490.853	2.76
491.056	2.77
491.258	2.67
491.461	2.75
491.664	2.74
491.866	2.76
492.069	2.74
492.272	2.75
492.474	2.66
492.677	2.67
492.879	2.66
493.082	2.53
493.285	2.5
493.487	2.54
493.69	2.53
493.892	2.53
494.095	2.62
494.297	2.7
494.5	2.67
494.702	2.67
494.905	2.75
495.107	2.72
495.309	2.67
495.512	2.69
495.714	2.7
495.917	2.63
496.119	2.63
496.321	2.63
496.524	2.65
496.726	2.71
496.928	2.76
497.13	2.86
497.333	2.89
497.535	2.91
497.737	2.91
497.939	2.89
498.142	2.85
498.344	2.8
498.546	2.76
498.748	2.71
498.95	2.7
499.152	2.72
499.355	2.8
499.557	2.79
499.759	2.78
499.961	2.77
500.163	2.81
500.365	2.82
500.567	2.81
500.769	2.89
500.971	2.97
501.173	2.96
501.375	2.91
501.577	2.92
501.779	2.9
501.981	2.89
502.183	2.91
502.385	2.96
502.587	2.98
502.788	2.94
502.99	2.91
503.192	2.93
503.394	2.96
503.596	2.99
503.798	3.06
503.999	3.13
504.201	3.12
504.403	3.1
504.605	3.1
504.806	3.18
505.008	3.11
505.21	3.09
505.411	3.12
505.613	3.11
505.815	3.07
506.016	3.09
506.218	3.14
506.42	3.14
506.621	3.19
506.823	3.23
507.024	3.28
507.226	3.28
507.427	3.26
507.629	3.31
507.83	3.27
508.032	3.22
508.233	3.19
508.435	3.24
508.636	3.17
508.838	3.18
509.039	3.24
509.24	3.28
509.442	3.27
509.643	3.32
509.845	3.34
510.046	3.32
510.247	3.27
510.448	3.28
510.65	3.34
510.851	3.35
511.052	3.42
511.254	3.54
511.455	3.51
511.656	3.43
511.857	3.42
512.058	3.4
512.26	3.32
512.461	3.33
512.662	3.39
512.863	3.36
513.064	3.38
513.265	3.4
513.466	3.42
513.667	3.45
513.868	3.46
514.069	3.42
514.27	3.4
514.471	3.38
514.672	3.33
514.873	3.4
515.074	3.46
515.275	3.51
515.476	3.56
515.677	3.6
515.878	3.6
516.079	3.62
516.28	3.63
516.481	3.65
516.682	3.71
516.882	3.77
517.083	3.79
517.284	3.81
517.485	3.78
517.686	3.7
517.886	3.67
518.087	3.6
518.288	3.58
518.488	3.65
518.689	3.63
518.89	3.64
519.091	3.71
519.291	3.69
519.492	3.62
519.692	3.75
519.893	3.67
520.094	3.68
520.294	3.76
520.495	3.84
520.695	3.86
520.896	3.93
521.096	3.94
521.297	3.95
521.497	3.96
521.698	3.93
521.898	3.87
522.099	3.89
522.299	3.89
522.499	3.87
522.7	3.86
522.9	3.99
523.101	3.96
523.301	4
523.501	4.01
523.702	4.03
523.902	4
524.102	4.06
524.302	4.05
524.503	4.04
524.703	4.07
524.903	4.12
525.103	4.1
525.304	4.1
525.504	4.13
525.704	4.13
525.904	4.15
526.104	4.15
526.304	4.2
526.504	4.21
526.705	4.22
526.905	4.23
527.105	4.28
527.305	4.28
527.505	4.3
527.705	4.33
527.905	4.34
528.105	4.3
528.305	4.34
528.505	4.37
528.705	4.38
528.905	4.41
529.105	4.5
529.304	4.51
529.504	4.54
529.704	4.55
529.904	4.56
530.104	4.56
530.304	4.64
530.503	4.66
530.703	4.69
530.903	4.72
531.103	4.72
531.303	4.7
531.502	4.7
531.702	4.74
531.902	4.71
532.101	4.69
532.301	4.67
532.501	4.68
532.7	4.7
532.9	4.78
533.1	4.84
533.299	4.9
533.499	4.9
533.698	4.89
533.898	4.84
534.097	4.86
534.297	4.83
534.496	4.81
534.696	4.84
534.895	4.88
535.095	4.95
535.294	5.02
535.494	5.03
535.693	5.05
535.892	5.03
536.092	4.99
536.291	5
536.491	5.1
536.69	5.08
536.889	5.2
537.088	5.21
537.288	5.18
537.487	5.18
537.686	5.25
537.886	5.21
538.085	5.28
538.284	5.3
538.483	5.35
538.682	5.36
538.882	5.38
539.081	5.41
539.28	5.45
539.479	5.47
539.678	5.54
539.877	5.6
540.076	5.64
540.275	5.71
540.474	5.72
540.673	5.68
540.872	5.72
541.071	5.82
541.27	5.9
541.469	5.91
541.668	6.04
541.867	6.11
542.066	6.11
542.265	6.14
542.464	6.22
542.663	6.24
542.862	6.28
543.06	6.3
543.259	6.32
543.458	6.35
543.657	6.39
543.856	6.46
544.054	6.49
544.253	6.51
544.452	6.59
544.651	6.52
544.849	6.56
545.048	6.62
545.247	6.69
545.445	6.69
545.644	6.81
545.843	6.86
546.041	6.84
546.24	6.84
546.438	6.92
546.637	7.04
546.836	7.1
547.034	7.17
547.233	7.29
547.431	7.4
547.63	7.41
547.828	7.47
548.027	7.57
548.225	7.61
548.423	7.66
548.622	7.68
548.82	7.72
549.019	7.7
549.217	7.72
549.415	7.76
549.614	7.89
549.812	7.92
550.01	8.09
550.209	8.21
550.407	8.27
550.605	8.31
550.803	8.38
551.002	8.39
551.2	8.46
551.398	8.53
551.596	8.57
551.794	8.61
551.993	8.74
552.191	8.82
552.389	8.88
552.587	9.05
552.785	9.15
552.983	9.2
553.181	9.21
553.379	9.29
553.577	9.36
553.775	9.4
553.973	9.47
554.171	9.56
554.369	9.68
554.567	9.75
554.765	9.86
554.963	9.91
555.161	10.01
555.359	10.13
555.557	10.18
555.755	10.29
555.952	10.44
556.15	10.5
556.348	10.52
556.546	10.54
556.744	10.66
556.941	10.64
557.139	10.76
557.337	10.84
557.535	11.05
557.732	11.08
557.93	11.19
558.128	11.27
558.325	11.33
558.523	11.4
558.721	11.49
558.918	11.65
559.116	11.75
559.313	11.8
559.511	11.87
559.708	11.94
559.906	12.02
560.104	12.05
560.301	12.21
560.498	12.24
560.696	12.35
560.893	12.4
561.091	12.59
561.288	12.7
561.486	12.78
561.683	12.84
561.88	13.03
562.078	13.01
562.275	13.01
562.473	13.07
562.67	13.12
562.867	13.09
563.064	13.23
563.262	13.34
563.459	13.39
563.656	13.43
563.853	13.58
564.051	13.66
564.248	13.7
564.445	13.78
564.642	13.96
564.839	13.96
565.036	14.03
565.234	14.1
565.431	14.19
565.628	14.26
565.825	14.32
566.022	14.33
566.219	14.46
566.416	14.57
566.613	14.58
566.81	14.73
567.007	14.78
567.204	14.81
567.401	14.76
567.598	14.82
567.795	14.75
567.991	14.75
568.188	14.81
568.385	14.83
568.582	14.91
568.779	14.98
568.976	14.99
569.172	14.99
569.369	15.1
569.566	15.03
569.763	15.02
569.96	15.04
570.156	15.1
570.353	15.13
570.55	15.24
570.746	15.33
570.943	15.41
571.14	15.39
571.336	15.46
571.533	15.5
571.729	15.51
571.926	15.54
572.123	15.6
572.319	15.51
572.516	15.47
572.712	15.48
572.909	15.5
573.105	15.37
573.302	15.39
573.498	15.35
573.695	15.3
573.891	15.18
574.087	15.22
574.284	15.28
574.48	15.41
574.677	15.41
574.873	15.53
575.069	15.57
575.266	15.47
575.462	15.38
575.658	15.37
575.854	15.33
576.051	15.35
576.247	15.34
576.443	15.35
576.639	15.34
576.835	15.29
577.032	15.21
577.228	15.24
577.424	15.15
577.62	15.21
577.816	15.23
578.012	15.28
578.208	15.24
578.404	15.31
578.6	15.28
578.796	15.24
578.993	15.22
579.189	15.24
579.384	15.18
579.58	15.04
579.776	15.08
579.972	14.99
580.168	14.96
580.364	14.96
580.56	15.06
580.756	14.91
580.952	14.87
581.148	14.78
581.343	14.78
581.539	14.67
581.735	14.7
581.931	14.67
582.127	14.73
582.322	14.73
582.518	14.8
582.714	14.8
582.909	14.81
583.105	14.83
583.301	14.73
583.496	14.55
583.692	14.53
583.888	14.54
584.083	14.4
584.279	14.42
584.474	14.49
584.67	14.4
584.866	14.39
585.061	14.5
585.257	14.43
585.452	14.45
585.648	14.56
585.843	14.48
586.039	14.4
586.234	14.4
586.429	14.36
586.625	14.3
586.82	14.39
587.015	14.4
587.211	14.43
587.406	14.41
587.601	14.39
587.797	14.35
587.992	14.29
588.187	14.27
588.383	14.27
588.578	14.31
588.773	14.28
588.968	14.38
589.163	14.43
589.359	14.43
589.554	14.43
589.749	14.46
589.944	14.39
590.139	14.27
590.334	14.33
590.529	14.34
590.724	14.33
590.919	14.33
591.114	14.49
591.309	14.47
591.504	14.52
591.699	14.51
591.894	14.54
592.089	14.47
592.284	14.45
592.479	14.42
592.674	14.51
592.869	14.52
593.064	14.51
593.259	14.63
593.454	14.66
593.648	14.7
593.843	14.84
594.038	14.93
594.233	14.85
594.428	14.91
594.622	14.93
594.817	14.91
595.012	14.95
595.206	15.05
595.401	15.12
595.596	15.21
595.79	15.26
595.985	15.35
596.18	15.45
596.374	15.53
596.569	15.52
596.763	15.55
596.958	15.59
597.153	15.66
597.347	15.7
597.542	15.79
597.736	15.96
597.931	16.07
598.125	16.15
598.319	16.21
598.514	16.28
598.708	16.29
598.903	16.27
599.097	16.26
599.291	16.3
599.486	16.37
599.68	16.49
599.874	16.54
600.069	16.6
600.263	16.63
600.457	16.57
600.651	16.45
600.846	16.48
601.04	16.45
601.234	16.47
601.428	16.6
601.622	16.73
601.817	16.72
602.011	16.82
602.205	16.9
602.399	16.91
602.593	16.83
602.787	16.87
602.981	16.88
603.175	16.9
603.369	16.87
603.563	16.95
603.757	16.98
603.951	16.89
604.145	16.85
604.339	16.76
604.533	16.75
604.727	16.79
604.921	16.8
605.115	16.75
605.309	16.81
605.502	16.8
605.696	16.65
605.89	16.59
606.084	16.57
606.278	16.54
606.471	16.57
606.665	16.61
606.859	16.51
607.053	16.47
607.246	16.41
607.44	16.26
607.634	16.2
607.827	16.26
608.021	16.13
608.214	16.06
608.408	15.97
608.602	15.92
608.795	15.91
608.989	15.89
609.182	15.85
609.376	15.88
609.569	15.82
609.763	15.66
609.956	15.6
610.15	15.53
610.343	15.5
610.537	15.47
610.73	15.38
610.923	15.38
611.117	15.32
611.31	15.14
611.504	15.06
611.697	15.11
611.89	14.95
612.083	14.85
612.277	14.81
612.47	14.68
612.663	14.58
612.856	14.56
613.05	14.49
613.243	14.47
613.436	14.41
613.629	14.3
613.822	14.26
614.015	14.22
614.209	14.12
614.402	14.14
614.595	14.16
614.788	14.1
614.981	14.1
615.174	14.03
615.367	13.93
615.56	13.81
615.753	13.8
615.946	13.73
616.139	13.69
616.332	13.62
616.525	13.63
616.718	13.53
616.911	13.51
617.103	13.54
617.296	13.55
617.489	13.48
617.682	13.49
617.875	13.41
618.067	13.36
618.26	13.33
618.453	13.22
618.646	13.05
618.838	12.96
619.031	12.77
619.224	12.74
619.417	12.86
619.609	12.86
619.802	12.9
619.994	12.88
620.187	12.82
620.38	12.72
620.572	12.73
620.765	12.67
620.957	12.81
621.15	12.79
621.342	12.79
621.535	12.72
621.727	12.65
621.92	12.48
622.112	12.41
622.305	12.37
622.497	12.37
622.69	12.36
622.882	12.43
623.074	12.43
623.267	12.39
623.459	12.38
623.651	12.38
623.844	12.36
624.036	12.32
624.228	12.33
624.42	12.26
624.613	12.33
624.805	12.36
624.997	12.38
625.189	12.29
625.381	12.29
625.574	12.2
625.766	12.08
625.958	12.05
626.15	12.08
626.342	12.13
626.534	12.14
626.726	12.19
626.918	12.18
627.11	12.13
627.302	11.99
627.494	11.88
627.686	11.77
627.878	11.63
628.07	11.61
628.262	11.64
628.454	11.66
628.646	11.57
628.838	11.6
629.029	11.57
629.221	11.54
629.413	11.44
629.605	11.4
629.797	11.36
629.989	11.37
630.18	11.36
630.372	11.3
630.564	11.33
630.755	11.31
630.947	11.2
631.139	11.19
631.33	11.16
631.522	11.16
631.714	11.16
631.905	11.18
632.097	11.1
632.289	11.23
632.48	11.16
632.672	11.15
632.863	11.12
633.055	11.12
633.246	11.05
633.438	11.03
633.629	10.99
633.821	10.99
634.012	10.93
634.203	10.88
634.395	10.92
634.586	10.88
634.777	10.9
634.969	10.87
635.16	10.93
635.351	10.92
635.543	10.95
635.734	10.91
635.925	10.97
636.117	10.89
636.308	10.85
636.499	10.84
636.69	10.86
636.881	10.82
637.073	10.75
637.264	10.71
637.455	10.65
637.646	10.59
637.837	10.65
638.028	10.7
638.219	10.79
638.41	10.75
638.601	10.68
638.792	10.58
638.983	10.54
639.174	10.49
639.365	10.49
639.556	10.61
639.747	10.62
639.938	10.68
640.129	10.55
640.32	10.54
640.511	10.42
640.701	10.37
640.892	10.32
641.083	10.32
641.274	10.31
641.465	10.36
641.655	10.34
641.846	10.28
642.037	10.33
642.228	10.21
642.418	10.06
642.609	9.99
642.8	9.99
642.99	9.95
643.181	9.94
643.372	10.02
643.562	10.03
643.753	9.98
643.943	9.93
644.134	10.01
644.324	9.93
644.515	9.98
644.705	9.95
644.896	9.94
645.086	9.9
645.277	9.9
645.467	9.82
645.658	9.82
645.848	9.83
646.038	9.8
646.229	9.83
646.419	9.82
646.61	9.78
646.8	9.83
646.99	9.77
647.18	9.74
647.371	9.72
647.561	9.76
647.751	9.74
647.941	9.8
648.132	9.87
648.322	9.86
648.512	9.82
648.702	9.79
648.892	9.67
649.082	9.61
649.272	9.61
649.462	9.62
649.653	9.6
649.843	9.71
650.033	9.63
650.223	9.51
650.413	9.53
650.603	9.51
650.793	9.44
650.983	9.47
651.172	9.45
651.362	9.33
651.552	9.29
651.742	9.26
651.932	9.12
652.122	9.19
652.312	9.16
652.502	9.1
652.691	9.05
652.881	9.14
653.071	9
653.261	8.99
653.45	8.9
653.64	8.74
653.83	8.63
654.019	8.63
654.209	8.48
654.399	8.46
654.588	8.48
654.778	8.41
654.968	8.26
655.157	8.27
655.347	8.13
655.536	8.03
655.726	7.87
655.915	7.76
656.105	7.55
656.294	7.53
656.484	7.44
656.673	7.46
656.863	7.42
657.052	7.42
657.241	7.38
657.431	7.2
657.62	7.05
657.809	6.99
657.999	6.91
658.188	6.77
658.377	6.75
658.567	6.63
658.756	6.48
658.945	6.38
659.134	6.26
659.324	6.17
659.513	6.11
659.702	6.04
659.891	5.98
660.08	5.79
660.269	5.65
660.458	5.55
660.648	5.45
660.837	5.31
661.026	5.24
661.215	5.2
661.404	5.11
661.593	5.01
661.782	4.92
661.971	4.86
662.16	4.76
662.349	4.58
662.538	4.52
662.726	4.49
662.915	4.48
663.104	4.4
663.293	4.47
663.482	4.48
663.671	4.36
663.86	4.22
664.048	4.23
664.237	4.11
664.426	4.06
664.615	3.98
664.803	3.9
664.992	3.8
665.181	3.77
665.369	3.66
665.558	3.61
665.747	3.62
665.935	3.58
666.124	3.58
666.312	3.49
666.501	3.58
666.69	3.59
666.878	3.64
667.067	3.57
667.255	3.71
667.444	3.6
667.632	3.61
667.82	3.49
668.009	3.55
668.197	3.56
668.386	3.63
668.574	3.63
668.762	3.65
668.951	3.65
669.139	3.64
669.327	3.58
669.516	3.54
669.704	3.59
669.892	3.67
670.08	3.55
670.269	3.61
670.457	3.65
670.645	3.67
670.833	3.48
671.021	3.51
671.21	3.44
671.398	3.41
671.586	3.35
671.774	3.45
671.962	3.52
672.15	3.61
672.338	3.72
672.526	3.88
672.714	3.97
672.902	4.01
673.09	4.01
673.278	3.87
673.466	3.76
673.654	3.76
673.842	3.84
674.03	3.85
674.218	4.05
674.405	4.22
674.593	4.19
674.781	4.24
674.969	4.31
675.157	4.27
675.344	4.22
675.532	4.2
675.72	4.17
675.908	4.15
676.095	4.23
676.283	4.15
676.471	4.18
676.658	4.27
676.846	4.45
677.033	4.45
677.221	4.67
677.409	4.74
677.596	4.77
677.784	4.68
677.971	4.86
678.159	4.84
678.346	4.93
678.534	4.92
678.721	4.95
678.909	4.82
679.096	4.81
679.283	4.84
679.471	4.88
679.658	5.07
679.846	5.15
680.033	5.28
680.22	5.35
680.408	5.42
680.595	5.31
680.782	5.41
680.969	5.46
681.157	5.54
681.344	5.54
681.531	5.61
681.718	5.66
681.905	5.7
682.093	5.72
682.28	5.78
682.467	5.97
682.654	5.95
682.841	6.09
683.028	6.21
683.215	6.43
683.402	6.49
683.589	6.79
683.776	6.84
683.963	7.02
684.15	6.91
684.337	7.04
684.524	7.02
684.711	6.98
684.898	7.12
685.085	7.45
685.271	7.53
685.458	7.63
685.645	7.97
685.832	8.04
686.019	8.3
686.205	8.56
686.392	8.76
686.579	8.88
686.766	9.03
686.952	9.07
687.139	9.29
687.326	9.57
687.512	9.78
687.699	9.93
687.886	10.2
688.072	10.26
688.259	10.45
688.445	10.8
688.632	11.39
688.818	11.66
689.005	12.18
689.191	12.62
689.378	13.01
689.564	13.11
689.751	13.49
689.937	13.81
690.124	14.19
690.31	14.36
690.496	14.88
690.683	15.26
690.869	15.53
691.055	15.88
691.242	16.35
691.428	16.75
691.614	17
691.8	17.6
691.987	18
692.173	18.53
692.359	19.07
692.545	19.91
692.731	20.44
692.918	20.82
693.104	21.3
693.29	21.51
693.476	21.8
693.662	22.29
693.848	23.02
694.034	23.6
694.22	24.51
694.406	25.22
694.592	25.67
694.778	26.25
694.964	26.74
695.15	27.17
695.336	27.77
695.522	28.19
695.708	28.78
695.894	29.38
696.08	29.9
696.265	30.25
696.451	30.89
696.637	31.53
696.823	32.13
697.009	32.82
697.194	33.48
697.38	34.2
697.566	34.61
697.751	35.32
697.937	35.9
698.123	36.61
698.308	37.18
698.494	37.84
698.68	38.34
698.865	38.76
699.051	39.14
699.236	39.55
699.422	39.97
699.607	40.36
699.793	40.96
699.978	41.51
700.164	41.95
700.349	42.66
700.535	43.36
700.72	43.66
700.906	44.28
701.091	44.91
701.276	45.38
701.462	45.56
701.647	46.01
701.832	46.55
702.018	46.79
702.203	47.03
702.388	47.87
702.573	48.49
702.759	48.68
702.944	49.36
703.129	49.49
703.314	49.49
703.499	49.78
703.684	50.28
703.87	50.51
704.055	51.09
704.24	51.55
704.425	52.19
704.61	52.56
704.795	53.34
704.98	53.76
705.165	54.26
705.35	54.58
705.535	54.8
705.72	54.53
705.905	54.81
706.09	55.38
706.275	55.57
706.459	55.93
706.644	56.22
706.829	56.79
707.014	56.79
707.199	57.12
707.384	57.35
707.568	58.04
707.753	58.08
707.938	58.28
708.123	58.55
708.307	59.16
708.492	59.16
708.677	59.31
708.861	59.76
709.046	59.99
709.231	59.94
709.415	60
709.6	60.26
709.784	60.15
709.969	60.01
710.153	60.1
710.338	60.51
710.522	60.84
710.707	60.98
710.891	61.56
711.076	61.52
711.26	61.56
711.445	61.54
711.629	62.14
711.813	62.11
711.998	62.47
712.182	62.82
712.366	63.39
712.551	62.94
712.735	63.17
712.919	63.19
713.103	63.36
713.288	63.42
713.472	64
713.656	63.9
713.84	64.05
714.024	63.53
714.208	63.02
714.393	62.57
714.577	62.98
714.761	63.32
714.945	63.77
715.129	64.22
715.313	64.47
715.497	64.52
715.681	64.77
715.865	65.12
716.049	64.86
716.233	65.55
716.417	66.12
716.601	66.31
716.785	66.75
716.968	67.41
717.152	66.99
717.336	66.58
717.52	66.23
717.704	66.53
717.888	67.19
718.071	67.28
718.255	67.45
718.439	67.85
718.622	67.61
718.806	67.67
718.99	68.15
719.174	67.55
719.357	67.85
719.541	68.33
719.724	68
719.908	68.02
720.092	68.3
720.275	67.82
720.459	67.21
720.642	67.15
720.826	67.35
721.009	68.03
721.193	68.53
721.376	68.73
721.559	68.54
721.743	68.55
721.926	68.49
722.11	68.08
722.293	68.33
722.476	68.6
722.66	69.09
722.843	69.15
723.026	69.56
723.21	69.76
723.393	69.74
723.576	70.17
723.759	70.58
723.942	70.68
724.126	70.3
724.309	70.72
724.492	69.78
724.675	69.75
724.858	69.98
725.041	70.05
725.224	70.15
725.407	70.97
725.59	71.05
725.774	71.36
725.957	72.22
726.14	72.75
726.322	72.75
726.505	73.49
726.688	73.39
726.871	72.99
727.054	72.94
727.237	73.11
727.42	72.62
727.603	72.73
727.786	72.56
727.968	72.37
728.151	71.9
728.334	71.76
728.517	71.9
728.699	72.38
728.882	72.83
729.065	73.03
729.248	72.83
729.43	73.19
729.613	72.72
729.796	72.24
729.978	72.19
730.161	72.65
730.343	73
730.526	73.66
730.708	73.87
730.891	74.22
731.073	74.78
731.256	74.22
731.438	74.54
731.621	74.26
731.803	74.79
731.986	74.64
732.168	74.79
732.35	74.8
732.533	75.39
732.715	75.78
732.898	75.56
733.08	75.63
733.262	75.81
733.444	75.66
733.627	74.96
733.809	74.91
733.991	75.23
734.173	74.74
734.355	75.29
734.538	75.52
734.72	76.15
734.902	76.54
735.084	77.15
735.266	77.34
735.448	77.74
735.63	78.12
735.812	78.16
735.994	77.41
736.176	76.99
736.358	76.89
736.54	76.83
736.722	76.56
736.904	78.29
737.086	78.81
737.268	79.25
737.45	79.47
737.632	80.47
737.814	79.64
737.995	79.7
738.177	79.53
738.359	79.24
738.541	78.4
738.723	79.18
738.904	79.26
739.086	78.74
739.268	78.77
739.449	79.51
739.631	79.92
739.813	80.53
739.994	81.91
740.176	82.14
740.358	81.38
740.539	80.51
740.721	79.63
740.902	79.36
741.084	78.84
741.265	79.51
741.447	79.94
741.628	80.31
741.81	80.49
741.991	80.73
742.172	80.29
742.354	79.68
742.535	79.97
742.717	79.43
742.898	79.09
743.079	79.5
743.261	79.5
743.442	80.35
743.623	79.82
743.804	80.98
743.986	81
744.167	81.29
744.348	80.62
744.529	81.21
744.71	81.45
744.891	80.64
745.073	80.28
745.254	80.38
745.435	80.78
745.616	79.99
745.797	80.2
745.978	80.79
746.159	80.07
746.34	79.85
746.521	79.87
746.702	80.24
746.883	80.26
747.064	80.85
747.245	81.19
747.426	80.65
747.606	81.12
747.787	80.57
747.968	81.01
748.149	81.19
748.33	82.13
748.51	81.48
748.691	82.45
748.872	82.04
749.053	80.29
749.233	80.71
749.414	82.16
749.595	82.7
749.775	83.17
749.956	84.4
750.137	83.58
750.317	82.93
750.498	82.51
750.678	82.35
750.859	83.44
751.04	84.31
751.22	83.7
751.4	83.67
751.581	83.93
751.761	83.15
751.942	83.09
752.122	84.4
752.303	84.68
752.483	84.04
752.663	83.37
752.844	83.3
753.024	83.17
753.204	83
753.385	83.52
753.565	84.12
753.745	84.2
753.925	83.19
754.106	83.76
754.286	83.24
754.466	82.75
754.646	82.77
754.826	83.28
755.006	83.01
755.187	83.08
755.367	83.06
755.547	83.5
755.727	83.01
755.907	82.66
756.087	82.14
756.267	83.08
756.447	81.68
756.627	82.68
756.807	82.13
756.987	82
757.167	82.84
757.346	83.31
757.526	82.4
757.706	83.07
757.886	84.63
758.066	82.5
758.246	82.95
758.425	82.54
758.605	81.26
758.785	81.18
758.965	82.29
759.144	80.79
759.324	80.08
759.504	81.33
759.683	80.52
759.863	80.29
760.043	81.05
760.222	82.88
760.402	83.12
760.581	83.9
760.761	84.29
760.94	84.6
761.12	84.08
761.299	83.05
761.479	82.6
761.658	82.65
761.838	84.11
762.017	83.08
762.197	83.8
762.376	84.13
762.555	83.91
762.735	82.69
762.914	81.91
763.093	82.01
763.273	81.77
763.452	80.09
763.631	80.28
763.81	82.44
763.99	81.56
764.169	82.74
764.348	83.89
764.527	82.56
764.706	81.84
764.885	81.45
765.064	80.2
765.243	80.54
765.423	81.6
765.602	81.93
765.781	81.31
765.96	82.66
766.139	81.26
766.318	81
766.497	80.42
766.676	80.49
766.854	77.08
767.033	78.53
767.212	80.09
767.391	79.46
767.57	81.05
767.749	81.96
767.928	83.02
768.106	81.44
768.285	82.05
768.464	82.01
768.643	81.38
768.821	79.93
769	80.65
769.179	80.86
769.357	80.59
769.536	82.13
769.715	80.95
769.893	78.67
770.072	78.9
770.25	79.83
770.429	78.48
770.607	80.18
770.786	81.94
770.964	81.11
771.143	80.34
771.321	80.78
771.5	80.23
771.678	79.85
771.857	80
772.035	78.86
772.213	78.56
772.392	77.26
772.57	76.42
772.748	77.12
772.927	77.68
773.105	79.47
773.283	80
773.461	80.82
773.64	80.81
773.818	80.56
773.996	79.96
774.174	79.37
774.352	79.22
774.531	78.93
774.709	78.01
774.887	76.41
775.065	77.6
775.243	76.74
775.421	76.65
775.599	76.92
775.777	78.03
775.955	77.76
776.133	78.8
776.311	77.74
776.489	76.13
776.667	74.46
776.844	73.8
777.022	72.77
777.2	74.18
777.378	75.9
777.556	76.04
777.734	76.5
777.911	77.21
778.089	76.61
778.267	76.64
778.445	76.41
778.622	76.39
778.8	76.44
778.978	75.73
779.155	75.8
779.333	76.84
779.511	78.34
779.688	77.01
779.866	78.46
780.043	78.3
780.221	77.63
780.398	75.82
780.576	78.12
780.753	75.13
780.931	75.98
781.108	76.6
781.286	75.66
781.463	73.72
781.64	74.16
781.818	72.14
781.995	72.83
782.172	73.96
782.35	73.56
782.527	72.38
782.704	74.88
782.882	75.14
783.059	75.77
783.236	76.48
783.413	77.04
783.59	78.17
783.768	79.8
783.945	76.43
784.122	76.72
784.299	76.91
784.476	74.92
784.653	74.06
784.83	77.2
785.007	76.28
785.184	79.58
785.361	78.94
785.538	75.88
785.715	76.01
785.892	77.7
786.069	74.79
786.246	73.83
786.423	73.52
786.6	75.98
786.776	73.44
786.953	71.69
787.13	71.23
787.307	73.67
787.484	68.47
787.66	69.04
787.837	73.35
788.014	74.57
788.191	73.53
788.367	76.71
788.544	76.95
788.721	76.02
788.897	77.5
789.074	75.48
789.25	75.35
789.427	74.65
789.603	73.3
789.78	72.03
789.956	72.69
790.133	72.05
790.309	70.63
790.486	69.87
790.662	67.94
790.839	68.19
791.015	69.39
791.192	72.24
791.368	72.99
791.544	75.71
791.721	74.52
791.897	74.54
792.073	75.01
792.249	74.18
792.426	70.44
792.602	71.33
792.778	69.26
792.954	68.36
793.13	68.27
793.307	69.54
793.483	70.82
793.659	72.22
793.835	70.42
794.011	74
794.187	73.35
794.363	74.45
794.539	74.22
794.715	75.67
794.891	72.41
795.067	73.05
795.243	70.15
795.419	70.24
795.595	71.27
795.771	74.62
795.947	74.19
796.122	75.57
796.298	72.32
796.474	73.31
796.65	69.74
796.826	73.82
797.001	74.82
797.177	76.2
797.353	74.42
797.529	74.61
797.704	75.55
797.88	73.4
798.056	74.56
798.231	75.9
798.407	78.04
798.582	73.19
798.758	74.11
798.934	70.77
799.109	68.12
799.285	67.8
799.46	68.26
799.636	69.03
799.811	69.77
799.986	68.31
800.162	63.83
800.337	64.19
800.513	65.63
800.688	64.59
800.863	68.08
801.039	71.77
801.214	73.97
801.389	75.83
801.565	79.26
801.74	81.25
801.915	79.31
802.09	76.21
802.265	72.26
802.441	65.9
802.616	60.3
802.791	63.96
802.966	64.73
803.141	66.08
803.316	69.61
803.491	76.1
803.666	75.19
803.841	73.62
804.016	73.28
804.191	74.18
804.366	73.05
804.541	75.01
804.716	76.38
804.891	77.34
805.066	76.02
805.241	70.47
805.416	65.58
805.591	68.44
805.765	64.76
805.94	64.06
806.115	64.21
806.29	69.83
806.464	64.68
806.639	68.43
806.814	71.05
806.989	75.93
807.163	73.74
807.338	79.2
807.512	76.29
807.687	74.19
807.862	73.16
808.036	68.81
808.211	70.4
808.385	65.97
808.56	64.58
808.734	60.71
808.909	56.96
809.083	55.89
809.258	62.09
809.432	61.45
809.606	64.18
809.781	69.8
809.955	61.34
810.13	56.8
810.304	59.46
810.478	64.96
810.652	62.63
810.827	69.71
811.001	73.31
811.175	71.03
811.349	64.81
811.524	67.23
811.698	64.61
811.872	60.64
812.046	66.14
812.22	68.25
812.394	67.81
812.568	68.44
812.742	66.73
812.916	63.45
813.09	69.49
813.264	69.68
813.438	70.51
813.612	72.67
813.786	75.25
813.96	65.19
814.134	57.98
814.308	58.22
814.482	62.2
814.656	60.1
814.83	63.12
815.003	67.88
815.177	60.65
815.351	57.39
815.525	59.67
815.698	57.22
815.872	68.48
816.046	76.67
816.219	89.58
816.393	90.37
816.567	84.94
816.74	82.52
816.914	90.31
817.088	86.53
817.261	82.7
817.435	85.71
817.608	83.43
817.782	79.48
817.955	78.7
818.129	81.54
818.302	81.19
818.475	74.06
818.649	57.41
818.822	48.8
818.996	45.97
819.169	50.79
819.342	49.44
819.516	57.25
819.689	51.83
819.862	51.28
820.035	44.63
820.209	44.58
820.382	51.29
820.555	53.34
820.728	46.34
820.901	57.25
821.075	64.57
821.248	65.72
821.421	74.53
821.594	72.47
821.767	60.72
821.94	54.38
822.113	51.58
822.286	39.95
822.459	50.85
822.632	60.07
822.805	67.18
822.978	70.4
823.151	78.01
823.324	64.77
823.496	69.86
823.669	61.77
823.842	55.7
824.015	51.79
824.188	73.06
824.361	58.99
824.533	65.85
824.706	62.63
824.879	55.14
825.051	47.65
825.224	56.37
825.397	55.17
825.569	63.84
825.742	69.65
825.915	74.58
826.087	57.69
826.26	56.34
826.432	52.09
826.605	49.21
826.777	50.67
826.95	52.22
827.122	59.81
827.295	55.32
827.467	59.96
827.64	59.21
827.812	60.21
827.984	56.49
828.157	58.28
828.329	62.4
828.501	69.55
828.674	74.59
828.846	72.26
829.018	63.42
829.19	62.78
829.363	56.75
829.535	46.98
829.707	42.59
829.879	50.5
830.051	44.41
830.223	50.05
830.395	53.35
830.568	70.84
830.74	73.79
830.912	73.11
831.084	45.04
831.256	54.02
831.428	51.98
831.6	52.28
831.772	61.78
831.943	68.78
832.115	70.61
832.287	67.89
832.459	69.44
832.631	68.29
832.803	80.24
832.975	78.56
833.146	83.19
833.318	84.9
833.49	80.01
833.662	74.86
833.833	73.43
834.005	68.18
834.177	56.57
834.348	51.77
834.52	47.73
834.692	46.73
834.863	50.04
835.035	59.14
835.206	59.67
835.378	54.26
835.549	51.05
835.721	50.46
835.892	41.62
836.064	41.6
836.235	51.33
836.407	53.63
836.578	52.64
836.749	58.37
836.921	64.56
837.092	70.32
837.264	72.35
837.435	75.03
837.606	71.48
837.777	62.38
837.949	55.17
838.12	53.43
838.291	50.58
838.462	58.27
838.633	75.75
838.805	64.37
838.976	61.89
839.147	56.78
839.318	49.87
839.489	41.79
839.66	48.77
839.831	31.58
840.002	48.5
840.173	61.62
840.344	55.44
840.515	70.47
840.686	92.7
840.857	76.55
841.028	60.46
841.199	57.55
841.369	50.93
841.54	50.15
841.711	52.71
841.882	53.98
842.053	58.17
842.223	56.41
842.394	65.45
842.565	71.83
842.736	64.17
842.906	75.44
843.077	69.82
843.248	54.14
843.418	50.65
843.589	44.7
843.759	35.53
843.93	27.76
844.101	20.48
844.271	25.76
844.442	26.48
844.612	12.72
844.783	23.85
844.953	39.84
845.123	28.3
845.294	51.52
845.464	58.84
845.635	62.18
845.805	56.43
845.975	58.3
846.146	58.93
846.316	66.52
846.486	59.42
846.656	67.68
846.827	76.24
846.997	70.97
847.167	73.41
847.337	72.89
847.507	68.53
847.677	67.14
847.848	59.57
848.018	59.56
848.188	52.65
848.358	56.85
848.528	52.51
848.698	54.19
848.868	55.13
849.038	63.32
849.208	61.97
849.378	51.22
849.548	50.88
849.718	40.69
849.887	41.75
850.057	33.49
850.227	39.73
850.397	47.61
850.567	59.57
850.737	46.88
850.906	54.8
851.076	60.35
851.246	58.26
851.415	74.4
851.585	66.21
851.755	56.97
851.924	59.4
852.094	56.75
852.264	45.49
852.433	47.49
852.603	39.7
852.772	46.54
852.942	47.29
853.111	43.88
853.281	54.43
853.45	69.1
853.62	46.34
853.789	56.85
853.959	49.42
854.128	59.96
854.297	64.12
854.467	82.6
854.636	64.61
854.805	72.29
854.975	76.71
855.144	78.06
855.313	53.58
855.482	69.27
855.652	70.62
855.821	85.15
855.99	66.89
856.159	92.16
856.328	100.62
856.497	90.05
856.667	69.63
856.836	69.44
857.005	45.34
857.174	58.02
857.343	62.55
857.512	53.69
857.681	56.08
857.85	54.47
858.019	30.08
858.188	29.08
858.356	37.78
858.525	45.34
858.694	47.09
858.863	51.39
859.032	47.79
859.201	42.97
859.369	24.87
859.538	22.95
859.707	25.49
859.876	27.78
860.044	35.6
860.213	34.68
860.382	38.84
860.55	26.96
860.719	35.41
860.888	34.19
861.056	29.05
861.225	26.55
861.393	31.89
861.562	31.11
861.73	44.13
861.899	66.68
862.067	54.11
862.236	56.83
862.404	49.54
862.572	30.03
862.741	38.78
862.909	59.88
863.078	52.16
863.246	48.47
863.414	38.71
863.582	22.03
863.751	39.11
863.919	48.36
864.087	40.9
864.255	56.26
864.424	76.96
864.592	54.5
864.76	63.84
864.928	81.06
865.096	78.69
865.264	63.05
865.432	64.5
865.6	29.46
865.768	34.87
865.936	50.47
866.104	50.17
866.272	61.37
866.44	90.24
866.608	84
866.776	58.14
866.944	66.97
867.112	65.8
867.28	72.64
867.448	51.34
867.615	59.96
867.783	50.6
867.951	32.95
868.119	7.87
868.286	33.86
868.454	31.77
868.622	33.19
868.789	40.11
868.957	52.57
869.125	68.22
869.292	61.24
869.46	45.6
869.627	60
869.795	56.87
869.963	61
870.13	67.44
870.298	71.43
870.465	52.29
870.632	63.42
870.8	57.33
870.967	49.06
871.135	72
871.302	107.56
871.469	29.56
871.637	-5.56
871.804	44.79
871.971	58.07
872.139	69.83
872.306	63.3
872.473	76.07
872.64	52
872.807	44.28
872.975	33.15
873.142	52.53
873.309	41.53
873.476	41.25
873.643	22.43
873.81	23.4
873.977	5.18
874.144	17.82
874.311	19.37
874.478	25.65
874.645	12.85
874.812	5.23
874.979	9.6
875.146	6.7
875.313	-5.43
875.48	13.17
875.647	29.88
875.813	24.66
875.98	24.99
876.147	38.23
876.314	21.97
876.481	-3.93
876.647	-12.75
876.814	-2.38
876.981	20.83
877.147	33.64
877.314	48.53
877.481	44.26
877.647	57.01
877.814	58.59
877.98	71.32
878.147	73.78
878.314	75.14
878.48	60.88
878.647	42.73
878.813	24.41
878.979	4.5
879.146	14.03
879.312	32.66
879.479	51.69
879.645	49.52
879.811	83.33
879.978	77.53
880.144	-7.54
880.31	-41.18
880.477	23.33
880.643	66.34
880.809	-35.98
880.975	-10.88
881.142	-10.54
881.308	-33.51
881.474	-33.01
881.64	22.72
881.806	66.86
881.972	47.27
882.138	47.97
882.304	28.63
882.47	52.62
882.636	-38.23
882.802	-24.65
882.968	-6.85
883.134	9.82
883.3	-2.33
883.466	17.85
883.632	11.17
883.798	22.03
883.964	30.13
884.129	11.87
884.295	16.53
884.461	31.76
884.627	40.82
884.793	27.86
884.958	45.35
885.124	49.81
885.29	53.38
885.455	31.23
885.621	35.79
885.787	37.84
885.952	16.81
886.118	17.7
886.283	42.93
886.449	56.44
886.614	48.63
886.78	58.15
886.945	46.18
887.111	54.8
887.276	6.95
887.442	19.99
887.607	30.62
887.773	61.68
887.938	31.63
888.103	23.14
888.269	24.86
888.434	14.74
888.599	-1.02
888.764	9.51
888.93	40.79
889.095	45.44
889.26	84.58
889.425	107.1
889.59	94.33
889.756	79.78
889.921	86.82
890.086	1.52
890.251	-10.72
890.416	1.01
890.581	-89.42
890.746	24.22
890.911	55.91
891.076	98.16
891.241	101.89
891.406	78.01
891.571	51.66
891.736	43.81
891.901	40.78
892.065	34.94
892.23	10.14
892.395	28.55
892.56	36.86
892.725	7.92
892.889	8.69
893.054	53.26
893.219	70.25
893.384	82.83
893.548	104.46
893.713	152.78
893.878	124.7
