Data from Ofav_PP_Phys_0DW41_Reflection_3.txt Node
Date: Tue Aug 03 18:03:51 EDT 2021
User: Adam
Spectrometer: FLMT01687
Trigger mode: 0
Integration Time (sec): 8.750000E-1
Scans to average: 2
Electric dark correction enabled: true
Nonlinearity correction enabled: false
Boxcar width: 2
XAxis mode: Wavelengths
Number of Pixels in Spectrum: 3648
>>>>>Begin Spectral Data<<<<<
179.494	11.83
179.716	-57.95
179.937	-231.87
180.158	1057.58
180.38	267.79
180.601	831.43
180.823	-153.73
181.044	56.52
181.265	47.83
181.486	-44.83
181.708	105.02
181.929	109.39
182.15	90.65
182.372	-52.8
182.593	716
182.814	183.27
183.035	100.78
183.257	13.77
183.478	11.17
183.699	-6.03
183.92	-32.7
184.141	-31.86
184.363	-37.94
184.584	-93.99
184.805	-50.67
185.026	-52.06
185.247	-30.04
185.468	-11.32
185.689	5.79
185.91	15.83
186.132	26.88
186.353	36.48
186.574	15.37
186.795	42.67
187.016	9.87
187.237	16.11
187.458	2.06
187.679	10.39
187.9	8.64
188.121	38.56
188.342	47.76
188.563	42.52
188.784	44.79
189.005	32.8
189.226	15.71
189.447	-7.66
189.667	-22.4
189.888	-46.92
190.109	-50.06
190.33	-66.89
190.551	-66.49
190.772	-31.22
190.993	-32.99
191.214	15.19
191.434	17.94
191.655	12.99
191.876	-1.23
192.097	-2.55
192.318	-19.33
192.538	-18.98
192.759	-42.73
192.98	-30.67
193.201	-52.68
193.421	-36.31
193.642	-51.57
193.863	-8.49
194.083	-2.17
194.304	25.65
194.525	16.88
194.745	41.37
194.966	13.58
195.187	15.16
195.407	18.61
195.628	13.46
195.848	-16.64
196.069	-1.1
196.29	-8.01
196.51	-47.35
196.731	-32.6
196.951	-18.31
197.172	0.61
197.392	-4.43
197.613	18.15
197.833	22.87
198.054	31.67
198.274	16.77
198.495	26.46
198.715	24.56
198.936	16.36
199.156	2.95
199.377	-3.81
199.597	-6.12
199.817	3.79
200.038	3.28
200.258	-23.12
200.479	-72.01
200.699	-67.86
200.919	-224.11
201.14	-98.66
201.36	-46.32
201.58	-29.75
201.801	-25.5
202.021	-19.71
202.241	-31.73
202.461	-13.62
202.682	-1.6
202.902	-26.16
203.122	0.35
203.342	16.23
203.563	6.77
203.783	6.16
204.003	26.6
204.223	26.5
204.443	8.03
204.663	6.77
204.884	21.26
205.104	15.86
205.324	20.12
205.544	4.85
205.764	9.75
205.984	8.94
206.204	18.65
206.424	11.52
206.644	50.07
206.864	32.78
207.084	29.73
207.304	32.51
207.525	19.57
207.745	3.5
207.964	-5.85
208.184	-13.64
208.404	-12.75
208.624	-4.47
208.844	4.14
209.064	13.49
209.284	19.76
209.504	19.55
209.724	8.34
209.944	4
210.164	-45.5
210.384	-6.71
210.604	-1.54
210.823	-16.33
211.043	0.12
211.263	33.48
211.483	29.15
211.703	62.83
211.922	55.65
212.142	46.93
212.362	27.88
212.582	46.94
212.801	16.11
213.021	17.17
213.241	-4.68
213.461	11.04
213.68	-12.3
213.9	-26.64
214.12	-33.25
214.339	-1.78
214.559	9.04
214.779	-7
214.998	49.05
215.218	56.05
215.438	40.15
215.657	34.49
215.877	46.56
216.096	32.53
216.316	19.81
216.535	4
216.755	-14.17
216.974	-10.22
217.194	8.76
217.413	23.58
217.633	34.62
217.852	34.44
218.072	34.98
218.291	20.39
218.511	21.72
218.73	7.81
218.95	12.22
219.169	-1.34
219.389	-1.48
219.608	-22.55
219.827	23.9
220.047	-20.61
220.266	-21.23
220.485	0.62
220.705	12.13
220.924	-11.63
221.143	9.38
221.363	18.13
221.582	9.9
221.801	-5.13
222.021	13.31
222.24	4.82
222.459	-17.9
222.678	-13.49
222.897	-4.82
223.117	-46.74
223.336	-136.02
223.555	-49.89
223.774	-22.51
223.993	-20.73
224.213	-22.32
224.432	-6.12
224.651	2.09
224.87	4.69
225.089	6.61
225.308	2.78
225.527	-1.84
225.746	-23.89
225.965	-22.88
226.184	-29.23
226.404	-2.83
226.623	6.23
226.842	15.28
227.061	0.5
227.28	5.54
227.499	16.59
227.718	5.83
227.936	3.38
228.155	28.96
228.374	33.92
228.593	27.16
228.812	9.58
229.031	10.55
229.25	-11.42
229.469	-51.58
229.688	-65.65
229.907	-57.64
230.125	-38.51
230.344	-29.12
230.563	-2.22
230.782	5.48
231.001	29.18
231.22	22.08
231.438	18.44
231.657	17.09
231.876	26.27
232.095	22.74
232.313	18.88
232.532	-8.54
232.751	4.58
232.969	-11.11
233.188	-16.41
233.407	-17.91
233.625	16.01
233.844	-4.73
234.063	1.59
234.281	-0.1
234.5	3.89
234.719	-19.88
234.937	7.45
235.156	9.49
235.374	13.23
235.593	11.56
235.811	4.25
236.03	-5.44
236.249	7.49
236.467	18.09
236.686	21.6
236.904	15.95
237.123	22.76
237.341	18.23
237.559	9.05
237.778	16.31
237.996	21.16
238.215	10.7
238.433	3.15
238.652	6.67
238.87	3.53
239.088	20.19
239.307	36.29
239.525	44.15
239.743	49.81
239.962	52.91
240.18	42.08
240.398	36.02
240.617	23.63
240.835	8.35
241.053	-10.29
241.271	-22.7
241.49	-29.34
241.708	-21.27
241.926	-12.75
242.144	-0.41
242.363	1.96
242.581	2.17
242.799	0.71
243.017	15.77
243.235	21.28
243.453	16.37
243.672	26.01
243.89	27.19
244.108	15.13
244.326	1.94
244.544	8.54
244.762	12.15
244.98	7.07
245.198	29.92
245.416	23.03
245.634	29.14
245.852	8.7
246.07	9.05
246.288	-9.96
246.506	3.44
246.724	-9.58
246.942	0.56
247.16	3.8
247.378	-0.39
247.596	-3.09
247.814	0.65
248.032	3.47
248.25	0.52
248.468	-0.07
248.685	6.79
248.903	4.94
249.121	6.9
249.339	7.46
249.557	25.02
249.775	20.12
249.992	23.76
250.21	1.49
250.428	1.32
250.646	-11.23
250.863	-19.17
251.081	-50.07
251.299	-13.46
251.517	3.14
251.734	-15.41
251.952	-24.63
252.17	-24.75
252.387	-75.81
252.605	-77.82
252.823	-74.57
253.04	-76.85
253.258	-15.76
253.475	7.71
253.693	6.96
253.911	18.96
254.128	23.77
254.346	23.32
254.563	14.08
254.781	22.23
254.998	3.44
255.216	7.29
255.433	-12.51
255.651	-6.7
255.868	-22.11
256.086	4.26
256.303	20.77
256.521	44.66
256.738	34.38
256.956	37.78
257.173	27.68
257.39	22.1
257.608	8.28
257.825	7.84
258.043	-17.01
258.26	-11.06
258.477	2.6
258.695	-10.74
258.912	-20.1
259.129	1.23
259.346	-2.8
259.564	-6.52
259.781	3.63
259.998	17.97
260.216	17.11
260.433	20.46
260.65	20.72
260.867	20.97
261.084	19.23
261.302	5.08
261.519	10.16
261.736	2.37
261.953	13.51
262.17	-2.18
262.387	9.46
262.604	5.72
262.822	10.31
263.039	14.11
263.256	19.17
263.473	8.47
263.69	7.46
263.907	-5.55
264.124	-11.76
264.341	-10.17
264.558	-45.18
264.775	-19.44
264.992	-15.86
265.209	-24.18
265.426	-29.13
265.643	-3.7
265.86	-13.25
266.077	0.95
266.294	8.6
266.51	15.86
266.727	21.32
266.944	28.03
267.161	28.89
267.378	28.45
267.595	18.69
267.812	16.83
268.028	19.53
268.245	19.86
268.462	29.87
268.679	38.82
268.896	36.92
269.112	39.6
269.329	42.59
269.546	13.53
269.763	28.23
269.979	12.52
270.196	-4.16
270.413	7.09
270.629	16.76
270.846	25.74
271.063	39.7
271.279	38.46
271.496	33
271.712	25.62
271.929	21.76
272.146	25.06
272.362	22.64
272.579	30.88
272.795	39.1
273.012	30.06
273.228	39.01
273.445	23.21
273.661	7.67
273.878	-6.65
274.094	-5.52
274.311	-34.01
274.527	-24.51
274.744	-26.45
274.96	-9.76
275.177	-31.64
275.393	-18.89
275.609	-6.81
275.826	-8.01
276.042	-14.04
276.259	-5.62
276.475	-26.6
276.691	-32.92
276.908	-17.66
277.124	-14.09
277.34	-12.15
277.557	-12.8
277.773	-6.33
277.989	-5.57
278.205	-5.65
278.422	-10.13
278.638	10.1
278.854	13.78
279.07	8.77
279.286	15.1
279.503	24.04
279.719	19.7
279.935	14.34
280.151	11.35
280.367	0.67
280.583	-22.18
280.799	-16.87
281.016	-28.55
281.232	-37.84
281.448	-30.45
281.664	-26.65
281.88	-21.78
282.096	-8.28
282.312	-7.48
282.528	-7.01
282.744	6.22
282.96	-0.51
283.176	1.96
283.392	12.01
283.608	7.23
283.824	2.53
284.04	17.16
284.256	18.46
284.471	9.74
284.687	12.88
284.903	12.51
285.119	-2.89
285.335	-12.13
285.551	3.06
285.767	5.59
285.982	-2.12
286.198	3.34
286.414	10.22
286.63	-1.41
286.846	4.25
287.061	11.11
287.277	3.11
287.493	-4.65
287.709	-13.23
287.924	-28.44
288.14	-18.85
288.356	-11.89
288.571	-11.06
288.787	3.33
289.003	9
289.218	-1.84
289.434	-6.69
289.65	8.39
289.865	19.97
290.081	7.66
290.296	11.28
290.512	12.27
290.727	-5.06
290.943	-4.14
291.159	10.68
291.374	-5.17
291.59	7.92
291.805	24.69
292.021	26.85
292.236	31.85
292.451	39.26
292.667	33.61
292.882	15.06
293.098	-1.96
293.313	12.12
293.529	17.83
293.744	2.75
293.959	22.86
294.175	21.95
294.39	11.11
294.605	1.64
294.821	15.73
295.036	8.15
295.251	11.1
295.467	9.28
295.682	25.36
295.897	19.67
296.112	27.19
296.328	29.59
296.543	42.77
296.758	42.31
296.973	44.94
297.188	42.47
297.404	45.74
297.619	35.04
297.834	31.91
298.049	21.85
298.264	18.65
298.479	5.07
298.694	-3.48
298.909	-2.99
299.125	-0.5
299.34	-7.17
299.555	4.52
299.77	-2.62
299.985	8.48
300.2	29.39
300.415	16.42
300.63	18.9
300.845	22.19
301.06	17.88
301.275	-4.93
301.49	10.59
301.704	4.59
301.919	15.47
302.134	14.48
302.349	19.58
302.564	31.25
302.779	32.57
302.994	22.12
303.209	5.18
303.423	-6.05
303.638	-5.08
303.853	-5.28
304.068	1.64
304.283	19.72
304.497	32.34
304.712	23.44
304.927	28.35
305.142	34.51
305.356	27.62
305.571	18.63
305.786	36.11
306	35.09
306.215	25.27
306.43	31.22
306.644	38.12
306.859	37.07
307.074	18.34
307.288	24.69
307.503	27.77
307.717	12.89
307.932	0.29
308.147	6.36
308.361	-3.18
308.576	-3.27
308.79	22.89
309.005	32.32
309.219	25.82
309.434	17.75
309.648	14.36
309.863	-22.82
310.077	-46.32
310.292	-20.98
310.506	-18.08
310.72	-4.2
310.935	8.44
311.149	13.08
311.364	-0.26
311.578	17.55
311.792	13.63
312.007	2.96
312.221	6.4
312.435	10.81
312.649	17.4
312.864	30.76
313.078	40.48
313.292	26.49
313.507	31.78
313.721	24.38
313.935	-1.38
314.149	-4.89
314.363	12.22
314.578	-1.46
314.792	-2.8
315.006	-7.88
315.22	-12.4
315.434	-13.14
315.648	-29.42
315.862	-12.42
316.077	1.65
316.291	10.73
316.505	20.4
316.719	31.59
316.933	52.71
317.147	50.32
317.361	25.75
317.575	21.51
317.789	21.03
318.003	8.89
318.217	4.38
318.431	19.71
318.645	6.28
318.859	6.29
319.073	-7.65
319.287	3.66
319.5	12.89
319.714	24.65
319.928	30.12
320.142	31.41
320.356	32.24
320.57	27.53
320.784	25.61
320.997	20
321.211	15.45
321.425	8.66
321.639	12.41
321.853	3.06
322.066	-12.49
322.28	0.3
322.494	-10.1
322.707	-39.11
322.921	-36.32
323.135	-23.74
323.349	-9.99
323.562	10.9
323.776	28.82
323.989	32.35
324.203	37.88
324.417	32.82
324.63	33.8
324.844	32.63
325.057	29.16
325.271	3.95
325.485	2.66
325.698	-21.03
325.912	-31.62
326.125	-19.07
326.339	-1.76
326.552	-37.77
326.766	-16.7
326.979	8.55
327.193	-2.53
327.406	-6.04
327.619	21.05
327.833	4.94
328.046	-5.92
328.26	11.51
328.473	11.06
328.686	5.29
328.9	10.07
329.113	18.98
329.326	19.36
329.54	21.66
329.753	27.39
329.966	41.48
330.179	18.57
330.393	18.41
330.606	24.77
330.819	21.92
331.032	17.65
331.246	27.41
331.459	13.38
331.672	0.62
331.885	5.27
332.098	-3.53
332.311	3.64
332.525	9.42
332.738	17.98
332.951	15.96
333.164	17.77
333.377	20.47
333.59	17.92
333.803	15.58
334.016	16.01
334.229	14.89
334.442	-13.31
334.655	-9.49
334.868	-23.62
335.081	-27.33
335.294	-24.81
335.507	-0.07
335.72	-0.82
335.933	8.18
336.146	17.48
336.359	18.05
336.572	0.08
336.785	-5.22
336.997	7.37
337.21	-8.9
337.423	-8.99
337.636	4.12
337.849	-2.4
338.062	-8.23
338.274	-6.07
338.487	-1.91
338.7	1.79
338.913	15.29
339.125	3.92
339.338	2.32
339.551	-2.91
339.763	-21.39
339.976	-25.4
340.189	-2.09
340.402	9.99
340.614	4.61
340.827	9.44
341.039	20.41
341.252	18.11
341.465	17.19
341.677	17.05
341.89	26.89
342.102	14.1
342.315	11.86
342.527	12.76
342.74	18.81
342.952	9.77
343.165	18.57
343.377	-2.24
343.59	-18.19
343.802	-13.42
344.015	-36.85
344.227	-46.17
344.44	-19.78
344.652	-3.31
344.864	-27.5
345.077	-5.64
345.289	-6.54
345.502	-34.81
345.714	-74.07
345.926	-34.93
346.139	-33.81
346.351	-21.28
346.563	-2.41
346.775	15.99
346.988	5.61
347.2	23.99
347.412	22.87
347.624	17.89
347.837	5.6
348.049	18.88
348.261	-4.61
348.473	-15.62
348.685	-5.48
348.897	4.58
349.11	-16.52
349.322	-4.71
349.534	1.4
349.746	-0.42
349.958	-9.83
350.17	3.12
350.382	1.81
350.594	12.04
350.806	12.29
351.018	13.93
351.23	15.69
351.442	18.11
351.654	-7.58
351.866	-1.45
352.078	8
352.29	6.54
352.502	5.33
352.714	24.35
352.926	4.63
353.138	-9.42
353.35	-5.9
353.561	6.41
353.773	-4.68
353.985	8.26
354.197	9.67
354.409	8.03
354.621	4.05
354.832	8.38
355.044	-9.21
355.256	-0.44
355.468	-4.54
355.679	-9.83
355.891	1.9
356.103	13.45
356.314	5.66
356.526	8.77
356.738	15.88
356.949	8.17
357.161	-2.21
357.373	12.11
357.584	11.74
357.796	13.44
358.008	0.09
358.219	11.58
358.431	24.28
358.642	38.71
358.854	23.06
359.065	52.68
359.277	52.75
359.488	27.2
359.7	8.56
359.911	11.8
360.123	-11.9
360.334	-28.01
360.546	-27.29
360.757	-34.46
360.969	-23.85
361.18	-10.31
361.391	11.74
361.603	14.3
361.814	18.99
362.025	18.07
362.237	24.82
362.448	12.52
362.659	11.1
362.871	8.95
363.082	-2.4
363.293	-21.4
363.504	-30.51
363.716	-9.01
363.927	-0.48
364.138	1.01
364.349	12.67
364.56	20.82
364.772	23.24
364.983	15.67
365.194	16.81
365.405	7.35
365.616	3.46
365.827	-0.47
366.038	8.14
366.25	15.58
366.461	15.31
366.672	8.44
366.883	2.44
367.094	-1.55
367.305	1.33
367.516	-5.17
367.727	2.65
367.938	7.5
368.149	8.7
368.36	-9.68
368.571	2.72
368.781	4.33
368.992	9.37
369.203	22.62
369.414	32.5
369.625	25.29
369.836	14.13
370.047	9.69
370.258	-14.79
370.468	-17.04
370.679	-5.54
370.89	5.2
371.101	11.8
371.312	21.54
371.522	16.6
371.733	13.56
371.944	13.61
372.155	8.25
372.365	4.91
372.576	13.35
372.787	8.1
372.997	12.9
373.208	10.04
373.419	3.97
373.629	11.65
373.84	15.57
374.05	0.96
374.261	10.13
374.472	22.04
374.682	8.73
374.893	8.55
375.103	9.83
375.314	10.7
375.524	15.63
375.735	20
375.945	18.89
376.156	24.87
376.366	17.46
376.577	13.39
376.787	11.72
376.997	11.49
377.208	13.54
377.418	12
377.629	5.89
377.839	-8.25
378.049	-4.06
378.26	-5.06
378.47	-6.15
378.68	-6.96
378.89	9.17
379.101	4.58
379.311	-8.83
379.521	-4.8
379.732	-6.42
379.942	-7.11
380.152	-2.07
380.362	5.63
380.572	8.53
380.783	19.54
380.993	26.39
381.203	28.22
381.413	23.6
381.623	20.26
381.833	18.33
382.043	12.89
382.253	6.16
382.463	8.43
382.674	10.33
382.884	2.13
383.094	-1.49
383.304	5.37
383.514	10
383.724	3.3
383.934	12.07
384.144	11.99
384.353	4.07
384.563	-1.02
384.773	0.38
384.983	-2.79
385.193	-2.69
385.403	3.55
385.613	7.72
385.823	8.14
386.033	5.08
386.242	6.44
386.452	6.31
386.662	1.58
386.872	1.1
387.082	2.38
387.291	-0.87
387.501	-2.93
387.711	1.68
387.921	5.37
388.13	7.23
388.34	10.84
388.55	15.42
388.759	13.85
388.969	13.36
389.179	12.74
389.388	8.42
389.598	4.77
389.807	4.88
390.017	4.98
390.227	4.63
390.436	5.27
390.646	3.1
390.855	2.68
391.065	1.17
391.274	1.36
391.484	4.2
391.693	4.57
391.903	4.58
392.112	6.73
392.322	6.1
392.531	4.47
392.74	5.73
392.95	6.07
393.159	3.08
393.369	4.22
393.578	4.58
393.787	4.98
393.997	4.93
394.206	6.84
394.415	6.16
394.625	6.45
394.834	6.19
395.043	5.67
395.252	5.19
395.462	6.28
395.671	5.08
395.88	5
396.089	4.86
396.298	4.88
396.508	4.58
396.717	5.84
396.926	5.5
397.135	5.5
397.344	5.32
397.553	4.5
397.762	4.1
397.971	4.23
398.181	4.68
398.39	5.07
398.599	5.23
398.808	5.42
399.017	5.31
399.226	5.29
399.435	5.18
399.644	5.4
399.853	5.08
400.062	5.21
400.27	5.44
400.479	5.38
400.688	5.4
400.897	5.72
401.106	5.7
401.315	5.63
401.524	5.72
401.733	5.48
401.941	5.32
402.15	5.59
402.359	5.62
402.568	5.46
402.777	5.35
402.985	5.41
403.194	5.11
403.403	4.82
403.612	4.87
403.82	4.97
404.029	4.92
404.238	5.11
404.446	5.19
404.655	4.96
404.864	4.92
405.072	4.83
405.281	4.74
405.489	4.68
405.698	4.81
405.906	4.83
406.115	4.83
406.324	4.79
406.532	4.69
406.741	4.65
406.949	4.61
407.158	4.65
407.366	4.7
407.574	4.77
407.783	4.92
407.991	5
408.2	4.88
408.408	4.65
408.617	4.69
408.825	4.61
409.033	4.59
409.242	4.65
409.45	4.6
409.658	4.54
409.867	4.47
410.075	4.46
410.283	4.4
410.491	4.46
410.7	4.54
410.908	4.49
411.116	4.46
411.324	4.58
411.533	4.66
411.741	4.59
411.949	4.59
412.157	4.53
412.365	4.39
412.573	4.3
412.781	4.22
412.99	4.22
413.198	4.26
413.406	4.18
413.614	4.2
413.822	4.32
414.03	4.31
414.238	4.22
414.446	4.39
414.654	4.4
414.862	4.35
415.07	4.35
415.278	4.41
415.486	4.26
415.694	4.26
415.902	4.21
416.109	4.19
416.317	4.33
416.525	4.36
416.733	4.38
416.941	4.43
417.149	4.52
417.357	4.26
417.564	4.28
417.772	4.38
417.98	4.45
418.188	4.33
418.395	4.32
418.603	4.36
418.811	4.22
419.019	3.99
419.226	3.98
419.434	4.04
419.642	3.96
419.849	3.94
420.057	4.05
420.265	4.05
420.472	4.24
420.68	4.15
420.887	4.11
421.095	3.96
421.302	4.16
421.51	3.83
421.717	3.84
421.925	3.84
422.132	4.04
422.34	3.74
422.547	3.85
422.755	3.83
422.962	3.84
423.17	3.71
423.377	3.92
423.585	3.98
423.792	4.03
423.999	3.9
424.207	3.94
424.414	3.84
424.621	3.59
424.829	3.57
425.036	3.79
425.243	3.91
425.451	3.83
425.658	4.02
425.865	4.08
426.072	3.92
426.28	3.76
426.487	3.8
426.694	3.85
426.901	3.83
427.108	3.91
427.315	4.14
427.523	4.15
427.73	4.02
427.937	4.15
428.144	3.95
428.351	3.87
428.558	3.81
428.765	3.96
428.972	3.95
429.179	3.97
429.386	3.91
429.593	3.97
429.8	4.06
430.007	4.01
430.214	4.18
430.421	4.21
430.628	4.12
430.835	3.98
431.042	4.08
431.249	4.15
431.456	4.27
431.662	4.27
431.869	4.43
432.076	4.24
432.283	4.19
432.49	4.14
432.697	4.32
432.903	4.16
433.11	4.17
433.317	4.16
433.524	4.19
433.73	4.24
433.937	4.29
434.144	4.4
434.35	4.53
434.557	4.48
434.764	4.48
434.97	4.67
435.177	4.68
435.384	4.6
435.59	4.62
435.797	4.6
436.003	4.51
436.21	4.5
436.416	4.6
436.623	4.48
436.829	4.46
437.036	4.49
437.242	4.51
437.449	4.28
437.655	4.47
437.862	4.45
438.068	4.4
438.275	4.41
438.481	4.49
438.687	4.47
438.894	4.62
439.1	4.9
439.307	4.88
439.513	4.93
439.719	4.93
439.926	4.93
440.132	4.88
440.338	5.08
440.544	5.11
440.751	5.1
440.957	5.01
441.163	4.87
441.369	4.86
441.575	4.96
441.782	5
441.988	5.13
442.194	5.11
442.4	5.03
442.606	5.09
442.812	5.17
443.018	5.11
443.224	5.09
443.431	5.11
443.637	5.1
443.843	5.05
444.049	5.01
444.255	5.12
444.461	5.2
444.667	5.04
444.873	5.02
445.079	5.04
445.284	5
445.49	4.98
445.696	5.05
445.902	5.03
446.108	5.18
446.314	5.25
446.52	5.37
446.726	5.46
446.931	5.59
447.137	5.58
447.343	5.55
447.549	5.46
447.755	5.37
447.96	5.2
448.166	5.15
448.372	5.11
448.578	5.09
448.783	5.2
448.989	5.3
449.195	5.3
449.4	5.29
449.606	5.27
449.812	5.18
450.017	5.27
450.223	5.32
450.428	5.41
450.634	5.47
450.84	5.59
451.045	5.6
451.251	5.57
451.456	5.53
451.662	5.51
451.867	5.38
452.073	5.37
452.278	5.35
452.483	5.39
452.689	5.33
452.894	5.43
453.1	5.5
453.305	5.48
453.51	5.37
453.716	5.46
453.921	5.54
454.127	5.42
454.332	5.51
454.537	5.68
454.742	5.73
454.948	5.67
455.153	5.73
455.358	5.64
455.563	5.47
455.769	5.41
455.974	5.35
456.179	5.4
456.384	5.44
456.589	5.58
456.795	5.54
457	5.51
457.205	5.51
457.41	5.51
457.615	5.5
457.82	5.57
458.025	5.68
458.23	5.62
458.435	5.56
458.64	5.59
458.845	5.54
459.05	5.57
459.255	5.58
459.46	5.69
459.665	5.6
459.87	5.61
460.075	5.48
460.28	5.64
460.485	5.56
460.69	5.61
460.895	5.68
461.099	5.7
461.304	5.61
461.509	5.67
461.714	5.8
461.919	5.74
462.123	5.82
462.328	5.87
462.533	5.93
462.738	5.85
462.942	5.87
463.147	6
463.352	5.87
463.556	5.87
463.761	5.87
463.966	5.93
464.17	5.8
464.375	5.9
464.58	5.89
464.784	5.85
464.989	5.84
465.193	5.84
465.398	5.85
465.602	5.82
465.807	5.88
466.011	5.93
466.216	5.92
466.42	5.94
466.625	6.03
466.829	6.02
467.034	6
467.238	6.06
467.443	6.13
467.647	6.17
467.851	6.28
468.056	6.31
468.26	6.33
468.464	6.21
468.669	6.19
468.873	6.08
469.077	6.07
469.282	6.2
469.486	6.32
469.69	6.27
469.894	6.26
470.099	6.28
470.303	6.09
470.507	5.99
470.711	6.03
470.915	6.11
471.119	6.15
471.324	6.24
471.528	6.27
471.732	6.24
471.936	6.25
472.14	6.18
472.344	6.21
472.548	6.27
472.752	6.29
472.956	6.3
473.16	6.3
473.364	6.34
473.568	6.33
473.772	6.34
473.976	6.38
474.18	6.46
474.384	6.41
474.588	6.45
474.792	6.56
474.995	6.5
475.199	6.46
475.403	6.46
475.607	6.46
475.811	6.34
476.015	6.29
476.218	6.29
476.422	6.32
476.626	6.34
476.83	6.34
477.033	6.46
477.237	6.46
477.441	6.41
477.644	6.38
477.848	6.46
478.052	6.42
478.255	6.43
478.459	6.49
478.663	6.52
478.866	6.5
479.07	6.51
479.273	6.52
479.477	6.45
479.681	6.42
479.884	6.41
480.088	6.46
480.291	6.45
480.495	6.48
480.698	6.54
480.901	6.57
481.105	6.47
481.308	6.51
481.512	6.63
481.715	6.58
481.919	6.58
482.122	6.64
482.325	6.68
482.529	6.61
482.732	6.67
482.935	6.62
483.138	6.58
483.342	6.56
483.545	6.61
483.748	6.58
483.952	6.6
484.155	6.67
484.358	6.64
484.561	6.61
484.764	6.59
484.967	6.6
485.171	6.6
485.374	6.64
485.577	6.65
485.78	6.6
485.983	6.56
486.186	6.51
486.389	6.44
486.592	6.43
486.795	6.53
486.998	6.56
487.201	6.64
487.404	6.69
487.607	6.7
487.81	6.62
488.013	6.61
488.216	6.54
488.419	6.46
488.622	6.44
488.825	6.48
489.028	6.54
489.231	6.56
489.433	6.6
489.636	6.56
489.839	6.51
490.042	6.49
490.245	6.56
490.447	6.53
490.65	6.56
490.853	6.6
491.056	6.57
491.258	6.58
491.461	6.55
491.664	6.59
491.866	6.62
492.069	6.62
492.272	6.57
492.474	6.6
492.677	6.51
492.879	6.42
493.082	6.38
493.285	6.31
493.487	6.36
493.69	6.41
493.892	6.45
494.095	6.44
494.297	6.48
494.5	6.4
494.702	6.36
494.905	6.4
495.107	6.49
495.309	6.53
495.512	6.64
495.714	6.67
495.917	6.66
496.119	6.58
496.321	6.51
496.524	6.51
496.726	6.55
496.928	6.55
497.13	6.6
497.333	6.6
497.535	6.52
497.737	6.55
497.939	6.56
498.142	6.56
498.344	6.53
498.546	6.5
498.748	6.42
498.95	6.35
499.152	6.32
499.355	6.36
499.557	6.41
499.759	6.44
499.961	6.48
500.163	6.58
500.365	6.66
500.567	6.65
500.769	6.72
500.971	6.77
501.173	6.68
501.375	6.62
501.577	6.65
501.779	6.64
501.981	6.55
502.183	6.56
502.385	6.56
502.587	6.54
502.788	6.45
502.99	6.48
503.192	6.52
503.394	6.51
503.596	6.57
503.798	6.52
503.999	6.53
504.201	6.58
504.403	6.6
504.605	6.58
504.806	6.7
505.008	6.72
505.21	6.65
505.411	6.66
505.613	6.6
505.815	6.57
506.016	6.54
506.218	6.56
506.42	6.58
506.621	6.63
506.823	6.61
507.024	6.58
507.226	6.57
507.427	6.54
507.629	6.56
507.83	6.56
508.032	6.54
508.233	6.5
508.435	6.48
508.636	6.43
508.838	6.41
509.039	6.46
509.24	6.46
509.442	6.46
509.643	6.5
509.845	6.49
510.046	6.5
510.247	6.49
510.448	6.54
510.65	6.54
510.851	6.59
511.052	6.58
511.254	6.65
511.455	6.6
511.656	6.6
511.857	6.57
512.058	6.56
512.26	6.5
512.461	6.51
512.662	6.55
512.863	6.54
513.064	6.59
513.265	6.59
513.466	6.64
513.667	6.6
513.868	6.59
514.069	6.53
514.27	6.51
514.471	6.46
514.672	6.44
514.873	6.44
515.074	6.5
515.275	6.55
515.476	6.61
515.677	6.62
515.878	6.67
516.079	6.68
516.28	6.64
516.481	6.6
516.682	6.59
516.882	6.62
517.083	6.63
517.284	6.65
517.485	6.61
517.686	6.61
517.886	6.56
518.087	6.48
518.288	6.5
518.488	6.54
518.689	6.53
518.89	6.56
519.091	6.63
519.291	6.62
519.492	6.6
519.692	6.67
519.893	6.61
520.094	6.59
520.294	6.59
520.495	6.63
520.695	6.63
520.896	6.67
521.096	6.66
521.297	6.67
521.497	6.66
521.698	6.62
521.898	6.56
522.099	6.55
522.299	6.6
522.499	6.58
522.7	6.61
522.9	6.67
523.101	6.64
523.301	6.63
523.501	6.67
523.702	6.64
523.902	6.61
524.102	6.7
524.302	6.66
524.503	6.65
524.703	6.72
524.903	6.76
525.103	6.73
525.304	6.74
525.504	6.78
525.704	6.75
525.904	6.74
526.104	6.76
526.304	6.81
526.504	6.74
526.705	6.75
526.905	6.76
527.105	6.79
527.305	6.76
527.505	6.77
527.705	6.79
527.905	6.84
528.105	6.78
528.305	6.74
528.505	6.75
528.705	6.75
528.905	6.62
529.105	6.68
529.304	6.72
529.504	6.79
529.704	6.79
529.904	6.88
530.104	6.9
530.304	6.9
530.503	6.87
530.703	6.84
530.903	6.86
531.103	6.83
531.303	6.81
531.502	6.89
531.702	6.95
531.902	6.95
532.101	6.93
532.301	7.01
532.501	6.96
532.7	6.94
532.9	6.97
533.1	7.02
533.299	6.96
533.499	6.93
533.698	6.95
533.898	6.93
534.097	6.96
534.297	6.92
534.496	6.95
534.696	6.94
534.895	6.93
535.095	6.93
535.294	7
535.494	6.98
535.693	6.95
535.892	7
536.092	7.01
536.291	7.01
536.491	7.09
536.69	7.15
536.889	7.16
537.088	7.18
537.288	7.12
537.487	7.12
537.686	7.1
537.886	7.09
538.085	7.05
538.284	7.11
538.483	7.13
538.682	7.14
538.882	7.16
539.081	7.21
539.28	7.24
539.479	7.25
539.678	7.28
539.877	7.32
540.076	7.35
540.275	7.38
540.474	7.36
540.673	7.35
540.872	7.38
541.071	7.39
541.27	7.45
541.469	7.5
541.668	7.54
541.867	7.57
542.066	7.6
542.265	7.56
542.464	7.62
542.663	7.68
542.862	7.68
543.06	7.73
543.259	7.8
543.458	7.78
543.657	7.81
543.856	7.85
544.054	7.83
544.253	7.8
544.452	7.83
544.651	7.79
544.849	7.79
545.048	7.85
545.247	7.9
545.445	8
545.644	8.04
545.843	8.06
546.041	8.04
546.24	8.11
546.438	8.1
546.637	8.17
546.836	8.21
547.034	8.22
547.233	8.28
547.431	8.32
547.63	8.36
547.828	8.42
548.027	8.48
548.225	8.47
548.423	8.49
548.622	8.53
548.82	8.63
549.019	8.68
549.217	8.72
549.415	8.76
549.614	8.85
549.812	8.78
550.01	8.88
550.209	8.93
550.407	8.95
550.605	8.91
550.803	8.97
551.002	8.95
551.2	8.98
551.398	9.1
551.596	9.17
551.794	9.24
551.993	9.26
552.191	9.34
552.389	9.35
552.587	9.44
552.785	9.5
552.983	9.57
553.181	9.59
553.379	9.63
553.577	9.68
553.775	9.75
553.973	9.8
554.171	9.85
554.369	9.99
554.567	10.02
554.765	10.04
554.963	10.12
555.161	10.2
555.359	10.24
555.557	10.26
555.755	10.35
555.952	10.45
556.15	10.54
556.348	10.59
556.546	10.68
556.744	10.7
556.941	10.66
557.139	10.77
557.337	10.82
557.535	10.93
557.732	11.05
557.93	11.2
558.128	11.21
558.325	11.2
558.523	11.24
558.721	11.29
558.918	11.32
559.116	11.38
559.313	11.42
559.511	11.52
559.708	11.53
559.906	11.65
560.104	11.73
560.301	11.82
560.498	11.89
560.696	11.91
560.893	12
561.091	12.02
561.288	12.21
561.486	12.24
561.683	12.33
561.88	12.35
562.078	12.46
562.275	12.43
562.473	12.5
562.67	12.58
562.867	12.66
563.064	12.71
563.262	12.81
563.459	12.89
563.656	12.87
563.853	12.88
564.051	12.98
564.248	13
564.445	13.02
564.642	13.16
564.839	13.29
565.036	13.34
565.234	13.38
565.431	13.44
565.628	13.55
565.825	13.53
566.022	13.54
566.219	13.58
566.416	13.69
566.613	13.68
566.81	13.8
567.007	13.88
567.204	13.98
567.401	13.94
567.598	14
567.795	13.93
567.991	13.95
568.188	13.97
568.385	13.96
568.582	13.99
568.779	14.04
568.976	14.01
569.172	14.04
569.369	14.11
569.566	14.11
569.763	14.06
569.96	14.08
570.156	14.09
570.353	14.12
570.55	14.14
570.746	14.2
570.943	14.25
571.14	14.34
571.336	14.39
571.533	14.47
571.729	14.57
571.926	14.64
572.123	14.61
572.319	14.6
572.516	14.5
572.712	14.47
572.909	14.47
573.105	14.4
573.302	14.43
573.498	14.48
573.695	14.53
573.891	14.47
574.087	14.54
574.284	14.6
574.48	14.61
574.677	14.59
574.873	14.62
575.069	14.61
575.266	14.56
575.462	14.55
575.658	14.55
575.854	14.58
576.051	14.46
576.247	14.39
576.443	14.37
576.639	14.4
576.835	14.37
577.032	14.44
577.228	14.45
577.424	14.43
577.62	14.37
577.816	14.2
578.012	14.24
578.208	14.18
578.404	14.2
578.6	14.18
578.796	14.29
578.993	14.31
579.189	14.38
579.384	14.34
579.58	14.35
579.776	14.34
579.972	14.31
580.168	14.3
580.364	14.26
580.56	14.29
580.756	14.23
580.952	14.1
581.148	14.01
581.343	13.97
581.539	13.94
581.735	13.96
581.931	14.05
582.127	14.07
582.322	14.08
582.518	14.04
582.714	14.01
582.909	13.97
583.105	13.91
583.301	13.85
583.496	13.79
583.692	13.73
583.888	13.67
584.083	13.72
584.279	13.75
584.474	13.79
584.67	13.73
584.866	13.73
585.061	13.74
585.257	13.69
585.452	13.64
585.648	13.8
585.843	13.76
586.039	13.72
586.234	13.79
586.429	13.74
586.625	13.72
586.82	13.73
587.015	13.75
587.211	13.72
587.406	13.77
587.601	13.77
587.797	13.82
587.992	13.75
588.187	13.68
588.383	13.67
588.578	13.62
588.773	13.59
588.968	13.6
589.163	13.72
589.359	13.7
589.554	13.75
589.749	13.81
589.944	13.86
590.139	13.74
590.334	13.82
590.529	13.78
590.724	13.81
590.919	13.72
591.114	13.82
591.309	13.69
591.504	13.72
591.699	13.64
591.894	13.75
592.089	13.78
592.284	13.93
592.479	13.97
592.674	14.1
592.869	14.1
593.064	14.11
593.259	14.09
593.454	14.12
593.648	14.1
593.843	14.13
594.038	14.17
594.233	14.19
594.428	14.23
594.622	14.27
594.817	14.39
595.012	14.5
595.206	14.62
595.401	14.7
595.596	14.83
595.79	14.86
595.985	14.86
596.18	14.95
596.374	15.06
596.569	15.03
596.763	15.13
596.958	15.24
597.153	15.26
597.347	15.25
597.542	15.3
597.736	15.35
597.931	15.34
598.125	15.46
598.319	15.56
598.514	15.6
598.708	15.59
598.903	15.57
599.097	15.56
599.291	15.53
599.486	15.5
599.68	15.62
599.874	15.75
600.069	15.78
600.263	15.89
600.457	16
600.651	15.95
600.846	15.96
601.04	15.93
601.234	15.9
601.428	15.9
601.622	15.96
601.817	15.94
602.011	15.98
602.205	16.08
602.399	16.08
602.593	16.06
602.787	16.13
602.981	16.14
603.175	16.09
603.369	16.15
603.563	16.22
603.757	16.18
603.951	16.21
604.145	16.24
604.339	16.23
604.533	16.15
604.727	16.15
604.921	16.07
605.115	16.04
605.309	16.05
605.502	16.07
605.696	16.04
605.89	16.04
606.084	16
606.278	15.94
606.471	15.89
606.665	15.85
606.859	15.81
607.053	15.82
607.246	15.76
607.44	15.68
607.634	15.64
607.827	15.61
608.021	15.51
608.214	15.51
608.408	15.47
608.602	15.41
608.795	15.33
608.989	15.29
609.182	15.12
609.376	15.1
609.569	15.03
609.763	14.98
609.956	14.94
610.15	14.95
610.343	14.92
610.537	14.83
610.73	14.8
610.923	14.78
611.117	14.71
611.31	14.6
611.504	14.61
611.697	14.55
611.89	14.45
612.083	14.45
612.277	14.45
612.47	14.43
612.663	14.33
612.856	14.29
613.05	14.22
613.243	14.13
613.436	13.97
613.629	13.88
613.822	13.79
614.015	13.7
614.209	13.65
614.402	13.6
614.595	13.64
614.788	13.61
614.981	13.61
615.174	13.5
615.367	13.47
615.56	13.43
615.753	13.43
615.946	13.4
616.139	13.43
616.332	13.47
616.525	13.4
616.718	13.37
616.911	13.32
617.103	13.32
617.296	13.25
617.489	13.21
617.682	13.08
617.875	13.06
618.067	12.99
618.26	13
618.453	12.95
618.646	12.93
618.838	12.91
619.031	12.83
619.224	12.73
619.417	12.76
619.609	12.76
619.802	12.79
619.994	12.79
620.187	12.8
620.38	12.77
620.572	12.74
620.765	12.6
620.957	12.66
621.15	12.65
621.342	12.65
621.535	12.58
621.727	12.61
621.92	12.52
622.112	12.51
622.305	12.41
622.497	12.45
622.69	12.46
622.882	12.41
623.074	12.34
623.267	12.34
623.459	12.37
623.651	12.3
623.844	12.34
624.036	12.41
624.228	12.37
624.42	12.34
624.613	12.34
624.805	12.28
624.997	12.19
625.189	12.26
625.381	12.24
625.574	12.28
625.766	12.29
625.958	12.27
626.15	12.29
626.342	12.21
626.534	12.14
626.726	12.04
626.918	12.02
627.11	11.95
627.302	11.92
627.494	11.85
627.686	11.92
627.878	11.91
628.07	11.86
628.262	11.88
628.454	11.92
628.646	11.82
628.838	11.78
629.029	11.75
629.221	11.73
629.413	11.69
629.605	11.67
629.797	11.62
629.989	11.65
630.18	11.57
630.372	11.49
630.564	11.49
630.755	11.49
630.947	11.4
631.139	11.44
631.33	11.43
631.522	11.42
631.714	11.4
631.905	11.43
632.097	11.32
632.289	11.36
632.48	11.28
632.672	11.2
632.863	11.12
633.055	11.11
633.246	11.06
633.438	11.04
633.629	11.11
633.821	11.12
634.012	11.2
634.203	11.21
634.395	11.26
634.586	11.24
634.777	11.22
634.969	11.13
635.16	11.15
635.351	11.11
635.543	11.1
635.734	11.03
635.925	11.13
636.117	11.07
636.308	11.06
636.499	10.95
636.69	11.04
636.881	10.96
637.073	10.96
637.264	10.96
637.455	11.06
637.646	11.04
637.837	11.07
638.028	11.11
638.219	11.09
638.41	11.05
638.601	11.04
638.792	11
638.983	10.94
639.174	10.95
639.365	10.91
639.556	10.93
639.747	10.91
639.938	10.86
640.129	10.87
640.32	10.87
640.511	10.79
640.701	10.79
640.892	10.85
641.083	10.8
641.274	10.85
641.465	10.88
641.655	10.87
641.846	10.81
642.037	10.87
642.228	10.76
642.418	10.69
642.609	10.66
642.8	10.66
642.99	10.53
643.181	10.59
643.372	10.6
643.562	10.59
643.753	10.56
643.943	10.61
644.134	10.53
644.324	10.51
644.515	10.49
644.705	10.47
644.896	10.41
645.086	10.51
645.277	10.52
645.467	10.57
645.658	10.6
645.848	10.66
646.038	10.53
646.229	10.49
646.419	10.48
646.61	10.5
646.8	10.52
646.99	10.51
647.18	10.49
647.371	10.43
647.561	10.32
647.751	10.34
647.941	10.42
648.132	10.48
648.322	10.45
648.512	10.5
648.702	10.47
648.892	10.43
649.082	10.44
649.272	10.41
649.462	10.38
649.653	10.36
649.843	10.36
650.033	10.3
650.223	10.25
650.413	10.22
650.603	10.13
650.793	10.06
650.983	10.15
651.172	10.12
651.362	10.11
651.552	10.1
651.742	10.09
651.932	9.97
652.122	10.07
652.312	10.08
652.502	10.02
652.691	9.98
652.881	9.98
653.071	9.99
653.261	9.85
653.45	9.8
653.64	9.81
653.83	9.68
654.019	9.44
654.209	9.44
654.399	9.38
654.588	9.26
654.778	9.22
654.968	9.17
655.157	9.09
655.347	9.06
655.536	9.09
655.726	8.99
655.915	8.92
656.105	8.84
656.294	8.71
656.484	8.51
656.673	8.52
656.863	8.45
657.052	8.39
657.241	8.45
657.431	8.39
657.62	8.24
657.809	8.15
657.999	8.12
658.188	7.96
658.377	7.85
658.567	7.72
658.756	7.71
658.945	7.65
659.134	7.6
659.324	7.61
659.513	7.61
659.702	7.53
659.891	7.5
660.08	7.36
660.269	7.28
660.458	7.23
660.648	7.18
660.837	7.04
661.026	7.06
661.215	7.02
661.404	6.91
661.593	6.8
661.782	6.71
661.971	6.62
662.16	6.54
662.349	6.53
662.538	6.49
662.726	6.54
662.915	6.56
663.104	6.54
663.293	6.47
663.482	6.44
663.671	6.3
663.86	6.15
664.048	6.18
664.237	6.13
664.426	6.14
664.615	6.12
664.803	6.1
664.992	6.06
665.181	6.1
665.369	6
665.558	6.02
665.747	6.01
665.935	5.97
666.124	5.99
666.312	6.02
666.501	6.04
666.69	6.15
666.878	6.13
667.067	5.96
667.255	6.02
667.444	5.97
667.632	5.9
667.82	5.73
668.009	5.84
668.197	5.8
668.386	5.84
668.574	5.85
668.762	6
668.951	5.96
669.139	6.04
669.327	6.09
669.516	6.02
669.704	6.04
669.892	6.15
670.08	6.07
670.269	6
670.457	6.11
670.645	6.13
670.833	5.97
671.021	5.91
671.21	6.02
671.398	6.02
671.586	6.06
671.774	6.28
671.962	6.48
672.15	6.5
672.338	6.52
672.526	6.54
672.714	6.48
672.902	6.48
673.09	6.42
673.278	6.44
673.466	6.46
673.654	6.48
673.842	6.61
674.03	6.71
674.218	6.86
674.405	6.83
674.593	6.95
674.781	6.78
674.969	6.81
675.157	6.77
675.344	6.88
675.532	6.7
675.72	6.87
675.908	6.89
676.095	6.86
676.283	6.87
676.471	7.03
676.658	7.03
676.846	7.03
677.033	7.02
677.221	7.12
677.409	7.17
677.596	7.32
677.784	7.34
677.971	7.48
678.159	7.48
678.346	7.55
678.534	7.45
678.721	7.44
678.909	7.46
679.096	7.44
679.283	7.35
679.471	7.46
679.658	7.58
679.846	7.77
680.033	7.89
680.22	7.93
680.408	7.95
680.595	7.98
680.782	7.83
680.969	7.9
681.157	8.03
681.344	7.92
681.531	8.02
681.718	8.04
681.905	8.07
682.093	8.16
682.28	8.27
682.467	8.4
682.654	8.48
682.841	8.5
683.028	8.57
683.215	8.78
683.402	8.78
683.589	8.9
683.776	9.03
683.963	9.05
684.15	9.06
684.337	9.08
684.524	9.15
684.711	9.23
684.898	9.31
685.085	9.38
685.271	9.5
685.458	9.68
685.645	9.77
685.832	9.87
686.019	10.18
686.205	10.49
686.392	10.54
686.579	10.86
686.766	11.01
686.952	10.99
687.139	11.14
687.326	11.46
687.512	11.53
687.699	11.76
687.886	12.06
688.072	12.17
688.259	12.43
688.445	12.7
688.632	13.01
688.818	13.25
689.005	13.51
689.191	13.72
689.378	14.09
689.564	14.49
689.751	14.77
689.937	15.22
690.124	15.51
690.31	15.74
690.496	16.06
690.683	16.38
690.869	16.61
691.055	16.92
691.242	17.16
691.428	17.53
691.614	18
691.8	18.45
691.987	18.96
692.173	19.55
692.359	19.99
692.545	20.45
692.731	20.97
692.918	21.36
693.104	21.76
693.29	22.13
693.476	22.67
693.662	23.29
693.848	23.83
694.034	24.38
694.22	25.06
694.406	25.55
694.592	25.88
694.778	26.57
694.964	27.1
695.15	27.63
695.336	28.12
695.522	28.63
695.708	29.14
695.894	29.75
696.08	30.25
696.265	30.72
696.451	31.34
696.637	32.04
696.823	32.64
697.009	33.28
697.194	33.96
697.38	34.69
697.566	35.18
697.751	35.8
697.937	36.26
698.123	37.02
698.308	37.46
698.494	37.97
698.68	38.3
698.865	38.88
699.051	39.15
699.236	39.77
699.422	40.1
699.607	40.46
699.793	41.14
699.978	41.86
700.164	42.26
700.349	42.99
700.535	43.87
700.72	44.31
700.906	44.82
701.091	45.3
701.276	45.69
701.462	46.1
701.647	46.66
701.832	47.19
702.018	47.76
702.203	48.16
702.388	48.97
702.573	49.25
702.759	49.63
702.944	50.22
703.129	50.46
703.314	50.27
703.499	50.79
703.684	51.09
703.87	51.21
704.055	51.98
704.24	52.64
704.425	53.07
704.61	53.6
704.795	54.2
704.98	54.52
705.165	55.13
705.35	55.78
705.535	55.63
705.72	55.54
705.905	55.63
706.09	55.61
706.275	55.52
706.459	56.34
706.644	56.69
706.829	57.37
707.014	57.81
707.199	58.22
707.384	58.27
707.568	59.04
707.753	59.32
707.938	59.71
708.123	60.15
708.307	60.57
708.492	60.71
708.677	60.62
708.861	61.05
709.046	60.88
709.231	61.13
709.415	61.33
709.6	61.51
709.784	61.42
709.969	61.46
710.153	61.74
710.338	61.98
710.522	62.9
710.707	63.29
710.891	63.84
711.076	63.69
711.26	63.46
711.445	63.14
711.629	63.56
711.813	63.46
711.998	63.77
712.182	64.06
712.366	64.58
712.551	64.49
712.735	65
712.919	65.15
713.103	65.67
713.288	65.52
713.472	65.64
713.656	65.82
713.84	66.12
714.024	65.9
714.208	65.86
714.393	65.79
714.577	65.52
714.761	65.44
714.945	65.78
715.129	65.72
715.313	65.51
715.497	66.1
715.681	66.72
715.865	66.81
716.049	67.18
716.233	67.89
716.417	67.85
716.601	67.64
716.785	67.96
716.968	68.25
717.152	67.82
717.336	68.16
717.52	67.96
717.704	68.49
717.888	69.26
718.071	69.7
718.255	69.74
718.439	70.45
718.622	70.24
718.806	70
718.99	69.75
719.174	69.29
719.357	68.94
719.541	69.14
719.724	68.86
719.908	69.15
720.092	69.31
720.275	69.44
720.459	69.23
720.642	69.07
720.826	69.22
721.009	69.81
721.193	70.11
721.376	70.06
721.559	70.28
721.743	70.83
721.926	71.19
722.11	71.39
722.293	71.6
722.476	71.78
722.66	71.72
722.843	71.28
723.026	71.2
723.21	71.48
723.393	71.49
723.576	71.49
723.759	71.54
723.942	72.13
724.126	71.65
724.309	72
724.492	72.03
724.675	72.5
724.858	72.16
725.041	72.3
725.224	72.15
725.407	72.82
725.59	72.53
725.774	73.05
725.957	73.82
726.14	74.53
726.322	74.41
726.505	75.27
726.688	74.88
726.871	74.78
727.054	74.56
727.237	74.79
727.42	74.29
727.603	74.79
727.786	74.79
727.968	74.53
728.151	74.23
728.334	74
728.517	73.79
728.699	73.36
728.882	73.69
729.065	73.78
729.248	74.31
729.43	74.6
729.613	75.05
729.796	74.96
729.978	74.59
730.161	74.95
730.343	75.38
730.526	75.84
730.708	75.89
730.891	76.3
731.073	76.19
731.256	75.84
731.438	75.86
731.621	75.8
731.803	75.64
731.986	75.88
732.168	75.9
732.35	75.71
732.533	76.27
732.715	77.41
732.898	77.38
733.08	77.85
733.262	78
733.444	78.14
733.627	77.28
733.809	77.29
733.991	76.74
734.173	76.44
734.355	76.36
734.538	76.55
734.72	76.7
734.902	77.2
735.084	77.74
735.266	77.36
735.448	77.41
735.63	77.49
735.812	77.76
735.994	77.87
736.176	78.53
736.358	78.75
736.54	78.84
736.722	78.31
736.904	78.79
737.086	78.9
737.268	79.17
737.45	79.45
737.632	80.45
737.814	80.81
737.995	81.22
738.177	81.25
738.359	81.07
738.541	80.22
738.723	79.9
738.904	79.28
739.086	78.73
739.268	79.15
739.449	79.82
739.631	80.22
739.813	80.51
739.994	81.41
740.176	80.4
740.358	79.65
740.539	78.75
740.721	79.31
740.902	78.56
741.084	79
741.265	79.61
741.447	79.88
741.628	79.53
741.81	80.03
741.991	79.42
742.172	78.55
742.354	78.64
742.535	79.35
742.717	79.08
742.898	79.34
743.079	80.38
743.261	80.85
743.442	80.59
743.623	80.74
743.804	81.75
743.986	81.44
744.167	80.88
744.348	80.74
744.529	81
744.71	80.41
744.891	80.99
745.073	81.47
745.254	81.29
745.435	80.96
745.616	81.56
745.797	80.83
745.978	79.69
746.159	79.22
746.34	80.07
746.521	79.57
746.702	79.75
746.883	79.92
747.064	79.31
747.245	79.25
747.426	79.82
747.606	79.48
747.787	79.97
747.968	80.85
748.149	80.08
748.33	79.89
748.51	79.96
748.691	80.52
748.872	80.19
749.053	80.17
749.233	81.07
749.414	81.96
749.595	82.02
749.775	82.67
749.956	82.6
750.137	81.58
750.317	80.98
750.498	80.84
750.678	81.04
750.859	82.18
751.04	81.58
751.22	83.25
751.4	83.51
751.581	81.84
751.761	80.78
751.942	80.69
752.122	79.64
752.303	79.33
752.483	80.76
752.663	81.93
752.844	82.54
753.024	82.3
753.204	82.25
753.385	82.77
753.565	82.38
753.745	83
753.925	82.28
754.106	82.87
754.286	83.29
754.466	82.85
754.646	82.68
754.826	83.86
755.006	83.39
755.187	81.83
755.367	81.53
755.547	80.69
755.727	79.88
755.907	80.06
756.087	80.01
756.267	80.93
756.447	81.29
756.627	80.74
756.807	79.48
756.987	80.88
757.167	79.75
757.346	79.34
757.526	79.85
757.706	80.19
757.886	79.96
758.066	79.41
758.246	80.12
758.425	79.75
758.605	79.94
758.785	80.42
758.965	81.96
759.144	81.67
759.324	81.76
759.504	82.85
759.683	82.02
759.863	80.95
760.043	80.68
760.222	81.81
760.402	80.48
760.581	81.25
760.761	82.48
760.94	81.72
761.12	81.03
761.299	81.97
761.479	80.88
761.658	80.68
761.838	81.51
762.017	81.15
762.197	80.65
762.376	80.54
762.555	81.23
762.735	81.6
762.914	80.27
763.093	80.55
763.273	80.03
763.452	78.11
763.631	78.33
763.81	80.57
763.99	80.35
764.169	81.7
764.348	83.07
764.527	81.54
764.706	79.56
764.885	78.21
765.064	77.99
765.243	76.07
765.423	76.78
765.602	77.32
765.781	79.29
765.96	78.87
766.139	80.06
766.318	81.03
766.497	81.02
766.676	78.39
766.854	77.55
767.033	77.6
767.212	76.79
767.391	75.9
767.57	76.95
767.749	77.05
767.928	77.98
768.106	78.27
768.285	78.71
768.464	80.12
768.643	79.68
768.821	77.12
769	77.43
769.179	77.79
769.357	77.4
769.536	78.37
769.715	78.39
769.893	77.29
770.072	76.82
770.25	76.23
770.429	74.59
770.607	75.82
770.786	76.22
770.964	76.51
771.143	75.65
771.321	76.31
771.5	75.9
771.678	75.07
771.857	75.13
772.035	77.4
772.213	77.06
772.392	76.97
772.57	76.97
772.748	76.22
772.927	74.16
773.105	75.63
773.283	75.64
773.461	75.77
773.64	77.81
773.818	77.75
773.996	76.83
774.174	76.47
774.352	77.29
774.531	75.61
774.709	75.49
774.887	76.69
775.065	78.13
775.243	77.87
775.421	78.69
775.599	79.18
775.777	77.54
775.955	77.48
776.133	78.23
776.311	76.28
776.489	77.36
776.667	75.7
776.844	74.2
777.022	72.65
777.2	73.69
777.378	72.48
777.556	73.23
777.734	71.41
777.911	70.5
778.089	71.26
778.267	69.22
778.445	67.18
778.622	69.55
778.8	69.87
778.978	69.38
779.155	71.03
779.333	73.76
779.511	72.55
779.688	73.34
779.866	74.35
780.043	73.35
780.221	72.76
780.398	75.11
780.576	74.33
780.753	72.11
780.931	72.86
781.108	73.73
781.286	70.83
781.463	70.95
781.64	71.52
781.818	71.12
781.995	70.64
782.172	72.28
782.35	72.87
782.527	70.71
782.704	70.94
782.882	72
783.059	71.31
783.236	73.31
783.413	74.09
783.59	73.84
783.768	74.39
783.945	72.76
784.122	69.79
784.299	70.16
784.476	70.34
784.653	68.38
784.83	70.57
785.007	70.12
785.184	70.7
785.361	70.94
785.538	71.75
785.715	69.46
785.892	71.33
786.069	72.38
786.246	72.29
786.423	69.9
786.6	73.65
786.776	71.76
786.953	67.14
787.13	66.34
787.307	69.66
787.484	67.12
787.66	68.68
787.837	75.15
788.014	77.73
788.191	73.38
788.367	74.09
788.544	71.17
788.721	69.31
788.897	65.37
789.074	65.44
789.25	65.13
789.427	67.77
789.603	65.4
789.78	68.65
789.956	70.66
790.133	72.18
790.309	67.04
790.486	68.86
790.662	69.72
790.839	70.66
791.015	71.63
791.192	74.02
791.368	72.87
791.544	68.69
791.721	66.67
791.897	67.46
792.073	69.17
792.249	68.48
792.426	69.1
792.602	68.21
792.778	62.36
792.954	63.82
793.13	64.64
793.307	63.63
793.483	67.21
793.659	71.39
793.835	71.39
794.011	71.26
794.187	75.26
794.363	74.75
794.539	72.62
794.715	68.76
794.891	65.75
795.067	64.37
795.243	62.81
795.419	63.69
795.595	66.26
795.771	69.96
795.947	70.56
796.122	69.48
796.298	67.04
796.474	66.12
796.65	65.64
796.826	65.97
797.001	67.43
797.177	67.5
797.353	68.73
797.529	69.68
797.704	71.83
797.88	72.45
798.056	74.97
798.231	75.58
798.407	75.55
798.582	69.87
798.758	69.84
798.934	66.11
799.109	64.03
799.285	64.23
799.46	64.16
799.636	62.39
799.811	62.09
799.986	62.95
800.162	57.68
800.337	57.39
800.513	55.16
800.688	54.99
800.863	54.72
801.039	60.07
801.214	62.35
801.389	66.12
801.565	67.89
801.74	66.54
801.915	66.72
802.09	69.26
802.265	65.16
802.441	66.07
802.616	68.94
802.791	65.31
802.966	59.87
803.141	64.46
803.316	63.08
803.491	61.46
803.666	70.34
803.841	65.82
804.016	64
804.191	65.75
804.366	67.44
804.541	63.11
804.716	70.82
804.891	68.53
805.066	69.22
805.241	67.16
805.416	65.97
805.591	66.05
805.765	65.92
805.94	63.66
806.115	63.8
806.29	66.32
806.464	61.56
806.639	62.8
806.814	68.5
806.989	70.96
807.163	68.12
807.338	73.32
807.512	71.48
807.687	65.98
807.862	65.11
808.036	61.87
808.211	65.25
808.385	67.52
808.56	69
808.734	69.71
808.909	74.26
809.083	75.11
809.258	77.38
809.432	74.03
809.606	68.6
809.781	67.62
809.955	66.13
810.13	59.68
810.304	64.13
810.478	71.8
810.652	65.82
810.827	58.95
811.001	60.04
811.175	56.37
811.349	51.2
811.524	53.13
811.698	55.49
811.872	54.54
812.046	52.93
812.22	50.02
812.394	54.56
812.568	53.25
812.742	53.27
812.916	58.57
813.09	60.57
813.264	57.48
813.438	61.33
813.612	69.21
813.786	69.75
813.96	76.12
814.134	77.21
814.308	72.45
814.482	68.58
814.656	69.34
814.83	69.1
815.003	70.83
815.177	70.73
815.351	70.95
815.525	68.31
815.698	63.28
815.872	54.27
816.046	53.77
816.219	62.13
816.393	62.71
816.567	68.61
816.74	71.17
816.914	73.23
817.088	67.48
817.261	60.26
817.435	53.58
817.608	58.85
817.782	57.72
817.955	51.82
818.129	60.17
818.302	58.18
818.475	53.96
818.649	52
818.822	60.04
818.996	57.15
819.169	63.65
819.342	65.08
819.516	62.98
819.689	61.96
819.862	59.48
820.035	46.54
820.209	44.8
820.382	48.72
820.555	45.95
820.728	35.83
820.901	47.97
821.075	46.07
821.248	44.94
821.421	46.32
821.594	52.38
821.767	50.34
821.94	46.68
822.113	49.85
822.286	42.2
822.459	48.07
822.632	54.01
822.805	64.31
822.978	59.48
823.151	68.54
823.324	74.32
823.496	74.82
823.669	70.85
823.842	75.11
824.015	73.74
824.188	71.57
824.361	61.88
824.533	68
824.706	61.52
824.879	48.8
825.051	43.44
825.224	54.8
825.397	44.11
825.569	49.32
825.742	64.06
825.915	69.06
826.087	47.71
826.26	49.2
826.432	61.44
826.605	52.1
826.777	51.77
826.95	55.61
827.122	63.14
827.295	49.73
827.467	51.19
827.64	50.76
827.812	50.69
827.984	51.34
828.157	45.74
828.329	47.92
828.501	42.64
828.674	40.13
828.846	38.46
829.018	45.15
829.19	49.62
829.363	62.9
829.535	57.37
829.707	56.37
829.879	43.48
830.051	42.31
830.223	30.59
830.395	33.02
830.568	33.61
830.74	35.06
830.912	33.46
831.084	29.36
831.256	42.34
831.428	49.37
831.6	54.99
831.772	57.9
831.943	65.55
832.115	56.95
832.287	47.41
832.459	32.98
832.631	27.89
832.803	22.77
832.975	25.62
833.146	23.1
833.318	46.49
833.49	52.7
833.662	59.6
833.833	64.02
834.005	63.73
834.177	53.46
834.348	39.02
834.52	36.41
834.692	27.88
834.863	44.89
835.035	46.24
835.206	54.25
835.378	44.66
835.549	43.72
835.721	31.08
835.892	24.95
836.064	20.92
836.235	44.55
836.407	49.8
836.578	57.52
836.749	59.31
836.921	76.17
837.092	40.78
837.264	49.25
837.435	43.28
837.606	51.95
837.777	47.12
837.949	51.77
838.12	48.89
838.291	53.65
838.462	56.5
838.633	61.34
838.805	67.05
838.976	67.7
839.147	45.07
839.318	42.8
839.489	44.47
839.66	48.84
839.831	30.57
840.002	53.27
840.173	46.11
840.344	49.27
840.515	43.25
840.686	43.99
840.857	24.35
841.028	45.45
841.199	32.1
841.369	32.8
841.54	42.73
841.711	54.77
841.882	41.39
842.053	53.07
842.223	50.72
842.394	46.91
842.565	47.24
842.736	51.66
842.906	42.09
843.077	46
843.248	51.1
843.418	46.96
843.589	35.04
843.759	37.04
843.93	39.26
844.101	28.66
844.271	32.22
844.442	37.52
844.612	33.29
844.783	44.81
844.953	48.57
845.123	48.39
845.294	51.62
845.464	43.88
845.635	38.91
845.805	44.37
845.975	39.17
846.146	42.12
846.316	58.76
846.486	56.16
846.656	55.84
846.827	54.65
846.997	50.66
847.167	44.89
847.337	41.6
847.507	40.85
847.677	51.03
847.848	41.67
848.018	36.74
848.188	35.81
848.358	37.7
848.528	37.03
848.698	46.41
848.868	54.73
849.038	62.54
849.208	61.62
849.378	60.64
849.548	56.38
849.718	53
849.887	40.1
850.057	27.96
850.227	16.55
850.397	27.79
850.567	29.47
850.737	27.48
850.906	35.15
851.076	42.63
851.246	28.08
851.415	32.76
851.585	14.92
851.755	16.19
851.924	20.62
852.094	26.89
852.264	17.22
852.433	34.3
852.603	48.57
852.772	61.77
852.942	65.55
853.111	68.53
853.281	62.23
853.45	53.05
853.62	44.75
853.789	48.73
853.959	38.43
854.128	47.55
854.297	45.94
854.467	46.87
854.636	17.95
854.805	29.74
854.975	19.86
855.144	37.94
855.313	42.15
855.482	64.5
855.652	73.25
855.821	68.25
855.99	56.74
856.159	48.46
856.328	44.67
856.497	36.55
856.667	19.03
856.836	16.84
857.005	30.69
857.174	29.82
857.343	33.53
857.512	50.93
857.681	62.91
857.85	53.55
858.019	53.14
858.188	38.21
858.356	30.34
858.525	26.92
858.694	27.8
858.863	26.2
859.032	32.78
859.201	7.25
859.369	7.12
859.538	-2.76
859.707	4.31
859.876	-5.03
860.044	14.92
860.213	15.48
860.382	16.03
860.55	14.66
860.719	17.29
860.888	30.2
861.056	32.04
861.225	36.69
861.393	31.13
861.562	22.45
861.73	14.35
861.899	40.83
862.067	25.48
862.236	27
862.404	41.8
862.572	54
862.741	33.66
862.909	57.41
863.078	83.65
863.246	75.67
863.414	53.21
863.582	48.2
863.751	53.28
863.919	52.79
864.087	28.46
864.255	37.88
864.424	52.98
864.592	31.55
864.76	24.37
864.928	55.39
865.096	50.07
865.264	49.06
865.432	32.71
865.6	46.55
865.768	27.52
865.936	37.64
866.104	34.47
866.272	51.43
866.44	36.7
866.608	55.36
866.776	58.9
866.944	44.46
867.112	55.5
867.28	58.53
867.448	59.79
867.615	48.81
867.783	53.38
867.951	24.63
868.119	22.06
868.286	6.41
868.454	18.68
868.622	11.11
868.789	37.96
868.957	29.41
869.125	44.32
869.292	48.49
869.46	61.4
869.627	65.13
869.795	66.95
869.963	61.43
870.13	55.62
870.298	43.85
870.465	52
870.632	51.2
870.8	58.43
870.967	54.81
871.135	59.44
871.302	42.94
871.469	14.1
871.637	16.95
871.804	23.27
871.971	50.06
872.139	36.48
872.306	19.77
872.473	11.81
872.64	21.71
872.807	-9.85
872.975	13.01
873.142	35.59
873.309	24.53
873.476	16.21
873.643	4.59
873.81	-4.13
873.977	-8.09
874.144	1.15
874.311	10.67
874.478	27.65
874.645	23.71
874.812	27.17
874.979	42.14
875.146	48.48
875.313	43.7
875.48	42.8
875.647	33.64
875.813	29.56
875.98	27.38
876.147	49.65
876.314	55.56
876.481	47.61
876.647	44.25
876.814	56.9
876.981	20.6
877.147	0.82
877.314	42.65
877.481	43.46
877.647	34.04
877.814	43.83
877.98	58.86
878.147	46.82
878.314	28.9
878.48	45.48
878.647	46.77
878.813	34.98
878.979	25.16
879.146	39.56
879.312	31.3
879.479	37.15
879.645	35.46
879.811	39.13
879.978	22.5
880.144	20.87
880.31	-29.85
880.477	-26.51
880.643	2.55
880.809	0.35
880.975	-38.81
881.142	-18.37
881.308	-13.12
881.474	32.87
881.64	25.77
881.806	31.32
881.972	25.83
882.138	16.31
882.304	-81.18
882.47	9.02
882.636	-28.84
882.802	-32.84
882.968	26.63
883.134	29.66
883.3	35.89
883.466	47.59
883.632	43.7
883.798	40.43
883.964	54.52
884.129	30.57
884.295	33.11
884.461	52.21
884.627	64.82
884.793	45.06
884.958	58.55
885.124	71.63
885.29	79.43
885.455	41.93
885.621	66.85
885.787	46.47
885.952	38.18
886.118	24.89
886.283	49.8
886.449	55.82
886.614	64.67
886.78	61.15
886.945	49.53
887.111	10.9
887.276	-43.57
887.442	-13.06
887.607	15.97
887.773	34.59
887.938	36.77
888.103	50.6
888.269	44.1
888.434	43.87
888.599	41.88
888.764	45.43
888.93	32.69
889.095	41.88
889.26	41.7
889.425	1.01
889.59	13.74
889.756	28.46
889.921	-38.46
890.086	-33.33
890.251	0.52
890.416	8.37
890.581	-100.91
890.746	31.67
890.911	34.87
891.076	60.75
891.241	74.62
891.406	86.16
891.571	66.1
891.736	61.01
891.901	49.23
892.065	18.9
892.23	-7.74
892.395	2.1
892.56	3.02
892.725	8.06
892.889	29.89
893.054	43.83
893.219	51.67
893.384	49.77
893.548	46.01
893.713	43.33
893.878	35.77
