Data from Ofav_PP_Phys_9DW32_Reflection_1.txt Node
Date: Tue Aug 03 18:06:25 EDT 2021
User: Adam
Spectrometer: FLMT01687
Trigger mode: 0
Integration Time (sec): 8.750000E-1
Scans to average: 2
Electric dark correction enabled: true
Nonlinearity correction enabled: false
Boxcar width: 2
XAxis mode: Wavelengths
Number of Pixels in Spectrum: 3648
>>>>>Begin Spectral Data<<<<<
179.494	115.02
179.716	111.75
179.937	133.73
180.158	274.28
180.38	1275.44
180.601	103.12
180.823	135.32
181.044	79.06
181.265	72.06
181.486	145.77
181.708	66.77
181.929	89.97
182.15	12.41
182.372	270.46
182.593	-78.06
182.814	167.4
183.035	-98.58
183.257	292.16
183.478	122.08
183.699	176.31
183.92	21.06
184.141	-45.85
184.363	-10.17
184.584	-76.91
184.805	-17.74
185.026	-34.36
185.247	-14.74
185.468	-18.38
185.689	-19.06
185.91	-37.13
186.132	-42.76
186.353	-4.93
186.574	-15.78
186.795	-0.84
187.016	-0.72
187.237	22.53
187.458	15.68
187.679	21.72
187.9	15.74
188.121	24.4
188.342	14.35
188.563	32.47
188.784	30.97
189.005	53.84
189.226	51.39
189.447	35.39
189.667	17.65
189.888	23.25
190.109	28.43
190.33	21.08
190.551	19.96
190.772	23.57
190.993	21.07
191.214	8.86
191.434	19.1
191.655	17.45
191.876	18.75
192.097	18.36
192.318	25.48
192.538	17.26
192.759	22.98
192.98	9.23
193.201	-8.54
193.421	-14.8
193.642	-12.88
193.863	-9.06
194.083	11.08
194.304	35.73
194.525	42.25
194.745	45.12
194.966	46.58
195.187	27.57
195.407	3.3
195.628	-2.94
195.848	-16.01
196.069	-2.2
196.29	-15.56
196.51	-44.13
196.731	-31.29
196.951	-10.97
197.172	-8.98
197.392	-12.24
197.613	-6.9
197.833	-18.44
198.054	-16.96
198.274	-38.55
198.495	-26.89
198.715	-13.17
198.936	-3.84
199.156	-17.08
199.377	0.95
199.597	20.75
199.817	47.46
200.038	44.52
200.258	57.3
200.479	16.85
200.699	17.51
200.919	-31.6
201.14	24.06
201.36	41.42
201.58	52.96
201.801	36.91
202.021	37.96
202.241	11.58
202.461	5.67
202.682	17.26
202.902	41.38
203.122	52.27
203.342	61.75
203.563	42.56
203.783	19.21
204.003	14.69
204.223	14.22
204.443	11.47
204.663	17.89
204.884	20.6
205.104	13.25
205.324	11.4
205.544	-14.24
205.764	-2.24
205.984	-44.23
206.204	-24.08
206.424	-86.22
206.644	3.33
206.864	-23.27
207.084	27.06
207.304	18.89
207.525	48.54
207.745	39.99
207.964	29.79
208.184	11.01
208.404	19.57
208.624	36.84
208.844	35.31
209.064	56.86
209.284	68.7
209.504	44.78
209.724	16.57
209.944	12.23
210.164	-31.01
210.384	-28.08
210.604	-23.67
210.823	-21.49
211.043	7.71
211.263	5.18
211.483	11.35
211.703	29.79
211.922	7.69
212.142	9.64
212.362	19.23
212.582	36.71
212.801	26.21
213.021	48.08
213.241	40.88
213.461	65.29
213.68	51.1
213.9	47.66
214.12	31.29
214.339	39.9
214.559	11.99
214.779	13.88
214.998	21.27
215.218	38.51
215.438	25.89
215.657	25.16
215.877	14.84
216.096	-3.58
216.316	-28.24
216.535	-61.94
216.755	-77.98
216.974	-46.46
217.194	-21.97
217.413	27.56
217.633	27.28
217.852	37.66
218.072	41.84
218.291	29.26
218.511	17.11
218.73	32.19
218.95	29.18
219.169	29.95
219.389	27.55
219.608	3.22
219.827	-7.66
220.047	-28.9
220.266	-18.99
220.485	-1.8
220.705	21
220.924	21.71
221.143	36.31
221.363	40.31
221.582	44.57
221.801	20.73
222.021	3.24
222.24	-0.47
222.459	-41.23
222.678	-5.36
222.897	16.54
223.117	31.77
223.336	-47.24
223.555	30.84
223.774	-87.88
223.993	-88.55
224.213	-74.98
224.432	-14.77
224.651	1.88
224.87	27.42
225.089	40.9
225.308	35.73
225.527	13.5
225.746	-23.83
225.965	-5.48
226.184	-21.68
226.404	37.67
226.623	77.84
226.842	79.69
227.061	41.51
227.28	46.3
227.499	43.14
227.718	23.09
227.936	1.49
228.155	16.9
228.374	20.09
228.593	3.95
228.812	-15.66
229.031	6.74
229.25	24.83
229.469	-10.6
229.688	-42.95
229.907	-98.96
230.125	-93.35
230.344	-96.66
230.563	-83.53
230.782	-36.92
231.001	10.68
231.22	14
231.438	34.94
231.657	25.67
231.876	7.86
232.095	-4.66
232.313	-18.84
232.532	-60.86
232.751	-7.31
232.969	8.32
233.188	25.38
233.407	35.24
233.625	47.06
233.844	8.09
234.063	1.01
234.281	-9.22
234.5	-1.36
234.719	-43.06
234.937	18.87
235.156	14.91
235.374	19.75
235.593	22.71
235.811	38.32
236.03	31.05
236.249	53.67
236.467	55.25
236.686	50.61
236.904	54.02
237.123	53.24
237.341	52.72
237.559	53.71
237.778	43.95
237.996	32.18
238.215	29.75
238.433	13.61
238.652	8.36
238.87	18.46
239.088	22.3
239.307	18.61
239.525	14.7
239.743	20.4
239.962	26.87
240.18	37.58
240.398	45.49
240.617	72.95
240.835	53.28
241.053	31.77
241.271	24.48
241.49	31.9
241.708	8.41
241.926	5.43
242.144	8.32
242.363	12.67
242.581	5.15
242.799	4.75
243.017	-3.02
243.235	21.04
243.453	20.01
243.672	24.37
243.89	26.24
244.108	32.98
244.326	4.09
244.544	0.57
244.762	-2.61
244.98	-14.33
245.198	0.7
245.416	28.17
245.634	40.51
245.852	38.68
246.07	36.46
246.288	17.44
246.506	10.33
246.724	4.34
246.942	0.28
247.16	27.31
247.378	30.95
247.596	46.49
247.814	52.99
248.032	52.92
248.25	34.13
248.468	46.6
248.685	32.98
248.903	-0.19
249.121	0.79
249.339	4.31
249.557	8.37
249.775	-7.54
249.992	24.39
250.21	12.64
250.428	6.5
250.646	-22.55
250.863	-0.38
251.081	-21.85
251.299	-31.91
251.517	-13.9
251.734	5.51
251.952	-3.36
252.17	-9.85
252.387	-15.65
252.605	17.58
252.823	-20.69
253.04	-21.9
253.258	36.72
253.475	48.24
253.693	30.75
253.911	53.12
254.128	57.51
254.346	46.26
254.563	47.2
254.781	59.22
254.998	39.42
255.216	14.33
255.433	-2.64
255.651	-4.73
255.868	-40.99
256.086	-63.06
256.303	-35.14
256.521	-23.17
256.738	-44.89
256.956	-15.13
257.173	4.66
257.39	9.8
257.608	15.01
257.825	41.81
258.043	50.15
258.26	50.59
258.477	53.01
258.695	63.31
258.912	38.03
259.129	33.28
259.346	35.84
259.564	28.99
259.781	21.9
259.998	39.32
260.216	33.84
260.433	17.86
260.65	32.3
260.867	32.07
261.084	15.23
261.302	12.23
261.519	8.15
261.736	4.03
261.953	17.45
262.17	15.9
262.387	29.67
262.604	45.77
262.822	56.31
263.039	46.68
263.256	54.27
263.473	55.1
263.69	54.07
263.907	51.11
264.124	24.04
264.341	1.49
264.558	-53.19
264.775	-36.18
264.992	-46.58
265.209	-32.15
265.426	-17
265.643	17.34
265.86	13.52
266.077	25.67
266.294	30.2
266.51	39.14
266.727	48.4
266.944	61.72
267.161	57.72
267.378	61.96
267.595	42.85
267.812	18.6
268.028	10.1
268.245	21.18
268.462	23.32
268.679	29.95
268.896	46.82
269.112	44.36
269.329	20.88
269.546	2.71
269.763	31.41
269.979	12.52
270.196	22.32
270.413	22.23
270.629	17.4
270.846	8.04
271.063	11.13
271.279	2.12
271.496	10
271.712	14.3
271.929	19.24
272.146	31.53
272.362	33.23
272.579	36.69
272.795	36.18
273.012	19.46
273.228	20.43
273.445	7.95
273.661	-2.7
273.878	0.54
274.094	12.67
274.311	-9.1
274.527	-17.67
274.744	-12.76
274.96	-15.19
275.177	-59.98
275.393	-2.74
275.609	11.55
275.826	5.47
276.042	4.46
276.259	26.1
276.475	-4.19
276.691	4.68
276.908	12.34
277.124	26.22
277.34	17.43
277.557	13.74
277.773	7.85
277.989	12.24
278.205	10.79
278.422	15.69
278.638	27.88
278.854	29.17
279.07	22.23
279.286	8.09
279.503	19.93
279.719	7.36
279.935	0.32
280.151	-0.79
280.367	-4.84
280.583	-36.88
280.799	-28.63
281.016	-27.15
281.232	-31.19
281.448	-21.47
281.664	-29.32
281.88	-22.79
282.096	1.74
282.312	-9.6
282.528	10.67
282.744	35.83
282.96	49.81
283.176	48.81
283.392	65.2
283.608	55.38
283.824	47.95
284.04	31.22
284.256	26.25
284.471	14.3
284.687	10.41
284.903	9.33
285.119	8.19
285.335	-5.42
285.551	-5.33
285.767	1.9
285.982	-10.74
286.198	8.67
286.414	13.49
286.63	6.05
286.846	-12.42
287.061	2.96
287.277	-35.54
287.493	-23.22
287.709	-44.21
287.924	-6.34
288.14	-20.47
288.356	2.28
288.571	8.45
288.787	32.1
289.003	9.24
289.218	-1.68
289.434	5.8
289.65	0.47
289.865	-10.36
290.081	-7.1
290.296	11.72
290.512	19.73
290.727	11.19
290.943	25.81
291.159	31.83
291.374	26.01
291.59	17.39
291.805	30.28
292.021	38.91
292.236	36.62
292.451	29.76
292.667	42.63
292.882	24.86
293.098	1.69
293.313	-4.22
293.529	8.69
293.744	-12.53
293.959	7.9
294.175	11.87
294.39	15.95
294.605	28.96
294.821	27.74
295.036	22.12
295.251	18.28
295.467	9.59
295.682	2.36
295.897	-21.52
296.112	-13.73
296.328	-1.18
296.543	15.53
296.758	16
296.973	40.36
297.188	42.81
297.404	41.86
297.619	41.02
297.834	29.15
298.049	17.5
298.264	21.18
298.479	12.71
298.694	0.2
298.909	8.81
299.125	12.81
299.34	3.55
299.555	2.98
299.77	4.44
299.985	21.2
300.2	24.45
300.415	25.54
300.63	23.51
300.845	32.93
301.06	13.1
301.275	8.75
301.49	14.22
301.704	19.61
301.919	22.34
302.134	28.46
302.349	20.95
302.564	36.08
302.779	44.08
302.994	34.24
303.209	25.81
303.423	28.18
303.638	11.77
303.853	1.43
304.068	14.09
304.283	31.36
304.497	39.28
304.712	39.93
304.927	40.67
305.142	44.2
305.356	32.23
305.571	22.17
305.786	29.69
306	26.34
306.215	8.1
306.43	21.14
306.644	11.5
306.859	17.34
307.074	24.81
307.288	32.06
307.503	28.08
307.717	27.48
307.932	-2.63
308.147	-14.95
308.361	-28.41
308.576	-51.3
308.79	-15.38
309.005	25.71
309.219	32.55
309.434	29.29
309.648	37.73
309.863	1.15
310.077	-25.48
310.292	-2.03
310.506	9.53
310.72	12.92
310.935	14.55
311.149	9.74
311.364	-19.23
311.578	-35.98
311.792	-26.97
312.007	-25.19
312.221	-11.93
312.435	-11.02
312.649	15.15
312.864	-28.23
313.078	-6.32
313.292	-11.48
313.507	2.08
313.721	-13.54
313.935	15.08
314.149	5.98
314.363	26.9
314.578	16.61
314.792	10.36
315.006	1.77
315.22	23.51
315.434	10.81
315.648	-2.91
315.862	25.49
316.077	21.15
316.291	18.51
316.505	7.94
316.719	15.43
316.933	23.18
317.147	25.36
317.361	28.3
317.575	41.78
317.789	50.63
318.003	51.53
318.217	42.08
318.431	30.5
318.645	25.88
318.859	12.89
319.073	-1.19
319.287	24.69
319.5	27.71
319.714	40.13
319.928	37.86
320.142	29.94
320.356	18.31
320.57	25.85
320.784	8.87
320.997	12.43
321.211	31.75
321.425	29.76
321.639	34.33
321.853	13.03
322.066	2.74
322.28	11.34
322.494	13.59
322.707	-26.97
322.921	0.03
323.135	9.64
323.349	7.2
323.562	8.87
323.776	33.11
323.989	30.02
324.203	37.34
324.417	33.45
324.63	37.25
324.844	23.74
325.057	25.43
325.271	8.44
325.485	6.58
325.698	-9.04
325.912	-7.7
326.125	24.27
326.339	10.63
326.552	-1.32
326.766	-0.9
326.979	9.74
327.193	-2.45
327.406	12.85
327.619	24.74
327.833	20.06
328.046	13.78
328.26	20.89
328.473	16.19
328.686	13.22
328.9	25.77
329.113	33.48
329.326	33.2
329.54	39.64
329.753	48.4
329.966	47.78
330.179	47.77
330.393	34.29
330.606	29.78
330.819	32
331.032	26.94
331.246	20.11
331.459	16.41
331.672	11.66
331.885	0.29
332.098	0.04
332.311	22.67
332.525	22.27
332.738	28.33
332.951	30.56
333.164	27.79
333.377	33.67
333.59	30.99
333.803	30.51
334.016	25.01
334.229	31.54
334.442	-25.61
334.655	-5.85
334.868	-21.25
335.081	-36.37
335.294	-32.01
335.507	9.31
335.72	13.36
335.933	19.25
336.146	32.81
336.359	14.11
336.572	10.28
336.785	-5.44
336.997	-0.5
337.21	-29.16
337.423	-6.89
337.636	18.4
337.849	10.58
338.062	10.44
338.274	-0.14
338.487	9.97
338.7	1.58
338.913	14.25
339.125	11.04
339.338	27.94
339.551	17.12
339.763	-3.82
339.976	-2.54
340.189	3.39
340.402	-0.27
340.614	-11.32
340.827	18.07
341.039	26.16
341.252	25.24
341.465	31.02
341.677	41.94
341.89	34.53
342.102	18.98
342.315	11.28
342.527	10.44
342.74	12.53
342.952	-1.22
343.165	20.16
343.377	3.96
343.59	1.92
343.802	-5.65
344.015	-18.66
344.227	-21.77
344.44	17.29
344.652	19.89
344.864	15.37
345.077	33.67
345.289	-17.5
345.502	-44.46
345.714	-44.3
345.926	-24.65
346.139	-26.33
346.351	10.03
346.563	15.8
346.775	29.51
346.988	27.01
347.2	22.05
347.412	25.44
347.624	22.34
347.837	11.54
348.049	22.33
348.261	15.73
348.473	5.17
348.685	6.92
348.897	13.77
349.11	10.11
349.322	2.05
349.534	1.68
349.746	-7.32
349.958	-18.94
350.17	-28.79
350.382	-26.63
350.594	-14.78
350.806	-5.89
351.018	9.77
351.23	16.11
351.442	29.25
351.654	18.32
351.866	12.72
352.078	11.58
352.29	23.71
352.502	25.55
352.714	24.42
352.926	32.54
353.138	14.15
353.35	4.33
353.561	17.02
353.773	16.53
353.985	20.11
354.197	26.27
354.409	31.7
354.621	22.47
354.832	26.87
355.044	22.2
355.256	28.81
355.468	23.65
355.679	28.72
355.891	30.04
356.103	31.78
356.314	30.26
356.526	30.16
356.738	35.78
356.949	35.09
357.161	12.92
357.373	14.39
357.584	14.6
357.796	1.6
358.008	-6.48
358.219	23.42
358.431	20.97
358.642	31.04
358.854	30.07
359.065	21.68
359.277	24.15
359.488	21.21
359.7	15.93
359.911	17.83
360.123	19.94
360.334	20.91
360.546	2.92
360.757	-1.18
360.969	-8.83
361.18	11.3
361.391	16.28
361.603	30.91
361.814	28.46
362.025	43.01
362.237	40.46
362.448	30.95
362.659	24.97
362.871	24.95
363.082	14.02
363.293	2.44
363.504	10.18
363.716	23.68
363.927	25.68
364.138	27.09
364.349	30.82
364.56	34.04
364.772	27.8
364.983	15.71
365.194	17.01
365.405	7.92
365.616	4.26
365.827	5.57
366.038	9.7
366.25	-2.04
366.461	9.99
366.672	10.09
366.883	10.41
367.094	16.01
367.305	20.34
367.516	0.92
367.727	12.63
367.938	15.65
368.149	8.36
368.36	13.48
368.571	37
368.781	30.97
368.992	17.65
369.203	45.74
369.414	43.08
369.625	31.91
369.836	16.36
370.047	18.17
370.258	-1.92
370.468	0.92
370.679	12.77
370.89	28.41
371.101	39.55
371.312	43.18
371.522	39.53
371.733	39.06
371.944	36.97
372.155	24.94
372.365	16.13
372.576	23.26
372.787	21.36
372.997	14.7
373.208	22.09
373.419	27.71
373.629	11.21
373.84	18.47
374.05	10.73
374.261	11.71
374.472	12.54
374.682	13.66
374.893	4.26
375.103	2.85
375.314	-2.11
375.524	-5.51
375.735	10.59
375.945	17.5
376.156	26.57
376.366	31.53
376.577	39.52
376.787	31.33
376.997	32.04
377.208	29.52
377.418	20.68
377.629	20.33
377.839	17.23
378.049	11.88
378.26	5.14
378.47	7.75
378.68	0.48
378.89	14.42
379.101	8.65
379.311	11.16
379.521	14.17
379.732	20.36
379.942	11.4
380.152	21.11
380.362	18.12
380.572	12.2
380.783	14.75
380.993	16.54
381.203	12.88
381.413	11.94
381.623	13.66
381.833	9.62
382.043	9.01
382.253	11.59
382.463	19.58
382.674	22.03
382.884	19.13
383.094	12.32
383.304	13.29
383.514	6.42
383.724	0.78
383.934	4.18
384.144	13.78
384.353	6.76
384.563	3.26
384.773	7.03
384.983	1.34
385.193	-5.59
385.403	-2.57
385.613	-0.21
385.823	3.1
386.033	3.94
386.242	12.28
386.452	13.48
386.662	14.09
386.872	12.37
387.082	12.75
387.291	4.27
387.501	1.59
387.711	1.77
387.921	1.72
388.13	3.34
388.34	3.02
388.55	5.62
388.759	7.22
388.969	7.02
389.179	6.32
389.388	6.46
389.598	6.21
389.807	1.95
390.017	2.5
390.227	3.18
390.436	4.4
390.646	2.96
390.855	5.33
391.065	4.54
391.274	4.58
391.484	5.6
391.693	7.11
391.903	6.1
392.112	6.87
392.322	7.21
392.531	6.23
392.74	4.18
392.95	5.03
393.159	3.26
393.369	3.43
393.578	3.35
393.787	5.66
393.997	5.79
394.206	6.61
394.415	5.6
394.625	6.22
394.834	5.23
395.043	4.74
395.252	4.8
395.462	5.33
395.671	3.99
395.88	3.88
396.089	3.89
396.298	4.13
396.508	4.49
396.717	5.42
396.926	5.31
397.135	5.02
397.344	4.83
397.553	3.72
397.762	3.24
397.971	3.4
398.181	3.39
398.39	3.8
398.599	4.03
398.808	4.35
399.017	4.1
399.226	3.96
399.435	3.44
399.644	3.39
399.853	3.18
400.062	3.28
400.27	3.59
400.479	3.84
400.688	3.89
400.897	4.08
401.106	3.82
401.315	4.04
401.524	4.11
401.733	3.93
401.941	3.71
402.15	3.86
402.359	3.66
402.568	3.42
402.777	3.41
402.985	3.59
403.194	3.62
403.403	3.47
403.612	3.45
403.82	3.65
404.029	3.56
404.238	3.7
404.446	3.65
404.655	3.63
404.864	3.57
405.072	3.53
405.281	3.36
405.489	3.31
405.698	3.3
405.906	3.29
406.115	3.32
406.324	3.35
406.532	3.36
406.741	3.5
406.949	3.4
407.158	3.41
407.366	3.41
407.574	3.44
407.783	3.31
407.991	3.32
408.2	3.13
408.408	3.01
408.617	3.15
408.825	3.22
409.033	3.28
409.242	3.29
409.45	3.31
409.658	3.29
409.867	3.15
410.075	3.2
410.283	3.32
410.491	3.27
410.7	3.11
410.908	3.08
411.116	2.95
411.324	2.99
411.533	3.01
411.741	3.03
411.949	3.06
412.157	3.09
412.365	3.02
412.573	3.06
412.781	3.11
412.99	3.13
413.198	3.11
413.406	3.1
413.614	3.04
413.822	3.05
414.03	3.08
414.238	3.14
414.446	3.13
414.654	3.22
414.862	3.15
415.07	2.95
415.278	2.85
415.486	2.82
415.694	2.89
415.902	2.79
416.109	2.99
416.317	3.09
416.525	3.08
416.733	3.13
416.941	3.25
417.149	3.25
417.357	3.2
417.564	3.24
417.772	2.98
417.98	3.03
418.188	3.02
418.395	3.01
418.603	2.91
418.811	2.99
419.019	2.84
419.226	2.73
419.434	2.56
419.642	2.62
419.849	2.59
420.057	2.64
420.265	2.63
420.472	2.85
420.68	2.81
420.887	2.84
421.095	2.66
421.302	2.77
421.51	2.64
421.717	2.62
421.925	2.41
422.132	2.54
422.34	2.64
422.547	2.52
422.755	2.58
422.962	2.9
423.17	2.96
423.377	2.88
423.585	3.02
423.792	3.07
423.999	2.88
424.207	2.98
424.414	2.79
424.621	2.7
424.829	2.67
425.036	2.87
425.243	2.76
425.451	2.87
425.658	2.91
425.865	2.85
426.072	2.67
426.28	2.55
426.487	2.62
426.694	2.58
426.901	2.67
427.108	2.83
427.315	3.01
427.523	2.93
427.73	2.94
427.937	2.9
428.144	2.79
428.351	2.83
428.558	2.69
428.765	2.73
428.972	2.78
429.179	2.69
429.386	2.58
429.593	2.73
429.8	2.87
430.007	2.83
430.214	2.97
430.421	3.01
430.628	2.96
430.835	2.93
431.042	2.86
431.249	2.77
431.456	2.85
431.662	3.02
431.869	3.06
432.076	3.18
432.283	3.24
432.49	3.1
432.697	3.09
432.903	3.17
433.11	3.1
433.317	3.04
433.524	3.14
433.73	3.09
433.937	3.02
434.144	2.99
434.35	3.08
434.557	3.11
434.764	3.18
434.97	3.2
435.177	3.34
435.384	3.36
435.59	3.31
435.797	3.15
436.003	3.02
436.21	2.97
436.416	2.99
436.623	2.88
436.829	3.11
437.036	3.22
437.242	3.24
437.449	3.1
437.655	3.27
437.862	3.15
438.068	3.1
438.275	3.1
438.481	3.16
438.687	3.16
438.894	3.24
439.1	3.33
439.307	3.34
439.513	3.35
439.719	3.3
439.926	3.2
440.132	3.27
440.338	3.34
440.544	3.31
440.751	3.32
440.957	3.41
441.163	3.29
441.369	3.26
441.575	3.38
441.782	3.5
441.988	3.52
442.194	3.63
442.4	3.62
442.606	3.58
442.812	3.6
443.018	3.49
443.224	3.41
443.431	3.41
443.637	3.47
443.843	3.44
444.049	3.51
444.255	3.66
444.461	3.78
444.667	3.73
444.873	3.72
445.079	3.77
445.284	3.68
445.49	3.67
445.696	3.78
445.902	3.74
446.108	3.74
446.314	3.72
446.52	3.83
446.726	3.69
446.931	3.76
447.137	3.77
447.343	3.89
447.549	3.78
447.755	3.91
447.96	3.84
448.166	3.86
448.372	3.7
448.578	3.67
448.783	3.64
448.989	3.64
449.195	3.56
449.4	3.65
449.606	3.73
449.812	3.71
450.017	3.81
450.223	3.92
450.428	4.02
450.634	4.01
450.84	4.03
451.045	4.01
451.251	4.05
451.456	4.03
451.662	3.93
451.867	3.85
452.073	3.89
452.278	3.81
452.483	3.71
452.689	3.75
452.894	3.84
453.1	3.84
453.305	3.79
453.51	3.84
453.716	3.88
453.921	3.91
454.127	3.95
454.332	4.11
454.537	4.14
454.742	4.16
454.948	4.15
455.153	4.13
455.358	4.11
455.563	4.03
455.769	4.01
455.974	4.02
456.179	3.91
456.384	3.86
456.589	3.92
456.795	4.01
457	3.98
457.205	4.03
457.41	4.02
457.615	4.1
457.82	3.94
458.025	4.01
458.23	4.04
458.435	3.95
458.64	3.93
458.845	4.07
459.05	4.1
459.255	4.15
459.46	4.23
459.665	4.28
459.87	4.24
460.075	4.17
460.28	4.16
460.485	4.17
460.69	4.04
460.895	4.04
461.099	4.15
461.304	4.15
461.509	4.17
461.714	4.28
461.919	4.28
462.123	4.17
462.328	4.19
462.533	4.27
462.738	4.22
462.942	4.26
463.147	4.31
463.352	4.27
463.556	4.35
463.761	4.34
463.966	4.35
464.17	4.35
464.375	4.5
464.58	4.46
464.784	4.49
464.989	4.52
465.193	4.51
465.398	4.44
465.602	4.28
465.807	4.4
466.011	4.46
466.216	4.47
466.42	4.5
466.625	4.68
466.829	4.52
467.034	4.52
467.238	4.53
467.443	4.57
467.647	4.58
467.851	4.72
468.056	4.73
468.26	4.71
468.464	4.67
468.669	4.59
468.873	4.39
469.077	4.36
469.282	4.39
469.486	4.36
469.69	4.34
469.894	4.54
470.099	4.58
470.303	4.6
470.507	4.7
470.711	4.76
470.915	4.69
471.119	4.71
471.324	4.81
471.528	4.81
471.732	4.79
471.936	4.91
472.14	4.75
472.344	4.67
472.548	4.72
472.752	4.74
472.956	4.67
473.16	4.74
473.364	4.82
473.568	4.85
473.772	4.83
473.976	4.9
474.18	4.98
474.384	4.96
474.588	4.89
474.792	5.07
474.995	5.02
475.199	5.03
475.403	4.98
475.607	4.99
475.811	4.98
476.015	5.03
476.218	4.98
476.422	5.03
476.626	5.08
476.83	4.99
477.033	5.03
477.237	5.09
477.441	5.04
477.644	4.99
477.848	5.06
478.052	5.03
478.255	5.05
478.459	5.09
478.663	5.11
478.866	5.08
479.07	5.04
479.273	5.04
479.477	4.95
479.681	4.97
479.884	4.94
480.088	4.92
480.291	4.91
480.495	4.95
480.698	4.97
480.901	5.02
481.105	5.01
481.308	5.05
481.512	5.14
481.715	5.18
481.919	5.18
482.122	5.29
482.325	5.29
482.529	5.31
482.732	5.35
482.935	5.37
483.138	5.28
483.342	5.28
483.545	5.23
483.748	5.12
483.952	5.06
484.155	5.07
484.358	5.04
484.561	5.03
484.764	5.1
484.967	5.09
485.171	5.08
485.374	5.12
485.577	5.13
485.78	5.13
485.983	5.15
486.186	5.16
486.389	5.18
486.592	5.14
486.795	5.16
486.998	5.19
487.201	5.23
487.404	5.22
487.607	5.35
487.81	5.32
488.013	5.29
488.216	5.23
488.419	5.22
488.622	5.14
488.825	5.15
489.028	5.16
489.231	5.23
489.433	5.22
489.636	5.23
489.839	5.21
490.042	5.29
490.245	5.35
490.447	5.34
490.65	5.36
490.853	5.34
491.056	5.25
491.258	5.19
491.461	5.21
491.664	5.14
491.866	5.2
492.069	5.22
492.272	5.2
492.474	5.2
492.677	5.25
492.879	5.18
493.082	5.15
493.285	5.18
493.487	5.21
493.69	5.27
493.892	5.32
494.095	5.4
494.297	5.39
494.5	5.36
494.702	5.29
494.905	5.36
495.107	5.28
495.309	5.32
495.512	5.38
495.714	5.38
495.917	5.3
496.119	5.27
496.321	5.27
496.524	5.23
496.726	5.3
496.928	5.33
497.13	5.44
497.333	5.4
497.535	5.45
497.737	5.47
497.939	5.49
498.142	5.4
498.344	5.42
498.546	5.4
498.748	5.31
498.95	5.35
499.152	5.45
499.355	5.48
499.557	5.45
499.759	5.45
499.961	5.42
500.163	5.44
500.365	5.45
500.567	5.41
500.769	5.5
500.971	5.53
501.173	5.54
501.375	5.53
501.577	5.64
501.779	5.69
501.981	5.68
502.183	5.68
502.385	5.69
502.587	5.67
502.788	5.58
502.99	5.58
503.192	5.64
503.394	5.66
503.596	5.73
503.798	5.76
503.999	5.76
504.201	5.68
504.403	5.68
504.605	5.69
504.806	5.75
505.008	5.79
505.21	5.77
505.411	5.83
505.613	5.78
505.815	5.8
506.016	5.77
506.218	5.84
506.42	5.79
506.621	5.78
506.823	5.73
507.024	5.75
507.226	5.72
507.427	5.75
507.629	5.81
507.83	5.81
508.032	5.75
508.233	5.76
508.435	5.72
508.636	5.67
508.838	5.67
509.039	5.72
509.24	5.77
509.442	5.75
509.643	5.75
509.845	5.79
510.046	5.78
510.247	5.7
510.448	5.72
510.65	5.73
510.851	5.71
511.052	5.71
511.254	5.84
511.455	5.82
511.656	5.82
511.857	5.78
512.058	5.76
512.26	5.61
512.461	5.65
512.662	5.65
512.863	5.68
513.064	5.76
513.265	5.82
513.466	5.83
513.667	5.83
513.868	5.84
514.069	5.82
514.27	5.75
514.471	5.72
514.672	5.76
514.873	5.78
515.074	5.75
515.275	5.84
515.476	5.93
515.677	5.89
515.878	5.92
516.079	5.91
516.28	5.88
516.481	5.83
516.682	5.87
516.882	5.89
517.083	5.9
517.284	5.91
517.485	5.84
517.686	5.82
517.886	5.8
518.087	5.73
518.288	5.69
518.488	5.72
518.689	5.7
518.89	5.7
519.091	5.75
519.291	5.78
519.492	5.8
519.692	5.81
519.893	5.73
520.094	5.73
520.294	5.75
520.495	5.81
520.695	5.83
520.896	5.93
521.096	5.97
521.297	6.02
521.497	5.98
521.698	5.96
521.898	5.9
522.099	5.9
522.299	5.87
522.499	5.87
522.7	5.88
522.9	5.95
523.101	5.92
523.301	5.97
523.501	5.99
523.702	5.98
523.902	5.92
524.102	5.92
524.302	5.9
524.503	5.87
524.703	5.9
524.903	5.94
525.103	6.01
525.304	5.96
525.504	5.96
525.704	5.95
525.904	5.93
526.104	5.89
526.304	5.96
526.504	5.96
526.705	5.97
526.905	6.02
527.105	5.99
527.305	5.95
527.505	5.99
527.705	6
527.905	5.95
528.105	6.03
528.305	6.06
528.505	6.11
528.705	6.12
528.905	6.15
529.105	6.09
529.304	6.1
529.504	6.08
529.704	6.07
529.904	6.08
530.104	6.12
530.304	6.16
530.503	6.18
530.703	6.15
530.903	6.15
531.103	6.08
531.303	6.05
531.502	6.06
531.702	6.1
531.902	6.08
532.101	6.17
532.301	6.17
532.501	6.18
532.7	6.21
532.9	6.29
533.1	6.25
533.299	6.32
533.499	6.31
533.698	6.27
533.898	6.28
534.097	6.31
534.297	6.3
534.496	6.3
534.696	6.32
534.895	6.33
535.095	6.35
535.294	6.39
535.494	6.38
535.693	6.41
535.892	6.39
536.092	6.4
536.291	6.36
536.491	6.46
536.69	6.44
536.889	6.45
537.088	6.49
537.288	6.49
537.487	6.43
537.686	6.46
537.886	6.47
538.085	6.45
538.284	6.44
538.483	6.49
538.682	6.5
538.882	6.55
539.081	6.57
539.28	6.61
539.479	6.65
539.678	6.64
539.877	6.62
540.076	6.67
540.275	6.74
540.474	6.68
540.673	6.75
540.872	6.79
541.071	6.79
541.27	6.8
541.469	6.82
541.668	6.83
541.867	6.89
542.066	6.98
542.265	7
542.464	7.06
542.663	7.09
542.862	7.06
543.06	7.04
543.259	7.05
543.458	7.09
543.657	7.11
543.856	7.17
544.054	7.15
544.253	7.19
544.452	7.23
544.651	7.22
544.849	7.25
545.048	7.33
545.247	7.38
545.445	7.32
545.644	7.43
545.843	7.41
546.041	7.39
546.24	7.36
546.438	7.4
546.637	7.44
546.836	7.52
547.034	7.55
547.233	7.64
547.431	7.72
547.63	7.73
547.828	7.78
548.027	7.82
548.225	7.86
548.423	7.9
548.622	7.91
548.82	7.94
549.019	8.03
549.217	7.99
549.415	8.03
549.614	8.11
549.812	8.09
550.01	8.13
550.209	8.24
550.407	8.29
550.605	8.26
550.803	8.3
551.002	8.36
551.2	8.36
551.398	8.42
551.596	8.51
551.794	8.62
551.993	8.62
552.191	8.7
552.389	8.72
552.587	8.76
552.785	8.85
552.983	8.93
553.181	8.97
553.379	9.06
553.577	9.16
553.775	9.17
553.973	9.18
554.171	9.3
554.369	9.38
554.567	9.46
554.765	9.52
554.963	9.63
555.161	9.62
555.359	9.65
555.557	9.65
555.755	9.71
555.952	9.74
556.15	9.82
556.348	9.86
556.546	9.89
556.744	9.94
556.941	9.97
557.139	10.06
557.337	10.16
557.535	10.29
557.732	10.35
557.93	10.45
558.128	10.46
558.325	10.42
558.523	10.43
558.721	10.53
558.918	10.61
559.116	10.79
559.313	10.9
559.511	10.97
559.708	11.01
559.906	11.08
560.104	11.09
560.301	11.17
560.498	11.24
560.696	11.31
560.893	11.4
561.091	11.45
561.288	11.52
561.486	11.59
561.683	11.64
561.88	11.68
562.078	11.76
562.275	11.85
562.473	11.94
562.67	11.96
562.867	11.97
563.064	12.06
563.262	12.05
563.459	12.12
563.656	12.11
563.853	12.16
564.051	12.15
564.248	12.26
564.445	12.25
564.642	12.37
564.839	12.45
565.036	12.61
565.234	12.6
565.431	12.68
565.628	12.71
565.825	12.72
566.022	12.68
566.219	12.77
566.416	12.82
566.613	12.93
566.81	12.96
567.007	13.03
567.204	13.11
567.401	13.1
567.598	13.06
567.795	13.15
567.991	13.16
568.188	13.19
568.385	13.13
568.582	13.26
568.779	13.33
568.976	13.32
569.172	13.37
569.369	13.56
569.566	13.5
569.763	13.4
569.96	13.5
570.156	13.5
570.353	13.45
570.55	13.52
570.746	13.59
570.943	13.57
571.14	13.52
571.336	13.65
571.533	13.64
571.729	13.73
571.926	13.74
572.123	13.69
572.319	13.66
572.516	13.64
572.712	13.67
572.909	13.74
573.105	13.84
573.302	13.79
573.498	13.85
573.695	13.74
573.891	13.67
574.087	13.68
574.284	13.71
574.48	13.72
574.677	13.74
574.873	13.71
575.069	13.74
575.266	13.78
575.462	13.74
575.658	13.66
575.854	13.7
576.051	13.68
576.247	13.62
576.443	13.57
576.639	13.7
576.835	13.75
577.032	13.72
577.228	13.74
577.424	13.74
577.62	13.7
577.816	13.61
578.012	13.62
578.208	13.55
578.404	13.62
578.6	13.65
578.796	13.68
578.993	13.67
579.189	13.73
579.384	13.62
579.58	13.57
579.776	13.59
579.972	13.58
580.168	13.55
580.364	13.58
580.56	13.58
580.756	13.48
580.952	13.44
581.148	13.33
581.343	13.31
581.539	13.26
581.735	13.32
581.931	13.29
582.127	13.37
582.322	13.36
582.518	13.39
582.714	13.38
582.909	13.37
583.105	13.29
583.301	13.27
583.496	13.25
583.692	13.24
583.888	13.26
584.083	13.32
584.279	13.3
584.474	13.21
584.67	13.07
584.866	13.05
585.061	13
585.257	12.97
585.452	13.05
585.648	13.14
585.843	13.18
586.039	13.18
586.234	13.15
586.429	13.14
586.625	13.11
586.82	13.01
587.015	13
587.211	13.07
587.406	13.05
587.601	13.05
587.797	13.06
587.992	13.05
588.187	13.02
588.383	12.96
588.578	12.98
588.773	13.03
588.968	13.05
589.163	13.1
589.359	13.18
589.554	13.23
589.749	13.23
589.944	13.3
590.139	13.24
590.334	13.25
590.529	13.22
590.724	13.23
590.919	13.18
591.114	13.36
591.309	13.34
591.504	13.37
591.699	13.36
591.894	13.49
592.089	13.34
592.284	13.42
592.479	13.43
592.674	13.51
592.869	13.46
593.064	13.58
593.259	13.59
593.454	13.64
593.648	13.69
593.843	13.84
594.038	13.88
594.233	13.88
594.428	13.86
594.622	13.84
594.817	13.84
595.012	13.86
595.206	14.01
595.401	14.08
595.596	14.16
595.79	14.13
595.985	14.18
596.18	14.21
596.374	14.31
596.569	14.38
596.763	14.44
596.958	14.5
597.153	14.47
597.347	14.51
597.542	14.52
597.736	14.59
597.931	14.62
598.125	14.75
598.319	14.84
598.514	14.95
598.708	15.04
598.903	15.14
599.097	15.18
599.291	15.16
599.486	15.14
599.68	15.15
599.874	15.16
600.069	15.2
600.263	15.27
600.457	15.41
600.651	15.42
600.846	15.49
601.04	15.49
601.234	15.53
601.428	15.48
601.622	15.52
601.817	15.48
602.011	15.56
602.205	15.56
602.399	15.54
602.593	15.65
602.787	15.71
602.981	15.7
603.175	15.74
603.369	15.77
603.563	15.68
603.757	15.67
603.951	15.68
604.145	15.6
604.339	15.65
604.533	15.61
604.727	15.6
604.921	15.52
605.115	15.56
605.309	15.48
605.502	15.53
605.696	15.52
605.89	15.48
606.084	15.44
606.278	15.51
606.471	15.4
606.665	15.44
606.859	15.37
607.053	15.38
607.246	15.28
607.44	15.27
607.634	15.2
607.827	15.29
608.021	15.19
608.214	15.14
608.408	15.12
608.602	15.07
608.795	14.98
608.989	14.95
609.182	14.86
609.376	14.69
609.569	14.58
609.763	14.5
609.956	14.5
610.15	14.47
610.343	14.55
610.537	14.57
610.73	14.46
610.923	14.39
611.117	14.4
611.31	14.27
611.504	14.17
611.697	14.28
611.89	14.17
612.083	14.08
612.277	14.07
612.47	14.03
612.663	13.83
612.856	13.87
613.05	13.77
613.243	13.73
613.436	13.58
613.629	13.58
613.822	13.45
614.015	13.47
614.209	13.4
614.402	13.47
614.595	13.47
614.788	13.44
614.981	13.34
615.174	13.29
615.367	13.21
615.56	13.17
615.753	13.19
615.946	13.16
616.139	13.15
616.332	13.13
616.525	13.08
616.718	12.99
616.911	13.04
617.103	13
617.296	12.92
617.489	12.85
617.682	12.87
617.875	12.68
618.067	12.65
618.26	12.65
618.453	12.6
618.646	12.44
618.838	12.46
619.031	12.35
619.224	12.33
619.417	12.35
619.609	12.4
619.802	12.39
619.994	12.47
620.187	12.42
620.38	12.39
620.572	12.38
620.765	12.4
620.957	12.35
621.15	12.39
621.342	12.38
621.535	12.33
621.727	12.25
621.92	12.17
622.112	12.11
622.305	12.09
622.497	12.07
622.69	12.05
622.882	12.1
623.074	12.07
623.267	12.06
623.459	12.06
623.651	12.08
623.844	12.03
624.036	12.11
624.228	12.11
624.42	12.09
624.613	12.05
624.805	12.02
624.997	11.88
625.189	11.82
625.381	11.82
625.574	11.88
625.766	11.83
625.958	11.86
626.15	11.83
626.342	11.78
626.534	11.67
626.726	11.65
626.918	11.67
627.11	11.66
627.302	11.64
627.494	11.61
627.686	11.61
627.878	11.51
628.07	11.44
628.262	11.44
628.454	11.39
628.646	11.37
628.838	11.35
629.029	11.32
629.221	11.31
629.413	11.35
629.605	11.45
629.797	11.44
629.989	11.43
630.18	11.43
630.372	11.34
630.564	11.21
630.755	11.18
630.947	11.2
631.139	11.18
631.33	11.11
631.522	11.03
631.714	11.01
631.905	11.02
632.097	10.89
632.289	10.96
632.48	10.97
632.672	10.93
632.863	10.81
633.055	10.85
633.246	10.72
633.438	10.72
633.629	10.72
633.821	10.77
634.012	10.71
634.203	10.79
634.395	10.77
634.586	10.79
634.777	10.72
634.969	10.78
635.16	10.82
635.351	10.83
635.543	10.83
635.734	10.86
635.925	10.87
636.117	10.82
636.308	10.77
636.499	10.73
636.69	10.69
636.881	10.67
637.073	10.65
637.264	10.65
637.455	10.72
637.646	10.75
637.837	10.79
638.028	10.84
638.219	10.86
638.41	10.81
638.601	10.78
638.792	10.78
638.983	10.72
639.174	10.68
639.365	10.59
639.556	10.61
639.747	10.55
639.938	10.57
640.129	10.58
640.32	10.64
640.511	10.6
640.701	10.6
640.892	10.58
641.083	10.52
641.274	10.51
641.465	10.52
641.655	10.5
641.846	10.51
642.037	10.58
642.228	10.47
642.418	10.37
642.609	10.32
642.8	10.29
642.99	10.24
643.181	10.3
643.372	10.33
643.562	10.36
643.753	10.29
643.943	10.3
644.134	10.26
644.324	10.24
644.515	10.24
644.705	10.24
644.896	10.19
645.086	10.25
645.277	10.3
645.467	10.3
645.658	10.36
645.848	10.35
646.038	10.27
646.229	10.28
646.419	10.22
646.61	10.24
646.8	10.33
646.99	10.31
647.18	10.24
647.371	10.24
647.561	10.17
647.751	10.14
647.941	10.17
648.132	10.24
648.322	10.3
648.512	10.28
648.702	10.21
648.892	10.13
649.082	10.06
649.272	10.03
649.462	10.02
649.653	9.97
649.843	10.07
650.033	10.05
650.223	9.9
650.413	9.85
650.603	9.99
650.793	9.93
650.983	9.92
651.172	9.99
651.362	10.01
651.552	9.87
651.742	9.83
651.932	9.74
652.122	9.69
652.312	9.63
652.502	9.54
652.691	9.51
652.881	9.56
653.071	9.52
653.261	9.45
653.45	9.47
653.64	9.38
653.83	9.34
654.019	9.31
654.209	9.24
654.399	9.17
654.588	9.12
654.778	8.98
654.968	8.86
655.157	8.85
655.347	8.73
655.536	8.73
655.726	8.55
655.915	8.47
656.105	8.32
656.294	8.18
656.484	8.01
656.673	8.1
656.863	8.06
657.052	7.96
657.241	8.02
657.431	7.99
657.62	7.9
657.809	7.75
657.999	7.69
658.188	7.63
658.377	7.56
658.567	7.41
658.756	7.39
658.945	7.4
659.134	7.25
659.324	7.18
659.513	7.21
659.702	7.15
659.891	7.07
660.08	6.96
660.269	6.82
660.458	6.67
660.648	6.57
660.837	6.51
661.026	6.52
661.215	6.49
661.404	6.39
661.593	6.23
661.782	6.13
661.971	5.98
662.16	5.92
662.349	5.81
662.538	5.89
662.726	5.96
662.915	5.99
663.104	5.92
663.293	5.9
663.482	5.84
663.671	5.66
663.86	5.58
664.048	5.6
664.237	5.57
664.426	5.53
664.615	5.45
664.803	5.35
664.992	5.25
665.181	5.2
665.369	5.15
665.558	5.15
665.747	5.21
665.935	5.21
666.124	5.24
666.312	5.18
666.501	5.21
666.69	5.16
666.878	5.14
667.067	5.11
667.255	5.14
667.444	5.09
667.632	5.16
667.82	5.09
668.009	5.09
668.197	5.11
668.386	5.13
668.574	5
668.762	4.98
668.951	4.92
669.139	4.95
669.327	5.02
669.516	5.03
669.704	5.04
669.892	5.15
670.08	5.11
670.269	5.05
670.457	5.11
670.645	5.16
670.833	5.1
671.021	5.07
671.21	5.12
671.398	5.08
671.586	5.07
671.774	5.2
671.962	5.37
672.15	5.39
672.338	5.53
672.526	5.6
672.714	5.47
672.902	5.39
673.09	5.35
673.278	5.36
673.466	5.32
673.654	5.39
673.842	5.55
674.03	5.6
674.218	5.7
674.405	5.86
674.593	5.85
674.781	5.71
674.969	5.72
675.157	5.53
675.344	5.51
675.532	5.48
675.72	5.56
675.908	5.58
676.095	5.72
676.283	5.74
676.471	5.8
676.658	5.9
676.846	5.97
677.033	6
677.221	6.04
677.409	6.17
677.596	6.38
677.784	6.38
677.971	6.41
678.159	6.52
678.346	6.54
678.534	6.38
678.721	6.39
678.909	6.44
679.096	6.38
679.283	6.35
679.471	6.34
679.658	6.48
679.846	6.58
680.033	6.71
680.22	6.89
680.408	6.97
680.595	7.05
680.782	7.13
680.969	7.04
681.157	7.03
681.344	7.07
681.531	7.02
681.718	7.02
681.905	7.19
682.093	7.22
682.28	7.3
682.467	7.49
682.654	7.56
682.841	7.65
683.028	7.77
683.215	7.9
683.402	7.93
683.589	8.02
683.776	8.15
683.963	8.22
684.15	8.26
684.337	8.43
684.524	8.56
684.711	8.56
684.898	8.67
685.085	8.71
685.271	8.92
685.458	8.94
685.645	9.16
685.832	9.33
686.019	9.76
686.205	9.9
686.392	10.15
686.579	10.36
686.766	10.55
686.952	10.48
687.139	10.5
687.326	10.8
687.512	10.96
687.699	11.03
687.886	11.32
688.072	11.6
688.259	11.73
688.445	12.04
688.632	12.55
688.818	12.81
689.005	13
689.191	13.28
689.378	13.47
689.564	13.69
689.751	13.96
689.937	14.35
690.124	14.65
690.31	14.84
690.496	15.17
690.683	15.49
690.869	15.78
691.055	16.19
691.242	16.56
691.428	16.76
691.614	17.16
691.8	17.71
691.987	18.08
692.173	18.83
692.359	19.4
692.545	19.85
692.731	20.22
692.918	20.63
693.104	20.89
693.29	21.27
693.476	21.74
693.662	22.08
693.848	22.62
694.034	23.12
694.22	23.7
694.406	24.28
694.592	24.84
694.778	25.33
694.964	25.94
695.15	26.5
695.336	26.82
695.522	27.35
695.708	27.83
695.894	28.08
696.08	28.61
696.265	29.17
696.451	29.67
696.637	30.1
696.823	30.73
697.009	31.21
697.194	31.72
697.38	32.27
697.566	32.92
697.751	33.45
697.937	33.96
698.123	34.66
698.308	35.12
698.494	35.72
698.68	36.22
698.865	36.6
699.051	36.77
699.236	37.26
699.422	37.58
699.607	38.17
699.793	38.5
699.978	39.33
700.164	39.98
700.349	40.4
700.535	40.76
700.72	41.37
700.906	41.74
701.091	42.08
701.276	42.6
701.462	42.79
701.647	43.51
701.832	43.9
702.018	44.27
702.203	44.75
702.388	45.65
702.573	45.98
702.759	46.22
702.944	46.66
703.129	47.03
703.314	47.14
703.499	47.32
703.684	47.74
703.87	47.83
704.055	47.98
704.24	48.29
704.425	48.7
704.61	49.26
704.795	49.82
704.98	50.36
705.165	50.86
705.35	51.14
705.535	51.39
705.72	51.82
705.905	51.99
706.09	52.19
706.275	52.69
706.459	53.37
706.644	53.39
706.829	53.37
707.014	53.77
707.199	53.97
707.384	53.53
707.568	53.89
707.753	54.34
707.938	54.34
708.123	54.29
708.307	54.76
708.492	54.6
708.677	54.71
708.861	54.98
709.046	55.28
709.231	55.4
709.415	56.24
709.6	56.69
709.784	56.83
709.969	56.96
710.153	57.4
710.338	57.38
710.522	57.84
710.707	58
710.891	58.06
711.076	57.79
711.26	58.12
711.445	57.85
711.629	58.11
711.813	58.37
711.998	58.62
712.182	58.53
712.366	58.93
712.551	59.1
712.735	59.34
712.919	59.42
713.103	59.36
713.288	59.8
713.472	59.81
713.656	59.57
713.84	60.19
714.024	60.36
714.208	60.25
714.393	60.74
714.577	61.42
714.761	61.09
714.945	61.19
715.129	61.08
715.313	60.68
715.497	60.49
715.681	60.76
715.865	61.47
716.049	61.5
716.233	61.63
716.417	61.89
716.601	61.93
716.785	61.71
716.968	62.07
717.152	61.94
717.336	61.98
717.52	61.85
717.704	61.59
717.888	61.38
718.071	61.74
718.255	61.84
718.439	62.16
718.622	62.73
718.806	62.24
718.99	62.57
719.174	62.95
719.357	63.19
719.541	63.1
719.724	64.05
719.908	64.31
720.092	64.21
720.275	64.58
720.459	65.06
720.642	64.86
720.826	65.06
721.009	64.9
721.193	64.67
721.376	64.89
721.559	65.21
721.743	65.26
721.926	65.64
722.11	65.85
722.293	65.68
722.476	65.31
722.66	65.11
722.843	65.16
723.026	65.39
723.21	65.68
723.393	66.02
723.576	66
723.759	66.1
723.942	65.57
724.126	65.23
724.309	65.23
724.492	65.37
724.675	65.74
724.858	66.04
725.041	65.79
725.224	66.34
725.407	66.35
725.59	66.29
725.774	66.26
725.957	67.1
726.14	67.29
726.322	67.52
726.505	67.36
726.688	67.98
726.871	67.85
727.054	68.11
727.237	68.28
727.42	68.51
727.603	69.02
727.786	69.44
727.968	69.39
728.151	69.53
728.334	70.01
728.517	69.51
728.699	68.94
728.882	69.12
729.065	69.05
729.248	68.88
729.43	69.47
729.613	70.52
729.796	70.88
729.978	71.53
730.161	71.26
730.343	71.37
730.526	71
730.708	71.1
730.891	71.07
731.073	72.12
731.256	72.06
731.438	72.6
731.621	72.23
731.803	72.17
731.986	71.83
732.168	72.37
732.35	72.57
732.533	73.33
732.715	74.34
732.898	74.61
733.08	73.28
733.262	73.54
733.444	73.13
733.627	72.7
733.809	73.24
733.991	74.03
734.173	73.86
734.355	73.82
734.538	74.08
734.72	73.36
734.902	73.47
735.084	72.96
735.266	72.85
735.448	72.51
735.63	73.07
735.812	73.48
735.994	73.76
736.176	74.58
736.358	74.2
736.54	73.84
736.722	73.84
736.904	74.58
737.086	73.82
737.268	74.65
737.45	75.4
737.632	75.66
737.814	75.12
737.995	75.84
738.177	75.98
738.359	75.91
738.541	76.27
738.723	76.37
738.904	76.5
739.086	76.33
739.268	75.82
739.449	75.09
739.631	74.78
739.813	75.29
739.994	75.96
740.176	76.42
740.358	77.1
740.539	77.42
740.721	77.81
740.902	77.09
741.084	76.33
741.265	76.94
741.447	77.34
741.628	76.39
741.81	76.85
741.991	77.66
742.172	76.38
742.354	76.13
742.535	76.7
742.717	77.13
742.898	77.27
743.079	78.56
743.261	80.31
743.442	80.36
743.623	79.65
743.804	79.42
743.986	79.49
744.167	77.65
744.348	78.08
744.529	78.52
744.71	78.01
744.891	77.36
745.073	77.88
745.254	77.47
745.435	77.46
745.616	78.41
745.797	78.22
745.978	79.7
746.159	79.76
746.34	79.88
746.521	79.72
746.702	80.16
746.883	78.84
747.064	78.55
747.245	77.74
747.426	78.39
747.606	78.15
747.787	77.91
747.968	77.48
748.149	78.54
748.33	77.43
748.51	77.49
748.691	77.4
748.872	78.14
749.053	78.76
749.233	80.62
749.414	81.6
749.595	81.19
749.775	81.68
749.956	80.59
750.137	79.62
750.317	78.45
750.498	78.93
750.678	77.8
750.859	78.53
751.04	78.4
751.22	79.27
751.4	79
751.581	80.79
751.761	78.79
751.942	79.16
752.122	79.13
752.303	79.14
752.483	78.37
752.663	80.59
752.844	80.5
753.024	80.91
753.204	81.76
753.385	81.81
753.565	81.23
753.745	81.04
753.925	79.81
754.106	79.91
754.286	79.56
754.466	79.32
754.646	79.74
754.826	79.08
755.006	78.98
755.187	79.17
755.367	80.34
755.547	80.69
755.727	81.99
755.907	82.26
756.087	81.93
756.267	80.74
756.447	79.79
756.627	79.1
756.807	78.34
756.987	79.94
757.167	80.37
757.346	79.75
757.526	79.56
757.706	80.38
757.886	79.55
758.066	79.07
758.246	80.8
758.425	81.49
758.605	80.34
758.785	80.99
758.965	82.78
759.144	82.88
759.324	83.76
759.504	84.66
759.683	84.78
759.863	82.29
760.043	81.39
760.222	80.98
760.402	81.31
760.581	80.42
760.761	80.83
760.94	80.68
761.12	81.27
761.299	80.79
761.479	79.79
761.658	81.45
761.838	81.69
762.017	81.83
762.197	82.06
762.376	83.86
762.555	83.69
762.735	82.63
762.914	81.34
763.093	81.13
763.273	79.28
763.452	78.26
763.631	79.39
763.81	80.62
763.99	82.19
764.169	83.44
764.348	82.61
764.527	82.66
764.706	81.24
764.885	80.21
765.064	78.15
765.243	79.43
765.423	79.72
765.602	79.78
765.781	78.92
765.96	80.03
766.139	79.11
766.318	79.15
766.497	80.25
766.676	80.18
766.854	80.38
767.033	80.77
767.212	79.83
767.391	79.92
767.57	79.63
767.749	80.61
767.928	79.33
768.106	79.16
768.285	77.91
768.464	78.47
768.643	78.15
768.821	77.86
769	76.84
769.179	77.49
769.357	79.47
769.536	78.64
769.715	78.05
769.893	79.45
770.072	79.07
770.25	76.92
770.429	76.62
770.607	78.78
770.786	78.47
770.964	76.7
771.143	76.58
771.321	76.39
771.5	75.43
771.678	75.18
771.857	77.32
772.035	76.58
772.213	77.1
772.392	77.86
772.57	78.97
772.748	79.5
772.927	81.22
773.105	81.42
773.283	82.04
773.461	82.74
773.64	81.49
773.818	80.78
773.996	79.53
774.174	79.05
774.352	76.3
774.531	75.84
774.709	75.38
774.887	76.69
775.065	76.51
775.243	79.34
775.421	78.07
775.599	79.96
775.777	77.65
775.955	77.21
776.133	76.37
776.311	76.57
776.489	75.6
776.667	78.4
776.844	78.21
777.022	78.55
777.2	78.77
777.378	77.43
777.556	75.96
777.734	77.49
777.911	77.28
778.089	77.94
778.267	78.8
778.445	79.86
778.622	77.47
778.8	75.82
778.978	74.63
779.155	73.1
779.333	73.79
779.511	74.01
779.688	71.12
779.866	73.8
780.043	76.38
780.221	73.08
780.398	73.28
780.576	74.76
780.753	75.25
780.931	73.6
781.108	76.11
781.286	76.51
781.463	79.29
781.64	76.5
781.818	77.35
781.995	77.38
782.172	78.83
782.35	78.5
782.527	80.73
782.704	78.66
782.882	79.19
783.059	77.48
783.236	77.29
783.413	77.07
783.59	78.97
783.768	79.45
783.945	79.16
784.122	78.19
784.299	77.43
784.476	77.06
784.653	77.73
784.83	76.61
785.007	78.43
785.184	79.14
785.361	79.26
785.538	76.45
785.715	80.23
785.892	79.13
786.069	79.1
786.246	78.35
786.423	77.41
786.6	78.37
786.776	79.65
786.953	79
787.13	79.88
787.307	77.37
787.484	77.12
787.66	76.26
787.837	75.95
788.014	76.14
788.191	79.13
788.367	76.43
788.544	74.14
788.721	73.69
788.897	70.62
789.074	70.05
789.25	69.59
789.427	72.16
789.603	72.53
789.78	76.88
789.956	78.46
790.133	78.84
790.309	76.67
790.486	74.77
790.662	72.38
790.839	73.47
791.015	74.16
791.192	73.51
791.368	75.34
791.544	78.25
791.721	77.19
791.897	74.33
792.073	76.43
792.249	74.61
792.426	72.84
792.602	69.24
792.778	70.18
792.954	70.62
793.13	76.23
793.307	77.16
793.483	81.85
793.659	82.87
793.835	82.35
794.011	78.89
794.187	77.39
794.363	79.35
794.539	79.22
794.715	81.99
794.891	81.35
795.067	79.14
795.243	76.31
795.419	76.84
795.595	72.3
795.771	74.66
795.947	72.43
796.122	71.17
796.298	71.78
796.474	70.31
796.65	64.8
796.826	69.16
797.001	68.52
797.177	66.43
797.353	69.4
797.529	74.66
797.704	73.71
797.88	73.98
798.056	76.18
798.231	74.21
798.407	70.42
798.582	73.04
798.758	75.53
798.934	71.2
799.109	70.68
799.285	71.91
799.46	68.41
799.636	65.03
799.811	67.01
799.986	69.09
800.162	72.47
800.337	73.12
800.513	78.61
800.688	80.95
800.863	84.2
801.039	75.44
801.214	77.07
801.389	76.15
801.565	78.95
801.74	74.1
801.915	70.9
802.09	66.05
802.265	63.31
802.441	61.14
802.616	63.15
802.791	68.39
802.966	73.31
803.141	77.93
803.316	79.17
803.491	78.37
803.666	77.51
803.841	75.95
804.016	73.87
804.191	70.23
804.366	74.42
804.541	72.33
804.716	69.52
804.891	69.58
805.066	69.23
805.241	68.36
805.416	71.91
805.591	73.99
805.765	69.45
805.94	72
806.115	70.68
806.29	72.84
806.464	70.19
806.639	70.97
806.814	69.33
806.989	71.1
807.163	66.5
807.338	68.22
807.512	70.13
807.687	67.41
807.862	62.43
808.036	63.01
808.211	65.97
808.385	64.38
808.56	65.7
808.734	68.98
808.909	67.57
809.083	70.64
809.258	71.1
809.432	68.9
809.606	71.22
809.781	75.28
809.955	69.05
810.13	66.04
810.304	71.3
810.478	62.72
810.652	63.47
810.827	64.67
811.001	67.4
811.175	67.2
811.349	71.71
811.524	64.03
811.698	60.49
811.872	55.12
812.046	57.57
812.22	57.75
812.394	66.84
812.568	75.55
812.742	83.09
812.916	77.62
813.09	73.88
813.264	66.89
813.438	72.44
813.612	71.29
813.786	78.75
813.96	77.72
814.134	79.84
814.308	67.4
814.482	67.45
814.656	61.1
814.83	65.07
815.003	72.74
815.177	86.45
815.351	88.89
815.525	85.03
815.698	94.26
815.872	92.03
816.046	77.66
816.219	72.89
816.393	73.02
816.567	71.44
816.74	65.59
816.914	62.11
817.088	67.05
817.261	61.45
817.435	59.55
817.608	56.55
817.782	55.24
817.955	56.07
818.129	59.25
818.302	52.93
818.475	56.32
818.649	59.71
818.822	59.18
818.996	57.49
819.169	59.79
819.342	53.41
819.516	57.91
819.689	55.29
819.862	68.98
820.035	67.82
820.209	74.3
820.382	74.89
820.555	71.8
820.728	64.44
820.901	63.07
821.075	60.44
821.248	53.46
821.421	58.21
821.594	56.24
821.767	55.72
821.94	46.48
822.113	46.95
822.286	51.18
822.459	46.72
822.632	48.5
822.805	56.37
822.978	54.18
823.151	47.07
823.324	65.33
823.496	62.13
823.669	58.38
823.842	63.34
824.015	68.21
824.188	54.32
824.361	58
824.533	61.36
824.706	71.44
824.879	68.41
825.051	64.26
825.224	69.16
825.397	72.65
825.569	62.12
825.742	60.14
825.915	67.99
826.087	70.65
826.26	68.65
826.432	81.66
826.605	88.33
826.777	73.5
826.95	73.08
827.122	71.99
827.295	68.01
827.467	71.97
827.64	69.51
827.812	70.09
827.984	59.19
828.157	56.74
828.329	56.42
828.501	59.5
828.674	65.76
828.846	76.62
829.018	83.84
829.19	77.93
829.363	85.07
829.535	67.63
829.707	62.26
829.879	42.35
830.051	39.63
830.223	29.37
830.395	28.08
830.568	40.75
830.74	44.31
830.912	45.73
831.084	55.34
831.256	58.31
831.428	58.95
831.6	67.64
831.772	70.71
831.943	64.58
832.115	74.62
832.287	76.99
832.459	71.95
832.631	73.23
832.803	97.46
832.975	107.78
833.146	96.73
833.318	116.41
833.49	112.2
833.662	81.82
833.833	66.59
834.005	70.9
834.177	69.45
834.348	75.47
834.52	70.42
834.692	68.19
834.863	70.62
835.035	69.81
835.206	59.75
835.378	60.89
835.549	68.46
835.721	56.88
835.892	52.33
836.064	67.87
836.235	69.51
836.407	66.22
836.578	72.22
836.749	74.02
836.921	62.83
837.092	60.16
837.264	88.77
837.435	72.81
837.606	76.52
837.777	75.96
837.949	66.58
838.12	36.78
838.291	52.66
838.462	58.44
838.633	59.76
838.805	68.95
838.976	68.03
839.147	56.26
839.318	41.57
839.489	49.01
839.66	71.67
839.831	59.15
840.002	69.36
840.173	73.09
840.344	61.17
840.515	39.29
840.686	30.25
840.857	31.53
841.028	45.67
841.199	59.87
841.369	74.39
841.54	96.9
841.711	119.95
841.882	111.03
842.053	105.44
842.223	117.1
842.394	111.07
842.565	89.29
842.736	70.56
842.906	60.44
843.077	45.59
843.248	60.14
843.418	77.42
843.589	91.58
843.759	73.86
843.93	87.69
844.101	75.65
844.271	66.8
844.442	67.94
844.612	51.72
844.783	49.13
844.953	50.34
845.123	46.86
845.294	9.22
845.464	35.69
845.635	24.67
845.805	26.61
845.975	21.41
846.146	50.37
846.316	58.22
846.486	60.05
846.656	70.48
846.827	72.67
846.997	65.21
847.167	65.89
847.337	80.35
847.507	74.07
847.677	68.2
847.848	66.04
848.018	69.37
848.188	56.9
848.358	71.42
848.528	67.4
848.698	84.19
848.868	79.68
849.038	69.77
849.208	69.16
849.378	64.89
849.548	68.97
849.718	81.06
849.887	77.01
850.057	66.81
850.227	82.1
850.397	57.68
850.567	49.98
850.737	44.74
850.906	38.46
851.076	35.4
851.246	38.21
851.415	44.86
851.585	57.19
851.755	88.35
851.924	105.56
852.094	76.66
852.264	69.64
852.433	65.25
852.603	57.32
852.772	44.38
852.942	49.98
853.111	45.2
853.281	55.3
853.45	48.36
853.62	45.78
853.789	40.29
853.959	31.25
854.128	27.84
854.297	34.15
854.467	39.27
854.636	29.6
854.805	7.64
854.975	-72.83
855.144	-17.89
855.313	-32.21
855.482	42.58
855.652	71.77
855.821	92.47
855.99	86.32
856.159	67.61
856.328	61.03
856.497	46.63
856.667	44.84
856.836	58.53
857.005	79.17
857.174	81.01
857.343	89.58
857.512	73.93
857.681	61.09
857.85	56.43
858.019	55.48
858.188	71.48
858.356	56.42
858.525	123.99
858.694	249.23
858.863	174.63
859.032	94.71
859.201	85.16
859.369	45.53
859.538	42.53
859.707	31.02
859.876	17.38
860.044	35.23
860.213	35.54
860.382	37.12
860.55	33.79
860.719	42.37
860.888	39.79
861.056	38.89
861.225	39.48
861.393	43.36
861.562	43.46
861.73	43.42
861.899	61.63
862.067	56.59
862.236	52.58
862.404	54.86
862.572	73.02
862.741	80.2
862.909	59.06
863.078	62.05
863.246	63.26
863.414	34.81
863.582	4.29
863.751	20.15
863.919	13.05
864.087	8.75
864.255	22.31
864.424	27.44
864.592	37.86
864.76	67.1
864.928	70.39
865.096	54.25
865.264	76.27
865.432	56.14
865.6	41.06
865.768	46.85
865.936	60.61
866.104	45.46
866.272	61.9
866.44	84.94
866.608	56.48
866.776	62.13
866.944	56.96
867.112	68.03
867.28	69.3
867.448	72.32
867.615	65.48
867.783	78.22
867.951	57.55
868.119	37.84
868.286	56.97
868.454	41.74
868.622	31.9
868.789	57.69
868.957	86.21
869.125	60.6
869.292	63.72
869.46	66.28
869.627	71.73
869.795	57.66
869.963	58.32
870.13	55.28
870.298	32.87
870.465	18
870.632	24.44
870.8	21.81
870.967	42.98
871.135	55.56
871.302	46.48
871.469	23.22
871.637	17.27
871.804	30.8
871.971	37.19
872.139	51.1
872.306	49.98
872.473	58.94
872.64	39.89
872.807	8.13
872.975	16.31
873.142	49.4
873.309	22
873.476	10.38
873.643	8.31
873.81	64.6
873.977	38.83
874.144	46.78
874.311	72.59
874.478	101.5
874.645	89.4
874.812	127.91
874.979	110.68
875.146	116.38
875.313	46.2
875.48	31.51
875.647	44.09
875.813	49.08
875.98	47.16
876.147	67.11
876.314	86.6
876.481	102.57
876.647	161.88
876.814	72.96
876.981	-333.92
877.147	-281.92
877.314	130.69
877.481	112.67
877.647	110.58
877.814	67.64
877.98	68.3
878.147	52.31
878.314	42.54
878.48	83.22
878.647	82.31
878.813	97.01
878.979	96.21
879.146	58.74
879.312	73.86
879.479	86.81
879.645	68.4
879.811	73.05
879.978	121.87
880.144	70.14
880.31	41.98
880.477	13.35
880.643	26.18
880.809	-61.19
880.975	-100.75
881.142	-15.32
881.308	75.37
881.474	43.67
881.64	53.87
881.806	59.85
881.972	97.68
882.138	99.86
882.304	100.68
882.47	98.17
882.636	-62.87
882.802	-102.81
882.968	23.52
883.134	69.63
883.3	72.34
883.466	89.22
883.632	68.72
883.798	51.24
883.964	53.46
884.129	56.07
884.295	55.11
884.461	62.55
884.627	60.76
884.793	53.08
884.958	51.71
885.124	57.67
885.29	64.7
885.455	68.09
885.621	109.93
885.787	150.38
885.952	218.15
886.118	271.04
886.283	215.18
886.449	235.95
886.614	178.79
886.78	161.98
886.945	180.92
887.111	315.11
887.276	-870.37
887.442	73.33
887.607	76.59
887.773	91.56
887.938	82.33
888.103	60.74
888.269	73.48
888.434	96.7
888.599	95.02
888.764	158.31
888.93	248.92
889.095	202.58
889.26	202.63
889.425	-5833.33
889.59	-1057.33
889.756	329.31
889.921	756.41
890.086	216.43
890.251	-22.72
890.416	-29.47
890.581	-124.34
890.746	4.97
890.911	63.18
891.076	67.49
891.241	75.89
891.406	90.38
891.571	77.37
891.736	64.05
891.901	81.19
892.065	83.08
892.23	32.15
892.395	72.01
892.56	60.47
892.725	16.71
892.889	37.81
893.054	49.22
893.219	80.55
893.384	132.99
893.548	224.71
893.713	269.25
893.878	468.99
