Data from Ofav_PP_Phys_2EV3_Reflection_1.txt Node
Date: Tue Aug 03 18:14:55 EDT 2021
User: Adam
Spectrometer: FLMT01687
Trigger mode: 0
Integration Time (sec): 8.750000E-1
Scans to average: 2
Electric dark correction enabled: true
Nonlinearity correction enabled: false
Boxcar width: 2
XAxis mode: Wavelengths
Number of Pixels in Spectrum: 3648
>>>>>Begin Spectral Data<<<<<
179.494	227.03
179.716	234.68
179.937	211.86
180.158	322.83
180.38	1168.42
180.601	72.51
180.823	59.6
181.044	73.2
181.265	79.04
181.486	358.21
181.708	190.88
181.929	329.32
182.15	147.28
182.372	465.82
182.593	63.29
182.814	307.69
183.035	-276.6
183.257	-1223.53
183.478	258.28
183.699	106.02
183.92	123.38
184.141	70.42
184.363	87.61
184.584	23.35
184.805	71.9
185.026	22.44
185.247	42.34
185.468	40.71
185.689	43.49
185.91	57.33
186.132	87.62
186.353	62.52
186.574	39.24
186.795	35.66
187.016	20.64
187.237	26.96
187.458	37.07
187.679	14.99
187.9	17.03
188.121	25.24
188.342	4.16
188.563	-15.04
188.784	15.57
189.005	16.14
189.226	1.7
189.447	26.23
189.667	37.84
189.888	26.89
190.109	43.08
190.33	12.01
190.551	23.55
190.772	84.54
190.993	81.77
191.214	74.06
191.434	101.01
191.655	62.2
191.876	27.86
192.097	35.86
192.318	36.47
192.538	36.85
192.759	37.19
192.98	34.27
193.201	31.47
193.421	53.58
193.642	36.48
193.863	44.95
194.083	54.03
194.304	47.86
194.525	-4.52
194.745	7.36
194.966	19.02
195.187	34.88
195.407	57.7
195.628	71.1
195.848	75.91
196.069	77.92
196.29	71.31
196.51	47.24
196.731	59.28
196.951	48.49
197.172	61.78
197.392	68.19
197.613	73.11
197.833	56.2
198.054	58.61
198.274	18.21
198.495	13.76
198.715	4.08
198.936	8.07
199.156	23.8
199.377	41.2
199.597	42.14
199.817	76.82
200.038	60.42
200.258	39.36
200.479	-50.32
200.699	-46.49
200.919	-113.48
201.14	-21.56
201.36	11.18
201.58	40.78
201.801	0.45
202.021	9.53
202.241	-21.23
202.461	-25.93
202.682	-9.69
202.902	14.21
203.122	15.11
203.342	52.07
203.563	24.95
203.783	8.13
204.003	12.57
204.223	15.67
204.443	-10.63
204.663	-7.26
204.884	-19.83
205.104	-44.02
205.324	-37.26
205.544	-55.03
205.764	-34.93
205.984	-41.55
206.204	-8.23
206.424	-76.01
206.644	-12.44
206.864	8.85
207.084	24.16
207.304	27.13
207.525	67.02
207.745	78.62
207.964	40.8
208.184	41.19
208.404	75.15
208.624	48.03
208.844	37.87
209.064	44.49
209.284	66.58
209.504	20.79
209.724	26.9
209.944	25.43
210.164	22.34
210.384	-12.06
210.604	-23.35
210.823	-15.44
211.043	26.77
211.263	27.42
211.483	45.8
211.703	88.98
211.922	64.34
212.142	46.4
212.362	38.11
212.582	41.84
212.801	5.91
213.021	29.84
213.241	33.81
213.461	58.1
213.68	53.3
213.9	47.1
214.12	5.87
214.339	30.25
214.559	40.91
214.779	40.86
214.998	45.11
215.218	78.56
215.438	70.71
215.657	62
215.877	55.3
216.096	43.73
216.316	36.72
216.535	14.01
216.755	-22.5
216.974	6.2
217.194	53.36
217.413	49.17
217.633	59.24
217.852	65.1
218.072	68.54
218.291	38.39
218.511	24.55
218.73	30.15
218.95	38.16
219.169	33.75
219.389	52.26
219.608	58.96
219.827	38.01
220.047	22.75
220.266	21.97
220.485	22.99
220.705	16.59
220.924	24.36
221.143	18.82
221.363	26.24
221.582	26.51
221.801	46
222.021	39.41
222.24	57.94
222.459	25.85
222.678	17.07
222.897	18.89
223.117	-5.19
223.336	-155.4
223.555	-48.13
223.774	17.45
223.993	-25.99
224.213	-45.51
224.432	21.4
224.651	19.84
224.87	26.31
225.089	26.83
225.308	37.13
225.527	-12.97
225.746	-29.85
225.965	-49.91
226.184	-60.74
226.404	2.89
226.623	51.14
226.842	53.75
227.061	33.88
227.28	42.58
227.499	43.71
227.718	38.04
227.936	29.76
228.155	35.22
228.374	42.36
228.593	26.33
228.812	-23.94
229.031	-19.82
229.25	4.05
229.469	-62.86
229.688	-108.35
229.907	-102.8
230.125	-73.52
230.344	-91.07
230.563	-68.7
230.782	-65.5
231.001	-1.23
231.22	-4.92
231.438	-5.27
231.657	-4.31
231.876	5.13
232.095	-17.57
232.313	-12.51
232.532	-22.77
232.751	18
232.969	49.48
233.188	79.23
233.407	54.08
233.625	70.08
233.844	47.93
234.063	38.84
234.281	28.57
234.5	35.39
234.719	19.57
234.937	24.01
235.156	9.29
235.374	8.88
235.593	12.28
235.811	0.86
236.03	17.32
236.249	35.18
236.467	39.52
236.686	42.87
236.904	50.91
237.123	57.08
237.341	55.86
237.559	49.72
237.778	48.44
237.996	49.75
238.215	40.18
238.433	27.65
238.652	35.78
238.87	37.4
239.088	24.08
239.307	22.01
239.525	22.08
239.743	38.8
239.962	40.35
240.18	50.13
240.398	80.48
240.617	92.48
240.835	53.98
241.053	32.76
241.271	-6.46
241.49	-45.02
241.708	-5.4
241.926	-4.31
242.144	17.78
242.363	56.1
242.581	60.8
242.799	40.2
243.017	46.48
243.235	54.25
243.453	31.48
243.672	35.79
243.89	40.28
244.108	53.76
244.326	40.41
244.544	46.53
244.762	57.17
244.98	54.17
245.198	34.25
245.416	56.88
245.634	49.3
245.852	20.56
246.07	19.6
246.288	0.28
246.506	23.39
246.724	17.44
246.942	34.5
247.16	27.66
247.378	22.31
247.596	1.03
247.814	8.73
248.032	14.87
248.25	24.73
248.468	44.58
248.685	30.13
248.903	4.26
249.121	0.75
249.339	7.65
249.557	17.05
249.775	16.3
249.992	61
250.21	52.61
250.428	44.42
250.646	17.69
250.863	30.07
251.081	6.64
251.299	-20.24
251.517	0.86
251.734	-3.23
251.952	0.68
252.17	-8.1
252.387	-9.04
252.605	12.3
252.823	16.62
253.04	-13.19
253.258	28.15
253.475	62.11
253.693	42.19
253.911	55.01
254.128	44.44
254.346	36.7
254.563	19.11
254.781	45.69
254.998	37.36
255.216	36.86
255.433	31.18
255.651	26.94
255.868	-12.13
256.086	-20.62
256.303	8.79
256.521	26.16
256.738	26.96
256.956	52.97
257.173	49.06
257.39	39.07
257.608	11.7
257.825	7.78
258.043	-73.66
258.26	-17.34
258.477	-27.16
258.695	-15.99
258.912	-10.03
259.129	18
259.346	17.71
259.564	31.68
259.781	23.37
259.998	25.5
260.216	13.56
260.433	13.06
260.65	15.35
260.867	0.84
261.084	14.3
261.302	3.44
261.519	13.3
261.736	19.18
261.953	32.18
262.17	14.65
262.387	24.7
262.604	30.49
262.822	19.62
263.039	43.17
263.256	59
263.473	67.42
263.69	66.89
263.907	55.43
264.124	31.73
264.341	1.7
264.558	-46.26
264.775	-39.84
264.992	-22.13
265.209	-31.69
265.426	-38.04
265.643	-7.62
265.86	1.96
266.077	14.36
266.294	10.84
266.51	28.73
266.727	38.66
266.944	26.31
267.161	40.71
267.378	60.85
267.595	56.1
267.812	56.53
268.028	51.5
268.245	31.57
268.462	39.42
268.679	37.61
268.896	9.72
269.112	12.87
269.329	6.22
269.546	-65.41
269.763	-35.49
269.979	-17.93
270.196	3.46
270.413	5.71
270.629	16.63
270.846	39.63
271.063	47.09
271.279	44.82
271.496	61.22
271.712	43.9
271.929	1.55
272.146	21.61
272.362	7.82
272.579	-14.83
272.795	-21.44
273.012	-0.52
273.228	-2.96
273.445	-7.54
273.661	7.86
273.878	32.96
274.094	34.73
274.311	21.96
274.527	20.02
274.744	12.57
274.96	9.59
275.177	-25.21
275.393	5.56
275.609	-1.74
275.826	3.04
276.042	4.43
276.259	18.84
276.475	-13.73
276.691	-15.14
276.908	-11.71
277.124	-9.15
277.34	-22.24
277.557	-11.72
277.773	2.44
277.989	10.45
278.205	11.27
278.422	19.38
278.638	18.85
278.854	19.11
279.07	22.98
279.286	23.84
279.503	37.87
279.719	38.5
279.935	37.53
280.151	42.73
280.367	14.76
280.583	-14.27
280.799	-13.41
281.016	-19.31
281.232	-34.7
281.448	-10.14
281.664	3.51
281.88	34.12
282.096	44.82
282.312	20.94
282.528	12.24
282.744	13.05
282.96	3.39
283.176	17.28
283.392	27.54
283.608	43.95
283.824	51.46
284.04	44.63
284.256	26.63
284.471	30.63
284.687	32.33
284.903	16.16
285.119	-10.57
285.335	-7.27
285.551	-12.44
285.767	-9.71
285.982	2.9
286.198	36.65
286.414	17.63
286.63	19.75
286.846	22.31
287.061	20.71
287.277	4.64
287.493	34.18
287.709	21.58
287.924	9.71
288.14	5.89
288.356	-22.22
288.571	-28.81
288.787	2.89
289.003	-10.84
289.218	-25.34
289.434	27.47
289.65	27.99
289.865	12.3
290.081	-11.45
290.296	7
290.512	6.08
290.727	16.53
290.943	35.59
291.159	61.37
291.374	56.67
291.59	54.68
291.805	56.07
292.021	61.42
292.236	56.66
292.451	58.28
292.667	58.61
292.882	48.08
293.098	31.92
293.313	19.66
293.529	30.07
293.744	24.67
293.959	33.3
294.175	30.36
294.39	35.31
294.605	31.93
294.821	28.43
295.036	36.58
295.251	59.93
295.467	59.4
295.682	56.32
295.897	50.23
296.112	53.52
296.328	48.61
296.543	61.22
296.758	61.71
296.973	68.92
297.188	53.33
297.404	51.57
297.619	40.17
297.834	39.33
298.049	27.1
298.264	40.09
298.479	19.79
298.694	19.88
298.909	14.46
299.125	30.95
299.34	4.26
299.555	16.13
299.77	-7.56
299.985	11.07
300.2	15.7
300.415	11.26
300.63	-22.28
300.845	-1.2
301.06	-1.69
301.275	-13.49
301.49	15.43
301.704	52.52
301.919	60.95
302.134	54.99
302.349	44.74
302.564	52.96
302.779	45.05
302.994	28.9
303.209	22.16
303.423	9.05
303.638	1.53
303.853	4.37
304.068	20.18
304.283	27.94
304.497	41.59
304.712	52.93
304.927	42.85
305.142	48.13
305.356	40.78
305.571	34.11
305.786	32.94
306	41.07
306.215	34.13
306.43	44.59
306.644	46.39
306.859	28.79
307.074	22.58
307.288	19.65
307.503	22.48
307.717	21.49
307.932	17.8
308.147	18.04
308.361	13.1
308.576	12.26
308.79	21.9
309.005	37.95
309.219	35.54
309.434	42.11
309.648	32.5
309.863	11.59
310.077	-19.01
310.292	-22.25
310.506	-28.47
310.72	3.4
310.935	-15.71
311.149	-14.43
311.364	-41.91
311.578	-60.24
311.792	-62.21
312.007	-50.46
312.221	-13.21
312.435	-10.28
312.649	22.27
312.864	9.36
313.078	21.78
313.292	-1.52
313.507	19.91
313.721	10.07
313.935	7.17
314.149	12.57
314.363	20.51
314.578	9.81
314.792	-5.48
315.006	-11.73
315.22	-42.3
315.434	-48.38
315.648	-100.44
315.862	-16.68
316.077	-17.38
316.291	12.62
316.505	23.91
316.719	46.37
316.933	40.17
317.147	49.08
317.361	42
317.575	53.45
317.789	44.3
318.003	52.47
318.217	46.85
318.431	50.14
318.645	21.61
318.859	20.52
319.073	11.01
319.287	28.62
319.5	39.24
319.714	67.37
319.928	79.82
320.142	75.99
320.356	61.4
320.57	56.88
320.784	25.64
320.997	-5.39
321.211	13.94
321.425	25.45
321.639	22.45
321.853	1.75
322.066	10.57
322.28	-2.93
322.494	-12.98
322.707	-28.25
322.921	16.75
323.135	10.57
323.349	3.48
323.562	22.11
323.776	37.34
323.989	33.74
324.203	53.35
324.417	57.85
324.63	62.97
324.844	69.39
325.057	73.81
325.271	45.21
325.485	52.41
325.698	33.44
325.912	12.55
326.125	31.26
326.339	41.73
326.552	21.29
326.766	34.42
326.979	31.26
327.193	19.81
327.406	21.62
327.619	48
327.833	15.3
328.046	42.67
328.26	41.27
328.473	36.55
328.686	38.46
328.9	37.93
329.113	33.46
329.326	44.19
329.54	55.81
329.753	61.21
329.966	80.91
330.179	70.9
330.393	61.13
330.606	52.75
330.819	40.74
331.032	33.68
331.246	31.32
331.459	15.64
331.672	-8.93
331.885	-12.48
332.098	-15.42
332.311	15.89
332.525	38.92
332.738	45.72
332.951	39.38
333.164	27.28
333.377	34.15
333.59	11.29
333.803	1.63
334.016	6.87
334.229	21.81
334.442	-21.34
334.655	-13.81
334.868	9.12
335.081	7.47
335.294	4.22
335.507	18.56
335.72	30.38
335.933	24.68
336.146	22
336.359	14.91
336.572	23.65
336.785	19.14
336.997	28.95
337.21	32.33
337.423	46.09
337.636	51.42
337.849	40.95
338.062	33.68
338.274	28.35
338.487	39.65
338.7	31.41
338.913	49.27
339.125	48.33
339.338	40.79
339.551	16.7
339.763	-8.49
339.976	-15.09
340.189	-15.91
340.402	-20.31
340.614	-17.1
340.827	2.05
341.039	8.17
341.252	10.62
341.465	16.78
341.677	27.03
341.89	49.96
342.102	42.42
342.315	43.82
342.527	48.49
342.74	49.74
342.952	39.5
343.165	55.63
343.377	40.88
343.59	51.83
343.802	24.16
344.015	-1.72
344.227	-42.58
344.44	-12.46
344.652	-10.44
344.864	-1.68
345.077	-2.24
345.289	3.24
345.502	-28.82
345.714	-55.8
345.926	-26.94
346.139	-23.56
346.351	-13.54
346.563	-9.97
346.775	2.49
346.988	-14.79
347.2	13.57
347.412	16.75
347.624	25.87
347.837	22.29
348.049	29.93
348.261	6.12
348.473	-3.7
348.685	10.42
348.897	11.48
349.11	2.75
349.322	-6.9
349.534	-5.97
349.746	1.99
349.958	4.88
350.17	9.15
350.382	16.43
350.594	35.88
350.806	29.59
351.018	27.64
351.23	35.57
351.442	57.35
351.654	31.86
351.866	9.83
352.078	18.55
352.29	22.47
352.502	3.46
352.714	13.38
352.926	26.61
353.138	17.55
353.35	17.48
353.561	37.22
353.773	43.06
353.985	44.17
354.197	52.01
354.409	53.7
354.621	43.26
354.832	38.27
355.044	45.74
355.256	51.82
355.468	48.8
355.679	54.1
355.891	62.35
356.103	65.07
356.314	55.16
356.526	49.53
356.738	43.9
356.949	38.15
357.161	24.94
357.373	17.11
357.584	20.67
357.796	32.36
358.008	9.57
358.219	5.1
358.431	16.79
358.642	9.07
358.854	-21.58
359.065	15.09
359.277	38.26
359.488	35.2
359.7	31.2
359.911	29.58
360.123	20.92
360.334	10.6
360.546	15.12
360.757	25.03
360.969	19.79
361.18	20.56
361.391	19.54
361.603	16.06
361.814	7.83
362.025	14.58
362.237	20.99
362.448	14.57
362.659	-0.89
362.871	0.82
363.082	-8.04
363.293	-33.13
363.504	-36.06
363.716	9.66
363.927	27.79
364.138	44.82
364.349	58.53
364.56	62.63
364.772	54.41
364.983	33.17
365.194	22.07
365.405	14.56
365.616	16.95
365.827	14.46
366.038	26.12
366.25	19.08
366.461	38.18
366.672	17.13
366.883	2.76
367.094	4.96
367.305	30.54
367.516	7.8
367.727	24.87
367.938	40.27
368.149	36.62
368.36	15.09
368.571	19.71
368.781	26.33
368.992	21.56
369.203	36.36
369.414	39.02
369.625	39.34
369.836	31.85
370.047	30.7
370.258	9.26
370.468	15.43
370.679	38.92
370.89	45.82
371.101	32.85
371.312	41
371.522	37.98
371.733	30.39
371.944	22.98
372.155	32.3
372.365	27.9
372.576	30.58
372.787	33.85
372.997	34.5
373.208	29.18
373.419	11.45
373.629	13.69
373.84	7.94
374.05	4.2
374.261	-2.31
374.472	18.3
374.682	9.42
374.893	6.84
375.103	-5.96
375.314	13.5
375.524	19.04
375.735	24.44
375.945	25.88
376.156	41.21
376.366	24.8
376.577	34.3
376.787	32.96
376.997	21.35
377.208	18.37
377.418	33.61
377.629	13.73
377.839	16.44
378.049	17.5
378.26	2.19
378.47	-3.09
378.68	6.31
378.89	5.61
379.101	14.68
379.311	37.66
379.521	42.45
379.732	42.97
379.942	38.84
380.152	37.17
380.362	26.14
380.572	21.42
380.783	22.11
380.993	26.57
381.203	26.49
381.413	18.01
381.623	18.36
381.833	11.81
382.043	20.15
382.253	19.04
382.463	23.94
382.674	26.8
382.884	32.11
383.094	18.84
383.304	17.51
383.514	11.84
383.724	-6.07
383.934	-1.84
384.144	8.03
384.353	8.48
384.563	10.23
384.773	15.38
384.983	6.97
385.193	1.05
385.403	6.89
385.613	10.25
385.823	17.28
386.033	21.36
386.242	21.98
386.452	18.86
386.662	18.45
386.872	16.9
387.082	11.43
387.291	10.51
387.501	10.92
387.711	10.97
387.921	15.43
388.13	16.83
388.34	13.74
388.55	14.02
388.759	12.7
388.969	7.28
389.179	6.67
389.388	5.49
389.598	6.5
389.807	6.73
390.017	7.57
390.227	7.53
390.436	9.9
390.646	6.18
390.855	6.38
391.065	6.2
391.274	6.64
391.484	7.24
391.693	7.07
391.903	5.63
392.112	5.18
392.322	4.52
392.531	2.67
392.74	2.78
392.95	4.14
393.159	3.35
393.369	4.02
393.578	4.69
393.787	5.73
393.997	5.11
394.206	6.27
394.415	5.9
394.625	5.72
394.834	5.95
395.043	6.34
395.252	6.32
395.462	6.14
395.671	5.36
395.88	5.15
396.089	4.78
396.298	4.37
396.508	4.71
396.717	5.51
396.926	4.83
397.135	3.97
397.344	4.13
397.553	3.34
397.762	3.15
397.971	3.67
398.181	4.17
398.39	4.56
398.599	4.83
398.808	4.88
399.017	4.33
399.226	4
399.435	3.39
399.644	3.42
399.853	3.26
400.062	3.65
400.27	3.66
400.479	3.74
400.688	3.86
400.897	4.08
401.106	3.86
401.315	4.33
401.524	4.72
401.733	4.51
401.941	4.14
402.15	4.4
402.359	4.47
402.568	4.09
402.777	3.79
402.985	4.13
403.194	3.98
403.403	3.66
403.612	3.73
403.82	3.98
404.029	3.91
404.238	3.98
404.446	3.9
404.655	3.88
404.864	3.87
405.072	3.88
405.281	3.83
405.489	3.99
405.698	4.08
405.906	4.15
406.115	4.05
406.324	4.03
406.532	3.95
406.741	3.87
406.949	3.82
407.158	3.83
407.366	3.91
407.574	3.96
407.783	3.95
407.991	3.91
408.2	3.77
408.408	3.58
408.617	3.62
408.825	3.68
409.033	3.79
409.242	3.78
409.45	3.67
409.658	3.6
409.867	3.56
410.075	3.52
410.283	3.57
410.491	3.66
410.7	3.7
410.908	3.57
411.116	3.45
411.324	3.54
411.533	3.48
411.741	3.32
411.949	3.31
412.157	3.43
412.365	3.31
412.573	3.4
412.781	3.36
412.99	3.46
413.198	3.4
413.406	3.46
413.614	3.37
413.822	3.53
414.03	3.46
414.238	3.46
414.446	3.41
414.654	3.56
414.862	3.59
415.07	3.49
415.278	3.45
415.486	3.52
415.694	3.53
415.902	3.37
416.109	3.52
416.317	3.39
416.525	3.4
416.733	3.42
416.941	3.6
417.149	3.5
417.357	3.53
417.564	3.46
417.772	3.3
417.98	3.35
418.188	3.52
418.395	3.59
418.603	3.56
418.811	3.7
419.019	3.51
419.226	3.35
419.434	3.36
419.642	3.54
419.849	3.51
420.057	3.54
420.265	3.5
420.472	3.57
420.68	3.22
420.887	3.28
421.095	3.13
421.302	3.31
421.51	3.02
421.717	3.05
421.925	2.81
422.132	2.96
422.34	2.9
422.547	2.91
422.755	3.09
422.962	3.35
423.17	3.28
423.377	3.21
423.585	3.47
423.792	3.32
423.999	3.17
424.207	3.28
424.414	3.1
424.621	2.88
424.829	2.93
425.036	2.95
425.243	2.8
425.451	2.97
425.658	3.16
425.865	3.21
426.072	3.12
426.28	3.07
426.487	3.23
426.694	2.94
426.901	2.95
427.108	3
427.315	3.38
427.523	3.05
427.73	3.14
427.937	3.3
428.144	3.32
428.351	3.14
428.558	3.06
428.765	3.29
428.972	3.26
429.179	3.08
429.386	2.9
429.593	3.13
429.8	3.22
430.007	3.03
430.214	3.23
430.421	3.33
430.628	3.35
430.835	3.29
431.042	3.35
431.249	3.33
431.456	3.48
431.662	3.54
431.869	3.6
432.076	3.59
432.283	3.6
432.49	3.52
432.697	3.52
432.903	3.5
433.11	3.58
433.317	3.45
433.524	3.32
433.73	3.42
433.937	3.26
434.144	3.26
434.35	3.38
434.557	3.54
434.764	3.53
434.97	3.72
435.177	3.72
435.384	3.8
435.59	3.81
435.797	3.64
436.003	3.45
436.21	3.36
436.416	3.36
436.623	3.29
436.829	3.35
437.036	3.53
437.242	3.66
437.449	3.41
437.655	3.55
437.862	3.57
438.068	3.43
438.275	3.38
438.481	3.44
438.687	3.41
438.894	3.49
439.1	3.54
439.307	3.38
439.513	3.57
439.719	3.57
439.926	3.46
440.132	3.52
440.338	3.77
440.544	3.62
440.751	3.6
440.957	3.64
441.163	3.71
441.369	3.71
441.575	3.73
441.782	3.81
441.988	4.02
442.194	4.04
442.4	4.01
442.606	4.1
442.812	4.09
443.018	3.88
443.224	3.76
443.431	3.7
443.637	3.69
443.843	3.67
444.049	3.75
444.255	3.95
444.461	4.11
444.667	4.17
444.873	4.09
445.079	4.07
445.284	3.95
445.49	3.94
445.696	3.98
445.902	4.07
446.108	4.1
446.314	4.05
446.52	4.16
446.726	4.17
446.931	4.15
447.137	4.2
447.343	4.22
447.549	4.2
447.755	4.15
447.96	4.14
448.166	4.12
448.372	4.11
448.578	4.02
448.783	4.09
448.989	4.16
449.195	4.08
449.4	4.13
449.606	4.18
449.812	4.14
450.017	4.11
450.223	4.22
450.428	4.35
450.634	4.32
450.84	4.31
451.045	4.41
451.251	4.4
451.456	4.25
451.662	4.03
451.867	4.07
452.073	4
452.278	3.91
452.483	3.91
452.689	4.13
452.894	4.12
453.1	4.15
453.305	4.24
453.51	4.27
453.716	4.2
453.921	4.25
454.127	4.21
454.332	4.22
454.537	4.27
454.742	4.38
454.948	4.35
455.153	4.46
455.358	4.41
455.563	4.25
455.769	4.28
455.974	4.23
456.179	4.16
456.384	4.08
456.589	4.27
456.795	4.25
457	4.23
457.205	4.15
457.41	4.2
457.615	4.25
457.82	4.2
458.025	4.24
458.23	4.38
458.435	4.39
458.64	4.32
458.845	4.35
459.05	4.37
459.255	4.42
459.46	4.41
459.665	4.42
459.87	4.46
460.075	4.38
460.28	4.41
460.485	4.44
460.69	4.46
460.895	4.43
461.099	4.53
461.304	4.37
461.509	4.38
461.714	4.47
461.919	4.46
462.123	4.43
462.328	4.46
462.533	4.57
462.738	4.5
462.942	4.5
463.147	4.63
463.352	4.59
463.556	4.55
463.761	4.56
463.966	4.55
464.17	4.42
464.375	4.58
464.58	4.59
464.784	4.53
464.989	4.62
465.193	4.66
465.398	4.62
465.602	4.47
465.807	4.63
466.011	4.61
466.216	4.6
466.42	4.6
466.625	4.84
466.829	4.73
467.034	4.76
467.238	4.77
467.443	4.76
467.647	4.75
467.851	4.8
468.056	4.77
468.26	4.81
468.464	4.81
468.669	4.74
468.873	4.64
469.077	4.59
469.282	4.66
469.486	4.6
469.69	4.63
469.894	4.7
470.099	4.8
470.303	4.7
470.507	4.84
470.711	4.84
470.915	4.89
471.119	4.96
471.324	5.1
471.528	5.1
471.732	5.11
471.936	5.11
472.14	5.04
472.344	5.03
472.548	5.04
472.752	5.07
472.956	5.02
473.16	5.02
473.364	5.04
473.568	4.99
473.772	5.02
473.976	5.12
474.18	5.24
474.384	5.29
474.588	5.39
474.792	5.54
474.995	5.49
475.199	5.37
475.403	5.25
475.607	5.21
475.811	5.1
476.015	5.03
476.218	5.11
476.422	5.24
476.626	5.26
476.83	5.25
477.033	5.44
477.237	5.39
477.441	5.32
477.644	5.28
477.848	5.32
478.052	5.28
478.255	5.32
478.459	5.31
478.663	5.28
478.866	5.29
479.07	5.22
479.273	5.21
479.477	5.15
479.681	5.14
479.884	5.11
480.088	5.21
480.291	5.22
480.495	5.24
480.698	5.32
480.901	5.32
481.105	5.19
481.308	5.19
481.512	5.3
481.715	5.27
481.919	5.31
482.122	5.35
482.325	5.33
482.529	5.29
482.732	5.32
482.935	5.3
483.138	5.28
483.342	5.29
483.545	5.28
483.748	5.2
483.952	5.17
484.155	5.11
484.358	5.14
484.561	5.19
484.764	5.21
484.967	5.24
485.171	5.32
485.374	5.39
485.577	5.35
485.78	5.37
485.983	5.3
486.186	5.32
486.389	5.25
486.592	5.28
486.795	5.32
486.998	5.38
487.201	5.4
487.404	5.39
487.607	5.38
487.81	5.32
488.013	5.31
488.216	5.3
488.419	5.29
488.622	5.35
488.825	5.43
489.028	5.52
489.231	5.57
489.433	5.66
489.636	5.63
489.839	5.6
490.042	5.59
490.245	5.64
490.447	5.62
490.65	5.61
490.853	5.59
491.056	5.56
491.258	5.56
491.461	5.55
491.664	5.5
491.866	5.6
492.069	5.55
492.272	5.54
492.474	5.53
492.677	5.64
492.879	5.59
493.082	5.6
493.285	5.54
493.487	5.59
493.69	5.6
493.892	5.71
494.095	5.83
494.297	5.88
494.5	5.86
494.702	5.86
494.905	5.85
495.107	5.85
495.309	5.9
495.512	5.95
495.714	6.01
495.917	6
496.119	6.04
496.321	6.05
496.524	6.08
496.726	6.12
496.928	6.14
497.13	6.19
497.333	6.2
497.535	6.22
497.737	6.28
497.939	6.34
498.142	6.35
498.344	6.39
498.546	6.46
498.748	6.42
498.95	6.36
499.152	6.41
499.355	6.45
499.557	6.38
499.759	6.32
499.961	6.42
500.163	6.45
500.365	6.44
500.567	6.47
500.769	6.61
500.971	6.65
501.173	6.68
501.375	6.7
501.577	6.78
501.779	6.83
501.981	6.82
502.183	6.83
502.385	6.86
502.587	6.84
502.788	6.79
502.99	6.82
503.192	6.84
503.394	6.91
503.596	7.03
503.798	7.04
503.999	7.1
504.201	7.07
504.403	7.02
504.605	7.01
504.806	7.06
505.008	7.02
505.21	7.03
505.411	7.1
505.613	7.06
505.815	7.04
506.016	6.99
506.218	6.96
506.42	6.92
506.621	6.92
506.823	6.88
507.024	6.88
507.226	6.95
507.427	6.97
507.629	6.99
507.83	7
508.032	6.99
508.233	6.97
508.435	6.91
508.636	6.87
508.838	6.89
509.039	6.88
509.24	6.84
509.442	6.87
509.643	6.88
509.845	6.88
510.046	6.87
510.247	6.88
510.448	6.82
510.65	6.85
510.851	6.78
511.052	6.78
511.254	6.82
511.455	6.81
511.656	6.68
511.857	6.63
512.058	6.59
512.26	6.52
512.461	6.52
512.662	6.61
512.863	6.71
513.064	6.76
513.265	6.72
513.466	6.75
513.667	6.77
513.868	6.69
514.069	6.65
514.27	6.64
514.471	6.62
514.672	6.54
514.873	6.59
515.074	6.53
515.275	6.57
515.476	6.62
515.677	6.6
515.878	6.59
516.079	6.64
516.28	6.61
516.481	6.56
516.682	6.59
516.882	6.62
517.083	6.61
517.284	6.65
517.485	6.6
517.686	6.58
517.886	6.57
518.087	6.47
518.288	6.45
518.488	6.51
518.689	6.47
518.89	6.52
519.091	6.62
519.291	6.59
519.492	6.53
519.692	6.56
519.893	6.43
520.094	6.42
520.294	6.46
520.495	6.51
520.695	6.54
520.896	6.64
521.096	6.63
521.297	6.62
521.497	6.62
521.698	6.67
521.898	6.63
522.099	6.69
522.299	6.65
522.499	6.66
522.7	6.59
522.9	6.64
523.101	6.52
523.301	6.59
523.501	6.57
523.702	6.61
523.902	6.6
524.102	6.64
524.302	6.63
524.503	6.64
524.703	6.65
524.903	6.67
525.103	6.74
525.304	6.7
525.504	6.64
525.704	6.61
525.904	6.59
526.104	6.57
526.304	6.65
526.504	6.63
526.705	6.68
526.905	6.64
527.105	6.65
527.305	6.57
527.505	6.63
527.705	6.63
527.905	6.64
528.105	6.65
528.305	6.67
528.505	6.68
528.705	6.66
528.905	6.7
529.105	6.72
529.304	6.74
529.504	6.73
529.704	6.79
529.904	6.82
530.104	6.84
530.304	6.86
530.503	6.92
530.703	6.87
530.903	6.85
531.103	6.81
531.303	6.85
531.502	6.84
531.702	6.84
531.902	6.83
532.101	6.86
532.301	6.86
532.501	6.84
532.7	6.87
532.9	6.89
533.1	6.9
533.299	6.93
533.499	6.93
533.698	6.99
533.898	7.03
534.097	7.07
534.297	6.94
534.496	6.96
534.696	6.95
534.895	6.91
535.095	6.86
535.294	7
535.494	6.98
535.693	6.99
535.892	7.02
536.092	7.06
536.291	7.05
536.491	7.11
536.69	7.07
536.889	7.13
537.088	7.15
537.288	7.1
537.487	7.08
537.686	7.1
537.886	7.08
538.085	7.12
538.284	7.18
538.483	7.27
538.682	7.29
538.882	7.28
539.081	7.22
539.28	7.28
539.479	7.28
539.678	7.31
539.877	7.33
540.076	7.39
540.275	7.39
540.474	7.3
540.673	7.32
540.872	7.34
541.071	7.39
541.27	7.46
541.469	7.51
541.668	7.49
541.867	7.59
542.066	7.58
542.265	7.58
542.464	7.69
542.663	7.76
542.862	7.71
543.06	7.75
543.259	7.76
543.458	7.72
543.657	7.74
543.856	7.81
544.054	7.82
544.253	7.85
544.452	7.89
544.651	7.84
544.849	7.89
545.048	7.92
545.247	7.98
545.445	7.97
545.644	8.07
545.843	8.08
546.041	8.11
546.24	8.09
546.438	8.17
546.637	8.24
546.836	8.26
547.034	8.31
547.233	8.39
547.431	8.47
547.63	8.49
547.828	8.55
548.027	8.55
548.225	8.56
548.423	8.57
548.622	8.56
548.82	8.6
549.019	8.67
549.217	8.59
549.415	8.66
549.614	8.71
549.812	8.74
550.01	8.79
550.209	8.95
550.407	8.94
550.605	8.96
550.803	8.98
551.002	9.05
551.2	9.15
551.398	9.17
551.596	9.2
551.794	9.28
551.993	9.31
552.191	9.36
552.389	9.42
552.587	9.52
552.785	9.55
552.983	9.55
553.181	9.55
553.379	9.61
553.577	9.71
553.775	9.76
553.973	9.82
554.171	9.89
554.369	9.99
554.567	10.04
554.765	10.17
554.963	10.25
555.161	10.33
555.359	10.4
555.557	10.35
555.755	10.37
555.952	10.44
556.15	10.49
556.348	10.5
556.546	10.57
556.744	10.63
556.941	10.68
557.139	10.73
557.337	10.87
557.535	11.01
557.732	11.05
557.93	11.05
558.128	11.1
558.325	11.1
558.523	11.09
558.721	11.16
558.918	11.28
559.116	11.36
559.313	11.36
559.511	11.53
559.708	11.61
559.906	11.76
560.104	11.79
560.301	11.89
560.498	11.88
560.696	11.9
560.893	11.9
561.091	11.99
561.288	12.09
561.486	12.16
561.683	12.22
561.88	12.24
562.078	12.29
562.275	12.4
562.473	12.43
562.67	12.44
562.867	12.46
563.064	12.58
563.262	12.63
563.459	12.66
563.656	12.72
563.853	12.83
564.051	12.91
564.248	12.91
564.445	12.97
564.642	13.11
564.839	13.2
565.036	13.18
565.234	13.14
565.431	13.24
565.628	13.25
565.825	13.23
566.022	13.26
566.219	13.37
566.416	13.4
566.613	13.42
566.81	13.49
567.007	13.52
567.204	13.6
567.401	13.65
567.598	13.71
567.795	13.69
567.991	13.7
568.188	13.77
568.385	13.7
568.582	13.74
568.779	13.82
568.976	13.81
569.172	13.8
569.369	13.86
569.566	13.85
569.763	13.8
569.96	13.91
570.156	13.92
570.353	14.03
570.55	14.14
570.746	14.24
570.943	14.25
571.14	14.23
571.336	14.2
571.533	14.19
571.729	14.25
571.926	14.25
572.123	14.23
572.319	14.3
572.516	14.31
572.712	14.25
572.909	14.22
573.105	14.26
573.302	14.23
573.498	14.15
573.695	14.15
573.891	14.15
574.087	14.18
574.284	14.2
574.48	14.3
574.677	14.29
574.873	14.34
575.069	14.33
575.266	14.32
575.462	14.24
575.658	14.18
575.854	14.2
576.051	14.16
576.247	14.11
576.443	14.16
576.639	14.22
576.835	14.18
577.032	14.19
577.228	14.22
577.424	14.09
577.62	14.14
577.816	14.11
578.012	14.1
578.208	14.06
578.404	14.1
578.6	14.05
578.796	14.06
578.993	14.06
579.189	14.1
579.384	14.14
579.58	14.14
579.776	14.12
579.972	14.13
580.168	14.07
580.364	14.09
580.56	14.05
580.756	13.94
580.952	13.96
581.148	13.99
581.343	13.93
581.539	13.93
581.735	14.01
581.931	13.91
582.127	13.92
582.322	13.94
582.518	13.89
582.714	13.85
582.909	13.77
583.105	13.69
583.301	13.63
583.496	13.57
583.692	13.57
583.888	13.63
584.083	13.63
584.279	13.63
584.474	13.55
584.67	13.48
584.866	13.49
585.061	13.48
585.257	13.43
585.452	13.61
585.648	13.67
585.843	13.57
586.039	13.55
586.234	13.52
586.429	13.46
586.625	13.37
586.82	13.47
587.015	13.5
587.211	13.57
587.406	13.6
587.601	13.64
587.797	13.59
587.992	13.56
588.187	13.49
588.383	13.46
588.578	13.51
588.773	13.5
588.968	13.51
589.163	13.51
589.359	13.48
589.554	13.4
589.749	13.46
589.944	13.51
590.139	13.56
590.334	13.61
590.529	13.74
590.724	13.77
590.919	13.72
591.114	13.72
591.309	13.64
591.504	13.55
591.699	13.5
591.894	13.6
592.089	13.73
592.284	13.81
592.479	13.84
592.674	13.95
592.869	13.88
593.064	13.86
593.259	13.9
593.454	13.93
593.648	14.02
593.843	14.22
594.038	14.19
594.233	14.23
594.428	14.32
594.622	14.34
594.817	14.3
595.012	14.45
595.206	14.58
595.401	14.61
595.596	14.52
595.79	14.57
595.985	14.54
596.18	14.6
596.374	14.71
596.569	14.9
596.763	14.9
596.958	15.01
597.153	14.98
597.347	15.01
597.542	14.99
597.736	15.09
597.931	15.08
598.125	15.15
598.319	15.15
598.514	15.2
598.708	15.26
598.903	15.37
599.097	15.4
599.291	15.43
599.486	15.47
599.68	15.52
599.874	15.5
600.069	15.57
600.263	15.67
600.457	15.73
600.651	15.68
600.846	15.76
601.04	15.8
601.234	15.82
601.428	15.86
601.622	15.91
601.817	15.82
602.011	15.85
602.205	15.87
602.399	15.84
602.593	15.89
602.787	15.97
602.981	15.93
603.175	15.96
603.369	15.97
603.563	15.93
603.757	15.94
603.951	15.83
604.145	15.79
604.339	15.75
604.533	15.74
604.727	15.73
604.921	15.8
605.115	15.72
605.309	15.7
605.502	15.69
605.696	15.64
605.89	15.48
606.084	15.46
606.278	15.48
606.471	15.36
606.665	15.36
606.859	15.5
607.053	15.5
607.246	15.34
607.44	15.36
607.634	15.31
607.827	15.23
608.021	15.22
608.214	15.27
608.408	15.21
608.602	15.15
608.795	15.19
608.989	15.1
609.182	14.94
609.376	14.92
609.569	14.91
609.763	14.69
609.956	14.64
610.15	14.64
610.343	14.67
610.537	14.54
610.73	14.52
610.923	14.48
611.117	14.48
611.31	14.32
611.504	14.26
611.697	14.3
611.89	14.22
612.083	14.13
612.277	14.08
612.47	14.11
612.663	14.05
612.856	13.94
613.05	13.89
613.243	13.87
613.436	13.68
613.629	13.62
613.822	13.58
614.015	13.55
614.209	13.45
614.402	13.53
614.595	13.53
614.788	13.53
614.981	13.52
615.174	13.44
615.367	13.35
615.56	13.26
615.753	13.25
615.946	13.1
616.139	13.03
616.332	12.94
616.525	12.86
616.718	12.81
616.911	12.9
617.103	12.9
617.296	12.86
617.489	12.8
617.682	12.81
617.875	12.61
618.067	12.6
618.26	12.67
618.453	12.6
618.646	12.44
618.838	12.43
619.031	12.37
619.224	12.29
619.417	12.36
619.609	12.38
619.802	12.44
619.994	12.45
620.187	12.39
620.38	12.31
620.572	12.29
620.765	12.2
620.957	12.22
621.15	12.28
621.342	12.24
621.535	12.14
621.727	12.08
621.92	12.07
622.112	12.01
622.305	12.05
622.497	12.19
622.69	12.21
622.882	12.11
623.074	12.11
623.267	12.07
623.459	12.02
623.651	11.96
623.844	11.98
624.036	11.97
624.228	12
624.42	11.96
624.613	11.99
624.805	11.98
624.997	11.89
625.189	11.81
625.381	11.78
625.574	11.77
625.766	11.68
625.958	11.72
626.15	11.72
626.342	11.67
626.534	11.7
626.726	11.71
626.918	11.66
627.11	11.58
627.302	11.56
627.494	11.48
627.686	11.48
627.878	11.4
628.07	11.48
628.262	11.41
628.454	11.35
628.646	11.3
628.838	11.28
629.029	11.24
629.221	11.22
629.413	11.23
629.605	11.19
629.797	11.17
629.989	11.1
630.18	11.1
630.372	11.03
630.564	11
630.755	10.94
630.947	10.88
631.139	10.88
631.33	10.87
631.522	10.87
631.714	10.88
631.905	10.98
632.097	10.91
632.289	10.96
632.48	10.99
632.672	10.99
632.863	10.87
633.055	10.96
633.246	10.86
633.438	10.77
633.629	10.76
633.821	10.8
634.012	10.74
634.203	10.82
634.395	10.79
634.586	10.83
634.777	10.8
634.969	10.79
635.16	10.8
635.351	10.94
635.543	10.96
635.734	10.94
635.925	11.01
636.117	10.99
636.308	10.92
636.499	10.84
636.69	10.96
636.881	10.9
637.073	10.92
637.264	10.92
637.455	10.92
637.646	10.84
637.837	10.83
638.028	10.83
638.219	10.81
638.41	10.85
638.601	10.85
638.792	10.89
638.983	10.96
639.174	10.92
639.365	10.95
639.556	10.91
639.747	10.87
639.938	10.74
640.129	10.78
640.32	10.72
640.511	10.73
640.701	10.69
640.892	10.68
641.083	10.54
641.274	10.57
641.465	10.54
641.655	10.62
641.846	10.64
642.037	10.74
642.228	10.58
642.418	10.52
642.609	10.46
642.8	10.43
642.99	10.41
643.181	10.48
643.372	10.56
643.562	10.51
643.753	10.49
643.943	10.47
644.134	10.51
644.324	10.42
644.515	10.4
644.705	10.31
644.896	10.32
645.086	10.3
645.277	10.31
645.467	10.38
645.658	10.5
645.848	10.51
646.038	10.43
646.229	10.44
646.419	10.41
646.61	10.3
646.8	10.32
646.99	10.33
647.18	10.33
647.371	10.27
647.561	10.34
647.751	10.38
647.941	10.42
648.132	10.48
648.322	10.55
648.512	10.5
648.702	10.44
648.892	10.39
649.082	10.34
649.272	10.37
649.462	10.37
649.653	10.35
649.843	10.37
650.033	10.3
650.223	10.25
650.413	10.26
650.603	10.21
650.793	10.15
650.983	10.22
651.172	10.09
651.362	9.99
651.552	10
651.742	10.08
651.932	9.96
652.122	10
652.312	9.98
652.502	9.86
652.691	9.76
652.881	9.72
653.071	9.65
653.261	9.55
653.45	9.48
653.64	9.37
653.83	9.41
654.019	9.31
654.209	9.23
654.399	9.11
654.588	9
654.778	8.85
654.968	8.75
655.157	8.74
655.347	8.75
655.536	8.78
655.726	8.63
655.915	8.58
656.105	8.48
656.294	8.34
656.484	8.24
656.673	8.31
656.863	8.18
657.052	8.2
657.241	8.2
657.431	8.17
657.62	7.93
657.809	7.9
657.999	7.83
658.188	7.79
658.377	7.67
658.567	7.66
658.756	7.65
658.945	7.58
659.134	7.45
659.324	7.43
659.513	7.37
659.702	7.29
659.891	7.12
660.08	7.02
660.269	6.88
660.458	6.82
660.648	6.72
660.837	6.79
661.026	6.69
661.215	6.67
661.404	6.64
661.593	6.41
661.782	6.28
661.971	6.26
662.16	6.08
662.349	5.93
662.538	6.03
662.726	5.97
662.915	5.97
663.104	5.92
663.293	5.9
663.482	5.81
663.671	5.78
663.86	5.74
664.048	5.77
664.237	5.74
664.426	5.68
664.615	5.6
664.803	5.47
664.992	5.43
665.181	5.42
665.369	5.51
665.558	5.45
665.747	5.48
665.935	5.44
666.124	5.49
666.312	5.34
666.501	5.44
666.69	5.57
666.878	5.55
667.067	5.51
667.255	5.54
667.444	5.27
667.632	5.08
667.82	4.96
668.009	4.92
668.197	5.03
668.386	5.21
668.574	5.19
668.762	5.24
668.951	5.17
669.139	5.13
669.327	5.22
669.516	5.16
669.704	5.3
669.892	5.43
670.08	5.4
670.269	5.37
670.457	5.51
670.645	5.43
670.833	5.32
671.021	5.33
671.21	5.31
671.398	5.21
671.586	5.26
671.774	5.37
671.962	5.41
672.15	5.52
672.338	5.77
672.526	5.73
672.714	5.7
672.902	5.79
673.09	5.72
673.278	5.58
673.466	5.67
673.654	5.59
673.842	5.68
674.03	5.73
674.218	5.96
674.405	6.08
674.593	6.24
674.781	6.07
674.969	6.06
675.157	5.91
675.344	5.84
675.532	5.85
675.72	6.05
675.908	6.19
676.095	6.26
676.283	6.31
676.471	6.31
676.658	6.26
676.846	6.27
677.033	6.27
677.221	6.4
677.409	6.54
677.596	6.72
677.784	6.67
677.971	6.78
678.159	6.79
678.346	6.77
678.534	6.68
678.721	6.69
678.909	6.75
679.096	6.75
679.283	6.74
679.471	6.85
679.658	6.94
679.846	6.95
680.033	7.05
680.22	7.2
680.408	7.24
680.595	7.35
680.782	7.44
680.969	7.4
681.157	7.48
681.344	7.54
681.531	7.7
681.718	7.79
681.905	7.88
682.093	7.81
682.28	7.8
682.467	7.89
682.654	7.84
682.841	8.04
683.028	8.28
683.215	8.43
683.402	8.35
683.589	8.46
683.776	8.53
683.963	8.52
684.15	8.58
684.337	8.76
684.524	8.95
684.711	9
684.898	9.17
685.085	9.32
685.271	9.39
685.458	9.47
685.645	9.66
685.832	9.76
686.019	9.99
686.205	10.15
686.392	10.28
686.579	10.36
686.766	10.45
686.952	10.55
687.139	10.72
687.326	11.03
687.512	11.14
687.699	11.29
687.886	11.38
688.072	11.72
688.259	11.84
688.445	12.25
688.632	12.65
688.818	12.88
689.005	13.09
689.191	13.38
689.378	13.61
689.564	13.81
689.751	14.21
689.937	14.57
690.124	14.91
690.31	15.19
690.496	15.69
690.683	15.97
690.869	16.31
691.055	16.71
691.242	17.03
691.428	17.26
691.614	17.59
691.8	17.86
691.987	18.08
692.173	18.55
692.359	18.85
692.545	19.39
692.731	19.88
692.918	20.38
693.104	20.86
693.29	21.34
693.476	21.66
693.662	22.17
693.848	22.76
694.034	23.15
694.22	23.81
694.406	24.41
694.592	24.72
694.778	25.14
694.964	25.73
695.15	26.13
695.336	26.59
695.522	27.22
695.708	27.88
695.894	28.45
696.08	29.06
696.265	29.67
696.451	30.48
696.637	30.85
696.823	31.42
697.009	31.99
697.194	32.38
697.38	32.77
697.566	33.41
697.751	33.95
697.937	34.49
698.123	35.25
698.308	35.64
698.494	36.33
698.68	36.75
698.865	37.26
699.051	37.58
699.236	38.27
699.422	38.63
699.607	39.46
699.793	40.12
699.978	40.93
700.164	41.52
700.349	41.68
700.535	41.99
700.72	42.22
700.906	42.52
701.091	42.93
701.276	43.64
701.462	43.88
701.647	44.53
701.832	45.12
702.018	45.53
702.203	46.09
702.388	47.01
702.573	47.68
702.759	48.12
702.944	48.61
703.129	49.03
703.314	49.07
703.499	49.1
703.684	49.46
703.87	49.55
704.055	49.62
704.24	50.19
704.425	50.9
704.61	51.29
704.795	52.04
704.98	52.89
705.165	53.23
705.35	53.45
705.535	53.72
705.72	53.61
705.905	53.89
706.09	54.16
706.275	54.36
706.459	54.72
706.644	55.13
706.829	55.23
707.014	55.63
707.199	56.13
707.384	56.6
707.568	57.05
707.753	57.45
707.938	57.6
708.123	57.49
708.307	57.87
708.492	58.05
708.677	58.23
708.861	58.43
709.046	58.95
709.231	59
709.415	59.52
709.6	59.84
709.784	60.13
709.969	60.24
710.153	60.38
710.338	60.46
710.522	60.58
710.707	60.72
710.891	60.91
711.076	61.05
711.26	61.29
711.445	61.43
711.629	61.93
711.813	62.26
711.998	62.46
712.182	62.74
712.366	62.85
712.551	62.67
712.735	62.96
712.919	63.08
713.103	63.04
713.288	63.68
713.472	63.94
713.656	63.51
713.84	63.59
714.024	63.35
714.208	62.96
714.393	63.36
714.577	64.05
714.761	64.24
714.945	64.7
715.129	65.05
715.313	64.6
715.497	64.95
715.681	64.83
715.865	65.23
716.049	65.83
716.233	66.54
716.417	66.21
716.601	66.46
716.785	66.68
716.968	65.93
717.152	65.84
717.336	66
717.52	66.44
717.704	66.03
717.888	66.74
718.071	66.87
718.255	66.69
718.439	67.04
718.622	67.14
718.806	66.84
718.99	67.12
719.174	67.49
719.357	67.16
719.541	67.7
719.724	67.96
719.908	68.17
720.092	68.18
720.275	68.65
720.459	68.6
720.642	68.22
720.826	68.43
721.009	68.86
721.193	68.95
721.376	69.6
721.559	70.03
721.743	69.8
721.926	69.61
722.11	69.38
722.293	68.93
722.476	69.31
722.66	69.22
722.843	69.22
723.026	69.81
723.21	69.97
723.393	69.66
723.576	69.48
723.759	69.54
723.942	68.88
724.126	69.21
724.309	69.78
724.492	70.34
724.675	71.01
724.858	71.17
725.041	70.56
725.224	70.54
725.407	70.31
725.59	70.32
725.774	70.7
725.957	71.37
726.14	71.44
726.322	71.28
726.505	71.21
726.688	71.5
726.871	71.18
727.054	71.43
727.237	72.13
727.42	71.92
727.603	71.97
727.786	72.56
727.968	72.71
728.151	73.08
728.334	73.77
728.517	73.86
728.699	73.01
728.882	73.21
729.065	72.73
729.248	72.65
729.43	72.57
729.613	73.19
729.796	73.19
729.978	73.57
730.161	73.38
730.343	74.22
730.526	74.48
730.708	74.85
730.891	75.39
731.073	76.28
731.256	75.58
731.438	75.92
731.621	75.38
731.803	74.62
731.986	73.79
732.168	74.96
732.35	75.19
732.533	75.84
732.715	76.92
732.898	77.3
733.08	76.77
733.262	76.16
733.444	76.38
733.627	75.87
733.809	76.35
733.991	75.86
734.173	76.67
734.355	75.73
734.538	76.06
734.72	75.63
734.902	75.67
735.084	75.62
735.266	76.37
735.448	76.91
735.63	78.09
735.812	79
735.994	78.51
736.176	78.63
736.358	77.69
736.54	76.33
736.722	76.49
736.904	77.34
737.086	76.41
737.268	76.33
737.45	77.27
737.632	77.22
737.814	76.83
737.995	77.64
738.177	78.57
738.359	78.91
738.541	79.28
738.723	79.35
738.904	79.4
739.086	79.64
739.268	78.83
739.449	78.07
739.631	77.81
739.813	78.83
739.994	78.04
740.176	77.62
740.358	78.08
740.539	77.97
740.721	77.44
740.902	77.7
741.084	78.27
741.265	78.96
741.447	79.65
741.628	79.24
741.81	79.92
741.991	80.4
742.172	78.9
742.354	79.13
742.535	79.69
742.717	79.5
742.898	79.72
743.079	80.19
743.261	80.19
743.442	80.3
743.623	79.5
743.804	79.25
743.986	78.9
744.167	78.91
744.348	79.33
744.529	79.48
744.71	78.97
744.891	78.96
745.073	79.51
745.254	78.14
745.435	78.73
745.616	79.22
745.797	80.12
745.978	80.04
746.159	80.59
746.34	79.94
746.521	79.9
746.702	79.79
746.883	79.23
747.064	80.38
747.245	80.73
747.426	80.23
747.606	79.58
747.787	79.32
747.968	77.37
748.149	77.41
748.33	78.27
748.51	78.65
748.691	78.54
748.872	80.23
749.053	81.37
749.233	82.02
749.414	82.47
749.595	82.2
749.775	82.4
749.956	81.73
750.137	81.44
750.317	80.15
750.498	81.22
750.678	80.58
750.859	79.56
751.04	79.21
751.22	80.7
751.4	79.6
751.581	80.16
751.761	79.41
751.942	79.13
752.122	77.64
752.303	79
752.483	79.24
752.663	80.42
752.844	80.31
753.024	81.13
753.204	80.85
753.385	79.23
753.565	79.31
753.745	79.3
753.925	78.65
754.106	78.16
754.286	79.14
754.466	78.5
754.646	79.08
754.826	80.44
755.006	80.46
755.187	80.1
755.367	80.93
755.547	81.28
755.727	79.68
755.907	80.06
756.087	79.12
756.267	78.7
756.447	77.75
756.627	79.06
756.807	78.5
756.987	79.61
757.167	80.81
757.346	81.08
757.526	81.06
757.706	80.71
757.886	81.59
758.066	81.46
758.246	81.19
758.425	82.43
758.605	84.04
758.785	83.07
758.965	82.3
759.144	82.1
759.324	80.43
759.504	78.84
759.683	80.63
759.863	80.55
760.043	80.84
760.222	80.72
760.402	80.92
760.581	79.5
760.761	77.16
760.94	78.07
761.12	77.92
761.299	77.43
761.479	76.63
761.658	79.48
761.838	78.73
762.017	79.55
762.197	79.66
762.376	80.21
762.555	79.27
762.735	78.19
762.914	77.73
763.093	77.99
763.273	76.93
763.452	76.73
763.631	76.87
763.81	76.65
763.99	77.11
764.169	78.69
764.348	78.2
764.527	79.88
764.706	78.34
764.885	77.57
765.064	76.83
765.243	78.2
765.423	77.39
765.602	78.04
765.781	79.59
765.96	79.57
766.139	80.35
766.318	80.53
766.497	81.3
766.676	79.3
766.854	78.48
767.033	77.36
767.212	76.48
767.391	77.45
767.57	78.38
767.749	80.36
767.928	79.81
768.106	81.32
768.285	81.21
768.464	80.91
768.643	79.11
768.821	77.54
769	75.82
769.179	76.93
769.357	78.82
769.536	81.44
769.715	82.79
769.893	83.32
770.072	81.89
770.25	80.32
770.429	77.72
770.607	78.7
770.786	78.37
770.964	76.47
771.143	77.11
771.321	75.16
771.5	73.5
771.678	72.98
771.857	74.28
772.035	72.62
772.213	73.55
772.392	75.64
772.57	75.14
772.748	76.08
772.927	77.66
773.105	78.59
773.283	77.27
773.461	78.04
773.64	77.42
773.818	76.01
773.996	76.1
774.174	76.27
774.352	76.15
774.531	76.2
774.709	76.71
774.887	75.96
775.065	77.13
775.243	78.74
775.421	76.79
775.599	78.04
775.777	79.61
775.955	79.06
776.133	78.18
776.311	78.56
776.489	78.78
776.667	78.75
776.844	78.61
777.022	80.21
777.2	79.91
777.378	78.56
777.556	78.44
777.734	77.81
777.911	75.8
778.089	77.09
778.267	76.95
778.445	78.22
778.622	78.83
778.8	76.67
778.978	76.78
779.155	75.46
779.333	73.17
779.511	72.35
779.688	72.32
779.866	75.74
780.043	79.07
780.221	78.96
780.398	79.37
780.576	79.52
780.753	75.83
780.931	74.59
781.108	74.99
781.286	74.42
781.463	75.6
781.64	75.89
781.818	74.41
781.995	73.88
782.172	74.12
782.35	77.06
782.527	74.81
782.704	77.27
782.882	76.43
783.059	77.33
783.236	74.27
783.413	75.32
783.59	72.52
783.768	75.52
783.945	73.44
784.122	73.97
784.299	74.46
784.476	76.45
784.653	76.5
784.83	76.36
785.007	77.99
785.184	79.54
785.361	81.42
785.538	79.31
785.715	81.08
785.892	79.24
786.069	78.19
786.246	75.03
786.423	75.86
786.6	74.81
786.776	76.9
786.953	76.59
787.13	74.61
787.307	72.16
787.484	72.02
787.66	73.07
787.837	72.55
788.014	76.57
788.191	80.01
788.367	82.16
788.544	79.14
788.721	84.06
788.897	82.63
789.074	79.94
789.25	77.71
789.427	78.43
789.603	73.56
789.78	74.37
789.956	77.56
790.133	79.37
790.309	80.87
790.486	76.58
790.662	76.97
790.839	77.36
791.015	72.7
791.192	70.1
791.368	74.99
791.544	78.66
791.721	77.08
791.897	79.74
792.073	79.51
792.249	76.91
792.426	71.44
792.602	70.52
792.778	74.13
792.954	75.46
793.13	80.91
793.307	83.39
793.483	84.84
793.659	82.75
793.835	84.09
794.011	78.77
794.187	78.1
794.363	76.33
794.539	76.63
794.715	79.42
794.891	79.89
795.067	79.67
795.243	81.79
795.419	79.97
795.595	74.26
795.771	76.95
795.947	72.16
796.122	74.73
796.298	73.16
796.474	76.23
796.65	71.02
796.826	75.12
797.001	66.17
797.177	67.77
797.353	63.93
797.529	70.08
797.704	71.27
797.88	80.81
798.056	79.69
798.231	82.16
798.407	76.48
798.582	76.91
798.758	70.07
798.934	67.95
799.109	68.21
799.285	70.79
799.46	70.36
799.636	72.36
799.811	80.9
799.986	80.05
800.162	83.73
800.337	75.64
800.513	81.73
800.688	77.96
800.863	79.16
801.039	74.61
801.214	78.87
801.389	71.76
801.565	70.26
801.74	72.75
801.915	73.2
802.09	75.04
802.265	74.71
802.441	76.89
802.616	75.82
802.791	78.17
802.966	77.17
803.141	82.56
803.316	86.19
803.491	81.45
803.666	77.95
803.841	81.92
804.016	77.77
804.191	72.46
804.366	79.58
804.541	82.76
804.716	80.18
804.891	80.6
805.066	75.3
805.241	70.63
805.416	71.08
805.591	70.36
805.765	68.87
805.94	73.87
806.115	76.98
806.29	79.66
806.464	82.08
806.639	82.64
806.814	77.94
806.989	76.96
807.163	72.71
807.338	74.37
807.512	75.54
807.687	80.54
807.862	76.32
808.036	72.34
808.211	69.53
808.385	67.57
808.56	61.67
808.734	73.62
808.909	83.38
809.083	90.75
809.258	86.15
809.432	89.72
809.606	83.18
809.781	73.75
809.955	66.65
810.13	67.41
810.304	68.54
810.478	67.99
810.652	67.86
810.827	68.18
811.001	68.14
811.175	69.94
811.349	67.31
811.524	66.59
811.698	65.48
811.872	66.64
812.046	66.86
812.22	66.33
812.394	76.63
812.568	85.32
812.742	87.27
812.916	82.27
813.09	85.11
813.264	84.38
813.438	79.41
813.612	83.06
813.786	94.16
813.96	88.5
814.134	90.56
814.308	80.4
814.482	77.48
814.656	63.92
814.83	60.79
815.003	58.26
815.177	77.11
815.351	77.7
815.525	80.4
815.698	94.36
815.872	96.88
816.046	86.76
816.219	86.63
816.393	81.93
816.567	77.55
816.74	78.71
816.914	76.06
817.088	74.81
817.261	79.83
817.435	85.05
817.608	83.3
817.782	95.16
817.955	93.26
818.129	97.18
818.302	82.25
818.475	65.14
818.649	50.24
818.822	53.04
818.996	38.35
819.169	53.87
819.342	65.5
819.516	72.25
819.689	59.56
819.862	71.01
820.035	71.44
820.209	68.16
820.382	74.2
820.555	75.95
820.728	66.4
820.901	72.26
821.075	80.24
821.248	72.11
821.421	94.06
821.594	105.53
821.767	87.57
821.94	73.69
822.113	77.24
822.286	73.29
822.459	67.04
822.632	70.97
822.805	73.67
822.978	78.79
823.151	70.17
823.324	81.06
823.496	88.23
823.669	89.86
823.842	80.93
824.015	90.27
824.188	75.41
824.361	66.18
824.533	72.16
824.706	62.77
824.879	61.26
825.051	53.97
825.224	55.32
825.397	53.27
825.569	62.01
825.742	68.84
825.915	80.54
826.087	88.17
826.26	90.36
826.432	106.58
826.605	94.94
826.777	79.86
826.95	81.84
827.122	76.82
827.295	65.63
827.467	70.34
827.64	79.64
827.812	89.83
827.984	86.62
828.157	96.39
828.329	96.05
828.501	96.01
828.674	76.34
828.846	91.55
829.018	90.15
829.19	80.79
829.363	83.85
829.535	83.68
829.707	77.61
829.879	74.7
830.051	83.81
830.223	83.37
830.395	87
830.568	90.16
830.74	83.04
830.912	71.2
831.084	62.62
831.256	64.1
831.428	46.92
831.6	59.5
831.772	72.85
831.943	77.1
832.115	80.05
832.287	82.19
832.459	70.01
832.631	77.47
832.803	77.41
832.975	79.61
833.146	84.83
833.318	127.84
833.49	95.16
833.662	85.84
833.833	81.05
834.005	78.6
834.177	67.85
834.348	71.56
834.52	83.32
834.692	88.89
834.863	89.2
835.035	85.89
835.206	96.48
835.378	89.33
835.549	106.51
835.721	111.32
835.892	112.56
836.064	78.59
836.235	79.68
836.407	63.22
836.578	65.15
836.749	75.71
836.921	94.3
837.092	95
837.264	116.85
837.435	109.07
837.606	82.72
837.777	66
837.949	62.14
838.12	42.7
838.291	50.85
838.462	54.49
838.633	63.59
838.805	80.78
838.976	77.86
839.147	63.88
839.318	63.29
839.489	44.12
839.66	41.61
839.831	31.13
840.002	53
840.173	78.36
840.344	83.97
840.515	78.2
840.686	77.92
840.857	79.9
841.028	73.71
841.199	91.11
841.369	101.66
841.54	119.56
841.711	156.47
841.882	142.65
842.053	110.73
842.223	130.47
842.394	116.07
842.565	117.36
842.736	106.32
842.906	108.68
843.077	78.72
843.248	79.38
843.418	59.79
843.589	56.32
843.759	41.25
843.93	45.59
844.101	30.62
844.271	41.59
844.442	58.54
844.612	49
844.783	63.12
844.953	85.03
845.123	59.56
845.294	31.28
845.464	61.77
845.635	60.08
845.805	54.12
845.975	79.54
846.146	82.87
846.316	76.89
846.486	65.4
846.656	63.49
846.827	72.34
846.997	79.74
847.167	86.3
847.337	88.28
847.507	93.56
847.677	97.51
847.848	94.35
848.018	96.08
848.188	104.82
848.358	107.61
848.528	89.57
848.698	92.49
848.868	98.15
849.038	87.7
849.208	75.62
849.378	68
849.548	72.63
849.718	74.46
849.887	79.28
850.057	118.17
850.227	125.17
850.397	107.81
850.567	104.51
850.737	94.3
850.906	69.17
851.076	86.25
851.246	105.88
851.415	93.5
851.585	100.42
851.755	167.21
851.924	124.87
852.094	96.7
852.264	109.19
852.433	109.25
852.603	70.28
852.772	79.09
852.942	82.99
853.111	65.95
853.281	63.42
853.45	55.02
853.62	64.28
853.789	72.98
853.959	69.28
854.128	90.89
854.297	84.06
854.467	78.46
854.636	61.46
854.805	14.02
854.975	-82.46
855.144	41.96
855.313	4.71
855.482	79.14
855.652	95.58
855.821	95.06
855.99	80.89
856.159	81.23
856.328	64.9
856.497	66.11
856.667	77.95
856.836	72.47
857.005	76.85
857.174	68.51
857.343	82.47
857.512	65.31
857.681	88.89
857.85	97.32
858.019	96.92
858.188	127.63
858.356	168.48
858.525	198.23
858.694	468.87
858.863	375.3
859.032	256.78
859.201	255.15
859.369	132.74
859.538	49
859.707	32.42
859.876	18.43
860.044	24.87
860.213	49.37
860.382	68.49
860.55	74.07
860.719	60.58
860.888	70.03
861.056	82.15
861.225	84.84
861.393	62.59
861.562	56.26
861.73	76.57
861.899	66.9
862.067	62.18
862.236	79.8
862.404	88.11
862.572	82.72
862.741	100.18
862.909	119.85
863.078	135.28
863.246	130.31
863.414	99.85
863.582	72.66
863.751	49.7
863.919	59.09
864.087	53.13
864.255	62.05
864.424	57.68
864.592	67.16
864.76	55.99
864.928	51.35
865.096	43.3
865.264	42.25
865.432	40.82
865.6	25.21
865.768	54.25
865.936	57.11
866.104	83.31
866.272	105.81
866.44	108.78
866.608	69.7
866.776	76.62
866.944	70.89
867.112	70.85
867.28	93.11
867.448	102.22
867.615	104.07
867.783	87.75
867.951	95.94
868.119	71.89
868.286	92.85
868.454	128.7
868.622	156.33
868.789	145.72
868.957	145.08
869.125	167.38
869.292	101.82
869.46	116.05
869.627	103.49
869.795	85.59
869.963	80.17
870.13	69.12
870.298	56.66
870.465	53.63
870.632	92.76
870.8	84.48
870.967	104.93
871.135	87.68
871.302	83.94
871.469	35.89
871.637	32.12
871.804	54.17
871.971	74.54
872.139	94.29
872.306	106.21
872.473	103.56
872.64	100.13
872.807	87.71
872.975	70.57
873.142	96.66
873.309	111.15
873.476	38.88
873.643	-7.62
873.81	0
873.977	-5.73
874.144	-1.73
874.311	83.3
874.478	117.04
874.645	135.14
874.812	126.5
874.979	103.91
875.146	107.87
875.313	76.69
875.48	47.53
875.647	70.69
875.813	92.68
875.98	72.59
876.147	79.52
876.314	70.99
876.481	83.9
876.647	51.67
876.814	65.44
876.981	119.3
877.147	-84.75
877.314	47.55
877.481	81.48
877.647	62.32
877.814	97.48
877.98	110.49
878.147	113.87
878.314	78.26
878.48	116.85
878.647	86.12
878.813	58.82
878.979	95.09
879.146	90.88
879.312	91.98
879.479	95.83
879.645	108.54
879.811	124.87
879.978	201.18
880.144	196.45
880.31	322.18
880.477	236.07
880.643	195.37
880.809	138.67
880.975	132.58
881.142	41.7
881.308	-107.01
881.474	-31.02
881.64	60.48
881.806	99.86
881.972	105.32
882.138	117.04
882.304	112.82
882.47	135.69
882.636	91.14
882.802	168.42
882.968	46.79
883.134	88.09
883.3	88.34
883.466	54.24
883.632	63.23
883.798	80.83
883.964	81.74
884.129	57.98
884.295	76.25
884.461	97.24
884.627	101.76
884.793	105.88
884.958	99.68
885.124	109.16
885.29	87.82
885.455	70.88
885.621	19.57
885.787	164.98
885.952	352.48
886.118	309.09
886.283	227.23
886.449	350.22
886.614	214.42
886.78	230.1
886.945	405.52
887.111	952
887.276	-5488.89
887.442	-1565.71
887.607	320.61
887.773	173.64
887.938	159.05
888.103	88.72
888.269	86.96
888.434	113.26
888.599	90.47
888.764	-26.37
888.93	33.83
889.095	29.72
889.26	97.2
889.425	-1200
889.59	-232
889.756	134.75
889.921	1261.54
890.086	197.18
890.251	-50.96
890.416	77.81
890.581	-16.6
890.746	27.38
890.911	31.56
891.076	55.34
891.241	54.4
891.406	59.45
891.571	32.67
891.736	50.3
891.901	52.3
892.065	17.91
892.23	-114.79
892.395	-34.63
892.56	5.69
892.725	-67.04
892.889	-16.02
893.054	73.92
893.219	107.04
893.384	179.24
893.548	287.07
893.713	331.03
893.878	465.12
