Data from Ofav_PP_Phys_4EV14_Reflection_2.txt Node
Date: Tue Aug 03 18:09:34 EDT 2021
User: Adam
Spectrometer: FLMT01687
Trigger mode: 0
Integration Time (sec): 8.750000E-1
Scans to average: 2
Electric dark correction enabled: true
Nonlinearity correction enabled: false
Boxcar width: 2
XAxis mode: Wavelengths
Number of Pixels in Spectrum: 3648
>>>>>Begin Spectral Data<<<<<
179.494	184.83
179.716	204.24
179.937	269.5
180.158	473.88
180.38	2062.28
180.601	180.02
180.823	70.09
181.044	25.89
181.265	-46.81
181.486	459.95
181.708	145.95
181.929	138.47
182.15	61.16
182.372	50.84
182.593	237.76
182.814	248.17
183.035	-386.88
183.257	-1599.02
183.478	243.6
183.699	243.17
183.92	161.11
184.141	63.77
184.363	53.12
184.584	-8.63
184.805	11.84
185.026	-23.63
185.247	4.79
185.468	-1.51
185.689	-14.52
185.91	10.9
186.132	-11.43
186.353	10.77
186.574	-21.03
186.795	-7.45
187.016	-18.11
187.237	5.42
187.458	-8.09
187.679	2.75
187.9	8.12
188.121	17.27
188.342	16.36
188.563	1.27
188.784	6.29
189.005	13.08
189.226	7.07
189.447	39.89
189.667	45.18
189.888	73.59
190.109	47.49
190.33	71.64
190.551	48.07
190.772	73.78
190.993	47.26
191.214	81.87
191.434	66.93
191.655	29.65
191.876	16.96
192.097	32.89
192.318	33.22
192.538	26.57
192.759	30.65
192.98	37.6
193.201	36.31
193.421	28.41
193.642	40.44
193.863	66.26
194.083	63.63
194.304	45.62
194.525	54.21
194.745	42.39
194.966	23.06
195.187	33.57
195.407	28.5
195.628	21.14
195.848	20.71
196.069	66.92
196.29	53.96
196.51	76.16
196.731	107.3
196.951	115.57
197.172	110.27
197.392	159.2
197.613	152.39
197.833	126.67
198.054	125.91
198.274	93.96
198.495	53.86
198.715	54.72
198.936	59.17
199.156	43.23
199.377	29.75
199.597	37.74
199.817	79.18
200.038	64.59
200.258	78.68
200.479	56.74
200.699	71.63
200.919	-36.92
201.14	24.81
201.36	14.01
201.58	32.28
201.801	16.07
202.021	35.42
202.241	9.94
202.461	19.15
202.682	24.96
202.902	45.92
203.122	58.43
203.342	50.72
203.563	22.58
203.783	15.07
204.003	27
204.223	26.71
204.443	14.63
204.663	27.07
204.884	19.33
205.104	3
205.324	-16.62
205.544	-21.07
205.764	-11.55
205.984	-49.35
206.204	-49.91
206.424	-83.46
206.644	-12.79
206.864	-21.76
207.084	13.11
207.304	35.41
207.525	64.5
207.745	112.8
207.964	127.24
208.184	90.94
208.404	80.82
208.624	67.36
208.844	36.9
209.064	32.95
209.284	34.57
209.504	22.81
209.724	11.67
209.944	6.34
210.164	-19.23
210.384	0.31
210.604	14.66
210.823	66.34
211.043	61.92
211.263	73.46
211.483	53.72
211.703	42.21
211.922	31.03
212.142	23.3
212.362	27.05
212.582	41.83
212.801	30.92
213.021	41.95
213.241	42.72
213.461	45.34
213.68	44.56
213.9	49.91
214.12	23.74
214.339	37.26
214.559	50.3
214.779	56.81
214.998	53.54
215.218	71.82
215.438	67.56
215.657	42.62
215.877	28.66
216.096	10.01
216.316	-5.95
216.535	-31.9
216.755	-10.56
216.974	26.02
217.194	81.21
217.413	84.56
217.633	78.83
217.852	77.31
218.072	73.15
218.291	51.67
218.511	53.98
218.73	61.09
218.95	39.87
219.169	34.88
219.389	28.42
219.608	10.59
219.827	-1.76
220.047	21.25
220.266	25.8
220.485	46.58
220.705	56.23
220.924	62.52
221.143	59.93
221.363	76.85
221.582	84.1
221.801	86.52
222.021	72.68
222.24	57.67
222.459	26.54
222.678	38.38
222.897	37.16
223.117	20.22
223.336	22.9
223.555	91.22
223.774	105.39
223.993	80.24
224.213	48.67
224.432	58.14
224.651	68.95
224.87	53.89
225.089	45.8
225.308	31.6
225.527	2.67
225.746	-41.49
225.965	-14.08
226.184	-21.25
226.404	10.4
226.623	47.08
226.842	51.12
227.061	7.8
227.28	6.62
227.499	33.82
227.718	7.86
227.936	-0.64
228.155	16.84
228.374	38.6
228.593	36.21
228.812	37.3
229.031	38.59
229.25	68.39
229.469	43.4
229.688	3
229.907	-1.3
230.125	9.29
230.344	-7.44
230.563	7.76
230.782	-2.35
231.001	43.38
231.22	34.79
231.438	31.38
231.657	41.18
231.876	69.82
232.095	40.23
232.313	29.46
232.532	16.71
232.751	13.41
232.969	11.72
233.188	10.28
233.407	13.42
233.625	31.46
233.844	36.46
234.063	31.1
234.281	33.18
234.5	49.81
234.719	63.99
234.937	51.55
235.156	58.28
235.374	54.8
235.593	66.8
235.811	51.11
236.03	51.74
236.249	47.54
236.467	64.33
236.686	54.33
236.904	52.24
237.123	52.38
237.341	44.92
237.559	34.51
237.778	37.81
237.996	45.84
238.215	37.93
238.433	39.6
238.652	43.74
238.87	41.18
239.088	44.05
239.307	43.7
239.525	52.5
239.743	55.93
239.962	59.73
240.18	52.35
240.398	63.05
240.617	61.77
240.835	48.84
241.053	19.92
241.271	-28.4
241.49	-38.31
241.708	-19.73
241.926	-19.13
242.144	27.75
242.363	48.12
242.581	53.1
242.799	29.44
243.017	39.13
243.235	41.81
243.453	41.36
243.672	56.3
243.89	70.7
244.108	54.81
244.326	30.44
244.544	14.95
244.762	16.46
244.98	12.82
245.198	30.72
245.416	58.49
245.634	69.52
245.852	61.45
246.07	57.28
246.288	47.1
246.506	52.14
246.724	49.81
246.942	47.51
247.16	36.3
247.378	31.1
247.596	15.81
247.814	15.5
248.032	16.58
248.25	22.32
248.468	23.47
248.685	11.79
248.903	-8.55
249.121	1.47
249.339	-16.44
249.557	4.06
249.775	-0.48
249.992	34.17
250.21	21.66
250.428	30.64
250.646	10.23
250.863	25.11
251.081	5.64
251.299	-23.72
251.517	0.2
251.734	3.21
251.952	-16.44
252.17	-17.42
252.387	-7.89
252.605	-44.71
252.823	-62.38
253.04	-54.98
253.258	-0.03
253.475	27.56
253.693	35.76
253.911	79.11
254.128	108.79
254.346	93.83
254.563	77.37
254.781	69.76
254.998	43.43
255.216	21.94
255.433	14.35
255.651	19.46
255.868	-3.63
256.086	-32.07
256.303	-14.22
256.521	1.56
256.738	0.75
256.956	37.43
257.173	76.77
257.39	75.68
257.608	58.46
257.825	48.49
258.043	-11.45
258.26	-3.68
258.477	3.8
258.695	13.42
258.912	27.94
259.129	45.08
259.346	47.72
259.564	48.19
259.781	39
259.998	29.98
260.216	25.39
260.433	7.86
260.65	2.43
260.867	16.42
261.084	17.64
261.302	14.81
261.519	39.67
261.736	44.74
261.953	54.21
262.17	51.66
262.387	52.87
262.604	47.34
262.822	50.21
263.039	46.81
263.256	51.06
263.473	47.69
263.69	58.7
263.907	44.29
264.124	19.7
264.341	11.37
264.558	-6.02
264.775	-8.56
264.992	10.94
265.209	13.16
265.426	6.51
265.643	23.36
265.86	22.47
266.077	5.51
266.294	12.27
266.51	25.38
266.727	38.64
266.944	38.03
267.161	50.62
267.378	62.81
267.595	38.49
267.812	26.94
268.028	10.71
268.245	14.04
268.462	11.7
268.679	28.6
268.896	6.53
269.112	41.86
269.329	34.35
269.546	16.98
269.763	8.23
269.979	14.08
270.196	7.86
270.413	12.68
270.629	15.87
270.846	35.3
271.063	39.2
271.279	36.83
271.496	41.86
271.712	29.25
271.929	18.61
272.146	39.3
272.362	42.13
272.579	31.87
272.795	52.48
273.012	45.9
273.228	46.89
273.445	43.15
273.661	62.15
273.878	59.73
274.094	49.34
274.311	43.91
274.527	38.13
274.744	28.1
274.96	36.08
275.177	44.42
275.393	23.62
275.609	23
275.826	2.37
276.042	-2.13
276.259	7.03
276.475	-2.76
276.691	-2.44
276.908	5.23
277.124	13.98
277.34	5.19
277.557	18.2
277.773	29.16
277.989	32.95
278.205	35.31
278.422	40.43
278.638	32.01
278.854	34.23
279.07	30.75
279.286	37.32
279.503	35.23
279.719	43.07
279.935	30.52
280.151	30.22
280.367	7.45
280.583	0.66
280.799	14.78
281.016	21.58
281.232	14.85
281.448	23.96
281.664	26.33
281.88	12.41
282.096	34.74
282.312	40.4
282.528	40.3
282.744	33.88
282.96	48.33
283.176	47.51
283.392	46.9
283.608	53.19
283.824	52.15
284.04	33.04
284.256	23.12
284.471	16.62
284.687	10.23
284.903	18.74
285.119	23.05
285.335	24.69
285.551	38.64
285.767	52.83
285.982	45.37
286.198	35.77
286.414	28.04
286.63	14.55
286.846	1.6
287.061	-9.91
287.277	-29.19
287.493	-17.81
287.709	-31.56
287.924	0.74
288.14	-2.86
288.356	14.66
288.571	6.53
288.787	19.39
289.003	5.95
289.218	33.19
289.434	21.89
289.65	30.77
289.865	25.01
290.081	-8.62
290.296	-17.4
290.512	7.79
290.727	15.15
290.943	44.33
291.159	50.59
291.374	57.88
291.59	54.37
291.805	57.2
292.021	56.09
292.236	63.21
292.451	61.4
292.667	59.23
292.882	53.44
293.098	36.23
293.313	18.63
293.529	13.37
293.744	22.04
293.959	15.72
294.175	24.17
294.39	40.56
294.605	46.32
294.821	39.79
295.036	54.52
295.251	62.31
295.467	45.47
295.682	65.28
295.897	54.34
296.112	52.18
296.328	50.1
296.543	59.43
296.758	35.54
296.973	54.31
297.188	45.7
297.404	57.55
297.619	59.07
297.834	55.89
298.049	38.68
298.264	45.61
298.479	28.99
298.694	29.63
298.909	36.58
299.125	39.18
299.34	26.49
299.555	29.3
299.77	23.07
299.985	36.88
300.2	41.7
300.415	47.17
300.63	30.4
300.845	36.49
301.06	15.94
301.275	-2.72
301.49	22.92
301.704	26.15
301.919	32.16
302.134	38.48
302.349	51.61
302.564	49.76
302.779	49.59
302.994	37.71
303.209	36.36
303.423	23.85
303.638	16.92
303.853	26.53
304.068	46.47
304.283	58.08
304.497	57.5
304.712	74.68
304.927	74.5
305.142	58.17
305.356	44.28
305.571	48.92
305.786	41.48
306	43.36
306.215	33.49
306.43	40.57
306.644	32.65
306.859	29.9
307.074	19.16
307.288	38.75
307.503	43.51
307.717	38.89
307.932	24.19
308.147	31.3
308.361	22.81
308.576	13.01
308.79	29.93
309.005	35.33
309.219	45.08
309.434	42.45
309.648	38.8
309.863	6.45
310.077	14.16
310.292	-3.9
310.506	-2.39
310.72	7.33
310.935	32.61
311.149	32.64
311.364	17.46
311.578	19.49
311.792	41.37
312.007	13.52
312.221	3.35
312.435	2.09
312.649	31.85
312.864	-5.06
313.078	10.46
313.292	5.81
313.507	24.65
313.721	-2.93
313.935	17.13
314.149	21.92
314.363	41.74
314.578	26.15
314.792	21.48
315.006	11.71
315.22	1.09
315.434	6.06
315.648	-15.43
315.862	28
316.077	29.72
316.291	38.14
316.505	32.61
316.719	38.29
316.933	43.45
317.147	43.43
317.361	45.71
317.575	45.23
317.789	45.9
318.003	37.54
318.217	46.03
318.431	57.46
318.645	63.58
318.859	59.51
319.073	52.38
319.287	42.83
319.5	47.74
319.714	58.63
319.928	59.2
320.142	62.56
320.356	58.55
320.57	40.77
320.784	17.67
320.997	20.47
321.211	26.82
321.425	30.8
321.639	29.39
321.853	32.77
322.066	38.68
322.28	38.31
322.494	49.91
322.707	25.01
322.921	32.04
323.135	26.11
323.349	32.33
323.562	38.31
323.776	55.67
323.989	52.22
324.203	50.83
324.417	51.92
324.63	64.22
324.844	57.38
325.057	54.92
325.271	45.35
325.485	47.48
325.698	3.53
325.912	-1.36
326.125	2.7
326.339	23.33
326.552	-16.33
326.766	11.96
326.979	18.29
327.193	23.68
327.406	15.8
327.619	36.96
327.833	17.75
328.046	26.85
328.26	33.13
328.473	34.7
328.686	41.5
328.9	49.34
329.113	41.81
329.326	35.95
329.54	30.62
329.753	34.03
329.966	46.83
330.179	38.25
330.393	32.19
330.606	38.19
330.819	29.35
331.032	-4.91
331.246	6.96
331.459	11.76
331.672	-16.01
331.885	-16.67
332.098	4.28
332.311	12.89
332.525	24.29
332.738	45.28
332.951	40.66
333.164	40.91
333.377	44.06
333.59	49.26
333.803	33.56
334.016	29.99
334.229	21.65
334.442	-5.01
334.655	-8.75
334.868	-2.12
335.081	13.98
335.294	38.24
335.507	40.05
335.72	46.4
335.933	45.86
336.146	35.21
336.359	27.01
336.572	32.1
336.785	19.13
336.997	35.29
337.21	39.4
337.423	36.98
337.636	44.8
337.849	32.45
338.062	35.75
338.274	24.63
338.487	45.34
338.7	44.38
338.913	54.78
339.125	49.41
339.338	47.15
339.551	31.8
339.763	17.92
339.976	12.82
340.189	3.97
340.402	2.21
340.614	10.99
340.827	16.13
341.039	18.5
341.252	33.43
341.465	47.15
341.677	39.62
341.89	54.63
342.102	49.4
342.315	34.43
342.527	43.27
342.74	45.9
342.952	27.15
343.165	36.03
343.377	28.62
343.59	10.85
343.802	20.29
344.015	7.36
344.227	-6.33
344.44	11.49
344.652	22.3
344.864	11.48
345.077	21.39
345.289	14.01
345.502	-16.57
345.714	-13.24
345.926	-6.08
346.139	10.22
346.351	21.07
346.563	18.52
346.775	5.73
346.988	-11.01
347.2	-9.91
347.412	-4.06
347.624	16.14
347.837	21.08
348.049	28.31
348.261	22.19
348.473	22.39
348.685	25.35
348.897	36.85
349.11	21.98
349.322	31.78
349.534	21.86
349.746	16.05
349.958	-4.33
350.17	13.79
350.382	-12.08
350.594	-5.32
350.806	-5.58
351.018	-9.23
351.23	-24.8
351.442	-2.18
351.654	-9.06
351.866	-11.45
352.078	3.24
352.29	6.04
352.502	11.11
352.714	28.15
352.926	34.28
353.138	24.97
353.35	28.77
353.561	37.21
353.773	29.71
353.985	21.88
354.197	24.26
354.409	31.32
354.621	30.38
354.832	21.52
355.044	32.84
355.256	35.9
355.468	24.54
355.679	28.82
355.891	35.4
356.103	32.11
356.314	32.18
356.526	45.39
356.738	46.98
356.949	59.98
357.161	48.33
357.373	46.31
357.584	33.15
357.796	28.74
358.008	3.24
358.219	12.65
358.431	15.17
358.642	11.23
358.854	-11.14
359.065	9.5
359.277	27.4
359.488	24.34
359.7	36.44
359.911	34.13
360.123	43.5
360.334	40.91
360.546	31.25
360.757	19.76
360.969	10.16
361.18	4.1
361.391	15.2
361.603	26.48
361.814	24.26
362.025	39.89
362.237	47.38
362.448	45.62
362.659	30.29
362.871	29.93
363.082	27.47
363.293	19.17
363.504	10
363.716	35.11
363.927	43.28
364.138	43.61
364.349	55.21
364.56	65.44
364.772	56.55
364.983	44.72
365.194	35.57
365.405	21.95
365.616	18.71
365.827	26.94
366.038	36.84
366.25	40.48
366.461	52.06
366.672	42.81
366.883	36.16
367.094	27.48
367.305	37.21
367.516	23.38
367.727	31.51
367.938	28.4
368.149	22.86
368.36	16.17
368.571	21.53
368.781	21.85
368.992	34.03
369.203	57.42
369.414	49.23
369.625	39.88
369.836	39.25
370.047	29.86
370.258	27.17
370.468	32.5
370.679	47.18
370.89	55.93
371.101	59
371.312	51.04
371.522	41.38
371.733	46.31
371.944	42.66
372.155	40.16
372.365	34.57
372.576	48.88
372.787	40.61
372.997	37.01
373.208	36.07
373.419	27.05
373.629	18.95
373.84	21.9
374.05	3.24
374.261	-0.78
374.472	17.11
374.682	14.87
374.893	0.95
375.103	9.24
375.314	16.12
375.524	26.67
375.735	20.23
375.945	28.4
376.156	35.47
376.366	37.13
376.577	30.66
376.787	41.57
376.997	43.29
377.208	39.97
377.418	39.3
377.629	26.42
377.839	20.03
378.049	18.43
378.26	11.08
378.47	1.54
378.68	3.09
378.89	10.33
379.101	6.57
379.311	13.14
379.521	23.72
379.732	39.33
379.942	31.74
380.152	45.09
380.362	34.91
380.572	32.12
380.783	28.53
380.993	23.24
381.203	14.03
381.413	11.5
381.623	11.45
381.833	9.25
382.043	19.43
382.253	23.96
382.463	34.03
382.674	29.27
382.884	28.13
383.094	27.91
383.304	23.5
383.514	14.16
383.724	10.14
383.934	15.88
384.144	12.07
384.353	9.08
384.563	5.94
384.773	7.55
384.983	-0.91
385.193	0.72
385.403	3.65
385.613	10.36
385.823	13.01
386.033	14.33
386.242	19.95
386.452	17.42
386.662	16.19
386.872	14.38
387.082	12.87
387.291	7.96
387.501	6.85
387.711	7.79
387.921	11.52
388.13	15.45
388.34	12.03
388.55	15.34
388.759	12.4
388.969	10.21
389.179	5.36
389.388	6.99
389.598	6.2
389.807	8.13
390.017	9.18
390.227	11.68
390.436	10.35
390.646	9.34
390.855	6.46
391.065	5.46
391.274	6.57
391.484	8.72
391.693	9.69
391.903	11.56
392.112	11.78
392.322	10.09
392.531	8.91
392.74	6.84
392.95	7.13
393.159	5.4
393.369	6.35
393.578	5.69
393.787	7.2
393.997	6
394.206	7.69
394.415	7.25
394.625	8.51
394.834	7.82
395.043	8.08
395.252	7.79
395.462	7.9
395.671	5.93
395.88	6.11
396.089	6.15
396.298	5.86
396.508	5.87
396.717	7.2
396.926	7.08
397.135	6.05
397.344	5.98
397.553	5.36
397.762	4.75
397.971	4.52
398.181	5.45
398.39	5.94
398.599	5.69
398.808	5.92
399.017	5.81
399.226	5.25
399.435	4.65
399.644	4.82
399.853	4.91
400.062	5.1
400.27	5.47
400.479	5.61
400.688	5.61
400.897	5.85
401.106	5.73
401.315	5.9
401.524	6.15
401.733	6.04
401.941	5.71
402.15	5.75
402.359	5.64
402.568	5.35
402.777	5.43
402.985	5.46
403.194	5.43
403.403	5.32
403.612	5.38
403.82	5.41
404.029	5.47
404.238	5.68
404.446	5.57
404.655	5.49
404.864	5.45
405.072	5.37
405.281	5.07
405.489	5.23
405.698	5.33
405.906	5.32
406.115	5.31
406.324	5.34
406.532	5.23
406.741	5.17
406.949	5.14
407.158	5.1
407.366	5.18
407.574	5.22
407.783	5.3
407.991	5.36
408.2	5.16
408.408	5.01
408.617	5.02
408.825	4.93
409.033	4.79
409.242	4.92
409.45	4.87
409.658	4.92
409.867	4.76
410.075	4.75
410.283	4.77
410.491	4.84
410.7	4.78
410.908	4.84
411.116	4.81
411.324	4.93
411.533	4.84
411.741	4.75
411.949	4.69
412.157	4.68
412.365	4.49
412.573	4.54
412.781	4.51
412.99	4.67
413.198	4.71
413.406	4.77
413.614	4.65
413.822	4.78
414.03	4.75
414.238	4.79
414.446	4.75
414.654	4.92
414.862	4.8
415.07	4.6
415.278	4.41
415.486	4.41
415.694	4.4
415.902	4.29
416.109	4.5
416.317	4.67
416.525	4.68
416.733	4.68
416.941	4.73
417.149	4.61
417.357	4.45
417.564	4.42
417.772	4.27
417.98	4.47
418.188	4.5
418.395	4.5
418.603	4.43
418.811	4.64
419.019	4.37
419.226	4.32
419.434	4.3
419.642	4.36
419.849	4.34
420.057	4.36
420.265	4.29
420.472	4.49
420.68	4.51
420.887	4.37
421.095	4.29
421.302	4.37
421.51	4.08
421.717	3.97
421.925	3.89
422.132	4.01
422.34	3.95
422.547	4.09
422.755	4.03
422.962	4.11
423.17	4.1
423.377	4.19
423.585	4.16
423.792	4.21
423.999	4.16
424.207	4.07
424.414	3.74
424.621	3.62
424.829	3.77
425.036	3.96
425.243	4.08
425.451	4.28
425.658	4.37
425.865	4.18
426.072	4.12
426.28	4.11
426.487	4.33
426.694	4.31
426.901	4.32
427.108	4.25
427.315	4.39
427.523	4.12
427.73	4.17
427.937	4.35
428.144	4.34
428.351	4.24
428.558	4.33
428.765	4.39
428.972	4.36
429.179	4.31
429.386	4.36
429.593	4.36
429.8	4.54
430.007	4.52
430.214	4.73
430.421	4.8
430.628	4.81
430.835	4.68
431.042	4.63
431.249	4.46
431.456	4.48
431.662	4.53
431.869	4.52
432.076	4.6
432.283	4.61
432.49	4.58
432.697	4.68
432.903	4.77
433.11	4.74
433.317	4.79
433.524	4.65
433.73	4.82
433.937	4.68
434.144	4.69
434.35	4.86
434.557	4.95
434.764	4.8
434.97	4.97
435.177	5.07
435.384	5.02
435.59	5.04
435.797	5.11
436.003	4.98
436.21	4.9
436.416	4.98
436.623	4.91
436.829	4.83
437.036	5.04
437.242	5.16
437.449	5.15
437.655	5.31
437.862	5.4
438.068	5.28
438.275	5.19
438.481	5.2
438.687	5.19
438.894	5.32
439.1	5.5
439.307	5.52
439.513	5.59
439.719	5.62
439.926	5.49
440.132	5.54
440.338	5.61
440.544	5.56
440.751	5.61
440.957	5.7
441.163	5.69
441.369	5.83
441.575	5.94
441.782	5.96
441.988	6.08
442.194	5.97
442.4	5.95
442.606	5.86
442.812	5.91
443.018	5.7
443.224	5.79
443.431	5.74
443.637	5.89
443.843	5.85
444.049	6.05
444.255	6.2
444.461	6.37
444.667	6.38
444.873	6.32
445.079	6.28
445.284	6.22
445.49	6.18
445.696	6.09
445.902	6.13
446.108	6.22
446.314	6.22
446.52	6.31
446.726	6.43
446.931	6.55
447.137	6.48
447.343	6.5
447.549	6.5
447.755	6.55
447.96	6.54
448.166	6.64
448.372	6.61
448.578	6.68
448.783	6.63
448.989	6.69
449.195	6.73
449.4	6.73
449.606	6.69
449.812	6.72
450.017	6.7
450.223	6.65
450.428	6.81
450.634	6.74
450.84	6.77
451.045	6.88
451.251	7.06
451.456	7
451.662	6.91
451.867	6.94
452.073	7.01
452.278	6.77
452.483	6.68
452.689	6.85
452.894	6.78
453.1	6.64
453.305	6.84
453.51	6.91
453.716	6.99
453.921	7.1
454.127	7.19
454.332	7.31
454.537	7.35
454.742	7.39
454.948	7.37
455.153	7.34
455.358	7.21
455.563	7.2
455.769	7.22
455.974	7.27
456.179	7.36
456.384	7.27
456.589	7.46
456.795	7.46
457	7.48
457.205	7.42
457.41	7.59
457.615	7.6
457.82	7.61
458.025	7.63
458.23	7.79
458.435	7.84
458.64	7.76
458.845	7.73
459.05	7.8
459.255	7.81
459.46	7.68
459.665	7.7
459.87	7.73
460.075	7.66
460.28	7.63
460.485	7.74
460.69	7.77
460.895	7.86
461.099	7.98
461.304	7.98
461.509	7.94
461.714	8.14
461.919	8.11
462.123	8.12
462.328	8.18
462.533	8.29
462.738	8.24
462.942	8.32
463.147	8.41
463.352	8.43
463.556	8.55
463.761	8.52
463.966	8.53
464.17	8.53
464.375	8.62
464.58	8.64
464.784	8.62
464.989	8.7
465.193	8.66
465.398	8.64
465.602	8.58
465.807	8.7
466.011	8.77
466.216	8.73
466.42	8.79
466.625	8.87
466.829	8.86
467.034	8.74
467.238	8.8
467.443	8.82
467.647	8.86
467.851	8.93
468.056	8.93
468.26	9.05
468.464	9.05
468.669	9.08
468.873	8.96
469.077	9.08
469.282	9.07
469.486	9.02
469.69	9.02
469.894	9.09
470.099	9.11
470.303	9.16
470.507	9.37
470.711	9.39
470.915	9.56
471.119	9.63
471.324	9.65
471.528	9.54
471.732	9.51
471.936	9.46
472.14	9.42
472.344	9.43
472.548	9.5
472.752	9.51
472.956	9.48
473.16	9.52
473.364	9.63
473.568	9.66
473.772	9.73
473.976	9.8
474.18	9.89
474.384	9.84
474.588	9.87
474.792	10.03
474.995	10.04
475.199	10
475.403	9.95
475.607	9.96
475.811	9.9
476.015	9.93
476.218	9.88
476.422	9.99
476.626	10.05
476.83	10.06
477.033	10.13
477.237	10.22
477.441	10.18
477.644	10.19
477.848	10.18
478.052	10.17
478.255	10.16
478.459	10.23
478.663	10.24
478.866	10.28
479.07	10.22
479.273	10.25
479.477	10.2
479.681	10.15
479.884	10.13
480.088	10.23
480.291	10.23
480.495	10.28
480.698	10.33
480.901	10.32
481.105	10.26
481.308	10.35
481.512	10.38
481.715	10.38
481.919	10.45
482.122	10.47
482.325	10.45
482.529	10.4
482.732	10.45
482.935	10.48
483.138	10.47
483.342	10.42
483.545	10.46
483.748	10.38
483.952	10.34
484.155	10.34
484.358	10.38
484.561	10.34
484.764	10.42
484.967	10.36
485.171	10.44
485.374	10.44
485.577	10.47
485.78	10.43
485.983	10.42
486.186	10.43
486.389	10.47
486.592	10.42
486.795	10.47
486.998	10.49
487.201	10.48
487.404	10.42
487.607	10.43
487.81	10.41
488.013	10.38
488.216	10.34
488.419	10.24
488.622	10.3
488.825	10.33
489.028	10.44
489.231	10.45
489.433	10.63
489.636	10.62
489.839	10.55
490.042	10.54
490.245	10.6
490.447	10.52
490.65	10.51
490.853	10.53
491.056	10.47
491.258	10.38
491.461	10.41
491.664	10.38
491.866	10.38
492.069	10.42
492.272	10.44
492.474	10.45
492.677	10.49
492.879	10.45
493.082	10.31
493.285	10.29
493.487	10.29
493.69	10.34
493.892	10.41
494.095	10.46
494.297	10.49
494.5	10.41
494.702	10.36
494.905	10.4
495.107	10.47
495.309	10.45
495.512	10.53
495.714	10.53
495.917	10.44
496.119	10.46
496.321	10.38
496.524	10.37
496.726	10.31
496.928	10.29
497.13	10.32
497.333	10.34
497.535	10.37
497.737	10.46
497.939	10.52
498.142	10.44
498.344	10.52
498.546	10.45
498.748	10.41
498.95	10.37
499.152	10.34
499.355	10.37
499.557	10.34
499.759	10.31
499.961	10.35
500.163	10.49
500.365	10.48
500.567	10.42
500.769	10.45
500.971	10.43
501.173	10.38
501.375	10.31
501.577	10.45
501.779	10.49
501.981	10.58
502.183	10.58
502.385	10.69
502.587	10.63
502.788	10.58
502.99	10.54
503.192	10.49
503.394	10.43
503.596	10.51
503.798	10.48
503.999	10.49
504.201	10.55
504.403	10.59
504.605	10.53
504.806	10.67
505.008	10.67
505.21	10.64
505.411	10.55
505.613	10.57
505.815	10.51
506.016	10.46
506.218	10.5
506.42	10.53
506.621	10.5
506.823	10.53
507.024	10.53
507.226	10.56
507.427	10.63
507.629	10.76
507.83	10.75
508.032	10.78
508.233	10.73
508.435	10.74
508.636	10.65
508.838	10.61
509.039	10.62
509.24	10.57
509.442	10.49
509.643	10.48
509.845	10.45
510.046	10.46
510.247	10.51
510.448	10.47
510.65	10.48
510.851	10.53
511.052	10.52
511.254	10.57
511.455	10.58
511.656	10.51
511.857	10.51
512.058	10.54
512.26	10.47
512.461	10.5
512.662	10.54
512.863	10.6
513.064	10.56
513.265	10.59
513.466	10.63
513.667	10.66
513.868	10.59
514.069	10.55
514.27	10.52
514.471	10.46
514.672	10.49
514.873	10.48
515.074	10.56
515.275	10.61
515.476	10.65
515.677	10.6
515.878	10.63
516.079	10.62
516.28	10.58
516.481	10.6
516.682	10.58
516.882	10.65
517.083	10.63
517.284	10.68
517.485	10.65
517.686	10.67
517.886	10.61
518.087	10.49
518.288	10.5
518.488	10.54
518.689	10.52
518.89	10.59
519.091	10.72
519.291	10.63
519.492	10.61
519.692	10.67
519.893	10.55
520.094	10.57
520.294	10.66
520.495	10.67
520.695	10.67
520.896	10.76
521.096	10.74
521.297	10.78
521.497	10.77
521.698	10.78
521.898	10.7
522.099	10.73
522.299	10.67
522.499	10.66
522.7	10.67
522.9	10.73
523.101	10.65
523.301	10.64
523.501	10.7
523.702	10.66
523.902	10.66
524.102	10.75
524.302	10.79
524.503	10.76
524.703	10.8
524.903	10.88
525.103	10.87
525.304	10.84
525.504	10.83
525.704	10.82
525.904	10.78
526.104	10.82
526.304	10.85
526.504	10.86
526.705	10.92
526.905	10.9
527.105	10.89
527.305	10.92
527.505	10.94
527.705	10.97
527.905	10.96
528.105	10.94
528.305	10.92
528.505	10.95
528.705	10.92
528.905	10.98
529.105	11.06
529.304	11.07
529.504	11.06
529.704	11.08
529.904	11.06
530.104	11.05
530.304	11.06
530.503	11.06
530.703	11.06
530.903	11.07
531.103	11.03
531.303	11.03
531.502	11.09
531.702	11.02
531.902	11
532.101	11.03
532.301	11.13
532.501	11.1
532.7	11.18
532.9	11.24
533.1	11.2
533.299	11.18
533.499	11.16
533.698	11.17
533.898	11.12
534.097	11.16
534.297	11.09
534.496	11.07
534.696	11.08
534.895	11.12
535.095	11.19
535.294	11.26
535.494	11.28
535.693	11.29
535.892	11.31
536.092	11.34
536.291	11.36
536.491	11.43
536.69	11.45
536.889	11.5
537.088	11.47
537.288	11.46
537.487	11.5
537.686	11.53
537.886	11.48
538.085	11.46
538.284	11.43
538.483	11.44
538.682	11.42
538.882	11.43
539.081	11.42
539.28	11.52
539.479	11.54
539.678	11.59
539.877	11.57
540.076	11.7
540.275	11.71
540.474	11.65
540.673	11.71
540.872	11.79
541.071	11.79
541.27	11.85
541.469	11.85
541.668	11.81
541.867	11.91
542.066	11.95
542.265	11.93
542.464	12.05
542.663	12.14
542.862	12.14
543.06	12.15
543.259	12.21
543.458	12.19
543.657	12.17
543.856	12.22
544.054	12.24
544.253	12.24
544.452	12.34
544.651	12.33
544.849	12.34
545.048	12.33
545.247	12.36
545.445	12.3
545.644	12.36
545.843	12.36
546.041	12.43
546.24	12.44
546.438	12.47
546.637	12.55
546.836	12.57
547.034	12.59
547.233	12.65
547.431	12.78
547.63	12.82
547.828	12.97
548.027	13.02
548.225	13.09
548.423	13.12
548.622	13.18
548.82	13.21
549.019	13.31
549.217	13.24
549.415	13.3
549.614	13.39
549.812	13.31
550.01	13.42
550.209	13.59
550.407	13.6
550.605	13.55
550.803	13.7
551.002	13.7
551.2	13.77
551.398	13.82
551.596	13.95
551.794	13.99
551.993	14.02
552.191	14.1
552.389	14.18
552.587	14.2
552.785	14.3
552.983	14.38
553.181	14.35
553.379	14.45
553.577	14.52
553.775	14.54
553.973	14.57
554.171	14.7
554.369	14.77
554.567	14.84
554.765	14.97
554.963	15.07
555.161	15.08
555.359	15.17
555.557	15.23
555.755	15.28
555.952	15.34
556.15	15.44
556.348	15.41
556.546	15.5
556.744	15.52
556.941	15.52
557.139	15.55
557.337	15.66
557.535	15.82
557.732	15.92
557.93	15.95
558.128	16.09
558.325	16.18
558.523	16.11
558.721	16.15
558.918	16.37
559.116	16.4
559.313	16.49
559.511	16.6
559.708	16.69
559.906	16.72
560.104	16.78
560.301	16.85
560.498	16.98
560.696	17.1
560.893	17.15
561.091	17.25
561.288	17.32
561.486	17.36
561.683	17.39
561.88	17.54
562.078	17.63
562.275	17.71
562.473	17.72
562.67	17.75
562.867	17.81
563.064	17.79
563.262	17.89
563.459	18.04
563.656	18.04
563.853	18.06
564.051	18.24
564.248	18.25
564.445	18.28
564.642	18.5
564.839	18.65
565.036	18.68
565.234	18.75
565.431	18.82
565.628	18.81
565.825	18.73
566.022	18.75
566.219	18.78
566.416	18.78
566.613	18.9
566.81	19.08
567.007	19.2
567.204	19.35
567.401	19.49
567.598	19.45
567.795	19.45
567.991	19.47
568.188	19.48
568.385	19.34
568.582	19.46
568.779	19.5
568.976	19.54
569.172	19.57
569.369	19.71
569.566	19.75
569.763	19.65
569.96	19.71
570.156	19.75
570.353	19.79
570.55	19.79
570.746	19.89
570.943	19.87
571.14	19.87
571.336	19.88
571.533	19.9
571.729	19.93
571.926	19.99
572.123	20
572.319	20.09
572.516	20.18
572.712	20.24
572.909	20.23
573.105	20.22
573.302	20.17
573.498	20.1
573.695	20.17
573.891	20.1
574.087	20.19
574.284	20.21
574.48	20.33
574.677	20.21
574.873	20.25
575.069	20.27
575.266	20.24
575.462	20.1
575.658	20.12
575.854	20.25
576.051	20.23
576.247	20.31
576.443	20.35
576.639	20.44
576.835	20.35
577.032	20.31
577.228	20.31
577.424	20.31
577.62	20.28
577.816	20.29
578.012	20.3
578.208	20.16
578.404	20.26
578.6	20.21
578.796	20.18
578.993	20.2
579.189	20.31
579.384	20.21
579.58	20.16
579.776	20.15
579.972	20.17
580.168	20.12
580.364	20.09
580.56	20.17
580.756	20.16
580.952	20.07
581.148	20.07
581.343	20.14
581.539	20.05
581.735	20.01
581.931	20.08
582.127	20.05
582.322	19.99
582.518	20.11
582.714	20.18
582.909	20.07
583.105	20.04
583.301	20.01
583.496	19.82
583.692	19.85
583.888	19.92
584.083	19.94
584.279	19.93
584.474	19.95
584.67	19.88
584.866	19.87
585.061	19.88
585.257	19.86
585.452	19.95
585.648	19.94
585.843	19.98
586.039	19.98
586.234	19.93
586.429	19.9
586.625	19.84
586.82	19.8
587.015	19.79
587.211	19.94
587.406	20.01
587.601	20.12
587.797	20.12
587.992	20.13
588.187	20.04
588.383	20.01
588.578	20.03
588.773	20.03
588.968	20.05
589.163	20.06
589.359	20.08
589.554	20.12
589.749	20.11
589.944	20.14
590.139	20.14
590.334	20.15
590.529	20.19
590.724	20.31
590.919	20.26
591.114	20.38
591.309	20.33
591.504	20.28
591.699	20.27
591.894	20.41
592.089	20.51
592.284	20.57
592.479	20.67
592.674	20.7
592.869	20.61
593.064	20.6
593.259	20.7
593.454	20.71
593.648	20.81
593.843	20.99
594.038	21.01
594.233	21.05
594.428	21.04
594.622	21.2
594.817	21.26
595.012	21.32
595.206	21.33
595.401	21.44
595.596	21.42
595.79	21.46
595.985	21.56
596.18	21.72
596.374	21.76
596.569	21.79
596.763	21.93
596.958	21.96
597.153	21.95
597.347	22.03
597.542	22.07
597.736	22.07
597.931	22.06
598.125	22.11
598.319	22.2
598.514	22.35
598.708	22.36
598.903	22.54
599.097	22.54
599.291	22.52
599.486	22.51
599.68	22.54
599.874	22.52
600.069	22.66
600.263	22.73
600.457	22.76
600.651	22.85
600.846	22.95
601.04	22.98
601.234	23.02
601.428	22.98
601.622	22.99
601.817	22.85
602.011	22.93
602.205	22.95
602.399	22.95
602.593	22.98
602.787	23.04
602.981	23.03
603.175	23.09
603.369	23.1
603.563	23.06
603.757	23.06
603.951	23.05
604.145	23.01
604.339	23.06
604.533	23.12
604.727	23.15
604.921	23.07
605.115	23.03
605.309	23.02
605.502	23.02
605.696	22.98
605.89	22.91
606.084	23.01
606.278	22.99
606.471	22.94
606.665	22.91
606.859	22.93
607.053	22.86
607.246	22.79
607.44	22.65
607.634	22.63
607.827	22.63
608.021	22.53
608.214	22.51
608.408	22.54
608.602	22.56
608.795	22.55
608.989	22.47
609.182	22.36
609.376	22.3
609.569	22.18
609.763	22.11
609.956	22.14
610.15	22.18
610.343	22.16
610.537	22.1
610.73	22.03
610.923	21.95
611.117	21.87
611.31	21.76
611.504	21.65
611.697	21.58
611.89	21.46
612.083	21.37
612.277	21.32
612.47	21.38
612.663	21.26
612.856	21.25
613.05	21.19
613.243	21.1
613.436	20.94
613.629	20.93
613.822	20.84
614.015	20.82
614.209	20.78
614.402	20.9
614.595	20.91
614.788	20.96
614.981	20.89
615.174	20.83
615.367	20.66
615.56	20.5
615.753	20.43
615.946	20.41
616.139	20.41
616.332	20.36
616.525	20.32
616.718	20.27
616.911	20.25
617.103	20.23
617.296	20.17
617.489	20.14
617.682	20.09
617.875	19.97
618.067	19.87
618.26	19.84
618.453	19.83
618.646	19.75
618.838	19.67
619.031	19.62
619.224	19.62
619.417	19.66
619.609	19.69
619.802	19.76
619.994	19.7
620.187	19.64
620.38	19.49
620.572	19.42
620.765	19.35
620.957	19.37
621.15	19.41
621.342	19.51
621.535	19.41
621.727	19.48
621.92	19.55
622.112	19.56
622.305	19.49
622.497	19.54
622.69	19.42
622.882	19.29
623.074	19.11
623.267	19.09
623.459	19.06
623.651	18.97
623.844	18.99
624.036	19.08
624.228	19.14
624.42	19.18
624.613	19.21
624.805	19.12
624.997	19.03
625.189	18.96
625.381	18.95
625.574	19.01
625.766	19.01
625.958	19.06
626.15	18.94
626.342	18.84
626.534	18.81
626.726	18.78
626.918	18.71
627.11	18.76
627.302	18.71
627.494	18.69
627.686	18.7
627.878	18.66
628.07	18.63
628.262	18.63
628.454	18.6
628.646	18.55
628.838	18.47
629.029	18.42
629.221	18.38
629.413	18.26
629.605	18.17
629.797	18.17
629.989	18.09
630.18	18.02
630.372	17.99
630.564	18.03
630.755	18
630.947	17.97
631.139	18.06
631.33	18.05
631.522	18.02
631.714	18.01
631.905	17.98
632.097	17.88
632.289	17.92
632.48	17.88
632.672	17.82
632.863	17.85
633.055	17.84
633.246	17.77
633.438	17.75
633.629	17.8
633.821	17.8
634.012	17.7
634.203	17.7
634.395	17.66
634.586	17.67
634.777	17.63
634.969	17.7
635.16	17.74
635.351	17.8
635.543	17.73
635.734	17.66
635.925	17.6
636.117	17.51
636.308	17.43
636.499	17.42
636.69	17.5
636.881	17.48
637.073	17.5
637.264	17.49
637.455	17.48
637.646	17.42
637.837	17.42
638.028	17.39
638.219	17.31
638.41	17.3
638.601	17.28
638.792	17.32
638.983	17.38
639.174	17.37
639.365	17.31
639.556	17.33
639.747	17.17
639.938	17.13
640.129	17.13
640.32	17.18
640.511	17.21
640.701	17.25
640.892	17.16
641.083	17.15
641.274	17.06
641.465	16.92
641.655	16.95
641.846	16.91
642.037	16.92
642.228	16.84
642.418	16.76
642.609	16.71
642.8	16.71
642.99	16.69
643.181	16.71
643.372	16.79
643.562	16.76
643.753	16.79
643.943	16.73
644.134	16.7
644.324	16.65
644.515	16.74
644.705	16.65
644.896	16.67
645.086	16.68
645.277	16.61
645.467	16.5
645.658	16.52
645.848	16.51
646.038	16.44
646.229	16.51
646.419	16.45
646.61	16.42
646.8	16.39
646.99	16.45
647.18	16.41
647.371	16.4
647.561	16.45
647.751	16.5
647.941	16.58
648.132	16.7
648.322	16.76
648.512	16.64
648.702	16.57
648.892	16.42
649.082	16.34
649.272	16.29
649.462	16.28
649.653	16.23
649.843	16.36
650.033	16.28
650.223	16.17
650.413	16.25
650.603	16.26
650.793	16.11
650.983	16.14
651.172	16.21
651.362	16.09
651.552	16.07
651.742	16.15
651.932	16
652.122	16.06
652.312	16.05
652.502	15.97
652.691	15.8
652.881	15.81
653.071	15.67
653.261	15.52
653.45	15.51
653.64	15.49
653.83	15.47
654.019	15.4
654.209	15.35
654.399	15.18
654.588	15.07
654.778	14.91
654.968	14.77
655.157	14.76
655.347	14.62
655.536	14.52
655.726	14.44
655.915	14.41
656.105	14.27
656.294	14.28
656.484	14.24
656.673	14.21
656.863	14.08
657.052	14.08
657.241	14.02
657.431	13.88
657.62	13.73
657.809	13.66
657.999	13.51
658.188	13.39
658.377	13.34
658.567	13.21
658.756	13.06
658.945	12.99
659.134	12.82
659.324	12.71
659.513	12.69
659.702	12.55
659.891	12.45
660.08	12.39
660.269	12.24
660.458	12.11
660.648	12.09
660.837	12.03
661.026	11.87
661.215	11.8
661.404	11.71
661.593	11.52
661.782	11.29
661.971	11.27
662.16	11.15
662.349	11.01
662.538	11.01
662.726	11.04
662.915	11.03
663.104	10.88
663.293	10.84
663.482	10.75
663.671	10.61
663.86	10.48
664.048	10.46
664.237	10.39
664.426	10.34
664.615	10.26
664.803	10.12
664.992	10.07
665.181	10.03
665.369	9.99
665.558	9.92
665.747	9.95
665.935	9.89
666.124	9.88
666.312	9.71
666.501	9.72
666.69	9.74
666.878	9.79
667.067	9.72
667.255	9.82
667.444	9.65
667.632	9.53
667.82	9.34
668.009	9.41
668.197	9.43
668.386	9.5
668.574	9.51
668.762	9.64
668.951	9.51
669.139	9.47
669.327	9.5
669.516	9.39
669.704	9.39
669.892	9.5
670.08	9.53
670.269	9.58
670.457	9.7
670.645	9.7
670.833	9.64
671.021	9.49
671.21	9.55
671.398	9.51
671.586	9.53
671.774	9.64
671.962	9.76
672.15	9.85
672.338	9.97
672.526	10.04
672.714	10
672.902	10.05
673.09	9.96
673.278	9.91
673.466	9.92
673.654	10.01
673.842	10.15
674.03	10.24
674.218	10.38
674.405	10.49
674.593	10.5
674.781	10.32
674.969	10.3
675.157	10.26
675.344	10.2
675.532	10.13
675.72	10.26
675.908	10.32
676.095	10.41
676.283	10.55
676.471	10.57
676.658	10.78
676.846	10.9
677.033	10.82
677.221	10.79
677.409	10.95
677.596	10.97
677.784	10.86
677.971	11.11
678.159	11.18
678.346	11.17
678.534	11.23
678.721	11.21
678.909	11.22
679.096	11.37
679.283	11.42
679.471	11.49
679.658	11.71
679.846	11.72
680.033	11.79
680.22	11.97
680.408	11.99
680.595	12.04
680.782	12.25
680.969	12.31
681.157	12.33
681.344	12.34
681.531	12.5
681.718	12.56
681.905	12.64
682.093	12.74
682.28	12.81
682.467	12.84
682.654	12.89
682.841	13.01
683.028	13.08
683.215	13.34
683.402	13.53
683.589	13.7
683.776	13.96
683.963	14.16
684.15	14.28
684.337	14.39
684.524	14.57
684.711	14.5
684.898	14.71
685.085	14.86
685.271	15.06
685.458	15.28
685.645	15.66
685.832	15.82
686.019	16.17
686.205	16.37
686.392	16.51
686.579	16.7
686.766	16.83
686.952	17.03
687.139	17.28
687.326	17.64
687.512	17.85
687.699	18.2
687.886	18.43
688.072	18.76
688.259	19.06
688.445	19.5
688.632	19.98
688.818	20.35
689.005	20.86
689.191	21.2
689.378	21.47
689.564	21.79
689.751	22.09
689.937	22.46
690.124	22.88
690.31	23.34
690.496	23.93
690.683	24.5
690.869	24.89
691.055	25.51
691.242	26.02
691.428	26.34
691.614	26.67
691.8	27.16
691.987	27.51
692.173	28.05
692.359	28.68
692.545	29.37
692.731	29.87
692.918	30.3
693.104	30.75
693.29	31.14
693.476	31.66
693.662	32.18
693.848	32.88
694.034	33.44
694.22	34.07
694.406	34.81
694.592	35.48
694.778	36.12
694.964	36.4
695.15	37.12
695.336	37.57
695.522	38.02
695.708	38.64
695.894	39.64
696.08	39.99
696.265	40.44
696.451	41.21
696.637	41.81
696.823	42.28
697.009	43.07
697.194	43.77
697.38	44.21
697.566	44.58
697.751	45.43
697.937	45.71
698.123	46.37
698.308	46.91
698.494	47.65
698.68	47.82
698.865	48.48
699.051	48.58
699.236	48.95
699.422	49.57
699.607	50.13
699.793	50.79
699.978	51.5
700.164	52.23
700.349	52.43
700.535	52.96
700.72	53.17
700.906	53.74
701.091	54.2
701.276	54.68
701.462	55
701.647	55.64
701.832	56.03
702.018	56.65
702.203	57.21
702.388	57.87
702.573	58.47
702.759	58.88
702.944	59.12
703.129	59.5
703.314	59.69
703.499	59.87
703.684	60.34
703.87	60.48
704.055	60.71
704.24	61.18
704.425	61.95
704.61	62.55
704.795	63.19
704.98	63.91
705.165	64.22
705.35	64.28
705.535	64.24
705.72	64.53
705.905	64.6
706.09	65.2
706.275	65.6
706.459	66.28
706.644	66.69
706.829	66.6
707.014	66.81
707.199	67.07
707.384	66.64
707.568	66.85
707.753	67.52
707.938	67.4
708.123	67.51
708.307	68.21
708.492	68.48
708.677	68.59
708.861	69.14
709.046	69.74
709.231	69.94
709.415	70.17
709.6	70.69
709.784	71.18
709.969	71.02
710.153	71.52
710.338	72.41
710.522	72.52
710.707	72.26
710.891	72.56
711.076	72.39
711.26	71.96
711.445	72.31
711.629	72.9
711.813	72.85
711.998	73.06
712.182	73.47
712.366	73.1
712.551	72.97
712.735	73.32
712.919	73.58
713.103	73.71
713.288	74.49
713.472	74.88
713.656	74.94
713.84	75.45
714.024	75.29
714.208	74.92
714.393	75.17
714.577	75.83
714.761	75.7
714.945	75.99
715.129	76.38
715.313	76.3
715.497	76.34
715.681	76.14
715.865	76.44
716.049	76.93
716.233	77.09
716.417	77.29
716.601	77.61
716.785	77.56
716.968	77.29
717.152	77.43
717.336	77.39
717.52	77.88
717.704	78.11
717.888	78.47
718.071	78.57
718.255	78.27
718.439	78.56
718.622	78.54
718.806	78.17
718.99	78.86
719.174	79.22
719.357	79.13
719.541	79.66
719.724	79.96
719.908	79.82
720.092	80.05
720.275	80.21
720.459	80.04
720.642	80.3
720.826	80.29
721.009	80.28
721.193	80.23
721.376	80.57
721.559	80.67
721.743	81.07
721.926	81.4
722.11	81.39
722.293	81.16
722.476	81.45
722.66	80.97
722.843	80.8
723.026	81.35
723.21	82.07
723.393	81.68
723.576	81.44
723.759	81.59
723.942	81.45
724.126	81.14
724.309	81.65
724.492	82.3
724.675	82.61
724.858	82.34
725.041	81.94
725.224	82.25
725.407	81.75
725.59	82.29
725.774	82.93
725.957	83.87
726.14	83.37
726.322	84.33
726.505	83.67
726.688	83.41
726.871	83.33
727.054	84.09
727.237	84.02
727.42	84.59
727.603	85.37
727.786	85.57
727.968	85.44
728.151	86.18
728.334	86.27
728.517	86.37
728.699	85.72
728.882	86.12
729.065	85.59
729.248	85.77
729.43	85.31
729.613	85.9
729.796	85.76
729.978	86.02
730.161	86.3
730.343	86.4
730.526	86.46
730.708	86.34
730.891	86.55
731.073	86.71
731.256	86.96
731.438	87.98
731.621	87.96
731.803	87.41
731.986	86.96
732.168	87.98
732.35	87.67
732.533	88.78
732.715	89.88
732.898	90.33
733.08	89.31
733.262	89.32
733.444	88.96
733.627	88.62
733.809	88.53
733.991	88.11
734.173	88.1
734.355	88.12
734.538	88.19
734.72	88.68
734.902	89.61
735.084	89.47
735.266	89.11
735.448	89.66
735.63	89.65
735.812	90.3
735.994	89.81
736.176	90.54
736.358	89.58
736.54	88.98
736.722	88.43
736.904	89.55
737.086	88.64
737.268	88.24
737.45	89.43
737.632	89.5
737.814	89.28
737.995	90.22
738.177	91.48
738.359	90.68
738.541	91.38
738.723	91.45
738.904	91.31
739.086	91.3
739.268	91.02
739.449	90.48
739.631	89.77
739.813	89.49
739.994	89.47
740.176	89.44
740.358	89.35
740.539	89.63
740.721	90.22
740.902	90.33
741.084	90.49
741.265	91.66
741.447	92.08
741.628	91.91
741.81	91.49
741.991	92.37
742.172	91.51
742.354	91.55
742.535	92.56
742.717	92.32
742.898	92.11
743.079	92.71
743.261	93.44
743.442	92.98
743.623	93.32
743.804	93.45
743.986	92.41
744.167	91.97
744.348	92.13
744.529	91.59
744.71	91.35
744.891	91.24
745.073	91.04
745.254	90.57
745.435	92.24
745.616	92.89
745.797	92.65
745.978	93.12
746.159	94.15
746.34	94.08
746.521	93.91
746.702	94.72
746.883	95.37
747.064	94.59
747.245	93.96
747.426	93.09
747.606	92.68
747.787	91.24
747.968	90.74
748.149	90.35
748.33	90.32
748.51	90.29
748.691	91.46
748.872	91.02
749.053	91.81
749.233	93.46
749.414	93.67
749.595	92.85
749.775	94.38
749.956	94.15
750.137	91.99
750.317	91.7
750.498	91.24
750.678	90.74
750.859	89.94
751.04	91.07
751.22	92.57
751.4	92.93
751.581	93.72
751.761	93.18
751.942	93.75
752.122	92.67
752.303	92.02
752.483	90.55
752.663	91.05
752.844	91.43
753.024	93.12
753.204	93.94
753.385	95.14
753.565	95.63
753.745	95.73
753.925	93.5
754.106	93.57
754.286	92.7
754.466	93.3
754.646	92.34
754.826	92.88
755.006	92.61
755.187	93.07
755.367	92.5
755.547	93.26
755.727	92.96
755.907	93.17
756.087	91.83
756.267	91.5
756.447	89.99
756.627	90.03
756.807	89.37
756.987	91.87
757.167	93.07
757.346	94.14
757.526	94.05
757.706	94.39
757.886	93.3
758.066	92.3
758.246	92.64
758.425	93.47
758.605	93.56
758.785	93.37
758.965	94.26
759.144	94.35
759.324	94.21
759.504	94.31
759.683	96.32
759.863	94.98
760.043	93.74
760.222	93.17
760.402	92.3
760.581	90.3
760.761	91.03
760.94	91.39
761.12	91.73
761.299	92.35
761.479	91.45
761.658	91.95
761.838	92.42
762.017	93
762.197	93.09
762.376	94.26
762.555	93.16
762.735	91.19
762.914	90.81
763.093	89.67
763.273	88.85
763.452	88.54
763.631	89.49
763.81	90.32
763.99	92.35
764.169	93.92
764.348	93.97
764.527	95.11
764.706	93.87
764.885	92.55
765.064	90.94
765.243	92.39
765.423	92.4
765.602	92.14
765.781	92.02
765.96	92.51
766.139	92.99
766.318	93.1
766.497	93.59
766.676	94.33
766.854	94.9
767.033	93.57
767.212	92.9
767.391	93.64
767.57	93.45
767.749	94.33
767.928	93.14
768.106	93.42
768.285	93.32
768.464	93.82
768.643	92.52
768.821	92.2
769	92.08
769.179	92.27
769.357	93.3
769.536	93.48
769.715	93.74
769.893	92.28
770.072	91.7
770.25	88.87
770.429	87.35
770.607	86.99
770.786	87.69
770.964	85.65
771.143	87.25
771.321	87.18
771.5	86.99
771.678	87.05
771.857	89.07
772.035	89.18
772.213	89.06
772.392	91.86
772.57	91.78
772.748	90.54
772.927	91.01
773.105	90.89
773.283	89.67
773.461	88.71
773.64	88.32
773.818	87.71
773.996	88.8
774.174	87.9
774.352	88.15
774.531	87.27
774.709	86.38
774.887	87.41
775.065	88.42
775.243	90.18
775.421	91.1
775.599	92.65
775.777	90.8
775.955	90.51
776.133	90.09
776.311	91.15
776.489	90.29
776.667	91.43
776.844	92.52
777.022	93.48
777.2	93.28
777.378	92.73
777.556	92.18
777.734	90.02
777.911	88.17
778.089	88.92
778.267	89.3
778.445	92.32
778.622	91.31
778.8	91.09
778.978	89.2
779.155	88.4
779.333	86.88
779.511	88.24
779.688	85.77
779.866	87.94
780.043	89.83
780.221	88.5
780.398	88.85
780.576	91.57
780.753	91.16
780.931	89.5
781.108	89.22
781.286	88.95
781.463	88.48
781.64	85.91
781.818	85.77
781.995	86.14
782.172	86.72
782.35	87.06
782.527	89.69
782.704	90.75
782.882	90.59
783.059	89.81
783.236	87.19
783.413	85.87
783.59	85.38
783.768	87.69
783.945	85.66
784.122	91.24
784.299	92.6
784.476	90.63
784.653	89.17
784.83	90.85
785.007	89.27
785.184	87.52
785.361	89.63
785.538	88.34
785.715	91.22
785.892	89.88
786.069	92.87
786.246	92.36
786.423	93.34
786.6	90.35
786.776	94.39
786.953	92.36
787.13	91.3
787.307	88.28
787.484	89.56
787.66	87.94
787.837	88.86
788.014	92.03
788.191	96.48
788.367	97.88
788.544	96.62
788.721	95.98
788.897	93.47
789.074	91.02
789.25	86.65
789.427	85.44
789.603	85.42
789.78	87.72
789.956	88.12
790.133	92.47
790.309	94.34
790.486	92.73
790.662	92.06
790.839	93.42
791.015	87.76
791.192	84.05
791.368	83.82
791.544	83.15
791.721	83.09
791.897	86.1
792.073	84.79
792.249	84.83
792.426	83.04
792.602	80.11
792.778	81.79
792.954	86.74
793.13	89.52
793.307	94.75
793.483	96.97
793.659	96.65
793.835	96.01
794.011	91.39
794.187	87.66
794.363	90.23
794.539	88.36
794.715	90.26
794.891	92.77
795.067	91.91
795.243	91.25
795.419	87.2
795.595	82.2
795.771	84.16
795.947	80.05
796.122	77.95
796.298	81.14
796.474	85
796.65	82.81
796.826	86.8
797.001	86.32
797.177	88.01
797.353	84.66
797.529	86.26
797.704	88.92
797.88	91.15
798.056	90.8
798.231	91.85
798.407	88.91
798.582	85.16
798.758	81.39
798.934	79.81
799.109	80.66
799.285	84.59
799.46	83.96
799.636	86.41
799.811	84.89
799.986	83.92
800.162	81.25
800.337	79.65
800.513	83.74
800.688	89.26
800.863	94.12
801.039	91.09
801.214	94.95
801.389	90.44
801.565	88.15
801.74	81.62
801.915	81.3
802.09	78.48
802.265	77.88
802.441	80.76
802.616	77.87
802.791	83.76
802.966	88.51
803.141	92.54
803.316	90.54
803.491	96.63
803.666	89.88
803.841	89.19
804.016	85.41
804.191	81.73
804.366	87.6
804.541	93.39
804.716	88.16
804.891	87.49
805.066	87.14
805.241	84.45
805.416	79.85
805.591	83.27
805.765	82.49
805.94	85.84
806.115	86.31
806.29	87.85
806.464	90.69
806.639	89.73
806.814	90.66
806.989	91.37
807.163	93.21
807.338	92.68
807.512	93.86
807.687	92.33
807.862	90.74
808.036	84.43
808.211	84.99
808.385	85.29
808.56	83.61
808.734	90.58
808.909	95.54
809.083	95.72
809.258	93.57
809.432	98.91
809.606	91.34
809.781	95.33
809.955	87.07
810.13	86.24
810.304	83.4
810.478	82.87
810.652	76.83
810.827	83.52
811.001	87.81
811.175	89.72
811.349	90.59
811.524	92.59
811.698	84.89
811.872	85.55
812.046	88.49
812.22	87.44
812.394	93.71
812.568	100.13
812.742	92.22
812.916	85.61
813.09	78.89
813.264	81.66
813.438	84.15
813.612	85.61
813.786	92.64
813.96	92.59
814.134	90.74
814.308	87.11
814.482	92.54
814.656	93.22
814.83	99.67
815.003	96.9
815.177	104.86
815.351	101.52
815.525	94.54
815.698	93.89
815.872	88.83
816.046	89.69
816.219	92.01
816.393	92.72
816.567	96.97
816.74	95.54
816.914	87.5
817.088	93.91
817.261	88.32
817.435	89.69
817.608	90.57
817.782	94.64
817.955	80.81
818.129	81.07
818.302	76.37
818.475	77.57
818.649	68.07
818.822	73.74
818.996	66.62
819.169	74.73
819.342	71.12
819.516	85.39
819.689	84.3
819.862	105.96
820.035	88.75
820.209	91.46
820.382	86.95
820.555	77.75
820.728	67.19
820.901	74.8
821.075	78.24
821.248	76.57
821.421	104.13
821.594	106.49
821.767	106.32
821.94	93.61
822.113	95.37
822.286	66.39
822.459	63.66
822.632	61.03
822.805	69.97
822.978	68.46
823.151	74.73
823.324	84.19
823.496	87.6
823.669	75.44
823.842	79.3
824.015	87.5
824.188	82.87
824.361	90.26
824.533	100.3
824.706	85.55
824.879	76.81
825.051	66.63
825.224	68.19
825.397	69.94
825.569	71.79
825.742	72.28
825.915	79.79
826.087	78.07
826.26	71.75
826.432	75.8
826.605	73.19
826.777	72.88
826.95	74.24
827.122	79.57
827.295	71.34
827.467	80.61
827.64	74.07
827.812	74.6
827.984	57.47
828.157	60.62
828.329	61.35
828.501	69.74
828.674	75.4
828.846	103.29
829.018	112.44
829.19	108.11
829.363	107.43
829.535	99.91
829.707	90.01
829.879	87.3
830.051	79.91
830.223	85.31
830.395	92.19
830.568	85.49
830.74	89.38
830.912	90.45
831.084	95.08
831.256	83.41
831.428	86.4
831.6	83.4
831.772	92.61
831.943	85.67
832.115	89.92
832.287	90.72
832.459	77.36
832.631	82.2
832.803	87.5
832.975	98.35
833.146	96.69
833.318	145.5
833.49	138.41
833.662	117.14
833.833	97.28
834.005	96.55
834.177	85.8
834.348	82.69
834.52	77.24
834.692	85.14
834.863	101.13
835.035	81.48
835.206	87.11
835.378	106.42
835.549	113.56
835.721	105.52
835.892	135.63
836.064	114.74
836.235	90.5
836.407	87.52
836.578	83.33
836.749	81.7
836.921	98.01
837.092	96.87
837.264	109.05
837.435	120.76
837.606	85.35
837.777	81.87
837.949	79.18
838.12	72.48
838.291	56.36
838.462	77.57
838.633	75.12
838.805	81.61
838.976	87.87
839.147	90.79
839.318	110.49
839.489	115.37
839.66	119.91
839.831	75.25
840.002	78.45
840.173	76.82
840.344	69.34
840.515	55.66
840.686	64.4
840.857	76.44
841.028	88.81
841.199	103.13
841.369	107.07
841.54	116.33
841.711	135.13
841.882	145.2
842.053	125.53
842.223	141.13
842.394	146.33
842.565	134.84
842.736	97.73
842.906	95.34
843.077	78.11
843.248	84.54
843.418	86.27
843.589	96.16
843.759	83.56
843.93	90.18
844.101	69.83
844.271	73.92
844.442	65.92
844.612	42.55
844.783	37.71
844.953	65.85
845.123	34.31
845.294	5.98
845.464	39.43
845.635	63.58
845.805	73.29
845.975	106.28
846.146	111.5
846.316	118.41
846.486	120.42
846.656	109.41
846.827	108.65
846.997	113.47
847.167	99.78
847.337	97.86
847.507	89.12
847.677	82.68
847.848	81.56
848.018	90.91
848.188	95.41
848.358	113.17
848.528	97.21
848.698	112.2
848.868	112.94
849.038	98.02
849.208	95.99
849.378	86.3
849.548	84.59
849.718	84.09
849.887	74.64
850.057	97.17
850.227	119.31
850.397	103.39
850.567	96.1
850.737	82.4
850.906	57.62
851.076	61.41
851.246	25.41
851.415	44.24
851.585	67.3
851.755	118.17
851.924	127.85
852.094	119.44
852.264	133.5
852.433	139.77
852.603	103.71
852.772	86.15
852.942	107.69
853.111	82.18
853.281	86.96
853.45	62.12
853.62	73.16
853.789	62.85
853.959	58.59
854.128	66.91
854.297	89.39
854.467	85.93
854.636	85.2
854.805	111.55
854.975	126.94
855.144	96.41
855.313	124.52
855.482	93.11
855.652	86.52
855.821	84.75
855.99	71.26
856.159	58.46
856.328	61.79
856.497	67.2
856.667	87.49
856.836	76.8
857.005	92.34
857.174	84.41
857.343	89.26
857.512	64.86
857.681	69.09
857.85	45.64
858.019	54.75
858.188	40.06
858.356	26.83
858.525	86.09
858.694	131.02
858.863	97.14
859.032	120.67
859.201	135.49
859.369	108.51
859.538	83.09
859.707	90.86
859.876	83.61
860.044	87.86
860.213	67.3
860.382	74.76
860.55	70.21
860.719	71.46
860.888	79.08
861.056	101.14
861.225	93.94
861.393	81.23
861.562	79.77
861.73	73.07
861.899	65.72
862.067	72.2
862.236	91.92
862.404	96.85
862.572	106.33
862.741	149
862.909	130.95
863.078	131.74
863.246	94.95
863.414	75.38
863.582	21.95
863.751	53.41
863.919	45.9
864.087	49.93
864.255	54.25
864.424	81.09
864.592	103.82
864.76	132.2
864.928	82.91
865.096	88.05
865.264	88.6
865.432	56.95
865.6	40.98
865.768	71.51
865.936	85.02
866.104	111.25
866.272	117.71
866.44	115.37
866.608	110.25
866.776	82.94
866.944	73.2
867.112	71.97
867.28	89.19
867.448	88.17
867.615	101.69
867.783	84.69
867.951	84.98
868.119	52.2
868.286	46.4
868.454	86.26
868.622	86.21
868.789	92.66
868.957	96.89
869.125	100.67
869.292	73.19
869.46	96
869.627	118.25
869.795	118.59
869.963	121.54
870.13	134.13
870.298	111.06
870.465	85.34
870.632	74.18
870.8	89.25
870.967	101.09
871.135	102.18
871.302	113.17
871.469	96.22
871.637	72.38
871.804	63.52
871.971	73.53
872.139	71.87
872.306	83.29
872.473	103.05
872.64	105.28
872.807	114.1
872.975	100.46
873.142	134.37
873.309	134.89
873.476	127.83
873.643	90.86
873.81	159.55
873.977	108.9
874.144	80.64
874.311	92.97
874.478	116.49
874.645	135.11
874.812	185.26
874.979	145.59
875.146	156.21
875.313	137.3
875.48	64.69
875.647	57.2
875.813	68.44
875.98	56.57
876.147	73.51
876.314	77.77
876.481	111.07
876.647	242.03
876.814	237.71
876.981	-610.23
877.147	-935.31
877.314	279.18
877.481	185.64
877.647	222.62
877.814	157.25
877.98	118.58
878.147	122.85
878.314	99.7
878.48	57.29
878.647	68.86
878.813	68.3
878.979	-2.11
879.146	31.45
879.312	28.85
879.479	33
879.645	48.21
879.811	62.58
879.978	93.88
880.144	103.73
880.31	108.72
880.477	91.2
880.643	115.75
880.809	27.48
880.975	13.3
881.142	32.37
881.308	59.77
881.474	58.69
881.64	110.54
881.806	100.67
881.972	117.4
882.138	66.91
882.304	27.61
882.47	50.92
882.636	-7.81
882.802	20.88
882.968	80.69
883.134	82.77
883.3	92.51
883.466	57.87
883.632	48.62
883.798	58.76
883.964	76.25
884.129	60.64
884.295	71.11
884.461	85.17
884.627	84.96
884.793	63.76
884.958	46.25
885.124	53.95
885.29	55.95
885.455	51.7
885.621	99.5
885.787	286.56
885.952	667.16
886.118	672.56
886.283	328.56
886.449	308.22
886.614	112.8
886.78	113.66
886.945	206.78
887.111	583.78
887.276	-4553.7
887.442	-1450.95
887.607	383.08
887.773	120.37
887.938	76.39
888.103	61.72
888.269	84.03
888.434	95.24
888.599	107.26
888.764	112.49
888.93	130.27
889.095	125.64
889.26	128.2
889.425	-2083.33
889.59	-671.33
889.756	289.24
889.921	967.95
890.086	219.95
890.251	29.19
890.416	71.97
890.581	-54.01
890.746	2.4
890.911	11.48
891.076	-3.33
891.241	17.25
891.406	39.23
891.571	2.51
891.736	53.49
891.901	65.9
892.065	61.44
892.23	-17.85
892.395	121.14
892.56	75.67
892.725	22.11
892.889	41.82
893.054	72.76
893.219	95.34
893.384	164.65
893.548	270.61
893.713	312.36
893.878	514.34
