Data from Ofav_PP_Phys_2EV3_Reflection_2.txt Node
Date: Tue Aug 03 18:15:21 EDT 2021
User: Adam
Spectrometer: FLMT01687
Trigger mode: 0
Integration Time (sec): 8.750000E-1
Scans to average: 2
Electric dark correction enabled: true
Nonlinearity correction enabled: false
Boxcar width: 2
XAxis mode: Wavelengths
Number of Pixels in Spectrum: 3648
>>>>>Begin Spectral Data<<<<<
179.494	282.43
179.716	284.39
179.937	272.53
180.158	292.52
180.38	-150
180.601	-128.95
180.823	-99.67
181.044	33.29
181.265	138.62
181.486	-270.9
181.708	28.12
181.929	33.46
182.15	75.52
182.372	362.66
182.593	-114.56
182.814	188.46
183.035	86.17
183.257	-726.47
183.478	157.28
183.699	103.01
183.92	69.4
184.141	25.12
184.363	78.4
184.584	-1.75
184.805	26.44
185.026	-39.17
185.247	-31.76
185.468	-37.22
185.689	-52.14
185.91	-70.57
186.132	-21.71
186.353	13.49
186.574	-7.31
186.795	21.03
187.016	11.15
187.237	25.95
187.458	21.12
187.679	16.78
187.9	2.98
188.121	-2.46
188.342	-55.72
188.563	-50.75
188.784	-42.41
189.005	-40.53
189.226	-40.35
189.447	-11.69
189.667	-5.85
189.888	-6.81
190.109	39.91
190.33	26.17
190.551	45.02
190.772	72.47
190.993	65.27
191.214	57.34
191.434	79.29
191.655	47
191.876	25.19
192.097	30.69
192.318	20.09
192.538	11.32
192.759	13.2
192.98	30.67
193.201	24.54
193.421	34.91
193.642	25.12
193.863	51.71
194.083	52.83
194.304	66.04
194.525	43.6
194.745	63.84
194.966	71.56
195.187	64.24
195.407	48.22
195.628	74.83
195.848	66.5
196.069	76.72
196.29	40.66
196.51	47.52
196.731	46.59
196.951	30.34
197.172	29.83
197.392	81.11
197.613	71.08
197.833	58.55
198.054	94.55
198.274	60.75
198.495	49.71
198.715	48.2
198.936	51.64
199.156	60.3
199.377	56.77
199.597	52.31
199.817	98.21
200.038	72.66
200.258	78.26
200.479	43.76
200.699	27
200.919	-68.68
201.14	14.94
201.36	21.82
201.58	39.58
201.801	23.85
202.021	16.11
202.241	-11.86
202.461	-2.09
202.682	8.77
202.902	8.84
203.122	49.84
203.342	66.58
203.563	-6.73
203.783	-10.23
204.003	23.19
204.223	14.88
204.443	-10.28
204.663	19.58
204.884	14.93
205.104	-16.3
205.324	-29.18
205.544	-32.77
205.764	-30.42
205.984	-87.67
206.204	-61.31
206.424	-85.06
206.644	-6.96
206.864	-42.35
207.084	-17.5
207.304	-33.81
207.525	12.75
207.745	15.78
207.964	38.91
208.184	51.19
208.404	78.8
208.624	56.33
208.844	58.4
209.064	66.48
209.284	80.3
209.504	27.97
209.724	9.21
209.944	-17.28
210.164	-56.28
210.384	-35.59
210.604	-35.88
210.823	6.76
211.043	28.59
211.263	25.87
211.483	-1.3
211.703	33.13
211.922	16.37
212.142	8.4
212.362	7.29
212.582	24.02
212.801	15.68
213.021	32.3
213.241	41.71
213.461	55.14
213.68	53.99
213.9	61.45
214.12	29.31
214.339	56.21
214.559	48.22
214.779	46.31
214.998	23.1
215.218	53.94
215.438	34.23
215.657	42.17
215.877	40.82
216.096	38.26
216.316	26.85
216.535	-17.95
216.755	-31.67
216.974	6.12
217.194	56.37
217.413	84.78
217.633	95.3
217.852	90.83
218.072	83.37
218.291	57.52
218.511	29.4
218.73	50.8
218.95	48.66
219.169	55.56
219.389	46.12
219.608	39.82
219.827	-1.8
220.047	-21.34
220.266	-30.63
220.485	-9
220.705	-0.81
220.924	22.03
221.143	6.94
221.363	45.51
221.582	27.74
221.801	35.38
222.021	21.77
222.24	67.28
222.459	18.22
222.678	19.27
222.897	48.2
223.117	70
223.336	14.03
223.555	60.37
223.774	90.73
223.993	-15.43
224.213	-43.21
224.432	-5.28
224.651	1.79
224.87	11.28
225.089	3.66
225.308	-4.37
225.527	-19.4
225.746	-49.5
225.965	-55.18
226.184	-67.19
226.404	8.9
226.623	27.93
226.842	18.44
227.061	-14.6
227.28	9.72
227.499	-1.46
227.718	-8.31
227.936	-1.09
228.155	17.24
228.374	13.26
228.593	14.71
228.812	-9.85
229.031	-18.08
229.25	3.04
229.469	-53.43
229.688	-112.53
229.907	-189.56
230.125	-112.93
230.344	-53.7
230.563	-42.72
230.782	-28.02
231.001	22.26
231.22	10.77
231.438	-8.84
231.657	-0.3
231.876	20.21
232.095	9.75
232.313	-10.45
232.532	-32.72
232.751	-1.33
232.969	14.44
233.188	32.62
233.407	41.99
233.625	63.63
233.844	56.79
234.063	55.19
234.281	37.26
234.5	27.65
234.719	18.49
234.937	-1.16
235.156	-22.82
235.374	-22.37
235.593	-10.92
235.811	-13.53
236.03	15.18
236.249	34.47
236.467	49.8
236.686	47.49
236.904	41.64
237.123	43.37
237.341	48.06
237.559	36.7
237.778	36.47
237.996	38.46
238.215	30.28
238.433	19.36
238.652	24.4
238.87	26.87
239.088	27.81
239.307	26.81
239.525	26.83
239.743	32.3
239.962	41.52
240.18	48.19
240.398	63.57
240.617	71.63
240.835	31.43
241.053	3.61
241.271	-34.2
241.49	-44.18
241.708	-36.5
241.926	3.97
242.144	15.77
242.363	23.16
242.581	22.67
242.799	16.07
243.017	5.25
243.235	36.85
243.453	22.15
243.672	39.37
243.89	43.4
244.108	52.35
244.326	9.7
244.544	19.97
244.762	4.22
244.98	-11.1
245.198	2.14
245.416	38.48
245.634	35.9
245.852	45.14
246.07	32.32
246.288	-1.47
246.506	19.12
246.724	20.1
246.942	18.76
247.16	27.8
247.378	34.14
247.596	14.54
247.814	9.46
248.032	14.82
248.25	7.93
248.468	0.75
248.685	1.72
248.903	-26.54
249.121	-38.82
249.339	-16.93
249.557	9.41
249.775	2.24
249.992	44.52
250.21	53.74
250.428	43.95
250.646	19.73
250.863	9.84
251.081	-22.45
251.299	-50.4
251.517	-14.2
251.734	0.43
251.952	23.5
252.17	38.01
252.387	23.48
252.605	12.78
252.823	-13.64
253.04	-24.73
253.258	11.7
253.475	59.97
253.693	55.74
253.911	62.42
254.128	54.09
254.346	44.08
254.563	23.88
254.781	52.28
254.998	45.23
255.216	37.81
255.433	30.63
255.651	17.77
255.868	-44.19
256.086	-50
256.303	-21.48
256.521	-9.49
256.738	-11.1
256.956	27.72
257.173	28.77
257.39	24.81
257.608	22.87
257.825	14.2
258.043	-45.4
258.26	-1.53
258.477	11.17
258.695	11.99
258.912	20.44
259.129	50.24
259.346	45.57
259.564	42.13
259.781	47.53
259.998	29.79
260.216	11.6
260.433	9.48
260.65	-9.4
260.867	-15.23
261.084	-10.78
261.302	-27.09
261.519	-18.32
261.736	17.13
261.953	20.58
262.17	6.05
262.387	17.7
262.604	13.41
262.822	13.89
263.039	5.35
263.256	36.12
263.473	42.7
263.69	51.5
263.907	18.9
264.124	12.81
264.341	-19.94
264.558	-79.62
264.775	-67.34
264.992	-29.05
265.209	-19.58
265.426	-17.09
265.643	3.07
265.86	10.7
266.077	16.52
266.294	16.94
266.51	32.76
266.727	51.68
266.944	60.04
267.161	53.78
267.378	45.32
267.595	17.72
267.812	17.21
268.028	10.36
268.245	17.8
268.462	41.73
268.679	61.12
268.896	40.85
269.112	36.31
269.329	19.15
269.546	-30.72
269.763	-16.57
269.979	-3.47
270.196	13.4
270.413	18.99
270.629	31.89
270.846	39.59
271.063	34.51
271.279	29.77
271.496	43.62
271.712	18.2
271.929	6.16
272.146	37.17
272.362	35.71
272.579	15.98
272.795	11.4
273.012	19.05
273.228	8.5
273.445	6.17
273.661	10.72
273.878	21.59
274.094	24.03
274.311	15.69
274.527	3.53
274.744	10.23
274.96	11.78
275.177	-13.02
275.393	-18.71
275.609	-28.28
275.826	-34.36
276.042	-25.65
276.259	-6.71
276.475	-6.6
276.691	-0.45
276.908	26.19
277.124	22.2
277.34	21.3
277.557	24.12
277.773	34.52
277.989	25.57
278.205	24.68
278.422	31.08
278.638	33.51
278.854	23.79
279.07	11.83
279.286	37.82
279.503	31.76
279.719	32.96
279.935	43.6
280.151	52.71
280.367	20.56
280.583	-7.76
280.799	-7.69
281.016	-16.84
281.232	-23.85
281.448	9.83
281.664	12.99
281.88	32.03
282.096	44.78
282.312	24.03
282.528	1.76
282.744	13.64
282.96	12.44
283.176	15.44
283.392	36.31
283.608	33.58
283.824	33.38
284.04	13.71
284.256	8.71
284.471	4.4
284.687	7.57
284.903	9.02
285.119	-7.73
285.335	-15.67
285.551	-19.76
285.767	0.33
285.982	-7.31
286.198	23.81
286.414	11.52
286.63	3.14
286.846	-6.67
287.061	5.82
287.277	-24.81
287.493	-5.51
287.709	-27.73
287.924	-12.32
288.14	-25.23
288.356	-32.06
288.571	-21.38
288.787	17.76
289.003	5.01
289.218	11.25
289.434	54.13
289.65	60.23
289.865	46.39
290.081	33.18
290.296	25.36
290.512	24.53
290.727	10.03
290.943	17.99
291.159	42.69
291.374	39.89
291.59	36.21
291.805	37.6
292.021	48.76
292.236	47.51
292.451	36.21
292.667	28.25
292.882	15.07
293.098	-32.29
293.313	-44.43
293.529	-24.77
293.744	-33.75
293.959	8.19
294.175	29.65
294.39	23.85
294.605	17.07
294.821	17.87
295.036	4.27
295.251	-12
295.467	-0.88
295.682	21.3
295.897	25.07
296.112	35.75
296.328	58.33
296.543	58.3
296.758	46.32
296.973	44.51
297.188	29.27
297.404	26.35
297.619	31.16
297.834	39.12
298.049	31.14
298.264	44
298.479	22.05
298.694	7.45
298.909	9.29
299.125	9.38
299.34	-11.54
299.555	11.93
299.77	-4.46
299.985	24.34
300.2	53.41
300.415	84.75
300.63	58.86
300.845	83.2
301.06	53.39
301.275	9.52
301.49	3.91
301.704	16.42
301.919	14.19
302.134	23.37
302.349	23.5
302.564	36.03
302.779	35.91
302.994	20.97
303.209	21.99
303.423	16.26
303.638	3.47
303.853	5.58
304.068	25.1
304.283	34.41
304.497	43.62
304.712	43.65
304.927	45.17
305.142	48.55
305.356	36.44
305.571	26.55
305.786	46.72
306	59.87
306.215	46.07
306.43	48.73
306.644	62.68
306.859	54.7
307.074	40.31
307.288	57.1
307.503	44.06
307.717	35.73
307.932	14.95
308.147	16.3
308.361	0.33
308.576	2.75
308.79	27.21
309.005	58.93
309.219	53.1
309.434	40.63
309.648	53.99
309.863	41.42
310.077	23.48
310.292	36.42
310.506	48.1
310.72	38.09
310.935	11.74
311.149	7.56
311.364	-29.25
311.578	-35.85
311.792	-43.43
312.007	-39.91
312.221	-27.73
312.435	-26.68
312.649	6.69
312.864	-26.15
313.078	-18.64
313.292	-29.7
313.507	-1.45
313.721	-20.46
313.935	-6.52
314.149	9.31
314.363	17.77
314.578	4.31
314.792	7.11
315.006	6.24
315.22	4.37
315.434	-10.04
315.648	-47.19
315.862	-13.32
316.077	-0.85
316.291	6.86
316.505	11.05
316.719	8.18
316.933	11.12
317.147	-14.29
317.361	-16.14
317.575	-5.28
317.789	19.2
318.003	24.35
318.217	30.18
318.431	35.05
318.645	25.78
318.859	12.8
319.073	-21.66
319.287	7.88
319.5	17.6
319.714	39.54
319.928	46.1
320.142	59.78
320.356	55.5
320.57	50.65
320.784	47.52
320.997	26.37
321.211	32.13
321.425	31.58
321.639	25.57
321.853	-13.24
322.066	14.12
322.28	6.44
322.494	-19.53
322.707	-41.45
322.921	-7.5
323.135	-6.58
323.349	-11.72
323.562	19.86
323.776	50.6
323.989	45.6
324.203	46.31
324.417	40.28
324.63	51.7
324.844	39.64
325.057	49.22
325.271	39.09
325.485	58.55
325.698	28.52
325.912	34.38
326.125	35.28
326.339	18.54
326.552	-1.42
326.766	10.43
326.979	-4.57
327.193	-11.01
327.406	6.16
327.619	29.82
327.833	-0.06
328.046	26.41
328.26	26.29
328.473	22.73
328.686	22
328.9	34.39
329.113	29.31
329.326	35.53
329.54	41.02
329.753	46.09
329.966	53.5
330.179	46.68
330.393	49.79
330.606	38.67
330.819	31.48
331.032	24.04
331.246	27.53
331.459	4.92
331.672	-3.17
331.885	-23.32
332.098	-20.29
332.311	14.45
332.525	35.7
332.738	29.55
332.951	41.16
333.164	34.31
333.377	22.44
333.59	-4.46
333.803	-6.07
334.016	-19.15
334.229	-5.27
334.442	-39.78
334.655	-12.44
334.868	8.6
335.081	22.35
335.294	16.34
335.507	45.75
335.72	45.53
335.933	30.55
336.146	35.77
336.359	35.34
336.572	22.02
336.785	24.38
336.997	42.5
337.21	23.51
337.423	22.5
337.636	38.34
337.849	41.11
338.062	35.34
338.274	21.73
338.487	29.96
338.7	21.77
338.913	29.72
339.125	22.86
339.338	34.89
339.551	26.61
339.763	15.01
339.976	2.68
340.189	10.06
340.402	4.26
340.614	16.05
340.827	32.54
341.039	48.03
341.252	54.25
341.465	67.38
341.677	62.53
341.89	68.35
342.102	56.68
342.315	55.71
342.527	56.1
342.74	50.88
342.952	43.52
343.165	47.35
343.377	25.4
343.59	16.88
343.802	5.03
344.015	-25.4
344.227	-54.47
344.44	-23.83
344.652	-19.5
344.864	-32.16
345.077	-24.11
345.289	-32.46
345.502	-56.28
345.714	-62.04
345.926	-28.56
346.139	-12.61
346.351	-4.5
346.563	4.58
346.775	-0.43
346.988	1.95
347.2	0.6
347.412	8.05
347.624	17.62
347.837	24.05
348.049	17.72
348.261	5.89
348.473	-5.6
348.685	-6.34
348.897	10.15
349.11	9.49
349.322	11.9
349.534	21.5
349.746	25.52
349.958	7.09
350.17	8.58
350.382	3.65
350.594	-1.97
350.806	-18.32
351.018	-18.11
351.23	-14.81
351.442	0.68
351.654	1.33
351.866	24.44
352.078	32.67
352.29	19.66
352.502	23.29
352.714	25.77
352.926	14.3
353.138	5.46
353.35	23.91
353.561	31.79
353.773	33.98
353.985	42.21
354.197	42.32
354.409	42.84
354.621	38.02
354.832	50.07
355.044	49.03
355.256	43.15
355.468	36.95
355.679	39.51
355.891	29.09
356.103	31.13
356.314	36.83
356.526	33.99
356.738	37.56
356.949	30.03
357.161	17.94
357.373	24.17
357.584	33.57
357.796	24.47
358.008	13.54
358.219	14.56
358.431	14.99
358.642	3.76
358.854	-10.73
359.065	9.31
359.277	18.38
359.488	7.96
359.7	14.32
359.911	18.51
360.123	20.71
360.334	21.17
360.546	24.26
360.757	28.81
360.969	22.57
361.18	16.11
361.391	18.98
361.603	8.61
361.814	-4.86
362.025	4.54
362.237	8.34
362.448	0.38
362.659	6.59
362.871	12.32
363.082	-0.42
363.293	-6.34
363.504	2.61
363.716	21.45
363.927	19.72
364.138	32.52
364.349	39.56
364.56	32.93
364.772	43.98
364.983	43.19
365.194	42.51
365.405	35.75
365.616	25.99
365.827	13.85
366.038	20.15
366.25	11.5
366.461	26.63
366.672	40.98
366.883	28.35
367.094	32.09
367.305	39.59
367.516	16.58
367.727	14.8
367.938	20.96
368.149	17.66
368.36	7.04
368.571	6.53
368.781	8.58
368.992	13.3
369.203	10.49
369.414	16.23
369.625	16.8
369.836	16.85
370.047	8.62
370.258	0.26
370.468	4.61
370.679	26.81
370.89	34.26
371.101	39.35
371.312	42.65
371.522	33.83
371.733	22.45
371.944	11.14
372.155	11.58
372.365	16.86
372.576	28.27
372.787	33.25
372.997	37.1
373.208	44.54
373.419	35.71
373.629	35.39
373.84	35.59
374.05	33.59
374.261	27.84
374.472	41.06
374.682	29.73
374.893	30.18
375.103	19.57
375.314	16.91
375.524	12.82
375.735	14.86
375.945	11.7
376.156	21.24
376.366	11.02
376.577	5.86
376.787	12.61
376.997	6.76
377.208	11.64
377.418	18.62
377.629	16.59
377.839	22.06
378.049	19.11
378.26	8.74
378.47	6.04
378.68	8.58
378.89	5.8
379.101	7.64
379.311	11.45
379.521	13.45
379.732	18.24
379.942	16.95
380.152	25.19
380.362	17.44
380.572	16.35
380.783	10.56
380.993	13.11
381.203	9.26
381.413	7.23
381.623	12.36
381.833	13.99
382.043	14.72
382.253	15.65
382.463	28.85
382.674	19.36
382.884	21.74
383.094	10.01
383.304	12.85
383.514	-1.14
383.724	-4.86
383.934	-4.18
384.144	6.05
384.353	1.59
384.563	5.38
384.773	4.91
384.983	1.65
385.193	-4.56
385.403	-2.35
385.613	2.3
385.823	9.91
386.033	11.33
386.242	15.43
386.452	15.46
386.662	15.96
386.872	13.32
387.082	9.28
387.291	9.09
387.501	10.74
387.711	8.42
387.921	11.36
388.13	13.09
388.34	9.15
388.55	12.3
388.759	10.85
388.969	6.34
389.179	6.93
389.388	4.66
389.598	2.97
389.807	4.41
390.017	7.26
390.227	5.55
390.436	9.92
390.646	6.76
390.855	4.04
391.065	3.17
391.274	5.31
391.484	5.43
391.693	5.25
391.903	6.36
392.112	6.6
392.322	4.48
392.531	4.24
392.74	5.96
392.95	7.23
393.159	6.68
393.369	7.74
393.578	7.39
393.787	7.4
393.997	7.03
394.206	7.66
394.415	7.97
394.625	7.78
394.834	7.54
395.043	7.33
395.252	6.78
395.462	6.16
395.671	4.61
395.88	4.28
396.089	3.93
396.298	3.95
396.508	4.1
396.717	5.33
396.926	5.33
397.135	4.83
397.344	4.84
397.553	4.15
397.762	3.67
397.971	3.48
398.181	3.9
398.39	4.23
398.599	4.6
398.808	4.88
399.017	4.62
399.226	4.24
399.435	3.6
399.644	3.64
399.853	3.48
400.062	3.58
400.27	3.84
400.479	4.19
400.688	4.18
400.897	4.28
401.106	4.27
401.315	4.41
401.524	4.47
401.733	4.18
401.941	3.93
402.15	4.01
402.359	4.06
402.568	3.76
402.777	3.79
402.985	4.04
403.194	3.93
403.403	3.63
403.612	3.74
403.82	3.84
404.029	3.66
404.238	3.9
404.446	3.89
404.655	3.92
404.864	3.93
405.072	4.02
405.281	3.79
405.489	3.94
405.698	3.91
405.906	4.04
406.115	4.03
406.324	4.1
406.532	4
406.741	3.91
406.949	3.82
407.158	3.76
407.366	3.73
407.574	3.66
407.783	3.78
407.991	3.64
408.2	3.41
408.408	3.36
408.617	3.47
408.825	3.53
409.033	3.71
409.242	3.8
409.45	3.84
409.658	3.96
409.867	3.74
410.075	3.74
410.283	3.88
410.491	3.81
410.7	3.72
410.908	3.67
411.116	3.43
411.324	3.44
411.533	3.42
411.741	3.36
411.949	3.37
412.157	3.58
412.365	3.44
412.573	3.51
412.781	3.49
412.99	3.72
413.198	3.56
413.406	3.57
413.614	3.44
413.822	3.48
414.03	3.38
414.238	3.48
414.446	3.52
414.654	3.77
414.862	3.73
415.07	3.66
415.278	3.52
415.486	3.56
415.694	3.45
415.902	3.5
416.109	3.54
416.317	3.63
416.525	3.54
416.733	3.58
416.941	3.49
417.149	3.4
417.357	3.33
417.564	3.29
417.772	3.04
417.98	3.24
418.188	3.31
418.395	3.4
418.603	3.46
418.811	3.68
419.019	3.47
419.226	3.33
419.434	3.18
419.642	3.27
419.849	3.15
420.057	3.18
420.265	3.2
420.472	3.37
420.68	3.12
420.887	3.16
421.095	3.06
421.302	3.18
421.51	2.92
421.717	3.04
421.925	2.92
422.132	2.97
422.34	2.93
422.547	3.08
422.755	3.11
422.962	3.32
423.17	3.37
423.377	3.48
423.585	3.51
423.792	3.45
423.999	3.33
424.207	3.3
424.414	2.92
424.621	2.68
424.829	2.7
425.036	2.69
425.243	2.58
425.451	2.86
425.658	3.03
425.865	3.03
426.072	2.97
426.28	2.99
426.487	3.04
426.694	2.96
426.901	3.05
427.108	3.25
427.315	3.51
427.523	3.29
427.73	3.39
427.937	3.46
428.144	3.34
428.351	3.12
428.558	3.08
428.765	3.13
428.972	3.14
429.179	3.08
429.386	3.07
429.593	3.27
429.8	3.35
430.007	3.23
430.214	3.26
430.421	3.32
430.628	3.36
430.835	3.39
431.042	3.38
431.249	3.42
431.456	3.54
431.662	3.44
431.869	3.34
432.076	3.32
432.283	3.21
432.49	3.03
432.697	3.11
432.903	3.23
433.11	3.23
433.317	3.33
433.524	3.36
433.73	3.57
433.937	3.46
434.144	3.57
434.35	3.6
434.557	3.78
434.764	3.59
434.97	3.69
435.177	3.56
435.384	3.66
435.59	3.59
435.797	3.6
436.003	3.45
436.21	3.51
436.416	3.52
436.623	3.52
436.829	3.51
437.036	3.54
437.242	3.55
437.449	3.43
437.655	3.44
437.862	3.42
438.068	3.45
438.275	3.5
438.481	3.51
438.687	3.54
438.894	3.66
439.1	3.73
439.307	3.55
439.513	3.52
439.719	3.45
439.926	3.32
440.132	3.42
440.338	3.61
440.544	3.65
440.751	3.73
440.957	3.86
441.163	3.81
441.369	3.84
441.575	3.98
441.782	4.01
441.988	4.08
442.194	4.05
442.4	4.15
442.606	4.04
442.812	4.08
443.018	3.93
443.224	3.94
443.431	3.71
443.637	3.8
443.843	3.76
444.049	3.75
444.255	3.77
444.461	4
444.667	4.01
444.873	3.93
445.079	4.03
445.284	4
445.49	3.93
445.696	3.96
445.902	3.98
446.108	4.09
446.314	4.18
446.52	4.21
446.726	4.13
446.931	4.26
447.137	4.12
447.343	4.15
447.549	4.2
447.755	4.24
447.96	4.16
448.166	4.19
448.372	4.01
448.578	3.97
448.783	3.94
448.989	4.03
449.195	4.03
449.4	4.14
449.606	4.13
449.812	4.21
450.017	4.11
450.223	4.13
450.428	4.34
450.634	4.29
450.84	4.27
451.045	4.37
451.251	4.4
451.456	4.25
451.662	4.09
451.867	4.01
452.073	4.03
452.278	4.05
452.483	4.01
452.689	4.2
452.894	4.26
453.1	4.21
453.305	4.2
453.51	4.23
453.716	4.32
453.921	4.4
454.127	4.4
454.332	4.52
454.537	4.53
454.742	4.52
454.948	4.4
455.153	4.42
455.358	4.27
455.563	4.19
455.769	4.14
455.974	4.22
456.179	4.35
456.384	4.33
456.589	4.47
456.795	4.49
457	4.48
457.205	4.19
457.41	4.24
457.615	4.26
457.82	4.21
458.025	4.25
458.23	4.55
458.435	4.46
458.64	4.44
458.845	4.49
459.05	4.51
459.255	4.42
459.46	4.58
459.665	4.56
459.87	4.57
460.075	4.52
460.28	4.55
460.485	4.53
460.69	4.47
460.895	4.59
461.099	4.57
461.304	4.41
461.509	4.37
461.714	4.57
461.919	4.46
462.123	4.56
462.328	4.68
462.533	4.78
462.738	4.65
462.942	4.76
463.147	4.77
463.352	4.71
463.556	4.74
463.761	4.74
463.966	4.65
464.17	4.63
464.375	4.76
464.58	4.7
464.784	4.79
464.989	4.91
465.193	4.94
465.398	4.85
465.602	4.79
465.807	4.76
466.011	4.8
466.216	4.77
466.42	4.88
466.625	5
466.829	5
467.034	4.89
467.238	4.89
467.443	4.81
467.647	4.83
467.851	4.92
468.056	4.93
468.26	4.93
468.464	4.97
468.669	4.87
468.873	4.71
469.077	4.64
469.282	4.74
469.486	4.62
469.69	4.66
469.894	4.74
470.099	4.81
470.303	4.7
470.507	4.91
470.711	5
470.915	5.09
471.119	5.15
471.324	5.28
471.528	5.27
471.732	5.25
471.936	5.27
472.14	5.14
472.344	5.17
472.548	5.12
472.752	5.04
472.956	4.96
473.16	5.08
473.364	5.12
473.568	5.12
473.772	5.06
473.976	5.22
474.18	5.3
474.384	5.31
474.588	5.4
474.792	5.59
474.995	5.41
475.199	5.32
475.403	5.17
475.607	5.2
475.811	5.19
476.015	5.2
476.218	5.19
476.422	5.31
476.626	5.23
476.83	5.21
477.033	5.33
477.237	5.36
477.441	5.33
477.644	5.31
477.848	5.34
478.052	5.37
478.255	5.37
478.459	5.45
478.663	5.42
478.866	5.4
479.07	5.36
479.273	5.32
479.477	5.23
479.681	5.33
479.884	5.38
480.088	5.39
480.291	5.44
480.495	5.51
480.698	5.49
480.901	5.46
481.105	5.39
481.308	5.43
481.512	5.46
481.715	5.48
481.919	5.51
482.122	5.58
482.325	5.63
482.529	5.62
482.732	5.55
482.935	5.57
483.138	5.54
483.342	5.43
483.545	5.39
483.748	5.38
483.952	5.29
484.155	5.24
484.358	5.32
484.561	5.32
484.764	5.3
484.967	5.32
485.171	5.36
485.374	5.38
485.577	5.34
485.78	5.37
485.983	5.32
486.186	5.36
486.389	5.32
486.592	5.38
486.795	5.4
486.998	5.47
487.201	5.44
487.404	5.39
487.607	5.35
487.81	5.34
488.013	5.29
488.216	5.23
488.419	5.21
488.622	5.31
488.825	5.3
489.028	5.38
489.231	5.46
489.433	5.52
489.636	5.48
489.839	5.55
490.042	5.53
490.245	5.57
490.447	5.61
490.65	5.56
490.853	5.49
491.056	5.46
491.258	5.41
491.461	5.33
491.664	5.24
491.866	5.28
492.069	5.29
492.272	5.27
492.474	5.3
492.677	5.35
492.879	5.33
493.082	5.23
493.285	5.13
493.487	5.18
493.69	5.25
493.892	5.31
494.095	5.38
494.297	5.49
494.5	5.38
494.702	5.33
494.905	5.34
495.107	5.37
495.309	5.33
495.512	5.43
495.714	5.44
495.917	5.38
496.119	5.41
496.321	5.42
496.524	5.44
496.726	5.4
496.928	5.42
497.13	5.43
497.333	5.45
497.535	5.43
497.737	5.5
497.939	5.51
498.142	5.47
498.344	5.53
498.546	5.53
498.748	5.56
498.95	5.53
499.152	5.57
499.355	5.55
499.557	5.43
499.759	5.31
499.961	5.34
500.163	5.34
500.365	5.33
500.567	5.34
500.769	5.38
500.971	5.38
501.173	5.4
501.375	5.43
501.577	5.57
501.779	5.67
501.981	5.74
502.183	5.77
502.385	5.77
502.587	5.72
502.788	5.58
502.99	5.53
503.192	5.5
503.394	5.5
503.596	5.61
503.798	5.73
503.999	5.77
504.201	5.84
504.403	5.82
504.605	5.77
504.806	5.78
505.008	5.82
505.21	5.69
505.411	5.66
505.613	5.65
505.815	5.63
506.016	5.51
506.218	5.57
506.42	5.66
506.621	5.64
506.823	5.64
507.024	5.74
507.226	5.77
507.427	5.73
507.629	5.75
507.83	5.74
508.032	5.68
508.233	5.66
508.435	5.67
508.636	5.67
508.838	5.66
509.039	5.69
509.24	5.68
509.442	5.66
509.643	5.7
509.845	5.7
510.046	5.7
510.247	5.73
510.448	5.73
510.65	5.69
510.851	5.7
511.052	5.75
511.254	5.8
511.455	5.75
511.656	5.71
511.857	5.66
512.058	5.67
512.26	5.6
512.461	5.65
512.662	5.73
512.863	5.81
513.064	5.87
513.265	5.84
513.466	5.84
513.667	5.86
513.868	5.83
514.069	5.71
514.27	5.7
514.471	5.73
514.672	5.71
514.873	5.71
515.074	5.74
515.275	5.81
515.476	5.88
515.677	5.83
515.878	5.83
516.079	5.83
516.28	5.8
516.481	5.68
516.682	5.71
516.882	5.79
517.083	5.82
517.284	5.87
517.485	5.89
517.686	5.87
517.886	5.85
518.087	5.79
518.288	5.74
518.488	5.8
518.689	5.81
518.89	5.83
519.091	5.86
519.291	5.86
519.492	5.82
519.692	5.86
519.893	5.8
520.094	5.88
520.294	5.93
520.495	5.95
520.695	5.97
520.896	5.97
521.096	5.9
521.297	5.91
521.497	5.9
521.698	5.93
521.898	5.91
522.099	5.97
522.299	5.96
522.499	5.94
522.7	5.92
522.9	5.97
523.101	5.85
523.301	5.83
523.501	5.89
523.702	5.92
523.902	5.9
524.102	5.97
524.302	6.02
524.503	5.98
524.703	5.98
524.903	6.1
525.103	6.17
525.304	6.13
525.504	6.09
525.704	6.04
525.904	5.93
526.104	5.93
526.304	5.98
526.504	6.01
526.705	6.06
526.905	6.03
527.105	5.97
527.305	5.92
527.505	5.97
527.705	6.04
527.905	6.09
528.105	6.12
528.305	6.18
528.505	6.17
528.705	6.11
528.905	6.15
529.105	6.16
529.304	6.12
529.504	6.12
529.704	6.19
529.904	6.18
530.104	6.22
530.304	6.32
530.503	6.37
530.703	6.36
530.903	6.43
531.103	6.41
531.303	6.33
531.502	6.32
531.702	6.31
531.902	6.24
532.101	6.24
532.301	6.32
532.501	6.3
532.7	6.34
532.9	6.41
533.1	6.41
533.299	6.41
533.499	6.42
533.698	6.36
533.898	6.34
534.097	6.42
534.297	6.36
534.496	6.36
534.696	6.41
534.895	6.41
535.095	6.38
535.294	6.45
535.494	6.51
535.693	6.52
535.892	6.54
536.092	6.62
536.291	6.64
536.491	6.67
536.69	6.62
536.889	6.65
537.088	6.66
537.288	6.61
537.487	6.59
537.686	6.67
537.886	6.67
538.085	6.64
538.284	6.6
538.483	6.67
538.682	6.7
538.882	6.67
539.081	6.62
539.28	6.74
539.479	6.8
539.678	6.83
539.877	6.85
540.076	6.96
540.275	6.98
540.474	6.85
540.673	6.87
540.872	6.97
541.071	7
541.27	7.07
541.469	7.12
541.668	7.1
541.867	7.14
542.066	7.15
542.265	7.13
542.464	7.27
542.663	7.37
542.862	7.32
543.06	7.34
543.259	7.31
543.458	7.29
543.657	7.28
543.856	7.37
544.054	7.38
544.253	7.46
544.452	7.54
544.651	7.48
544.849	7.52
545.048	7.59
545.247	7.66
545.445	7.6
545.644	7.68
545.843	7.7
546.041	7.68
546.24	7.67
546.438	7.74
546.637	7.81
546.836	7.85
547.034	7.9
547.233	7.97
547.431	8.06
547.63	8.18
547.828	8.21
548.027	8.25
548.225	8.29
548.423	8.33
548.622	8.24
548.82	8.33
549.019	8.37
549.217	8.25
549.415	8.28
549.614	8.41
549.812	8.42
550.01	8.54
550.209	8.72
550.407	8.8
550.605	8.83
550.803	8.83
551.002	8.84
551.2	8.87
551.398	8.84
551.596	8.84
551.794	8.93
551.993	8.98
552.191	9.11
552.389	9.17
552.587	9.23
552.785	9.32
552.983	9.32
553.181	9.3
553.379	9.43
553.577	9.52
553.775	9.55
553.973	9.64
554.171	9.72
554.369	9.79
554.567	9.85
554.765	9.95
554.963	9.98
555.161	10.08
555.359	10.09
555.557	10.11
555.755	10.16
555.952	10.23
556.15	10.29
556.348	10.38
556.546	10.41
556.744	10.45
556.941	10.49
557.139	10.55
557.337	10.63
557.535	10.79
557.732	10.85
557.93	10.86
558.128	10.9
558.325	10.89
558.523	10.9
558.721	10.99
558.918	11.22
559.116	11.27
559.313	11.36
559.511	11.4
559.708	11.53
559.906	11.56
560.104	11.68
560.301	11.76
560.498	11.9
560.696	11.93
560.893	11.96
561.091	12
561.288	12.11
561.486	12.09
561.683	12.15
561.88	12.18
562.078	12.27
562.275	12.34
562.473	12.43
562.67	12.43
562.867	12.6
563.064	12.61
563.262	12.65
563.459	12.7
563.656	12.72
563.853	12.71
564.051	12.85
564.248	12.91
564.445	13
564.642	13.11
564.839	13.22
565.036	13.22
565.234	13.22
565.431	13.3
565.628	13.39
565.825	13.38
566.022	13.43
566.219	13.56
566.416	13.6
566.613	13.67
566.81	13.74
567.007	13.76
567.204	13.82
567.401	13.84
567.598	13.86
567.795	13.9
567.991	13.93
568.188	13.93
568.385	13.81
568.582	13.93
568.779	13.94
568.976	13.95
569.172	13.95
569.369	14.19
569.566	14.12
569.763	14.09
569.96	14.19
570.156	14.2
570.353	14.19
570.55	14.25
570.746	14.38
570.943	14.33
571.14	14.4
571.336	14.39
571.533	14.37
571.729	14.45
571.926	14.51
572.123	14.51
572.319	14.55
572.516	14.59
572.712	14.48
572.909	14.43
573.105	14.44
573.302	14.51
573.498	14.5
573.695	14.59
573.891	14.59
574.087	14.58
574.284	14.5
574.48	14.48
574.677	14.44
574.873	14.46
575.069	14.5
575.266	14.49
575.462	14.44
575.658	14.46
575.854	14.5
576.051	14.4
576.247	14.43
576.443	14.5
576.639	14.52
576.835	14.42
577.032	14.45
577.228	14.4
577.424	14.27
577.62	14.22
577.816	14.23
578.012	14.2
578.208	14.15
578.404	14.24
578.6	14.22
578.796	14.19
578.993	14.23
579.189	14.33
579.384	14.38
579.58	14.38
579.776	14.43
579.972	14.38
580.168	14.29
580.364	14.21
580.56	14.19
580.756	14.12
580.952	14.13
581.148	14.17
581.343	14.16
581.539	14.1
581.735	14.12
581.931	14.13
582.127	14.13
582.322	14.06
582.518	14
582.714	14.02
582.909	14.01
583.105	13.93
583.301	13.94
583.496	13.93
583.692	13.89
583.888	13.81
584.083	13.77
584.279	13.78
584.474	13.7
584.67	13.55
584.866	13.52
585.061	13.65
585.257	13.64
585.452	13.77
585.648	13.93
585.843	13.93
586.039	13.8
586.234	13.74
586.429	13.73
586.625	13.66
586.82	13.71
587.015	13.72
587.211	13.79
587.406	13.83
587.601	13.86
587.797	13.81
587.992	13.83
588.187	13.75
588.383	13.7
588.578	13.7
588.773	13.77
588.968	13.79
589.163	13.81
589.359	13.84
589.554	13.86
589.749	13.83
589.944	13.86
590.139	13.88
590.334	13.93
590.529	13.95
590.724	13.99
590.919	13.94
591.114	14.02
591.309	13.93
591.504	13.96
591.699	13.95
591.894	14
592.089	14.02
592.284	14.08
592.479	14.07
592.674	14.19
592.869	14.25
593.064	14.27
593.259	14.29
593.454	14.36
593.648	14.37
593.843	14.38
594.038	14.35
594.233	14.32
594.428	14.31
594.622	14.34
594.817	14.44
595.012	14.59
595.206	14.76
595.401	14.72
595.596	14.79
595.79	14.77
595.985	14.73
596.18	14.79
596.374	14.98
596.569	15.07
596.763	15.16
596.958	15.27
597.153	15.29
597.347	15.28
597.542	15.27
597.736	15.37
597.931	15.39
598.125	15.41
598.319	15.58
598.514	15.63
598.708	15.65
598.903	15.71
599.097	15.82
599.291	15.74
599.486	15.79
599.68	15.83
599.874	15.85
600.069	15.86
600.263	15.93
600.457	15.95
600.651	15.95
600.846	16.02
601.04	16.08
601.234	16.04
601.428	16.05
601.622	16.15
601.817	16.11
602.011	16.14
602.205	16.21
602.399	16.24
602.593	16.16
602.787	16.19
602.981	16.14
603.175	16.13
603.369	16.07
603.563	16.08
603.757	16.03
603.951	16.04
604.145	15.94
604.339	16
604.533	16.03
604.727	15.99
604.921	15.9
605.115	15.84
605.309	15.76
605.502	15.72
605.696	15.74
605.89	15.84
606.084	15.93
606.278	15.96
606.471	15.86
606.665	15.81
606.859	15.67
607.053	15.68
607.246	15.6
607.44	15.6
607.634	15.64
607.827	15.59
608.021	15.5
608.214	15.51
608.408	15.42
608.602	15.38
608.795	15.41
608.989	15.34
609.182	15.16
609.376	15.13
609.569	14.99
609.763	14.88
609.956	14.86
610.15	14.89
610.343	14.92
610.537	14.87
610.73	14.82
610.923	14.8
611.117	14.77
611.31	14.63
611.504	14.58
611.697	14.56
611.89	14.4
612.083	14.25
612.277	14.1
612.47	14.03
612.663	14.02
612.856	14.04
613.05	14
613.243	14.05
613.436	13.95
613.629	13.86
613.822	13.79
614.015	13.82
614.209	13.79
614.402	13.84
614.595	13.78
614.788	13.71
614.981	13.68
615.174	13.54
615.367	13.49
615.56	13.46
615.753	13.51
615.946	13.41
616.139	13.4
616.332	13.26
616.525	13.2
616.718	13.1
616.911	13.13
617.103	13.08
617.296	13.04
617.489	13.01
617.682	13
617.875	12.87
618.067	12.87
618.26	12.91
618.453	12.81
618.646	12.7
618.838	12.59
619.031	12.41
619.224	12.42
619.417	12.46
619.609	12.42
619.802	12.49
619.994	12.52
620.187	12.39
620.38	12.39
620.572	12.35
620.765	12.27
620.957	12.38
621.15	12.43
621.342	12.35
621.535	12.25
621.727	12.2
621.92	12.13
622.112	12.04
622.305	12.05
622.497	12.17
622.69	12.21
622.882	12.13
623.074	12.07
623.267	12.03
623.459	12.02
623.651	12.09
623.844	12.13
624.036	12.18
624.228	12.21
624.42	12.19
624.613	12.07
624.805	12.01
624.997	11.99
625.189	12.01
625.381	11.98
625.574	12.04
625.766	12.03
625.958	12
626.15	11.89
626.342	11.89
626.534	11.79
626.726	11.77
626.918	11.73
627.11	11.69
627.302	11.59
627.494	11.58
627.686	11.53
627.878	11.5
628.07	11.48
628.262	11.52
628.454	11.45
628.646	11.46
628.838	11.47
629.029	11.46
629.221	11.33
629.413	11.35
629.605	11.28
629.797	11.23
629.989	11.26
630.18	11.22
630.372	11.15
630.564	11.17
630.755	11.14
630.947	11.11
631.139	11.22
631.33	11.25
631.522	11.23
631.714	11.16
631.905	11.13
632.097	11.01
632.289	11.01
632.48	11
632.672	11.03
632.863	11.05
633.055	11
633.246	10.99
633.438	10.95
633.629	10.94
633.821	10.91
634.012	10.96
634.203	10.9
634.395	10.87
634.586	10.88
634.777	10.85
634.969	10.86
635.16	10.89
635.351	10.93
635.543	10.94
635.734	10.9
635.925	10.96
636.117	10.97
636.308	10.99
636.499	10.98
636.69	11.06
636.881	11.05
637.073	11
637.264	10.94
637.455	10.9
637.646	10.83
637.837	10.87
638.028	10.87
638.219	10.95
638.41	10.98
638.601	10.95
638.792	10.9
638.983	10.97
639.174	10.92
639.365	10.87
639.556	10.96
639.747	10.92
639.938	10.85
640.129	10.87
640.32	10.94
640.511	10.88
640.701	10.81
640.892	10.85
641.083	10.72
641.274	10.68
641.465	10.63
641.655	10.68
641.846	10.67
642.037	10.72
642.228	10.59
642.418	10.59
642.609	10.55
642.8	10.48
642.99	10.49
643.181	10.52
643.372	10.49
643.562	10.53
643.753	10.47
643.943	10.45
644.134	10.55
644.324	10.58
644.515	10.57
644.705	10.57
644.896	10.59
645.086	10.57
645.277	10.52
645.467	10.43
645.658	10.49
645.848	10.44
646.038	10.37
646.229	10.4
646.419	10.43
646.61	10.45
646.8	10.53
646.99	10.61
647.18	10.53
647.371	10.41
647.561	10.39
647.751	10.35
647.941	10.36
648.132	10.46
648.322	10.54
648.512	10.5
648.702	10.46
648.892	10.31
649.082	10.24
649.272	10.22
649.462	10.23
649.653	10.22
649.843	10.3
650.033	10.24
650.223	10.25
650.413	10.24
650.603	10.18
650.793	10.08
650.983	10.17
651.172	10.11
651.362	10.02
651.552	10.05
651.742	10.08
651.932	10.03
652.122	10.05
652.312	9.99
652.502	9.88
652.691	9.75
652.881	9.67
653.071	9.6
653.261	9.51
653.45	9.39
653.64	9.32
653.83	9.35
654.019	9.22
654.209	9.2
654.399	9.25
654.588	9.15
654.778	9
654.968	8.96
655.157	8.91
655.347	8.79
655.536	8.71
655.726	8.55
655.915	8.5
656.105	8.39
656.294	8.28
656.484	8.25
656.673	8.38
656.863	8.23
657.052	8.17
657.241	8.2
657.431	8.08
657.62	7.87
657.809	7.8
657.999	7.76
658.188	7.75
658.377	7.67
658.567	7.53
658.756	7.41
658.945	7.34
659.134	7.13
659.324	7.1
659.513	7.05
659.702	7
659.891	6.88
660.08	6.83
660.269	6.75
660.458	6.69
660.648	6.63
660.837	6.6
661.026	6.45
661.215	6.4
661.404	6.35
661.593	6.24
661.782	6.09
661.971	6.06
662.16	5.95
662.349	5.89
662.538	5.92
662.726	5.87
662.915	5.92
663.104	5.89
663.293	5.82
663.482	5.66
663.671	5.68
663.86	5.58
664.048	5.54
664.237	5.49
664.426	5.54
664.615	5.4
664.803	5.33
664.992	5.29
665.181	5.3
665.369	5.24
665.558	5.2
665.747	5.19
665.935	5.16
666.124	5.16
666.312	5.09
666.501	5.18
666.69	5.2
666.878	5.23
667.067	5.14
667.255	5.09
667.444	4.83
667.632	4.7
667.82	4.54
668.009	4.58
668.197	4.73
668.386	4.83
668.574	4.86
668.762	5.01
668.951	4.96
669.139	4.91
669.327	5.14
669.516	5.1
669.704	5.11
669.892	5.17
670.08	5.17
670.269	5.1
670.457	5.2
670.645	5.16
670.833	5.08
671.021	5.07
671.21	5.12
671.398	5.06
671.586	5.09
671.774	5.19
671.962	5.33
672.15	5.32
672.338	5.5
672.526	5.56
672.714	5.66
672.902	5.58
673.09	5.53
673.278	5.36
673.466	5.38
673.654	5.26
673.842	5.41
674.03	5.49
674.218	5.7
674.405	5.79
674.593	6.03
674.781	5.91
674.969	5.87
675.157	5.75
675.344	5.75
675.532	5.6
675.72	5.67
675.908	5.79
676.095	6.02
676.283	6.01
676.471	5.98
676.658	6.12
676.846	6.17
677.033	6.12
677.221	6.26
677.409	6.41
677.596	6.5
677.784	6.53
677.971	6.52
678.159	6.49
678.346	6.49
678.534	6.4
678.721	6.27
678.909	6.36
679.096	6.47
679.283	6.56
679.471	6.69
679.658	6.93
679.846	7.03
680.033	6.98
680.22	7.03
680.408	7.04
680.595	7.04
680.782	7.09
680.969	7.18
681.157	7.25
681.344	7.19
681.531	7.2
681.718	7.24
681.905	7.23
682.093	7.19
682.28	7.31
682.467	7.46
682.654	7.38
682.841	7.57
683.028	7.67
683.215	7.74
683.402	7.76
683.589	7.91
683.776	7.97
683.963	8.06
684.15	8.11
684.337	8.29
684.524	8.39
684.711	8.4
684.898	8.62
685.085	8.73
685.271	8.77
685.458	8.89
685.645	9.07
685.832	9.21
686.019	9.45
686.205	9.6
686.392	9.82
686.579	10.02
686.766	10
686.952	10.1
687.139	10.23
687.326	10.46
687.512	10.5
687.699	10.78
687.886	10.93
688.072	11.16
688.259	11.4
688.445	11.71
688.632	12.05
688.818	12.38
689.005	12.76
689.191	12.94
689.378	13.34
689.564	13.56
689.751	14.08
689.937	14.4
690.124	14.74
690.31	15.06
690.496	15.39
690.683	15.51
690.869	15.75
691.055	16.14
691.242	16.43
691.428	16.83
691.614	17.26
691.8	17.72
691.987	18.04
692.173	18.42
692.359	18.93
692.545	19.36
692.731	19.83
692.918	20.24
693.104	20.75
693.29	21.08
693.476	21.54
693.662	21.92
693.848	22.57
694.034	23.14
694.22	23.83
694.406	24.29
694.592	24.94
694.778	25.45
694.964	25.88
695.15	26.27
695.336	26.84
695.522	27.17
695.708	27.57
695.894	28.04
696.08	28.56
696.265	29.1
696.451	29.72
696.637	30.29
696.823	30.92
697.009	31.53
697.194	32.01
697.38	32.57
697.566	33.37
697.751	33.99
697.937	34.42
698.123	35.1
698.308	35.6
698.494	35.83
698.68	36.1
698.865	36.53
699.051	36.8
699.236	37.4
699.422	38.21
699.607	39.03
699.793	39.53
699.978	40.28
700.164	40.92
700.349	40.96
700.535	41.36
700.72	41.83
700.906	42.16
701.091	42.44
701.276	43.02
701.462	43.33
701.647	44.07
701.832	44.5
702.018	44.86
702.203	45.47
702.388	46.06
702.573	46.41
702.759	46.59
702.944	47.17
703.129	47.44
703.314	47.82
703.499	48.01
703.684	48.82
703.87	48.92
704.055	49.12
704.24	49.29
704.425	49.93
704.61	50.51
704.795	51.29
704.98	51.99
705.165	52.59
705.35	53.14
705.535	53.07
705.72	53.22
705.905	53.58
706.09	53.72
706.275	53.91
706.459	54.45
706.644	54.9
706.829	54.88
707.014	55.51
707.199	55.52
707.384	55.64
707.568	55.42
707.753	55.48
707.938	55.43
708.123	55.71
708.307	56.21
708.492	56.79
708.677	57.31
708.861	57.53
709.046	57.9
709.231	58.06
709.415	58.12
709.6	58.24
709.784	58.67
709.969	58.57
710.153	58.81
710.338	59.48
710.522	60.34
710.707	60.17
710.891	60.36
711.076	60.37
711.26	60.48
711.445	60.01
711.629	60.37
711.813	60.81
711.998	60.88
712.182	60.95
712.366	61.02
712.551	60.95
712.735	61.05
712.919	61.01
713.103	60.92
713.288	61.72
713.472	61.93
713.656	61.46
713.84	61.86
714.024	61.83
714.208	61.65
714.393	62.18
714.577	63.16
714.761	63.25
714.945	63.43
715.129	63.57
715.313	63.39
715.497	63.54
715.681	63.14
715.865	63.66
716.049	63.53
716.233	63.99
716.417	63.86
716.601	64.42
716.785	64.46
716.968	64.7
717.152	64.6
717.336	64.84
717.52	65.32
717.704	65.26
717.888	65.41
718.071	65.08
718.255	64.83
718.439	64.52
718.622	64.41
718.806	64.1
718.99	64.86
719.174	65.16
719.357	65.41
719.541	65.78
719.724	66.11
719.908	66.18
720.092	66.46
720.275	66.45
720.459	66.5
720.642	66.89
720.826	67.05
721.009	67.04
721.193	67.44
721.376	67.73
721.559	67.74
721.743	67.57
721.926	67.74
722.11	67.71
722.293	67.77
722.476	68.01
722.66	67.81
722.843	67.53
723.026	68.1
723.21	68.53
723.393	68.34
723.576	68.54
723.759	69
723.942	68.45
724.126	68.12
724.309	68.34
724.492	68.92
724.675	68.98
724.858	69.12
725.041	68.84
725.224	69.26
725.407	68.95
725.59	69.49
725.774	69.68
725.957	70.56
726.14	70.11
726.322	69.94
726.505	69.59
726.688	70.31
726.871	69.96
727.054	70.6
727.237	70.98
727.42	70.84
727.603	70.25
727.786	70.35
727.968	70.35
728.151	71.04
728.334	71.33
728.517	71.74
728.699	71.53
728.882	71.97
729.065	71.55
729.248	71.37
729.43	71.08
729.613	71.47
729.796	70.94
729.978	70.9
730.161	70.93
730.343	71.43
730.526	71.64
730.708	72.09
730.891	73
731.073	73.47
731.256	72.75
731.438	73.31
731.621	72.65
731.803	71.92
731.986	72.08
732.168	73.22
732.35	73.25
732.533	74.51
732.715	75.24
732.898	75.02
733.08	75.12
733.262	74.67
733.444	74.07
733.627	74.06
733.809	74.31
733.991	73.73
734.173	74.32
734.355	74.37
734.538	74.79
734.72	74.93
734.902	74.93
735.084	74.28
735.266	73.68
735.448	73.87
735.63	74.58
735.812	75.03
735.994	74.92
736.176	75.3
736.358	73.58
736.54	72.52
736.722	72.45
736.904	72.79
737.086	72.98
737.268	73.53
737.45	75.02
737.632	75.44
737.814	76.18
737.995	75.81
738.177	76.69
738.359	76.74
738.541	76.69
738.723	75.78
738.904	76.84
739.086	76.74
739.268	75.64
739.449	76.01
739.631	76.17
739.813	76.01
739.994	76.45
740.176	76.55
740.358	76.13
740.539	76.05
740.721	76.8
740.902	76.62
741.084	76.2
741.265	76.97
741.447	77.37
741.628	76.51
741.81	76.18
741.991	77.17
742.172	75.46
742.354	75.46
742.535	76.45
742.717	76.33
742.898	77.07
743.079	78.23
743.261	78.64
743.442	78.05
743.623	78.22
743.804	77.09
743.986	77.19
744.167	76.93
744.348	77.97
744.529	77.46
744.71	77.49
744.891	77.12
745.073	77.69
745.254	76.98
745.435	78.03
745.616	78.45
745.797	79.14
745.978	79.29
746.159	79.83
746.34	79.36
746.521	79.13
746.702	79.28
746.883	78.92
747.064	79.23
747.245	79.43
747.426	79.92
747.606	78.68
747.787	78.11
747.968	76.36
748.149	76.44
748.33	76.12
748.51	76.66
748.691	77.4
748.872	77.86
749.053	79.1
749.233	80.45
749.414	80.39
749.595	79.27
749.775	80.37
749.956	80.08
750.137	78.44
750.317	78.05
750.498	78.63
750.678	77.89
750.859	76.85
751.04	77.1
751.22	78.93
751.4	78.79
751.581	79.24
751.761	78.69
751.942	78.5
752.122	77.35
752.303	78.47
752.483	79
752.663	79.65
752.844	80.42
753.024	81.59
753.204	82.07
753.385	81.08
753.565	80.91
753.745	80.14
753.925	78.18
754.106	77.49
754.286	76.7
754.466	76.79
754.646	78.48
754.826	78.92
755.006	77.63
755.187	78.2
755.367	77.61
755.547	77.2
755.727	77.23
755.907	78.9
756.087	77.28
756.267	77.6
756.447	77.04
756.627	77.3
756.807	77.14
756.987	80.2
757.167	80.77
757.346	79.93
757.526	80.46
757.706	79.96
757.886	79.69
758.066	79.28
758.246	80.06
758.425	81.08
758.605	80.85
758.785	80.44
758.965	80.08
759.144	80.27
759.324	79.43
759.504	79.26
759.683	79.54
759.863	80.65
760.043	80.43
760.222	80.44
760.402	80.5
760.581	78.77
760.761	78
760.94	78.34
761.12	77.55
761.299	77.56
761.479	78.62
761.658	79.06
761.838	79.31
762.017	79.44
762.197	79.38
762.376	80.26
762.555	79.45
762.735	77.47
762.914	78.17
763.093	78.03
763.273	77.42
763.452	77.75
763.631	78.03
763.81	78.83
763.99	79.35
764.169	79.56
764.348	79.57
764.527	80.95
764.706	79.06
764.885	78.6
765.064	76.65
765.243	76.82
765.423	75.71
765.602	75.8
765.781	75.87
765.96	77.75
766.139	77.96
766.318	78.47
766.497	77.36
766.676	78.15
766.854	76.78
767.033	76.24
767.212	75.31
767.391	76.76
767.57	75.37
767.749	76
767.928	75.7
768.106	76.56
768.285	76.75
768.464	77.51
768.643	77.07
768.821	75.32
769	73.16
769.179	74.41
769.357	76.65
769.536	77.88
769.715	78.26
769.893	79.64
770.072	77.87
770.25	75.23
770.429	74.08
770.607	74.29
770.786	74.77
770.964	73.54
771.143	73.08
771.321	71.37
771.5	71.88
771.678	71.57
771.857	72.23
772.035	71.97
772.213	73.35
772.392	73.86
772.57	72.55
772.748	72.37
772.927	74.63
773.105	73.69
773.283	73.73
773.461	75.07
773.64	76.13
773.818	76.21
773.996	77.18
774.174	76.37
774.352	74.89
774.531	75.07
774.709	73.08
774.887	72.92
775.065	76.52
775.243	79.81
775.421	78.08
775.599	78.35
775.777	79.77
775.955	76.26
776.133	76.58
776.311	76.62
776.489	79.19
776.667	78.37
776.844	79.52
777.022	79.23
777.2	79.64
777.378	78.52
777.556	78.18
777.734	75.8
777.911	73.73
778.089	73.78
778.267	72.37
778.445	73.4
778.622	74.37
778.8	73.79
778.978	71.09
779.155	70.6
779.333	71.21
779.511	70.54
779.688	70.35
779.866	74.17
780.043	77.08
780.221	74.49
780.398	76.21
780.576	75.58
780.753	75.04
780.931	72.19
781.108	72.76
781.286	72.15
781.463	75.06
781.64	73.5
781.818	73.44
781.995	73.48
782.172	74.28
782.35	75.31
782.527	75.95
782.704	76.68
782.882	77.15
783.059	76.54
783.236	73
783.413	72.27
783.59	74.58
783.768	77.87
783.945	75.22
784.122	77.93
784.299	78.82
784.476	75.78
784.653	75.45
784.83	78.89
785.007	81.05
785.184	84.44
785.361	84.88
785.538	80.43
785.715	81.38
785.892	77.32
786.069	74.41
786.246	72.6
786.423	73.86
786.6	72.31
786.776	74.57
786.953	74.31
787.13	77.19
787.307	75.45
787.484	75.36
787.66	74.15
787.837	74.81
788.014	75.59
788.191	76.44
788.367	76.13
788.544	73.82
788.721	71.62
788.897	68.54
789.074	68.94
789.25	69.99
789.427	70.93
789.603	72.1
789.78	74.33
789.956	71.99
790.133	71.66
790.309	71.73
790.486	69.56
790.662	70.21
790.839	71.64
791.015	69.31
791.192	67.62
791.368	68.18
791.544	67.21
791.721	67.59
791.897	68.48
792.073	71.23
792.249	75.59
792.426	76.77
792.602	74.38
792.778	77.05
792.954	78.06
793.13	78.74
793.307	78.22
793.483	83.95
793.659	83.41
793.835	84.63
794.011	80.86
794.187	79.11
794.363	78.82
794.539	80.03
794.715	82.42
794.891	81.53
795.067	84.04
795.243	81.9
795.419	78.11
795.595	74.64
795.771	76.98
795.947	71.34
796.122	72.71
796.298	73.08
796.474	71.24
796.65	71.65
796.826	73.62
797.001	70.37
797.177	73.09
797.353	72.67
797.529	70.94
797.704	73.32
797.88	76.24
798.056	75.65
798.231	75.21
798.407	73.56
798.582	72.6
798.758	72.85
798.934	71.19
799.109	73.08
799.285	75.56
799.46	74.46
799.636	76.71
799.811	80.53
799.986	80.3
800.162	83.87
800.337	86.53
800.513	87.2
800.688	84.81
800.863	84.3
801.039	80.33
801.214	80.15
801.389	78.36
801.565	80.11
801.74	80.75
801.915	74.61
802.09	74.88
802.265	70.84
802.441	67.72
802.616	67.18
802.791	73.57
802.966	76.25
803.141	83.25
803.316	88.47
803.491	91.02
803.666	91.05
803.841	95.6
804.016	86.99
804.191	82.4
804.366	82.18
804.541	84.35
804.716	78.5
804.891	77.87
805.066	75.08
805.241	74.89
805.416	72.04
805.591	68.09
805.765	71.4
805.94	74.83
806.115	76.31
806.29	74.07
806.464	79.85
806.639	80.8
806.814	81.66
806.989	82.52
807.163	83.36
807.338	80.81
807.512	80.02
807.687	78.9
807.862	73.27
808.036	68.51
808.211	69.14
808.385	68.32
808.56	56.99
808.734	56.34
808.909	66.62
809.083	66.97
809.258	62.55
809.432	71.54
809.606	73.9
809.781	74.46
809.955	69.59
810.13	69.82
810.304	71.87
810.478	71.7
810.652	60.39
810.827	62.28
811.001	65.47
811.175	63.85
811.349	62.98
811.524	65.91
811.698	63.03
811.872	61.26
812.046	66.34
812.22	63.63
812.394	73.05
812.568	89.67
812.742	94.4
812.916	86.21
813.09	85.64
813.264	87.95
813.438	85.26
813.612	85.68
813.786	87.9
813.96	88.76
814.134	86.54
814.308	78.13
814.482	68.29
814.656	67.44
814.83	73.2
815.003	71.28
815.177	74.25
815.351	89.91
815.525	83.86
815.698	79.52
815.872	79.51
816.046	78.95
816.219	74.17
816.393	70.75
816.567	75.08
816.74	75.69
816.914	68.38
817.088	72.04
817.261	79.89
817.435	76.35
817.608	69.71
817.782	75.27
817.955	74.1
818.129	80.69
818.302	67.8
818.475	71.44
818.649	73.15
818.822	66.01
818.996	49.43
819.169	63.49
819.342	66.21
819.516	73.12
819.689	65.96
819.862	79.54
820.035	77.56
820.209	70.84
820.382	63.43
820.555	76.88
820.728	64.4
820.901	74.24
821.075	90.67
821.248	85.49
821.421	84.55
821.594	96.02
821.767	91.55
821.94	58.03
822.113	71.83
822.286	71.91
822.459	59.66
822.632	59.03
822.805	68.69
822.978	65.28
823.151	61.47
823.324	78.33
823.496	81.62
823.669	77.17
823.842	76.8
824.015	87.34
824.188	74.46
824.361	72.24
824.533	80.85
824.706	76.63
824.879	72.47
825.051	63.12
825.224	67.97
825.397	66.79
825.569	66.07
825.742	64.6
825.915	71.48
826.087	65.2
826.26	71.06
826.432	76.33
826.605	80.26
826.777	80.54
826.95	84.6
827.122	76.4
827.295	74.55
827.467	77
827.64	70.42
827.812	72.25
827.984	64.46
828.157	61.31
828.329	64.4
828.501	76.82
828.674	59.61
828.846	81.38
829.018	69.12
829.19	57.52
829.363	40.68
829.535	48.2
829.707	43.42
829.879	58.97
830.051	58.34
830.223	75.81
830.395	87.27
830.568	80.95
830.74	78.49
830.912	85.88
831.084	71.5
831.256	72.07
831.428	66.17
831.6	78.4
831.772	85.27
831.943	90
832.115	87.17
832.287	87.37
832.459	81.76
832.631	89.6
832.803	81.94
832.975	89.8
833.146	103.25
833.318	123.95
833.49	93.81
833.662	90.9
833.833	74.87
834.005	66.63
834.177	55.56
834.348	62.74
834.52	63.33
834.692	69.05
834.863	93.2
835.035	75.67
835.206	80.39
835.378	91.86
835.549	97.63
835.721	73.66
835.892	86.77
836.064	69.75
836.235	54.78
836.407	59.41
836.578	72.89
836.749	72.4
836.921	65.44
837.092	68.57
837.264	84.46
837.435	75.66
837.606	65.68
837.777	53.56
837.949	56.78
838.12	38.28
838.291	29.75
838.462	50.23
838.633	62.47
838.805	69.05
838.976	70.97
839.147	75.84
839.318	98.58
839.489	114.36
839.66	97.5
839.831	68.92
840.002	75.54
840.173	71.09
840.344	72
840.515	63.84
840.686	77.73
840.857	76.42
841.028	80.15
841.199	69.86
841.369	90.42
841.54	95.13
841.711	107.67
841.882	104.35
842.053	118.47
842.223	114.29
842.394	101.39
842.565	97.49
842.736	97.05
842.906	74.61
843.077	56.69
843.248	58.81
843.418	50.85
843.589	50
843.759	47.96
843.93	54.17
844.101	62.44
844.271	75.93
844.442	63.93
844.612	25.1
844.783	66.69
844.953	82.81
845.123	60.79
845.294	36.89
845.464	80.75
845.635	76.79
845.805	76.94
845.975	105.47
846.146	108.57
846.316	125.87
846.486	119.99
846.656	95.65
846.827	93.3
846.997	99.21
847.167	69.52
847.337	70.29
847.507	78.58
847.677	76.91
847.848	78.75
848.018	106.16
848.188	123.55
848.358	125.35
848.528	107.32
848.698	111.63
848.868	102.69
849.038	83.72
849.208	71.51
849.378	70.92
849.548	62.44
849.718	70.1
849.887	74.82
850.057	121.94
850.227	139.85
850.397	127.34
850.567	123.98
850.737	115.66
850.906	83.03
851.076	67.17
851.246	46.66
851.415	55.81
851.585	64.71
851.755	110.54
851.924	134.81
852.094	115.73
852.264	128.93
852.433	131.5
852.603	80.08
852.772	66.69
852.942	81.21
853.111	53.7
853.281	57.93
853.45	58.41
853.62	58.78
853.789	63.02
853.959	62.79
854.128	78.95
854.297	117.45
854.467	114.61
854.636	113.33
854.805	100.67
854.975	44.31
855.144	-12.67
855.313	-35.86
855.482	39.5
855.652	72.51
855.821	79.26
855.99	85.29
856.159	82.08
856.328	79.65
856.497	87.24
856.667	115.13
856.836	81.1
857.005	84.09
857.174	88.52
857.343	70.55
857.512	60.96
857.681	98.6
857.85	104.8
858.019	124.07
858.188	222.86
858.356	189.53
858.525	183.33
858.694	522.85
858.863	340.84
859.032	192.71
859.201	241.03
859.369	177.43
859.538	76.5
859.707	52.6
859.876	45.32
860.044	54.95
860.213	57.32
860.382	79.18
860.55	76.47
860.719	75.22
860.888	59.27
861.056	56.97
861.225	37.7
861.393	45.89
861.562	33.74
861.73	42.24
861.899	75.84
862.067	90.27
862.236	92.38
862.404	108.57
862.572	122.23
862.741	75.48
862.909	87.85
863.078	95.81
863.246	109.16
863.414	72.39
863.582	76.09
863.751	66.06
863.919	70.65
864.087	46.49
864.255	67.19
864.424	99.39
864.592	112.2
864.76	138.4
864.928	122.14
865.096	128.35
865.264	84.12
865.432	74.23
865.6	25.8
865.768	43.44
865.936	62.73
866.104	95.56
866.272	120.49
866.44	149.86
866.608	135.18
866.776	137.58
866.944	134.22
867.112	98.72
867.28	110.12
867.448	92.34
867.615	60.38
867.783	46.85
867.951	44.71
868.119	6.68
868.286	28.54
868.454	70.11
868.622	81.27
868.789	111.38
868.957	138.14
869.125	149.29
869.292	117.18
869.46	120.6
869.627	126.01
869.795	109.31
869.963	96.37
870.13	79.93
870.298	88.29
870.465	90.96
870.632	111.5
870.8	128.88
870.967	147.46
871.135	123.15
871.302	90.54
871.469	63.21
871.637	47.52
871.804	40.63
871.971	58.98
872.139	65.34
872.306	48.48
872.473	76.5
872.64	73.16
872.807	36.61
872.975	39.59
873.142	103.56
873.309	113.62
873.476	107.14
873.643	89
873.81	103.42
873.977	29.93
874.144	1.01
874.311	51.62
874.478	78.93
874.645	101.35
874.812	99.22
874.979	104.56
875.146	120.83
875.313	130.7
875.48	71.21
875.647	107.36
875.813	109.94
875.98	107.19
876.147	102.22
876.314	126.34
876.481	137.3
876.647	222.73
876.814	140.78
876.981	-251.75
877.147	-372.03
877.314	152.26
877.481	129.75
877.647	112.04
877.814	113.69
877.98	111.26
878.147	77.03
878.314	20.33
878.48	70.79
878.647	34.71
878.813	-18.63
878.979	-24.42
879.146	17.44
879.312	6.68
879.479	31.13
879.645	53.52
879.811	105.46
879.978	139.39
880.144	126.72
880.31	223.22
880.477	150.53
880.643	99.26
880.809	60.22
880.975	93.82
881.142	55.41
881.308	54.46
881.474	67.16
881.64	79.31
881.806	96.45
881.972	83.58
882.138	71.77
882.304	-31.03
882.47	70.39
882.636	-117.09
882.802	-74.21
882.968	24.72
883.134	112.57
883.3	93.21
883.466	70.6
883.632	60.59
883.798	60.79
883.964	59.81
884.129	46.71
884.295	58.58
884.461	75.94
884.627	92.59
884.793	95.51
884.958	92.49
885.124	135.47
885.29	135.77
885.455	142.87
885.621	165.74
885.787	305.76
885.952	581.68
886.118	595.45
886.283	330.28
886.449	356.11
886.614	233.07
886.78	178.43
886.945	214.83
887.111	610
887.276	-2727.78
887.442	-661.43
887.607	202.67
887.773	141.99
887.938	93.88
888.103	75.68
888.269	59.82
888.434	65.06
888.599	41.4
888.764	23.63
888.93	86.32
889.095	106.35
889.26	134.73
889.425	-5192.86
889.59	-862
889.756	270.57
889.921	903.85
890.086	504.93
890.251	-142.99
890.416	6.27
890.581	-80.71
890.746	-4.03
890.911	36.99
891.076	25.62
891.241	44.4
891.406	36
891.571	15.88
891.736	52.21
891.901	51.9
892.065	35.07
892.23	-57.1
892.395	105.41
892.56	87.86
892.725	13.16
892.889	43.8
893.054	125.23
893.219	127.46
893.384	180.45
893.548	302.05
893.713	325.86
893.878	398.84
