Data from Ofav_PP_Phys_2AZ2_Reflection_1.txt Node
Date: Tue Aug 03 18:07:33 EDT 2021
User: Adam
Spectrometer: FLMT01687
Trigger mode: 0
Integration Time (sec): 8.750000E-1
Scans to average: 2
Electric dark correction enabled: true
Nonlinearity correction enabled: false
Boxcar width: 2
XAxis mode: Wavelengths
Number of Pixels in Spectrum: 3648
>>>>>Begin Spectral Data<<<<<
179.494	160.96
179.716	153.37
179.937	181.55
180.158	207.35
180.38	449.12
180.601	76.8
180.823	112.14
181.044	48.22
181.265	65.47
181.486	72.64
181.708	67.68
181.929	72.68
182.15	-23.15
182.372	31.22
182.593	82.7
182.814	-40.29
183.035	533.33
183.257	1839.22
183.478	-30.91
183.699	-133.33
183.92	14.59
184.141	-13.46
184.363	0.4
184.584	-48.51
184.805	7.56
185.026	-36.11
185.247	-20.77
185.468	-7.83
185.689	5.16
185.91	15.61
186.132	16.37
186.353	38.64
186.574	18.47
186.795	4.06
187.016	7.3
187.237	33.69
187.458	30.18
187.679	37.06
187.9	27.18
188.121	30.71
188.342	13.96
188.563	25.06
188.784	16.88
189.005	23.78
189.226	-3.22
189.447	9.96
189.667	-26.11
189.888	-28.01
190.109	-39.43
190.33	-34.27
190.551	-34.6
190.772	-26.94
190.993	-26.05
191.214	-8.92
191.434	-1.54
191.655	-3.23
191.876	6.46
192.097	26.14
192.318	32.8
192.538	33.12
192.759	17.54
192.98	17.28
193.201	-6.39
193.421	-11.15
193.642	-26.98
193.863	24.66
194.083	37.53
194.304	43.89
194.525	34.53
194.745	29.65
194.966	9.39
195.187	34.13
195.407	49.16
195.628	51.74
195.848	54.5
196.069	57.85
196.29	16.53
196.51	-14.22
196.731	8.06
196.951	4.89
197.172	27.83
197.392	28
197.613	45.13
197.833	23.97
198.054	44.22
198.274	10.08
198.495	14.84
198.715	1.84
198.936	6.48
199.156	9.48
199.377	14.34
199.597	21.6
199.817	31.7
200.038	20.05
200.258	17.05
200.479	-36.27
200.699	-21.95
200.919	-55.48
201.14	-0.91
201.36	-1.74
201.58	17.56
201.801	-11.92
202.021	12.16
202.241	5.42
202.461	-2.1
202.682	-4.59
202.902	13.44
203.122	7.12
203.342	0.88
203.563	-4.42
203.783	-16.64
204.003	-6.56
204.223	-1.35
204.443	-10.1
204.663	-9.49
204.884	4.51
205.104	-14.95
205.324	-24.26
205.544	-65.47
205.764	-42.35
205.984	-107.66
206.204	-67.52
206.424	-127.92
206.644	-11.57
206.864	-26.29
207.084	-1.89
207.304	-14.59
207.525	18.78
207.745	6.79
207.964	-9.02
208.184	13.23
208.404	17.96
208.624	7.09
208.844	7.73
209.064	19.95
209.284	20.72
209.504	26.14
209.724	18.23
209.944	1.77
210.164	-25.95
210.384	-34.95
210.604	-43.44
210.823	-49.68
211.043	-6.25
211.263	15.97
211.483	23.1
211.703	20.36
211.922	6
212.142	-2.13
212.362	-6.13
212.582	11.85
212.801	19.6
213.021	28.99
213.241	49.34
213.461	49.31
213.68	28.06
213.9	4.29
214.12	-6.23
214.339	-2.89
214.559	9.83
214.779	16.49
214.998	23.8
215.218	43.96
215.438	35.39
215.657	27.74
215.877	28.24
216.096	17.59
216.316	-3.5
216.535	-9.22
216.755	-47.31
216.974	-30.49
217.194	-10.1
217.413	29.21
217.633	32.95
217.852	54.69
218.072	58.83
218.291	47.04
218.511	22.77
218.73	28.27
218.95	13.17
219.169	12.59
219.389	16
219.608	19.87
219.827	0.91
220.047	-18.41
220.266	-11.4
220.485	2.58
220.705	1.08
220.924	13.97
221.143	18.36
221.363	21.56
221.582	12
221.801	-4.03
222.021	-6.48
222.24	22.28
222.459	-27.77
222.678	-28.26
222.897	-12.99
223.117	-50.56
223.336	-318.47
223.555	-113.97
223.774	-42.42
223.993	-37.28
224.213	-51.63
224.432	-22.04
224.651	7.07
224.87	5.49
225.089	17.89
225.308	19.08
225.527	13.87
225.746	-33.61
225.965	-21.2
226.184	-74.12
226.404	-10.52
226.623	4.76
226.842	25.83
227.061	-0.94
227.28	15.05
227.499	27.32
227.718	25.68
227.936	25.95
228.155	43.26
228.374	43.61
228.593	22.35
228.812	-1.63
229.031	-7.55
229.25	13.51
229.469	-26.03
229.688	-49.79
229.907	-52.54
230.125	-53.79
230.344	-84.68
230.563	-56.63
230.782	-23.97
231.001	0.96
231.22	1.9
231.438	2.12
231.657	-10.38
231.876	-14.98
232.095	-11.3
232.313	-19.58
232.532	-46.46
232.751	-6.68
232.969	-2.38
233.188	17.57
233.407	15.36
233.625	42.76
233.844	-2.4
234.063	-4.42
234.281	-25.05
234.5	-14.51
234.719	-37.26
234.937	11.1
235.156	-14.71
235.374	-19.14
235.593	-15.43
235.811	-15.47
236.03	-2.73
236.249	23.16
236.467	37.07
236.686	27.92
236.904	36.44
237.123	30.92
237.341	33.25
237.559	36.05
237.778	46.93
237.996	33.98
238.215	28.78
238.433	24.68
238.652	19.07
238.87	20.36
239.088	15.67
239.307	10.56
239.525	13.69
239.743	14.01
239.962	11.37
240.18	24.23
240.398	45.95
240.617	35.77
240.835	27.2
241.053	14.38
241.271	-18.79
241.49	-11.43
241.708	0.99
241.926	-2.78
242.144	6.25
242.363	16.74
242.581	18.05
242.799	19.8
243.017	22.77
243.235	37.75
243.453	44.13
243.672	38.27
243.89	37.23
244.108	46.57
244.326	27.34
244.544	21.94
244.762	26.59
244.98	9.93
245.198	12
245.416	23.38
245.634	35.45
245.852	26.37
246.07	12.07
246.288	-13.84
246.506	1.33
246.724	-16.16
246.942	-24.69
247.16	0.69
247.378	3
247.596	-4.39
247.814	-12.48
248.032	-2.13
248.25	-6.45
248.468	-12.01
248.685	-0.76
248.903	-20.05
249.121	-21.7
249.339	-17.85
249.557	-6.18
249.775	-26.94
249.992	-1.2
250.21	-13.66
250.428	-11.54
250.646	-21.27
250.863	-17.58
251.081	-18.04
251.299	-28.32
251.517	5.72
251.734	0.41
251.952	-23.7
252.17	-32.78
252.387	-57.5
252.605	-161.38
252.823	-89.52
253.04	-44.1
253.258	23.79
253.475	41.41
253.693	42.63
253.911	44.31
254.128	63.26
254.346	59.62
254.563	60.62
254.781	77.6
254.998	65.11
255.216	54.51
255.433	35
255.651	26.25
255.868	-12.22
256.086	-27.41
256.303	-16.54
256.521	12.13
256.738	17.37
256.956	24.96
257.173	37.11
257.39	17.46
257.608	-1.01
257.825	-23.17
258.043	-66.79
258.26	-30.36
258.477	-20.05
258.695	-30.67
258.912	-26.97
259.129	6.76
259.346	5.71
259.564	27.73
259.781	40.01
259.998	58.49
260.216	48.26
260.433	35.37
260.65	6.82
260.867	0.14
261.084	-24.43
261.302	-35.06
261.519	-9.32
261.736	15.72
261.953	13.1
262.17	12.55
262.387	25.19
262.604	19.85
262.822	12.59
263.039	21.7
263.256	31.51
263.473	13.49
263.69	12.79
263.907	2.72
264.124	-19.58
264.341	-25.29
264.558	-44.7
264.775	-32.17
264.992	-27.78
265.209	-20.62
265.426	-45.59
265.643	-8.54
265.86	-8.47
266.077	2.58
266.294	-0.96
266.51	27.56
266.727	33.74
266.944	28.03
267.161	34.93
267.378	36.3
267.595	13.22
267.812	5.86
268.028	3.68
268.245	-6.05
268.462	7.26
268.679	10.41
268.896	-10.47
269.112	1.97
269.329	-11.19
269.546	-37.93
269.763	-12.2
269.979	-6.92
270.196	4.93
270.413	8.04
270.629	2.18
270.846	5.81
271.063	1.91
271.279	11.52
271.496	30.64
271.712	39.69
271.929	17.39
272.146	34.46
272.362	21.5
272.579	0.8
272.795	-9.87
273.012	4.93
273.228	4.48
273.445	-6.47
273.661	6.95
273.878	3.38
274.094	12.44
274.311	0.91
274.527	2.25
274.744	-6.93
274.96	0.19
275.177	-33.28
275.393	4.91
275.609	-7.67
275.826	-16.79
276.042	-12.96
276.259	0.51
276.475	-27.53
276.691	-16.62
276.908	-7.13
277.124	-1.14
277.34	-6.88
277.557	-4.57
277.773	-1.85
277.989	8.78
278.205	16.6
278.422	21
278.638	27.81
278.854	29.64
279.07	25.45
279.286	24.83
279.503	36.3
279.719	32.8
279.935	27.95
280.151	26.73
280.367	13.73
280.583	-17.29
280.799	-14.87
281.016	-10
281.232	-23.87
281.448	-13.43
281.664	-5.86
281.88	3.77
282.096	19.5
282.312	6.84
282.528	3.54
282.744	9.02
282.96	14.04
283.176	12.72
283.392	38.06
283.608	22.92
283.824	27
284.04	18.48
284.256	11.39
284.471	-5.17
284.687	6.53
284.903	7.58
285.119	-10.46
285.335	-4.6
285.551	14.86
285.767	21.41
285.982	1.8
286.198	23.97
286.414	11.5
286.63	0.61
286.846	-15.25
287.061	-8.31
287.277	-25.71
287.493	-1.89
287.709	-24.16
287.924	-8.77
288.14	-1.69
288.356	-4.35
288.571	-5.11
288.787	3.31
289.003	2.29
289.218	-11.64
289.434	10.31
289.65	-2.01
289.865	10.75
290.081	8.83
290.296	16.52
290.512	0.77
290.727	-3.82
290.943	9.47
291.159	26.45
291.374	28.19
291.59	38.64
291.805	50.43
292.021	62
292.236	49.32
292.451	43.67
292.667	40.26
292.882	29
293.098	-1.22
293.313	8.04
293.529	24.65
293.744	16.29
293.959	20.98
294.175	31.97
294.39	34.36
294.605	21.76
294.821	22.7
295.036	17.54
295.251	24.03
295.467	21.74
295.682	25.59
295.897	17.74
296.112	24.47
296.328	14.2
296.543	15.19
296.758	15.3
296.973	19.36
297.188	15.34
297.404	29.94
297.619	28.99
297.834	14.5
298.049	15.29
298.264	23.15
298.479	3.2
298.694	11.1
298.909	14.76
299.125	26.02
299.34	-0.25
299.555	8.09
299.77	-20.22
299.985	2.67
300.2	5.66
300.415	13.53
300.63	-8.46
300.845	9.16
301.06	-5.64
301.275	-36.98
301.49	0.97
301.704	28.67
301.919	36.65
302.134	49.59
302.349	47.17
302.564	43.47
302.779	35.9
302.994	30.94
303.209	22.67
303.423	41.59
303.638	48
303.853	51.31
304.068	51.23
304.283	54.2
304.497	45.53
304.712	39.35
304.927	44.65
305.142	49.76
305.356	40.72
305.571	35.47
305.786	23.23
306	15.05
306.215	4.07
306.43	20.14
306.644	3.59
306.859	-3.07
307.074	-5.46
307.288	0.49
307.503	0.67
307.717	5.75
307.932	7.91
308.147	6.75
308.361	4.99
308.576	6.3
308.79	28.08
309.005	26.17
309.219	28.11
309.434	15.64
309.648	8.48
309.863	-5.87
310.077	-3.22
310.292	-4.74
310.506	26.49
310.72	40.58
310.935	18.39
311.149	10.58
311.364	-7.02
311.578	-32.01
311.792	-40.97
312.007	-37.54
312.221	-6.86
312.435	-2.99
312.649	18.11
312.864	21.9
313.078	27.93
313.292	12.01
313.507	14.47
313.721	3.6
313.935	-25.26
314.149	-45.1
314.363	-28.41
314.578	-23.85
314.792	-16.51
315.006	-2.03
315.22	-0.3
315.434	-1.44
315.648	0.79
315.862	23.67
316.077	22.53
316.291	35.17
316.505	34.47
316.719	32.67
316.933	30.55
317.147	19.47
317.361	19.37
317.575	15.14
317.789	6.58
318.003	-6.84
318.217	1.53
318.431	10.16
318.645	-4.55
318.859	11.88
319.073	5.64
319.287	25.86
319.5	21.55
319.714	35.96
319.928	35.28
320.142	25.82
320.356	2.96
320.57	2.37
320.784	-2.71
320.997	8.57
321.211	33.75
321.425	43.49
321.639	43.43
321.853	27.09
322.066	11.4
322.28	-6.77
322.494	-34.23
322.707	-54.85
322.921	-32.75
323.135	-31.38
323.349	-32
323.562	-5.06
323.776	23.88
323.989	20.25
324.203	29.51
324.417	33.75
324.63	42.36
324.844	28.99
325.057	40.83
325.271	30.03
325.485	35.24
325.698	-11.15
325.912	-10.24
326.125	12.38
326.339	14.2
326.552	-11.17
326.766	34.55
326.979	29.1
327.193	16.92
327.406	20.55
327.619	33.19
327.833	-3
328.046	0.75
328.26	-11.27
328.473	-2.27
328.686	10.24
328.9	20.21
329.113	23.43
329.326	34.99
329.54	38.76
329.753	39.01
329.966	48.62
330.179	36.19
330.393	28.85
330.606	35.78
330.819	24.24
331.032	14.42
331.246	22.75
331.459	11.9
331.672	-16.06
331.885	-5.47
332.098	-7.92
332.311	17.41
332.525	29.18
332.738	41.28
332.951	33.1
333.164	20.29
333.377	11.63
333.59	8.34
333.803	-0.87
334.016	1.45
334.229	20.86
334.442	14.23
334.655	5.41
334.868	3.9
335.081	-1.94
335.294	-20.21
335.507	3.51
335.72	1.46
335.933	0.71
336.146	6.57
336.359	15.51
336.572	11.17
336.785	19.45
336.997	37.36
337.21	32.26
337.423	36.33
337.636	47.32
337.849	34.88
338.062	34.75
338.274	26.1
338.487	26.87
338.7	13.58
338.913	23.71
339.125	15.59
339.338	21.75
339.551	4.73
339.763	5.07
339.976	1.61
340.189	-4.49
340.402	-16.95
340.614	-11.74
340.827	-7.09
341.039	-3.18
341.252	-2.03
341.465	14.16
341.677	13.01
341.89	19.46
342.102	17.97
342.315	18.19
342.527	14.43
342.74	24.82
342.952	21.81
343.165	37.63
343.377	40.07
343.59	49.67
343.802	47.04
344.015	32.64
344.227	28.03
344.44	49.03
344.652	50.09
344.864	47.82
345.077	42.95
345.289	28.79
345.502	-14.93
345.714	-62.36
345.926	-45.64
346.139	-28.51
346.351	-20.94
346.563	0.15
346.775	23.48
346.988	27.11
347.2	18.62
347.412	18.15
347.624	12
347.837	8.03
348.049	8.46
348.261	-4.08
348.473	-4.39
348.685	18.42
348.897	30.34
349.11	21.39
349.322	18.28
349.534	14.53
349.746	2.4
349.958	-10.02
350.17	-2.65
350.382	-1.4
350.594	8.15
350.806	16.65
351.018	29.52
351.23	29.27
351.442	28.61
351.654	29.24
351.866	19.78
352.078	14.27
352.29	13.94
352.502	15.98
352.714	11.12
352.926	2.91
353.138	-17.6
353.35	-2.06
353.561	18.34
353.773	21.86
353.985	22.11
354.197	27.82
354.409	28.85
354.621	21.72
354.832	12.71
355.044	13.95
355.256	28.88
355.468	12.07
355.679	14.23
355.891	30.62
356.103	39.98
356.314	30.46
356.526	27.6
356.738	30.68
356.949	26.29
357.161	12.16
357.373	16.09
357.584	23.74
357.796	14.56
358.008	-13.27
358.219	-17.47
358.431	-14.76
358.642	-0.79
358.854	-30.77
359.065	-0.38
359.277	25.08
359.488	10.95
359.7	4.89
359.911	19.23
360.123	15.84
360.334	-14.31
360.546	-3.63
360.757	-15.2
360.969	-30.22
361.18	-13.3
361.391	9.79
361.603	12.45
361.814	8.83
362.025	28
362.237	29.58
362.448	29.92
362.659	11.67
362.871	15.1
363.082	1.77
363.293	-13.46
363.504	-15.65
363.716	3.46
363.927	11.67
364.138	15.2
364.349	24.26
364.56	17.38
364.772	25.83
364.983	6.7
365.194	15.34
365.405	16.12
365.616	13.03
365.827	12.11
366.038	19.9
366.25	12.86
366.461	15.67
366.672	32.86
366.883	18.76
367.094	23.13
367.305	27.72
367.516	17.72
367.727	7.78
367.938	16.51
368.149	4.81
368.36	-8.75
368.571	-4.63
368.781	-3.75
368.992	-5.02
369.203	19.99
369.414	28.17
369.625	15.83
369.836	9.56
370.047	1.63
370.258	-4.68
370.468	-1.1
370.679	17.72
370.89	28.06
371.101	36.98
371.312	27.81
371.522	23.83
371.733	16.76
371.944	18.24
372.155	14.48
372.365	6.11
372.576	17.54
372.787	21.42
372.997	18.42
373.208	13.97
373.419	15.57
373.629	8.38
373.84	5.47
374.05	3.34
374.261	13.44
374.472	26.82
374.682	23.64
374.893	22.51
375.103	18.46
375.314	9.49
375.524	-0.05
375.735	-1.06
375.945	5.14
376.156	14.95
376.366	12.2
376.577	14.22
376.787	19.57
376.997	18.39
377.208	14.77
377.418	13.36
377.629	8.04
377.839	8.56
378.049	7.95
378.26	1.06
378.47	7.57
378.68	9.14
378.89	8.98
379.101	3.31
379.311	3.19
379.521	6.54
379.732	9.1
379.942	11.75
380.152	22.27
380.362	27.22
380.572	30.62
380.783	27.65
380.993	18.16
381.203	11.17
381.413	8.06
381.623	-0.87
381.833	0.68
382.043	12.16
382.253	19.92
382.463	20.25
382.674	20.67
382.884	12.72
383.094	4.13
383.304	2.77
383.514	2.21
383.724	3.97
383.934	9.44
384.144	12.9
384.353	6.92
384.563	2.19
384.773	0.38
384.983	0.53
385.193	0.18
385.403	4.06
385.613	8.03
385.823	9.46
386.033	6.71
386.242	8.97
386.452	8.21
386.662	6.51
386.872	3.83
387.082	2.34
387.291	-1.11
387.501	-2.76
387.711	-5.27
387.921	-0.44
388.13	4
388.34	3.72
388.55	6.77
388.759	9.26
388.969	5.76
389.179	4.52
389.388	2.34
389.598	1.11
389.807	1.13
390.017	3.8
390.227	4.58
390.436	6.3
390.646	6.87
390.855	5.26
391.065	4.07
391.274	3.92
391.484	4.5
391.693	3.01
391.903	3.71
392.112	4.22
392.322	2.58
392.531	2
392.74	1.81
392.95	2.65
393.159	1.55
393.369	3.18
393.578	3.43
393.787	4.8
393.997	4.41
394.206	5.2
394.415	4.26
394.625	4.2
394.834	3.91
395.043	3.67
395.252	3.68
395.462	4.18
395.671	3.06
395.88	3.35
396.089	3.66
396.298	3.65
396.508	3.81
396.717	4.61
396.926	4.03
397.135	3.18
397.344	2.98
397.553	2.28
397.762	2.29
397.971	2.39
398.181	2.99
398.39	3.49
398.599	3.77
398.808	3.85
399.017	3.68
399.226	3.31
399.435	2.73
399.644	2.69
399.853	2.33
400.062	2.3
400.27	2.45
400.479	2.6
400.688	2.53
400.897	2.78
401.106	2.79
401.315	2.97
401.524	3.05
401.733	2.79
401.941	2.62
402.15	2.71
402.359	2.66
402.568	2.37
402.777	2.44
402.985	2.5
403.194	2.56
403.403	2.42
403.612	2.75
403.82	2.81
404.029	2.81
404.238	2.96
404.446	3.02
404.655	2.84
404.864	2.92
405.072	2.95
405.281	2.64
405.489	2.61
405.698	2.59
405.906	2.62
406.115	2.64
406.324	2.77
406.532	2.68
406.741	2.65
406.949	2.52
407.158	2.51
407.366	2.56
407.574	2.51
407.783	2.65
407.991	2.7
408.2	2.48
408.408	2.3
408.617	2.46
408.825	2.31
409.033	2.29
409.242	2.44
409.45	2.44
409.658	2.38
409.867	2.35
410.075	2.28
410.283	2.24
410.491	2.24
410.7	2.18
410.908	2.17
411.116	2.12
411.324	2.14
411.533	2.13
411.741	2.23
411.949	2.19
412.157	2.3
412.365	2.28
412.573	2.23
412.781	2.18
412.99	2.36
413.198	2.28
413.406	2.24
413.614	2.28
413.822	2.31
414.03	2.31
414.238	2.38
414.446	2.4
414.654	2.5
414.862	2.56
415.07	2.35
415.278	2.2
415.486	2.34
415.694	2.4
415.902	2.27
416.109	2.36
416.317	2.42
416.525	2.27
416.733	2.16
416.941	2.23
417.149	2.23
417.357	2.3
417.564	2.28
417.772	2.27
417.98	2.36
418.188	2.43
418.395	2.38
418.603	2.43
418.811	2.56
419.019	2.33
419.226	2.29
419.434	2.16
419.642	2.09
419.849	1.97
420.057	2.11
420.265	2.04
420.472	2.42
420.68	2.32
420.887	2.35
421.095	2.11
421.302	2.25
421.51	1.87
421.717	2.1
421.925	1.93
422.132	2.14
422.34	2.13
422.547	2.13
422.755	2
422.962	2.19
423.17	2.16
423.377	2.19
423.585	2.32
423.792	2.3
423.999	2.1
424.207	1.96
424.414	1.61
424.621	1.49
424.829	1.52
425.036	1.69
425.243	1.72
425.451	1.88
425.658	2.03
425.865	2
426.072	1.92
426.28	1.88
426.487	2.05
426.694	1.92
426.901	1.96
427.108	2.01
427.315	2.25
427.523	2.09
427.73	2.12
427.937	2.19
428.144	2.15
428.351	2.03
428.558	1.96
428.765	2.05
428.972	2.1
429.179	2.04
429.386	2.02
429.593	2.07
429.8	2.24
430.007	2.05
430.214	2.23
430.421	2.28
430.628	2.33
430.835	2.23
431.042	2.16
431.249	2.12
431.456	2.27
431.662	2.26
431.869	2.37
432.076	2.44
432.283	2.3
432.49	2.17
432.697	2.17
432.903	2.07
433.11	2.07
433.317	2.11
433.524	2.01
433.73	2.08
433.937	2.02
434.144	2.08
434.35	2.21
434.557	2.36
434.764	2.36
434.97	2.51
435.177	2.5
435.384	2.55
435.59	2.49
435.797	2.39
436.003	2.22
436.21	2.21
436.416	2.15
436.623	2.08
436.829	2.1
437.036	2.24
437.242	2.31
437.449	2.22
437.655	2.3
437.862	2.26
438.068	2.18
438.275	2.15
438.481	2.03
438.687	2.06
438.894	2.31
439.1	2.43
439.307	2.37
439.513	2.48
439.719	2.43
439.926	2.23
440.132	2.14
440.338	2.3
440.544	2.24
440.751	2.2
440.957	2.26
441.163	2.25
441.369	2.23
441.575	2.33
441.782	2.48
441.988	2.55
442.194	2.52
442.4	2.48
442.606	2.45
442.812	2.42
443.018	2.3
443.224	2.35
443.431	2.33
443.637	2.42
443.843	2.45
444.049	2.51
444.255	2.66
444.461	2.8
444.667	2.75
444.873	2.63
445.079	2.64
445.284	2.58
445.49	2.53
445.696	2.49
445.902	2.5
446.108	2.51
446.314	2.41
446.52	2.53
446.726	2.6
446.931	2.69
447.137	2.63
447.343	2.77
447.549	2.68
447.755	2.69
447.96	2.5
448.166	2.58
448.372	2.4
448.578	2.41
448.783	2.41
448.989	2.6
449.195	2.53
449.4	2.64
449.606	2.6
449.812	2.6
450.017	2.51
450.223	2.58
450.428	2.66
450.634	2.68
450.84	2.73
451.045	2.83
451.251	2.88
451.456	2.78
451.662	2.65
451.867	2.58
452.073	2.52
452.278	2.41
452.483	2.41
452.689	2.51
452.894	2.66
453.1	2.62
453.305	2.74
453.51	2.75
453.716	2.75
453.921	2.67
454.127	2.71
454.332	2.74
454.537	2.76
454.742	2.8
454.948	2.82
455.153	2.91
455.358	2.79
455.563	2.74
455.769	2.74
455.974	2.75
456.179	2.65
456.384	2.6
456.589	2.75
456.795	2.7
457	2.73
457.205	2.68
457.41	2.82
457.615	2.8
457.82	2.81
458.025	2.72
458.23	2.78
458.435	2.69
458.64	2.62
458.845	2.57
459.05	2.64
459.255	2.68
459.46	2.67
459.665	2.68
459.87	2.72
460.075	2.73
460.28	2.75
460.485	2.75
460.69	2.77
460.895	2.8
461.099	2.78
461.304	2.68
461.509	2.76
461.714	2.79
461.919	2.75
462.123	2.72
462.328	2.81
462.533	2.84
462.738	2.85
462.942	2.86
463.147	2.95
463.352	2.87
463.556	2.89
463.761	2.91
463.966	2.88
464.17	2.84
464.375	2.99
464.58	2.98
464.784	2.92
464.989	3.08
465.193	3.14
465.398	3.08
465.602	2.95
465.807	3.05
466.011	3
466.216	2.99
466.42	2.97
466.625	3.15
466.829	3.09
467.034	3.05
467.238	3.04
467.443	3.05
467.647	3.02
467.851	3.08
468.056	3.06
468.26	3.08
468.464	3.05
468.669	3.09
468.873	3.05
469.077	3.08
469.282	3.08
469.486	3.11
469.69	3
469.894	2.9
470.099	2.82
470.303	2.8
470.507	2.84
470.711	2.92
470.915	2.99
471.119	3.14
471.324	3.17
471.528	3.15
471.732	3.13
471.936	3.22
472.14	3.06
472.344	3.07
472.548	3.07
472.752	3.04
472.956	2.94
473.16	3.03
473.364	3.11
473.568	3.16
473.772	3.22
473.976	3.39
474.18	3.5
474.384	3.49
474.588	3.51
474.792	3.55
474.995	3.54
475.199	3.46
475.403	3.4
475.607	3.42
475.811	3.43
476.015	3.3
476.218	3.29
476.422	3.35
476.626	3.36
476.83	3.3
477.033	3.41
477.237	3.43
477.441	3.39
477.644	3.29
477.848	3.38
478.052	3.37
478.255	3.31
478.459	3.28
478.663	3.3
478.866	3.26
479.07	3.2
479.273	3.24
479.477	3.23
479.681	3.21
479.884	3.21
480.088	3.25
480.291	3.28
480.495	3.31
480.698	3.34
480.901	3.31
481.105	3.25
481.308	3.23
481.512	3.28
481.715	3.3
481.919	3.32
482.122	3.38
482.325	3.41
482.529	3.37
482.732	3.43
482.935	3.41
483.138	3.35
483.342	3.37
483.545	3.37
483.748	3.26
483.952	3.28
484.155	3.3
484.358	3.33
484.561	3.34
484.764	3.39
484.967	3.39
485.171	3.41
485.374	3.41
485.577	3.4
485.78	3.34
485.983	3.33
486.186	3.37
486.389	3.32
486.592	3.35
486.795	3.36
486.998	3.39
487.201	3.37
487.404	3.34
487.607	3.32
487.81	3.39
488.013	3.35
488.216	3.34
488.419	3.32
488.622	3.32
488.825	3.28
489.028	3.35
489.231	3.35
489.433	3.43
489.636	3.45
489.839	3.47
490.042	3.5
490.245	3.58
490.447	3.61
490.65	3.58
490.853	3.59
491.056	3.48
491.258	3.39
491.461	3.32
491.664	3.29
491.866	3.28
492.069	3.33
492.272	3.34
492.474	3.37
492.677	3.38
492.879	3.34
493.082	3.21
493.285	3.22
493.487	3.2
493.69	3.23
493.892	3.31
494.095	3.4
494.297	3.43
494.5	3.41
494.702	3.42
494.905	3.41
495.107	3.46
495.309	3.47
495.512	3.52
495.714	3.5
495.917	3.47
496.119	3.41
496.321	3.37
496.524	3.34
496.726	3.32
496.928	3.33
497.13	3.37
497.333	3.37
497.535	3.39
497.737	3.47
497.939	3.51
498.142	3.52
498.344	3.51
498.546	3.53
498.748	3.47
498.95	3.5
499.152	3.52
499.355	3.56
499.557	3.49
499.759	3.47
499.961	3.44
500.163	3.42
500.365	3.42
500.567	3.43
500.769	3.47
500.971	3.47
501.173	3.49
501.375	3.42
501.577	3.52
501.779	3.56
501.981	3.6
502.183	3.57
502.385	3.64
502.587	3.63
502.788	3.52
502.99	3.48
503.192	3.55
503.394	3.58
503.596	3.63
503.798	3.69
503.999	3.67
504.201	3.65
504.403	3.62
504.605	3.54
504.806	3.6
505.008	3.65
505.21	3.58
505.411	3.63
505.613	3.64
505.815	3.61
506.016	3.58
506.218	3.7
506.42	3.72
506.621	3.73
506.823	3.73
507.024	3.77
507.226	3.79
507.427	3.8
507.629	3.86
507.83	3.91
508.032	3.85
508.233	3.78
508.435	3.75
508.636	3.72
508.838	3.7
509.039	3.76
509.24	3.8
509.442	3.77
509.643	3.86
509.845	3.82
510.046	3.81
510.247	3.76
510.448	3.76
510.65	3.72
510.851	3.71
511.052	3.72
511.254	3.85
511.455	3.84
511.656	3.8
511.857	3.78
512.058	3.79
512.26	3.74
512.461	3.81
512.662	3.8
512.863	3.9
513.064	3.95
513.265	3.95
513.466	3.95
513.667	3.98
513.868	3.91
514.069	3.88
514.27	3.87
514.471	3.83
514.672	3.88
514.873	3.93
515.074	3.93
515.275	3.98
515.476	4.02
515.677	4.03
515.878	3.99
516.079	4.01
516.28	3.97
516.481	3.95
516.682	3.95
516.882	4.04
517.083	4.04
517.284	4.11
517.485	4.11
517.686	4.08
517.886	4.09
518.087	4.03
518.288	3.98
518.488	4.02
518.689	3.99
518.89	3.97
519.091	4.07
519.291	4.06
519.492	4.09
519.692	4.16
519.893	4.15
520.094	4.14
520.294	4.22
520.495	4.19
520.695	4.24
520.896	4.26
521.096	4.24
521.297	4.23
521.497	4.27
521.698	4.26
521.898	4.26
522.099	4.28
522.299	4.26
522.499	4.24
522.7	4.28
522.9	4.31
523.101	4.3
523.301	4.35
523.501	4.42
523.702	4.41
523.902	4.42
524.102	4.47
524.302	4.44
524.503	4.39
524.703	4.4
524.903	4.43
525.103	4.41
525.304	4.43
525.504	4.45
525.704	4.43
525.904	4.43
526.104	4.48
526.304	4.52
526.504	4.53
526.705	4.55
526.905	4.53
527.105	4.52
527.305	4.52
527.505	4.52
527.705	4.57
527.905	4.57
528.105	4.58
528.305	4.57
528.505	4.58
528.705	4.57
528.905	4.64
529.105	4.67
529.304	4.66
529.504	4.72
529.704	4.74
529.904	4.73
530.104	4.77
530.304	4.78
530.503	4.79
530.703	4.81
530.903	4.83
531.103	4.77
531.303	4.81
531.502	4.83
531.702	4.84
531.902	4.84
532.101	4.95
532.301	5.01
532.501	4.99
532.7	5.03
532.9	5.06
533.1	5.03
533.299	5.06
533.499	5.07
533.698	5.02
533.898	5.04
534.097	5.03
534.297	4.99
534.496	4.99
534.696	5.03
534.895	4.99
535.095	5.07
535.294	5.06
535.494	5.08
535.693	5.12
535.892	5.19
536.092	5.19
536.291	5.22
536.491	5.3
536.69	5.29
536.889	5.31
537.088	5.34
537.288	5.36
537.487	5.4
537.686	5.42
537.886	5.43
538.085	5.4
538.284	5.39
538.483	5.4
538.682	5.45
538.882	5.49
539.081	5.5
539.28	5.61
539.479	5.62
539.678	5.64
539.877	5.62
540.076	5.7
540.275	5.71
540.474	5.67
540.673	5.68
540.872	5.74
541.071	5.76
541.27	5.82
541.469	5.87
541.668	5.9
541.867	5.97
542.066	6.02
542.265	6.02
542.464	6.1
542.663	6.16
542.862	6.2
543.06	6.23
543.259	6.26
543.458	6.25
543.657	6.28
543.856	6.33
544.054	6.36
544.253	6.36
544.452	6.47
544.651	6.43
544.849	6.47
545.048	6.52
545.247	6.61
545.445	6.58
545.644	6.66
545.843	6.66
546.041	6.66
546.24	6.68
546.438	6.73
546.637	6.82
546.836	6.87
547.034	6.92
547.233	7.04
547.431	7.15
547.63	7.16
547.828	7.22
548.027	7.28
548.225	7.3
548.423	7.31
548.622	7.32
548.82	7.35
549.019	7.41
549.217	7.41
549.415	7.47
549.614	7.6
549.812	7.63
550.01	7.71
550.209	7.83
550.407	7.87
550.605	7.89
550.803	7.96
551.002	8.05
551.2	8.08
551.398	8.13
551.596	8.24
551.794	8.33
551.993	8.39
552.191	8.52
552.389	8.57
552.587	8.64
552.785	8.71
552.983	8.74
553.181	8.69
553.379	8.75
553.577	8.85
553.775	8.88
553.973	8.97
554.171	9.05
554.369	9.16
554.567	9.21
554.765	9.25
554.963	9.29
555.161	9.38
555.359	9.46
555.557	9.47
555.755	9.59
555.952	9.64
556.15	9.75
556.348	9.8
556.546	9.9
556.744	9.97
556.941	10.05
557.139	10.06
557.337	10.17
557.535	10.28
557.732	10.34
557.93	10.39
558.128	10.48
558.325	10.45
558.523	10.52
558.721	10.61
558.918	10.78
559.116	10.9
559.313	11.03
559.511	11.04
559.708	11.15
559.906	11.23
560.104	11.23
560.301	11.32
560.498	11.41
560.696	11.43
560.893	11.48
561.091	11.6
561.288	11.73
561.486	11.86
561.683	11.93
561.88	11.96
562.078	11.96
562.275	11.98
562.473	11.99
562.67	12
562.867	12.11
563.064	12.2
563.262	12.23
563.459	12.41
563.656	12.46
563.853	12.47
564.051	12.64
564.248	12.74
564.445	12.73
564.642	12.88
564.839	12.94
565.036	12.91
565.234	12.96
565.431	12.99
565.628	13.01
565.825	12.99
566.022	12.97
566.219	13.04
566.416	13.05
566.613	13.13
566.81	13.3
567.007	13.42
567.204	13.4
567.401	13.34
567.598	13.32
567.795	13.28
567.991	13.29
568.188	13.34
568.385	13.39
568.582	13.47
568.779	13.45
568.976	13.44
569.172	13.48
569.369	13.59
569.566	13.56
569.763	13.5
569.96	13.59
570.156	13.58
570.353	13.59
570.55	13.72
570.746	13.86
570.943	13.86
571.14	13.91
571.336	13.87
571.533	13.78
571.729	13.75
571.926	13.74
572.123	13.75
572.319	13.84
572.516	13.87
572.712	13.99
572.909	13.99
573.105	13.92
573.302	13.91
573.498	13.84
573.695	13.79
573.891	13.75
574.087	13.83
574.284	13.86
574.48	13.92
574.677	13.94
574.873	14.07
575.069	14.15
575.266	14.06
575.462	14.06
575.658	14.03
575.854	13.97
576.051	13.84
576.247	13.84
576.443	13.81
576.639	13.88
576.835	13.73
577.032	13.7
577.228	13.73
577.424	13.62
577.62	13.55
577.816	13.62
578.012	13.62
578.208	13.5
578.404	13.5
578.6	13.44
578.796	13.47
578.993	13.46
579.189	13.54
579.384	13.61
579.58	13.62
579.776	13.55
579.972	13.57
580.168	13.51
580.364	13.44
580.56	13.47
580.756	13.46
580.952	13.45
581.148	13.41
581.343	13.44
581.539	13.31
581.735	13.33
581.931	13.25
582.127	13.19
582.322	13.18
582.518	13.2
582.714	13.19
582.909	13.21
583.105	13.23
583.301	13.18
583.496	13.13
583.692	13.08
583.888	13.09
584.083	13.05
584.279	13.01
584.474	12.96
584.67	12.82
584.866	12.73
585.061	12.72
585.257	12.76
585.452	12.84
585.648	12.94
585.843	12.96
586.039	12.91
586.234	12.88
586.429	12.74
586.625	12.68
586.82	12.69
587.015	12.73
587.211	12.76
587.406	12.84
587.601	12.85
587.797	12.81
587.992	12.78
588.187	12.76
588.383	12.75
588.578	12.78
588.773	12.78
588.968	12.8
589.163	12.78
589.359	12.76
589.554	12.74
589.749	12.74
589.944	12.73
590.139	12.75
590.334	12.8
590.529	12.87
590.724	12.94
590.919	12.93
591.114	12.92
591.309	12.82
591.504	12.7
591.699	12.61
591.894	12.67
592.089	12.72
592.284	12.77
592.479	12.83
592.674	12.98
592.869	12.99
593.064	12.98
593.259	13.13
593.454	13.16
593.648	13.14
593.843	13.25
594.038	13.27
594.233	13.26
594.428	13.32
594.622	13.37
594.817	13.38
595.012	13.44
595.206	13.44
595.401	13.53
595.596	13.49
595.79	13.51
595.985	13.59
596.18	13.65
596.374	13.74
596.569	13.89
596.763	13.91
596.958	13.93
597.153	14.05
597.347	14
597.542	14
597.736	14.07
597.931	14.2
598.125	14.18
598.319	14.31
598.514	14.39
598.708	14.39
598.903	14.37
599.097	14.39
599.291	14.36
599.486	14.35
599.68	14.43
599.874	14.47
600.069	14.55
600.263	14.64
600.457	14.72
600.651	14.72
600.846	14.79
601.04	14.76
601.234	14.68
601.428	14.7
601.622	14.74
601.817	14.72
602.011	14.82
602.205	14.96
602.399	14.93
602.593	14.97
602.787	14.97
602.981	14.87
603.175	14.93
603.369	14.95
603.563	14.84
603.757	14.81
603.951	14.86
604.145	14.68
604.339	14.72
604.533	14.72
604.727	14.77
604.921	14.72
605.115	14.75
605.309	14.72
605.502	14.79
605.696	14.75
605.89	14.76
606.084	14.72
606.278	14.68
606.471	14.61
606.665	14.53
606.859	14.45
607.053	14.41
607.246	14.39
607.44	14.33
607.634	14.27
607.827	14.21
608.021	14.16
608.214	14.08
608.408	14.09
608.602	14.14
608.795	14.2
608.989	14.22
609.182	14.13
609.376	14.03
609.569	13.96
609.763	13.8
609.956	13.69
610.15	13.74
610.343	13.76
610.537	13.7
610.73	13.7
610.923	13.66
611.117	13.64
611.31	13.61
611.504	13.55
611.697	13.5
611.89	13.38
612.083	13.23
612.277	13.14
612.47	13.07
612.663	12.97
612.856	12.93
613.05	12.93
613.243	12.81
613.436	12.69
613.629	12.65
613.822	12.63
614.015	12.6
614.209	12.49
614.402	12.47
614.595	12.47
614.788	12.39
614.981	12.3
615.174	12.29
615.367	12.23
615.56	12.15
615.753	12.22
615.946	12.18
616.139	12.15
616.332	12.13
616.525	12.04
616.718	11.88
616.911	11.91
617.103	11.9
617.296	11.9
617.489	11.93
617.682	11.92
617.875	11.73
618.067	11.61
618.26	11.55
618.453	11.43
618.646	11.3
618.838	11.33
619.031	11.37
619.224	11.42
619.417	11.48
619.609	11.55
619.802	11.54
619.994	11.49
620.187	11.4
620.38	11.31
620.572	11.31
620.765	11.28
620.957	11.24
621.15	11.2
621.342	11.23
621.535	11.13
621.727	11.13
621.92	11.09
622.112	11.11
622.305	11.14
622.497	11.2
622.69	11.13
622.882	11.2
623.074	11.13
623.267	11.01
623.459	10.96
623.651	10.93
623.844	10.9
624.036	10.92
624.228	10.97
624.42	10.99
624.613	10.9
624.805	10.83
624.997	10.78
625.189	10.78
625.381	10.74
625.574	10.88
625.766	10.83
625.958	10.88
626.15	10.79
626.342	10.72
626.534	10.66
626.726	10.71
626.918	10.66
627.11	10.68
627.302	10.67
627.494	10.67
627.686	10.63
627.878	10.57
628.07	10.52
628.262	10.48
628.454	10.4
628.646	10.34
628.838	10.29
629.029	10.25
629.221	10.22
629.413	10.25
629.605	10.22
629.797	10.23
629.989	10.24
630.18	10.23
630.372	10.18
630.564	10.13
630.755	10.08
630.947	10.02
631.139	9.99
631.33	9.93
631.522	9.95
631.714	9.97
631.905	9.95
632.097	9.88
632.289	9.94
632.48	9.9
632.672	9.79
632.863	9.78
633.055	9.8
633.246	9.75
633.438	9.72
633.629	9.77
633.821	9.7
634.012	9.65
634.203	9.63
634.395	9.62
634.586	9.63
634.777	9.7
634.969	9.75
635.16	9.78
635.351	9.81
635.543	9.75
635.734	9.68
635.925	9.69
636.117	9.62
636.308	9.56
636.499	9.61
636.69	9.68
636.881	9.68
637.073	9.69
637.264	9.72
637.455	9.71
637.646	9.6
637.837	9.54
638.028	9.49
638.219	9.49
638.41	9.48
638.601	9.53
638.792	9.58
638.983	9.67
639.174	9.6
639.365	9.49
639.556	9.48
639.747	9.36
639.938	9.25
640.129	9.18
640.32	9.16
640.511	9.06
640.701	9.05
640.892	9.08
641.083	9.09
641.274	9.11
641.465	9.18
641.655	9.23
641.846	9.18
642.037	9.16
642.228	9.07
642.418	8.98
642.609	8.9
642.8	8.89
642.99	8.84
643.181	8.87
643.372	8.85
643.562	8.84
643.753	8.77
643.943	8.84
644.134	8.84
644.324	8.85
644.515	8.86
644.705	8.85
644.896	8.79
645.086	8.73
645.277	8.73
645.467	8.78
645.658	8.83
645.848	8.79
646.038	8.82
646.229	8.83
646.419	8.74
646.61	8.75
646.8	8.77
646.99	8.76
647.18	8.74
647.371	8.71
647.561	8.63
647.751	8.68
647.941	8.72
648.132	8.77
648.322	8.85
648.512	8.88
648.702	8.84
648.892	8.78
649.082	8.68
649.272	8.66
649.462	8.65
649.653	8.57
649.843	8.59
650.033	8.54
650.223	8.44
650.413	8.46
650.603	8.45
650.793	8.38
650.983	8.47
651.172	8.45
651.362	8.33
651.552	8.25
651.742	8.29
651.932	8.2
652.122	8.25
652.312	8.29
652.502	8.28
652.691	8.19
652.881	8.2
653.071	8.15
653.261	8.07
653.45	8.06
653.64	7.96
653.83	7.88
654.019	7.76
654.209	7.69
654.399	7.63
654.588	7.64
654.778	7.58
654.968	7.5
655.157	7.43
655.347	7.29
655.536	7.23
655.726	7.08
655.915	6.99
656.105	6.88
656.294	6.87
656.484	6.79
656.673	6.77
656.863	6.78
657.052	6.74
657.241	6.78
657.431	6.71
657.62	6.6
657.809	6.47
657.999	6.41
658.188	6.27
658.377	6.13
658.567	6.08
658.756	6
658.945	5.95
659.134	5.83
659.324	5.78
659.513	5.8
659.702	5.75
659.891	5.68
660.08	5.58
660.269	5.51
660.458	5.37
660.648	5.33
660.837	5.25
661.026	5.24
661.215	5.2
661.404	5.22
661.593	5
661.782	4.9
661.971	4.86
662.16	4.79
662.349	4.6
662.538	4.66
662.726	4.62
662.915	4.59
663.104	4.53
663.293	4.53
663.482	4.49
663.671	4.41
663.86	4.38
664.048	4.33
664.237	4.31
664.426	4.26
664.615	4.2
664.803	4.08
664.992	4.05
665.181	4.03
665.369	4.06
665.558	4.01
665.747	4.07
665.935	4.07
666.124	4.06
666.312	3.94
666.501	4.1
666.69	4.18
666.878	4.22
667.067	4.27
667.255	4.35
667.444	4.24
667.632	4.14
667.82	3.99
668.009	4
668.197	4.04
668.386	4.15
668.574	4.1
668.762	4.17
668.951	4.18
669.139	4.2
669.327	4.24
669.516	4.23
669.704	4.33
669.892	4.33
670.08	4.34
670.269	4.33
670.457	4.46
670.645	4.45
670.833	4.41
671.021	4.36
671.21	4.38
671.398	4.41
671.586	4.49
671.774	4.64
671.962	4.78
672.15	4.87
672.338	4.99
672.526	5.14
672.714	5.15
672.902	5.21
673.09	5.18
673.278	5.18
673.466	5.04
673.654	5.03
673.842	5.16
674.03	5.2
674.218	5.27
674.405	5.47
674.593	5.58
674.781	5.43
674.969	5.45
675.157	5.38
675.344	5.33
675.532	5.27
675.72	5.37
675.908	5.46
676.095	5.62
676.283	5.61
676.471	5.65
676.658	5.73
676.846	5.73
677.033	5.69
677.221	5.84
677.409	5.99
677.596	6.01
677.784	6.1
677.971	6.16
678.159	6.19
678.346	6.14
678.534	6.26
678.721	6.23
678.909	6.34
679.096	6.3
679.283	6.44
679.471	6.43
679.658	6.57
679.846	6.57
680.033	6.68
680.22	6.68
680.408	6.76
680.595	6.77
680.782	6.82
680.969	6.84
681.157	6.87
681.344	6.87
681.531	6.95
681.718	6.98
681.905	6.99
682.093	7.03
682.28	6.99
682.467	7.15
682.654	7.26
682.841	7.42
683.028	7.58
683.215	7.76
683.402	7.73
683.589	7.77
683.776	7.86
683.963	7.91
684.15	8.08
684.337	8.2
684.524	8.45
684.711	8.52
684.898	8.6
685.085	8.64
685.271	8.82
685.458	8.85
685.645	9.07
685.832	9.27
686.019	9.51
686.205	9.58
686.392	9.74
686.579	9.79
686.766	9.78
686.952	9.93
687.139	10.2
687.326	10.44
687.512	10.71
687.699	11.05
687.886	11.25
688.072	11.36
688.259	11.56
688.445	11.86
688.632	12.13
688.818	12.28
689.005	12.58
689.191	12.91
689.378	13.14
689.564	13.42
689.751	13.85
689.937	14.13
690.124	14.4
690.31	14.61
690.496	15.09
690.683	15.33
690.869	15.8
691.055	16.16
691.242	16.63
691.428	16.84
691.614	17.21
691.8	17.58
691.987	17.98
692.173	18.41
692.359	18.91
692.545	19.34
692.731	19.7
692.918	20.04
693.104	20.51
693.29	20.98
693.476	21.54
693.662	22.05
693.848	22.69
694.034	23.17
694.22	23.75
694.406	24.42
694.592	24.78
694.778	25.28
694.964	25.63
695.15	25.89
695.336	26.25
695.522	26.82
695.708	27.43
695.894	27.88
696.08	28.6
696.265	29.19
696.451	29.95
696.637	30.18
696.823	30.95
697.009	31.6
697.194	32.1
697.38	32.69
697.566	33.41
697.751	33.83
697.937	34.22
698.123	34.62
698.308	34.86
698.494	35.51
698.68	35.99
698.865	36.35
699.051	36.69
699.236	37.24
699.422	37.63
699.607	38.41
699.793	38.87
699.978	39.66
700.164	40.36
700.349	40.83
700.535	41.21
700.72	41.72
700.906	41.88
701.091	42.06
701.276	42.37
701.462	42.45
701.647	43
701.832	43.59
702.018	44.09
702.203	44.77
702.388	45.56
702.573	46.29
702.759	46.42
702.944	46.75
703.129	46.83
703.314	46.98
703.499	47.02
703.684	47.86
703.87	48.39
704.055	48.98
704.24	49.57
704.425	50.04
704.61	50.17
704.795	50.77
704.98	51.28
705.165	51.51
705.35	51.9
705.535	52.39
705.72	52.17
705.905	52.5
706.09	52.72
706.275	53.02
706.459	53.27
706.644	53.67
706.829	53.42
707.014	54.05
707.199	54.14
707.384	54.29
707.568	54.8
707.753	55.32
707.938	55.14
708.123	55.44
708.307	55.84
708.492	56.06
708.677	56.06
708.861	56.44
709.046	56.72
709.231	56.82
709.415	56.92
709.6	57.17
709.784	57.27
709.969	57.44
710.153	57.82
710.338	58.12
710.522	58.55
710.707	59.11
710.891	59.3
711.076	59.28
711.26	59.22
711.445	59.27
711.629	59.47
711.813	59.55
711.998	59.7
712.182	59.72
712.366	59.84
712.551	59.88
712.735	59.98
712.919	60.19
713.103	60.44
713.288	61.37
713.472	61.04
713.656	61.28
713.84	61.77
714.024	61.83
714.208	61.5
714.393	61.98
714.577	62.11
714.761	61.73
714.945	62.1
715.129	62.19
715.313	62.03
715.497	62.11
715.681	62.46
715.865	62.68
716.049	62.84
716.233	63.27
716.417	63.53
716.601	63.42
716.785	63.49
716.968	63.24
717.152	63.21
717.336	63.42
717.52	63.81
717.704	63.7
717.888	64.4
718.071	64.76
718.255	64.25
718.439	63.98
718.622	64.22
718.806	63.54
718.99	63.81
719.174	64.09
719.357	64.66
719.541	65.12
719.724	65.84
719.908	66.07
720.092	66.75
720.275	67.07
720.459	67.12
720.642	67.17
720.826	66.98
721.009	66.7
721.193	66.67
721.376	67.01
721.559	66.92
721.743	67.14
721.926	67.59
722.11	67.56
722.293	67.43
722.476	67.19
722.66	67.23
722.843	67.12
723.026	67.24
723.21	67.43
723.393	67.94
723.576	67.97
723.759	68.37
723.942	68.19
724.126	68.29
724.309	68.61
724.492	68.66
724.675	68.52
724.858	69.21
725.041	69.36
725.224	69.47
725.407	69.35
725.59	69.83
725.774	69.6
725.957	69.72
726.14	69.72
726.322	70.16
726.505	70.01
726.688	70.46
726.871	70.14
727.054	70.33
727.237	70.54
727.42	70.83
727.603	71.24
727.786	71.69
727.968	72.09
728.151	72.15
728.334	72.28
728.517	72.39
728.699	72.05
728.882	72.23
729.065	72.35
729.248	72.47
729.43	72.18
729.613	72.75
729.796	72.75
729.978	73.22
730.161	73.11
730.343	73.6
730.526	73.4
730.708	73.71
730.891	74.43
731.073	74.84
731.256	74.62
731.438	75.35
731.621	75.36
731.803	75.09
731.986	75.08
732.168	75.52
732.35	76.1
732.533	76.96
732.715	77.33
732.898	78.01
733.08	77.88
733.262	77.35
733.444	77.01
733.627	76.89
733.809	77.29
733.991	77.6
734.173	78.39
734.355	78.39
734.538	79.01
734.72	78.67
734.902	78.75
735.084	78.43
735.266	78.44
735.448	78.19
735.63	78.68
735.812	79.22
735.994	79.21
736.176	79.46
736.358	79.61
736.54	79.21
736.722	78.88
736.904	79.13
737.086	78.3
737.268	77.89
737.45	77.88
737.632	78.54
737.814	78.36
737.995	79.61
738.177	80.32
738.359	80.79
738.541	80.12
738.723	80.67
738.904	80.7
739.086	80.5
739.268	80.65
739.449	80.79
739.631	80.34
739.813	80.38
739.994	81.15
740.176	80.58
740.358	81.14
740.539	81.99
740.721	82.1
740.902	81.09
741.084	81.17
741.265	81.84
741.447	81.99
741.628	81.94
741.81	82.99
741.991	83.84
742.172	83.14
742.354	83.51
742.535	84.41
742.717	83.42
742.898	83.79
743.079	84.16
743.261	83.88
743.442	83.35
743.623	83.33
743.804	83.21
743.986	83.57
744.167	83.71
744.348	83.97
744.529	84.22
744.71	83.75
744.891	83.12
745.073	83.25
745.254	82.99
745.435	83.3
745.616	84.09
745.797	84.05
745.978	84.47
746.159	84.66
746.34	84.02
746.521	83.57
746.702	83.47
746.883	84.39
747.064	83.83
747.245	84.25
747.426	84.77
747.606	85.21
747.787	83.5
747.968	83.74
748.149	85.2
748.33	84.87
748.51	83.84
748.691	85.04
748.872	85.34
749.053	85.15
749.233	86.28
749.414	87.55
749.595	86
749.775	86.26
749.956	86.23
750.137	83.81
750.317	82.99
750.498	83.46
750.678	83.19
750.859	82.47
751.04	83.38
751.22	84.85
751.4	85.05
751.581	86.1
751.761	85.13
751.942	86.41
752.122	85.47
752.303	85.65
752.483	84.89
752.663	85.97
752.844	86.29
753.024	87.9
753.204	87.37
753.385	88.16
753.565	87.93
753.745	86.61
753.925	84.07
754.106	83.41
754.286	82.23
754.466	81.77
754.646	82.29
754.826	82.57
755.006	83.31
755.187	83.5
755.367	84.42
755.547	85.03
755.727	85.9
755.907	86.62
756.087	86.24
756.267	85.12
756.447	84.07
756.627	83.54
756.807	83.71
756.987	84.29
757.167	85.93
757.346	85.78
757.526	85.13
757.706	84.04
757.886	84.84
758.066	83.66
758.246	84.54
758.425	87.18
758.605	86.93
758.785	85.51
758.965	87
759.144	87.05
759.324	87.35
759.504	87.71
759.683	89.56
759.863	88.13
760.043	87.6
760.222	86.06
760.402	85.36
760.581	84.34
760.761	84.64
760.94	84.46
761.12	84.8
761.299	85.17
761.479	85.31
761.658	84.95
761.838	85.82
762.017	86.22
762.197	86.94
762.376	87.6
762.555	87.33
762.735	85.84
762.914	84.67
763.093	83.16
763.273	82.23
763.452	83.06
763.631	83.16
763.81	84.38
763.99	85.36
764.169	86.17
764.348	85.52
764.527	86.38
764.706	84.38
764.885	85.8
765.064	83.26
765.243	84.61
765.423	84.82
765.602	85.44
765.781	85.9
765.96	87.81
766.139	86.95
766.318	85.02
766.497	85.15
766.676	83.1
766.854	82.54
767.033	83.88
767.212	83.59
767.391	84.95
767.57	84.48
767.749	84.01
767.928	81.28
768.106	81.48
768.285	80.15
768.464	80.91
768.643	81.8
768.821	81.75
769	83.01
769.179	84.93
769.357	85.18
769.536	85.05
769.715	84.27
769.893	82.96
770.072	82.42
770.25	81.85
770.429	81.1
770.607	82.52
770.786	82.8
770.964	79.5
771.143	79.63
771.321	78.3
771.5	78.17
771.678	78.64
771.857	80.31
772.035	80.9
772.213	82.41
772.392	82.71
772.57	82.17
772.748	82.38
772.927	82.29
773.105	81.48
773.283	82.17
773.461	82.8
773.64	83.71
773.818	83.12
773.996	82.93
774.174	82.02
774.352	80.75
774.531	78.73
774.709	79.62
774.887	80.91
775.065	80.91
775.243	83.93
775.421	84.59
775.599	83.14
775.777	81.94
775.955	81.15
776.133	80.59
776.311	79.47
776.489	80.04
776.667	81.74
776.844	82.26
777.022	81.1
777.2	80.76
777.378	79.69
777.556	78.88
777.734	79.99
777.911	79.68
778.089	80.15
778.267	82.29
778.445	83.38
778.622	81.04
778.8	79.85
778.978	79.08
779.155	76.24
779.333	76.05
779.511	75.4
779.688	74.61
779.866	76.93
780.043	80.2
780.221	79.14
780.398	81.92
780.576	82.72
780.753	83.21
780.931	79.56
781.108	78.4
781.286	77.91
781.463	79.39
781.64	75.82
781.818	76.68
781.995	77.67
782.172	78.02
782.35	78.32
782.527	83.82
782.704	84.27
782.882	85.01
783.059	84.75
783.236	84.24
783.413	82.62
783.59	82.79
783.768	84.38
783.945	82.15
784.122	81.95
784.299	80.88
784.476	79.78
784.653	77.88
784.83	79.87
785.007	82.94
785.184	81.96
785.361	83.24
785.538	82.84
785.715	81.79
785.892	80.26
786.069	80.84
786.246	81.76
786.423	83.57
786.6	85.27
786.776	88.43
786.953	89.52
787.13	87.42
787.307	85.34
787.484	86.88
787.66	83.59
787.837	81.58
788.014	83.76
788.191	83.16
788.367	80.3
788.544	80.73
788.721	82.08
788.897	79.84
789.074	76.84
789.25	76.72
789.427	75.17
789.603	73.9
789.78	75.45
789.956	77.55
790.133	75.63
790.309	73.68
790.486	71.16
790.662	71.3
790.839	71.9
791.015	71.49
791.192	71.06
791.368	73.46
791.544	72.39
791.721	73.5
791.897	75.28
792.073	77.83
792.249	78.24
792.426	78.44
792.602	75.08
792.778	78.1
792.954	77.99
793.13	79.85
793.307	81.71
793.483	85.02
793.659	82.62
793.835	82.13
794.011	80.17
794.187	76.5
794.363	75.22
794.539	77.29
794.715	79.52
794.891	77.1
795.067	80.66
795.243	85.39
795.419	80.4
795.595	78.03
795.771	82.4
795.947	77.15
796.122	74.12
796.298	78.24
796.474	77.84
796.65	74.56
796.826	80.22
797.001	79.21
797.177	75.59
797.353	77.44
797.529	79.79
797.704	77.74
797.88	79.68
798.056	84.25
798.231	82.27
798.407	78.9
798.582	77.7
798.758	76.14
798.934	73.89
799.109	71.86
799.285	71.93
799.46	72.81
799.636	72.43
799.811	74.49
799.986	75.16
800.162	78.4
800.337	74.9
800.513	81.72
800.688	79.88
800.863	81.5
801.039	74.2
801.214	79.17
801.389	75.1
801.565	74.32
801.74	74.26
801.915	79.03
802.09	75.89
802.265	71.41
802.441	71.01
802.616	72.12
802.791	67.48
802.966	68.21
803.141	74.25
803.316	77.92
803.491	78.93
803.666	86
803.841	88.62
804.016	84.91
804.191	81.52
804.366	77.54
804.541	76.17
804.716	73.37
804.891	76.14
805.066	71.89
805.241	77.21
805.416	77.94
805.591	78.11
805.765	74.78
805.94	81.73
806.115	78.99
806.29	75.94
806.464	80.21
806.639	78.97
806.814	75.78
806.989	79.06
807.163	79.62
807.338	78.08
807.512	77.65
807.687	77.71
807.862	69.82
808.036	64.82
808.211	65.75
808.385	65.32
808.56	63.8
808.734	62.56
808.909	69.89
809.083	68.52
809.258	63.78
809.432	63.6
809.606	72.16
809.781	65.25
809.955	62.03
810.13	66.93
810.304	67.02
810.478	59.29
810.652	64.27
810.827	68.7
811.001	67.23
811.175	70.2
811.349	76.51
811.524	75.78
811.698	70.2
811.872	72.46
812.046	73.18
812.22	78.06
812.394	83.56
812.568	87.66
812.742	85.61
812.916	86.9
813.09	77.54
813.264	80.28
813.438	96.3
813.612	101.77
813.786	101
813.96	99.54
814.134	94.04
814.308	79.16
814.482	74.19
814.656	72.3
814.83	77.83
815.003	78.22
815.177	80.22
815.351	77.67
815.525	70.93
815.698	68.91
815.872	64.38
816.046	62.9
816.219	72.05
816.393	70.21
816.567	71.92
816.74	79.48
816.914	71.41
817.088	70.39
817.261	69.82
817.435	75.99
817.608	75.62
817.782	87.99
817.955	83.66
818.129	90.62
818.302	83.71
818.475	76.01
818.649	71.87
818.822	70.86
818.996	70.48
819.169	74.12
819.342	69.9
819.516	75.1
819.689	75.06
819.862	82.42
820.035	79.68
820.209	77.77
820.382	73.38
820.555	70.79
820.728	52.32
820.901	51.63
821.075	52.93
821.248	46.13
821.421	61.63
821.594	70.88
821.767	70.99
821.94	58.3
822.113	63.04
822.286	60.38
822.459	60.98
822.632	63.36
822.805	75.1
822.978	79.99
823.151	68.22
823.324	79.15
823.496	81.71
823.669	80.46
823.842	74.3
824.015	85.94
824.188	71.69
824.361	65.34
824.533	66.22
824.706	74.79
824.879	67.71
825.051	66.5
825.224	73.93
825.397	79.54
825.569	67.21
825.742	68.33
825.915	73.91
826.087	70.95
826.26	69.38
826.432	75.63
826.605	71.8
826.777	65.52
826.95	63.03
827.122	56.69
827.295	59.5
827.467	67.57
827.64	68.84
827.812	75.15
827.984	69.3
828.157	75.86
828.329	75.12
828.501	76.81
828.674	65.43
828.846	76.37
829.018	65.85
829.19	53.56
829.363	49.99
829.535	45.38
829.707	42.82
829.879	41.58
830.051	46.37
830.223	53.37
830.395	59.21
830.568	59
830.74	69.28
830.912	57.92
831.084	49
831.256	54.15
831.428	67.53
831.6	62.16
831.772	82.15
831.943	86.82
832.115	87.94
832.287	83.4
832.459	80.72
832.631	65.56
832.803	75.06
832.975	75.39
833.146	80.43
833.318	105.3
833.49	108
833.662	85.61
833.833	73.1
834.005	54.97
834.177	48.13
834.348	41.13
834.52	45.44
834.692	41.39
834.863	72.81
835.035	62.03
835.206	71.71
835.378	70.96
835.549	80.43
835.721	79.94
835.892	96.97
836.064	80.29
836.235	65.13
836.407	70.69
836.578	47.49
836.749	43.38
836.921	42.42
837.092	55.73
837.264	55.32
837.435	64.13
837.606	52.06
837.777	49.41
837.949	49.43
838.12	56.14
838.291	52.75
838.462	61.69
838.633	64.31
838.805	74.63
838.976	72.79
839.147	61.63
839.318	79.27
839.489	93.01
839.66	93.16
839.831	70.28
840.002	86.1
840.173	74.69
840.344	62.29
840.515	50.31
840.686	49.11
840.857	43.75
841.028	45.13
841.199	56.9
841.369	71.51
841.54	85.8
841.711	107
841.882	112.32
842.053	91.48
842.223	73.65
842.394	54.63
842.565	41.8
842.736	32.08
842.906	30.36
843.077	32.1
843.248	46.56
843.418	49.32
843.589	74.31
843.759	70.19
843.93	90.1
844.101	45.83
844.271	73.86
844.442	57.16
844.612	47.57
844.783	59.17
844.953	100.76
845.123	61.55
845.294	60.87
845.464	67.39
845.635	52.41
845.805	31.41
845.975	40.84
846.146	58.6
846.316	49.89
846.486	50.78
846.656	72.58
846.827	75.66
846.997	69.75
847.167	81.15
847.337	86.45
847.507	70.13
847.677	67.83
847.848	61.53
848.018	55.71
848.188	38.24
848.358	65.74
848.528	67.69
848.698	69.62
848.868	74.3
849.038	73.51
849.208	71.19
849.378	58.18
849.548	64.82
849.718	77.88
849.887	79.85
850.057	74.35
850.227	98.66
850.397	87.72
850.567	76.74
850.737	69.77
850.906	67.28
851.076	68.6
851.246	79.39
851.415	95.07
851.585	95.52
851.755	101.5
851.924	111.07
852.094	76.3
852.264	61.29
852.433	51.3
852.603	55.27
852.772	49.3
852.942	61.12
853.111	33.61
853.281	62.44
853.45	62.71
853.62	65.43
853.789	71.19
853.959	59.55
854.128	57.85
854.297	54.11
854.467	48.06
854.636	39.95
854.805	71.52
854.975	27.17
855.144	59.22
855.313	55.67
855.482	75.01
855.652	72.29
855.821	81.67
855.99	80.58
856.159	86.16
856.328	86.9
856.497	89.73
856.667	96.98
856.836	82.01
857.005	76.32
857.174	57.59
857.343	63.22
857.512	39.89
857.681	42.9
857.85	48.4
858.019	47.54
858.188	59.98
858.356	72.7
858.525	101.87
858.694	129.36
858.863	147.94
859.032	107.76
859.201	190.48
859.369	97.74
859.538	37.27
859.707	25.95
859.876	12.56
860.044	-9.13
860.213	4.81
860.382	16.14
860.55	4.3
860.719	11.07
860.888	40.1
861.056	46.39
861.225	54.22
861.393	41.86
861.562	36.72
861.73	19.72
861.899	37.75
862.067	32.23
862.236	57.66
862.404	58.99
862.572	65.48
862.741	64.21
862.909	36.98
863.078	25.21
863.246	78.01
863.414	45.26
863.582	26.13
863.751	50.15
863.919	55.86
864.087	44.78
864.255	64.36
864.424	96.28
864.592	115.84
864.76	119.58
864.928	82.84
865.096	94.45
865.264	64.01
865.432	63.04
865.6	40.9
865.768	62.79
865.936	53.81
866.104	78.4
866.272	93.77
866.44	111.85
866.608	97.44
866.776	108.76
866.944	95.39
867.112	73.82
867.28	72.49
867.448	43.66
867.615	36.97
867.783	28.63
867.951	27.4
868.119	11.26
868.286	75.57
868.454	78.12
868.622	96.86
868.789	96.73
868.957	136.05
869.125	74.07
869.292	59.93
869.46	83.35
869.627	81.36
869.795	73.96
869.963	75.55
870.13	82.09
870.298	50.68
870.465	50.1
870.632	65.23
870.8	73.81
870.967	73.03
871.135	70.21
871.302	45.36
871.469	17.18
871.637	3.41
871.804	35.92
871.971	58.47
872.139	65.1
872.306	64.46
872.473	78.2
872.64	70.29
872.807	48.32
872.975	78.27
873.142	112.24
873.309	119.8
873.476	123.97
873.643	138.81
873.81	102.06
873.977	14.1
874.144	-34.77
874.311	24.3
874.478	58.83
874.645	77.8
874.812	103.64
874.979	107.51
875.146	88.16
875.313	42.94
875.48	32.42
875.647	68.91
875.813	83.01
875.98	84.64
876.147	90.94
876.314	98.43
876.481	76.49
876.647	134.61
876.814	78.96
876.981	-212.87
877.147	-368.36
877.314	184.65
877.481	141.07
877.647	206.04
877.814	131.91
877.98	111.24
878.147	124.56
878.314	105.2
878.48	60.25
878.647	74.75
878.813	79.37
878.979	47.37
879.146	68.22
879.312	81.52
879.479	78.64
879.645	81.63
879.811	76.8
879.978	71.77
880.144	17.59
880.31	-68.9
880.477	-54.82
880.643	6.18
880.809	-70.52
880.975	-140.07
881.142	-0.26
881.308	91.3
881.474	81.63
881.64	83.36
881.806	78.07
881.972	97.13
882.138	70.09
882.304	-65.98
882.47	0.52
882.636	-79.32
882.802	-74.39
882.968	16.35
883.134	75.49
883.3	54.17
883.466	41.89
883.632	32.24
883.798	50.67
883.964	48.12
884.129	28.91
884.295	33.37
884.461	53.05
884.627	30.19
884.793	23.46
884.958	36.25
885.124	38.26
885.29	26.46
885.455	20.23
885.621	86.52
885.787	175.73
885.952	530.03
886.118	526.6
886.283	351.8
886.449	352.55
886.614	239.29
886.78	183.05
886.945	291.95
887.111	516.44
887.276	-1148.15
887.442	-306.67
887.607	170.48
887.773	178.12
887.938	120.54
888.103	103.93
888.269	117.12
888.434	146.82
888.599	87.73
888.764	124.54
888.93	126.04
889.095	95.77
889.26	120.95
889.425	-2161.9
889.59	-69.33
889.756	198.11
889.921	717.95
890.086	88.26
890.251	9.77
890.416	48.66
890.581	-22.68
890.746	15
890.911	-2.27
891.076	-13.88
891.241	19.41
891.406	34.54
891.571	19.12
891.736	37.69
891.901	62.65
892.065	41.59
892.23	-134.12
892.395	-54.83
892.56	-18.09
892.725	-37.3
892.889	49.96
893.054	93.68
893.219	129.04
893.384	244.06
893.548	254.05
893.713	220.98
893.878	359.69
