Data from Ofav_PP_Phys_2AZ2_Reflection_2.txt Node
Date: Tue Aug 03 18:07:51 EDT 2021
User: Adam
Spectrometer: FLMT01687
Trigger mode: 0
Integration Time (sec): 8.750000E-1
Scans to average: 2
Electric dark correction enabled: true
Nonlinearity correction enabled: false
Boxcar width: 2
XAxis mode: Wavelengths
Number of Pixels in Spectrum: 3648
>>>>>Begin Spectral Data<<<<<
179.494	56.46
179.716	64.35
179.937	66.93
180.158	54.59
180.38	91.23
180.601	-29.63
180.823	16.78
181.044	34.39
181.265	34.33
181.486	263.68
181.708	105.98
181.929	162.91
182.15	50.49
182.372	-6.75
182.593	257.38
182.814	403.66
183.035	-309.22
183.257	50.98
183.478	76.38
183.699	-77.91
183.92	36.48
184.141	-6.89
184.363	-10.47
184.584	-162.91
184.805	-14.78
185.026	-52.35
185.247	-29.03
185.468	11.19
185.689	4.5
185.91	-16.78
186.132	-8.38
186.353	1.57
186.574	-44.52
186.795	-17.34
187.016	-20.21
187.237	-8.6
187.458	-12.44
187.679	7.07
187.9	25.48
188.121	20.17
188.342	15.78
188.563	-6.95
188.784	-18.98
189.005	-44.99
189.226	-37.54
189.447	-20.37
189.667	4.64
189.888	11.65
190.109	37.49
190.33	11.51
190.551	11.17
190.772	-31.07
190.993	-34.26
191.214	-25.23
191.434	-8.75
191.655	-13.79
191.876	13.86
192.097	36.58
192.318	31.85
192.538	29.82
192.759	20.51
192.98	21.87
193.201	-11.83
193.421	-8.64
193.642	-0.11
193.863	20.96
194.083	22.25
194.304	31.44
194.525	18.33
194.745	11.68
194.966	14.15
195.187	4.37
195.407	14.15
195.628	14.56
195.848	-4.77
196.069	4.97
196.29	-21.17
196.51	-41.65
196.731	-10.34
196.951	6.99
197.172	12.04
197.392	24.49
197.613	18.05
197.833	22.92
198.054	35.91
198.274	-4.86
198.495	-7.71
198.715	4.72
198.936	-3.09
199.156	-16.06
199.377	11.33
199.597	21.36
199.817	41.5
200.038	23.96
200.258	7.39
200.479	-53.05
200.699	-84.91
200.919	-167.06
201.14	-56.57
201.36	-20.06
201.58	-17.26
201.801	-17.5
202.021	0.55
202.241	-25.51
202.461	-17.89
202.682	5.53
202.902	9.81
203.122	30.43
203.342	32.73
203.563	-18.06
203.783	-19.84
204.003	-3
204.223	4.18
204.443	4.95
204.663	17.4
204.884	-9.03
205.104	-24.3
205.324	-49.88
205.544	-110.22
205.764	-99.55
205.984	-137.03
206.204	-81.41
206.424	-139.73
206.644	-12.55
206.864	-31.52
207.084	-6.87
207.304	-71.92
207.525	-6.54
207.745	-31.09
207.964	-15.67
208.184	24.2
208.404	62.46
208.624	34.33
208.844	31.64
209.064	35.12
209.284	24.88
209.504	-3.24
209.724	9.85
209.944	-8.57
210.164	-23.5
210.384	-14.85
210.604	0.63
210.823	-59.72
211.043	5.61
211.263	-15.84
211.483	-14.15
211.703	2.3
211.922	12.3
212.142	15.7
212.362	19.62
212.582	24.22
212.801	-2.91
213.021	-4.89
213.241	-7.12
213.461	28.53
213.68	40.02
213.9	49.34
214.12	26.35
214.339	19.38
214.559	26.34
214.779	9.42
214.998	22.6
215.218	63.42
215.438	58.5
215.657	48.34
215.877	38.55
216.096	12.37
216.316	-15.58
216.535	-48.1
216.755	-70.9
216.974	-37.31
217.194	8.49
217.413	25.9
217.633	36.67
217.852	49.8
218.072	55.61
218.291	32.86
218.511	27.04
218.73	44.36
218.95	32.53
219.169	36.94
219.389	27.82
219.608	23.05
219.827	-31.88
220.047	-21.07
220.266	-17.52
220.485	0.34
220.705	-1.02
220.924	2
221.143	-19.85
221.363	-15.27
221.582	-51.17
221.801	-98.77
222.021	-50.95
222.24	-41.76
222.459	-145.54
222.678	-84.59
222.897	-47.48
223.117	-129
223.336	-468.11
223.555	-125.59
223.774	-113.7
223.993	-124.98
224.213	-93.15
224.432	-20.39
224.651	-16.22
224.87	-4.99
225.089	3.85
225.308	-7.98
225.527	-19.42
225.746	-59.15
225.965	-65.56
226.184	-97.61
226.404	-20.65
226.623	-1.17
226.842	2.1
227.061	-14.62
227.28	3.44
227.499	14.64
227.718	-7.94
227.936	-10.48
228.155	0.14
228.374	8.93
228.593	-2.12
228.812	-33.81
229.031	-30.2
229.25	-12.24
229.469	-93.84
229.688	-152.57
229.907	-144.76
230.125	-137.28
230.344	-131.3
230.563	-93.51
230.782	-73.17
231.001	-20.13
231.22	-5.57
231.438	2.12
231.657	-1.76
231.876	17.26
232.095	7.29
232.313	-7.71
232.532	-38.77
232.751	9.55
232.969	15.8
233.188	6.38
233.407	1.05
233.625	21.35
233.844	1.63
234.063	-12.87
234.281	-10.38
234.5	-7.76
234.719	8.51
234.937	21.46
235.156	28.03
235.374	8.81
235.593	23.06
235.811	13.19
236.03	22.58
236.249	22.51
236.467	52.76
236.686	47.65
236.904	36.63
237.123	29.29
237.341	33.95
237.559	28.93
237.778	27.01
237.996	18.41
238.215	13.84
238.433	7.87
238.652	6.5
238.87	27.04
239.088	32.05
239.307	35.23
239.525	18.17
239.743	18.05
239.962	11.89
240.18	26.13
240.398	30.37
240.617	47.31
240.835	33.06
241.053	14.38
241.271	-21.3
241.49	-42.37
241.708	-32.48
241.926	-37.51
242.144	-43.44
242.363	-14.78
242.581	3.87
242.799	2.87
243.017	5.03
243.235	40.85
243.453	35.86
243.672	22.83
243.89	29.84
244.108	35.48
244.326	5.41
244.544	12.74
244.762	25.97
244.98	20.2
245.198	25.17
245.416	39.08
245.634	26.19
245.852	20.72
246.07	16.97
246.288	3.27
246.506	10.21
246.724	26.43
246.942	21.87
247.16	21.76
247.378	1.36
247.596	-4.8
247.814	-11.51
248.032	-2.48
248.25	-2.26
248.468	15.06
248.685	14.21
248.903	5.99
249.121	-1.57
249.339	-6.37
249.557	6.05
249.775	-14.54
249.992	14.86
250.21	8.8
250.428	-11.33
250.646	-39.66
250.863	-22.93
251.081	-51.5
251.299	-52.55
251.517	-3.07
251.734	24.76
251.952	36.47
252.17	10.99
252.387	-1.31
252.605	-64.94
252.823	-96.8
253.04	-83.22
253.258	-9.93
253.475	4.09
253.693	10.86
253.911	21.87
254.128	31.08
254.346	27.1
254.563	30.39
254.781	41.88
254.998	37.09
255.216	30.14
255.433	23.3
255.651	11.74
255.868	-17.63
256.086	-26.42
256.303	-0.53
256.521	13.7
256.738	30.47
256.956	38.66
257.173	38.21
257.39	14.13
257.608	-15.98
257.825	-32.51
258.043	-99.2
258.26	-59.91
258.477	-51.48
258.695	-24.18
258.912	-26.75
259.129	8.87
259.346	22.26
259.564	19.95
259.781	19.44
259.998	26.09
260.216	20.76
260.433	27.91
260.65	24.18
260.867	9.41
261.084	16.46
261.302	2.83
261.519	-9.55
261.736	8.52
261.953	25.72
262.17	26.79
262.387	25.37
262.604	32.23
262.822	30.74
263.039	25.01
263.256	22.94
263.473	30.95
263.69	25.8
263.907	22.36
264.124	-5.86
264.341	-31.35
264.558	-85.64
264.775	-58.56
264.992	-43.25
265.209	-45.46
265.426	-58.19
265.643	-40.06
265.86	-40.34
266.077	-33.89
266.294	-19.21
266.51	-3.03
266.727	32.24
266.944	18.96
267.161	14.24
267.378	8.94
267.595	4.43
267.812	-10.24
268.028	-19.55
268.245	-11.26
268.462	3.54
268.679	13.19
268.896	-0.08
269.112	20.97
269.329	-10.1
269.546	-54.57
269.763	-31.18
269.979	-16.38
270.196	-18.51
270.413	-2.75
270.629	2.92
270.846	11.82
271.063	-5.79
271.279	4.31
271.496	2.92
271.712	-3.67
271.929	-12.87
272.146	15.55
272.362	8.09
272.579	-4.83
272.795	3.75
273.012	-9.52
273.228	-0.93
273.445	-0.82
273.661	11.9
273.878	15.05
274.094	38.79
274.311	32.39
274.527	18.26
274.744	17.07
274.96	15.42
275.177	-41.57
275.393	-30.69
275.609	-24.83
275.826	-25.7
276.042	-25.47
276.259	-18.9
276.475	-45.48
276.691	-39.62
276.908	-44.87
277.124	-33.42
277.34	-31.81
277.557	-26.75
277.773	-21.08
277.989	-23.01
278.205	-26.3
278.422	-34.73
278.638	-8.09
278.854	-11.79
279.07	-5.52
279.286	-2.86
279.503	17.78
279.719	-4.48
279.935	-4.37
280.151	2.57
280.367	-10.11
280.583	-49
280.799	-3.55
281.016	-22.96
281.232	-38.74
281.448	-20.6
281.664	-7.61
281.88	-20.41
282.096	15.51
282.312	23.18
282.528	11.17
282.744	12.04
282.96	5.11
283.176	3.18
283.392	1.39
283.608	8.74
283.824	-1.65
284.04	6.59
284.256	-7.58
284.471	-11.69
284.687	-19.36
284.903	-16.59
285.119	-25.03
285.335	-20.77
285.551	-14.61
285.767	9.46
285.982	19.62
286.198	10.14
286.414	6.19
286.63	17.18
286.846	-8.46
287.061	-6.29
287.277	-10.46
287.493	-2.29
287.709	-50.71
287.924	-20.77
288.14	-22
288.356	-32.48
288.571	-27
288.787	-14.97
289.003	-33.3
289.218	-31.08
289.434	-7.36
289.65	-18.37
289.865	-9.19
290.081	-57.72
290.296	-55.86
290.512	-52.19
290.727	-68.24
290.943	-48.43
291.159	17.14
291.374	11.28
291.59	13.05
291.805	25.13
292.021	36.99
292.236	25.25
292.451	25.73
292.667	33.1
292.882	22.32
293.098	14.41
293.313	20.2
293.529	22.18
293.744	4.67
293.959	14.39
294.175	18.96
294.39	22.49
294.605	24.19
294.821	30.09
295.036	26.69
295.251	8.61
295.467	11.56
295.682	14.29
295.897	-10.93
296.112	3.26
296.328	16
296.543	15.33
296.758	9.19
296.973	24.48
297.188	17.68
297.404	28.07
297.619	15.71
297.834	13.33
298.049	11.7
298.264	25.68
298.479	-3.52
298.694	-0.41
298.909	7.44
299.125	7.51
299.34	-13.04
299.555	-6.13
299.77	-20.22
299.985	2.35
300.2	10.26
300.415	4.61
300.63	2.08
300.845	21.4
301.06	-12.66
301.275	-51.97
301.49	-1.32
301.704	17.32
301.919	23.87
302.134	34.67
302.349	47.72
302.564	51.32
302.779	33.93
302.994	25.23
303.209	12.64
303.423	-7.79
303.638	-13.02
303.853	-7.55
304.068	-3.2
304.283	27
304.497	44.43
304.712	32.92
304.927	37.71
305.142	41.53
305.356	21.59
305.571	11.51
305.786	9.95
306	9.01
306.215	-14.96
306.43	8.67
306.644	5.85
306.859	20.63
307.074	22.51
307.288	35.06
307.503	19.42
307.717	10.14
307.932	-5.98
308.147	-16.06
308.361	-12.22
308.576	-19.5
308.79	5.51
309.005	19.1
309.219	22.24
309.434	8.86
309.648	10.15
309.863	-6.76
310.077	-15.41
310.292	-7.07
310.506	-0.79
310.72	8
310.935	7.12
311.149	0.86
311.364	-22.71
311.578	-28.15
311.792	-27.34
312.007	-47.9
312.221	-25.6
312.435	-3.51
312.649	8.51
312.864	29.28
313.078	38.41
313.292	32.25
313.507	37.47
313.721	29.56
313.935	8.34
314.149	0.38
314.363	0.65
314.578	-5.31
314.792	6.46
315.006	-6.37
315.22	-4.95
315.434	-11.43
315.648	-41.58
315.862	-8.63
316.077	-1.03
316.291	8.17
316.505	11.51
316.719	9.49
316.933	3.81
317.147	3.46
317.361	4.06
317.575	0.47
317.789	10.13
318.003	17.75
318.217	1.13
318.431	-1.03
318.645	-17.47
318.859	-7.97
319.073	-12.91
319.287	15.24
319.5	29.46
319.714	44.03
319.928	51.37
320.142	39.72
320.356	23.72
320.57	3.49
320.784	-3.77
320.997	-16.05
321.211	2.62
321.425	15.49
321.639	16.07
321.853	-3.94
322.066	-16.5
322.28	-17.45
322.494	-20.97
322.707	-44.69
322.921	-17.44
323.135	-14.09
323.349	-3.55
323.562	-0.34
323.776	19.49
323.989	26.07
324.203	36.28
324.417	33.51
324.63	33.9
324.844	27.63
325.057	26.07
325.271	13.51
325.485	3.94
325.698	-15.58
325.912	-21.98
326.125	-12.76
326.339	-21.69
326.552	-30.65
326.766	-14.28
326.979	-9.12
327.193	-8.72
327.406	-5.27
327.619	1.72
327.833	-16.27
328.046	2.39
328.26	-1.61
328.473	6
328.686	22.79
328.9	30.87
329.113	32.97
329.326	31.01
329.54	30.74
329.753	29.33
329.966	29.3
330.179	-9.73
330.393	-7.66
330.606	11.78
330.819	17.01
331.032	12.54
331.246	24.11
331.459	13.74
331.672	-14.81
331.885	-35.09
332.098	-21.07
332.311	22.77
332.525	55.55
332.738	51.33
332.951	44.66
333.164	35.42
333.377	29.96
333.59	-5.09
333.803	-2.5
334.016	2.12
334.229	6.52
334.442	-38.67
334.655	-24.84
334.868	-33.53
335.081	-36.95
335.294	-24.43
335.507	2.73
335.72	5.18
335.933	19.18
336.146	19.08
336.359	14.2
336.572	14.91
336.785	11.79
336.997	11.77
337.21	-0.49
337.423	7.25
337.636	22.34
337.849	16.27
338.062	19.05
338.274	24.92
338.487	30.09
338.7	26.04
338.913	42.52
339.125	38.24
339.338	39.22
339.551	27.52
339.763	19
339.976	8.25
340.189	5.76
340.402	-1.83
340.614	-3.1
340.827	10.81
341.039	3.9
341.252	12.7
341.465	19.45
341.677	10.73
341.89	18.53
342.102	26.21
342.315	22.79
342.527	18.5
342.74	28.35
342.952	15.72
343.165	17.51
343.377	3.59
343.59	10.17
343.802	6.23
344.015	-22.71
344.227	-26.11
344.44	3.39
344.652	22.45
344.864	10.22
345.077	9.31
345.289	-6.03
345.502	-39.18
345.714	-77.63
345.926	-48.78
346.139	-28.25
346.351	-12.28
346.563	-39.01
346.775	-20.16
346.988	-26.84
347.2	-6.12
347.412	-17.23
347.624	4.33
347.837	1.89
348.049	6.26
348.261	-11.36
348.473	-2.12
348.685	7.8
348.897	20.8
349.11	14.24
349.322	6.84
349.534	0.77
349.746	1.33
349.958	-7.39
350.17	-0.58
350.382	-10.62
350.594	1.23
350.806	-3.19
351.018	-3.6
351.23	-1.58
351.442	9.68
351.654	-10.29
351.866	-6.32
352.078	-7.38
352.29	-14.75
352.502	-18.66
352.714	-0.21
352.926	-6.26
353.138	-17.3
353.35	-10.8
353.561	9.04
353.773	4.73
353.985	11.29
354.197	21.63
354.409	26.29
354.621	24.18
354.832	33.31
355.044	30.58
355.256	30.66
355.468	21.39
355.679	16.8
355.891	22.66
356.103	26.92
356.314	13.84
356.526	19.97
356.738	26.09
356.949	22.05
357.161	-2.09
357.373	14.64
357.584	21.66
357.796	18.02
358.008	-0.45
358.219	9.44
358.431	16.25
358.642	20.07
358.854	5.04
359.065	8.81
359.277	25.65
359.488	17.13
359.7	10.45
359.911	9.37
360.123	16.68
360.334	11.54
360.546	-1.42
360.757	-1.68
360.969	-3.08
361.18	9.7
361.391	18.32
361.603	26.31
361.814	14.96
362.025	23.68
362.237	9.1
362.448	3.25
362.659	-1.06
362.871	-1.32
363.082	-10.15
363.293	-10.51
363.504	-9.47
363.716	15.05
363.927	21.49
364.138	20.02
364.349	20.38
364.56	11.85
364.772	14.92
364.983	-2.94
365.194	3.03
365.405	3.54
365.616	6.91
365.827	-8.02
366.038	8.24
366.25	7.23
366.461	27.74
366.672	11.22
366.883	11.3
367.094	9.86
367.305	7.15
367.516	-12.44
367.727	2.88
367.938	7.83
368.149	6.05
368.36	-6.84
368.571	-3.26
368.781	3.34
368.992	4.56
369.203	10.14
369.414	17.52
369.625	7.27
369.836	0.37
370.047	-8.7
370.258	-25.89
370.468	-16.38
370.679	0.9
370.89	10.49
371.101	13.31
371.312	24.23
371.522	17.13
371.733	14.41
371.944	10.24
372.155	9.64
372.365	0.22
372.576	15.25
372.787	9.37
372.997	8.98
373.208	6.44
373.419	-1.93
373.629	-11.1
373.84	-2.86
374.05	-7.5
374.261	-9.42
374.472	2.96
374.682	0.08
374.893	-0.46
375.103	-22.17
375.314	-20.47
375.524	-12.26
375.735	3.78
375.945	6.06
376.156	13.85
376.366	14.26
376.577	15.02
376.787	7.17
376.997	-3.19
377.208	7.2
377.418	5.43
377.629	0.54
377.839	-7.88
378.049	-6.38
378.26	-8.45
378.47	-15.51
378.68	-15.99
378.89	-7.73
379.101	-0.14
379.311	4.09
379.521	16.79
379.732	18.23
379.942	16.14
380.152	19.35
380.362	15.67
380.572	20.52
380.783	29.14
380.993	23.94
381.203	20.62
381.413	11.81
381.623	8.81
381.833	4.11
382.043	17.74
382.253	11.95
382.463	16.59
382.674	13.66
382.884	5.52
383.094	-12.53
383.304	-5.46
383.514	-1.31
383.724	-8.95
383.934	-4.89
384.144	6.9
384.353	5.85
384.563	4.82
384.773	11.24
384.983	8.96
385.193	3.08
385.403	5.97
385.613	3.95
385.823	7.84
386.033	8.38
386.242	11.22
386.452	10.9
386.662	10.42
386.872	3.19
387.082	1.25
387.291	0.6
387.501	-2.41
387.711	-0.88
387.921	4.87
388.13	7.44
388.34	3.86
388.55	10.26
388.759	10.81
388.969	8.96
389.179	6.57
389.388	7.35
389.598	4.74
389.807	3.27
390.017	4.21
390.227	4.65
390.436	4.85
390.646	2.86
390.855	2.52
391.065	2.36
391.274	3.18
391.484	4.93
391.693	5.49
391.903	5.11
392.112	4.79
392.322	4.02
392.531	2.96
392.74	2.49
392.95	3.32
393.159	2.57
393.369	4.26
393.578	3.57
393.787	4.43
393.997	4
394.206	4.92
394.415	3.31
394.625	4.03
394.834	3.98
395.043	4.28
395.252	3.98
395.462	4.66
395.671	3.39
395.88	3.76
396.089	3.6
396.298	3.65
396.508	3.56
396.717	4.14
396.926	3.55
397.135	3.01
397.344	2.71
397.553	2.53
397.762	2.17
397.971	2.2
398.181	2.52
398.39	2.99
398.599	2.94
398.808	3.3
399.017	3.25
399.226	2.95
399.435	2.5
399.644	2.53
399.853	2.39
400.062	2.26
400.27	2.58
400.479	2.6
400.688	2.79
400.897	3.19
401.106	3.35
401.315	3.44
401.524	3.73
401.733	3.46
401.941	3.2
402.15	3.23
402.359	3.32
402.568	3.07
402.777	3.05
402.985	3.18
403.194	3.17
403.403	2.82
403.612	2.77
403.82	3.02
404.029	2.8
404.238	2.86
404.446	2.92
404.655	2.88
404.864	2.7
405.072	2.9
405.281	2.82
405.489	2.87
405.698	3
405.906	3
406.115	2.84
406.324	2.87
406.532	2.86
406.741	2.83
406.949	2.78
407.158	2.94
407.366	2.94
407.574	2.85
407.783	2.82
407.991	2.88
408.2	2.69
408.408	2.59
408.617	2.8
408.825	2.93
409.033	2.99
409.242	3.03
409.45	3.08
409.658	2.96
409.867	2.81
410.075	2.81
410.283	2.79
410.491	2.76
410.7	2.82
410.908	2.81
411.116	2.7
411.324	2.77
411.533	2.66
411.741	2.58
411.949	2.61
412.157	2.7
412.365	2.64
412.573	2.78
412.781	2.84
412.99	2.91
413.198	2.84
413.406	2.95
413.614	2.78
413.822	2.89
414.03	2.87
414.238	2.83
414.446	2.59
414.654	2.72
414.862	2.54
415.07	2.35
415.278	2.34
415.486	2.54
415.694	2.61
415.902	2.57
416.109	2.73
416.317	2.77
416.525	2.62
416.733	2.54
416.941	2.6
417.149	2.55
417.357	2.57
417.564	2.6
417.772	2.5
417.98	2.58
418.188	2.63
418.395	2.5
418.603	2.59
418.811	2.78
419.019	2.62
419.226	2.65
419.434	2.69
419.642	2.58
419.849	2.46
420.057	2.5
420.265	2.34
420.472	2.49
420.68	2.47
420.887	2.51
421.095	2.39
421.302	2.55
421.51	2.18
421.717	2.23
421.925	2.11
422.132	2.15
422.34	2.03
422.547	2.18
422.755	2.14
422.962	2.32
423.17	2.41
423.377	2.49
423.585	2.62
423.792	2.61
423.999	2.4
424.207	2.35
424.414	2.13
424.621	1.92
424.829	1.98
425.036	2.23
425.243	2.2
425.451	2.19
425.658	2.28
425.865	2.19
426.072	2
426.28	2.06
426.487	2.21
426.694	2.12
426.901	2.16
427.108	2.25
427.315	2.4
427.523	2.24
427.73	2.25
427.937	2.33
428.144	2.23
428.351	2.06
428.558	2.08
428.765	2.16
428.972	2.24
429.179	2.17
429.386	2.13
429.593	2.29
429.8	2.42
430.007	2.38
430.214	2.58
430.421	2.61
430.628	2.41
430.835	2.33
431.042	2.26
431.249	2.15
431.456	2.15
431.662	2.27
431.869	2.35
432.076	2.28
432.283	2.32
432.49	2.37
432.697	2.37
432.903	2.35
433.11	2.43
433.317	2.23
433.524	2.27
433.73	2.39
433.937	2.33
434.144	2.34
434.35	2.58
434.557	2.55
434.764	2.39
434.97	2.51
435.177	2.61
435.384	2.58
435.59	2.59
435.797	2.65
436.003	2.43
436.21	2.34
436.416	2.36
436.623	2.3
436.829	2.31
437.036	2.46
437.242	2.48
437.449	2.44
437.655	2.58
437.862	2.63
438.068	2.54
438.275	2.45
438.481	2.39
438.687	2.36
438.894	2.43
439.1	2.55
439.307	2.48
439.513	2.51
439.719	2.41
439.926	2.31
440.132	2.29
440.338	2.52
440.544	2.47
440.751	2.53
440.957	2.53
441.163	2.51
441.369	2.49
441.575	2.67
441.782	2.71
441.988	2.8
442.194	2.79
442.4	2.77
442.606	2.72
442.812	2.71
443.018	2.58
443.224	2.63
443.431	2.57
443.637	2.7
443.843	2.67
444.049	2.86
444.255	2.99
444.461	3.07
444.667	3.03
444.873	2.99
445.079	2.94
445.284	2.82
445.49	2.93
445.696	2.78
445.902	2.8
446.108	2.78
446.314	2.81
446.52	2.83
446.726	2.98
446.931	3.03
447.137	2.97
447.343	2.96
447.549	2.84
447.755	2.8
447.96	2.8
448.166	2.77
448.372	2.75
448.578	2.79
448.783	2.76
448.989	2.78
449.195	2.85
449.4	2.87
449.606	2.8
449.812	2.86
450.017	2.87
450.223	2.93
450.428	3.06
450.634	3.1
450.84	3.09
451.045	3.21
451.251	3.26
451.456	3.14
451.662	3.12
451.867	3.07
452.073	3.01
452.278	2.8
452.483	2.8
452.689	2.89
452.894	2.92
453.1	2.81
453.305	2.99
453.51	3.01
453.716	2.96
453.921	3.01
454.127	3.07
454.332	3.01
454.537	2.99
454.742	2.99
454.948	2.97
455.153	2.97
455.358	2.91
455.563	2.85
455.769	2.86
455.974	2.91
456.179	2.87
456.384	2.89
456.589	2.99
456.795	2.91
457	2.85
457.205	2.81
457.41	2.84
457.615	2.81
457.82	2.84
458.025	2.91
458.23	2.99
458.435	2.98
458.64	3.03
458.845	3.11
459.05	2.99
459.255	3.01
459.46	3.07
459.665	2.99
459.87	2.97
460.075	3.05
460.28	3
460.485	3.02
460.69	3.06
460.895	3.08
461.099	3.09
461.304	3.01
461.509	2.96
461.714	3.04
461.919	2.98
462.123	2.94
462.328	3.08
462.533	3.15
462.738	3.12
462.942	3.17
463.147	3.27
463.352	3.22
463.556	3.18
463.761	3.19
463.966	3.15
464.17	3.04
464.375	3.18
464.58	3.17
464.784	3.09
464.989	3.18
465.193	3.24
465.398	3.16
465.602	3.17
465.807	3.28
466.011	3.33
466.216	3.22
466.42	3.24
466.625	3.38
466.829	3.31
467.034	3.22
467.238	3.25
467.443	3.24
467.647	3.14
467.851	3.22
468.056	3.25
468.26	3.33
468.464	3.36
468.669	3.32
468.873	3.15
469.077	3.17
469.282	3.24
469.486	3.17
469.69	3.21
469.894	3.32
470.099	3.35
470.303	3.23
470.507	3.35
470.711	3.39
470.915	3.39
471.119	3.4
471.324	3.54
471.528	3.5
471.732	3.42
471.936	3.43
472.14	3.43
472.344	3.41
472.548	3.41
472.752	3.43
472.956	3.43
473.16	3.33
473.364	3.33
473.568	3.38
473.772	3.39
473.976	3.45
474.18	3.49
474.384	3.5
474.588	3.51
474.792	3.63
474.995	3.57
475.199	3.63
475.403	3.51
475.607	3.45
475.811	3.42
476.015	3.47
476.218	3.43
476.422	3.55
476.626	3.54
476.83	3.48
477.033	3.5
477.237	3.51
477.441	3.53
477.644	3.5
477.848	3.56
478.052	3.57
478.255	3.58
478.459	3.57
478.663	3.66
478.866	3.64
479.07	3.56
479.273	3.54
479.477	3.46
479.681	3.44
479.884	3.42
480.088	3.49
480.291	3.43
480.495	3.48
480.698	3.46
480.901	3.49
481.105	3.47
481.308	3.58
481.512	3.67
481.715	3.7
481.919	3.74
482.122	3.75
482.325	3.75
482.529	3.69
482.732	3.68
482.935	3.7
483.138	3.71
483.342	3.73
483.545	3.66
483.748	3.63
483.952	3.58
484.155	3.58
484.358	3.57
484.561	3.65
484.764	3.67
484.967	3.64
485.171	3.62
485.374	3.69
485.577	3.71
485.78	3.71
485.983	3.72
486.186	3.78
486.389	3.72
486.592	3.63
486.795	3.64
486.998	3.66
487.201	3.69
487.404	3.63
487.607	3.68
487.81	3.69
488.013	3.61
488.216	3.59
488.419	3.59
488.622	3.62
488.825	3.6
489.028	3.69
489.231	3.67
489.433	3.71
489.636	3.7
489.839	3.72
490.042	3.76
490.245	3.83
490.447	3.85
490.65	3.81
490.853	3.78
491.056	3.7
491.258	3.66
491.461	3.64
491.664	3.6
491.866	3.68
492.069	3.66
492.272	3.64
492.474	3.65
492.677	3.68
492.879	3.59
493.082	3.56
493.285	3.49
493.487	3.46
493.69	3.47
493.892	3.52
494.095	3.56
494.297	3.64
494.5	3.64
494.702	3.68
494.905	3.69
495.107	3.72
495.309	3.72
495.512	3.79
495.714	3.77
495.917	3.69
496.119	3.69
496.321	3.69
496.524	3.67
496.726	3.69
496.928	3.77
497.13	3.8
497.333	3.8
497.535	3.8
497.737	3.86
497.939	3.85
498.142	3.84
498.344	3.79
498.546	3.79
498.748	3.72
498.95	3.78
499.152	3.85
499.355	3.93
499.557	3.86
499.759	3.81
499.961	3.75
500.163	3.74
500.365	3.74
500.567	3.75
500.769	3.82
500.971	3.84
501.173	3.85
501.375	3.81
501.577	3.87
501.779	3.91
501.981	3.95
502.183	3.93
502.385	3.94
502.587	3.93
502.788	3.88
502.99	3.85
503.192	3.9
503.394	3.92
503.596	3.97
503.798	4.03
503.999	4.05
504.201	4.03
504.403	4.05
504.605	4.09
504.806	4.08
505.008	4.07
505.21	4
505.411	4.05
505.613	3.93
505.815	4.01
506.016	3.99
506.218	4.07
506.42	4.09
506.621	4.12
506.823	4.07
507.024	4.1
507.226	4.16
507.427	4.13
507.629	4.26
507.83	4.28
508.032	4.24
508.233	4.2
508.435	4.24
508.636	4.17
508.838	4.11
509.039	4.19
509.24	4.2
509.442	4.16
509.643	4.16
509.845	4.18
510.046	4.14
510.247	4.15
510.448	4.15
510.65	4.18
510.851	4.22
511.052	4.24
511.254	4.32
511.455	4.34
511.656	4.27
511.857	4.15
512.058	4.17
512.26	4.11
512.461	4.13
512.662	4.2
512.863	4.36
513.064	4.43
513.265	4.4
513.466	4.39
513.667	4.43
513.868	4.36
514.069	4.31
514.27	4.32
514.471	4.34
514.672	4.3
514.873	4.32
515.074	4.32
515.275	4.34
515.476	4.36
515.677	4.34
515.878	4.38
516.079	4.39
516.28	4.39
516.481	4.42
516.682	4.46
516.882	4.48
517.083	4.51
517.284	4.54
517.485	4.5
517.686	4.47
517.886	4.49
518.087	4.47
518.288	4.47
518.488	4.57
518.689	4.58
518.89	4.6
519.091	4.65
519.291	4.6
519.492	4.53
519.692	4.6
519.893	4.52
520.094	4.51
520.294	4.58
520.495	4.62
520.695	4.61
520.896	4.67
521.096	4.68
521.297	4.71
521.497	4.72
521.698	4.75
521.898	4.74
522.099	4.75
522.299	4.74
522.499	4.77
522.7	4.79
522.9	4.84
523.101	4.77
523.301	4.79
523.501	4.8
523.702	4.75
523.902	4.74
524.102	4.79
524.302	4.83
524.503	4.78
524.703	4.83
524.903	4.85
525.103	4.91
525.304	4.85
525.504	4.89
525.704	4.84
525.904	4.86
526.104	4.86
526.304	4.94
526.504	4.95
526.705	4.99
526.905	4.99
527.105	4.95
527.305	4.92
527.505	4.91
527.705	4.96
527.905	4.99
528.105	4.99
528.305	4.99
528.505	5
528.705	4.97
528.905	5.01
529.105	5.08
529.304	5.13
529.504	5.2
529.704	5.27
529.904	5.25
530.104	5.29
530.304	5.32
530.503	5.32
530.703	5.26
530.903	5.28
531.103	5.26
531.303	5.26
531.502	5.3
531.702	5.34
531.902	5.36
532.101	5.37
532.301	5.35
532.501	5.3
532.7	5.34
532.9	5.38
533.1	5.41
533.299	5.46
533.499	5.49
533.698	5.47
533.898	5.49
534.097	5.54
534.297	5.5
534.496	5.46
534.696	5.49
534.895	5.42
535.095	5.42
535.294	5.49
535.494	5.53
535.693	5.55
535.892	5.63
536.092	5.63
536.291	5.65
536.491	5.77
536.69	5.77
536.889	5.83
537.088	5.82
537.288	5.8
537.487	5.77
537.686	5.82
537.886	5.8
538.085	5.91
538.284	5.93
538.483	5.99
538.682	6.02
538.882	6.02
539.081	5.93
539.28	5.96
539.479	5.98
539.678	5.99
539.877	6
540.076	6.1
540.275	6.18
540.474	6.12
540.673	6.12
540.872	6.16
541.071	6.2
541.27	6.29
541.469	6.28
541.668	6.3
541.867	6.41
542.066	6.43
542.265	6.42
542.464	6.57
542.663	6.6
542.862	6.61
543.06	6.65
543.259	6.62
543.458	6.65
543.657	6.72
543.856	6.76
544.054	6.72
544.253	6.79
544.452	6.84
544.651	6.83
544.849	6.89
545.048	6.98
545.247	7.03
545.445	7.04
545.644	7.12
545.843	7.16
546.041	7.14
546.24	7.19
546.438	7.2
546.637	7.25
546.836	7.29
547.034	7.38
547.233	7.46
547.431	7.58
547.63	7.65
547.828	7.68
548.027	7.71
548.225	7.73
548.423	7.77
548.622	7.77
548.82	7.77
549.019	7.85
549.217	7.78
549.415	7.85
549.614	7.94
549.812	8
550.01	8.07
550.209	8.23
550.407	8.28
550.605	8.35
550.803	8.38
551.002	8.46
551.2	8.52
551.398	8.54
551.596	8.58
551.794	8.68
551.993	8.74
552.191	8.87
552.389	8.9
552.587	8.97
552.785	9.03
552.983	9.03
553.181	9.03
553.379	9.11
553.577	9.16
553.775	9.2
553.973	9.3
554.171	9.32
554.369	9.42
554.567	9.5
554.765	9.57
554.963	9.64
555.161	9.79
555.359	9.88
555.557	9.92
555.755	9.98
555.952	10.07
556.15	10.12
556.348	10.21
556.546	10.29
556.744	10.35
556.941	10.35
557.139	10.44
557.337	10.47
557.535	10.63
557.732	10.74
557.93	10.81
558.128	10.86
558.325	10.87
558.523	10.84
558.721	10.89
558.918	11.04
559.116	11.12
559.313	11.22
559.511	11.3
559.708	11.43
559.906	11.51
560.104	11.6
560.301	11.67
560.498	11.78
560.696	11.81
560.893	11.87
561.091	11.96
561.288	12.02
561.486	12.08
561.683	12.14
561.88	12.2
562.078	12.22
562.275	12.3
562.473	12.37
562.67	12.4
562.867	12.44
563.064	12.48
563.262	12.56
563.459	12.61
563.656	12.62
563.853	12.63
564.051	12.82
564.248	12.83
564.445	12.93
564.642	13.03
564.839	13.19
565.036	13.17
565.234	13.23
565.431	13.17
565.628	13.21
565.825	13.16
566.022	13.13
566.219	13.22
566.416	13.32
566.613	13.45
566.81	13.56
567.007	13.62
567.204	13.63
567.401	13.64
567.598	13.65
567.795	13.71
567.991	13.78
568.188	13.88
568.385	13.85
568.582	13.88
568.779	13.86
568.976	13.86
569.172	13.85
569.369	13.9
569.566	13.99
569.763	13.96
569.96	14
570.156	14.04
570.353	14.15
570.55	14.18
570.746	14.21
570.943	14.25
571.14	14.25
571.336	14.25
571.533	14.2
571.729	14.26
571.926	14.24
572.123	14.22
572.319	14.24
572.516	14.28
572.712	14.28
572.909	14.39
573.105	14.3
573.302	14.27
573.498	14.17
573.695	14.14
573.891	14.03
574.087	14.18
574.284	14.18
574.48	14.26
574.677	14.26
574.873	14.27
575.069	14.24
575.266	14.21
575.462	14.2
575.658	14.17
575.854	14.21
576.051	14.17
576.247	14.19
576.443	14.2
576.639	14.26
576.835	14.25
577.032	14.24
577.228	14.28
577.424	14.15
577.62	14.14
577.816	14.02
578.012	14.06
578.208	13.88
578.404	13.94
578.6	13.93
578.796	13.98
578.993	13.95
579.189	14
579.384	14.06
579.58	14.01
579.776	14.04
579.972	13.99
580.168	13.96
580.364	13.9
580.56	13.88
580.756	13.8
580.952	13.81
581.148	13.79
581.343	13.73
581.539	13.65
581.735	13.64
581.931	13.56
582.127	13.58
582.322	13.6
582.518	13.6
582.714	13.56
582.909	13.57
583.105	13.5
583.301	13.46
583.496	13.46
583.692	13.47
583.888	13.4
584.083	13.42
584.279	13.45
584.474	13.4
584.67	13.37
584.866	13.36
585.061	13.35
585.257	13.28
585.452	13.33
585.648	13.33
585.843	13.31
586.039	13.28
586.234	13.24
586.429	13.18
586.625	13.1
586.82	13.17
587.015	13.18
587.211	13.24
587.406	13.23
587.601	13.3
587.797	13.22
587.992	13.18
588.187	13.1
588.383	13.17
588.578	13.16
588.773	13.13
588.968	13.14
589.163	13.14
589.359	13
589.554	13.04
589.749	13.11
589.944	13.1
590.139	13.16
590.334	13.31
590.529	13.3
590.724	13.31
590.919	13.34
591.114	13.33
591.309	13.25
591.504	13.2
591.699	13.19
591.894	13.24
592.089	13.3
592.284	13.31
592.479	13.33
592.674	13.42
592.869	13.47
593.064	13.46
593.259	13.54
593.454	13.63
593.648	13.66
593.843	13.69
594.038	13.78
594.233	13.81
594.428	13.84
594.622	13.87
594.817	13.95
595.012	14.01
595.206	14.07
595.401	14.12
595.596	14.12
595.79	14.12
595.985	14.09
596.18	14.23
596.374	14.32
596.569	14.46
596.763	14.5
596.958	14.63
597.153	14.57
597.347	14.6
597.542	14.59
597.736	14.65
597.931	14.67
598.125	14.8
598.319	14.87
598.514	14.93
598.708	15.02
598.903	15.06
599.097	15.07
599.291	15.02
599.486	15.05
599.68	15.03
599.874	14.97
600.069	15.02
600.263	15.17
600.457	15.17
600.651	15.2
600.846	15.35
601.04	15.31
601.234	15.28
601.428	15.26
601.622	15.33
601.817	15.27
602.011	15.32
602.205	15.34
602.399	15.42
602.593	15.38
602.787	15.43
602.981	15.47
603.175	15.49
603.369	15.46
603.563	15.45
603.757	15.44
603.951	15.37
604.145	15.33
604.339	15.33
604.533	15.35
604.727	15.31
604.921	15.26
605.115	15.22
605.309	15.21
605.502	15.23
605.696	15.25
605.89	15.25
606.084	15.26
606.278	15.27
606.471	15.2
606.665	15.11
606.859	15.09
607.053	15.06
607.246	14.96
607.44	14.91
607.634	14.81
607.827	14.8
608.021	14.73
608.214	14.69
608.408	14.65
608.602	14.78
608.795	14.71
608.989	14.67
609.182	14.64
609.376	14.6
609.569	14.38
609.763	14.35
609.956	14.2
610.15	14.12
610.343	14.09
610.537	14.06
610.73	14.01
610.923	13.96
611.117	13.86
611.31	13.75
611.504	13.7
611.697	13.65
611.89	13.63
612.083	13.58
612.277	13.53
612.47	13.53
612.663	13.43
612.856	13.32
613.05	13.34
613.243	13.31
613.436	13.16
613.629	13.13
613.822	13.12
614.015	13.07
614.209	12.96
614.402	12.95
614.595	12.93
614.788	12.93
614.981	12.85
615.174	12.81
615.367	12.7
615.56	12.59
615.753	12.51
615.946	12.46
616.139	12.43
616.332	12.45
616.525	12.48
616.718	12.47
616.911	12.43
617.103	12.44
617.296	12.31
617.489	12.27
617.682	12.29
617.875	12.2
618.067	12.08
618.26	12.17
618.453	12.09
618.646	11.96
618.838	11.9
619.031	11.79
619.224	11.74
619.417	11.78
619.609	11.78
619.802	11.89
619.994	11.97
620.187	11.89
620.38	11.78
620.572	11.67
620.765	11.51
620.957	11.49
621.15	11.45
621.342	11.46
621.535	11.39
621.727	11.4
621.92	11.33
622.112	11.37
622.305	11.32
622.497	11.45
622.69	11.4
622.882	11.42
623.074	11.37
623.267	11.33
623.459	11.28
623.651	11.25
623.844	11.28
624.036	11.21
624.228	11.28
624.42	11.23
624.613	11.25
624.805	11.19
624.997	11.19
625.189	11.09
625.381	11.1
625.574	11.13
625.766	11.1
625.958	11.15
626.15	11.11
626.342	11.1
626.534	11.03
626.726	11.1
626.918	11.03
627.11	11.05
627.302	11
627.494	11.01
627.686	10.86
627.878	10.8
628.07	10.79
628.262	10.78
628.454	10.72
628.646	10.8
628.838	10.79
629.029	10.76
629.221	10.75
629.413	10.72
629.605	10.67
629.797	10.63
629.989	10.61
630.18	10.59
630.372	10.55
630.564	10.5
630.755	10.48
630.947	10.42
631.139	10.36
631.33	10.27
631.522	10.17
631.714	10.11
631.905	10.15
632.097	10.08
632.289	10.23
632.48	10.31
632.672	10.26
632.863	10.19
633.055	10.17
633.246	10.06
633.438	9.99
633.629	10.02
633.821	10.02
634.012	10.1
634.203	10.12
634.395	10.11
634.586	10.19
634.777	10.2
634.969	10.1
635.16	10.12
635.351	10.21
635.543	10.17
635.734	10.17
635.925	10.17
636.117	10.14
636.308	10.06
636.499	10.05
636.69	10.04
636.881	10.05
637.073	10.09
637.264	10.05
637.455	10.04
637.646	10.06
637.837	10.09
638.028	10.06
638.219	10.08
638.41	10.07
638.601	10
638.792	9.99
638.983	10
639.174	10.02
639.365	9.98
639.556	10.02
639.747	10.01
639.938	10.01
640.129	9.98
640.32	9.99
640.511	9.99
640.701	9.95
640.892	9.89
641.083	9.81
641.274	9.77
641.465	9.75
641.655	9.8
641.846	9.83
642.037	9.9
642.228	9.85
642.418	9.73
642.609	9.65
642.8	9.59
642.99	9.5
643.181	9.55
643.372	9.58
643.562	9.63
643.753	9.55
643.943	9.6
644.134	9.53
644.324	9.52
644.515	9.48
644.705	9.51
644.896	9.5
645.086	9.53
645.277	9.53
645.467	9.53
645.658	9.55
645.848	9.5
646.038	9.46
646.229	9.48
646.419	9.42
646.61	9.39
646.8	9.43
646.99	9.43
647.18	9.4
647.371	9.37
647.561	9.41
647.751	9.42
647.941	9.47
648.132	9.5
648.322	9.54
648.512	9.5
648.702	9.44
648.892	9.4
649.082	9.36
649.272	9.36
649.462	9.3
649.653	9.29
649.843	9.33
650.033	9.25
650.223	9.15
650.413	9.17
650.603	9.14
650.793	9
650.983	9.06
651.172	9.09
651.362	9.03
651.552	9.05
651.742	9.11
651.932	9.08
652.122	9.07
652.312	9.02
652.502	8.91
652.691	8.85
652.881	8.79
653.071	8.76
653.261	8.71
653.45	8.58
653.64	8.48
653.83	8.37
654.019	8.29
654.209	8.23
654.399	8.17
654.588	8.11
654.778	8.03
654.968	7.88
655.157	7.83
655.347	7.81
655.536	7.77
655.726	7.65
655.915	7.59
656.105	7.47
656.294	7.36
656.484	7.24
656.673	7.29
656.863	7.19
657.052	7.15
657.241	7.19
657.431	7.1
657.62	6.93
657.809	6.8
657.999	6.71
658.188	6.53
658.377	6.49
658.567	6.42
658.756	6.37
658.945	6.31
659.134	6.2
659.324	6.09
659.513	6.09
659.702	6.02
659.891	5.99
660.08	5.91
660.269	5.81
660.458	5.62
660.648	5.55
660.837	5.41
661.026	5.32
661.215	5.29
661.404	5.22
661.593	5.1
661.782	5.01
661.971	4.95
662.16	4.87
662.349	4.73
662.538	4.71
662.726	4.78
662.915	4.89
663.104	4.81
663.293	4.83
663.482	4.84
663.671	4.68
663.86	4.56
664.048	4.54
664.237	4.47
664.426	4.42
664.615	4.39
664.803	4.25
664.992	4.22
665.181	4.22
665.369	4.12
665.558	4.1
665.747	4.17
665.935	4.1
666.124	4.14
666.312	4.07
666.501	4.12
666.69	4.09
666.878	4.16
667.067	4.11
667.255	4.19
667.444	4.05
667.632	3.97
667.82	3.88
668.009	3.86
668.197	3.92
668.386	3.95
668.574	3.98
668.762	4.03
668.951	4.05
669.139	4.01
669.327	4.1
669.516	4.06
669.704	4.06
669.892	4.05
670.08	3.99
670.269	3.96
670.457	4.02
670.645	4.12
670.833	4.15
671.021	4.09
671.21	4.11
671.398	4.04
671.586	3.93
671.774	3.92
671.962	4.15
672.15	4.25
672.338	4.39
672.526	4.5
672.714	4.56
672.902	4.47
673.09	4.34
673.278	4.24
673.466	4.22
673.654	4.24
673.842	4.4
674.03	4.6
674.218	4.73
674.405	4.81
674.593	4.84
674.781	4.77
674.969	4.65
675.157	4.65
675.344	4.68
675.532	4.6
675.72	4.71
675.908	4.82
676.095	4.89
676.283	4.91
676.471	5.05
676.658	5.13
676.846	5.18
677.033	5.26
677.221	5.26
677.409	5.3
677.596	5.34
677.784	5.36
677.971	5.4
678.159	5.46
678.346	5.44
678.534	5.46
678.721	5.42
678.909	5.41
679.096	5.45
679.283	5.49
679.471	5.47
679.658	5.59
679.846	5.68
680.033	5.74
680.22	5.86
680.408	5.86
680.595	5.85
680.782	5.95
680.969	6.05
681.157	6.15
681.344	6.21
681.531	6.26
681.718	6.23
681.905	6.27
682.093	6.26
682.28	6.39
682.467	6.5
682.654	6.49
682.841	6.6
683.028	6.76
683.215	6.92
683.402	7.08
683.589	7.31
683.776	7.4
683.963	7.44
684.15	7.42
684.337	7.46
684.524	7.46
684.711	7.39
684.898	7.6
685.085	7.75
685.271	7.86
685.458	8.03
685.645	8.29
685.832	8.27
686.019	8.61
686.205	8.69
686.392	8.89
686.579	9.07
686.766	9.25
686.952	9.22
687.139	9.41
687.326	9.6
687.512	9.79
687.699	9.96
687.886	10.14
688.072	10.43
688.259	10.64
688.445	10.93
688.632	11.31
688.818	11.55
689.005	11.85
689.191	12.1
689.378	12.35
689.564	12.66
689.751	13.17
689.937	13.46
690.124	13.92
690.31	14.17
690.496	14.48
690.683	14.69
690.869	15.09
691.055	15.36
691.242	15.67
691.428	16
691.614	16.3
691.8	16.62
691.987	17
692.173	17.44
692.359	17.85
692.545	18.22
692.731	18.77
692.918	18.94
693.104	19.25
693.29	19.66
693.476	20.22
693.662	20.57
693.848	21.37
694.034	21.96
694.22	22.55
694.406	23.15
694.592	23.63
694.778	24.12
694.964	24.54
695.15	24.91
695.336	25.08
695.522	25.45
695.708	25.99
695.894	26.47
696.08	27.03
696.265	27.82
696.451	28.65
696.637	29.25
696.823	30
697.009	30.72
697.194	31.13
697.38	31.38
697.566	31.72
697.751	32.19
697.937	32.49
698.123	32.95
698.308	33.32
698.494	33.93
698.68	34.28
698.865	34.72
699.051	35.13
699.236	35.99
699.422	36.28
699.607	36.88
699.793	37.46
699.978	38.09
700.164	38.21
700.349	38.72
700.535	39.18
700.72	39.41
700.906	39.8
701.091	40.21
701.276	40.57
701.462	41.04
701.647	41.68
701.832	41.81
702.018	42.26
702.203	42.63
702.388	42.97
702.573	43.44
702.759	43.74
702.944	44.18
703.129	44.49
703.314	45.01
703.499	45.29
703.684	45.95
703.87	46.3
704.055	46.49
704.24	46.63
704.425	46.89
704.61	47.47
704.795	47.85
704.98	48.34
705.165	48.67
705.35	49.01
705.535	48.98
705.72	49.32
705.905	49.59
706.09	49.87
706.275	50.23
706.459	50.55
706.644	50.81
706.829	51.17
707.014	51.36
707.199	51.6
707.384	51.99
707.568	52.37
707.753	52.51
707.938	52.58
708.123	52.67
708.307	52.81
708.492	52.88
708.677	52.91
708.861	53.21
709.046	53.42
709.231	53.73
709.415	53.72
709.6	54
709.784	54.27
709.969	54.28
710.153	54.39
710.338	54.89
710.522	55.41
710.707	55.77
710.891	55.83
711.076	55.96
711.26	56.08
711.445	55.68
711.629	55.49
711.813	55.72
711.998	55.35
712.182	55.61
712.366	56.26
712.551	56.28
712.735	56.47
712.919	56.78
713.103	56.74
713.288	56.69
713.472	57.16
713.656	57.28
713.84	57.94
714.024	57.74
714.208	58.2
714.393	58.32
714.577	59.03
714.761	58.76
714.945	58.76
715.129	58.3
715.313	58.5
715.497	58.39
715.681	58.61
715.865	59.04
716.049	59.74
716.233	59.97
716.417	59.64
716.601	59.45
716.785	59.8
716.968	59.5
717.152	59.48
717.336	59.74
717.52	60.18
717.704	60.22
717.888	60.65
718.071	60.37
718.255	60.16
718.439	60.59
718.622	60.66
718.806	60.5
718.99	60.71
719.174	61.1
719.357	60.56
719.541	61.03
719.724	61.03
719.908	61.88
720.092	61.9
720.275	62.22
720.459	61.93
720.642	62.06
720.826	61.8
721.009	61.51
721.193	61.53
721.376	61.56
721.559	61.76
721.743	62.01
721.926	63
722.11	63.55
722.293	63.58
722.476	63.21
722.66	62.81
722.843	62.36
723.026	62.66
723.21	62.96
723.393	63.54
723.576	63.62
723.759	63.94
723.942	63.81
724.126	63.74
724.309	63.85
724.492	64.04
724.675	64.08
724.858	64.08
725.041	64.06
725.224	64.42
725.407	64.56
725.59	65.19
725.774	64.9
725.957	65.58
726.14	65.81
726.322	65.64
726.505	65.45
726.688	66.06
726.871	65.63
727.054	65.64
727.237	66.06
727.42	66.21
727.603	66.59
727.786	66.7
727.968	66.97
728.151	67.47
728.334	67.7
728.517	67.39
728.699	67.33
728.882	66.76
729.065	66.83
729.248	67.12
729.43	67.37
729.613	68.31
729.796	68.79
729.978	69.23
730.161	68.46
730.343	69.17
730.526	68.92
730.708	69.16
730.891	69.05
731.073	69.66
731.256	69.54
731.438	70.4
731.621	70.67
731.803	70.63
731.986	71.31
732.168	71.33
732.35	70.98
732.533	71.37
732.715	71.95
732.898	71.94
733.08	72.05
733.262	71.91
733.444	72.36
733.627	71.87
733.809	72.24
733.991	72.05
734.173	72.74
734.355	72.13
734.538	72.5
734.72	72.32
734.902	72.66
735.084	72.65
735.266	72.76
735.448	73
735.63	73.67
735.812	74.32
735.994	73.95
736.176	74.66
736.358	73.29
736.54	72.18
736.722	71.85
736.904	72.44
737.086	71.6
737.268	73.3
737.45	74.37
737.632	74.82
737.814	74.94
737.995	75.69
738.177	76.01
738.359	76.05
738.541	76.11
738.723	76.42
738.904	76.66
739.086	76.33
739.268	76.4
739.449	75.94
739.631	75.67
739.813	75.07
739.994	75.04
740.176	75.04
740.358	74.73
740.539	74.25
740.721	74.7
740.902	75.34
741.084	74.7
741.265	76.28
741.447	76.86
741.628	77.08
741.81	76.51
741.991	77.16
742.172	75.87
742.354	76.08
742.535	76.37
742.717	76.35
742.898	76.41
743.079	77.62
743.261	77.22
743.442	77.92
743.623	78.15
743.804	78.03
743.986	77.86
744.167	78.02
744.348	77.66
744.529	77.62
744.71	77.67
744.891	77.16
745.073	77.56
745.254	76.96
745.435	76.61
745.616	76.27
745.797	76.61
745.978	76.91
746.159	77.67
746.34	77.7
746.521	78.44
746.702	78.12
746.883	78.14
747.064	77.73
747.245	78.71
747.426	79.04
747.606	79.81
747.787	79.14
747.968	79.15
748.149	79
748.33	78.2
748.51	77.21
748.691	77.63
748.872	78.04
749.053	78.63
749.233	80.19
749.414	80.32
749.595	80.14
749.775	80.14
749.956	79.08
750.137	77.76
750.317	77.52
750.498	77.54
750.678	76.8
750.859	76.88
751.04	77.15
751.22	78.31
751.4	78.41
751.581	78.49
751.761	77.73
751.942	77.32
752.122	77.18
752.303	76.97
752.483	78.17
752.663	79.23
752.844	79.24
753.024	79.65
753.204	80.3
753.385	79.4
753.565	79.55
753.745	79.13
753.925	77.18
754.106	76.95
754.286	76.99
754.466	76.67
754.646	78.02
754.826	79.42
755.006	80.11
755.187	78.77
755.367	78.68
755.547	78.47
755.727	77.66
755.907	77.14
756.087	77.6
756.267	77.5
756.447	76.91
756.627	78.14
756.807	77.96
756.987	79.56
757.167	81.11
757.346	80.75
757.526	80.26
757.706	80.83
757.886	80.88
758.066	79.58
758.246	80.18
758.425	82.25
758.605	81.99
758.785	81.92
758.965	82.02
759.144	82.51
759.324	79.99
759.504	78.85
759.683	78.27
759.863	77.2
760.043	77.08
760.222	77.86
760.402	77.89
760.581	78.79
760.761	79.55
760.94	78.91
761.12	77.53
761.299	77.83
761.479	76.01
761.658	75.79
761.838	76.31
762.017	77.86
762.197	78.41
762.376	79.28
762.555	79.17
762.735	77.74
762.914	76.9
763.093	75.3
763.273	74.96
763.452	76.61
763.631	77.3
763.81	78.42
763.99	80.08
764.169	80.8
764.348	80.09
764.527	80.69
764.706	78.84
764.885	78.26
765.064	77.46
765.243	77.68
765.423	77.11
765.602	78.21
765.781	78.59
765.96	78.93
766.139	78.14
766.318	79.63
766.497	79.47
766.676	79.61
766.854	78.49
767.033	79.55
767.212	77.17
767.391	77.69
767.57	76.64
767.749	77.65
767.928	77.11
768.106	78.4
768.285	78.13
768.464	79.37
768.643	79.83
768.821	77.75
769	76.84
769.179	77.21
769.357	78.49
769.536	78.51
769.715	78.5
769.893	78.18
770.072	76.58
770.25	76.21
770.429	75.6
770.607	77.25
770.786	78.71
770.964	77.55
771.143	76.14
771.321	74.72
771.5	72.73
771.678	72.85
771.857	75.61
772.035	74.93
772.213	76.05
772.392	76.57
772.57	74.19
772.748	74.32
772.927	75.66
773.105	74.89
773.283	76.87
773.461	78.66
773.64	76.35
773.818	75.78
773.996	75.66
774.174	72.86
774.352	70.69
774.531	70.1
774.709	71.35
774.887	72.2
775.065	74.24
775.243	75.98
775.421	75.72
775.599	72.79
775.777	72.82
775.955	71.13
776.133	73
776.311	73.56
776.489	74.92
776.667	74.19
776.844	76.09
777.022	74.81
777.2	74.38
777.378	73.69
777.556	74.85
777.734	73.2
777.911	74.26
778.089	76.77
778.267	77.38
778.445	78.15
778.622	80.26
778.8	76.68
778.978	75.24
779.155	73.96
779.333	72.74
779.511	71.65
779.688	70.92
779.866	71.77
780.043	74.35
780.221	74.66
780.398	75.16
780.576	77.16
780.753	78.5
780.931	75.07
781.108	75.72
781.286	75.42
781.463	75.75
781.64	73.07
781.818	74.29
781.995	72.94
782.172	73.43
782.35	74.14
782.527	74.91
782.704	75.06
782.882	76.24
783.059	74.72
783.236	73.4
783.413	74.07
783.59	75.74
783.768	76.32
783.945	76.51
784.122	76.69
784.299	77.1
784.476	73.63
784.653	74.33
784.83	76.35
785.007	77.57
785.184	77.79
785.361	79.72
785.538	76.09
785.715	75.24
785.892	73.36
786.069	71.15
786.246	70.48
786.423	70.47
786.6	71.12
786.776	74.05
786.953	75.57
787.13	77.1
787.307	76.84
787.484	75.42
787.66	74.3
787.837	72.63
788.014	72.62
788.191	73.91
788.367	72.52
788.544	70.51
788.721	73.22
788.897	71.87
789.074	70.32
789.25	71.47
789.427	72.73
789.603	71.07
789.78	72.17
789.956	73.01
790.133	71.59
790.309	73.58
790.486	70.72
790.662	69.74
790.839	71.68
791.015	72.22
791.192	69.74
791.368	71.73
791.544	73.05
791.721	72.1
791.897	73.18
792.073	74.18
792.249	75.09
792.426	74.06
792.602	69.75
792.778	73.85
792.954	73.81
793.13	75.67
793.307	76.07
793.483	80.36
793.659	78.08
793.835	75.71
794.011	73.76
794.187	72.76
794.363	72.33
794.539	68.29
794.715	71.65
794.891	74.16
795.067	74.74
795.243	77.43
795.419	79.95
795.595	77.18
795.771	77.98
795.947	77.59
796.122	77.35
796.298	76.56
796.474	76.02
796.65	72.34
796.826	70.84
797.001	68.2
797.177	67.8
797.353	68.98
797.529	72.38
797.704	73.2
797.88	77.24
798.056	79.51
798.231	79.86
798.407	76.94
798.582	77.28
798.758	71
798.934	67.32
799.109	66.44
799.285	65.91
799.46	67.52
799.636	69.9
799.811	68.94
799.986	66.46
800.162	69.17
800.337	63.68
800.513	63.7
800.688	67.9
800.863	69.38
801.039	62.46
801.214	67.11
801.389	68.63
801.565	69.71
801.74	69.69
801.915	69.75
802.09	66.94
802.265	61.67
802.441	60.28
802.616	63.54
802.791	68.14
802.966	70.54
803.141	76.57
803.316	80.71
803.491	81.43
803.666	75.97
803.841	73.74
804.016	74.33
804.191	69.26
804.366	68.57
804.541	76.35
804.716	77.52
804.891	73.47
805.066	71.27
805.241	69.71
805.416	63.42
805.591	65.14
805.765	63.55
805.94	63.88
806.115	65.99
806.29	73.89
806.464	67.05
806.639	68.61
806.814	69.66
806.989	70.64
807.163	64.69
807.338	66.53
807.512	64.69
807.687	67.21
807.862	62.75
808.036	59.18
808.211	66.5
808.385	67.13
808.56	62.22
808.734	65.87
808.909	70.27
809.083	70.38
809.258	65.29
809.432	69.99
809.606	71.26
809.781	69.49
809.955	64.42
810.13	65.88
810.304	69.18
810.478	75.61
810.652	77.52
810.827	81.34
811.001	84.27
811.175	78.04
811.349	71.01
811.524	63.77
811.698	57.83
811.872	62.47
812.046	68.06
812.22	63.08
812.394	73.44
812.568	88.99
812.742	83.61
812.916	78.37
813.09	80.52
813.264	75
813.438	76.02
813.612	81.71
813.786	80.93
813.96	72.43
814.134	82.17
814.308	68.3
814.482	63.08
814.656	66.46
814.83	66.6
815.003	57.94
815.177	64.4
815.351	67.12
815.525	57.57
815.698	61.5
815.872	69.87
816.046	63
816.219	62.26
816.393	57.98
816.567	68.07
816.74	63.7
816.914	61.98
817.088	62.06
817.261	64.44
817.435	57.4
817.608	50.4
817.782	57.53
817.955	58.5
818.129	67.08
818.302	63.82
818.475	58.67
818.649	48.61
818.822	46.87
818.996	33.73
819.169	44.28
819.342	50.32
819.516	58.56
819.689	54.06
819.862	73.74
820.035	76.67
820.209	72.94
820.382	65.44
820.555	63.96
820.728	46.68
820.901	47.53
821.075	55.02
821.248	53.51
821.421	61.15
821.594	68.81
821.767	66.96
821.94	59.16
822.113	62.45
822.286	46.83
822.459	45.03
822.632	45.93
822.805	42.6
822.978	48.92
823.151	60.27
823.324	72.58
823.496	67.83
823.669	70.58
823.842	61.34
824.015	67.03
824.188	53.2
824.361	46.28
824.533	52.69
824.706	52.37
824.879	46.86
825.051	47.25
825.224	57.27
825.397	51.33
825.569	54.75
825.742	59.9
825.915	57.8
826.087	52.57
826.26	59.8
826.432	67.04
826.605	65.46
826.777	61.51
826.95	64.36
827.122	58.66
827.295	41.23
827.467	47.39
827.64	50.11
827.812	70.73
827.984	62.19
828.157	72.55
828.329	74.53
828.501	87.09
828.674	63.44
828.846	83.94
829.018	80.66
829.19	66.77
829.363	62.01
829.535	58.34
829.707	44.3
829.879	44.38
830.051	46.1
830.223	41.64
830.395	46.76
830.568	60.51
830.74	62.94
830.912	69.81
831.084	73.8
831.256	78.82
831.428	65.4
831.6	60.31
831.772	62.92
831.943	63.19
832.115	50.12
832.287	50.46
832.459	61.12
832.631	42.16
832.803	33.11
832.975	43.98
833.146	46.31
833.318	50.34
833.49	66.88
833.662	64.15
833.833	58.62
834.005	61.99
834.177	54.55
834.348	53.61
834.52	61.72
834.692	67.91
834.863	93.71
835.035	84.74
835.206	81.53
835.378	83.98
835.549	84.44
835.721	60.03
835.892	61.42
836.064	55.65
836.235	51.1
836.407	49.83
836.578	47.49
836.749	41.14
836.921	28.95
837.092	31.23
837.264	43.3
837.435	28.81
837.606	27.32
837.777	47.26
837.949	44.85
838.12	34.89
838.291	49.18
838.462	60.33
838.633	45.98
838.805	49.39
838.976	61.93
839.147	54.9
839.318	61.97
839.489	63.43
839.66	66.47
839.831	55.11
840.002	55.83
840.173	56.74
840.344	55.13
840.515	49.18
840.686	35.9
840.857	44.08
841.028	43.28
841.199	41.45
841.369	39.84
841.54	71.92
841.711	88.72
841.882	87.21
842.053	92.81
842.223	93.33
842.394	63.13
842.565	46.1
842.736	41.94
842.906	41.78
843.077	55.88
843.248	47.18
843.418	41.56
843.589	57.4
843.759	33.56
843.93	31.35
844.101	32.75
844.271	35.86
844.442	26.48
844.612	5.27
844.783	4.27
844.953	16.93
845.123	22.28
845.294	-5.48
845.464	24.94
845.635	50.52
845.805	78.88
845.975	84.6
846.146	96.55
846.316	99.66
846.486	95.05
846.656	75.14
846.827	93.13
846.997	86.79
847.167	87.53
847.337	85.63
847.507	86.46
847.677	70.85
847.848	71.36
848.018	70.42
848.188	81.75
848.358	86.53
848.528	66.35
848.698	77.41
848.868	88.22
849.038	63.58
849.208	66.36
849.378	71.43
849.548	72.01
849.718	64.75
849.887	69.12
850.057	69.92
850.227	75.29
850.397	76.27
850.567	70.86
850.737	56.97
850.906	42.57
851.076	40.47
851.246	-2.97
851.415	15.12
851.585	27.63
851.755	52.85
851.924	62.33
852.094	44.72
852.264	19.99
852.433	16.94
852.603	5.7
852.772	-11.05
852.942	0.16
853.111	-1.99
853.281	8.98
853.45	-13.23
853.62	9.81
853.789	23.39
853.959	29.74
854.128	58.42
854.297	73.5
854.467	54.74
854.636	33.5
854.805	5.75
854.975	-185.15
855.144	-25.79
855.313	-45.34
855.482	48.63
855.652	40.42
855.821	50.39
855.99	35.8
856.159	44.07
856.328	30.12
856.497	46.21
856.667	51.17
856.836	47.49
857.005	47.13
857.174	42.6
857.343	42.03
857.512	41.6
857.681	51.69
857.85	50.29
858.019	36.84
858.188	67.32
858.356	44.79
858.525	54.08
858.694	125.39
858.863	100.93
859.032	58.65
859.201	62.9
859.369	34.61
859.538	19.48
859.707	34.93
859.876	28.52
860.044	33.86
860.213	30.37
860.382	34.58
860.55	28.44
860.719	55.68
860.888	59.66
861.056	60.96
861.225	46.16
861.393	25.21
861.562	-0.93
861.73	-23.92
861.899	-0.77
862.067	1.88
862.236	37.34
862.404	56.99
862.572	53.37
862.741	56.12
862.909	64.07
863.078	49.38
863.246	38.79
863.414	24.94
863.582	2.91
863.751	23.61
863.919	27.91
864.087	4.61
864.255	25.87
864.424	49.65
864.592	18.23
864.76	19.77
864.928	56.65
865.096	46.15
865.264	31.22
865.432	47.48
865.6	43.59
865.768	47.29
865.936	36.26
866.104	38.4
866.272	46.36
866.44	60.34
866.608	35.8
866.776	63.06
866.944	52.95
867.112	43.05
867.28	43.92
867.448	45.07
867.615	40.91
867.783	51.5
867.951	89.12
868.119	52.12
868.286	54.27
868.454	33.88
868.622	35.94
868.789	0.7
868.957	-45.65
869.125	-20.02
869.292	13.37
869.46	0.94
869.627	26.13
869.795	45.99
869.963	35.46
870.13	26.03
870.298	30.48
870.465	22.55
870.632	34.48
870.8	56.85
870.967	79.39
871.135	61.91
871.302	49.5
871.469	23.38
871.637	13.04
871.804	28.89
871.971	45.92
872.139	59.28
872.306	43.49
872.473	54.4
872.64	32.26
872.807	7.22
872.975	0.22
873.142	52.15
873.309	58.74
873.476	85.09
873.643	91.89
873.81	102.06
873.977	53.52
874.144	13.06
874.311	50.51
874.478	86.57
874.645	97.51
874.812	118.34
874.979	110.49
875.146	119.26
875.313	77.53
875.48	48.14
875.647	65.54
875.813	76.73
875.98	44.35
876.147	48.78
876.314	48.19
876.481	36.58
876.647	-4.15
876.814	-22.43
876.981	352.05
877.147	312.99
877.314	-22.89
877.481	47.74
877.647	64.4
877.814	110.55
877.98	98.09
878.147	115.92
878.314	74
878.48	64.62
878.647	10.43
878.813	11.58
878.979	-9.47
879.146	20.63
879.312	35.53
879.479	51.78
879.645	35.06
879.811	45.32
879.978	92.99
880.144	56.61
880.31	159.55
880.477	148.36
880.643	99.23
880.809	21.93
880.975	-173.78
881.142	-153.15
881.308	-325.27
881.474	-80.75
881.64	-10.14
881.806	38.02
881.972	47.22
882.138	30.25
882.304	-73.16
882.47	46.01
882.636	-140.08
882.802	-179.65
882.968	-60.63
883.134	38.44
883.3	3.7
883.466	31.73
883.632	37.39
883.798	55.03
883.964	48.36
884.129	34.02
884.295	34.93
884.461	46.31
884.627	44.28
884.793	31.51
884.958	50.31
885.124	57.55
885.29	53
885.455	54.04
885.621	69.5
885.787	53.15
885.952	1.32
886.118	-107.74
886.283	41
886.449	117.61
886.614	62.49
886.78	51.95
886.945	200.92
887.111	167.11
887.276	1385.19
887.442	110.48
887.607	127.74
887.773	41.17
887.938	32.78
888.103	37.01
888.269	47.88
888.434	24.57
888.599	18.94
888.764	-16.29
888.93	-24.21
889.095	31.37
889.26	50.21
889.425	-361.9
889.59	-1077.33
889.756	252.01
889.921	379.49
890.086	313.62
890.251	-64.12
890.416	-105.04
890.581	-239.28
890.746	-73.51
890.911	-36.39
891.076	-45.11
891.241	8.21
891.406	49.25
891.571	7.14
891.736	26.43
891.901	31.59
892.065	5.77
892.23	-228.8
892.395	-61.76
892.56	-24.65
892.725	-73.87
892.889	-19.29
893.054	32.9
893.219	60.63
893.384	172.78
893.548	274.87
893.713	324.43
893.878	610.85
