Data from Ofav_PP_Phys_9DW32_Reflection_3.txt Node
Date: Tue Aug 03 18:07:12 EDT 2021
User: Adam
Spectrometer: FLMT01687
Trigger mode: 0
Integration Time (sec): 8.750000E-1
Scans to average: 2
Electric dark correction enabled: true
Nonlinearity correction enabled: false
Boxcar width: 2
XAxis mode: Wavelengths
Number of Pixels in Spectrum: 3648
>>>>>Begin Spectral Data<<<<<
179.494	177.03
179.716	189.02
179.937	232.61
180.158	274.41
180.38	423.68
180.601	51.75
180.823	62.58
181.044	47.41
181.265	73.35
181.486	-9.7
181.708	73.4
181.929	125.94
182.15	55.02
182.372	85.44
182.593	137.34
182.814	103.85
183.035	-81.91
183.257	385.29
183.478	37.42
183.699	-194.58
183.92	-24.63
184.141	-79.58
184.363	-0.45
184.584	-49.61
184.805	11.95
185.026	-24.27
185.247	-25.04
185.468	-1.71
185.689	-14.42
185.91	9.3
186.132	9.53
186.353	37.97
186.574	24.18
186.795	25.04
187.016	3.12
187.237	29.15
187.458	19.99
187.679	25.89
187.9	31.46
188.121	40.15
188.342	37
188.563	27.34
188.784	19.95
189.005	18.3
189.226	11.13
189.447	30.62
189.667	32.13
189.888	33.36
190.109	30.85
190.33	29.74
190.551	14.01
190.772	42.58
190.993	3.69
191.214	10.52
191.434	20.27
191.655	-2.5
191.876	-13.44
192.097	11.67
192.318	24.36
192.538	20.03
192.759	19.63
192.98	23.46
193.201	-6.51
193.421	-13.02
193.642	-20.48
193.863	3.77
194.083	17.33
194.304	46.54
194.525	25.33
194.745	19.81
194.966	31.66
195.187	30.8
195.407	23.42
195.628	39.69
195.848	47.08
196.069	25.67
196.29	2.12
196.51	-9.43
196.731	20.87
196.951	15.79
197.172	35.61
197.392	63.36
197.613	61.61
197.833	27.66
198.054	38.51
198.274	50.36
198.495	39.6
198.715	56.48
198.936	76.61
199.156	88.61
199.377	49.7
199.597	27.1
199.817	22.85
200.038	3.99
200.258	-25.67
200.479	-54.09
200.699	-27.97
200.919	-78.37
201.14	-5.66
201.36	-8.74
201.58	6.7
201.801	-15.36
202.021	12.07
202.241	7.4
202.461	18.09
202.682	31.05
202.902	68.18
203.122	48.03
203.342	51.49
203.563	57.41
203.783	47.97
204.003	45.08
204.223	45.21
204.443	30.94
204.663	26.74
204.884	20.37
205.104	22.63
205.324	7.93
205.544	10.4
205.764	20.44
205.984	0.14
206.204	-18.38
206.424	6.09
206.644	35.76
206.864	31.49
207.084	66.16
207.304	58.75
207.525	70.32
207.745	38.8
207.964	29.82
208.184	10.74
208.404	24.78
208.624	20.61
208.844	21.12
209.064	32.61
209.284	25.55
209.504	24.01
209.724	3.58
209.944	7.75
210.164	-9.69
210.384	11.47
210.604	-1.41
210.823	15.64
211.043	25.33
211.263	13.99
211.483	6.79
211.703	27.95
211.922	29.98
212.142	22.46
212.362	28.45
212.582	33.35
212.801	16.39
213.021	5.63
213.241	-26.08
213.461	8.55
213.68	6.04
213.9	2.64
214.12	2.47
214.339	24.44
214.559	21.92
214.779	30.8
214.998	27.8
215.218	43.4
215.438	44.71
215.657	40.63
215.877	30.97
216.096	13.09
216.316	-7.47
216.535	-25.13
216.755	-47.1
216.974	-6.43
217.194	47.59
217.413	67.83
217.633	72.08
217.852	72.48
218.072	60.55
218.291	47.38
218.511	31.86
218.73	32.41
218.95	31.5
219.169	30.54
219.389	35.69
219.608	42.47
219.827	14.97
220.047	17.8
220.266	18.86
220.485	19.79
220.705	27.31
220.924	31.01
221.143	33.61
221.363	42.41
221.582	46.56
221.801	-11.21
222.021	8.85
222.24	-1.72
222.459	-51.26
222.678	-32.36
222.897	18.07
223.117	3.77
223.336	-119.06
223.555	29.25
223.774	-5.64
223.993	-28.19
224.213	-31.44
224.432	1.44
224.651	5.59
224.87	25.29
225.089	11.2
225.308	12.04
225.527	22.09
225.746	-3.9
225.965	-17.28
226.184	5.87
226.404	4.41
226.623	21.87
226.842	33.13
227.061	18.73
227.28	16.82
227.499	45.97
227.718	35.4
227.936	33.98
228.155	41.04
228.374	54.78
228.593	43.74
228.812	22.97
229.031	21.43
229.25	28.19
229.469	-18.19
229.688	-80.89
229.907	-128.19
230.125	-86.45
230.344	-33.44
230.563	-33.42
230.782	-19.72
231.001	17.86
231.22	3.59
231.438	-13.34
231.657	-3.53
231.876	9.83
232.095	17.82
232.313	17.66
232.532	-0.75
232.751	7.41
232.969	29.75
233.188	25.7
233.407	22.96
233.625	51.28
233.844	39.93
234.063	-11.76
234.281	-10.23
234.5	-24.62
234.719	-61.28
234.937	-46.86
235.156	-33.39
235.374	-28.11
235.593	-5.14
235.811	-16.42
236.03	3.85
236.249	41.31
236.467	48.71
236.686	28.92
236.904	52.88
237.123	42.25
237.341	32.82
237.559	24.9
237.778	36.84
237.996	17.48
238.215	16.47
238.433	12.33
238.652	6.07
238.87	13.41
239.088	22.48
239.307	24.24
239.525	11.31
239.743	15.72
239.962	0.91
240.18	7.62
240.398	29.56
240.617	47.01
240.835	27.31
241.053	25.89
241.271	14.09
241.49	-4.21
241.708	6.01
241.926	29.95
242.144	39.52
242.363	34.16
242.581	27.88
242.799	20.55
243.017	27.37
243.235	40.96
243.453	40.01
243.672	43.1
243.89	47.19
244.108	37.09
244.326	15.48
244.544	-3.74
244.762	4.32
244.98	-5.58
245.198	22.67
245.416	34.71
245.634	56.03
245.852	51.36
246.07	48.62
246.288	29.8
246.506	53.86
246.724	51.93
246.942	57.24
247.16	53.1
247.378	28.51
247.596	17.52
247.814	23.71
248.032	25.63
248.25	22.18
248.468	34.28
248.685	25.24
248.903	-1.07
249.121	-30.25
249.339	-39.99
249.557	-15.89
249.775	-31.86
249.992	8.55
250.21	19.36
250.428	29.87
250.646	-4.37
250.863	-7.57
251.081	-34.62
251.299	-48.4
251.517	-19.24
251.734	17.95
251.952	29.83
252.17	32.76
252.387	28
252.605	15.05
252.823	-25.84
253.04	-38.13
253.258	1.06
253.475	15.82
253.693	17.96
253.911	34.08
254.128	31.74
254.346	27.93
254.563	26.66
254.781	29.13
254.998	14.06
255.216	18.78
255.433	9.56
255.651	21.19
255.868	-29.61
256.086	-45.16
256.303	-23.39
256.521	-9.78
256.738	-28.69
256.956	23.79
257.173	46.26
257.39	39.79
257.608	24.85
257.825	13.81
258.043	-50.37
258.26	-10.93
258.477	-8.7
258.695	-22.89
258.912	-25.35
259.129	11.72
259.346	-4.96
259.564	2.19
259.781	27.49
259.998	57.78
260.216	40.16
260.433	42.75
260.65	35.43
260.867	28.71
261.084	2.51
261.302	0.07
261.519	2.09
261.736	15.03
261.953	11.6
262.17	2.9
262.387	13.4
262.604	11.52
262.822	3.16
263.039	12.58
263.256	13.2
263.473	8.31
263.69	11.55
263.907	6.65
264.124	-25.24
264.341	-16.67
264.558	-27.54
264.775	-24
264.992	-24.01
265.209	-9.82
265.426	-18.61
265.643	-1.17
265.86	5.91
266.077	25.69
266.294	24.25
266.51	12.47
266.727	19.09
266.944	23.51
267.161	24.77
267.378	32.45
267.595	40.21
267.812	35.21
268.028	15.64
268.245	6.51
268.462	9.41
268.679	11.82
268.896	-13.05
269.112	5.57
269.329	0.61
269.546	-32.42
269.763	-21.39
269.979	11.53
270.196	12.34
270.413	11.14
270.629	6.27
270.846	12.22
271.063	-12.49
271.279	-8.31
271.496	3.84
271.712	-3.03
271.929	-5.58
272.146	28.39
272.362	13.61
272.579	15.73
272.795	25.66
273.012	22.06
273.228	14.17
273.445	35.3
273.661	31.81
273.878	31.63
274.094	33.09
274.311	30.56
274.527	9.75
274.744	3.71
274.96	22.92
275.177	-24.13
275.393	-12.73
275.609	8.31
275.826	6.79
276.042	11.41
276.259	34.11
276.475	24.13
276.691	10.54
276.908	5.1
277.124	8.48
277.34	15.83
277.557	11.77
277.773	21.56
277.989	36.83
278.205	38.23
278.422	53.17
278.638	57.42
278.854	66.08
279.07	54.97
279.286	50.35
279.503	34.31
279.719	28.92
279.935	28.93
280.151	24.2
280.367	12.37
280.583	-19.2
280.799	-12.89
281.016	-25.35
281.232	-30.67
281.448	-36.03
281.664	3.32
281.88	8.19
282.096	31.39
282.312	32.51
282.528	32.95
282.744	22.79
282.96	23.42
283.176	22.73
283.392	17.49
283.608	15
283.824	5.35
284.04	4.05
284.256	-6.69
284.471	-13.55
284.687	-1.43
284.903	9.86
285.119	-3.48
285.335	-15.94
285.551	-3.4
285.767	-6.49
285.982	-25.65
286.198	0.22
286.414	17.11
286.63	9.58
286.846	-2.55
287.061	-6.37
287.277	-25.8
287.493	-13.5
287.709	-33.96
287.924	12.07
288.14	2.69
288.356	-1.78
288.571	2.85
288.787	9.02
289.003	-25.25
289.218	-32.66
289.434	-13.21
289.65	-16.95
289.865	8.75
290.081	34.79
290.296	61.54
290.512	70.12
290.727	57.76
290.943	40.97
291.159	35.38
291.374	18.18
291.59	33.85
291.805	36.9
292.021	51.67
292.236	53.04
292.451	57.71
292.667	47.5
292.882	50.73
293.098	29.8
293.313	24.16
293.529	22.71
293.744	10.5
293.959	4.99
294.175	5.38
294.39	17.17
294.605	13.01
294.821	21.5
295.036	12.99
295.251	19.16
295.467	12.31
295.682	26.95
295.897	9.98
296.112	24.9
296.328	22.99
296.543	22.41
296.758	12.57
296.973	24.27
297.188	18.5
297.404	32.68
297.619	35.89
297.834	28.33
298.049	20.45
298.264	30.03
298.479	23.49
298.694	19.4
298.909	28.41
299.125	38.56
299.34	8.76
299.555	3.51
299.77	-6.66
299.985	16.08
300.2	16.06
300.415	33.63
300.63	36.95
300.845	39.77
301.06	17.96
301.275	16.57
301.49	29.87
301.704	25.11
301.919	36.26
302.134	40.57
302.349	34.45
302.564	35.43
302.779	25.51
302.994	18.83
303.209	11.46
303.423	8.77
303.638	8.58
303.853	13.78
304.068	14.1
304.283	18.66
304.497	25.84
304.712	13.89
304.927	23.75
305.142	30.05
305.356	31.85
305.571	15.08
305.786	26.43
306	39.51
306.215	33.14
306.43	38.99
306.644	56.69
306.859	50.47
307.074	35.21
307.288	52.64
307.503	41.27
307.717	16.98
307.932	18.31
308.147	7.7
308.361	-18.29
308.576	-13.47
308.79	15.92
309.005	15.49
309.219	22.34
309.434	24.31
309.648	21.4
309.863	-0.39
310.077	0.64
310.292	-1.23
310.506	20.23
310.72	32.27
310.935	33.35
311.149	28.28
311.364	14.15
311.578	-7.88
311.792	-10.1
312.007	-12.15
312.221	-27.27
312.435	4.02
312.649	22.32
312.864	-31.28
313.078	-14.44
313.292	-15.07
313.507	-12.17
313.721	-26.51
313.935	-0.13
314.149	-4.51
314.363	16.91
314.578	11.83
314.792	10.8
315.006	-2.33
315.22	-3.05
315.434	-7.98
315.648	-43.48
315.862	-16.2
316.077	-3.53
316.291	10.45
316.505	4.79
316.719	15.88
316.933	28.77
317.147	26.96
317.361	24.39
317.575	30.44
317.789	27.36
318.003	19.22
318.217	16.47
318.431	8.15
318.645	11.24
318.859	23.06
319.073	20.85
319.287	42.53
319.5	46.88
319.714	55.76
319.928	56.73
320.142	50.97
320.356	35
320.57	33.54
320.784	11.72
320.997	12.08
321.211	21.24
321.425	21.6
321.639	12.21
321.853	-6.94
322.066	-21.32
322.28	-22.98
322.494	-27.86
322.707	-28.19
322.921	-0.98
323.135	-4.18
323.349	10.08
323.562	17.87
323.776	26.21
323.989	27.18
324.203	34.97
324.417	18.05
324.63	23.5
324.844	28.39
325.057	14.66
325.271	-1.99
325.485	1.5
325.698	-19.21
325.912	-34.38
326.125	2.32
326.339	15.41
326.552	14.1
326.766	29.42
326.979	29.19
327.193	27.98
327.406	27.68
327.619	44.13
327.833	14.45
328.046	16.05
328.26	12.57
328.473	20.25
328.686	7.44
328.9	7.81
329.113	12.07
329.326	21.13
329.54	16.4
329.753	26.47
329.966	54.18
330.179	53.02
330.393	43.33
330.606	56
330.819	50.92
331.032	34.1
331.246	24.89
331.459	22.13
331.672	-6.59
331.885	-8.51
332.098	-6.01
332.311	14.15
332.525	28.79
332.738	30.18
332.951	30.96
333.164	32.64
333.377	36.57
333.59	11.48
333.803	6.4
334.016	7.42
334.229	-0.86
334.442	-31.04
334.655	-8.48
334.868	-20.06
335.081	-36.35
335.294	-18.82
335.507	1.43
335.72	2.24
335.933	15.78
336.146	25.63
336.359	18.06
336.572	16.21
336.785	13.72
336.997	38.17
337.21	23.2
337.423	30.91
337.636	43.76
337.849	35.83
338.062	-0.14
338.274	-16.16
338.487	-4.79
338.7	-0.75
338.913	15.31
339.125	20.5
339.338	38.91
339.551	25.88
339.763	3.88
339.976	-4.64
340.189	0.96
340.402	-7.67
340.614	-4.19
340.827	29.38
341.039	33.25
341.252	42.37
341.465	52.04
341.677	48.18
341.89	40.32
342.102	36.4
342.315	27.15
342.527	35.03
342.74	35.36
342.952	26.42
343.165	33.17
343.377	26.5
343.59	7.37
343.802	25.43
344.015	18.27
344.227	-15.7
344.44	9.25
344.652	24.41
344.864	11.08
345.077	-1.38
345.289	13.83
345.502	-20.19
345.714	-22.54
345.926	-11.84
346.139	15.17
346.351	4.94
346.563	20.92
346.775	21.29
346.988	13.04
347.2	10.89
347.412	22.71
347.624	18.51
347.837	14.85
348.049	17.79
348.261	2.54
348.473	2.31
348.685	4.57
348.897	20.41
349.11	22.78
349.322	28.97
349.534	27.05
349.746	21.77
349.958	3.99
350.17	15.92
350.382	11.27
350.594	7.92
350.806	17.97
351.018	29.45
351.23	14.43
351.442	19.34
351.654	8.7
351.866	8.09
352.078	8.67
352.29	9.2
352.502	-2.87
352.714	9.01
352.926	5.8
353.138	-7.25
353.35	0.44
353.561	19.33
353.773	15.69
353.985	24.5
354.197	33.22
354.409	35.09
354.621	23.85
354.832	35.38
355.044	25.26
355.256	31.7
355.468	21.79
355.679	31.73
355.891	38.01
356.103	46.41
356.314	32.87
356.526	32.3
356.738	23.07
356.949	11.85
357.161	-0.64
357.373	14.08
357.584	23.68
357.796	36.8
358.008	29.33
358.219	27.48
358.431	14.11
358.642	1.5
358.854	-16.63
359.065	10.54
359.277	22.45
359.488	29.9
359.7	40.19
359.911	33.89
360.123	27.32
360.334	14.13
360.546	13.3
360.757	9.74
360.969	17.01
361.18	19.99
361.391	25.87
361.603	28.04
361.814	13.47
362.025	21.9
362.237	25.53
362.448	22.71
362.659	16.96
362.871	24.49
363.082	13.9
363.293	-2.92
363.504	-4.97
363.716	10.53
363.927	15.17
364.138	19.21
364.349	34.14
364.56	38.4
364.772	41.5
364.983	40.78
365.194	34.68
365.405	19.03
365.616	12.51
365.827	14.37
366.038	17.29
366.25	11.43
366.461	16.74
366.672	16.72
366.883	-10.83
367.094	-14.83
367.305	11.01
367.516	2.46
367.727	15.56
367.938	28.32
368.149	20.87
368.36	9.42
368.571	15.16
368.781	6.51
368.992	0.56
369.203	25.7
369.414	33.3
369.625	30.68
369.836	15.13
370.047	12.04
370.258	-17.74
370.468	-16.74
370.679	1.8
370.89	30.11
371.101	30.65
371.312	33.5
371.522	20.14
371.733	13.74
371.944	0.16
372.155	8.38
372.365	15.62
372.576	31.34
372.787	23.09
372.997	29.29
373.208	20.61
373.419	13.12
373.629	0.69
373.84	10.15
374.05	-6.75
374.261	-3.05
374.472	6.66
374.682	5.73
374.893	15.89
375.103	28.43
375.314	32.3
375.524	44.96
375.735	49.55
375.945	35.22
376.156	31.54
376.366	25.58
376.577	16.33
376.787	12.67
376.997	24.41
377.208	25.53
377.418	27.83
377.629	30.84
377.839	28.93
378.049	16.24
378.26	10.63
378.47	5.5
378.68	2.67
378.89	15.2
379.101	21.83
379.311	20.42
379.521	33.34
379.732	34.9
379.942	26.49
380.152	29.46
380.362	28.94
380.572	22.92
380.783	17.66
380.993	15.36
381.203	7.63
381.413	11.19
381.623	10.8
381.833	19.85
382.043	24.79
382.253	23.9
382.463	24.51
382.674	24.93
382.884	17.81
383.094	11.76
383.304	13.29
383.514	5.78
383.724	1.79
383.934	10.25
384.144	9.8
384.353	4.62
384.563	7.14
384.773	7.37
384.983	5.45
385.193	5.49
385.403	11.7
385.613	11.59
385.823	14.5
386.033	11.01
386.242	14.41
386.452	9.35
386.662	8.74
386.872	6.06
387.082	3.76
387.291	-0.6
387.501	2.54
387.711	-0.46
387.921	4.03
388.13	5.87
388.34	4.84
388.55	8.4
388.759	11.49
388.969	8.86
389.179	9.58
389.388	9.97
389.598	7.98
389.807	7.83
390.017	10.48
390.227	9.24
390.436	9.39
390.646	6.79
390.855	5.43
391.065	2.96
391.274	4.79
391.484	4.73
391.693	5.38
391.903	5.87
392.112	8.01
392.322	7.15
392.531	7.62
392.74	7.2
392.95	7.86
393.159	5.17
393.369	4.9
393.578	4.73
393.787	5.35
393.997	5.02
394.206	5.97
394.415	5.66
394.625	6.23
394.834	5.9
395.043	5.61
395.252	5.75
395.462	6.56
395.671	5.49
395.88	5.46
396.089	5.28
396.298	5.33
396.508	5.08
396.717	5.74
396.926	5.48
397.135	4.88
397.344	4.39
397.553	3.76
397.762	3.26
397.971	3.33
398.181	3.71
398.39	3.92
398.599	3.96
398.808	4.33
399.017	4.39
399.226	3.87
399.435	3.79
399.644	4.01
399.853	3.59
400.062	3.7
400.27	4.2
400.479	4.52
400.688	4.42
400.897	4.83
401.106	4.74
401.315	4.85
401.524	4.89
401.733	4.78
401.941	4.6
402.15	4.54
402.359	4.59
402.568	4.15
402.777	4.16
402.985	4.22
403.194	4.35
403.403	4.2
403.612	4.28
403.82	4.43
404.029	4.47
404.238	4.48
404.446	4.49
404.655	4.57
404.864	4.45
405.072	4.38
405.281	4.35
405.489	4.19
405.698	4.08
405.906	4.12
406.115	4.12
406.324	4
406.532	4.15
406.741	4.26
406.949	4.3
407.158	4.36
407.366	4.45
407.574	4.31
407.783	4.31
407.991	4.16
408.2	3.92
408.408	3.81
408.617	3.88
408.825	3.79
409.033	3.82
409.242	3.92
409.45	3.89
409.658	3.95
409.867	3.91
410.075	3.96
410.283	3.95
410.491	3.86
410.7	3.86
410.908	3.81
411.116	3.71
411.324	3.7
411.533	3.7
411.741	3.64
411.949	3.69
412.157	3.65
412.365	3.63
412.573	3.73
412.781	3.81
412.99	3.79
413.198	3.85
413.406	3.82
413.614	3.58
413.822	3.46
414.03	3.59
414.238	3.68
414.446	3.74
414.654	4.01
414.862	4.05
415.07	3.83
415.278	3.55
415.486	3.46
415.694	3.55
415.902	3.48
416.109	3.67
416.317	3.86
416.525	3.8
416.733	3.73
416.941	3.79
417.149	3.75
417.357	3.79
417.564	3.84
417.772	3.67
417.98	3.72
418.188	3.78
418.395	3.66
418.603	3.73
418.811	3.87
419.019	3.63
419.226	3.45
419.434	3.39
419.642	3.37
419.849	3.24
420.057	3.34
420.265	3.39
420.472	3.57
420.68	3.54
420.887	3.74
421.095	3.54
421.302	3.63
421.51	3.38
421.717	3.38
421.925	3.13
422.132	3.28
422.34	3.18
422.547	3.21
422.755	3.18
422.962	3.41
423.17	3.5
423.377	3.56
423.585	3.59
423.792	3.57
423.999	3.46
424.207	3.37
424.414	3.2
424.621	2.99
424.829	3.07
425.036	3.06
425.243	3.06
425.451	3.09
425.658	3.33
425.865	3.27
426.072	3.19
426.28	3.2
426.487	3.28
426.694	3.11
426.901	3.08
427.108	3.16
427.315	3.28
427.523	3.24
427.73	3.37
427.937	3.53
428.144	3.55
428.351	3.46
428.558	3.46
428.765	3.5
428.972	3.5
429.179	3.36
429.386	3.36
429.593	3.34
429.8	3.47
430.007	3.4
430.214	3.46
430.421	3.49
430.628	3.54
430.835	3.38
431.042	3.48
431.249	3.58
431.456	3.55
431.662	3.52
431.869	3.6
432.076	3.48
432.283	3.41
432.49	3.48
432.697	3.59
432.903	3.63
433.11	3.66
433.317	3.77
433.524	3.82
433.73	3.91
433.937	3.91
434.144	4.01
434.35	4
434.557	3.95
434.764	3.9
434.97	3.97
435.177	3.91
435.384	3.94
435.59	3.92
435.797	3.92
436.003	3.77
436.21	3.8
436.416	3.72
436.623	3.73
436.829	3.73
437.036	3.82
437.242	3.79
437.449	3.83
437.655	3.82
437.862	3.79
438.068	3.75
438.275	3.78
438.481	3.81
438.687	3.9
438.894	4.06
439.1	4.13
439.307	4.09
439.513	4.09
439.719	4.05
439.926	3.92
440.132	3.99
440.338	4.2
440.544	4.17
440.751	4.19
440.957	4.2
441.163	4.14
441.369	4.04
441.575	4.12
441.782	4.12
441.988	4.22
442.194	4.26
442.4	4.33
442.606	4.25
442.812	4.29
443.018	4.22
443.224	4.19
443.431	4.11
443.637	4.29
443.843	4.27
444.049	4.33
444.255	4.53
444.461	4.6
444.667	4.55
444.873	4.54
445.079	4.5
445.284	4.43
445.49	4.48
445.696	4.5
445.902	4.5
446.108	4.62
446.314	4.63
446.52	4.64
446.726	4.55
446.931	4.6
447.137	4.54
447.343	4.52
447.549	4.5
447.755	4.58
447.96	4.54
448.166	4.48
448.372	4.42
448.578	4.47
448.783	4.45
448.989	4.5
449.195	4.57
449.4	4.64
449.606	4.68
449.812	4.69
450.017	4.68
450.223	4.72
450.428	4.88
450.634	4.83
450.84	4.81
451.045	5
451.251	5.02
451.456	4.89
451.662	4.84
451.867	4.88
452.073	4.79
452.278	4.71
452.483	4.62
452.689	4.64
452.894	4.67
453.1	4.64
453.305	4.64
453.51	4.64
453.716	4.69
453.921	4.7
454.127	4.69
454.332	4.81
454.537	4.87
454.742	4.9
454.948	4.89
455.153	4.95
455.358	4.9
455.563	4.8
455.769	4.8
455.974	4.82
456.179	4.84
456.384	4.73
456.589	4.89
456.795	4.85
457	4.88
457.205	4.81
457.41	4.89
457.615	4.94
457.82	4.94
458.025	5.02
458.23	5.06
458.435	5.03
458.64	4.96
458.845	4.98
459.05	4.95
459.255	5.02
459.46	5.05
459.665	5.08
459.87	5.11
460.075	5.14
460.28	5.18
460.485	5.21
460.69	5.24
460.895	5.27
461.099	5.21
461.304	5.07
461.509	5.09
461.714	5.16
461.919	5.09
462.123	5.07
462.328	5.21
462.533	5.25
462.738	5.23
462.942	5.26
463.147	5.36
463.352	5.26
463.556	5.3
463.761	5.28
463.966	5.31
464.17	5.22
464.375	5.32
464.58	5.26
464.784	5.29
464.989	5.39
465.193	5.44
465.398	5.36
465.602	5.32
465.807	5.31
466.011	5.28
466.216	5.27
466.42	5.3
466.625	5.49
466.829	5.43
467.034	5.45
467.238	5.41
467.443	5.48
467.647	5.41
467.851	5.54
468.056	5.51
468.26	5.6
468.464	5.56
468.669	5.51
468.873	5.4
469.077	5.44
469.282	5.51
469.486	5.54
469.69	5.62
469.894	5.61
470.099	5.57
470.303	5.48
470.507	5.57
470.711	5.61
470.915	5.67
471.119	5.78
471.324	5.94
471.528	5.91
471.732	5.84
471.936	5.8
472.14	5.72
472.344	5.67
472.548	5.67
472.752	5.67
472.956	5.78
473.16	5.82
473.364	5.91
473.568	5.97
473.772	6.04
473.976	6.13
474.18	6.11
474.384	6.02
474.588	6.02
474.792	6.07
474.995	5.98
475.199	6.04
475.403	6
475.607	5.95
475.811	5.92
476.015	5.9
476.218	5.82
476.422	5.86
476.626	5.91
476.83	5.94
477.033	5.99
477.237	6.04
477.441	6.02
477.644	5.96
477.848	5.98
478.052	5.97
478.255	5.99
478.459	6.07
478.663	6.11
478.866	6.08
479.07	6.04
479.273	6.06
479.477	5.96
479.681	6
479.884	6
480.088	6.07
480.291	6.08
480.495	6.12
480.698	6.15
480.901	6.15
481.105	6.11
481.308	6.06
481.512	6.1
481.715	6.06
481.919	6.15
482.122	6.1
482.325	6.2
482.529	6.21
482.732	6.21
482.935	6.16
483.138	6.16
483.342	6.16
483.545	6.13
483.748	6.11
483.952	6.09
484.155	6.13
484.358	6.1
484.561	6.13
484.764	6.1
484.967	6.13
485.171	6.11
485.374	6.11
485.577	6.08
485.78	6.18
485.983	6.12
486.186	6.14
486.389	6.17
486.592	6.24
486.795	6.24
486.998	6.22
487.201	6.22
487.404	6.23
487.607	6.22
487.81	6.17
488.013	6.2
488.216	6.19
488.419	6.13
488.622	6.13
488.825	6.16
489.028	6.23
489.231	6.2
489.433	6.24
489.636	6.21
489.839	6.16
490.042	6.16
490.245	6.23
490.447	6.28
490.65	6.2
490.853	6.24
491.056	6.17
491.258	6.1
491.461	6.07
491.664	6.11
491.866	6.09
492.069	6.15
492.272	6.18
492.474	6.13
492.677	6.17
492.879	6.16
493.082	6.08
493.285	6.07
493.487	6.12
493.69	6.12
493.892	6.18
494.095	6.22
494.297	6.24
494.5	6.16
494.702	6.15
494.905	6.11
495.107	6.11
495.309	6.13
495.512	6.19
495.714	6.24
495.917	6.25
496.119	6.27
496.321	6.19
496.524	6.22
496.726	6.21
496.928	6.22
497.13	6.26
497.333	6.35
497.535	6.37
497.737	6.45
497.939	6.48
498.142	6.47
498.344	6.48
498.546	6.42
498.748	6.38
498.95	6.36
499.152	6.46
499.355	6.44
499.557	6.43
499.759	6.34
499.961	6.33
500.163	6.22
500.365	6.19
500.567	6.24
500.769	6.34
500.971	6.36
501.173	6.35
501.375	6.37
501.577	6.38
501.779	6.39
501.981	6.38
502.183	6.46
502.385	6.5
502.587	6.47
502.788	6.41
502.99	6.46
503.192	6.44
503.394	6.48
503.596	6.51
503.798	6.55
503.999	6.56
504.201	6.56
504.403	6.52
504.605	6.52
504.806	6.54
505.008	6.55
505.21	6.49
505.411	6.48
505.613	6.49
505.815	6.51
506.016	6.46
506.218	6.54
506.42	6.56
506.621	6.56
506.823	6.52
507.024	6.54
507.226	6.52
507.427	6.53
507.629	6.57
507.83	6.61
508.032	6.58
508.233	6.57
508.435	6.55
508.636	6.5
508.838	6.48
509.039	6.5
509.24	6.54
509.442	6.53
509.643	6.57
509.845	6.57
510.046	6.59
510.247	6.58
510.448	6.54
510.65	6.55
510.851	6.52
511.052	6.49
511.254	6.54
511.455	6.56
511.656	6.46
511.857	6.41
512.058	6.39
512.26	6.32
512.461	6.35
512.662	6.45
512.863	6.54
513.064	6.59
513.265	6.59
513.466	6.64
513.667	6.63
513.868	6.61
514.069	6.6
514.27	6.59
514.471	6.5
514.672	6.53
514.873	6.45
515.074	6.46
515.275	6.49
515.476	6.52
515.677	6.49
515.878	6.55
516.079	6.53
516.28	6.57
516.481	6.56
516.682	6.55
516.882	6.61
517.083	6.59
517.284	6.57
517.485	6.59
517.686	6.56
517.886	6.51
518.087	6.47
518.288	6.46
518.488	6.47
518.689	6.45
518.89	6.47
519.091	6.52
519.291	6.49
519.492	6.49
519.692	6.54
519.893	6.47
520.094	6.5
520.294	6.51
520.495	6.52
520.695	6.54
520.896	6.58
521.096	6.58
521.297	6.62
521.497	6.64
521.698	6.65
521.898	6.64
522.099	6.68
522.299	6.69
522.499	6.64
522.7	6.63
522.9	6.7
523.101	6.64
523.301	6.63
523.501	6.68
523.702	6.66
523.902	6.6
524.102	6.62
524.302	6.61
524.503	6.58
524.703	6.57
524.903	6.6
525.103	6.61
525.304	6.58
525.504	6.58
525.704	6.58
525.904	6.55
526.104	6.56
526.304	6.62
526.504	6.6
526.705	6.65
526.905	6.72
527.105	6.72
527.305	6.73
527.505	6.76
527.705	6.75
527.905	6.72
528.105	6.7
528.305	6.64
528.505	6.66
528.705	6.62
528.905	6.66
529.105	6.66
529.304	6.69
529.504	6.71
529.704	6.78
529.904	6.78
530.104	6.8
530.304	6.86
530.503	6.92
530.703	6.91
530.903	6.94
531.103	6.95
531.303	6.91
531.502	6.88
531.702	6.85
531.902	6.78
532.101	6.78
532.301	6.82
532.501	6.8
532.7	6.87
532.9	6.92
533.1	6.93
533.299	6.97
533.499	6.93
533.698	6.96
533.898	6.98
534.097	6.97
534.297	6.94
534.496	6.97
534.696	6.92
534.895	6.9
535.095	6.89
535.294	6.91
535.494	6.91
535.693	6.99
535.892	6.99
536.092	7.04
536.291	7.02
536.491	7.09
536.69	7.09
536.889	7.14
537.088	7.15
537.288	7.17
537.487	7.16
537.686	7.15
537.886	7.15
538.085	7.12
538.284	7.12
538.483	7.18
538.682	7.16
538.882	7.16
539.081	7.2
539.28	7.26
539.479	7.29
539.678	7.33
539.877	7.35
540.076	7.35
540.275	7.37
540.474	7.24
540.673	7.26
540.872	7.28
541.071	7.38
541.27	7.44
541.469	7.48
541.668	7.47
541.867	7.56
542.066	7.54
542.265	7.56
542.464	7.71
542.663	7.76
542.862	7.75
543.06	7.74
543.259	7.73
543.458	7.73
543.657	7.71
543.856	7.72
544.054	7.75
544.253	7.78
544.452	7.81
544.651	7.85
544.849	7.91
545.048	7.94
545.247	7.91
545.445	7.88
545.644	7.93
545.843	7.91
546.041	7.93
546.24	7.99
546.438	8.01
546.637	8.08
546.836	8.09
547.034	8.14
547.233	8.2
547.431	8.26
547.63	8.28
547.828	8.34
548.027	8.36
548.225	8.36
548.423	8.41
548.622	8.41
548.82	8.4
549.019	8.49
549.217	8.5
549.415	8.53
549.614	8.66
549.812	8.72
550.01	8.8
550.209	8.89
550.407	8.95
550.605	8.9
550.803	8.92
551.002	8.96
551.2	8.98
551.398	9
551.596	9.06
551.794	9.15
551.993	9.22
552.191	9.29
552.389	9.35
552.587	9.37
552.785	9.42
552.983	9.4
553.181	9.41
553.379	9.48
553.577	9.6
553.775	9.63
553.973	9.69
554.171	9.79
554.369	9.85
554.567	9.88
554.765	10
554.963	10.07
555.161	10.18
555.359	10.29
555.557	10.31
555.755	10.33
555.952	10.41
556.15	10.37
556.348	10.37
556.546	10.47
556.744	10.55
556.941	10.51
557.139	10.63
557.337	10.75
557.535	10.93
557.732	11.03
557.93	11.16
558.128	11.23
558.325	11.2
558.523	11.18
558.721	11.16
558.918	11.29
559.116	11.4
559.313	11.44
559.511	11.48
559.708	11.57
559.906	11.62
560.104	11.62
560.301	11.74
560.498	11.82
560.696	11.9
560.893	11.95
561.091	12.03
561.288	12.12
561.486	12.19
561.683	12.19
561.88	12.23
562.078	12.24
562.275	12.27
562.473	12.31
562.67	12.38
562.867	12.5
563.064	12.58
563.262	12.68
563.459	12.77
563.656	12.75
563.853	12.7
564.051	12.78
564.248	12.81
564.445	12.88
564.642	13.03
564.839	13.19
565.036	13.28
565.234	13.24
565.431	13.27
565.628	13.31
565.825	13.31
566.022	13.29
566.219	13.42
566.416	13.44
566.613	13.55
566.81	13.63
567.007	13.68
567.204	13.71
567.401	13.72
567.598	13.74
567.795	13.74
567.991	13.76
568.188	13.83
568.385	13.72
568.582	13.75
568.779	13.75
568.976	13.79
569.172	13.75
569.369	13.92
569.566	13.88
569.763	13.79
569.96	13.81
570.156	13.81
570.353	13.77
570.55	13.82
570.746	13.97
570.943	14.04
571.14	14.09
571.336	14.21
571.533	14.19
571.729	14.23
571.926	14.27
572.123	14.2
572.319	14.18
572.516	14.25
572.712	14.21
572.909	14.16
573.105	14.2
573.302	14.23
573.498	14.18
573.695	14.19
573.891	14.15
574.087	14.24
574.284	14.26
574.48	14.26
574.677	14.3
574.873	14.38
575.069	14.42
575.266	14.36
575.462	14.37
575.658	14.29
575.854	14.27
576.051	14.11
576.247	14.17
576.443	14.19
576.639	14.35
576.835	14.26
577.032	14.29
577.228	14.29
577.424	14.18
577.62	13.99
577.816	14.05
578.012	14.07
578.208	13.95
578.404	14.01
578.6	14.08
578.796	14.06
578.993	14.09
579.189	14.2
579.384	14.17
579.58	14.13
579.776	14.08
579.972	14.02
580.168	13.98
580.364	14
580.56	14.02
580.756	14.05
580.952	14.01
581.148	14
581.343	13.97
581.539	13.92
581.735	13.93
581.931	13.93
582.127	13.93
582.322	13.91
582.518	13.87
582.714	13.81
582.909	13.76
583.105	13.68
583.301	13.72
583.496	13.68
583.692	13.67
583.888	13.71
584.083	13.74
584.279	13.69
584.474	13.65
584.67	13.66
584.866	13.61
585.061	13.66
585.257	13.64
585.452	13.76
585.648	13.71
585.843	13.74
586.039	13.66
586.234	13.64
586.429	13.53
586.625	13.54
586.82	13.44
587.015	13.48
587.211	13.44
587.406	13.56
587.601	13.66
587.797	13.69
587.992	13.7
588.187	13.77
588.383	13.66
588.578	13.68
588.773	13.68
588.968	13.55
589.163	13.52
589.359	13.55
589.554	13.51
589.749	13.6
589.944	13.75
590.139	13.76
590.334	13.86
590.529	13.86
590.724	13.86
590.919	13.82
591.114	13.85
591.309	13.81
591.504	13.79
591.699	13.8
591.894	13.92
592.089	14.01
592.284	13.99
592.479	14.04
592.674	14.09
592.869	14.04
593.064	14.04
593.259	14.11
593.454	14.12
593.648	14.13
593.843	14.2
594.038	14.29
594.233	14.25
594.428	14.35
594.622	14.44
594.817	14.47
595.012	14.47
595.206	14.67
595.401	14.72
595.596	14.71
595.79	14.72
595.985	14.75
596.18	14.79
596.374	14.86
596.569	14.96
596.763	15.05
596.958	15.06
597.153	15.06
597.347	15.12
597.542	15.13
597.736	15.23
597.931	15.35
598.125	15.39
598.319	15.46
598.514	15.54
598.708	15.47
598.903	15.45
599.097	15.52
599.291	15.47
599.486	15.49
599.68	15.62
599.874	15.67
600.069	15.63
600.263	15.81
600.457	15.9
600.651	15.86
600.846	15.95
601.04	16.09
601.234	15.98
601.428	15.97
601.622	16.07
601.817	16.04
602.011	16.1
602.205	16.17
602.399	16.14
602.593	16.12
602.787	16.14
602.981	16.07
603.175	16.12
603.369	16.17
603.563	16.14
603.757	16.18
603.951	16.1
604.145	16.02
604.339	15.95
604.533	16.01
604.727	16.01
604.921	16.01
605.115	16.06
605.309	16.1
605.502	16.08
605.696	16.01
605.89	15.96
606.084	15.9
606.278	15.92
606.471	15.83
606.665	15.77
606.859	15.76
607.053	15.69
607.246	15.58
607.44	15.53
607.634	15.5
607.827	15.5
608.021	15.52
608.214	15.46
608.408	15.42
608.602	15.45
608.795	15.46
608.989	15.33
609.182	15.23
609.376	15.18
609.569	15.06
609.763	14.89
609.956	14.89
610.15	14.98
610.343	14.99
610.537	14.94
610.73	14.98
610.923	14.96
611.117	14.81
611.31	14.77
611.504	14.71
611.697	14.54
611.89	14.36
612.083	14.35
612.277	14.25
612.47	14.16
612.663	14.15
612.856	14.18
613.05	14.14
613.243	14.09
613.436	13.98
613.629	13.93
613.822	13.86
614.015	13.83
614.209	13.8
614.402	13.86
614.595	13.95
614.788	13.87
614.981	13.78
615.174	13.76
615.367	13.68
615.56	13.58
615.753	13.56
615.946	13.6
616.139	13.53
616.332	13.44
616.525	13.37
616.718	13.32
616.911	13.23
617.103	13.25
617.296	13.23
617.489	13.19
617.682	13.22
617.875	13.06
618.067	13.01
618.26	13.03
618.453	12.95
618.646	12.83
618.838	12.89
619.031	12.78
619.224	12.86
619.417	12.97
619.609	12.99
619.802	12.87
619.994	12.91
620.187	12.74
620.38	12.65
620.572	12.62
620.765	12.63
620.957	12.6
621.15	12.61
621.342	12.58
621.535	12.44
621.727	12.47
621.92	12.44
622.112	12.4
622.305	12.46
622.497	12.59
622.69	12.58
622.882	12.54
623.074	12.54
623.267	12.43
623.459	12.35
623.651	12.32
623.844	12.36
624.036	12.36
624.228	12.36
624.42	12.36
624.613	12.37
624.805	12.27
624.997	12.19
625.189	12.22
625.381	12.21
625.574	12.24
625.766	12.26
625.958	12.26
626.15	12.15
626.342	12.12
626.534	12.07
626.726	12.13
626.918	12.15
627.11	12.14
627.302	12.13
627.494	12.09
627.686	12.03
627.878	11.92
628.07	11.92
628.262	11.86
628.454	11.74
628.646	11.65
628.838	11.7
629.029	11.69
629.221	11.66
629.413	11.73
629.605	11.76
629.797	11.7
629.989	11.69
630.18	11.63
630.372	11.52
630.564	11.55
630.755	11.51
630.947	11.43
631.139	11.5
631.33	11.51
631.522	11.41
631.714	11.41
631.905	11.44
632.097	11.37
632.289	11.41
632.48	11.42
632.672	11.39
632.863	11.32
633.055	11.31
633.246	11.25
633.438	11.17
633.629	11.13
633.821	11.24
634.012	11.24
634.203	11.19
634.395	11.25
634.586	11.32
634.777	11.27
634.969	11.26
635.16	11.26
635.351	11.28
635.543	11.28
635.734	11.26
635.925	11.28
636.117	11.31
636.308	11.27
636.499	11.24
636.69	11.21
636.881	11.18
637.073	11.07
637.264	11.04
637.455	11.03
637.646	11.03
637.837	11.02
638.028	11.11
638.219	11.1
638.41	11.01
638.601	10.99
638.792	10.97
638.983	11
639.174	10.99
639.365	10.98
639.556	10.99
639.747	10.98
639.938	10.96
640.129	10.98
640.32	10.99
640.511	11.03
640.701	11.01
640.892	10.96
641.083	10.93
641.274	10.95
641.465	10.94
641.655	10.97
641.846	10.96
642.037	10.94
642.228	10.8
642.418	10.66
642.609	10.6
642.8	10.54
642.99	10.49
643.181	10.56
643.372	10.63
643.562	10.67
643.753	10.65
643.943	10.71
644.134	10.76
644.324	10.76
644.515	10.71
644.705	10.75
644.896	10.78
645.086	10.71
645.277	10.69
645.467	10.64
645.658	10.61
645.848	10.52
646.038	10.54
646.229	10.54
646.419	10.55
646.61	10.6
646.8	10.57
646.99	10.52
647.18	10.47
647.371	10.38
647.561	10.32
647.751	10.44
647.941	10.56
648.132	10.67
648.322	10.78
648.512	10.79
648.702	10.66
648.892	10.6
649.082	10.52
649.272	10.51
649.462	10.46
649.653	10.47
649.843	10.45
650.033	10.46
650.223	10.35
650.413	10.37
650.603	10.28
650.793	10.23
650.983	10.21
651.172	10.26
651.362	10.17
651.552	10.23
651.742	10.21
651.932	10.06
652.122	10.07
652.312	10.06
652.502	9.95
652.691	9.86
652.881	9.91
653.071	9.82
653.261	9.83
653.45	9.74
653.64	9.74
653.83	9.7
654.019	9.58
654.209	9.47
654.399	9.48
654.588	9.4
654.778	9.26
654.968	9.23
655.157	9.12
655.347	9.01
655.536	8.91
655.726	8.77
655.915	8.6
656.105	8.55
656.294	8.51
656.484	8.47
656.673	8.55
656.863	8.6
657.052	8.54
657.241	8.54
657.431	8.52
657.62	8.36
657.809	8.29
657.999	8.23
658.188	8.16
658.377	8.1
658.567	7.98
658.756	7.87
658.945	7.78
659.134	7.6
659.324	7.53
659.513	7.56
659.702	7.47
659.891	7.44
660.08	7.42
660.269	7.3
660.458	7.17
660.648	7.16
660.837	7.07
661.026	6.96
661.215	6.93
661.404	6.93
661.593	6.73
661.782	6.63
661.971	6.55
662.16	6.5
662.349	6.44
662.538	6.53
662.726	6.54
662.915	6.58
663.104	6.45
663.293	6.39
663.482	6.35
663.671	6.23
663.86	6.18
664.048	6.17
664.237	6.08
664.426	5.99
664.615	5.95
664.803	5.83
664.992	5.84
665.181	5.84
665.369	5.8
665.558	5.82
665.747	5.89
665.935	5.88
666.124	5.91
666.312	5.83
666.501	5.86
666.69	5.85
666.878	5.81
667.067	5.68
667.255	5.78
667.444	5.62
667.632	5.62
667.82	5.56
668.009	5.55
668.197	5.57
668.386	5.7
668.574	5.65
668.762	5.58
668.951	5.71
669.139	5.72
669.327	5.72
669.516	5.71
669.704	5.83
669.892	5.84
670.08	5.82
670.269	5.88
670.457	5.97
670.645	5.99
670.833	5.95
671.021	5.88
671.21	5.82
671.398	5.76
671.586	5.74
671.774	5.81
671.962	5.97
672.15	6.06
672.338	6.22
672.526	6.31
672.714	6.3
672.902	6.26
673.09	6.2
673.278	6.1
673.466	6.07
673.654	6.2
673.842	6.37
674.03	6.39
674.218	6.52
674.405	6.6
674.593	6.58
674.781	6.44
674.969	6.55
675.157	6.55
675.344	6.58
675.532	6.57
675.72	6.67
675.908	6.72
676.095	6.78
676.283	6.76
676.471	6.74
676.658	6.87
676.846	6.95
677.033	6.95
677.221	7.06
677.409	7.08
677.596	7.16
677.784	7.1
677.971	7.2
678.159	7.23
678.346	7.29
678.534	7.24
678.721	7.18
678.909	7.25
679.096	7.34
679.283	7.4
679.471	7.47
679.658	7.68
679.846	7.71
680.033	7.74
680.22	7.85
680.408	7.87
680.595	7.89
680.782	7.91
680.969	7.88
681.157	7.9
681.344	7.84
681.531	7.85
681.718	7.95
681.905	8
682.093	8.04
682.28	8.24
682.467	8.41
682.654	8.4
682.841	8.68
683.028	8.84
683.215	8.91
683.402	8.89
683.589	8.94
683.776	8.95
683.963	9.04
684.15	8.98
684.337	9.18
684.524	9.31
684.711	9.25
684.898	9.27
685.085	9.6
685.271	9.68
685.458	9.9
685.645	10.13
685.832	10.32
686.019	10.44
686.205	10.52
686.392	10.64
686.579	10.85
686.766	10.9
686.952	10.97
687.139	11.18
687.326	11.37
687.512	11.59
687.699	11.93
687.886	11.97
688.072	12.19
688.259	12.5
688.445	12.72
688.632	12.89
688.818	13.44
689.005	13.78
689.191	13.94
689.378	14.26
689.564	14.58
689.751	14.75
689.937	15.04
690.124	15.44
690.31	15.72
690.496	16.14
690.683	16.46
690.869	16.77
691.055	17.02
691.242	17.3
691.428	17.63
691.614	18.12
691.8	18.43
691.987	18.86
692.173	19.36
692.359	19.71
692.545	19.94
692.731	20.3
692.918	20.72
693.104	21.11
693.29	21.62
693.476	22.12
693.662	22.6
693.848	22.95
694.034	23.46
694.22	23.92
694.406	24.58
694.592	25.13
694.778	25.94
694.964	26.4
695.15	27.01
695.336	27.58
695.522	27.95
695.708	28.27
695.894	28.61
696.08	29.01
696.265	29.32
696.451	29.82
696.637	30.37
696.823	30.85
697.009	31.35
697.194	31.89
697.38	32.63
697.566	33.12
697.751	33.82
697.937	34.34
698.123	34.77
698.308	35.07
698.494	35.59
698.68	35.93
698.865	36.24
699.051	36.56
699.236	37.1
699.422	37.41
699.607	38.13
699.793	38.61
699.978	39.34
700.164	39.93
700.349	40.32
700.535	40.63
700.72	40.97
700.906	41.26
701.091	41.35
701.276	41.94
701.462	42.33
701.647	43.07
701.832	43.46
702.018	44.15
702.203	44.61
702.388	45.15
702.573	45.44
702.759	45.99
702.944	46.38
703.129	46.62
703.314	46.8
703.499	47.14
703.684	47.09
703.87	47.35
704.055	47.71
704.24	48.04
704.425	48.42
704.61	49.15
704.795	49.58
704.98	49.81
705.165	50.23
705.35	50.7
705.535	50.84
705.72	51.04
705.905	51.2
706.09	51.15
706.275	51.06
706.459	51.14
706.644	51.46
706.829	51.54
707.014	52.06
707.199	52.54
707.384	53.11
707.568	53.25
707.753	53.88
707.938	53.95
708.123	54.02
708.307	54.01
708.492	54.06
708.677	54.01
708.861	54.2
709.046	54.67
709.231	54.76
709.415	55.28
709.6	55.78
709.784	56.23
709.969	55.89
710.153	56.45
710.338	56.63
710.522	56.62
710.707	56.69
710.891	57.01
711.076	56.81
711.26	56.95
711.445	56.98
711.629	57.05
711.813	56.96
711.998	57.22
712.182	57.12
712.366	57.42
712.551	57.52
712.735	57.76
712.919	57.66
713.103	57.82
713.288	58.29
713.472	58.26
713.656	58.57
713.84	59.2
714.024	59.45
714.208	59.25
714.393	59.65
714.577	60.05
714.761	59.7
714.945	59.45
715.129	59.65
715.313	59.66
715.497	59.58
715.681	59.88
715.865	60.24
716.049	60.13
716.233	60.27
716.417	60.47
716.601	60.45
716.785	60.51
716.968	60.45
717.152	60.57
717.336	60.44
717.52	60.37
717.704	60.36
717.888	60.77
718.071	60.56
718.255	60.36
718.439	60.9
718.622	61.1
718.806	60.74
718.99	61.23
719.174	61.48
719.357	61.44
719.541	61.36
719.724	61.69
719.908	62.14
720.092	62.48
720.275	62.67
720.459	63.13
720.642	62.9
720.826	62.67
721.009	62.91
721.193	63.18
721.376	63.27
721.559	63.72
721.743	63.58
721.926	63.57
722.11	63.42
722.293	63.74
722.476	63.92
722.66	64.38
722.843	64.38
723.026	64.82
723.21	64.82
723.393	64.61
723.576	64.15
723.759	64.32
723.942	63.8
724.126	63.06
724.309	63.43
724.492	64.01
724.675	64.05
724.858	64.25
725.041	64.77
725.224	65.07
725.407	64.93
725.59	64.95
725.774	65.07
725.957	65.75
726.14	65.69
726.322	65.92
726.505	66.01
726.688	66.74
726.871	66.31
727.054	66.71
727.237	66.45
727.42	66.45
727.603	66.31
727.786	66.47
727.968	66.3
728.151	66.67
728.334	66.98
728.517	67.04
728.699	67.03
728.882	67.24
729.065	67.11
729.248	67.3
729.43	67.42
729.613	67.87
729.796	68.15
729.978	68.55
730.161	68.19
730.343	68.44
730.526	67.99
730.708	68.02
730.891	68.58
731.073	69.65
731.256	69.15
731.438	70.53
731.621	70.78
731.803	70.67
731.986	70.26
732.168	71.41
732.35	71.24
732.533	71.26
732.715	71.45
732.898	71.4
733.08	70.87
733.262	70.71
733.444	71.26
733.627	71.13
733.809	72.05
733.991	72.58
734.173	72.8
734.355	72.28
734.538	73.01
734.72	72.1
734.902	71.7
735.084	71.6
735.266	71.7
735.448	71.47
735.63	72.42
735.812	72.95
735.994	73.33
736.176	74.21
736.358	74.19
736.54	73.75
736.722	73.52
736.904	73.55
737.086	72.48
737.268	72.8
737.45	73.2
737.632	73.66
737.814	74.11
737.995	74.82
738.177	74.97
738.359	75.46
738.541	75.39
738.723	75.01
738.904	75.15
739.086	75.3
739.268	74.99
739.449	75.22
739.631	75.03
739.813	75.04
739.994	74.84
740.176	74.8
740.358	74.59
740.539	74.61
740.721	75.1
740.902	75.41
741.084	75.15
741.265	75.51
741.447	75.59
741.628	75.18
741.81	74.93
741.991	75.63
742.172	75.72
742.354	76.14
742.535	77.01
742.717	77
742.898	77.83
743.079	77.91
743.261	78.44
743.442	77.8
743.623	77.72
743.804	77.28
743.986	76.82
744.167	75.45
744.348	76.13
744.529	76.25
744.71	75.06
744.891	75.29
745.073	76.93
745.254	76.28
745.435	76.12
745.616	76.74
745.797	76.58
745.978	75.35
746.159	76.11
746.34	76.26
746.521	76.28
746.702	76.11
746.883	77.17
747.064	76.99
747.245	76.79
747.426	76.91
747.606	77.42
747.787	76.43
747.968	75.41
748.149	75.99
748.33	75.6
748.51	74.7
748.691	75.01
748.872	76.15
749.053	75.94
749.233	76.64
749.414	77.51
749.595	77.34
749.775	77.36
749.956	77.83
750.137	77.33
750.317	76.32
750.498	76.68
750.678	75.44
750.859	75.32
751.04	74.42
751.22	75.85
751.4	75.45
751.581	76.26
751.761	75.1
751.942	76.56
752.122	76.8
752.303	76.43
752.483	76.69
752.663	77.61
752.844	77.22
753.024	77.07
753.204	78.32
753.385	77.88
753.565	76.75
753.745	76.57
753.925	75.69
754.106	75.99
754.286	76.74
754.466	77.18
754.646	77.82
754.826	78.37
755.006	79.14
755.187	78.52
755.367	79.18
755.547	79.17
755.727	77.92
755.907	76.62
756.087	76.22
756.267	76.35
756.447	76.06
756.627	76.4
756.807	76.74
756.987	77.28
757.167	77.82
757.346	77.16
757.526	77.74
757.706	77.27
757.886	78.13
758.066	77.27
758.246	77.38
758.425	78.46
758.605	79.05
758.785	78.96
758.965	79.28
759.144	80.8
759.324	80.41
759.504	79.53
759.683	79.51
759.863	78.77
760.043	77.99
760.222	78.61
760.402	77.63
760.581	77.4
760.761	78.06
760.94	77.83
761.12	76.22
761.299	77.78
761.479	76.76
761.658	76.71
761.838	77.27
762.017	78.37
762.197	78.19
762.376	78.17
762.555	77.34
762.735	75.7
762.914	75.05
763.093	73.85
763.273	72.58
763.452	71.87
763.631	72
763.81	73.01
763.99	73.71
764.169	75.03
764.348	76.11
764.527	76
764.706	73.82
764.885	73.87
765.064	72.66
765.243	73.92
765.423	75.13
765.602	75.4
765.781	75.81
765.96	76.96
766.139	77.48
766.318	77.32
766.497	78.61
766.676	78.67
766.854	77.84
767.033	76.42
767.212	76.2
767.391	76.92
767.57	76.24
767.749	77.22
767.928	76.59
768.106	75.96
768.285	74.53
768.464	75.26
768.643	75.86
768.821	75.47
769	75.19
769.179	75.43
769.357	77.3
769.536	76.87
769.715	74.72
769.893	75.47
770.072	74.51
770.25	73.32
770.429	73.37
770.607	75.91
770.786	75.14
770.964	74.24
771.143	72.94
771.321	72.01
771.5	71.6
771.678	72.92
771.857	75.19
772.035	75.53
772.213	74.33
772.392	74.67
772.57	73.78
772.748	72.77
772.927	72.46
773.105	74.54
773.283	76.14
773.461	77.68
773.64	78.86
773.818	79.19
773.996	77.87
774.174	74.81
774.352	73.02
774.531	69.91
774.709	67.46
774.887	70.11
775.065	71.5
775.243	72.4
775.421	73.97
775.599	76.21
775.777	73.9
775.955	73.27
776.133	73.14
776.311	71.53
776.489	72.23
776.667	71.85
776.844	71.48
777.022	70.85
777.2	73.44
777.378	73.25
777.556	74.12
777.734	74.13
777.911	73.88
778.089	74.08
778.267	73.19
778.445	75.76
778.622	76.3
778.8	77.47
778.978	75.85
779.155	73.81
779.333	70.63
779.511	69.31
779.688	68.3
779.866	69.7
780.043	72.08
780.221	71.98
780.398	73.35
780.576	72.22
780.753	73.26
780.931	72.58
781.108	74.08
781.286	73.92
781.463	74.66
781.64	71.31
781.818	73.41
781.995	73.23
782.172	74.44
782.35	75.68
782.527	77.9
782.704	76.38
782.882	74.43
783.059	72.88
783.236	72.78
783.413	72.46
783.59	71.9
783.768	74.85
783.945	74.58
784.122	75.84
784.299	75.16
784.476	75.54
784.653	75.47
784.83	75.17
785.007	72.98
785.184	74.43
785.361	71.99
785.538	70.83
785.715	74.06
785.892	75.45
786.069	73.4
786.246	75.1
786.423	73.03
786.6	72.38
786.776	70.98
786.953	72.67
787.13	73.27
787.307	73.29
787.484	73.01
787.66	72.8
787.837	72.62
788.014	72.42
788.191	74.47
788.367	71.58
788.544	72.83
788.721	74.83
788.897	73.25
789.074	69.6
789.25	69.69
789.427	69.24
789.603	66.62
789.78	68.1
789.956	69.8
790.133	69.15
790.309	69.98
790.486	66.7
790.662	67.22
790.839	68.52
791.015	69.59
791.192	67.08
791.368	68.57
791.544	66.19
791.721	70.2
791.897	71.42
792.073	72.96
792.249	74.58
792.426	74.22
792.602	66.83
792.778	67.65
792.954	66.86
793.13	68.3
793.307	71.23
793.483	73.45
793.659	70.27
793.835	69.83
794.011	68.63
794.187	66.44
794.363	65.45
794.539	67.94
794.715	67.34
794.891	64.9
795.067	66.59
795.243	67.06
795.419	64.91
795.595	66.25
795.771	70.5
795.947	66.76
796.122	68.24
796.298	70.21
796.474	69.09
796.65	64.32
796.826	67.03
797.001	67.54
797.177	65.65
797.353	65.43
797.529	69.89
797.704	71.12
797.88	73.79
798.056	74.59
798.231	73.07
798.407	70.34
798.582	70.54
798.758	68.18
798.934	67.12
799.109	69.29
799.285	70.89
799.46	67.5
799.636	67.97
799.811	67.37
799.986	67.56
800.162	68.4
800.337	68.5
800.513	69.5
800.688	77.42
800.863	76.13
801.039	72.53
801.214	76.56
801.389	73.08
801.565	63.61
801.74	61.85
801.915	60.1
802.09	55.49
802.265	55.24
802.441	60.36
802.616	67.68
802.791	69.72
802.966	76.05
803.141	82.58
803.316	84.98
803.491	84.03
803.666	88.11
803.841	89.15
804.016	82.07
804.191	82.31
804.366	80.67
804.541	75.16
804.716	71.46
804.891	69.9
805.066	68
805.241	66.63
805.416	69.55
805.591	70.48
805.765	71.79
805.94	75.88
806.115	76.17
806.29	71.31
806.464	73.72
806.639	75.18
806.814	72.7
806.989	74.49
807.163	75.75
807.338	73.73
807.512	72.96
807.687	71.57
807.862	68.69
808.036	68.85
808.211	69.29
808.385	69.12
808.56	65.7
808.734	68.76
808.909	72.29
809.083	72.5
809.258	70.28
809.432	76.69
809.606	76.25
809.781	73.83
809.955	72.51
810.13	71.96
810.304	72.03
810.478	72.19
810.652	71.76
810.827	73.94
811.001	76.43
811.175	75.68
811.349	72.69
811.524	68.75
811.698	60.76
811.872	59.42
812.046	60.1
812.22	66.74
812.394	72.93
812.568	80.12
812.742	74.51
812.916	73.49
813.09	65.8
813.264	68.74
813.438	72.01
813.612	84.49
813.786	84.28
813.96	87.28
814.134	88.3
814.308	84.98
814.482	79.26
814.656	81.3
814.83	77.52
815.003	84.17
815.177	91.07
815.351	90.48
815.525	90.2
815.698	85.73
815.872	70.36
816.046	60.87
816.219	63.63
816.393	53.48
816.567	61.9
816.74	70.19
816.914	73.31
817.088	72.45
817.261	81.58
817.435	77.71
817.608	70.12
817.782	71.04
817.955	70.52
818.129	67.85
818.302	71.43
818.475	72.59
818.649	61.63
818.822	61.09
818.996	50.4
819.169	51.82
819.342	51.76
819.516	67.79
819.689	74.37
819.862	89.84
820.035	95.95
820.209	91.02
820.382	87.88
820.555	80.24
820.728	64.45
820.901	54.15
821.075	52.69
821.248	43.18
821.421	50.54
821.594	63.42
821.767	75.99
821.94	73.01
822.113	76.1
822.286	61.35
822.459	56.54
822.632	48.69
822.805	55.5
822.978	50.2
823.151	57.86
823.324	69.82
823.496	76.63
823.669	67.76
823.842	63.88
824.015	72.36
824.188	69.15
824.361	66.35
824.533	75.63
824.706	88.76
824.879	74.8
825.051	62.47
825.224	70.22
825.397	66.51
825.569	55.85
825.742	57.56
825.915	61.65
826.087	57.69
826.26	57.86
826.432	62.96
826.605	69.47
826.777	70.79
826.95	72.29
827.122	74.36
827.295	71.26
827.467	65.17
827.64	48.73
827.812	50.46
827.984	40.91
828.157	45.38
828.329	60.91
828.501	78.41
828.674	70.28
828.846	96.9
829.018	103.05
829.19	85.23
829.363	84.79
829.535	95.59
829.707	77.79
829.879	70.39
830.051	66.89
830.223	68.06
830.395	70.17
830.568	81.03
830.74	79.24
830.912	75.4
831.084	70.52
831.256	65.08
831.428	59.87
831.6	58.11
831.772	80.06
831.943	78.84
832.115	78.65
832.287	71.46
832.459	67.24
832.631	46.36
832.803	49.24
832.975	37.57
833.146	41.71
833.318	69.35
833.49	81
833.662	67.77
833.833	69.39
834.005	71.75
834.177	72.45
834.348	71.43
834.52	73.94
834.692	72.32
834.863	86.96
835.035	62.94
835.206	62.42
835.378	59.08
835.549	75.22
835.721	64.38
835.892	67.88
836.064	60.85
836.235	59.64
836.407	50.71
836.578	55.21
836.749	65.45
836.921	79.43
837.092	94.11
837.264	106.22
837.435	96.63
837.606	89.75
837.777	84.74
837.949	81.07
838.12	70.36
838.291	80.87
838.462	80.04
838.633	66.09
838.805	68.29
838.976	76.57
839.147	68.11
839.318	71.26
839.489	90
839.66	66.98
839.831	39.46
840.002	48.56
840.173	55.71
840.344	47.76
840.515	52.17
840.686	61.81
840.857	66.65
841.028	55.4
841.199	63.84
841.369	81.76
841.54	93.52
841.711	110.61
841.882	129.03
842.053	111.35
842.223	101.2
842.394	90.37
842.565	85.29
842.736	66.29
842.906	63.32
843.077	55.99
843.248	58.91
843.418	50.38
843.589	61.94
843.759	47.56
843.93	48.23
844.101	11.24
844.271	34.98
844.442	40.97
844.612	21.75
844.783	42.62
844.953	72.16
845.123	58.84
845.294	29.15
845.464	58.3
845.635	50.95
845.805	50.49
845.975	61.84
846.146	80.78
846.316	84.99
846.486	86.79
846.656	85.13
846.827	88.93
846.997	91.69
847.167	80.23
847.337	80.64
847.507	82.53
847.677	70.03
847.848	65.4
848.018	89.06
848.188	84.36
848.358	82.58
848.528	87.13
848.698	81.13
848.868	69.12
849.038	69.78
849.208	65.85
849.378	61.25
849.548	73.78
849.718	79.44
849.887	69.03
850.057	72.75
850.227	94.65
850.397	83.44
850.567	70.36
850.737	72.7
850.906	60.98
851.076	43.28
851.246	51.27
851.415	64.52
851.585	84.37
851.755	130.9
851.924	143.32
852.094	85.99
852.264	62.87
852.433	54.7
852.603	42.9
852.772	35.03
852.942	56.12
853.111	64.1
853.281	69.37
853.45	47.09
853.62	43.08
853.789	45.05
853.959	50.81
854.128	52.21
854.297	75.42
854.467	73.05
854.636	76.49
854.805	39.49
854.975	41.94
855.144	12.67
855.313	21.72
855.482	26.18
855.652	43.42
855.821	37.18
855.99	38.98
856.159	41.92
856.328	66.64
856.497	61.44
856.667	56.84
856.836	50.16
857.005	57.53
857.174	51.73
857.343	57.82
857.512	67.94
857.681	76.98
857.85	87.95
858.019	91.49
858.188	123.35
858.356	75.58
858.525	99.26
858.694	127.48
858.863	36.06
859.032	45.14
859.201	119.77
859.369	96.31
859.538	65.06
859.707	71.27
859.876	46.84
860.044	30.19
860.213	29.9
860.382	34.3
860.55	25.86
860.719	44.93
860.888	55.05
861.056	68.69
861.225	68.13
861.393	71.06
861.562	70
861.73	79.05
861.899	76.18
862.067	77.91
862.236	76.15
862.404	71.9
862.572	56.2
862.741	48.95
862.909	32.37
863.078	48.05
863.246	62.32
863.414	56.92
863.582	50
863.751	70.88
863.919	65.49
864.087	71.04
864.255	77.03
864.424	66.13
864.592	71.65
864.76	77.44
864.928	77.34
865.096	89.03
865.264	109.08
865.432	84.36
865.6	87.14
865.768	80.55
865.936	63.6
866.104	60.83
866.272	88.93
866.44	103.96
866.608	73.15
866.776	65.06
866.944	74.58
867.112	52.28
867.28	44.04
867.448	47.31
867.615	54.2
867.783	36.23
867.951	19.84
868.119	-17.74
868.286	-7.55
868.454	7.77
868.622	-13.34
868.789	20.98
868.957	105.93
869.125	145.27
869.292	101.05
869.46	98.65
869.627	126.43
869.795	86.28
869.963	62.89
870.13	62.38
870.298	63.46
870.465	40.41
870.632	56.48
870.8	68.88
870.967	71.62
871.135	74.51
871.302	64.94
871.469	43.8
871.637	15.55
871.804	28.48
871.971	39.42
872.139	41.71
872.306	36.48
872.473	44.48
872.64	28.01
872.807	18.81
872.975	19.92
873.142	59.58
873.309	90.4
873.476	121.43
873.643	78.15
873.81	95.93
873.977	117.03
874.144	47.98
874.311	49.64
874.478	79.33
874.645	112
874.812	117.71
874.979	121.51
875.146	143.67
875.313	149
875.48	101.01
875.647	80.58
875.813	88.57
875.98	64.67
876.147	47.96
876.314	36.71
876.481	51.81
876.647	79.67
876.814	101.61
876.981	-600.88
877.147	-614.41
877.314	179.06
877.481	92.47
877.647	72.1
877.814	49.42
877.98	61.61
878.147	64.23
878.314	67.65
878.48	69.69
878.647	60.19
878.813	15.27
878.979	-36.05
879.146	20.48
879.312	32.17
879.479	40.74
879.645	58.04
879.811	81.66
879.978	84.18
880.144	59.09
880.31	26.99
880.477	36.21
880.643	47.26
880.809	1.11
880.975	-116.29
881.142	2.51
881.308	-95.22
881.474	24.59
881.64	29.78
881.806	50.7
881.972	48.53
882.138	59.24
882.304	-51.03
882.47	55.1
882.636	41.14
882.802	196.32
882.968	152.64
883.134	142.63
883.3	128.97
883.466	110.37
883.632	93.63
883.798	72.85
883.964	78.82
884.129	42.2
884.295	40.64
884.461	58.07
884.627	51.66
884.793	28.95
884.958	48.7
885.124	56.23
885.29	41.07
885.455	37.58
885.621	73.4
885.787	119.12
885.952	149.01
886.118	119.7
886.283	147.65
886.449	136.46
886.614	89.81
886.78	113.88
886.945	139.66
887.111	240.67
887.276	638.89
887.442	290
887.607	-62.21
887.773	57.49
887.938	26.42
888.103	55.06
888.269	76.41
888.434	87.75
888.599	88.32
888.764	105.63
888.93	76.87
889.095	54.64
889.26	92.24
889.425	-292.86
889.59	446
889.756	139.36
889.921	265.38
890.086	438.73
890.251	-11.15
890.416	78.62
890.581	-8.09
890.746	37.29
890.911	62.37
891.076	40.14
891.241	51.28
891.406	53.46
891.571	12.43
891.736	29.07
891.901	14.34
892.065	1.34
892.23	-10.36
892.395	76.41
892.56	53.06
892.725	30.61
892.889	66.28
893.054	91.65
893.219	107.55
893.384	144.81
893.548	193.22
893.713	162.07
893.878	131.4
