Data from Ofav_PP_Phys_4EV14_Reflection_1.txt Node
Date: Tue Aug 03 18:09:24 EDT 2021
User: Adam
Spectrometer: FLMT01687
Trigger mode: 0
Integration Time (sec): 8.750000E-1
Scans to average: 2
Electric dark correction enabled: true
Nonlinearity correction enabled: false
Boxcar width: 2
XAxis mode: Wavelengths
Number of Pixels in Spectrum: 3648
>>>>>Begin Spectral Data<<<<<
179.494	111.56
179.716	141.43
179.937	131.69
180.158	156.82
180.38	932.46
180.601	82.55
180.823	-42.94
181.044	32.04
181.265	103.69
181.486	138.56
181.708	104.81
181.929	63.78
182.15	48.88
182.372	317.51
182.593	1.48
182.814	232.05
183.035	-96.1
183.257	-606.86
183.478	243.16
183.699	85.74
183.92	101.08
184.141	80.36
184.363	63.19
184.584	-61.02
184.805	-11.31
185.026	-61.28
185.247	-50.06
185.468	-31.33
185.689	-27.16
185.91	19.51
186.132	34.41
186.353	36.4
186.574	28.08
186.795	44.75
187.016	30.47
187.237	32.31
187.458	29.4
187.679	13.74
187.9	9.76
188.121	2.87
188.342	-22.48
188.563	-7.61
188.784	7.8
189.005	-1.97
189.226	2.43
189.447	26.36
189.667	9.35
189.888	-7.87
190.109	28.23
190.33	29.49
190.551	15.12
190.772	37.77
190.993	34.35
191.214	46.19
191.434	37.69
191.655	16.14
191.876	15.58
192.097	24.94
192.318	28.41
192.538	32.92
192.759	25.04
192.98	35.44
193.201	19.91
193.421	-4.88
193.642	7.49
193.863	32.31
194.083	10.07
194.304	25.89
194.525	41.27
194.745	12.25
194.966	38.23
195.187	53.31
195.407	76.04
195.628	68.54
195.848	71.12
196.069	70.77
196.29	65.39
196.51	22.7
196.731	13.49
196.951	30.3
197.172	20.47
197.392	34.3
197.613	60.19
197.833	76.64
198.054	83
198.274	78.54
198.495	82.16
198.715	69.53
198.936	69.53
199.156	60.55
199.377	61.83
199.597	38.88
199.817	49.96
200.038	33.73
200.258	3.79
200.479	-61.25
200.699	-46.21
200.919	-68.75
201.14	6.98
201.36	31.77
201.58	48.01
201.801	12.2
202.021	17.53
202.241	8.8
202.461	8.02
202.682	24.24
202.902	42.84
203.122	43.87
203.342	28.72
203.563	13.87
203.783	-2.15
204.003	21.27
204.223	20.2
204.443	-14.33
204.663	-15.78
204.884	-28.88
205.104	-45.51
205.324	-56.89
205.544	-43.14
205.764	-7.84
205.984	-3.55
206.204	1.33
206.424	10.76
206.644	29.65
206.864	22.77
207.084	13.35
207.304	9.88
207.525	36.93
207.745	41.38
207.964	40.61
208.184	54.4
208.404	58.24
208.624	43.63
208.844	41.32
209.064	40.77
209.284	60.75
209.504	42.84
209.724	30.12
209.944	20.02
210.164	10.67
210.384	-3.15
210.604	0.22
210.823	39.06
211.043	71.35
211.263	66.03
211.483	66.13
211.703	80.1
211.922	58.17
212.142	35.1
212.362	23.81
212.582	17.9
212.801	-2.65
213.021	-17.3
213.241	-32.67
213.461	9.07
213.68	20.07
213.9	18.43
214.12	42.35
214.339	70.01
214.559	83.5
214.779	84.66
214.998	87.47
215.218	102.34
215.438	83.17
215.657	80.66
215.877	72.27
216.096	44.85
216.316	20.43
216.535	7.21
216.755	-32.82
216.974	-10.36
217.194	20.17
217.413	46.01
217.633	45.94
217.852	52.41
218.072	48.96
218.291	26.95
218.511	24.03
218.73	35.29
218.95	47.86
219.169	52.46
219.389	64.37
219.608	65.87
219.827	49.59
220.047	30.31
220.266	25.95
220.485	33.08
220.705	31.19
220.924	40.99
221.143	36
221.363	37.88
221.582	41.76
221.801	46.23
222.021	29.18
222.24	48.94
222.459	26.42
222.678	32.31
222.897	17.57
223.117	-4.89
223.336	-190.53
223.555	-76.69
223.774	-84.67
223.993	-51.7
224.213	-55.66
224.432	-13.01
224.651	5.9
224.87	16.17
225.089	13.95
225.308	30.8
225.527	26.58
225.746	-9.43
225.965	-3.48
226.184	-35.2
226.404	-17.2
226.623	-1.46
226.842	17.54
227.061	-4.22
227.28	15.22
227.499	32.14
227.718	31.43
227.936	18.02
228.155	22.54
228.374	32.35
228.593	25.51
228.812	-6.54
229.031	-1.91
229.25	13.97
229.469	-31.78
229.688	-70.59
229.907	-100.57
230.125	-98.08
230.344	-63.36
230.563	-59.02
230.782	-44.37
231.001	18.34
231.22	43.38
231.438	32.84
231.657	51.16
231.876	56.55
232.095	33.83
232.313	12.42
232.532	8.39
232.751	17.13
232.969	17.86
233.188	20.2
233.407	30.21
233.625	52.07
233.844	57.18
234.063	72.76
234.281	70.94
234.5	58.58
234.719	54.92
234.937	37.54
235.156	4.08
235.374	5.76
235.593	11.47
235.811	12.53
236.03	15.33
236.249	26.4
236.467	41.23
236.686	37.77
236.904	30.28
237.123	48.23
237.341	58.25
237.559	45.54
237.778	45.47
237.996	40.03
238.215	21.45
238.433	9.15
238.652	2.23
238.87	11.85
239.088	17.13
239.307	22.11
239.525	18.78
239.743	27.1
239.962	25.21
240.18	33.86
240.398	42.27
240.617	59.85
240.835	36.52
241.053	23.72
241.271	-24.21
241.49	-33.82
241.708	-32.5
241.926	-11.15
242.144	-16.67
242.363	9.97
242.581	20.42
242.799	17.34
243.017	12.15
243.235	40.84
243.453	44.11
243.672	50.79
243.89	54.46
244.108	55.97
244.326	24.69
244.544	15.25
244.762	25.14
244.98	22.23
245.198	29.99
245.416	42.12
245.634	45.77
245.852	13.47
246.07	12.26
246.288	-15.26
246.506	1.07
246.724	-11.87
246.942	-4.93
247.16	-0.08
247.378	-13.8
247.596	0.12
247.814	17.38
248.032	25.51
248.25	28.23
248.468	26.58
248.685	22.13
248.903	8.44
249.121	12.32
249.339	10.48
249.557	19.76
249.775	15.29
249.992	35.05
250.21	24.15
250.428	24.94
250.646	29.01
250.863	21.54
251.081	7.03
251.299	3.35
251.517	22.2
251.734	26.23
251.952	39.86
252.17	48.15
252.387	45.02
252.605	54.1
252.823	20.04
253.04	7.29
253.258	14.92
253.475	41.15
253.693	35.14
253.911	55.87
254.128	49.19
254.346	39.16
254.563	27.23
254.781	31.27
254.998	17.38
255.216	13.01
255.433	19.63
255.651	14.42
255.868	1.18
256.086	-9.05
256.303	10.95
256.521	18.21
256.738	22.49
256.956	23.49
257.173	26.97
257.39	21
257.608	-6.65
257.825	-13.08
258.043	-43.62
258.26	1.12
258.477	8.66
258.695	27.25
258.912	3.11
259.129	18.59
259.346	33.61
259.564	40.74
259.781	50.29
259.998	70.18
260.216	72.13
260.433	31.42
260.65	20.37
260.867	11.08
261.084	6.83
261.302	6.25
261.519	28.77
261.736	43.07
261.953	39.75
262.17	16.4
262.387	11.82
262.604	5.84
262.822	0.84
263.039	5.32
263.256	23.25
263.473	19.8
263.69	36.63
263.907	28.77
264.124	3.13
264.341	-16.83
264.558	-17.44
264.775	-28.83
264.992	-28.45
265.209	-18.1
265.426	-19.23
265.643	7.37
265.86	0.51
266.077	22.45
266.294	32.26
266.51	52.01
266.727	52.58
266.944	61.97
267.161	67.05
267.378	47.99
267.595	22.84
267.812	19.32
268.028	13.25
268.245	-1.49
268.462	21.03
268.679	38.36
268.896	19.57
269.112	33.62
269.329	15.58
269.546	-39.48
269.763	-26.25
269.979	-3.51
270.196	-11.03
270.413	0.09
270.629	18.35
270.846	19.67
271.063	10.67
271.279	18.91
271.496	42.59
271.712	28.47
271.929	22.81
272.146	33.4
272.362	33.93
272.579	12.72
272.795	6.28
273.012	19.02
273.228	18.24
273.445	11.42
273.661	19.06
273.878	30.14
274.094	21.41
274.311	-1.05
274.527	-27.91
274.744	-29.58
274.96	-27.48
275.177	-60.5
275.393	-18.75
275.609	-3.35
275.826	-3.78
276.042	-2.01
276.259	7.91
276.475	-13.18
276.691	-5.33
276.908	-9.17
277.124	6.56
277.34	6.56
277.557	11.83
277.773	16.88
277.989	26.13
278.205	17.09
278.422	26.58
278.638	31.96
278.854	55.55
279.07	50.75
279.286	55.32
279.503	56.06
279.719	57.08
279.935	37.17
280.151	31.81
280.367	3.18
280.583	-32.03
280.799	-22.52
281.016	-15.61
281.232	-9.27
281.448	10.28
281.664	19.72
281.88	26.35
282.096	27.46
282.312	10.17
282.528	4.93
282.744	3.59
282.96	-1.5
283.176	10.19
283.392	18.35
283.608	27.08
283.824	29.28
284.04	22.02
284.256	13.93
284.471	21.15
284.687	19.25
284.903	19.6
285.119	10.82
285.335	3.38
285.551	2.79
285.767	1.23
285.982	12.35
286.198	20.84
286.414	11.67
286.63	2.94
286.846	-3.46
287.061	-7.41
287.277	-22.19
287.493	-9.79
287.709	-26.39
287.924	9.6
288.14	-2.52
288.356	-5.79
288.571	-4.01
288.787	22.39
289.003	12.21
289.218	6.54
289.434	31.24
289.65	53.73
289.865	45.09
290.081	25.25
290.296	55.66
290.512	36.64
290.727	31.23
290.943	26.45
291.159	36.72
291.374	21.55
291.59	32.84
291.805	34.78
292.021	43.29
292.236	45.54
292.451	35.23
292.667	37.82
292.882	18.82
293.098	3.75
293.313	4.58
293.529	30.81
293.744	34.06
293.959	49.7
294.175	49.14
294.39	51.03
294.605	39.86
294.821	35.48
295.036	23.57
295.251	17.72
295.467	15.7
295.682	34.54
295.897	24.66
296.112	38.54
296.328	38.05
296.543	28.91
296.758	2.44
296.973	15.14
297.188	5.95
297.404	18.6
297.619	27.32
297.834	36.42
298.049	14.46
298.264	24.88
298.479	4.72
298.694	0.1
298.909	12.92
299.125	27.52
299.34	22.17
299.555	36.87
299.77	22.37
299.985	30.09
300.2	42.12
300.415	48.8
300.63	32
300.845	64.31
301.06	54.8
301.275	45.75
301.49	53.93
301.704	48.05
301.919	39.38
302.134	44.87
302.349	39.03
302.564	29.62
302.779	29.36
302.994	16.15
303.209	12.35
303.423	14.42
303.638	22.67
303.853	44.12
304.068	61.3
304.283	61.73
304.497	59.65
304.712	60.61
304.927	45.82
305.142	52.18
305.356	30.36
305.571	22.05
305.786	32.5
306	39.21
306.215	25.15
306.43	39.96
306.644	40.07
306.859	26.83
307.074	25.29
307.288	45.97
307.503	51.62
307.717	47.46
307.932	38.65
308.147	35.16
308.361	16.76
308.576	12.66
308.79	39.01
309.005	63.36
309.219	51.9
309.434	57.2
309.648	53.96
309.863	32.91
310.077	-1.25
310.292	11.79
310.506	-2.47
310.72	8.34
310.935	17.52
311.149	30.46
311.364	16.6
311.578	27.56
311.792	41.28
312.007	31.23
312.221	13.39
312.435	24.13
312.649	34.03
312.864	36.65
313.078	31.51
313.292	25.72
313.507	26.41
313.721	7.38
313.935	-9.17
314.149	-16.1
314.363	-20.13
314.578	-16.23
314.792	-9.15
315.006	-3.35
315.22	-8.95
315.434	-4.98
315.648	-3.98
315.862	4.83
316.077	-3.48
316.291	24.59
316.505	45.86
316.719	45.13
316.933	46.12
317.147	45.49
317.361	24.06
317.575	27.53
317.789	18.2
318.003	26.83
318.217	26.34
318.431	43.89
318.645	19.77
318.859	26.96
319.073	13.57
319.287	28.73
319.5	23.21
319.714	42.7
319.928	52.24
320.142	47.14
320.356	23
320.57	25.18
320.784	-2.9
320.997	-27.93
321.211	-3.18
321.425	13.21
321.639	11.79
321.853	16.02
322.066	34.78
322.28	44.94
322.494	50.66
322.707	29.64
322.921	27.63
323.135	37
323.349	14.45
323.562	25.58
323.776	36.22
323.989	35.37
324.203	25.12
324.417	28.64
324.63	42.34
324.844	40.16
325.057	42.1
325.271	26.28
325.485	41.05
325.698	15.19
325.912	1.49
326.125	16.89
326.339	28.88
326.552	4.89
326.766	26.86
326.979	32.32
327.193	40.42
327.406	48.16
327.619	59.13
327.833	28.03
328.046	37.45
328.26	26.69
328.473	28.57
328.686	36.46
328.9	50.05
329.113	54.96
329.326	57.54
329.54	73.39
329.753	77.88
329.966	69.75
330.179	46.04
330.393	39.3
330.606	39.32
330.819	36.68
331.032	52.79
331.246	58.82
331.459	61.56
331.672	61.39
331.885	50.57
332.098	35.55
332.311	56.12
332.525	59.03
332.738	54.01
332.951	66.09
333.164	47.44
333.377	41.13
333.59	26.33
333.803	15.42
334.016	-3.26
334.229	13.23
334.442	-22.8
334.655	-33.18
334.868	-25.59
335.081	-16.2
335.294	-14.02
335.507	11.07
335.72	40.6
335.933	35.82
336.146	38.47
336.359	25.32
336.572	23.37
336.785	13.78
336.997	20.23
337.21	15.55
337.423	43.24
337.636	56.49
337.849	50.17
338.062	36.25
338.274	17.14
338.487	28.61
338.7	32
338.913	42.98
339.125	44.41
339.338	48.9
339.551	36.26
339.763	20.27
339.976	14.88
340.189	29.16
340.402	29.89
340.614	30.24
340.827	30.17
341.039	27.17
341.252	15.34
341.465	12.03
341.677	12.39
341.89	28.04
342.102	20.29
342.315	22.95
342.527	26.3
342.74	28.34
342.952	10.55
343.165	20.23
343.377	-2.79
343.59	7.02
343.802	9.05
344.015	0.64
344.227	-10.1
344.44	29.07
344.652	40.65
344.864	25.05
345.077	23.36
345.289	7.44
345.502	-43.2
345.714	-64.15
345.926	-27.7
346.139	-21.62
346.351	2.13
346.563	5
346.775	13.13
346.988	-2.28
347.2	6.32
347.412	-0.06
347.624	9.94
347.837	4.57
348.049	23.12
348.261	14.47
348.473	20.47
348.685	30.2
348.897	27.74
349.11	1.57
349.322	2.28
349.534	-2.22
349.746	-5.11
349.958	2.74
350.17	12.01
350.382	0.1
350.594	13.93
350.806	24.12
351.018	16.93
351.23	17.14
351.442	43.75
351.654	28.83
351.866	17.44
352.078	13.76
352.29	12.37
352.502	-12.29
352.714	-4.79
352.926	-12.92
353.138	-18.95
353.35	-14.04
353.561	12.13
353.773	12.55
353.985	15.92
354.197	16.67
354.409	25.34
354.621	16.51
354.832	28.78
355.044	35.98
355.256	44.08
355.468	29.31
355.679	32.92
355.891	24.32
356.103	25.35
356.314	19.28
356.526	22.09
356.738	28.61
356.949	28.08
357.161	9.6
357.373	10.75
357.584	17.63
357.796	2.13
358.008	-18.45
358.219	-3.77
358.431	1.85
358.642	-3.34
358.854	-10.99
359.065	13.22
359.277	23.21
359.488	20.28
359.7	29.59
359.911	31.58
360.123	29.72
360.334	25.28
360.546	35.95
360.757	27.56
360.969	20.66
361.18	21.11
361.391	26.96
361.603	17.79
361.814	16.12
362.025	33.18
362.237	36.26
362.448	38.02
362.659	27.32
362.871	30.94
363.082	11.61
363.293	-0.86
363.504	-2.71
363.716	21.31
363.927	22.07
364.138	23.52
364.349	31.78
364.56	28.2
364.772	36.47
364.983	18.8
365.194	17.47
365.405	14.38
365.616	10.9
365.827	0.3
366.038	15.93
366.25	21.63
366.461	20.85
366.672	18.42
366.883	10.96
367.094	3.61
367.305	18.37
367.516	12.47
367.727	16.65
367.938	21.97
368.149	28.8
368.36	10.14
368.571	22.7
368.781	32.73
368.992	34.15
369.203	42.58
369.414	42.13
369.625	30.03
369.836	24.79
370.047	28.55
370.258	8.3
370.468	27.8
370.679	51.47
370.89	54.9
371.101	50.05
371.312	51.12
371.522	31.23
371.733	14.53
371.944	15.31
372.155	22.21
372.365	17.23
372.576	38.6
372.787	38.74
372.997	34.99
373.208	22.45
373.419	20.21
373.629	16.4
373.84	19.17
374.05	19.2
374.261	26.41
374.472	33.77
374.682	25.99
374.893	27.83
375.103	16.09
375.314	27.75
375.524	24.51
375.735	29.99
375.945	29.16
376.156	34.22
376.366	15.76
376.577	21.12
376.787	18.14
376.997	24.45
377.208	23.29
377.418	24.52
377.629	11.26
377.839	3.16
378.049	-1.58
378.26	-2.37
378.47	4.23
378.68	14.75
378.89	27.99
379.101	28.23
379.311	29.81
379.521	43.85
379.732	38.67
379.942	37.6
380.152	41.24
380.362	33.68
380.572	28.09
380.783	38.85
380.993	33.34
381.203	25.96
381.413	26.06
381.623	25.06
381.833	17.15
382.043	22.27
382.253	28.36
382.463	33.92
382.674	36.17
382.884	32.15
383.094	30.15
383.304	19.32
383.514	11.17
383.724	6.27
383.934	10.77
384.144	12.31
384.353	14.6
384.563	12.9
384.773	15.01
384.983	6.94
385.193	4.06
385.403	8.07
385.613	12.71
385.823	12.75
386.033	13.88
386.242	19.57
386.452	19.31
386.662	20.9
386.872	19.58
387.082	18.57
387.291	13.05
387.501	9.88
387.711	9.11
387.921	10.96
388.13	11.46
388.34	7.55
388.55	11.19
388.759	12.12
388.969	9.75
389.179	10.72
389.388	10.63
389.598	11.22
389.807	9.37
390.017	10.97
390.227	9.64
390.436	12.21
390.646	7.46
390.855	8.55
391.065	7.42
391.274	8.59
391.484	9.33
391.693	10.88
391.903	9.08
392.112	10.14
392.322	8.16
392.531	7.46
392.74	7.08
392.95	8.99
393.159	7.42
393.369	8.92
393.578	8.7
393.787	8.86
393.997	7.88
394.206	8.59
394.415	8.22
394.625	7.73
394.834	8.84
395.043	8.79
395.252	8.25
395.462	7.87
395.671	7.35
395.88	7.01
396.089	7.07
396.298	7.52
396.508	8.07
396.717	8.91
396.926	8.41
397.135	7.46
397.344	6.98
397.553	6.24
397.762	5.71
397.971	5.5
398.181	6.04
398.39	6.42
398.599	6.52
398.808	6.65
399.017	6.46
399.226	6.03
399.435	5.35
399.644	5.58
399.853	5.48
400.062	5.68
400.27	6.03
400.479	6.38
400.688	6.34
400.897	6.6
401.106	6.69
401.315	6.83
401.524	7.14
401.733	6.93
401.941	6.79
402.15	6.67
402.359	6.7
402.568	6.29
402.777	6.2
402.985	6.21
403.194	6.32
403.403	6.24
403.612	6.23
403.82	6.38
404.029	6.39
404.238	6.5
404.446	6.38
404.655	6.34
404.864	6.3
405.072	6.35
405.281	6.16
405.489	6.09
405.698	6.26
405.906	6.39
406.115	6.27
406.324	6.26
406.532	6.24
406.741	6.07
406.949	5.86
407.158	5.85
407.366	5.89
407.574	5.8
407.783	5.87
407.991	5.92
408.2	5.79
408.408	5.63
408.617	5.72
408.825	5.64
409.033	5.58
409.242	5.63
409.45	5.64
409.658	5.77
409.867	5.76
410.075	5.81
410.283	5.89
410.491	5.97
410.7	5.85
410.908	5.85
411.116	5.63
411.324	5.56
411.533	5.45
411.741	5.51
411.949	5.47
412.157	5.63
412.365	5.58
412.573	5.6
412.781	5.57
412.99	5.64
413.198	5.63
413.406	5.48
413.614	5.34
413.822	5.3
414.03	5.3
414.238	5.29
414.446	5.45
414.654	5.61
414.862	5.6
415.07	5.41
415.278	5.43
415.486	5.44
415.694	5.47
415.902	5.25
416.109	5.42
416.317	5.45
416.525	5.36
416.733	5.41
416.941	5.54
417.149	5.39
417.357	5.3
417.564	5.36
417.772	5.03
417.98	5.2
418.188	5.33
418.395	5.22
418.603	5.12
418.811	5.37
419.019	5.08
419.226	5.09
419.434	5.08
419.642	5.06
419.849	4.99
420.057	5.07
420.265	4.89
420.472	4.96
420.68	4.95
420.887	4.9
421.095	4.83
421.302	5.12
421.51	4.92
421.717	4.82
421.925	4.77
422.132	4.92
422.34	4.71
422.547	4.87
422.755	4.99
422.962	5.19
423.17	5.21
423.377	5.37
423.585	5.29
423.792	5.27
423.999	5.04
424.207	5.07
424.414	4.71
424.621	4.6
424.829	4.73
425.036	4.83
425.243	4.82
425.451	4.89
425.658	5.01
425.865	4.92
426.072	4.82
426.28	4.63
426.487	4.82
426.694	4.83
426.901	4.82
427.108	4.89
427.315	5.17
427.523	4.92
427.73	5.07
427.937	5.25
428.144	5.25
428.351	5.17
428.558	5.2
428.765	5.11
428.972	5.03
429.179	5.07
429.386	5.03
429.593	5.16
429.8	5.41
430.007	5.39
430.214	5.51
430.421	5.55
430.628	5.52
430.835	5.42
431.042	5.37
431.249	5.29
431.456	5.36
431.662	5.39
431.869	5.37
432.076	5.34
432.283	5.45
432.49	5.52
432.697	5.56
432.903	5.57
433.11	5.55
433.317	5.41
433.524	5.16
433.73	5.3
433.937	5.36
434.144	5.49
434.35	5.66
434.557	5.87
434.764	5.82
434.97	5.85
435.177	5.83
435.384	5.88
435.59	5.85
435.797	5.78
436.003	5.66
436.21	5.8
436.416	5.79
436.623	5.81
436.829	5.86
437.036	6
437.242	5.9
437.449	5.87
437.655	5.88
437.862	5.95
438.068	5.85
438.275	5.83
438.481	5.76
438.687	5.83
438.894	5.92
439.1	6.13
439.307	6.07
439.513	6.13
439.719	6.09
439.926	6.05
440.132	6.05
440.338	6.3
440.544	6.25
440.751	6.37
440.957	6.4
441.163	6.46
441.369	6.4
441.575	6.55
441.782	6.53
441.988	6.59
442.194	6.49
442.4	6.53
442.606	6.48
442.812	6.52
443.018	6.38
443.224	6.45
443.431	6.44
443.637	6.56
443.843	6.55
444.049	6.71
444.255	6.75
444.461	6.85
444.667	6.91
444.873	6.73
445.079	6.69
445.284	6.74
445.49	6.69
445.696	6.62
445.902	6.74
446.108	6.73
446.314	6.69
446.52	6.88
446.726	6.9
446.931	7.01
447.137	7.04
447.343	7.07
447.549	7.02
447.755	7.13
447.96	7.15
448.166	7.22
448.372	7.21
448.578	7.17
448.783	7.09
448.989	7.16
449.195	7.16
449.4	7.2
449.606	7.3
449.812	7.31
450.017	7.23
450.223	7.32
450.428	7.38
450.634	7.38
450.84	7.38
451.045	7.55
451.251	7.59
451.456	7.47
451.662	7.32
451.867	7.33
452.073	7.2
452.278	7.14
452.483	7.14
452.689	7.3
452.894	7.33
453.1	7.4
453.305	7.43
453.51	7.48
453.716	7.49
453.921	7.67
454.127	7.65
454.332	7.74
454.537	7.86
454.742	7.96
454.948	7.83
455.153	7.89
455.358	7.85
455.563	7.8
455.769	7.82
455.974	7.91
456.179	7.93
456.384	7.92
456.589	8.05
456.795	7.97
457	8
457.205	7.97
457.41	7.93
457.615	7.94
457.82	7.97
458.025	7.92
458.23	8
458.435	8.06
458.64	8.08
458.845	8.09
459.05	8.2
459.255	8.26
459.46	8.25
459.665	8.31
459.87	8.32
460.075	8.29
460.28	8.34
460.485	8.39
460.69	8.32
460.895	8.42
461.099	8.46
461.304	8.33
461.509	8.52
461.714	8.61
461.919	8.57
462.123	8.47
462.328	8.64
462.533	8.55
462.738	8.71
462.942	8.75
463.147	8.94
463.352	8.95
463.556	9
463.761	8.83
463.966	8.84
464.17	8.83
464.375	8.91
464.58	8.85
464.784	8.85
464.989	8.96
465.193	9.01
465.398	8.9
465.602	8.95
465.807	9.07
466.011	9.05
466.216	8.95
466.42	8.99
466.625	9.12
466.829	9.05
467.034	9.09
467.238	9.19
467.443	9.28
467.647	9.28
467.851	9.48
468.056	9.49
468.26	9.5
468.464	9.42
468.669	9.47
468.873	9.28
469.077	9.23
469.282	9.39
469.486	9.57
469.69	9.52
469.894	9.66
470.099	9.74
470.303	9.67
470.507	9.66
470.711	9.72
470.915	9.77
471.119	9.97
471.324	10.06
471.528	10.05
471.732	10.07
471.936	10.06
472.14	9.85
472.344	9.86
472.548	9.83
472.752	9.79
472.956	9.87
473.16	9.94
473.364	10.01
473.568	10.2
473.772	10.23
473.976	10.26
474.18	10.32
474.384	10.23
474.588	10.18
474.792	10.3
474.995	10.24
475.199	10.2
475.403	10.2
475.607	10.12
475.811	10.11
476.015	10.08
476.218	10.12
476.422	10.15
476.626	10.21
476.83	10.17
477.033	10.39
477.237	10.45
477.441	10.47
477.644	10.46
477.848	10.51
478.052	10.4
478.255	10.44
478.459	10.52
478.663	10.51
478.866	10.54
479.07	10.5
479.273	10.46
479.477	10.33
479.681	10.42
479.884	10.37
480.088	10.41
480.291	10.35
480.495	10.46
480.698	10.43
480.901	10.44
481.105	10.47
481.308	10.52
481.512	10.53
481.715	10.49
481.919	10.56
482.122	10.54
482.325	10.66
482.529	10.66
482.732	10.7
482.935	10.65
483.138	10.59
483.342	10.54
483.545	10.52
483.748	10.45
483.952	10.52
484.155	10.56
484.358	10.57
484.561	10.58
484.764	10.68
484.967	10.66
485.171	10.69
485.374	10.7
485.577	10.72
485.78	10.68
485.983	10.64
486.186	10.68
486.389	10.64
486.592	10.64
486.795	10.66
486.998	10.61
487.201	10.56
487.404	10.6
487.607	10.64
487.81	10.59
488.013	10.59
488.216	10.54
488.419	10.49
488.622	10.42
488.825	10.47
489.028	10.53
489.231	10.66
489.433	10.66
489.636	10.66
489.839	10.64
490.042	10.66
490.245	10.65
490.447	10.65
490.65	10.63
490.853	10.61
491.056	10.55
491.258	10.5
491.461	10.57
491.664	10.55
491.866	10.62
492.069	10.64
492.272	10.6
492.474	10.56
492.677	10.58
492.879	10.54
493.082	10.5
493.285	10.52
493.487	10.52
493.69	10.55
493.892	10.57
494.095	10.62
494.297	10.63
494.5	10.56
494.702	10.51
494.905	10.58
495.107	10.53
495.309	10.6
495.512	10.65
495.714	10.72
495.917	10.61
496.119	10.61
496.321	10.49
496.524	10.45
496.726	10.41
496.928	10.44
497.13	10.54
497.333	10.53
497.535	10.56
497.737	10.59
497.939	10.57
498.142	10.53
498.344	10.55
498.546	10.55
498.748	10.52
498.95	10.64
499.152	10.64
499.355	10.66
499.557	10.65
499.759	10.65
499.961	10.58
500.163	10.61
500.365	10.66
500.567	10.51
500.769	10.52
500.971	10.54
501.173	10.54
501.375	10.55
501.577	10.75
501.779	10.81
501.981	10.84
502.183	10.78
502.385	10.75
502.587	10.72
502.788	10.64
502.99	10.57
503.192	10.6
503.394	10.63
503.596	10.59
503.798	10.62
503.999	10.65
504.201	10.68
504.403	10.71
504.605	10.76
504.806	10.8
505.008	10.8
505.21	10.73
505.411	10.69
505.613	10.69
505.815	10.73
506.016	10.75
506.218	10.8
506.42	10.87
506.621	10.85
506.823	10.8
507.024	10.81
507.226	10.81
507.427	10.72
507.629	10.82
507.83	10.84
508.032	10.8
508.233	10.77
508.435	10.77
508.636	10.72
508.838	10.63
509.039	10.64
509.24	10.6
509.442	10.59
509.643	10.54
509.845	10.64
510.046	10.63
510.247	10.66
510.448	10.67
510.65	10.73
510.851	10.67
511.052	10.64
511.254	10.77
511.455	10.77
511.656	10.68
511.857	10.71
512.058	10.76
512.26	10.7
512.461	10.67
512.662	10.74
512.863	10.79
513.064	10.77
513.265	10.73
513.466	10.83
513.667	10.86
513.868	10.79
514.069	10.79
514.27	10.82
514.471	10.79
514.672	10.76
514.873	10.75
515.074	10.73
515.275	10.78
515.476	10.79
515.677	10.75
515.878	10.76
516.079	10.81
516.28	10.77
516.481	10.73
516.682	10.81
516.882	10.94
517.083	10.92
517.284	10.89
517.485	10.88
517.686	10.86
517.886	10.81
518.087	10.76
518.288	10.79
518.488	10.89
518.689	10.84
518.89	10.86
519.091	10.9
519.291	10.9
519.492	10.86
519.692	10.92
519.893	10.86
520.094	10.9
520.294	10.91
520.495	10.96
520.695	10.98
520.896	11.04
521.096	11
521.297	11.02
521.497	11
521.698	11
521.898	10.96
522.099	11.02
522.299	10.96
522.499	10.97
522.7	10.98
522.9	11.01
523.101	10.95
523.301	10.99
523.501	10.94
523.702	10.93
523.902	10.93
524.102	10.99
524.302	11.07
524.503	11.12
524.703	11.13
524.903	11.18
525.103	11.19
525.304	11.08
525.504	11.06
525.704	11.04
525.904	10.99
526.104	10.96
526.304	11
526.504	11.01
526.705	11.04
526.905	11.01
527.105	11.02
527.305	11.07
527.505	11.12
527.705	11.19
527.905	11.24
528.105	11.3
528.305	11.29
528.505	11.26
528.705	11.19
528.905	11.18
529.105	11.17
529.304	11.19
529.504	11.24
529.704	11.3
529.904	11.37
530.104	11.39
530.304	11.4
530.503	11.42
530.703	11.39
530.903	11.39
531.103	11.34
531.303	11.36
531.502	11.3
531.702	11.28
531.902	11.23
532.101	11.25
532.301	11.26
532.501	11.32
532.7	11.39
532.9	11.44
533.1	11.5
533.299	11.54
533.499	11.52
533.698	11.51
533.898	11.51
534.097	11.49
534.297	11.38
534.496	11.38
534.696	11.4
534.895	11.39
535.095	11.44
535.294	11.55
535.494	11.56
535.693	11.55
535.892	11.56
536.092	11.55
536.291	11.58
536.491	11.64
536.69	11.67
536.889	11.74
537.088	11.82
537.288	11.81
537.487	11.8
537.686	11.83
537.886	11.78
538.085	11.74
538.284	11.7
538.483	11.75
538.682	11.73
538.882	11.75
539.081	11.79
539.28	11.89
539.479	11.88
539.678	11.97
539.877	11.96
540.076	11.98
540.275	11.99
540.474	11.99
540.673	11.96
540.872	12.03
541.071	11.99
541.27	11.99
541.469	11.98
541.668	11.99
541.867	12.07
542.066	12.17
542.265	12.25
542.464	12.43
542.663	12.5
542.862	12.47
543.06	12.51
543.259	12.5
543.458	12.47
543.657	12.54
543.856	12.63
544.054	12.64
544.253	12.68
544.452	12.72
544.651	12.69
544.849	12.76
545.048	12.8
545.247	12.85
545.445	12.86
545.644	12.98
545.843	12.98
546.041	12.92
546.24	12.9
546.438	12.92
546.637	12.92
546.836	12.95
547.034	13.09
547.233	13.22
547.431	13.37
547.63	13.38
547.828	13.5
548.027	13.53
548.225	13.59
548.423	13.58
548.622	13.64
548.82	13.66
549.019	13.73
549.217	13.63
549.415	13.7
549.614	13.8
549.812	13.79
550.01	13.92
550.209	14.12
550.407	14.17
550.605	14.17
550.803	14.26
551.002	14.26
551.2	14.27
551.398	14.28
551.596	14.4
551.794	14.43
551.993	14.48
552.191	14.56
552.389	14.63
552.587	14.68
552.785	14.77
552.983	14.82
553.181	14.87
553.379	14.98
553.577	15.06
553.775	15.14
553.973	15.17
554.171	15.23
554.369	15.33
554.567	15.34
554.765	15.41
554.963	15.44
555.161	15.51
555.359	15.52
555.557	15.54
555.755	15.64
555.952	15.77
556.15	15.8
556.348	15.85
556.546	16.01
556.744	15.98
556.941	16.04
557.139	16.13
557.337	16.24
557.535	16.31
557.732	16.44
557.93	16.44
558.128	16.6
558.325	16.58
558.523	16.59
558.721	16.62
558.918	16.77
559.116	16.79
559.313	16.85
559.511	16.94
559.708	17.05
559.906	17.14
560.104	17.16
560.301	17.27
560.498	17.38
560.696	17.49
560.893	17.59
561.091	17.71
561.288	17.83
561.486	17.9
561.683	17.88
561.88	17.88
562.078	17.9
562.275	18
562.473	18.03
562.67	18.14
562.867	18.25
563.064	18.34
563.262	18.39
563.459	18.49
563.656	18.43
563.853	18.48
564.051	18.55
564.248	18.58
564.445	18.6
564.642	18.75
564.839	18.82
565.036	18.87
565.234	18.9
565.431	19
565.628	19.06
565.825	19.02
566.022	19.09
566.219	19.16
566.416	19.2
566.613	19.26
566.81	19.44
567.007	19.52
567.204	19.57
567.401	19.59
567.598	19.68
567.795	19.67
567.991	19.65
568.188	19.68
568.385	19.59
568.582	19.66
568.779	19.68
568.976	19.72
569.172	19.72
569.369	19.92
569.566	19.93
569.763	19.89
569.96	19.92
570.156	19.95
570.353	19.91
570.55	19.93
570.746	20.02
570.943	20.11
571.14	20.12
571.336	20.14
571.533	20.11
571.729	20.16
571.926	20.17
572.123	20.23
572.319	20.31
572.516	20.42
572.712	20.33
572.909	20.27
573.105	20.23
573.302	20.17
573.498	20.09
573.695	20.18
573.891	20.28
574.087	20.35
574.284	20.41
574.48	20.48
574.677	20.43
574.873	20.44
575.069	20.53
575.266	20.58
575.462	20.52
575.658	20.48
575.854	20.43
576.051	20.36
576.247	20.34
576.443	20.38
576.639	20.51
576.835	20.56
577.032	20.5
577.228	20.52
577.424	20.43
577.62	20.36
577.816	20.26
578.012	20.26
578.208	20.09
578.404	20.06
578.6	20.1
578.796	20.1
578.993	20.11
579.189	20.22
579.384	20.35
579.58	20.32
579.776	20.4
579.972	20.4
580.168	20.29
580.364	20.29
580.56	20.27
580.756	20.26
580.952	20.27
581.148	20.26
581.343	20.17
581.539	20.13
581.735	20.09
581.931	19.95
582.127	20.01
582.322	20.01
582.518	19.96
582.714	19.96
582.909	19.96
583.105	19.9
583.301	19.88
583.496	19.82
583.692	19.77
583.888	19.84
584.083	19.83
584.279	19.86
584.474	19.89
584.67	19.92
584.866	19.9
585.061	19.89
585.257	19.85
585.452	19.84
585.648	19.78
585.843	19.72
586.039	19.67
586.234	19.66
586.429	19.67
586.625	19.61
586.82	19.68
587.015	19.81
587.211	19.79
587.406	19.88
587.601	19.96
587.797	19.95
587.992	19.92
588.187	19.9
588.383	19.89
588.578	19.94
588.773	19.93
588.968	19.88
589.163	19.97
589.359	19.9
589.554	19.89
589.749	19.93
589.944	20.01
590.139	19.93
590.334	20.02
590.529	20.07
590.724	20.03
590.919	19.93
591.114	20.05
591.309	19.99
591.504	19.93
591.699	20.05
591.894	20.17
592.089	20.23
592.284	20.3
592.479	20.36
592.674	20.4
592.869	20.4
593.064	20.44
593.259	20.45
593.454	20.49
593.648	20.53
593.843	20.6
594.038	20.64
594.233	20.74
594.428	20.83
594.622	20.83
594.817	20.89
595.012	20.95
595.206	20.95
595.401	20.94
595.596	20.98
595.79	20.96
595.985	21.05
596.18	21.19
596.374	21.29
596.569	21.4
596.763	21.54
596.958	21.54
597.153	21.49
597.347	21.49
597.542	21.48
597.736	21.54
597.931	21.59
598.125	21.67
598.319	21.82
598.514	21.94
598.708	22.07
598.903	22.12
599.097	22.19
599.291	22.11
599.486	22.13
599.68	22.05
599.874	22.11
600.069	22.14
600.263	22.29
600.457	22.3
600.651	22.31
600.846	22.4
601.04	22.42
601.234	22.37
601.428	22.34
601.622	22.44
601.817	22.37
602.011	22.42
602.205	22.51
602.399	22.63
602.593	22.61
602.787	22.63
602.981	22.62
603.175	22.66
603.369	22.58
603.563	22.6
603.757	22.57
603.951	22.5
604.145	22.51
604.339	22.52
604.533	22.52
604.727	22.54
604.921	22.51
605.115	22.41
605.309	22.44
605.502	22.39
605.696	22.37
605.89	22.38
606.084	22.35
606.278	22.29
606.471	22.22
606.665	22.13
606.859	22.14
607.053	22.16
607.246	22.07
607.44	22.05
607.634	22.07
607.827	22.05
608.021	21.91
608.214	22.05
608.408	21.97
608.602	21.92
608.795	21.94
608.989	21.88
609.182	21.7
609.376	21.62
609.569	21.56
609.763	21.37
609.956	21.35
610.15	21.35
610.343	21.39
610.537	21.37
610.73	21.4
610.923	21.38
611.117	21.26
611.31	21.19
611.504	21.12
611.697	21.07
611.89	21.02
612.083	21.01
612.277	20.99
612.47	20.93
612.663	20.88
612.856	20.75
613.05	20.71
613.243	20.66
613.436	20.54
613.629	20.47
613.822	20.41
614.015	20.35
614.209	20.24
614.402	20.2
614.595	20.13
614.788	20.14
614.981	20.07
615.174	20.08
615.367	19.99
615.56	19.89
615.753	19.92
615.946	19.84
616.139	19.76
616.332	19.78
616.525	19.81
616.718	19.74
616.911	19.73
617.103	19.72
617.296	19.69
617.489	19.66
617.682	19.64
617.875	19.58
618.067	19.5
618.26	19.47
618.453	19.39
618.646	19.19
618.838	19.14
619.031	19.04
619.224	19
619.417	19.05
619.609	19.16
619.802	19.18
619.994	19.15
620.187	19.11
620.38	19.07
620.572	18.93
620.765	18.83
620.957	18.87
621.15	18.9
621.342	18.81
621.535	18.75
621.727	18.78
621.92	18.72
622.112	18.72
622.305	18.75
622.497	18.91
622.69	18.91
622.882	18.91
623.074	18.87
623.267	18.88
623.459	18.8
623.651	18.73
623.844	18.72
624.036	18.67
624.228	18.68
624.42	18.65
624.613	18.6
624.805	18.58
624.997	18.54
625.189	18.46
625.381	18.45
625.574	18.45
625.766	18.47
625.958	18.5
626.15	18.45
626.342	18.43
626.534	18.44
626.726	18.43
626.918	18.39
627.11	18.36
627.302	18.27
627.494	18.22
627.686	18.17
627.878	18.08
628.07	18.04
628.262	18
628.454	17.91
628.646	17.81
628.838	17.75
629.029	17.74
629.221	17.69
629.413	17.71
629.605	17.71
629.797	17.76
629.989	17.71
630.18	17.73
630.372	17.7
630.564	17.6
630.755	17.56
630.947	17.59
631.139	17.63
631.33	17.59
631.522	17.59
631.714	17.51
631.905	17.41
632.097	17.28
632.289	17.36
632.48	17.39
632.672	17.31
632.863	17.31
633.055	17.34
633.246	17.16
633.438	17.05
633.629	17.16
633.821	17.16
634.012	17.12
634.203	17.19
634.395	17.18
634.586	17.2
634.777	17.18
634.969	17.22
635.16	17.18
635.351	17.25
635.543	17.13
635.734	17.07
635.925	17.05
636.117	16.96
636.308	16.95
636.499	16.96
636.69	17.04
636.881	17.02
637.073	17.05
637.264	16.99
637.455	16.98
637.646	16.83
637.837	16.82
638.028	16.78
638.219	16.81
638.41	16.84
638.601	16.82
638.792	16.85
638.983	16.9
639.174	16.91
639.365	16.81
639.556	16.8
639.747	16.65
639.938	16.61
640.129	16.47
640.32	16.48
640.511	16.45
640.701	16.46
640.892	16.46
641.083	16.44
641.274	16.31
641.465	16.34
641.655	16.28
641.846	16.27
642.037	16.3
642.228	16.33
642.418	16.22
642.609	16.15
642.8	16.06
642.99	16.03
643.181	16.01
643.372	16.04
643.562	16.11
643.753	16.03
643.943	16.03
644.134	16.09
644.324	16.07
644.515	16.1
644.705	16.1
644.896	16.04
645.086	15.99
645.277	15.95
645.467	15.89
645.658	15.98
645.848	15.95
646.038	15.83
646.229	15.91
646.419	15.82
646.61	15.79
646.8	15.84
646.99	15.9
647.18	15.81
647.371	15.78
647.561	15.71
647.751	15.66
647.941	15.69
648.132	15.78
648.322	15.83
648.512	15.83
648.702	15.89
648.892	15.87
649.082	15.8
649.272	15.85
649.462	15.8
649.653	15.75
649.843	15.69
650.033	15.66
650.223	15.57
650.413	15.6
650.603	15.59
650.793	15.59
650.983	15.6
651.172	15.59
651.362	15.46
651.552	15.46
651.742	15.52
651.932	15.47
652.122	15.57
652.312	15.6
652.502	15.41
652.691	15.21
652.881	15.22
653.071	15.02
653.261	14.96
653.45	14.98
653.64	15
653.83	14.98
654.019	15.01
654.209	14.85
654.399	14.82
654.588	14.73
654.778	14.55
654.968	14.35
655.157	14.35
655.347	14.31
655.536	14.25
655.726	14.1
655.915	14.04
656.105	14.02
656.294	13.84
656.484	13.69
656.673	13.76
656.863	13.75
657.052	13.63
657.241	13.63
657.431	13.6
657.62	13.39
657.809	13.19
657.999	13.11
658.188	13.02
658.377	12.97
658.567	12.86
658.756	12.86
658.945	12.84
659.134	12.68
659.324	12.56
659.513	12.53
659.702	12.4
659.891	12.31
660.08	12.16
660.269	11.98
660.458	11.82
660.648	11.66
660.837	11.49
661.026	11.42
661.215	11.36
661.404	11.37
661.593	11.24
661.782	11.12
661.971	11.01
662.16	10.87
662.349	10.76
662.538	10.77
662.726	10.76
662.915	10.76
663.104	10.73
663.293	10.53
663.482	10.5
663.671	10.35
663.86	10.24
664.048	10.21
664.237	10.22
664.426	10.14
664.615	10.01
664.803	9.94
664.992	9.89
665.181	9.86
665.369	9.79
665.558	9.8
665.747	9.95
665.935	9.86
666.124	9.87
666.312	9.83
666.501	9.9
666.69	9.81
666.878	9.85
667.067	9.78
667.255	9.8
667.444	9.61
667.632	9.45
667.82	9.31
668.009	9.27
668.197	9.28
668.386	9.36
668.574	9.42
668.762	9.42
668.951	9.42
669.139	9.46
669.327	9.51
669.516	9.43
669.704	9.55
669.892	9.6
670.08	9.57
670.269	9.53
670.457	9.61
670.645	9.64
670.833	9.53
671.021	9.47
671.21	9.59
671.398	9.6
671.586	9.61
671.774	9.82
671.962	9.95
672.15	9.96
672.338	10.11
672.526	10.16
672.714	10.24
672.902	10.32
673.09	10.28
673.278	10.25
673.466	10.16
673.654	10.09
673.842	10.15
674.03	10.22
674.218	10.28
674.405	10.46
674.593	10.47
674.781	10.38
674.969	10.42
675.157	10.34
675.344	10.3
675.532	10.32
675.72	10.49
675.908	10.57
676.095	10.68
676.283	10.81
676.471	10.88
676.658	10.82
676.846	10.9
677.033	10.94
677.221	11.15
677.409	11.25
677.596	11.38
677.784	11.42
677.971	11.59
678.159	11.41
678.346	11.39
678.534	11.47
678.721	11.37
678.909	11.32
679.096	11.49
679.283	11.65
679.471	11.75
679.658	11.89
679.846	11.96
680.033	11.86
680.22	11.86
680.408	11.87
680.595	11.99
680.782	12.13
680.969	12.25
681.157	12.27
681.344	12.29
681.531	12.29
681.718	12.36
681.905	12.4
682.093	12.51
682.28	12.51
682.467	12.75
682.654	12.77
682.841	12.98
683.028	13.19
683.215	13.43
683.402	13.51
683.589	13.67
683.776	13.86
683.963	13.92
684.15	14
684.337	14.26
684.524	14.49
684.711	14.43
684.898	14.72
685.085	14.88
685.271	14.98
685.458	15.07
685.645	15.37
685.832	15.51
686.019	15.96
686.205	16.23
686.392	16.57
686.579	16.85
686.766	16.89
686.952	16.96
687.139	16.98
687.326	17.23
687.512	17.55
687.699	17.98
687.886	18.22
688.072	18.65
688.259	18.95
688.445	19.32
688.632	19.72
688.818	20.1
689.005	20.34
689.191	20.67
689.378	21
689.564	21.19
689.751	21.57
689.937	22.25
690.124	22.72
690.31	22.91
690.496	23.54
690.683	23.88
690.869	24.19
691.055	24.46
691.242	24.77
691.428	24.93
691.614	25.43
691.8	25.87
691.987	26.3
692.173	26.96
692.359	27.46
692.545	27.81
692.731	28.23
692.918	28.73
693.104	29.25
693.29	29.8
693.476	30.5
693.662	30.92
693.848	31.45
694.034	32.05
694.22	32.6
694.406	33.16
694.592	33.73
694.778	34.56
694.964	34.97
695.15	35.65
695.336	35.93
695.522	36.49
695.708	36.94
695.894	37.55
696.08	37.98
696.265	38.59
696.451	39.22
696.637	39.54
696.823	40
697.009	40.86
697.194	41.4
697.38	41.84
697.566	42.63
697.751	43.49
697.937	43.69
698.123	44.35
698.308	45.02
698.494	45.64
698.68	45.97
698.865	46.53
699.051	47.01
699.236	47.34
699.422	47.49
699.607	48.12
699.793	48.62
699.978	49.24
700.164	49.99
700.349	50.45
700.535	50.74
700.72	51.39
700.906	51.95
701.091	52.07
701.276	52.58
701.462	52.99
701.647	53.47
701.832	53.71
702.018	54.33
702.203	55.17
702.388	55.69
702.573	56.09
702.759	56.21
702.944	56.64
703.129	56.52
703.314	56.93
703.499	57.07
703.684	57.7
703.87	57.86
704.055	58.37
704.24	58.66
704.425	59.42
704.61	59.86
704.795	60.66
704.98	61.31
705.165	61.91
705.35	62.41
705.535	62.62
705.72	62.78
705.905	62.91
706.09	62.99
706.275	62.9
706.459	63.32
706.644	63.59
706.829	63.83
707.014	64.4
707.199	64.75
707.384	64.77
707.568	65.11
707.753	65.45
707.938	65.33
708.123	65.21
708.307	65.88
708.492	66.02
708.677	66.25
708.861	66.9
709.046	67.57
709.231	67.87
709.415	68.43
709.6	68.64
709.784	68.61
709.969	68.49
710.153	68.98
710.338	69.17
710.522	69.56
710.707	69.89
710.891	70.22
711.076	70
711.26	70.04
711.445	69.93
711.629	70.37
711.813	70.74
711.998	70.62
712.182	70.91
712.366	71.19
712.551	70.84
712.735	70.92
712.919	71.58
713.103	71.6
713.288	72
713.472	72.41
713.656	72.48
713.84	72.7
714.024	72.9
714.208	72.88
714.393	73.1
714.577	73.64
714.761	73.54
714.945	73.75
715.129	73.85
715.313	73.81
715.497	73.7
715.681	73.64
715.865	74.16
716.049	74.39
716.233	74.68
716.417	74.76
716.601	74.85
716.785	74.54
716.968	74.93
717.152	75.13
717.336	75.27
717.52	76.14
717.704	76.46
717.888	76.81
718.071	76.87
718.255	77.01
718.439	76.75
718.622	76.74
718.806	76.32
718.99	76.98
719.174	77.26
719.357	77.38
719.541	77.7
719.724	77.92
719.908	78.05
720.092	78.46
720.275	79.14
720.459	79.4
720.642	79.24
720.826	78.92
721.009	78.68
721.193	78.47
721.376	78.55
721.559	79.09
721.743	79.12
721.926	79.47
722.11	79.38
722.293	79.77
722.476	79.94
722.66	80.3
722.843	80.17
723.026	80.01
723.21	80.03
723.393	79.32
723.576	78.85
723.759	78.8
723.942	79.2
724.126	78.86
724.309	79.77
724.492	80.02
724.675	80.73
724.858	80.82
725.041	80.53
725.224	80.48
725.407	80.37
725.59	80.08
725.774	80.45
725.957	81.43
726.14	81.75
726.322	82.21
726.505	82.14
726.688	82.09
726.871	81.45
727.054	81.71
727.237	82.09
727.42	82.67
727.603	82.79
727.786	83.65
727.968	83.77
728.151	83.75
728.334	83.82
728.517	84.06
728.699	83.31
728.882	83.28
729.065	83.04
729.248	83.14
729.43	82.83
729.613	83.81
729.796	83.84
729.978	84.64
730.161	84.18
730.343	84.89
730.526	84.34
730.708	84.97
730.891	85.01
731.073	85.86
731.256	85.63
731.438	86.52
731.621	86.27
731.803	85.47
731.986	84.94
732.168	85.5
732.35	85.74
732.533	85.84
732.715	86.62
732.898	86.57
733.08	86.03
733.262	85.36
733.444	85.29
733.627	85.04
733.809	85.7
733.991	86.23
734.173	86.91
734.355	86.68
734.538	87.73
734.72	87.76
734.902	87.3
735.084	86.93
735.266	86.97
735.448	86.41
735.63	87.53
735.812	88.27
735.994	88.03
736.176	88.33
736.358	88.44
736.54	87.83
736.722	87.68
736.904	87.92
737.086	88.04
737.268	87.94
737.45	87.99
737.632	87.45
737.814	87.8
737.995	87.62
738.177	88.11
738.359	88.82
738.541	89.86
738.723	90.08
738.904	90.16
739.086	90.27
739.268	89.03
739.449	88.33
739.631	87.89
739.813	88.28
739.994	88.42
740.176	88.04
740.358	88.79
740.539	88.76
740.721	89.38
740.902	89.17
741.084	88.9
741.265	88.98
741.447	89.23
741.628	88.06
741.81	87.95
741.991	89.25
742.172	88.53
742.354	89.08
742.535	90.48
742.717	90.17
742.898	90.6
743.079	91.04
743.261	91.06
743.442	90.52
743.623	90.72
743.804	90.7
743.986	90.97
744.167	91.3
744.348	91.37
744.529	90.81
744.71	90
744.891	89.85
745.073	89.57
745.254	89.47
745.435	90.91
745.616	92.29
745.797	92.46
745.978	93.23
746.159	93.33
746.34	92.96
746.521	92.69
746.702	92.37
746.883	92.23
747.064	91.57
747.245	91.68
747.426	91.77
747.606	92.33
747.787	90.63
747.968	89.95
748.149	89.2
748.33	88.61
748.51	86.81
748.691	87.73
748.872	89.43
749.053	91.14
749.233	92.35
749.414	93.73
749.595	93.01
749.775	93.41
749.956	92.66
750.137	90.77
750.317	89.97
750.498	89.72
750.678	90.18
750.859	89.54
751.04	90.64
751.22	92.94
751.4	92.91
751.581	91.71
751.761	90.6
751.942	90.27
752.122	88.47
752.303	89.56
752.483	89.66
752.663	90.63
752.844	91.19
753.024	92.51
753.204	92.51
753.385	92.29
753.565	91.92
753.745	90.8
753.925	89.61
754.106	90.34
754.286	89.46
754.466	90.82
754.646	91.34
754.826	91.64
755.006	90.61
755.187	91.3
755.367	90.3
755.547	90.81
755.727	90.52
755.907	90.8
756.087	89.52
756.267	89.16
756.447	87.26
756.627	86.89
756.807	86.4
756.987	88.8
757.167	89.65
757.346	89.55
757.526	89.97
757.706	89.93
757.886	89.26
758.066	88.54
758.246	90.31
758.425	91.76
758.605	91.69
758.785	92.91
758.965	92.78
759.144	93.13
759.324	91.57
759.504	92.59
759.683	91.57
759.863	91.21
760.043	90.26
760.222	91.1
760.402	90.19
760.581	89.82
760.761	90.93
760.94	91.66
761.12	90.5
761.299	89.79
761.479	89.08
761.658	89.89
761.838	89.84
762.017	90.67
762.197	91.79
762.376	93.7
762.555	92.11
762.735	90.93
762.914	90.33
763.093	89.95
763.273	89.22
763.452	89.86
763.631	89.42
763.81	90.04
763.99	91.58
764.169	91.94
764.348	90.26
764.527	91.41
764.706	90.07
764.885	89.05
765.064	87.98
765.243	89.94
765.423	89.49
765.602	87.25
765.781	87.08
765.96	87.21
766.139	87.95
766.318	88.57
766.497	90.82
766.676	90.55
766.854	89.74
767.033	88.84
767.212	88.48
767.391	89.4
767.57	89.5
767.749	90.56
767.928	89.02
768.106	88.14
768.285	87.92
768.464	88.72
768.643	88.15
768.821	87.97
769	87.38
769.179	88.05
769.357	88.85
769.536	88.86
769.715	88.96
769.893	89.26
770.072	89.97
770.25	88.36
770.429	88.22
770.607	89.8
770.786	90.23
770.964	88
771.143	88.07
771.321	87.69
771.5	84.78
771.678	85.68
771.857	87.43
772.035	87.24
772.213	86.91
772.392	88.91
772.57	87.83
772.748	87.08
772.927	88.37
773.105	88.41
773.283	89.06
773.461	90.49
773.64	90.62
773.818	89.84
773.996	90.29
774.174	89.01
774.352	86.99
774.531	85.27
774.709	83.94
774.887	84.24
775.065	85.84
775.243	87.55
775.421	89.55
775.599	91.18
775.777	90.5
775.955	89.96
776.133	90.94
776.311	89.15
776.489	88.66
776.667	88.64
776.844	87.39
777.022	86.65
777.2	88
777.378	89.55
777.556	90.59
777.734	91.39
777.911	90.14
778.089	89.87
778.267	88.77
778.445	89.31
778.622	87.56
778.8	85.27
778.978	83.93
779.155	80.53
779.333	79.48
779.511	81
779.688	80.87
779.866	83.37
780.043	87.09
780.221	86.62
780.398	85.05
780.576	86.42
780.753	84.99
780.931	84.45
781.108	84.75
781.286	86.63
781.463	88.98
781.64	87.5
781.818	86.89
781.995	85.26
782.172	83.59
782.35	84.04
782.527	84.71
782.704	83.76
782.882	84.24
783.059	85.78
783.236	82.24
783.413	82.59
783.59	81.98
783.768	86.92
783.945	84.33
784.122	85.75
784.299	84.77
784.476	86
784.653	85.04
784.83	88.5
785.007	89.56
785.184	89.44
785.361	89.93
785.538	86.16
785.715	86.62
785.892	84.66
786.069	86.99
786.246	83.47
786.423	84.56
786.6	83.45
786.776	84.82
786.953	83.65
787.13	87.79
787.307	86.57
787.484	87.62
787.66	87.2
787.837	87.54
788.014	87.1
788.191	88.99
788.367	89.45
788.544	88.37
788.721	89.93
788.897	84.78
789.074	82.85
789.25	80.28
789.427	82.34
789.603	79.46
789.78	86.1
789.956	85.31
790.133	86.87
790.309	86.46
790.486	83.78
790.662	82.57
790.839	85.3
791.015	80.95
791.192	80.1
791.368	82.22
791.544	84.08
791.721	86.05
791.897	86.84
792.073	87.66
792.249	84.78
792.426	83.09
792.602	77.42
792.778	80.39
792.954	78.51
793.13	84.86
793.307	81.19
793.483	82.44
793.659	82.18
793.835	83.56
794.011	79.86
794.187	82.92
794.363	86.51
794.539	82.98
794.715	86.41
794.891	87.51
795.067	87.56
795.243	87.94
795.419	88.71
795.595	84.5
795.771	85.37
795.947	81.52
796.122	79.65
796.298	78.61
796.474	77.95
796.65	74.88
796.826	74.51
797.001	73.13
797.177	74.8
797.353	73.19
797.529	76.94
797.704	81.17
797.88	84.94
798.056	89.19
798.231	95.18
798.407	94.24
798.582	90.64
798.758	88.45
798.934	85.12
799.109	80.69
799.285	84.13
799.46	87
799.636	86.13
799.811	85.23
799.986	82.1
800.162	80.73
800.337	81.48
800.513	88.2
800.688	95.87
800.863	100.56
801.039	95.15
801.214	97.06
801.389	89.16
801.565	86.62
801.74	86.75
801.915	84.92
802.09	81.5
802.265	79.01
802.441	79.12
802.616	79.33
802.791	84.35
802.966	85.07
803.141	93.97
803.316	93.03
803.491	97.86
803.666	92.44
803.841	96.21
804.016	94.2
804.191	93.03
804.366	89.37
804.541	89.13
804.716	82.75
804.891	78.28
805.066	75.9
805.241	76.62
805.416	76.7
805.591	76.17
805.765	76.13
805.94	77.68
806.115	76.3
806.29	74.12
806.464	72.72
806.639	74.32
806.814	78.59
806.989	75.42
807.163	77.9
807.338	80.03
807.512	78.11
807.687	74.56
807.862	73.84
808.036	68.57
808.211	73.76
808.385	74.08
808.56	73.98
808.734	80.04
808.909	87.68
809.083	86.94
809.258	80.55
809.432	83.1
809.606	82.57
809.781	84.45
809.955	77.94
810.13	82.61
810.304	79.91
810.478	77.56
810.652	75.79
810.827	84.38
811.001	89.49
811.175	92.09
811.349	90.86
811.524	82.4
811.698	74.73
811.872	70.84
812.046	69.35
812.22	65.61
812.394	77.86
812.568	80.82
812.742	81.12
812.916	86.46
813.09	94.66
813.264	93.93
813.438	102.6
813.612	105.2
813.786	106.52
813.96	96.28
814.134	98.58
814.308	81.39
814.482	77.97
814.656	69.99
814.83	80.89
815.003	85.06
815.177	100.74
815.351	99.27
815.525	96.98
815.698	95.11
815.872	86.58
816.046	79.98
816.219	85.19
816.393	82.87
816.567	76.99
816.74	79.65
816.914	76.87
817.088	69.55
817.261	74.41
817.435	77.21
817.608	71.97
817.782	72.3
817.955	79.63
818.129	82.47
818.302	82.31
818.475	83.53
818.649	79.72
818.822	79.3
818.996	63.03
819.169	61.8
819.342	58.34
819.516	60.85
819.689	55.98
819.862	76.98
820.035	76.41
820.209	74.11
820.382	81.32
820.555	74.2
820.728	61.02
820.901	73.68
821.075	76.02
821.248	72.28
821.421	88.01
821.594	99.77
821.767	91.08
821.94	82.38
822.113	72.74
822.286	62.86
822.459	58.31
822.632	55.31
822.805	72.27
822.978	78.75
823.151	72.96
823.324	80.71
823.496	85
823.669	71.29
823.842	75.59
824.015	87.31
824.188	80.99
824.361	90.88
824.533	90.05
824.706	81.85
824.879	81.42
825.051	69.19
825.224	64.81
825.397	72.25
825.569	66.06
825.742	64.78
825.915	81.46
826.087	69.74
826.26	66.14
826.432	79.64
826.605	73.9
826.777	55
826.95	61.16
827.122	51.03
827.295	50.17
827.467	56.17
827.64	59.89
827.812	72.24
827.984	79.34
828.157	71.35
828.329	78.77
828.501	87.2
828.674	83.31
828.846	83.76
829.018	90.9
829.19	74.35
829.363	76.12
829.535	67.69
829.707	67.05
829.879	64.13
830.051	70.13
830.223	75.03
830.395	77.63
830.568	85.59
830.74	78.96
830.912	84.34
831.084	74.86
831.256	76.92
831.428	66
831.6	81.93
831.772	80.51
831.943	80.08
832.115	72.98
832.287	71.03
832.459	64.49
832.631	56.06
832.803	57.31
832.975	77.77
833.146	74.95
833.318	87.59
833.49	85.59
833.662	75.74
833.833	66.51
834.005	69.7
834.177	65.37
834.348	80.1
834.52	82.3
834.692	83.96
834.863	89.13
835.035	72.21
835.206	65.81
835.378	63.22
835.549	76.88
835.721	77.55
835.892	88.58
836.064	78.51
836.235	81.05
836.407	61.27
836.578	53.94
836.749	63.96
836.921	83.44
837.092	74.57
837.264	86.13
837.435	97.28
837.606	83.02
837.777	51.38
837.949	42.82
838.12	46.39
838.291	26.51
838.462	35.71
838.633	46.9
838.805	53.95
838.976	54.4
839.147	67.26
839.318	80.49
839.489	98.81
839.66	94.13
839.831	72.63
840.002	73.43
840.173	75.52
840.344	67.95
840.515	63.65
840.686	58.34
840.857	64.57
841.028	57.3
841.199	65.33
841.369	78.32
841.54	100.52
841.711	126.35
841.882	156.8
842.053	117.3
842.223	122.01
842.394	101.62
842.565	80.22
842.736	65.29
842.906	75.29
843.077	57.26
843.248	74.11
843.418	81.28
843.589	75.22
843.759	62.03
843.93	88.15
844.101	48.67
844.271	49.96
844.442	49.75
844.612	43.8
844.783	56.01
844.953	91.88
845.123	59.19
845.294	54.84
845.464	49.14
845.635	17.21
845.805	11.21
845.975	34.38
846.146	52.39
846.316	60.17
846.486	61.33
846.656	69.82
846.827	78.25
846.997	71.89
847.167	82.13
847.337	90.69
847.507	86.45
847.677	81.42
847.848	83.14
848.018	70.6
848.188	61.21
848.358	59.72
848.528	44.13
848.698	57.66
848.868	67.59
849.038	74.45
849.208	74.35
849.378	85.72
849.548	98.36
849.718	104.32
849.887	89.29
850.057	88.5
850.227	97.8
850.397	74.5
850.567	74.41
850.737	54.62
850.906	66.35
851.076	58.03
851.246	36.12
851.415	54.1
851.585	100.02
851.755	111.2
851.924	118.39
852.094	108.34
852.264	87.29
852.433	85.34
852.603	69.45
852.772	60.93
852.942	57.67
853.111	59.16
853.281	47.47
853.45	23.64
853.62	19.43
853.789	31.34
853.959	18.65
854.128	30.98
854.297	54.09
854.467	55.53
854.636	37.21
854.805	41.82
854.975	15.72
855.144	55.9
855.313	51.57
855.482	69.07
855.652	88.92
855.821	87.3
855.99	61.33
856.159	56.33
856.328	61.42
856.497	30.01
856.667	59
856.836	79.81
857.005	79.95
857.174	78.8
857.343	105.07
857.512	79.82
857.681	87.57
857.85	114.83
858.019	101.97
858.188	111.29
858.356	109.35
858.525	178.52
858.694	404.75
858.863	272.97
859.032	182.4
859.201	180.45
859.369	69.37
859.538	-1.6
859.707	9.43
859.876	2.91
860.044	24.99
860.213	32.31
860.382	35.78
860.55	36.37
860.719	39.18
860.888	24.42
861.056	32.86
861.225	38.72
861.393	41.84
861.562	49.11
861.73	63.88
861.899	70.26
862.067	79.46
862.236	76.23
862.404	78.49
862.572	104.75
862.741	111.63
862.909	100.77
863.078	119.53
863.246	116.23
863.414	69.69
863.582	44.59
863.751	51.16
863.919	49.02
864.087	49.65
864.255	72.56
864.424	97.37
864.592	125.35
864.76	118.82
864.928	88.21
865.096	68.21
865.264	71.37
865.432	68.01
865.6	53.64
865.768	52.04
865.936	53.54
866.104	47.69
866.272	63.29
866.44	90.24
866.608	87.28
866.776	93.42
866.944	92.26
867.112	93.94
867.28	113.79
867.448	104.7
867.615	98.71
867.783	86.48
867.951	73.57
868.119	30.59
868.286	46.29
868.454	71.15
868.622	103.82
868.789	118.41
868.957	88.53
869.125	88.69
869.292	72.25
869.46	82.82
869.627	69.34
869.795	79.2
869.963	82.03
870.13	75.26
870.298	59.63
870.465	59.92
870.632	71.3
870.8	62.91
870.967	104.16
871.135	76.93
871.302	49.79
871.469	21.72
871.637	4.26
871.804	16.28
871.971	29.17
872.139	50.97
872.306	46.51
872.473	68.61
872.64	50.09
872.807	44.25
872.975	27.83
873.142	70.13
873.309	95.28
873.476	116.43
873.643	97.12
873.81	191.26
873.977	167.44
874.144	108.69
874.311	69.51
874.478	102.4
874.645	89.53
874.812	87.12
874.979	51.24
875.146	77
875.313	63.95
875.48	49.94
875.647	78.42
875.813	105.41
875.98	71.28
876.147	63.37
876.314	78.31
876.481	99.58
876.647	104.86
876.814	156.3
876.981	-426.61
877.147	-517.23
877.314	176.29
877.481	163.25
877.647	136.31
877.814	94.21
877.98	78.76
878.147	50.3
878.314	3.37
878.48	33.08
878.647	32.89
878.813	-12
878.979	7.02
879.146	43.86
879.312	49.41
879.479	87.33
879.645	97.68
879.811	103.25
879.978	128.32
880.144	103.14
880.31	92.54
880.477	91.03
880.643	98.35
880.809	43.19
880.975	30.52
881.142	54.5
881.308	47.88
881.474	41.31
881.64	67.75
881.806	93.07
881.972	95.26
882.138	61.43
882.304	5.73
882.47	117.32
882.636	-66.88
882.802	-112.46
882.968	79.69
883.134	109.86
883.3	76.7
883.466	97.41
883.632	116.62
883.798	83.72
883.964	80.39
884.129	84.43
884.295	77.28
884.461	75.5
884.627	79.91
884.793	65.34
884.958	49.86
885.124	52.4
885.29	42.84
885.455	39.34
885.621	87.3
885.787	162.75
885.952	353.63
886.118	370.88
886.283	193.04
886.449	173.44
886.614	140.18
886.78	95.37
886.945	209.08
887.111	484.22
887.276	-3257.41
887.442	-329.05
887.607	249.75
887.773	123.3
887.938	106.61
888.103	71.49
888.269	87.79
888.434	75.32
888.599	54.8
888.764	1.66
888.93	52.32
889.095	124.82
889.26	190.12
889.425	-7216.67
889.59	-2204.67
889.756	502.96
889.921	1793.59
890.086	271.6
890.251	-153.4
890.416	-53.64
890.581	-127.32
890.746	29.14
890.911	52.7
891.076	141.14
891.241	76.67
891.406	57.02
891.571	23.08
891.736	41.68
891.901	34.1
892.065	79.75
892.23	55.13
892.395	132.97
892.56	83.41
892.725	25.81
892.889	34.41
893.054	68.14
893.219	67.44
893.384	104.21
893.548	203.52
893.713	234.2
893.878	376.36
