Data from Ofav_PP_Phys_9AZ7_Reflection_1.txt Node
Date: Tue Aug 03 18:16:04 EDT 2021
User: Adam
Spectrometer: FLMT01687
Trigger mode: 0
Integration Time (sec): 8.750000E-1
Scans to average: 2
Electric dark correction enabled: true
Nonlinearity correction enabled: false
Boxcar width: 2
XAxis mode: Wavelengths
Number of Pixels in Spectrum: 3648
>>>>>Begin Spectral Data<<<<<
179.494	229.58
179.716	249.52
179.937	303.62
180.158	466.27
180.38	1537.72
180.601	159.16
180.823	159.05
181.044	91.69
181.265	115.07
181.486	-179.35
181.708	81.41
181.929	124.69
182.15	46.79
182.372	333.97
182.593	-194.73
182.814	-43.77
183.035	127.3
183.257	1587.25
183.478	38.52
183.699	-349.2
183.92	-100.41
184.141	-234.66
184.363	-48.29
184.584	-231.84
184.805	-40.81
185.026	-81.59
185.247	-35.77
185.468	-23.75
185.689	3.98
185.91	-12.65
186.132	19.68
186.353	39.3
186.574	7.95
186.795	40.74
187.016	47.92
187.237	38.04
187.458	25.24
187.679	31.85
187.9	18.18
188.121	12.46
188.342	-6.48
188.563	-21.68
188.784	-28.75
189.005	-68.05
189.226	-79.13
189.447	-43.99
189.667	-62.26
189.888	-59.47
190.109	-4.76
190.33	-17.6
190.551	-7.6
190.772	38.38
190.993	36.81
191.214	23.52
191.434	43.31
191.655	27.7
191.876	34.84
192.097	49.87
192.318	51.11
192.538	42.91
192.759	51.85
192.98	31.78
193.201	-7.7
193.421	13.86
193.642	34.52
193.863	21.08
194.083	57.17
194.304	71.12
194.525	53.52
194.745	31.84
194.966	92.73
195.187	89.63
195.407	132.93
195.628	122.95
195.848	121.19
196.069	92.01
196.29	54.02
196.51	-5.68
196.731	38.87
196.951	42.22
197.172	37.82
197.392	92.82
197.613	96.36
197.833	79.26
198.054	102.61
198.274	87.1
198.495	54.49
198.715	57.4
198.936	60.71
199.156	49.66
199.377	65.59
199.597	54.1
199.817	51.41
200.038	10.65
200.258	12.91
200.479	-62.76
200.699	-87.61
200.919	-147.01
201.14	-10.35
201.36	-14.72
201.58	8.04
201.801	-13.39
202.021	18.46
202.241	-11.51
202.461	-5.39
202.682	9.71
202.902	20.85
203.122	49.29
203.342	61.39
203.563	21.86
203.783	15.7
204.003	27.87
204.223	7.2
204.443	-25.46
204.663	-4.11
204.884	-4.33
205.104	3.32
205.324	27.97
205.544	46.12
205.764	34.96
205.984	-38.73
206.204	-66.28
206.424	-203.63
206.644	-43.84
206.864	-24.51
207.084	26.67
207.304	56.93
207.525	100.56
207.745	85.98
207.964	54.14
208.184	44.47
208.404	60.09
208.624	54.5
208.844	63.45
209.064	75.45
209.284	95.99
209.504	55.61
209.724	32.43
209.944	5.06
210.164	-36.62
210.384	-46.54
210.604	-40.27
210.823	-66.34
211.043	45.16
211.263	67.67
211.483	76.36
211.703	90.86
211.922	78.53
212.142	44.36
212.362	18.16
212.582	11.72
212.801	-23.61
213.021	-11.1
213.241	-20.39
213.461	14.32
213.68	13.97
213.9	14.44
214.12	-0.78
214.339	27.69
214.559	50.34
214.779	50.41
214.998	48.03
215.218	80.67
215.438	62.31
215.657	45.13
215.877	52.31
216.096	28.9
216.316	9.6
216.535	-10.48
216.755	-21.02
216.974	-3.7
217.194	49.94
217.413	57.86
217.633	64.83
217.852	78.47
218.072	83.23
218.291	67.19
218.511	55.09
218.73	80.82
218.95	65.79
219.169	56.78
219.389	60.22
219.608	53.68
219.827	15.67
220.047	2.98
220.266	4.1
220.485	13.45
220.705	21.18
220.924	32.22
221.143	28.53
221.363	44.44
221.582	32.76
221.801	-16.34
222.021	-26.88
222.24	-5.82
222.459	-101.94
222.678	-56.31
222.897	-17.67
223.117	-36.32
223.336	-202.76
223.555	43.22
223.774	-12.3
223.993	-15.74
224.213	10.41
224.432	25.81
224.651	25.62
224.87	54.78
225.089	44.39
225.308	23.73
225.527	-2.18
225.746	-31.15
225.965	-35.09
226.184	-69.87
226.404	-13.87
226.623	18.6
226.842	37.45
227.061	0.67
227.28	23.24
227.499	42.11
227.718	37.67
227.936	25.82
228.155	36.09
228.374	20.07
228.593	7.3
228.812	-33.18
229.031	-41.16
229.25	-7.37
229.469	-43.02
229.688	-99.2
229.907	-90.29
230.125	-74.71
230.344	-63.14
230.563	-41.6
230.782	-15.11
231.001	37.89
231.22	33.45
231.438	27.68
231.657	34.99
231.876	32.99
232.095	-4.68
232.313	-10.8
232.532	-20
232.751	-13.16
232.969	-7.35
233.188	6.8
233.407	-8.27
233.625	15.02
233.844	21.01
234.063	32.83
234.281	29.37
234.5	36.81
234.719	45.14
234.937	24.31
235.156	6.76
235.374	0.02
235.593	19.85
235.811	17.99
236.03	18.86
236.249	35.63
236.467	45.1
236.686	32.12
236.904	23.26
237.123	48.74
237.341	34.9
237.559	32.79
237.778	40.88
237.996	46.15
238.215	33.02
238.433	33.32
238.652	29.42
238.87	33.8
239.088	26.22
239.307	18.9
239.525	21.63
239.743	36.39
239.962	33.09
240.18	41.7
240.398	69.49
240.617	70.25
240.835	52.9
241.053	36.64
241.271	-27.62
241.49	-26.93
241.708	2.45
241.926	-10.21
242.144	5.14
242.363	38.46
242.581	24.95
242.799	11.08
243.017	20.81
243.235	45.49
243.453	30.29
243.672	31.62
243.89	38.36
244.108	34.79
244.326	-5.06
244.544	7.77
244.762	16.7
244.98	6.18
245.198	6.6
245.416	26.52
245.634	20.9
245.852	12.45
246.07	2.57
246.288	-11.48
246.506	12.42
246.724	22.9
246.942	20.04
247.16	31.06
247.378	24.17
247.596	7.21
247.814	3.9
248.032	8.48
248.25	-4.77
248.468	-14.31
248.685	-4.74
248.903	-24.9
249.121	-34.51
249.339	-9.21
249.557	19.11
249.775	2.09
249.992	33.07
250.21	44.15
250.428	39.43
250.646	13.29
250.863	32.97
251.081	1.99
251.299	-9.03
251.517	7.95
251.734	16.92
251.952	2.08
252.17	18.92
252.387	-3.11
252.605	-44.61
252.823	-43.07
253.04	-87.44
253.258	-65.44
253.475	-6.93
253.693	-22.14
253.911	-0.22
254.128	28.12
254.346	44.15
254.563	40.65
254.781	66.06
254.998	64.38
255.216	54.8
255.433	59.95
255.651	23.23
255.868	-38.43
256.086	-68.8
256.303	-44.85
256.521	-35.78
256.738	-29.76
256.956	20.11
257.173	31.26
257.39	47.74
257.608	32.77
257.825	8.58
258.043	-48.22
258.26	-2.67
258.477	-24.67
258.695	-19.22
258.912	7.27
259.129	36.83
259.346	39.48
259.564	51.33
259.781	55.97
259.998	47.49
260.216	38.22
260.433	26.34
260.65	22.93
260.867	22.99
261.084	26.61
261.302	14.59
261.519	25.05
261.736	34.58
261.953	37.35
262.17	25.04
262.387	35.15
262.604	30.33
262.822	37.41
263.039	30.48
263.256	42.36
263.473	39.14
263.69	56.56
263.907	46.06
264.124	38.6
264.341	21.35
264.558	5.35
264.775	-5.93
264.992	-12.44
265.209	-15.69
265.426	-20.75
265.643	-9.86
265.86	-12.89
266.077	-5.29
266.294	2.91
266.51	15.59
266.727	33.82
266.944	30.95
267.161	27.43
267.378	25.76
267.595	19.76
267.812	24.83
268.028	17.24
268.245	21.48
268.462	33.92
268.679	42.53
268.896	2.73
269.112	11.66
269.329	-20.82
269.546	-70.67
269.763	-30.79
269.979	14.52
270.196	33.06
270.413	37.6
270.629	52.87
270.846	55.06
271.063	46.39
271.279	47.12
271.496	57.24
271.712	33.98
271.929	9.91
272.146	21.92
272.362	12.94
272.579	-1.35
272.795	-4.16
273.012	10.5
273.228	12.74
273.445	9.82
273.661	25.63
273.878	42.42
274.094	29.72
274.311	23.15
274.527	19.2
274.744	20.36
274.96	1.43
275.177	-2.96
275.393	11.71
275.609	0.24
275.826	-24.3
276.042	2.33
276.259	20.19
276.475	10.37
276.691	20
276.908	33.72
277.124	28.89
277.34	15.98
277.557	7.05
277.773	13.38
277.989	20.17
278.205	8.26
278.422	23.69
278.638	22.74
278.854	15.34
279.07	20.07
279.286	32.62
279.503	35.95
279.719	50.74
279.935	54.82
280.151	46.52
280.367	19.8
280.583	-7
280.799	-5.99
281.016	-15.99
281.232	-22.53
281.448	-5.67
281.664	-15.29
281.88	-0.43
282.096	15.59
282.312	14.26
282.528	15.86
282.744	18.47
282.96	16.79
283.176	25.76
283.392	36.04
283.608	41.03
283.824	46.35
284.04	41.4
284.256	30.27
284.471	7.63
284.687	2.65
284.903	5.57
285.119	-21.76
285.335	-37.95
285.551	-21.23
285.767	-2.41
285.982	3.33
286.198	20.93
286.414	26.56
286.63	25.96
286.846	-5.32
287.061	-14.47
287.277	-45.73
287.493	-42.45
287.709	-92.92
287.924	-39.83
288.14	-38.36
288.356	-29.75
288.571	-21.87
288.787	-0.15
289.003	-23.65
289.218	-19.41
289.434	9.62
289.65	-0.41
289.865	8.29
290.081	-3.19
290.296	-6.72
290.512	6.68
290.727	11.83
290.943	28.71
291.159	54.79
291.374	44.13
291.59	44.8
291.805	59.9
292.021	65.64
292.236	51.68
292.451	56.24
292.667	52.09
292.882	38.79
293.098	12.65
293.313	15.21
293.529	14.44
293.744	5
293.959	28.56
294.175	32.87
294.39	31.72
294.605	35.36
294.821	33.13
295.036	14.16
295.251	22.6
295.467	19.54
295.682	30.51
295.897	30.38
296.112	44.42
296.328	42.32
296.543	54.92
296.758	39.95
296.973	41.4
297.188	19.94
297.404	27.59
297.619	22.59
297.834	26.96
298.049	11.44
298.264	34.58
298.479	5.97
298.694	5.07
298.909	0.2
299.125	23.23
299.34	-3.69
299.555	16.32
299.77	-29.15
299.985	17.01
300.2	24.6
300.415	42.95
300.63	21.1
300.845	69.83
301.06	48.39
301.275	24.61
301.49	17.74
301.704	34.6
301.919	29.76
302.134	31.75
302.349	33.18
302.564	48.31
302.779	40.01
302.994	30.21
303.209	18.69
303.423	15.32
303.638	4.28
303.853	24.53
304.068	37.9
304.283	56.63
304.497	55.33
304.712	53.11
304.927	44.21
305.142	35.2
305.356	14.46
305.571	16.87
305.786	20.03
306	21.7
306.215	20.49
306.43	39.51
306.644	35.81
306.859	24.29
307.074	19.2
307.288	35.5
307.503	16.76
307.717	15.39
307.932	8.6
308.147	8.87
308.361	-3.54
308.576	12.54
308.79	30.86
309.005	54.9
309.219	46.62
309.434	19.82
309.648	26.39
309.863	6.26
310.077	-12.46
310.292	11.92
310.506	53.4
310.72	48.72
310.935	42.71
311.149	36.61
311.364	24.25
311.578	0.88
311.792	8.2
312.007	-5.02
312.221	20.92
312.435	16.89
312.649	33.11
312.864	20.36
313.078	24.41
313.292	7.77
313.507	10.03
313.721	8.47
313.935	0.89
314.149	13.96
314.363	29.57
314.578	20.52
314.792	7.39
315.006	2.62
315.22	-34.75
315.434	-39.94
315.648	-68.72
315.862	-12.82
316.077	0.66
316.291	25.25
316.505	34.53
316.719	28.63
316.933	24.89
317.147	-1.57
317.361	-9.99
317.575	5.78
317.789	20.87
318.003	25.19
318.217	35.85
318.431	31.07
318.645	4.74
318.859	0.7
319.073	-4.26
319.287	8.84
319.5	34.99
319.714	53.35
319.928	60.73
320.142	40.92
320.356	29.83
320.57	11.8
320.784	-0.34
320.997	-11.84
321.211	15.13
321.425	27.74
321.639	35.74
321.853	13.01
322.066	19.82
322.28	12.79
322.494	-10.7
322.707	-57.72
322.921	-7.43
323.135	2.71
323.349	-0.19
323.562	20.35
323.776	41.47
323.989	20.18
324.203	15.41
324.417	24.43
324.63	31.05
324.844	35.32
325.057	40.75
325.271	27.76
325.485	19.12
325.698	-2.64
325.912	-8.26
326.125	17.46
326.339	16.45
326.552	2.96
326.766	18.91
326.979	15.72
327.193	7.26
327.406	24.64
327.619	52.46
327.833	21.17
328.046	28.32
328.26	32.07
328.473	36.01
328.686	23.67
328.9	36.72
329.113	36.11
329.326	45.66
329.54	44.92
329.753	42.99
329.966	55.07
330.179	44.73
330.393	46.58
330.606	36.02
330.819	42.44
331.032	31.62
331.246	27.93
331.459	5.17
331.672	8.95
331.885	11.28
332.098	24.29
332.311	49.67
332.525	60.86
332.738	46.86
332.951	42.77
333.164	33.49
333.377	28.76
333.59	12.06
333.803	7.51
334.016	-3.84
334.229	-8.2
334.442	-41.98
334.655	-36.94
334.868	-34.6
335.081	-22.85
335.294	-17.62
335.507	9.29
335.72	12
335.933	8.95
336.146	16.98
336.359	13.94
336.572	3.56
336.785	16.42
336.997	29.85
337.21	5.23
337.423	6.94
337.636	36.2
337.849	15.12
338.062	20.07
338.274	12.84
338.487	31.32
338.7	13.51
338.913	31.29
339.125	25.57
339.338	34.05
339.551	30.1
339.763	28.36
339.976	20.39
340.189	19.91
340.402	9.06
340.614	5.43
340.827	18.5
341.039	26.97
341.252	35.71
341.465	54.13
341.677	58.63
341.89	65.74
342.102	50.52
342.315	54.23
342.527	47.86
342.74	38.13
342.952	20.15
343.165	44.48
343.377	-9.28
343.59	-13.36
343.802	-29.42
344.015	-63.69
344.227	-103.26
344.44	-38.33
344.652	-16.36
344.864	-9.8
345.077	-2.02
345.289	-27.78
345.502	-55.33
345.714	-90.72
345.926	-51.83
346.139	-33.78
346.351	-3.98
346.563	19.49
346.775	33.89
346.988	23.19
347.2	21.88
347.412	18.78
347.624	18.49
347.837	11.23
348.049	12.78
348.261	4.04
348.473	2.48
348.685	6.51
348.897	21.84
349.11	28.06
349.322	23.4
349.534	21.22
349.746	7.97
349.958	5.09
350.17	-7.41
350.382	-17.25
350.594	-12.54
350.806	-4.16
351.018	-1.93
351.23	-2.44
351.442	31.57
351.654	31.09
351.866	38.44
352.078	27.52
352.29	43.06
352.502	23.35
352.714	21.89
352.926	20.41
353.138	15.92
353.35	28.26
353.561	38.38
353.773	47.1
353.985	45.6
354.197	49.17
354.409	49.98
354.621	60.52
354.832	56.49
355.044	66.4
355.256	65.67
355.468	53.94
355.679	43.69
355.891	41.7
356.103	35.84
356.314	27.66
356.526	26.53
356.738	25.91
356.949	28.14
357.161	29.02
357.373	50.7
357.584	45.37
357.796	43.22
358.008	33.51
358.219	12.68
358.431	-7.02
358.642	-8.69
358.854	-23.34
359.065	2.31
359.277	36.27
359.488	48.72
359.7	45.11
359.911	43.43
360.123	48.88
360.334	30.01
360.546	29.92
360.757	29.48
360.969	35.64
361.18	31.54
361.391	33.45
361.603	29.66
361.814	25.45
362.025	31.39
362.237	22.42
362.448	27.78
362.659	20.76
362.871	25.52
363.082	21.66
363.293	5.51
363.504	1.04
363.716	19.08
363.927	13.73
364.138	18.09
364.349	33.32
364.56	35.21
364.772	44.15
364.983	39.24
365.194	36.27
365.405	24.19
365.616	10.13
365.827	-2.42
366.038	11.79
366.25	7.84
366.461	15.45
366.672	6.47
366.883	6.18
367.094	1.77
367.305	15.53
367.516	9.6
367.727	26.28
367.938	28.53
368.149	34.71
368.36	20.54
368.571	36.22
368.781	36.04
368.992	44.15
369.203	39.27
369.414	49.69
369.625	43.21
369.836	41.47
370.047	33.51
370.258	32.72
370.468	29.08
370.679	45.71
370.89	60.03
371.101	55.82
371.312	53.09
371.522	49.75
371.733	43.12
371.944	29.98
372.155	31.83
372.365	28.3
372.576	33.12
372.787	33.17
372.997	37.97
373.208	37.25
373.419	17.63
373.629	16.73
373.84	13.08
374.05	3.67
374.261	-2.43
374.472	12.53
374.682	-0.11
374.893	-7.1
375.103	-31.36
375.314	-15.62
375.524	-2.59
375.735	8.79
375.945	16.23
376.156	36.37
376.366	25.13
376.577	21.51
376.787	21.75
376.997	12.26
377.208	2.49
377.418	4.25
377.629	-0.68
377.839	-13.35
378.049	-9.5
378.26	-10.59
378.47	-14.86
378.68	-12.73
378.89	1.11
379.101	2.28
379.311	14.49
379.521	31.32
379.732	34.99
379.942	33.76
380.152	38.38
380.362	25.41
380.572	17.42
380.783	21.17
380.993	18.27
381.203	14.47
381.413	10.51
381.623	6.83
381.833	2.21
382.043	6.22
382.253	7.8
382.463	18.85
382.674	22.69
382.884	25.08
383.094	20.17
383.304	20.8
383.514	19.77
383.724	7.39
383.934	8.55
384.144	14.82
384.353	12.69
384.563	6.5
384.773	11.27
384.983	5.72
385.193	0.93
385.403	0.48
385.613	7.61
385.823	12.62
386.033	13.07
386.242	17.52
386.452	17.66
386.662	16.47
386.872	14.84
387.082	12.83
387.291	8.93
387.501	7.89
387.711	6.98
387.921	9.81
388.13	13.03
388.34	8.2
388.55	13.53
388.759	12.17
388.969	7.5
389.179	6.08
389.388	8.72
389.598	7.16
389.807	9.31
390.017	11.48
390.227	12.16
390.436	13.67
390.646	10.04
390.855	6.8
391.065	4.84
391.274	6.46
391.484	7.23
391.693	8.08
391.903	9.57
392.112	11.75
392.322	10.06
392.531	9.22
392.74	8.73
392.95	10.1
393.159	8.52
393.369	9.78
393.578	8.98
393.787	9.84
393.997	8.93
394.206	10.24
394.415	9.11
394.625	9.86
394.834	10.22
395.043	10.46
395.252	9.16
395.462	9.53
395.671	7.89
395.88	7.94
396.089	6.81
396.298	7.82
396.508	7.52
396.717	8.75
396.926	8.04
397.135	8.23
397.344	8.15
397.553	7.39
397.762	6.75
397.971	6.89
398.181	6.94
398.39	7.29
398.599	7.92
398.808	8.24
399.017	8
399.226	7.65
399.435	6.96
399.644	7.01
399.853	7.19
400.062	7.3
400.27	7.64
400.479	7.72
400.688	7.64
400.897	7.71
401.106	7.58
401.315	7.88
401.524	8.17
401.733	7.89
401.941	7.53
402.15	7.79
402.359	7.7
402.568	7.36
402.777	7.53
402.985	7.62
403.194	7.41
403.403	7.37
403.612	7.47
403.82	7.47
404.029	7.47
404.238	7.7
404.446	7.45
404.655	7.35
404.864	7.12
405.072	7.23
405.281	7.06
405.489	7.22
405.698	7.42
405.906	7.62
406.115	7.49
406.324	7.54
406.532	7.41
406.741	7.22
406.949	7.33
407.158	7.43
407.366	7.4
407.574	7.45
407.783	7.53
407.991	7.42
408.2	7.1
408.408	7.1
408.617	7.15
408.825	7.21
409.033	7.14
409.242	7.28
409.45	7.09
409.658	7.14
409.867	6.97
410.075	7
410.283	7.02
410.491	7.07
410.7	6.97
410.908	6.85
411.116	6.68
411.324	6.65
411.533	6.55
411.741	6.53
411.949	6.56
412.157	6.59
412.365	6.59
412.573	6.69
412.781	6.63
412.99	6.72
413.198	6.66
413.406	6.6
413.614	6.43
413.822	6.49
414.03	6.45
414.238	6.58
414.446	6.54
414.654	6.73
414.862	6.63
415.07	6.48
415.278	6.29
415.486	6.36
415.694	6.4
415.902	6.44
416.109	6.52
416.317	6.59
416.525	6.5
416.733	6.37
416.941	6.18
417.149	6.19
417.357	6.03
417.564	6
417.772	5.77
417.98	5.96
418.188	5.9
418.395	6
418.603	6.08
418.811	6.31
419.019	6.18
419.226	6.14
419.434	5.96
419.642	5.93
419.849	5.82
420.057	5.78
420.265	5.79
420.472	6.16
420.68	6.02
420.887	6.11
421.095	5.88
421.302	6.09
421.51	5.78
421.717	5.73
421.925	5.6
422.132	5.97
422.34	5.77
422.547	5.71
422.755	5.75
422.962	5.93
423.17	5.91
423.377	6.1
423.585	6.17
423.792	6.17
423.999	6
424.207	5.87
424.414	5.57
424.621	5.41
424.829	5.33
425.036	5.46
425.243	5.36
425.451	5.53
425.658	5.77
425.865	5.8
426.072	5.69
426.28	5.74
426.487	5.71
426.694	5.5
426.901	5.54
427.108	5.7
427.315	5.87
427.523	5.69
427.73	5.86
427.937	6.12
428.144	6.03
428.351	6.01
428.558	6.02
428.765	6.05
428.972	6.07
429.179	6.07
429.386	5.94
429.593	6.07
429.8	6.11
430.007	5.93
430.214	5.99
430.421	6.01
430.628	6.05
430.835	6.16
431.042	6.15
431.249	6.11
431.456	6.35
431.662	6.43
431.869	6.44
432.076	6.34
432.283	6.33
432.49	6.21
432.697	6.21
432.903	6.21
433.11	6.36
433.317	6.4
433.524	6.27
433.73	6.5
433.937	6.41
434.144	6.53
434.35	6.53
434.557	6.79
434.764	6.7
434.97	6.86
435.177	6.8
435.384	6.99
435.59	6.85
435.797	6.74
436.003	6.49
436.21	6.47
436.416	6.37
436.623	6.39
436.829	6.51
437.036	6.63
437.242	6.68
437.449	6.71
437.655	6.69
437.862	6.62
438.068	6.7
438.275	6.65
438.481	6.56
438.687	6.67
438.894	6.8
439.1	6.86
439.307	6.86
439.513	7.01
439.719	6.95
439.926	6.94
440.132	7.09
440.338	7.17
440.544	7.1
440.751	7.25
440.957	7.18
441.163	7.07
441.369	7.14
441.575	7.33
441.782	7.42
441.988	7.64
442.194	7.68
442.4	7.66
442.606	7.51
442.812	7.42
443.018	7.13
443.224	7.06
443.431	7.01
443.637	7.2
443.843	7.29
444.049	7.43
444.255	7.61
444.461	7.77
444.667	7.74
444.873	7.61
445.079	7.66
445.284	7.66
445.49	7.67
445.696	7.67
445.902	7.78
446.108	7.86
446.314	7.86
446.52	7.95
446.726	7.88
446.931	8
447.137	7.97
447.343	7.97
447.549	8.03
447.755	8.12
447.96	7.96
448.166	7.99
448.372	7.88
448.578	7.81
448.783	7.75
448.989	7.83
449.195	7.74
449.4	7.93
449.606	8.03
449.812	8.18
450.017	8.23
450.223	8.34
450.428	8.48
450.634	8.33
450.84	8.35
451.045	8.43
451.251	8.62
451.456	8.35
451.662	8.26
451.867	8.2
452.073	8.26
452.278	8.03
452.483	8.11
452.689	8.34
452.894	8.43
453.1	8.41
453.305	8.53
453.51	8.63
453.716	8.68
453.921	8.8
454.127	8.73
454.332	8.76
454.537	8.83
454.742	8.89
454.948	8.71
455.153	8.72
455.358	8.69
455.563	8.46
455.769	8.42
455.974	8.51
456.179	8.6
456.384	8.59
456.589	8.9
456.795	8.87
457	8.98
457.205	8.92
457.41	8.97
457.615	8.96
457.82	8.95
458.025	8.91
458.23	9.02
458.435	9.02
458.64	9.02
458.845	9.05
459.05	9.15
459.255	9.06
459.46	9.17
459.665	9.16
459.87	9.23
460.075	9.14
460.28	9.31
460.485	9.25
460.69	9.32
460.895	9.45
461.099	9.58
461.304	9.45
461.509	9.56
461.714	9.59
461.919	9.57
462.123	9.59
462.328	9.71
462.533	9.75
462.738	9.82
462.942	9.76
463.147	9.74
463.352	9.62
463.556	9.77
463.761	9.75
463.966	9.75
464.17	9.74
464.375	9.9
464.58	9.89
464.784	9.88
464.989	9.96
465.193	10.08
465.398	10.16
465.602	9.95
465.807	10.02
466.011	10.12
466.216	9.99
466.42	10.06
466.625	10.26
466.829	10.28
467.034	10.26
467.238	10.27
467.443	10.28
467.647	10.3
467.851	10.41
468.056	10.42
468.26	10.53
468.464	10.36
468.669	10.33
468.873	10.13
469.077	10.14
469.282	10.26
469.486	10.33
469.69	10.24
469.894	10.28
470.099	10.23
470.303	10.09
470.507	10.19
470.711	10.3
470.915	10.42
471.119	10.54
471.324	10.69
471.528	10.65
471.732	10.64
471.936	10.69
472.14	10.58
472.344	10.49
472.548	10.46
472.752	10.5
472.956	10.42
473.16	10.52
473.364	10.71
473.568	10.86
473.772	10.91
473.976	10.95
474.18	11.03
474.384	10.98
474.588	11.03
474.792	11.02
474.995	11.02
475.199	10.88
475.403	10.66
475.607	10.67
475.811	10.73
476.015	10.68
476.218	10.76
476.422	10.99
476.626	10.98
476.83	11
477.033	11.09
477.237	11.12
477.441	11.01
477.644	10.93
477.848	10.91
478.052	10.94
478.255	10.93
478.459	11.02
478.663	11.03
478.866	11.02
479.07	11
479.273	10.98
479.477	10.86
479.681	10.91
479.884	10.96
480.088	10.99
480.291	11.01
480.495	11.05
480.698	11.03
480.901	10.95
481.105	10.84
481.308	10.91
481.512	10.99
481.715	10.93
481.919	11.03
482.122	11.18
482.325	11.14
482.529	11.11
482.732	11.19
482.935	11.18
483.138	11.04
483.342	11.02
483.545	10.95
483.748	10.87
483.952	10.76
484.155	10.84
484.358	10.91
484.561	11.06
484.764	11.1
484.967	11.19
485.171	11.11
485.374	11.05
485.577	10.95
485.78	10.95
485.983	10.84
486.186	10.96
486.389	10.99
486.592	11.02
486.795	11
486.998	11.09
487.201	10.98
487.404	10.95
487.607	10.9
487.81	10.88
488.013	10.82
488.216	10.82
488.419	10.72
488.622	10.73
488.825	10.74
489.028	10.78
489.231	10.85
489.433	10.94
489.636	10.97
489.839	10.97
490.042	10.97
490.245	11.02
490.447	11.03
490.65	10.99
490.853	10.95
491.056	10.93
491.258	10.9
491.461	10.89
491.664	10.83
491.866	10.87
492.069	10.89
492.272	10.82
492.474	10.81
492.677	10.82
492.879	10.84
493.082	10.71
493.285	10.69
493.487	10.69
493.69	10.78
493.892	10.82
494.095	10.91
494.297	10.97
494.5	10.99
494.702	10.96
494.905	10.86
495.107	10.81
495.309	10.74
495.512	10.67
495.714	10.65
495.917	10.63
496.119	10.64
496.321	10.62
496.524	10.68
496.726	10.65
496.928	10.71
497.13	10.78
497.333	10.85
497.535	10.84
497.737	10.97
497.939	10.93
498.142	10.87
498.344	10.81
498.546	10.82
498.748	10.75
498.95	10.76
499.152	10.79
499.355	10.81
499.557	10.79
499.759	10.66
499.961	10.68
500.163	10.73
500.365	10.77
500.567	10.72
500.769	10.82
500.971	10.81
501.173	10.76
501.375	10.74
501.577	10.8
501.779	10.85
501.981	10.88
502.183	10.9
502.385	10.85
502.587	10.84
502.788	10.79
502.99	10.78
503.192	10.8
503.394	10.78
503.596	10.72
503.798	10.7
503.999	10.68
504.201	10.65
504.403	10.72
504.605	10.76
504.806	10.79
505.008	10.79
505.21	10.78
505.411	10.79
505.613	10.8
505.815	10.78
506.016	10.81
506.218	10.8
506.42	10.85
506.621	10.86
506.823	10.84
507.024	10.83
507.226	10.85
507.427	10.81
507.629	10.87
507.83	10.92
508.032	10.86
508.233	10.88
508.435	10.85
508.636	10.76
508.838	10.76
509.039	10.8
509.24	10.78
509.442	10.71
509.643	10.69
509.845	10.65
510.046	10.62
510.247	10.62
510.448	10.71
510.65	10.71
510.851	10.69
511.052	10.72
511.254	10.83
511.455	10.74
511.656	10.72
511.857	10.67
512.058	10.67
512.26	10.52
512.461	10.6
512.662	10.59
512.863	10.67
513.064	10.71
513.265	10.73
513.466	10.7
513.667	10.77
513.868	10.76
514.069	10.66
514.27	10.6
514.471	10.6
514.672	10.6
514.873	10.59
515.074	10.56
515.275	10.64
515.476	10.67
515.677	10.6
515.878	10.55
516.079	10.65
516.28	10.63
516.481	10.56
516.682	10.59
516.882	10.62
517.083	10.57
517.284	10.62
517.485	10.58
517.686	10.55
517.886	10.63
518.087	10.55
518.288	10.55
518.488	10.66
518.689	10.63
518.89	10.57
519.091	10.65
519.291	10.62
519.492	10.51
519.692	10.53
519.893	10.45
520.094	10.48
520.294	10.52
520.495	10.58
520.695	10.61
520.896	10.62
521.096	10.55
521.297	10.54
521.497	10.52
521.698	10.51
521.898	10.53
522.099	10.62
522.299	10.63
522.499	10.61
522.7	10.57
522.9	10.59
523.101	10.49
523.301	10.45
523.501	10.52
523.702	10.52
523.902	10.48
524.102	10.5
524.302	10.54
524.503	10.45
524.703	10.46
524.903	10.49
525.103	10.51
525.304	10.39
525.504	10.4
525.704	10.36
525.904	10.35
526.104	10.37
526.304	10.45
526.504	10.46
526.705	10.5
526.905	10.41
527.105	10.36
527.305	10.36
527.505	10.4
527.705	10.41
527.905	10.5
528.105	10.54
528.305	10.52
528.505	10.46
528.705	10.42
528.905	10.42
529.105	10.39
529.304	10.44
529.504	10.45
529.704	10.52
529.904	10.54
530.104	10.54
530.304	10.48
530.503	10.52
530.703	10.45
530.903	10.45
531.103	10.41
531.303	10.41
531.502	10.43
531.702	10.47
531.902	10.45
532.101	10.53
532.301	10.57
532.501	10.51
532.7	10.53
532.9	10.58
533.1	10.55
533.299	10.6
533.499	10.59
533.698	10.55
533.898	10.51
534.097	10.51
534.297	10.39
534.496	10.38
534.696	10.41
534.895	10.36
535.095	10.39
535.294	10.45
535.494	10.52
535.693	10.49
535.892	10.51
536.092	10.56
536.291	10.58
536.491	10.56
536.69	10.59
536.889	10.7
537.088	10.67
537.288	10.67
537.487	10.68
537.686	10.74
537.886	10.71
538.085	10.69
538.284	10.59
538.483	10.59
538.682	10.57
538.882	10.57
539.081	10.53
539.28	10.6
539.479	10.62
539.678	10.64
539.877	10.65
540.076	10.77
540.275	10.83
540.474	10.77
540.673	10.72
540.872	10.79
541.071	10.75
541.27	10.78
541.469	10.77
541.668	10.79
541.867	10.74
542.066	10.72
542.265	10.75
542.464	10.89
542.663	11.01
542.862	11
543.06	11.09
543.259	11.11
543.458	11.11
543.657	11.12
543.856	11.23
544.054	11.21
544.253	11.2
544.452	11.24
544.651	11.15
544.849	11.13
545.048	11.17
545.247	11.19
545.445	11.14
545.644	11.26
545.843	11.29
546.041	11.3
546.24	11.26
546.438	11.29
546.637	11.31
546.836	11.34
547.034	11.28
547.233	11.4
547.431	11.52
547.63	11.55
547.828	11.59
548.027	11.7
548.225	11.73
548.423	11.72
548.622	11.73
548.82	11.84
549.019	11.88
549.217	11.76
549.415	11.85
549.614	11.94
549.812	11.87
550.01	11.94
550.209	12.09
550.407	12.06
550.605	12.01
550.803	12.06
551.002	12.16
551.2	12.19
551.398	12.26
551.596	12.38
551.794	12.43
551.993	12.44
552.191	12.55
552.389	12.58
552.587	12.59
552.785	12.67
552.983	12.7
553.181	12.65
553.379	12.68
553.577	12.78
553.775	12.75
553.973	12.74
554.171	12.83
554.369	13.03
554.567	13.02
554.765	13.18
554.963	13.21
555.161	13.31
555.359	13.24
555.557	13.23
555.755	13.2
555.952	13.27
556.15	13.32
556.348	13.35
556.546	13.51
556.744	13.58
556.941	13.68
557.139	13.73
557.337	13.79
557.535	13.82
557.732	13.95
557.93	13.95
558.128	14.05
558.325	14.08
558.523	14.11
558.721	14.12
558.918	14.23
559.116	14.2
559.313	14.29
559.511	14.34
559.708	14.37
559.906	14.49
560.104	14.52
560.301	14.57
560.498	14.67
560.696	14.75
560.893	14.78
561.091	14.89
561.288	14.98
561.486	15
561.683	15.06
561.88	15.08
562.078	15.06
562.275	15.04
562.473	15.01
562.67	15.02
562.867	15.13
563.064	15.2
563.262	15.34
563.459	15.46
563.656	15.43
563.853	15.34
564.051	15.47
564.248	15.48
564.445	15.52
564.642	15.64
564.839	15.79
565.036	15.78
565.234	15.66
565.431	15.72
565.628	15.73
565.825	15.72
566.022	15.77
566.219	15.99
566.416	16
566.613	16.16
566.81	16.23
567.007	16.26
567.204	16.29
567.401	16.3
567.598	16.26
567.795	16.25
567.991	16.23
568.188	16.21
568.385	16.1
568.582	16.14
568.779	16.14
568.976	16.2
569.172	16.16
569.369	16.36
569.566	16.3
569.763	16.24
569.96	16.2
570.156	16.25
570.353	16.22
570.55	16.22
570.746	16.28
570.943	16.34
571.14	16.41
571.336	16.39
571.533	16.38
571.729	16.45
571.926	16.52
572.123	16.43
572.319	16.51
572.516	16.67
572.712	16.64
572.909	16.57
573.105	16.53
573.302	16.51
573.498	16.37
573.695	16.35
573.891	16.39
574.087	16.49
574.284	16.54
574.48	16.65
574.677	16.67
574.873	16.64
575.069	16.67
575.266	16.55
575.462	16.52
575.658	16.47
575.854	16.47
576.051	16.4
576.247	16.48
576.443	16.46
576.639	16.58
576.835	16.55
577.032	16.54
577.228	16.51
577.424	16.46
577.62	16.38
577.816	16.32
578.012	16.28
578.208	16.14
578.404	16.12
578.6	16.11
578.796	16.17
578.993	16.21
579.189	16.36
579.384	16.38
579.58	16.38
579.776	16.33
579.972	16.28
580.168	16.19
580.364	16.18
580.56	16.13
580.756	16.04
580.952	16.04
581.148	16.01
581.343	15.93
581.539	15.94
581.735	15.94
581.931	15.85
582.127	15.89
582.322	15.87
582.518	15.8
582.714	15.83
582.909	15.91
583.105	15.84
583.301	15.84
583.496	15.77
583.692	15.76
583.888	15.72
584.083	15.63
584.279	15.61
584.474	15.62
584.67	15.6
584.866	15.55
585.061	15.66
585.257	15.6
585.452	15.62
585.648	15.64
585.843	15.61
586.039	15.58
586.234	15.56
586.429	15.51
586.625	15.41
586.82	15.4
587.015	15.41
587.211	15.47
587.406	15.56
587.601	15.6
587.797	15.61
587.992	15.58
588.187	15.5
588.383	15.46
588.578	15.47
588.773	15.46
588.968	15.44
589.163	15.52
589.359	15.47
589.554	15.49
589.749	15.46
589.944	15.49
590.139	15.5
590.334	15.61
590.529	15.57
590.724	15.67
590.919	15.64
591.114	15.65
591.309	15.48
591.504	15.49
591.699	15.46
591.894	15.52
592.089	15.54
592.284	15.67
592.479	15.7
592.674	15.77
592.869	15.82
593.064	15.85
593.259	15.86
593.454	15.92
593.648	15.94
593.843	15.92
594.038	15.9
594.233	15.91
594.428	15.91
594.622	15.96
594.817	16.04
595.012	16.09
595.206	16.16
595.401	16.23
595.596	16.22
595.79	16.25
595.985	16.28
596.18	16.36
596.374	16.35
596.569	16.38
596.763	16.48
596.958	16.59
597.153	16.51
597.347	16.56
597.542	16.55
597.736	16.48
597.931	16.45
598.125	16.61
598.319	16.73
598.514	16.83
598.708	16.92
598.903	16.94
599.097	16.96
599.291	16.98
599.486	17.03
599.68	17.09
599.874	17.11
600.069	17.12
600.263	17.15
600.457	17.2
600.651	17.12
600.846	17.17
601.04	17.2
601.234	17.21
601.428	17.08
601.622	17.15
601.817	17.18
602.011	17.24
602.205	17.21
602.399	17.41
602.593	17.46
602.787	17.37
602.981	17.34
603.175	17.32
603.369	17.27
603.563	17.17
603.757	17.23
603.951	17.13
604.145	17.14
604.339	17.13
604.533	17.18
604.727	17.16
604.921	17.2
605.115	17.13
605.309	17.07
605.502	17.06
605.696	16.97
605.89	16.98
606.084	17.07
606.278	17.04
606.471	17.01
606.665	17.04
606.859	16.98
607.053	16.92
607.246	16.86
607.44	16.77
607.634	16.77
607.827	16.77
608.021	16.71
608.214	16.71
608.408	16.68
608.602	16.62
608.795	16.68
608.989	16.62
609.182	16.48
609.376	16.4
609.569	16.3
609.763	16.17
609.956	16.09
610.15	16.14
610.343	16.22
610.537	16.15
610.73	16.05
610.923	16.04
611.117	16.07
611.31	15.94
611.504	15.98
611.697	15.94
611.89	15.8
612.083	15.61
612.277	15.56
612.47	15.57
612.663	15.54
612.856	15.53
613.05	15.56
613.243	15.51
613.436	15.39
613.629	15.37
613.822	15.37
614.015	15.35
614.209	15.29
614.402	15.27
614.595	15.25
614.788	15.22
614.981	15.19
615.174	15.18
615.367	15.03
615.56	14.98
615.753	14.88
615.946	14.83
616.139	14.74
616.332	14.78
616.525	14.74
616.718	14.73
616.911	14.74
617.103	14.82
617.296	14.78
617.489	14.71
617.682	14.78
617.875	14.67
618.067	14.51
618.26	14.56
618.453	14.49
618.646	14.36
618.838	14.35
619.031	14.36
619.224	14.29
619.417	14.36
619.609	14.37
619.802	14.31
619.994	14.33
620.187	14.28
620.38	14.24
620.572	14.21
620.765	14.19
620.957	14.22
621.15	14.21
621.342	14.24
621.535	14.1
621.727	14.09
621.92	14.07
622.112	14.06
622.305	13.98
622.497	14.12
622.69	14.1
622.882	13.99
623.074	13.94
623.267	14
623.459	13.96
623.651	13.96
623.844	13.96
624.036	14
624.228	13.91
624.42	13.86
624.613	13.9
624.805	13.92
624.997	13.84
625.189	13.81
625.381	13.81
625.574	13.73
625.766	13.65
625.958	13.68
626.15	13.65
626.342	13.67
626.534	13.63
626.726	13.75
626.918	13.71
627.11	13.75
627.302	13.6
627.494	13.6
627.686	13.49
627.878	13.42
628.07	13.34
628.262	13.41
628.454	13.37
628.646	13.3
628.838	13.32
629.029	13.31
629.221	13.2
629.413	13.18
629.605	13.19
629.797	13.18
629.989	13.14
630.18	13.12
630.372	13.12
630.564	13.06
630.755	13.02
630.947	12.95
631.139	13.05
631.33	12.99
631.522	13.02
631.714	13.01
631.905	13.09
632.097	12.94
632.289	12.92
632.48	12.87
632.672	12.84
632.863	12.8
633.055	12.85
633.246	12.82
633.438	12.83
633.629	12.8
633.821	12.78
634.012	12.72
634.203	12.77
634.395	12.72
634.586	12.78
634.777	12.78
634.969	12.83
635.16	12.83
635.351	12.92
635.543	12.89
635.734	12.87
635.925	12.89
636.117	12.84
636.308	12.84
636.499	12.72
636.69	12.69
636.881	12.69
637.073	12.68
637.264	12.55
637.455	12.63
637.646	12.62
637.837	12.55
638.028	12.5
638.219	12.56
638.41	12.58
638.601	12.53
638.792	12.51
638.983	12.59
639.174	12.55
639.365	12.45
639.556	12.49
639.747	12.51
639.938	12.46
640.129	12.47
640.32	12.52
640.511	12.48
640.701	12.46
640.892	12.45
641.083	12.3
641.274	12.24
641.465	12.23
641.655	12.21
641.846	12.2
642.037	12.27
642.228	12.22
642.418	12.17
642.609	12.12
642.8	12.05
642.99	12.07
643.181	12.1
643.372	12.07
643.562	12.12
643.753	12.11
643.943	12.1
644.134	12.09
644.324	12.07
644.515	12.08
644.705	12.1
644.896	12.05
645.086	12.03
645.277	12.03
645.467	12.1
645.658	12.15
645.848	12.18
646.038	12.11
646.229	12.2
646.419	12.1
646.61	12.03
646.8	12.06
646.99	12.05
647.18	12.03
647.371	11.89
647.561	11.93
647.751	11.92
647.941	12.07
648.132	12.08
648.322	12.14
648.512	12.07
648.702	11.99
648.892	11.85
649.082	11.87
649.272	11.95
649.462	11.92
649.653	11.93
649.843	11.98
650.033	11.88
650.223	11.73
650.413	11.73
650.603	11.72
650.793	11.67
650.983	11.72
651.172	11.8
651.362	11.7
651.552	11.71
651.742	11.76
651.932	11.69
652.122	11.67
652.312	11.7
652.502	11.69
652.691	11.57
652.881	11.54
653.071	11.51
653.261	11.43
653.45	11.35
653.64	11.24
653.83	11.17
654.019	11.1
654.209	11.02
654.399	10.98
654.588	10.97
654.778	10.9
654.968	10.77
655.157	10.77
655.347	10.73
655.536	10.76
655.726	10.67
655.915	10.6
656.105	10.58
656.294	10.46
656.484	10.33
656.673	10.42
656.863	10.41
657.052	10.41
657.241	10.54
657.431	10.53
657.62	10.45
657.809	10.39
657.999	10.3
658.188	10.18
658.377	10.18
658.567	10.07
658.756	10.01
658.945	10.09
659.134	9.92
659.324	9.82
659.513	9.77
659.702	9.73
659.891	9.62
660.08	9.59
660.269	9.56
660.458	9.53
660.648	9.5
660.837	9.37
661.026	9.36
661.215	9.38
661.404	9.39
661.593	9.19
661.782	9.15
661.971	9.11
662.16	8.96
662.349	8.84
662.538	8.92
662.726	8.86
662.915	8.87
663.104	8.81
663.293	8.76
663.482	8.68
663.671	8.64
663.86	8.59
664.048	8.62
664.237	8.62
664.426	8.71
664.615	8.76
664.803	8.66
664.992	8.67
665.181	8.69
665.369	8.66
665.558	8.57
665.747	8.5
665.935	8.43
666.124	8.43
666.312	8.38
666.501	8.52
666.69	8.7
666.878	8.7
667.067	8.64
667.255	8.66
667.444	8.43
667.632	8.37
667.82	8.27
668.009	8.33
668.197	8.37
668.386	8.54
668.574	8.54
668.762	8.71
668.951	8.62
669.139	8.66
669.327	8.76
669.516	8.73
669.704	8.74
669.892	8.87
670.08	8.8
670.269	8.74
670.457	8.81
670.645	8.87
670.833	8.81
671.021	8.81
671.21	8.89
671.398	8.75
671.586	8.72
671.774	8.88
671.962	9.06
672.15	9.15
672.338	9.49
672.526	9.57
672.714	9.6
672.902	9.53
673.09	9.4
673.278	9.17
673.466	9.11
673.654	9.08
673.842	9.21
674.03	9.27
674.218	9.49
674.405	9.66
674.593	9.76
674.781	9.63
674.969	9.72
675.157	9.66
675.344	9.68
675.532	9.59
675.72	9.72
675.908	9.73
676.095	9.85
676.283	9.73
676.471	9.83
676.658	9.96
676.846	10.04
677.033	10.07
677.221	10.27
677.409	10.34
677.596	10.41
677.784	10.55
677.971	10.59
678.159	10.62
678.346	10.59
678.534	10.55
678.721	10.32
678.909	10.27
679.096	10.23
679.283	10.3
679.471	10.36
679.658	10.52
679.846	10.61
680.033	10.65
680.22	10.75
680.408	10.82
680.595	10.81
680.782	10.87
680.969	10.93
681.157	11.04
681.344	11.08
681.531	11.17
681.718	11.23
681.905	11.3
682.093	11.09
682.28	10.97
682.467	11.18
682.654	11.25
682.841	11.38
683.028	11.5
683.215	11.79
683.402	11.79
683.589	11.79
683.776	11.79
683.963	11.93
684.15	11.8
684.337	11.84
684.524	12
684.711	12.03
684.898	12.13
685.085	12.33
685.271	12.37
685.458	12.42
685.645	12.56
685.832	12.66
686.019	12.88
686.205	13.01
686.392	13.19
686.579	13.41
686.766	13.4
686.952	13.51
687.139	13.6
687.326	13.71
687.512	13.67
687.699	13.88
687.886	13.92
688.072	14.04
688.259	14.21
688.445	14.52
688.632	14.93
688.818	15.02
689.005	15.43
689.191	15.57
689.378	15.85
689.564	15.96
689.751	16.31
689.937	16.5
690.124	16.96
690.31	17.21
690.496	17.5
690.683	17.77
690.869	18.06
691.055	18.24
691.242	18.39
691.428	18.59
691.614	18.83
691.8	19.23
691.987	19.55
692.173	20.06
692.359	20.45
692.545	20.87
692.731	21.23
692.918	21.42
693.104	21.75
693.29	22.12
693.476	22.59
693.662	22.92
693.848	23.55
694.034	23.98
694.22	24.59
694.406	25.09
694.592	25.57
694.778	25.94
694.964	26.21
695.15	26.43
695.336	26.75
695.522	26.96
695.708	27.51
695.894	28.14
696.08	28.74
696.265	29.35
696.451	30.15
696.637	30.55
696.823	31.03
697.009	31.47
697.194	31.97
697.38	32.4
697.566	32.96
697.751	33.37
697.937	33.84
698.123	34.12
698.308	34.35
698.494	34.81
698.68	35.2
698.865	35.65
699.051	36.12
699.236	36.66
699.422	37.21
699.607	37.85
699.793	38.39
699.978	39.06
700.164	39.67
700.349	39.81
700.535	40.3
700.72	40.76
700.906	41.18
701.091	41.34
701.276	42.11
701.462	42.31
701.647	42.85
701.832	43.2
702.018	43.69
702.203	43.79
702.388	44.61
702.573	45.22
702.759	45.39
702.944	46.08
703.129	46.55
703.314	46.88
703.499	47.11
703.684	47.63
703.87	47.68
704.055	47.96
704.24	48.27
704.425	48.69
704.61	49.22
704.795	49.93
704.98	50.71
705.165	51.12
705.35	51.38
705.535	51.94
705.72	52.27
705.905	52.21
706.09	52.51
706.275	52.83
706.459	53.13
706.644	53.28
706.829	53.65
707.014	54.01
707.199	54.21
707.384	54.17
707.568	54.59
707.753	54.87
707.938	55.04
708.123	55.16
708.307	55.61
708.492	55.78
708.677	56.12
708.861	56.11
709.046	56.31
709.231	56.64
709.415	56.93
709.6	57.19
709.784	57.77
709.969	58.09
710.153	58.6
710.338	59.22
710.522	59.97
710.707	60.29
710.891	61.02
711.076	60.96
711.26	60.8
711.445	60.44
711.629	60.88
711.813	60.63
711.998	60.73
712.182	61.27
712.366	61.54
712.551	60.95
712.735	61.34
712.919	61.77
713.103	61.73
713.288	62.41
713.472	63.15
713.656	62.96
713.84	62.88
714.024	62.91
714.208	62.83
714.393	62.79
714.577	63.51
714.761	63.29
714.945	63.57
715.129	63.85
715.313	64.05
715.497	64.27
715.681	64.73
715.865	65.14
716.049	65.31
716.233	65.49
716.417	65.37
716.601	65.39
716.785	65.42
716.968	65.27
717.152	65.29
717.336	65.68
717.52	66.13
717.704	65.84
717.888	66.16
718.071	66.37
718.255	66.08
718.439	66.22
718.622	66.77
718.806	66.73
718.99	67.06
719.174	67.59
719.357	67.42
719.541	67.71
719.724	68.03
719.908	68.12
720.092	67.88
720.275	68.57
720.459	68.54
720.642	68.78
720.826	69.11
721.009	69.39
721.193	69.7
721.376	69.89
721.559	69.62
721.743	69.58
721.926	69.78
722.11	69.69
722.293	70.1
722.476	70.22
722.66	70.24
722.843	70.1
723.026	70.4
723.21	70.28
723.393	70.29
723.576	70.7
723.759	70.82
723.942	70.74
724.126	70.62
724.309	71.19
724.492	71.08
724.675	71.79
724.858	71.54
725.041	71.41
725.224	71.26
725.407	71.77
725.59	71.6
725.774	72.04
725.957	72.9
726.14	73.34
726.322	72.84
726.505	73.24
726.688	73.17
726.871	73.26
727.054	73.23
727.237	73.93
727.42	73.97
727.603	74.8
727.786	75.06
727.968	75.49
728.151	76.26
728.334	76.57
728.517	76.35
728.699	75.84
728.882	75.74
729.065	75.11
729.248	75.15
729.43	74.8
729.613	75.2
729.796	75.52
729.978	75.44
730.161	75.42
730.343	76.35
730.526	76.47
730.708	77.31
730.891	78.18
731.073	78.76
731.256	78.83
731.438	79.02
731.621	78.01
731.803	77.19
731.986	77.07
732.168	77.29
732.35	77.77
732.533	78.58
732.715	79.81
732.898	79.43
733.08	79.23
733.262	79.37
733.444	79.29
733.627	78.82
733.809	78.83
733.991	78.27
734.173	78.4
734.355	77.95
734.538	78.81
734.72	79.34
734.902	79.69
735.084	79.12
735.266	79.21
735.448	78.38
735.63	79.52
735.812	80.47
735.994	80.38
736.176	81.54
736.358	80.9
736.54	79.27
736.722	78.85
736.904	79.15
737.086	78.36
737.268	78.7
737.45	80.03
737.632	80.13
737.814	80.89
737.995	81.13
738.177	82.02
738.359	82.31
738.541	82.99
738.723	82.78
738.904	82.76
739.086	82.35
739.268	81.89
739.449	81.17
739.631	81.48
739.813	81.84
739.994	82.02
740.176	82.03
740.358	82.23
740.539	81.13
740.721	81.76
740.902	81.89
741.084	81.06
741.265	81.58
741.447	82.72
741.628	81.58
741.81	82.56
741.991	83.48
742.172	81.92
742.354	81.66
742.535	82.71
742.717	81.75
742.898	82.51
743.079	84.71
743.261	85.78
743.442	85.88
743.623	86.21
743.804	85.45
743.986	85.19
744.167	84.58
744.348	85.1
744.529	84.37
744.71	83.63
744.891	82.58
745.073	82.91
745.254	81.77
745.435	83.01
745.616	83.97
745.797	84.64
745.978	84.64
746.159	84.63
746.34	84.66
746.521	83.98
746.702	84.75
746.883	84.83
747.064	85.15
747.245	84.75
747.426	85.27
747.606	84.02
747.787	83.29
747.968	83.08
748.149	82.42
748.33	82.65
748.51	82.85
748.691	83.01
748.872	84.07
749.053	85.7
749.233	86.77
749.414	87.45
749.595	87.96
749.775	87.89
749.956	87.69
750.137	86.08
750.317	84.96
750.498	83.52
750.678	82.88
750.859	82.25
751.04	83.5
751.22	86.21
751.4	86.8
751.581	88.33
751.761	86.58
751.942	86.8
752.122	85.59
752.303	86.35
752.483	85.38
752.663	87.62
752.844	87.7
753.024	88.33
753.204	87.83
753.385	87.03
753.565	86.5
753.745	86.08
753.925	84.59
754.106	85.16
754.286	85.47
754.466	85.73
754.646	85.76
754.826	85.93
755.006	86.22
755.187	85.76
755.367	85.28
755.547	85.42
755.727	84.16
755.907	84.21
756.087	83.36
756.267	82.94
756.447	83.13
756.627	84.49
756.807	83.05
756.987	84.46
757.167	85.82
757.346	85.22
757.526	84.68
757.706	84.84
757.886	85.2
758.066	83.62
758.246	84.19
758.425	85.17
758.605	84.96
758.785	85.3
758.965	86.93
759.144	87.57
759.324	87.3
759.504	86.83
759.683	87.65
759.863	85.69
760.043	84.76
760.222	85.69
760.402	86.41
760.581	84.86
760.761	84.99
760.94	84.16
761.12	82.91
761.299	83.04
761.479	83.07
761.658	84.07
761.838	84.87
762.017	84.17
762.197	83.95
762.376	85.56
762.555	85.08
762.735	83.42
762.914	83.17
763.093	82.67
763.273	80.71
763.452	82.09
763.631	81.55
763.81	83.33
763.99	84.53
764.169	85.78
764.348	84.92
764.527	86.6
764.706	85.69
764.885	84.7
765.064	83.35
765.243	83.06
765.423	82.8
765.602	81.12
765.781	83.41
765.96	84
766.139	85.02
766.318	84.65
766.497	85.65
766.676	83.71
766.854	82.62
767.033	82.06
767.212	82.05
767.391	83.5
767.57	83.71
767.749	84
767.928	82.5
768.106	83.18
768.285	84.55
768.464	84.97
768.643	86.02
768.821	85.2
769	83.35
769.179	82.07
769.357	83.62
769.536	84.07
769.715	84.85
769.893	85.27
770.072	83.77
770.25	81.78
770.429	80.5
770.607	80.98
770.786	82.55
770.964	82
771.143	82.83
771.321	81.7
771.5	80.37
771.678	81.25
771.857	82.67
772.035	80.27
772.213	82.69
772.392	82.73
772.57	80.14
772.748	80.01
772.927	82.04
773.105	81.02
773.283	81.92
773.461	83.23
773.64	82.69
773.818	83
773.996	81.77
774.174	82.1
774.352	81.71
774.531	81.08
774.709	81.55
774.887	82.15
775.065	83.37
775.243	84.9
775.421	85.02
775.599	83.45
775.777	82.74
775.955	80.86
776.133	80.21
776.311	79.49
776.489	81.03
776.667	83.36
776.844	85.07
777.022	86.55
777.2	87.44
777.378	85.8
777.556	85.29
777.734	84.36
777.911	82.38
778.089	82.84
778.267	83.57
778.445	83.28
778.622	82.39
778.8	80.32
778.978	77.09
779.155	75.1
779.333	75.4
779.511	76.62
779.688	75.66
779.866	80.41
780.043	82.92
780.221	81.72
780.398	82.01
780.576	82.91
780.753	81.74
780.931	80.06
781.108	80.52
781.286	78.5
781.463	79.24
781.64	78.77
781.818	76.39
781.995	76.16
782.172	76.49
782.35	77.73
782.527	75.09
782.704	77.89
782.882	77.31
783.059	78.51
783.236	76.32
783.413	78.94
783.59	79.35
783.768	84.26
783.945	82.95
784.122	85.23
784.299	83.93
784.476	84.44
784.653	81.4
784.83	82.79
785.007	81.98
785.184	80.52
785.361	82.31
785.538	79.83
785.715	79.78
785.892	80.3
786.069	82.47
786.246	80.83
786.423	82.91
786.6	86.36
786.776	86.79
786.953	87.63
787.13	87.16
787.307	85.14
787.484	82.23
787.66	84.18
787.837	84.25
788.014	86.14
788.191	87.87
788.367	86.76
788.544	83.35
788.721	80.4
788.897	78.99
789.074	74.64
789.25	72.49
789.427	73.7
789.603	75.04
789.78	74.76
789.956	78.15
790.133	81.55
790.309	80.25
790.486	78.33
790.662	77.46
790.839	80.8
791.015	76.56
791.192	75.11
791.368	77.72
791.544	80.58
791.721	78.23
791.897	81.27
792.073	85.26
792.249	84.34
792.426	80.13
792.602	78.23
792.778	77.81
792.954	77.34
793.13	80.8
793.307	81.76
793.483	83.38
793.659	83.54
793.835	84.05
794.011	79.92
794.187	81.28
794.363	79.97
794.539	83
794.715	82.32
794.891	80.52
795.067	79.79
795.243	81.02
795.419	78.04
795.595	78.74
795.771	82.42
795.947	81.06
796.122	80.6
796.298	78.11
796.474	73.78
796.65	73.44
796.826	75.85
797.001	74.21
797.177	77.61
797.353	80.42
797.529	77.99
797.704	77.67
797.88	84.29
798.056	83.84
798.231	87.28
798.407	86.01
798.582	84.83
798.758	79.09
798.934	76.66
799.109	73
799.285	78.71
799.46	76.66
799.636	77.21
799.811	79.44
799.986	73.6
800.162	70.53
800.337	66.74
800.513	70.38
800.688	71.39
800.863	79.41
801.039	78.31
801.214	85.76
801.389	84.41
801.565	87.18
801.74	88.63
801.915	86.27
802.09	80.11
802.265	72.37
802.441	68.31
802.616	65.3
802.791	66.12
802.966	70.91
803.141	81.64
803.316	87.93
803.491	92
803.666	93.25
803.841	98.98
804.016	89.15
804.191	83.23
804.366	80.12
804.541	83.81
804.716	80.94
804.891	82.01
805.066	78.71
805.241	78.18
805.416	75.14
805.591	72.1
805.765	72.98
805.94	74.31
806.115	77.26
806.29	75.28
806.464	74.49
806.639	76.36
806.814	78.87
806.989	81.51
807.163	79.59
807.338	84.8
807.512	83.61
807.687	79.98
807.862	73.06
808.036	77.81
808.211	76.67
808.385	75.36
808.56	70.14
808.734	68.6
808.909	65.28
809.083	70.86
809.258	65.73
809.432	72.33
809.606	77.07
809.781	75.21
809.955	65.2
810.13	70.76
810.304	72.87
810.478	73.74
810.652	77.61
810.827	82.32
811.001	79.2
811.175	77.29
811.349	75.95
811.524	77.72
811.698	79.24
811.872	79.12
812.046	80.21
812.22	75.48
812.394	75.06
812.568	79.82
812.742	83.17
812.916	87.12
813.09	91.01
813.264	96.93
813.438	99.27
813.612	96.62
813.786	95.24
813.96	94.9
814.134	88.95
814.308	76.61
814.482	83.22
814.656	83.23
814.83	77.5
815.003	78.83
815.177	89.27
815.351	83.09
815.525	78.84
815.698	83.09
815.872	77.53
816.046	66.36
816.219	69.26
816.393	60.69
816.567	69.59
816.74	66.03
816.914	64.46
817.088	70.33
817.261	77.92
817.435	74.01
817.608	75.29
817.782	87.83
817.955	85.23
818.129	85.29
818.302	82.36
818.475	80.42
818.649	69.9
818.822	62.98
818.996	58.85
819.169	51.71
819.342	58.39
819.516	65.08
819.689	64.39
819.862	82.35
820.035	99.19
820.209	94.3
820.382	86.86
820.555	81.08
820.728	66.11
820.901	70.17
821.075	73.58
821.248	71.11
821.421	82.07
821.594	87.93
821.767	69.56
821.94	55.35
822.113	62.97
822.286	56.02
822.459	47.53
822.632	48.95
822.805	61.22
822.978	61.84
823.151	67.98
823.324	75.65
823.496	87
823.669	81.63
823.842	84.83
824.015	83.93
824.188	79.88
824.361	85.52
824.533	89.38
824.706	76.31
824.879	82.02
825.051	75.62
825.224	80.47
825.397	88.09
825.569	91.59
825.742	86.56
825.915	97.39
826.087	87.34
826.26	72.32
826.432	80.4
826.605	73.82
826.777	69.71
826.95	67.08
827.122	73.02
827.295	70.99
827.467	76.17
827.64	80.01
827.812	99.25
827.984	88.77
828.157	93.91
828.329	99.01
828.501	110.47
828.674	89.74
828.846	118.92
829.018	104.49
829.19	106.92
829.363	98.43
829.535	95.88
829.707	68.75
829.879	70.09
830.051	59.36
830.223	59.91
830.395	64.32
830.568	79.8
830.74	84.56
830.912	87.08
831.084	72.63
831.256	83.75
831.428	88.09
831.6	94.96
831.772	99.54
831.943	102.32
832.115	97.09
832.287	88.22
832.459	76.36
832.631	64.84
832.803	75.33
832.975	73.08
833.146	91.25
833.318	122.36
833.49	120.79
833.662	102.92
833.833	90.87
834.005	86.05
834.177	77.27
834.348	87.1
834.52	91.63
834.692	98.43
834.863	96.24
835.035	85.77
835.206	83.31
835.378	79.04
835.549	95.76
835.721	76.1
835.892	72.74
836.064	61.8
836.235	75.07
836.407	61.66
836.578	68.1
836.749	77.44
836.921	68.83
837.092	56
837.264	87.06
837.435	92.31
837.606	82.55
837.777	82.73
837.949	66.93
838.12	46.69
838.291	50.51
838.462	52.39
838.633	58.52
838.805	76.39
838.976	66.85
839.147	58.25
839.318	83.33
839.489	85.35
839.66	83.24
839.831	59.52
840.002	68.55
840.173	76.98
840.344	73.99
840.515	77.57
840.686	81.16
840.857	92.71
841.028	88.37
841.199	100.82
841.369	109.55
841.54	130.75
841.711	157.58
841.882	157.51
842.053	146.07
842.223	135.72
842.394	103.87
842.565	64.3
842.736	60.68
842.906	56.14
843.077	53.96
843.248	75.87
843.418	101.06
843.589	99.44
843.759	62.98
843.93	73.54
844.101	58.08
844.271	41.1
844.442	35.27
844.612	2.97
844.783	15.74
844.953	42.18
845.123	22.65
845.294	18.04
845.464	58.53
845.635	69.85
845.805	62.26
845.975	85.48
846.146	98.95
846.316	115.45
846.486	115.87
846.656	109.62
846.827	105.76
846.997	104.07
847.167	84.61
847.337	86.78
847.507	77.8
847.677	70.01
847.848	57.84
848.018	71.84
848.188	69.49
848.358	91.55
848.528	78.29
848.698	101.73
848.868	99.4
849.038	93.55
849.208	87.71
849.378	88.07
849.548	91.81
849.718	88.43
849.887	79.72
850.057	121.15
850.227	127.14
850.397	94.19
850.567	98.86
850.737	70.8
850.906	47.41
851.076	57.72
851.246	68.39
851.415	63.37
851.585	85.45
851.755	124.71
851.924	144.94
852.094	112.63
852.264	113.46
852.433	113.68
852.603	84.5
852.772	63.33
852.942	67.34
853.111	55.69
853.281	82.47
853.45	80.28
853.62	78.64
853.789	94.74
853.959	70.91
854.128	55.43
854.297	65.79
854.467	65.34
854.636	18.7
854.805	70.13
854.975	103.4
855.144	85.06
855.313	78.84
855.482	96.12
855.652	96.42
855.821	89.62
855.99	77.63
856.159	63.5
856.328	45.62
856.497	40.19
856.667	54.73
856.836	27.4
857.005	53.15
857.174	60.23
857.343	68.87
857.512	55.44
857.681	86.96
857.85	99.24
858.019	114.45
858.188	155.05
858.356	190.22
858.525	235.45
858.694	498.12
858.863	262.22
859.032	211.3
859.201	182.12
859.369	150.49
859.538	94.77
859.707	97.85
859.876	53.39
860.044	72.3
860.213	54.07
860.382	65.06
860.55	54.07
860.719	43.37
860.888	39.36
861.056	55.56
861.225	49.01
861.393	57.99
861.562	58.2
861.73	80.61
861.899	75.45
862.067	84.97
862.236	87.26
862.404	112.41
862.572	94.85
862.741	104.77
862.909	89.08
863.078	93.6
863.246	97.92
863.414	86.03
863.582	49.21
863.751	60.54
863.919	65.3
864.087	63.99
864.255	71.8
864.424	100.35
864.592	124.8
864.76	94.32
864.928	69.85
865.096	88.39
865.264	80.67
865.432	78.14
865.6	110.95
865.768	125.51
865.936	104.59
866.104	135.36
866.272	134.41
866.44	113.41
866.608	101.71
866.776	117.59
866.944	80.75
867.112	77.89
867.28	99.3
867.448	91.25
867.615	55.48
867.783	59.3
867.951	67.75
868.119	30.44
868.286	39.77
868.454	65.11
868.622	91.69
868.789	76.86
868.957	64.46
869.125	100.28
869.292	93.15
869.46	89.88
869.627	90.12
869.795	103.07
869.963	95.58
870.13	88.46
870.298	92.87
870.465	87.84
870.632	92.02
870.8	118.11
870.967	144.38
871.135	131.8
871.302	131.98
871.469	108.67
871.637	63.67
871.804	46.29
871.971	67.67
872.139	77.96
872.306	68.16
872.473	74.87
872.64	81
872.807	78.56
872.975	67.02
873.142	83.33
873.309	107.16
873.476	73.11
873.643	39.35
873.81	96.47
873.977	129.81
874.144	96.88
874.311	143.3
874.478	127.37
874.645	133.89
874.812	164.85
874.979	123.68
875.146	110.97
875.313	85.25
875.48	45
875.647	36.49
875.813	68.78
875.98	64.32
876.147	78.1
876.314	105.38
876.481	156.5
876.647	259.41
876.814	267.36
876.981	-621.35
877.147	-637.57
877.314	147.99
877.481	100.29
877.647	51.61
877.814	93.62
877.98	78.62
878.147	109.94
878.314	117.18
878.48	109.88
878.647	79.47
878.813	70.63
878.979	-18.56
879.146	24
879.312	51.01
879.479	52.3
879.645	60.33
879.811	103.79
879.978	119.09
880.144	98.48
880.31	136.47
880.477	142.75
880.643	141.51
880.809	128.96
880.975	112.55
881.142	89.64
881.308	121.13
881.474	44.28
881.64	36.39
881.806	69.56
881.972	71.22
882.138	10.71
882.304	-105.56
882.47	25.95
882.636	17.93
882.802	82.28
882.968	44.59
883.134	100.6
883.3	105.19
883.466	68.08
883.632	30.07
883.798	64.77
883.964	33.56
884.129	19.02
884.295	15.18
884.461	35.56
884.627	32.14
884.793	49.14
884.958	68.77
885.124	115.04
885.29	122.09
885.455	145.45
885.621	196.67
885.787	121.74
885.952	188.28
886.118	248.65
886.283	211.35
886.449	338.94
886.614	294.72
886.78	218.78
886.945	325.63
887.111	645.56
887.276	-2557.41
887.442	-931.9
887.607	439.82
887.773	230.02
887.938	181.38
888.103	137.25
888.269	132.39
888.434	135.77
888.599	112.93
888.764	123.53
888.93	167.25
889.095	140.61
889.26	124.22
889.425	-1259.52
889.59	-176.67
889.756	218.56
889.921	201.28
890.086	70.19
890.251	19.21
890.416	69.51
890.581	-44.74
890.746	11.78
890.911	6.01
891.076	33.47
891.241	38.43
891.406	54.28
891.571	57.02
891.736	96.21
891.901	83.7
892.065	83.63
892.23	36.79
892.395	129.08
892.56	84.94
892.725	24.98
892.889	28.98
893.054	70.58
893.219	93.8
893.384	191.75
893.548	326.24
893.713	428.16
893.878	681.01
