Data from Ofav_PP_Phys_4JQ12_Reflection_2.txt Node
Date: Tue Aug 03 18:17:30 EDT 2021
User: Adam
Spectrometer: FLMT01687
Trigger mode: 0
Integration Time (sec): 8.750000E-1
Scans to average: 2
Electric dark correction enabled: true
Nonlinearity correction enabled: false
Boxcar width: 2
XAxis mode: Wavelengths
Number of Pixels in Spectrum: 3648
>>>>>Begin Spectral Data<<<<<
179.494	290.39
179.716	303.28
179.937	359.55
180.158	532.02
180.38	1356.14
180.601	-57.5
180.823	10.38
181.044	40.25
181.265	-3.79
181.486	167.66
181.708	43.26
181.929	34.84
182.15	58.72
182.372	289.03
182.593	151.48
182.814	327.11
183.035	128.37
183.257	213.73
183.478	79.25
183.699	-400.4
183.92	-244.94
184.141	-282.79
184.363	-172.31
184.584	-277.17
184.805	-65.33
185.026	-70.47
185.247	-28.28
185.468	12.13
185.689	-3.35
185.91	-12.76
186.132	-26
186.353	-3.37
186.574	-70.63
186.795	-3.62
187.016	-0.04
187.237	22.66
187.458	16.86
187.679	30.18
187.9	10.94
188.121	20.71
188.342	-3.94
188.563	-7.34
188.784	1.15
189.005	-5.89
189.226	-24.73
189.447	11.36
189.667	6.26
189.888	25.83
190.109	61.48
190.33	42.71
190.551	21.84
190.772	61.37
190.993	29.83
191.214	1.25
191.434	30.54
191.655	-5.18
191.876	-15.71
192.097	-5.55
192.318	2.44
192.538	-13.05
192.759	-0.63
192.98	-22.4
193.201	-47.54
193.421	-35.26
193.642	-31.23
193.863	-5.74
194.083	36.45
194.304	44.21
194.525	43.25
194.745	31.76
194.966	49.52
195.187	48.59
195.407	62.51
195.628	58.84
195.848	62.73
196.069	62.96
196.29	48.5
196.51	27.75
196.731	30.61
196.951	22.5
197.172	23.37
197.392	48.1
197.613	22.76
197.833	14.6
198.054	30.43
198.274	-5.53
198.495	-16.15
198.715	23.01
198.936	13.4
199.156	1.11
199.377	23.11
199.597	27.49
199.817	39.16
200.038	22.05
200.258	34.65
200.479	-38.35
200.699	-1.53
200.919	-78.09
201.14	26.15
201.36	17.08
201.58	34.78
201.801	1.08
202.021	16.96
202.241	-25.99
202.461	-11.09
202.682	15.68
202.902	19.78
203.122	33.44
203.342	52.68
203.563	12.02
203.783	-39.53
204.003	-12.81
204.223	-24.18
204.443	-52.99
204.663	-27.12
204.884	-23.74
205.104	-44.61
205.324	-36.44
205.544	-34.97
205.764	-48.43
205.984	-114.77
206.204	-73.61
206.424	-157.32
206.644	-29.19
206.864	-49.97
207.084	-32.39
207.304	-56.09
207.525	-13.96
207.745	-14.32
207.964	-20.03
208.184	35.51
208.404	65.97
208.624	59.22
208.844	38.3
209.064	54.97
209.284	66.02
209.504	21.88
209.724	6.36
209.944	-2.69
210.164	-34.61
210.384	-26.19
210.604	-16.64
210.823	32.3
211.043	79.09
211.263	74.89
211.483	40.25
211.703	66.62
211.922	24.71
212.142	-8.04
212.362	-28.16
212.582	-8.59
212.801	-43.65
213.021	-13.95
213.241	-35.78
213.461	23.87
213.68	17.89
213.9	5.88
214.12	4.76
214.339	34.43
214.559	37.31
214.779	12.85
214.998	16.85
215.218	20.59
215.438	16.81
215.657	12.12
215.877	39.52
216.096	32.26
216.316	30.52
216.535	26.56
216.755	-22.93
216.974	-9.04
217.194	15.78
217.413	30.53
217.633	32.58
217.852	62.06
218.072	63.89
218.291	45.33
218.511	38.6
218.73	64.09
218.95	54.62
219.169	44.26
219.389	63.13
219.608	69.95
219.827	22.57
220.047	-10.68
220.266	7.66
220.485	15.23
220.705	15.98
220.924	36.91
221.143	39.35
221.363	63.25
221.582	50.35
221.801	15.14
222.021	16.47
222.24	29.69
222.459	-49.25
222.678	-23.94
222.897	5.35
223.117	-39.57
223.336	-188.73
223.555	-44.12
223.774	-101.21
223.993	-78.96
224.213	-86.69
224.432	-50.25
224.651	-19.88
224.87	-3.89
225.089	-7.46
225.308	-24.95
225.527	-29.91
225.746	-103.87
225.965	-79.17
226.184	-121.01
226.404	-9.02
226.623	12.34
226.842	11.06
227.061	-24.57
227.28	-24.73
227.499	-21.38
227.718	-35.96
227.936	-20.22
228.155	-17.32
228.374	13.28
228.593	7.63
228.812	-2.87
229.031	1.5
229.25	41.44
229.469	3.75
229.688	-71.48
229.907	-137.8
230.125	-168.33
230.344	-139.51
230.563	-103.27
230.782	-58.27
231.001	5.9
231.22	-3.97
231.438	-12.33
231.657	-33.57
231.876	-44
232.095	-42.93
232.313	-40.12
232.532	-67.54
232.751	-22.6
232.969	-4.87
233.188	-14.78
233.407	-8.63
233.625	28.15
233.844	7.39
234.063	17.57
234.281	16.17
234.5	-4.46
234.719	-34.88
234.937	-12.6
235.156	-33.72
235.374	-16.5
235.593	-1.93
235.811	-0.25
236.03	9.29
236.249	33.41
236.467	17.25
236.686	14.32
236.904	19.18
237.123	31.16
237.341	36.27
237.559	34.34
237.778	49.14
237.996	30.55
238.215	9.39
238.433	-14.09
238.652	-21.46
238.87	-16.83
239.088	-4.45
239.307	7.47
239.525	15.11
239.743	36.35
239.962	19.37
240.18	24.95
240.398	43.6
240.617	56.4
240.835	29.43
241.053	20.31
241.271	-69
241.49	-76.93
241.708	-47.01
241.926	-24.81
242.144	-4.43
242.363	51.05
242.581	62.31
242.799	37.08
243.017	32.59
243.235	55.31
243.453	51.03
243.672	43.57
243.89	53.44
244.108	52.67
244.326	21.29
244.544	23.41
244.762	21.13
244.98	9.97
245.198	6.77
245.416	19.54
245.634	15.46
245.852	8.1
246.07	14.45
246.288	0.51
246.506	23.35
246.724	4.04
246.942	11.3
247.16	11.45
247.378	8.36
247.596	-8.67
247.814	0.16
248.032	15.53
248.25	18.51
248.468	37.78
248.685	32.57
248.903	9.39
249.121	-33.58
249.339	-31.98
249.557	-22.09
249.775	-25.76
249.992	18.29
250.21	27.16
250.428	21.03
250.646	-9.12
250.863	9.03
251.081	-13.33
251.299	-28.27
251.517	-18.9
251.734	-23.64
251.952	-77.66
252.17	-72.31
252.387	-119.91
252.605	-160.63
252.823	-162.68
253.04	-116.56
253.258	-61.27
253.475	2.05
253.693	-13.66
253.911	22.4
254.128	11.45
254.346	-3.52
254.563	-1.73
254.781	7.65
254.998	1.39
255.216	4.2
255.433	15.55
255.651	-2.11
255.868	-37.46
256.086	-67.37
256.303	-46.49
256.521	-21.47
256.738	-30.08
256.956	24.63
257.173	51.45
257.39	52.57
257.608	24.76
257.825	17.08
258.043	-48.31
258.26	-20.07
258.477	-29.22
258.695	-19.97
258.912	-9.85
259.129	16.19
259.346	21.14
259.564	29.12
259.781	28.69
259.998	33.01
260.216	17.73
260.433	13.02
260.65	11.09
260.867	22.09
261.084	7.11
261.302	4.72
261.519	16.2
261.736	33.33
261.953	28.95
262.17	32.11
262.387	28.7
262.604	25.44
262.822	23.07
263.039	17.03
263.256	16.79
263.473	22.7
263.69	24.66
263.907	8.66
264.124	-14.18
264.341	-39.8
264.558	-87.91
264.775	-65.76
264.992	-52.24
265.209	-40.85
265.426	-15.91
265.643	15.9
265.86	4.46
266.077	19.85
266.294	22.91
266.51	25.36
266.727	27.05
266.944	36.24
267.161	39.33
267.378	39.03
267.595	19.23
267.812	16.9
268.028	18.49
268.245	17.81
268.462	29.47
268.679	50.99
268.896	26.4
269.112	13.45
269.329	0.5
269.546	-36.36
269.763	-39.39
269.979	-3.46
270.196	19.95
270.413	19.16
270.629	20.47
270.846	31.12
271.063	13.4
271.279	15.92
271.496	13.73
271.712	0.51
271.929	-2.94
272.146	36.58
272.362	28.7
272.579	32.54
272.795	36.85
273.012	40.38
273.228	26.65
273.445	25.6
273.661	14.66
273.878	19.2
274.094	21.3
274.311	4.83
274.527	-8.25
274.744	-0.72
274.96	-4
275.177	-63.07
275.393	-35.37
275.609	-18.28
275.826	-26.96
276.042	-22.36
276.259	3.2
276.475	-12.71
276.691	-31.32
276.908	-18.8
277.124	0.15
277.34	2.12
277.557	-14.28
277.773	-4.43
277.989	-2.67
278.205	-3.9
278.422	-24.08
278.638	2.61
278.854	-9.87
279.07	-4.12
279.286	-4.76
279.503	18.64
279.719	31.91
279.935	39.44
280.151	34.16
280.367	14.25
280.583	-9.1
280.799	-2.12
281.016	9.87
281.232	-6.98
281.448	11.58
281.664	-0.54
281.88	-3.88
282.096	-5.92
282.312	-8.83
282.528	-16.88
282.744	3.16
282.96	3.54
283.176	18.33
283.392	38.24
283.608	41.15
283.824	47.01
284.04	41.06
284.256	27.55
284.471	19.1
284.687	15.19
284.903	9.93
285.119	-7.87
285.335	-11.47
285.551	-20.13
285.767	-5.07
285.982	11.16
286.198	17.6
286.414	18.74
286.63	13.19
286.846	-0.67
287.061	-8.1
287.277	-21.47
287.493	-10.75
287.709	-36.56
287.924	-16.39
288.14	-39.22
288.356	-57.73
288.571	-49.8
288.787	-19.43
289.003	-34.36
289.218	-40.39
289.434	5.35
289.65	-2.19
289.865	4.84
290.081	-26.18
290.296	6.18
290.512	-4.1
290.727	-19.28
290.943	-5.62
291.159	26
291.374	10.26
291.59	19.47
291.805	30.37
292.021	36.14
292.236	38.03
292.451	37.55
292.667	37.21
292.882	22.34
293.098	-3.52
293.313	-15.03
293.529	-9.51
293.744	-12.14
293.959	14.61
294.175	22.49
294.39	12
294.605	10.67
294.821	-1.02
295.036	-20.74
295.251	-34.56
295.467	-15.4
295.682	-3.08
295.897	8.22
296.112	23.17
296.328	22.63
296.543	30.31
296.758	26.13
296.973	19.69
297.188	0.42
297.404	22.23
297.619	20.72
297.834	23.91
298.049	23.32
298.264	47.96
298.479	13.03
298.694	7.64
298.909	16.99
299.125	27.39
299.34	-6.89
299.555	18.36
299.77	-6.75
299.985	7.67
300.2	19.8
300.415	56.29
300.63	34.69
300.845	48.51
301.06	29.46
301.275	8.05
301.49	-6.08
301.704	-5.89
301.919	18.73
302.134	24.17
302.349	18.97
302.564	32.71
302.779	32.96
302.994	15.92
303.209	12.94
303.423	1.12
303.638	-5.98
303.853	11.06
304.068	28.26
304.283	41.81
304.497	61.06
304.712	70.38
304.927	53.32
305.142	44.91
305.356	28.26
305.571	20.88
305.786	29.27
306	44.06
306.215	15.48
306.43	25.81
306.644	0.14
306.859	-34.09
307.074	-34
307.288	-1.85
307.503	-2.03
307.717	13.62
307.932	12.31
308.147	6.61
308.361	-1.15
308.576	3.53
308.79	14.26
309.005	32.71
309.219	28.81
309.434	22.45
309.648	24.11
309.863	17.8
310.077	15.27
310.292	32.56
310.506	36.97
310.72	32.74
310.935	15
311.149	16.22
311.364	-28.83
311.578	-53.63
311.792	-54.07
312.007	-59.27
312.221	-57.5
312.435	-30.87
312.649	0.99
312.864	-0.57
313.078	-0.99
313.292	-6.54
313.507	6.02
313.721	-6.15
313.935	-18.58
314.149	-17.87
314.363	-9.32
314.578	-20.97
314.792	-22.8
315.006	-30.87
315.22	-34.15
315.434	-52.73
315.648	-81.23
315.862	-13.08
316.077	0.95
316.291	4.38
316.505	13.12
316.719	14.36
316.933	10.41
317.147	-11.11
317.361	-9.45
317.575	-6.67
317.789	10
318.003	20.1
318.217	19.19
318.431	19.83
318.645	16.6
318.859	-1.62
319.073	-27.76
319.287	1.05
319.5	28.57
319.714	46.57
319.928	52.27
320.142	45.41
320.356	33.69
320.57	16.99
320.784	-0.56
320.997	-14.05
321.211	3.83
321.425	3.73
321.639	-3.35
321.853	-24.86
322.066	-28.83
322.28	-14.9
322.494	-26.28
322.707	-61.5
322.921	-22.37
323.135	-6.76
323.349	-19.89
323.562	16.04
323.776	47.15
323.989	40.44
324.203	45.19
324.417	51.43
324.63	52.47
324.844	41.83
325.057	41.42
325.271	25.38
325.485	9.07
325.698	-27.94
325.912	-35.02
326.125	-6.15
326.339	-9.77
326.552	-27.67
326.766	-3.02
326.979	2.89
327.193	-6.93
327.406	19.99
327.619	49.21
327.833	22.01
328.046	22.32
328.26	19.94
328.473	8.78
328.686	8.02
328.9	19.78
329.113	20.67
329.326	34.62
329.54	22.43
329.753	31.22
329.966	43.02
330.179	25.95
330.393	16.38
330.606	33.78
330.819	19.81
331.032	0.16
331.246	12.4
331.459	-16.04
331.672	-28.9
331.885	-29.66
332.098	-29.88
332.311	6.52
332.525	39.21
332.738	27.86
332.951	28.05
333.164	25.52
333.377	18.18
333.59	-9.33
333.803	-10.62
334.016	-16.29
334.229	-4.51
334.442	-55.66
334.655	-54.04
334.868	-63.9
335.081	-51.38
335.294	-43.02
335.507	-4.67
335.72	5.2
335.933	9.21
336.146	6.88
336.359	-24.27
336.572	-21.71
336.785	-16.99
336.997	9.15
337.21	-5.04
337.423	24.7
337.636	40.92
337.849	34.51
338.062	16.24
338.274	11.28
338.487	34.06
338.7	18.93
338.913	33.73
339.125	34.38
339.338	36.56
339.551	7
339.763	-11.4
339.976	-14.36
340.189	-9.67
340.402	-17.37
340.614	-6.8
340.827	16.12
341.039	19.17
341.252	22.14
341.465	25.22
341.677	25.49
341.89	26.52
342.102	21.42
342.315	22.99
342.527	19.99
342.74	8.95
342.952	1.22
343.165	-5.89
343.377	-51.94
343.59	-27.62
343.802	-30.69
344.015	-62.77
344.227	-97.81
344.44	-49.31
344.652	-39.75
344.864	-53.69
345.077	-31.84
345.289	-20.29
345.502	-60.25
345.714	-78.76
345.926	-27.2
346.139	-38.2
346.351	-37.11
346.563	-13.25
346.775	-4.82
346.988	-21.81
347.2	-2.1
347.412	6.19
347.624	14.9
347.837	-2.27
348.049	3.94
348.261	-16.49
348.473	-13.81
348.685	-0.62
348.897	33.6
349.11	35.53
349.322	27.39
349.534	8.92
349.746	-6.61
349.958	-17.12
350.17	-11.59
350.382	-9.42
350.594	5.44
350.806	7.98
351.018	4.75
351.23	9.43
351.442	19.45
351.654	10.59
351.866	6.4
352.078	-12.39
352.29	-23.88
352.502	-34.67
352.714	-26.78
352.926	-15.55
353.138	-5.38
353.35	4.28
353.561	29.85
353.773	36.8
353.985	28.05
354.197	28.21
354.409	41.1
354.621	27.9
354.832	33.07
355.044	43.91
355.256	45.35
355.468	19.09
355.679	24.96
355.891	29.48
356.103	32.57
356.314	22.95
356.526	33
356.738	35.28
356.949	28.49
357.161	17.27
357.373	37.75
357.584	42.95
357.796	42.08
358.008	33.27
358.219	19.85
358.431	7.17
358.642	-10.18
358.854	-34.3
359.065	-15.78
359.277	12.54
359.488	-2.2
359.7	-1.88
359.911	2.77
360.123	-14.76
360.334	-34.16
360.546	-10.73
360.757	-20.42
360.969	-21.14
361.18	-2.16
361.391	12.04
361.603	4.78
361.814	1.8
362.025	21.72
362.237	25.86
362.448	18.95
362.659	14.49
362.871	21.88
363.082	-4.04
363.293	-20.14
363.504	-25.19
363.716	1.07
363.927	0.93
364.138	13.68
364.349	23.71
364.56	35.41
364.772	37.39
364.983	31.36
365.194	26.73
365.405	24.04
365.616	3.98
365.827	-3.14
366.038	7.33
366.25	3.68
366.461	2.78
366.672	16.5
366.883	-0.68
367.094	-8.98
367.305	4.27
367.516	-0.15
367.727	2.2
367.938	12.07
368.149	15.42
368.36	2.42
368.571	6.09
368.781	19.68
368.992	22.73
369.203	26.65
369.414	39.43
369.625	43.32
369.836	26.47
370.047	30.12
370.258	28.06
370.468	17.2
370.679	24.93
370.89	36.1
371.101	22.66
371.312	23.29
371.522	23.14
371.733	22.46
371.944	13.19
372.155	12.93
372.365	0.63
372.576	7.2
372.787	6.87
372.997	15.19
373.208	18.23
373.419	7.41
373.629	18.28
373.84	23.68
374.05	15.44
374.261	12.18
374.472	28.66
374.682	14.61
374.893	-4.12
375.103	-23.56
375.314	-17.15
375.524	-23.62
375.735	-13.77
375.945	1.71
376.156	18.27
376.366	18.72
376.577	23.41
376.787	21.95
376.997	19.26
377.208	17.49
377.418	19.08
377.629	10.14
377.839	8.46
378.049	7.61
378.26	-0.75
378.47	-21.08
378.68	-18.03
378.89	-9.03
379.101	-11.78
379.311	-2.47
379.521	18.37
379.732	26.55
379.942	19.55
380.152	30.22
380.362	24.74
380.572	22.01
380.783	22.96
380.993	24.9
381.203	18.04
381.413	6.49
381.623	6.39
381.833	1.48
382.043	14.08
382.253	16.32
382.463	27.02
382.674	25.72
382.884	28.29
383.094	15.6
383.304	11.82
383.514	2.55
383.724	-8.78
383.934	-6.01
384.144	-3.6
384.353	-9.16
384.563	-5.82
384.773	3.09
384.983	-0.57
385.193	-5.48
385.403	5.62
385.613	8.42
385.823	8.09
386.033	7.11
386.242	13.04
386.452	6.82
386.662	5.71
386.872	1.41
387.082	2.65
387.291	2.68
387.501	0.46
387.711	-3.32
387.921	5.38
388.13	5.49
388.34	1.73
388.55	6.1
388.759	8.79
388.969	4.8
389.179	5.54
389.388	4.72
389.598	4.83
389.807	4.39
390.017	7.23
390.227	7.11
390.436	7.97
390.646	5.5
390.855	3.56
391.065	0.8
391.274	1.72
391.484	3.54
391.693	3.83
391.903	5.1
392.112	6.11
392.322	3.22
392.531	1.4
392.74	1.45
392.95	1.71
393.159	0.04
393.369	2.01
393.578	2.19
393.787	3.17
393.997	2.12
394.206	3.57
394.415	3.05
394.625	3.13
394.834	2.88
395.043	3.72
395.252	3.72
395.462	3.77
395.671	2.3
395.88	2.3
396.089	1.54
396.298	1.22
396.508	0.9
396.717	2.15
396.926	2.09
397.135	1.8
397.344	1.9
397.553	1.51
397.762	0.98
397.971	0.93
398.181	1.54
398.39	1.97
398.599	1.92
398.808	1.89
399.017	1.25
399.226	0.84
399.435	-0.17
399.644	0.18
399.853	0.72
400.062	0.98
400.27	1.46
400.479	2.03
400.688	2.25
400.897	2.17
401.106	2.35
401.315	2.49
401.524	2.57
401.733	2.09
401.941	1.84
402.15	1.79
402.359	1.82
402.568	1.3
402.777	1.22
402.985	1.3
403.194	1.3
403.403	1.06
403.612	1.36
403.82	1.62
404.029	1.67
404.238	1.81
404.446	1.77
404.655	1.69
404.864	1.62
405.072	1.66
405.281	1.42
405.489	1.49
405.698	1.51
405.906	1.55
406.115	1.47
406.324	1.53
406.532	1.48
406.741	1.47
406.949	1.47
407.158	1.48
407.366	1.57
407.574	1.49
407.783	1.55
407.991	1.57
408.2	1.34
408.408	1.19
408.617	1.29
408.825	1.3
409.033	1.23
409.242	1.29
409.45	1.26
409.658	1.33
409.867	1.25
410.075	1.31
410.283	1.42
410.491	1.42
410.7	1.37
410.908	1.24
411.116	1.11
411.324	1.07
411.533	1.05
411.741	0.97
411.949	0.96
412.157	1.07
412.365	1.01
412.573	1.07
412.781	1.1
412.99	1.34
413.198	1.22
413.406	1.27
413.614	1.24
413.822	1.18
414.03	1.16
414.238	1.32
414.446	1.31
414.654	1.44
414.862	1.46
415.07	1.3
415.278	1.13
415.486	1.24
415.694	1.29
415.902	1.35
416.109	1.39
416.317	1.47
416.525	1.32
416.733	1.31
416.941	1.31
417.149	1.25
417.357	1.21
417.564	1.26
417.772	1.02
417.98	1.14
418.188	1.22
418.395	1.23
418.603	1.28
418.811	1.35
419.019	1.12
419.226	1.09
419.434	0.99
419.642	1.04
419.849	1.08
420.057	1.15
420.265	1.03
420.472	1.33
420.68	1.2
420.887	1.27
421.095	1.19
421.302	1.41
421.51	1.12
421.717	1.16
421.925	1
422.132	1.04
422.34	1.03
422.547	0.98
422.755	1.05
422.962	1.2
423.17	1.36
423.377	1.36
423.585	1.52
423.792	1.35
423.999	1.18
424.207	1.05
424.414	0.77
424.621	0.6
424.829	0.79
425.036	0.97
425.243	0.97
425.451	1.08
425.658	1.29
425.865	1.16
426.072	0.98
426.28	0.83
426.487	0.94
426.694	0.71
426.901	0.79
427.108	0.87
427.315	1.23
427.523	1.06
427.73	1.16
427.937	1.22
428.144	1.12
428.351	0.94
428.558	0.77
428.765	0.87
428.972	0.82
429.179	0.82
429.386	0.79
429.593	1.05
429.8	1.25
430.007	1.27
430.214	1.36
430.421	1.38
430.628	1.35
430.835	1.23
431.042	1.04
431.249	1.08
431.456	1.21
431.662	1.15
431.869	1.14
432.076	1.07
432.283	0.98
432.49	0.82
432.697	0.96
432.903	0.97
433.11	1.11
433.317	1.1
433.524	0.94
433.73	0.95
433.937	0.87
434.144	0.91
434.35	0.96
434.557	1.21
434.764	1.13
434.97	1.13
435.177	1.11
435.384	1.25
435.59	1.16
435.797	1.09
436.003	1.04
436.21	1.02
436.416	0.85
436.623	0.84
436.829	0.85
437.036	1.02
437.242	1.08
437.449	1.09
437.655	1.12
437.862	1.11
438.068	1.01
438.275	0.99
438.481	0.92
438.687	0.91
438.894	1.13
439.1	1.22
439.307	1.07
439.513	1.1
439.719	1.01
439.926	0.88
440.132	0.89
440.338	1.11
440.544	1.03
440.751	1.2
440.957	1.15
441.163	1.08
441.369	1.1
441.575	1.3
441.782	1.23
441.988	1.33
442.194	1.37
442.4	1.32
442.606	1.25
442.812	1.33
443.018	1.22
443.224	1.12
443.431	0.97
443.637	1.07
443.843	0.96
444.049	1.07
444.255	1.21
444.461	1.36
444.667	1.41
444.873	1.41
445.079	1.44
445.284	1.41
445.49	1.46
445.696	1.38
445.902	1.43
446.108	1.41
446.314	1.34
446.52	1.4
446.726	1.39
446.931	1.39
447.137	1.39
447.343	1.44
447.549	1.35
447.755	1.37
447.96	1.39
448.166	1.34
448.372	1.29
448.578	1.37
448.783	1.26
448.989	1.29
449.195	1.28
449.4	1.32
449.606	1.29
449.812	1.35
450.017	1.3
450.223	1.36
450.428	1.46
450.634	1.44
450.84	1.48
451.045	1.54
451.251	1.52
451.456	1.42
451.662	1.22
451.867	1.2
452.073	1.17
452.278	1.1
452.483	1.01
452.689	1.19
452.894	1.19
453.1	1.16
453.305	1.24
453.51	1.3
453.716	1.34
453.921	1.42
454.127	1.31
454.332	1.35
454.537	1.48
454.742	1.41
454.948	1.32
455.153	1.47
455.358	1.37
455.563	1.14
455.769	1.12
455.974	1.16
456.179	1.14
456.384	1.09
456.589	1.25
456.795	1.3
457	1.35
457.205	1.23
457.41	1.31
457.615	1.34
457.82	1.27
458.025	1.2
458.23	1.28
458.435	1.27
458.64	1.26
458.845	1.26
459.05	1.25
459.255	1.25
459.46	1.19
459.665	1.14
459.87	1.22
460.075	1.22
460.28	1.29
460.485	1.26
460.69	1.28
460.895	1.29
461.099	1.37
461.304	1.22
461.509	1.25
461.714	1.34
461.919	1.19
462.123	1.2
462.328	1.28
462.533	1.41
462.738	1.37
462.942	1.49
463.147	1.48
463.352	1.38
463.556	1.38
463.761	1.29
463.966	1.2
464.17	1.16
464.375	1.29
464.58	1.24
464.784	1.29
464.989	1.43
465.193	1.47
465.398	1.42
465.602	1.34
465.807	1.39
466.011	1.32
466.216	1.24
466.42	1.27
466.625	1.39
466.829	1.35
467.034	1.36
467.238	1.38
467.443	1.41
467.647	1.4
467.851	1.48
468.056	1.46
468.26	1.49
468.464	1.46
468.669	1.47
468.873	1.36
469.077	1.43
469.282	1.45
469.486	1.44
469.69	1.42
469.894	1.45
470.099	1.38
470.303	1.31
470.507	1.35
470.711	1.42
470.915	1.44
471.119	1.57
471.324	1.71
471.528	1.78
471.732	1.6
471.936	1.69
472.14	1.5
472.344	1.41
472.548	1.36
472.752	1.45
472.956	1.34
473.16	1.46
473.364	1.58
473.568	1.6
473.772	1.58
473.976	1.66
474.18	1.72
474.384	1.72
474.588	1.71
474.792	1.86
474.995	1.78
475.199	1.75
475.403	1.59
475.607	1.62
475.811	1.6
476.015	1.57
476.218	1.47
476.422	1.6
476.626	1.56
476.83	1.49
477.033	1.61
477.237	1.69
477.441	1.6
477.644	1.58
477.848	1.62
478.052	1.63
478.255	1.58
478.459	1.6
478.663	1.55
478.866	1.57
479.07	1.52
479.273	1.55
479.477	1.5
479.681	1.59
479.884	1.55
480.088	1.56
480.291	1.57
480.495	1.61
480.698	1.56
480.901	1.55
481.105	1.5
481.308	1.51
481.512	1.57
481.715	1.62
481.919	1.64
482.122	1.64
482.325	1.65
482.529	1.64
482.732	1.66
482.935	1.69
483.138	1.66
483.342	1.72
483.545	1.69
483.748	1.62
483.952	1.62
484.155	1.61
484.358	1.55
484.561	1.55
484.764	1.58
484.967	1.58
485.171	1.64
485.374	1.64
485.577	1.64
485.78	1.65
485.983	1.61
486.186	1.68
486.389	1.75
486.592	1.8
486.795	1.78
486.998	1.82
487.201	1.77
487.404	1.7
487.607	1.64
487.81	1.58
488.013	1.53
488.216	1.52
488.419	1.42
488.622	1.47
488.825	1.55
489.028	1.62
489.231	1.64
489.433	1.74
489.636	1.73
489.839	1.72
490.042	1.79
490.245	1.88
490.447	1.9
490.65	1.92
490.853	1.91
491.056	1.87
491.258	1.79
491.461	1.81
491.664	1.74
491.866	1.77
492.069	1.74
492.272	1.74
492.474	1.73
492.677	1.74
492.879	1.73
493.082	1.66
493.285	1.59
493.487	1.62
493.69	1.66
493.892	1.75
494.095	1.82
494.297	1.96
494.5	1.95
494.702	1.94
494.905	1.94
495.107	1.93
495.309	1.86
495.512	1.84
495.714	1.85
495.917	1.75
496.119	1.76
496.321	1.74
496.524	1.75
496.726	1.76
496.928	1.84
497.13	1.9
497.333	1.95
497.535	1.98
497.737	2.08
497.939	2.1
498.142	2.02
498.344	1.99
498.546	2.02
498.748	1.96
498.95	1.89
499.152	1.97
499.355	2.05
499.557	1.95
499.759	1.97
499.961	2.01
500.163	2.07
500.365	2.06
500.567	2.06
500.769	2.08
500.971	2.15
501.173	2.11
501.375	2.07
501.577	2.19
501.779	2.22
501.981	2.21
502.183	2.28
502.385	2.32
502.587	2.29
502.788	2.23
502.99	2.23
503.192	2.23
503.394	2.25
503.596	2.31
503.798	2.37
503.999	2.44
504.201	2.44
504.403	2.45
504.605	2.43
504.806	2.52
505.008	2.5
505.21	2.44
505.411	2.46
505.613	2.49
505.815	2.45
506.016	2.4
506.218	2.46
506.42	2.52
506.621	2.52
506.823	2.51
507.024	2.58
507.226	2.66
507.427	2.63
507.629	2.65
507.83	2.63
508.032	2.58
508.233	2.52
508.435	2.52
508.636	2.52
508.838	2.54
509.039	2.6
509.24	2.58
509.442	2.6
509.643	2.63
509.845	2.69
510.046	2.73
510.247	2.75
510.448	2.73
510.65	2.77
510.851	2.69
511.052	2.66
511.254	2.77
511.455	2.76
511.656	2.7
511.857	2.66
512.058	2.7
512.26	2.64
512.461	2.7
512.662	2.76
512.863	2.88
513.064	2.92
513.265	2.87
513.466	2.85
513.667	2.9
513.868	2.87
514.069	2.76
514.27	2.71
514.471	2.78
514.672	2.74
514.873	2.76
515.074	2.8
515.275	2.95
515.476	2.96
515.677	2.93
515.878	2.91
516.079	3
516.28	2.97
516.481	2.92
516.682	2.96
516.882	3.08
517.083	3.04
517.284	3.08
517.485	3.09
517.686	3.11
517.886	3.1
518.087	3.07
518.288	3.02
518.488	3.11
518.689	3.07
518.89	3.1
519.091	3.17
519.291	3.23
519.492	3.18
519.692	3.27
519.893	3.18
520.094	3.24
520.294	3.27
520.495	3.27
520.695	3.28
520.896	3.35
521.096	3.3
521.297	3.29
521.497	3.31
521.698	3.3
521.898	3.3
522.099	3.37
522.299	3.34
522.499	3.4
522.7	3.42
522.9	3.45
523.101	3.35
523.301	3.35
523.501	3.37
523.702	3.4
523.902	3.35
524.102	3.41
524.302	3.45
524.503	3.45
524.703	3.46
524.903	3.55
525.103	3.59
525.304	3.56
525.504	3.49
525.704	3.5
525.904	3.47
526.104	3.52
526.304	3.58
526.504	3.62
526.705	3.6
526.905	3.57
527.105	3.51
527.305	3.53
527.505	3.59
527.705	3.62
527.905	3.67
528.105	3.71
528.305	3.74
528.505	3.75
528.705	3.73
528.905	3.79
529.105	3.83
529.304	3.76
529.504	3.75
529.704	3.82
529.904	3.82
530.104	3.83
530.304	3.86
530.503	3.93
530.703	3.94
530.903	3.99
531.103	3.93
531.303	4
531.502	3.99
531.702	3.94
531.902	3.89
532.101	3.96
532.301	3.97
532.501	3.94
532.7	3.99
532.9	4.04
533.1	4.03
533.299	4.04
533.499	4.05
533.698	4.1
533.898	4.12
534.097	4.13
534.297	4.1
534.496	4.14
534.696	4.17
534.895	4.16
535.095	4.24
535.294	4.3
535.494	4.33
535.693	4.32
535.892	4.35
536.092	4.36
536.291	4.39
536.491	4.45
536.69	4.42
536.889	4.5
537.088	4.57
537.288	4.53
537.487	4.51
537.686	4.59
537.886	4.58
538.085	4.57
538.284	4.56
538.483	4.61
538.682	4.59
538.882	4.6
539.081	4.55
539.28	4.69
539.479	4.73
539.678	4.82
539.877	4.8
540.076	4.89
540.275	4.89
540.474	4.82
540.673	4.85
540.872	4.9
541.071	4.94
541.27	4.98
541.469	5.01
541.668	4.99
541.867	5.11
542.066	5.13
542.265	5.14
542.464	5.27
542.663	5.32
542.862	5.31
543.06	5.31
543.259	5.34
543.458	5.36
543.657	5.41
543.856	5.43
544.054	5.46
544.253	5.48
544.452	5.54
544.651	5.5
544.849	5.6
545.048	5.65
545.247	5.75
545.445	5.73
545.644	5.81
545.843	5.71
546.041	5.76
546.24	5.75
546.438	5.77
546.637	5.84
546.836	5.94
547.034	5.96
547.233	6.03
547.431	6.14
547.63	6.21
547.828	6.29
548.027	6.33
548.225	6.42
548.423	6.47
548.622	6.46
548.82	6.48
549.019	6.55
549.217	6.47
549.415	6.52
549.614	6.61
549.812	6.69
550.01	6.76
550.209	6.87
550.407	6.96
550.605	6.99
550.803	6.97
551.002	7.07
551.2	7.18
551.398	7.17
551.596	7.23
551.794	7.35
551.993	7.34
552.191	7.38
552.389	7.36
552.587	7.38
552.785	7.42
552.983	7.51
553.181	7.53
553.379	7.65
553.577	7.78
553.775	7.85
553.973	7.85
554.171	7.91
554.369	8.05
554.567	8.11
554.765	8.21
554.963	8.27
555.161	8.4
555.359	8.47
555.557	8.48
555.755	8.53
555.952	8.59
556.15	8.64
556.348	8.63
556.546	8.64
556.744	8.65
556.941	8.73
557.139	8.81
557.337	8.92
557.535	9.11
557.732	9.2
557.93	9.21
558.128	9.31
558.325	9.29
558.523	9.24
558.721	9.25
558.918	9.4
559.116	9.41
559.313	9.54
559.511	9.66
559.708	9.78
559.906	9.82
560.104	9.9
560.301	9.95
560.498	10.04
560.696	10.09
560.893	10.13
561.091	10.16
561.288	10.28
561.486	10.26
561.683	10.32
561.88	10.4
562.078	10.48
562.275	10.5
562.473	10.58
562.67	10.59
562.867	10.63
563.064	10.62
563.262	10.66
563.459	10.72
563.656	10.71
563.853	10.67
564.051	10.82
564.248	10.82
564.445	10.89
564.642	11.04
564.839	11.22
565.036	11.24
565.234	11.25
565.431	11.27
565.628	11.34
565.825	11.33
566.022	11.29
566.219	11.42
566.416	11.42
566.613	11.42
566.81	11.46
567.007	11.52
567.204	11.61
567.401	11.73
567.598	11.73
567.795	11.76
567.991	11.81
568.188	11.85
568.385	11.69
568.582	11.78
568.779	11.82
568.976	11.78
569.172	11.75
569.369	11.89
569.566	11.92
569.763	11.8
569.96	11.79
570.156	11.77
570.353	11.83
570.55	11.84
570.746	11.98
570.943	12.08
571.14	12.08
571.336	12.03
571.533	12
571.729	12
571.926	12.04
572.123	12.08
572.319	12.11
572.516	12.11
572.712	12.15
572.909	12.11
573.105	12.07
573.302	12.09
573.498	12.05
573.695	12.03
573.891	11.96
574.087	11.97
574.284	12.01
574.48	12.04
574.677	12.02
574.873	12.1
575.069	12.19
575.266	12.07
575.462	12.07
575.658	12.01
575.854	12.02
576.051	11.92
576.247	11.98
576.443	12.01
576.639	12.12
576.835	11.99
577.032	12.02
577.228	11.97
577.424	11.82
577.62	11.73
577.816	11.71
578.012	11.64
578.208	11.58
578.404	11.64
578.6	11.63
578.796	11.69
578.993	11.7
579.189	11.76
579.384	11.82
579.58	11.83
579.776	11.85
579.972	11.83
580.168	11.81
580.364	11.74
580.56	11.65
580.756	11.6
580.952	11.64
581.148	11.59
581.343	11.56
581.539	11.58
581.735	11.49
581.931	11.37
582.127	11.44
582.322	11.39
582.518	11.37
582.714	11.42
582.909	11.43
583.105	11.32
583.301	11.37
583.496	11.25
583.692	11.21
583.888	11.24
584.083	11.2
584.279	11.18
584.474	11.18
584.67	11.11
584.866	11
585.061	11.07
585.257	10.99
585.452	11.06
585.648	11.16
585.843	11.13
586.039	11.05
586.234	11.03
586.429	10.97
586.625	10.86
586.82	10.89
587.015	10.95
587.211	11.01
587.406	11.07
587.601	11.1
587.797	11.08
587.992	11
588.187	10.87
588.383	10.8
588.578	10.8
588.773	10.84
588.968	10.85
589.163	11.02
589.359	11
589.554	11.06
589.749	11.05
589.944	11.01
590.139	10.9
590.334	11.01
590.529	11.04
590.724	11.06
590.919	11.04
591.114	11.07
591.309	10.96
591.504	10.91
591.699	10.94
591.894	11.06
592.089	11.13
592.284	11.22
592.479	11.29
592.674	11.38
592.869	11.35
593.064	11.29
593.259	11.35
593.454	11.36
593.648	11.33
593.843	11.41
594.038	11.58
594.233	11.6
594.428	11.64
594.622	11.71
594.817	11.76
595.012	11.7
595.206	11.79
595.401	11.84
595.596	11.82
595.79	11.81
595.985	11.85
596.18	11.91
596.374	11.91
596.569	12.05
596.763	12.2
596.958	12.27
597.153	12.19
597.347	12.21
597.542	12.12
597.736	12.12
597.931	12.08
598.125	12.15
598.319	12.26
598.514	12.43
598.708	12.44
598.903	12.55
599.097	12.65
599.291	12.63
599.486	12.63
599.68	12.68
599.874	12.67
600.069	12.64
600.263	12.76
600.457	12.74
600.651	12.72
600.846	12.84
601.04	12.85
601.234	12.77
601.428	12.83
601.622	12.89
601.817	12.87
602.011	12.99
602.205	13.06
602.399	13.11
602.593	13.06
602.787	12.98
602.981	12.91
603.175	12.89
603.369	12.87
603.563	12.87
603.757	12.87
603.951	12.87
604.145	12.81
604.339	12.72
604.533	12.79
604.727	12.81
604.921	12.78
605.115	12.79
605.309	12.76
605.502	12.7
605.696	12.63
605.89	12.53
606.084	12.56
606.278	12.59
606.471	12.55
606.665	12.54
606.859	12.53
607.053	12.49
607.246	12.38
607.44	12.35
607.634	12.32
607.827	12.32
608.021	12.3
608.214	12.34
608.408	12.28
608.602	12.28
608.795	12.31
608.989	12.26
609.182	12.11
609.376	12.05
609.569	12.01
609.763	11.88
609.956	11.79
610.15	11.8
610.343	11.76
610.537	11.68
610.73	11.67
610.923	11.61
611.117	11.55
611.31	11.48
611.504	11.45
611.697	11.43
611.89	11.37
612.083	11.27
612.277	11.21
612.47	11.16
612.663	11.02
612.856	11
613.05	11
613.243	11.02
613.436	10.94
613.629	10.91
613.822	10.88
614.015	10.88
614.209	10.79
614.402	10.74
614.595	10.77
614.788	10.69
614.981	10.61
615.174	10.59
615.367	10.53
615.56	10.45
615.753	10.43
615.946	10.44
616.139	10.32
616.332	10.28
616.525	10.21
616.718	10.23
616.911	10.15
617.103	10.19
617.296	10.21
617.489	10.2
617.682	10.17
617.875	10.04
618.067	9.97
618.26	9.95
618.453	9.9
618.646	9.79
618.838	9.8
619.031	9.7
619.224	9.74
619.417	9.74
619.609	9.76
619.802	9.75
619.994	9.76
620.187	9.61
620.38	9.53
620.572	9.46
620.765	9.41
620.957	9.46
621.15	9.5
621.342	9.57
621.535	9.47
621.727	9.48
621.92	9.41
622.112	9.37
622.305	9.31
622.497	9.42
622.69	9.37
622.882	9.36
623.074	9.31
623.267	9.31
623.459	9.29
623.651	9.34
623.844	9.37
624.036	9.38
624.228	9.4
624.42	9.37
624.613	9.25
624.805	9.26
624.997	9.23
625.189	9.18
625.381	9.18
625.574	9.23
625.766	9.2
625.958	9.16
626.15	9.15
626.342	9.1
626.534	9.05
626.726	9.01
626.918	8.98
627.11	8.97
627.302	8.92
627.494	9
627.686	9.01
627.878	9.06
628.07	8.97
628.262	8.94
628.454	8.84
628.646	8.76
628.838	8.68
629.029	8.76
629.221	8.73
629.413	8.68
629.605	8.67
629.797	8.61
629.989	8.54
630.18	8.55
630.372	8.55
630.564	8.51
630.755	8.5
630.947	8.5
631.139	8.5
631.33	8.47
631.522	8.44
631.714	8.43
631.905	8.4
632.097	8.29
632.289	8.31
632.48	8.32
632.672	8.31
632.863	8.28
633.055	8.34
633.246	8.36
633.438	8.28
633.629	8.3
633.821	8.32
634.012	8.29
634.203	8.27
634.395	8.3
634.586	8.31
634.777	8.28
634.969	8.26
635.16	8.22
635.351	8.27
635.543	8.25
635.734	8.2
635.925	8.22
636.117	8.21
636.308	8.18
636.499	8.13
636.69	8.16
636.881	8.15
637.073	8.04
637.264	8
637.455	7.97
637.646	7.87
637.837	7.83
638.028	7.86
638.219	7.85
638.41	7.87
638.601	7.94
638.792	7.96
638.983	7.98
639.174	7.95
639.365	7.89
639.556	7.91
639.747	7.86
639.938	7.83
640.129	7.88
640.32	7.93
640.511	7.84
640.701	7.84
640.892	7.81
641.083	7.7
641.274	7.6
641.465	7.59
641.655	7.57
641.846	7.58
642.037	7.65
642.228	7.63
642.418	7.55
642.609	7.51
642.8	7.44
642.99	7.34
643.181	7.28
643.372	7.3
643.562	7.29
643.753	7.29
643.943	7.31
644.134	7.38
644.324	7.4
644.515	7.34
644.705	7.3
644.896	7.33
645.086	7.26
645.277	7.23
645.467	7.3
645.658	7.36
645.848	7.28
646.038	7.32
646.229	7.29
646.419	7.28
646.61	7.19
646.8	7.22
646.99	7.26
647.18	7.26
647.371	7.16
647.561	7.19
647.751	7.22
647.941	7.23
648.132	7.25
648.322	7.32
648.512	7.28
648.702	7.23
648.892	7.13
649.082	7.07
649.272	7.04
649.462	7.07
649.653	7.06
649.843	7.09
650.033	7.09
650.223	7
650.413	7.03
650.603	7
650.793	6.96
650.983	6.98
651.172	7.03
651.362	6.93
651.552	6.9
651.742	6.93
651.932	6.82
652.122	6.79
652.312	6.81
652.502	6.79
652.691	6.73
652.881	6.74
653.071	6.73
653.261	6.63
653.45	6.55
653.64	6.48
653.83	6.44
654.019	6.35
654.209	6.3
654.399	6.26
654.588	6.14
654.778	6.04
654.968	5.96
655.157	5.86
655.347	5.76
655.536	5.77
655.726	5.7
655.915	5.67
656.105	5.63
656.294	5.6
656.484	5.54
656.673	5.62
656.863	5.51
657.052	5.49
657.241	5.5
657.431	5.46
657.62	5.31
657.809	5.29
657.999	5.18
658.188	5.12
658.377	5.03
658.567	4.96
658.756	4.83
658.945	4.86
659.134	4.74
659.324	4.69
659.513	4.7
659.702	4.71
659.891	4.63
660.08	4.58
660.269	4.44
660.458	4.27
660.648	4.18
660.837	4.12
661.026	4.02
661.215	4.05
661.404	4.04
661.593	3.9
661.782	3.76
661.971	3.73
662.16	3.6
662.349	3.49
662.538	3.56
662.726	3.57
662.915	3.57
663.104	3.53
663.293	3.52
663.482	3.31
663.671	3.24
663.86	3.17
664.048	3.2
664.237	3.13
664.426	3.29
664.615	3.21
664.803	3.14
664.992	3.03
665.181	3
665.369	2.85
665.558	2.87
665.747	2.83
665.935	2.83
666.124	2.84
666.312	2.78
666.501	2.81
666.69	2.81
666.878	2.89
667.067	2.9
667.255	2.99
667.444	2.81
667.632	2.83
667.82	2.57
668.009	2.51
668.197	2.53
668.386	2.6
668.574	2.59
668.762	2.77
668.951	2.86
669.139	2.85
669.327	2.96
669.516	2.86
669.704	2.86
669.892	2.87
670.08	2.77
670.269	2.74
670.457	2.88
670.645	2.99
670.833	2.94
671.021	2.9
671.21	2.96
671.398	2.84
671.586	2.74
671.774	2.91
671.962	3.23
672.15	3.32
672.338	3.54
672.526	3.63
672.714	3.59
672.902	3.49
673.09	3.4
673.278	3.26
673.466	3.25
673.654	3.19
673.842	3.35
674.03	3.48
674.218	3.7
674.405	3.8
674.593	3.91
674.781	3.78
674.969	3.75
675.157	3.62
675.344	3.65
675.532	3.62
675.72	3.68
675.908	3.71
676.095	3.89
676.283	3.88
676.471	3.83
676.658	3.95
676.846	4.1
677.033	3.97
677.221	4.01
677.409	4.18
677.596	4.25
677.784	4.18
677.971	4.39
678.159	4.54
678.346	4.5
678.534	4.48
678.721	4.45
678.909	4.4
679.096	4.3
679.283	4.36
679.471	4.4
679.658	4.53
679.846	4.66
680.033	4.7
680.22	4.81
680.408	4.8
680.595	4.73
680.782	4.71
680.969	4.75
681.157	4.84
681.344	4.8
681.531	5.07
681.718	5.12
681.905	5.19
682.093	5.07
682.28	5.14
682.467	5.09
682.654	5.15
682.841	5.36
683.028	5.46
683.215	5.71
683.402	5.86
683.589	5.96
683.776	5.91
683.963	6.03
684.15	6.03
684.337	6.11
684.524	6.21
684.711	6.17
684.898	6.22
685.085	6.22
685.271	6.2
685.458	6.33
685.645	6.67
685.832	6.85
686.019	7.14
686.205	7.29
686.392	7.38
686.579	7.55
686.766	7.67
686.952	7.82
687.139	7.98
687.326	8.21
687.512	8.33
687.699	8.51
687.886	8.63
688.072	8.97
688.259	9.21
688.445	9.42
688.632	9.75
688.818	9.91
689.005	10.01
689.191	10.22
689.378	10.58
689.564	10.71
689.751	11.04
689.937	11.54
690.124	11.86
690.31	11.9
690.496	12.32
690.683	12.58
690.869	12.7
691.055	13.07
691.242	13.41
691.428	13.59
691.614	13.87
691.8	14.28
691.987	14.6
692.173	15.06
692.359	15.63
692.545	16.18
692.731	16.74
692.918	16.89
693.104	17.38
693.29	17.63
693.476	18.04
693.662	18.24
693.848	18.96
694.034	19.43
694.22	20.09
694.406	20.62
694.592	21.29
694.778	21.8
694.964	22.11
695.15	22.48
695.336	22.8
695.522	23.11
695.708	23.77
695.894	24.43
696.08	25.03
696.265	25.76
696.451	26.4
696.637	26.66
696.823	27.23
697.009	27.77
697.194	28.14
697.38	28.68
697.566	29.32
697.751	29.74
697.937	30.13
698.123	30.63
698.308	30.81
698.494	31.28
698.68	31.69
698.865	32.04
699.051	32.29
699.236	33.06
699.422	33.47
699.607	34.2
699.793	34.8
699.978	35.42
700.164	36
700.349	36.11
700.535	36.36
700.72	36.62
700.906	37.31
701.091	37.52
701.276	38.2
701.462	38.6
701.647	39.33
701.832	39.49
702.018	40.01
702.203	40.39
702.388	40.98
702.573	41.53
702.759	41.67
702.944	42.05
703.129	42.56
703.314	42.62
703.499	42.67
703.684	43.39
703.87	43.65
704.055	43.68
704.24	44.17
704.425	44.9
704.61	45.28
704.795	45.55
704.98	46.25
705.165	46.75
705.35	47.11
705.535	47.42
705.72	48
705.905	48.1
706.09	48.22
706.275	48.18
706.459	48.72
706.644	48.92
706.829	49.1
707.014	49.81
707.199	50.19
707.384	50.17
707.568	50.47
707.753	50.91
707.938	50.41
708.123	50.59
708.307	50.99
708.492	50.85
708.677	51.01
708.861	51.65
709.046	52.17
709.231	52.32
709.415	53
709.6	53.41
709.784	53.71
709.969	53.16
710.153	53.53
710.338	53.91
710.522	54
710.707	54.16
710.891	54.46
711.076	54.43
711.26	54.44
711.445	54.37
711.629	54.69
711.813	54.93
711.998	54.87
712.182	55.12
712.366	55.51
712.551	54.83
712.735	55.32
712.919	55.63
713.103	55.48
713.288	55.91
713.472	56.65
713.656	56.57
713.84	56.85
714.024	56.98
714.208	56.85
714.393	57.17
714.577	57.26
714.761	56.8
714.945	57.12
715.129	57.28
715.313	57.09
715.497	57.79
715.681	58.41
715.865	58.97
716.049	59.33
716.233	59.91
716.417	59.86
716.601	59.77
716.785	59.26
716.968	59.16
717.152	58.62
717.336	58.71
717.52	59.04
717.704	59.16
717.888	59.55
718.071	59.97
718.255	59.73
718.439	59.82
718.622	60.14
718.806	59.75
718.99	60.03
719.174	60.4
719.357	60.55
719.541	60.91
719.724	61.41
719.908	61.65
720.092	61.83
720.275	61.98
720.459	61.79
720.642	61.62
720.826	62.29
721.009	62.4
721.193	62.73
721.376	62.62
721.559	62.48
721.743	62.3
721.926	62.35
722.11	62.59
722.293	63.3
722.476	63.83
722.66	63.5
722.843	63.43
723.026	63.62
723.21	63.8
723.393	63.62
723.576	63.66
723.759	64.46
723.942	64.09
724.126	63.89
724.309	64.57
724.492	65.04
724.675	64.95
724.858	65.27
725.041	65.17
725.224	65.23
725.407	64.89
725.59	64.78
725.774	64.81
725.957	65.44
726.14	65.14
726.322	65.26
726.505	65.44
726.688	65.77
726.871	65.82
727.054	66.65
727.237	66.87
727.42	67.11
727.603	67.4
727.786	67.82
727.968	67.69
728.151	68.41
728.334	68.72
728.517	68.76
728.699	67.74
728.882	68.04
729.065	67.51
729.248	67.38
729.43	67.35
729.613	67.75
729.796	67.9
729.978	69.16
730.161	69.16
730.343	69.03
730.526	69.43
730.708	69.92
730.891	69.65
731.073	70.45
731.256	71.2
731.438	72.04
731.621	71.61
731.803	71.14
731.986	70.68
732.168	71.46
732.35	71.73
732.533	72.58
732.715	73.78
732.898	74.01
733.08	73.55
733.262	73.37
733.444	72.67
733.627	72.73
733.809	73.17
733.991	73.15
734.173	73.35
734.355	73.86
734.538	73.74
734.72	73.76
734.902	73.74
735.084	73.68
735.266	73.31
735.448	73.62
735.63	74.17
735.812	74.97
735.994	74.78
736.176	76.01
736.358	75.2
736.54	74.95
736.722	74.64
736.904	75.05
737.086	74.3
737.268	75.04
737.45	75.29
737.632	75.83
737.814	75.74
737.995	76.16
738.177	76.76
738.359	77.52
738.541	77.33
738.723	77.99
738.904	78.42
739.086	77.77
739.268	77.06
739.449	77.09
739.631	76.63
739.813	76.66
739.994	76.66
740.176	76.79
740.358	76.7
740.539	76.54
740.721	76.46
740.902	76.95
741.084	76.22
741.265	77.19
741.447	77.36
741.628	77.69
741.81	78.14
741.991	77.96
742.172	76.97
742.354	77.37
742.535	77.78
742.717	78.21
742.898	80.47
743.079	80.46
743.261	80.94
743.442	80.54
743.623	79.9
743.804	79.16
743.986	79.44
744.167	79.76
744.348	80.69
744.529	80.04
744.71	79.62
744.891	80.29
745.073	80.96
745.254	79.75
745.435	80.35
745.616	80.87
745.797	81.28
745.978	80.66
746.159	82.11
746.34	82.08
746.521	81.18
746.702	80.61
746.883	80.54
747.064	79.93
747.245	80.55
747.426	81.89
747.606	82.41
747.787	82.03
747.968	81.98
748.149	82.04
748.33	81.38
748.51	80.76
748.691	80.62
748.872	79.82
749.053	80.45
749.233	81.77
749.414	81.03
749.595	81.62
749.775	82.88
749.956	83.29
750.137	81.87
750.317	82.12
750.498	81.53
750.678	80.18
750.859	79.59
751.04	79.85
751.22	81.89
751.4	81.92
751.581	83.87
751.761	81.79
751.942	82.45
752.122	81.57
752.303	81.99
752.483	80.96
752.663	81.78
752.844	81.36
753.024	81.36
753.204	81.54
753.385	81.93
753.565	82.64
753.745	82.34
753.925	81.91
754.106	81.81
754.286	81.9
754.466	81.51
754.646	81.41
754.826	81.08
755.006	80.79
755.187	80.19
755.367	80.32
755.547	80.7
755.727	81.15
755.907	83.17
756.087	81.86
756.267	82.53
756.447	82.95
756.627	82.86
756.807	81.16
756.987	82.59
757.167	82.74
757.346	81.52
757.526	80.83
757.706	80.81
757.886	81.87
758.066	80.43
758.246	80.95
758.425	82.77
758.605	83.08
758.785	81.5
758.965	82.18
759.144	83.81
759.324	82.34
759.504	81.41
759.683	83.05
759.863	83.18
760.043	82.13
760.222	83.32
760.402	83.48
760.581	82.88
760.761	81.83
760.94	82.42
761.12	81.15
761.299	81.29
761.479	81.09
761.658	82.41
761.838	81.35
762.017	82.2
762.197	82.33
762.376	83.77
762.555	83.26
762.735	83.59
762.914	83.97
763.093	83.19
763.273	80.71
763.452	81.45
763.631	80.35
763.81	80.22
763.99	82.36
764.169	83.19
764.348	83.43
764.527	85.49
764.706	84.1
764.885	82.02
765.064	81.89
765.243	81.78
765.423	80.44
765.602	80.11
765.781	83.4
765.96	83.26
766.139	84.43
766.318	84.01
766.497	85.7
766.676	83.88
766.854	83.93
767.033	82.62
767.212	81.38
767.391	81.58
767.57	80.94
767.749	80.9
767.928	79.67
768.106	82.15
768.285	82
768.464	82.44
768.643	83.15
768.821	81.15
769	78.6
769.179	78.55
769.357	79.68
769.536	79.39
769.715	81.21
769.893	80.94
770.072	80.35
770.25	78.55
770.429	77.51
770.607	78.11
770.786	80.18
770.964	78.62
771.143	79.07
771.321	77.79
771.5	76.37
771.678	76.58
771.857	78.08
772.035	77.01
772.213	78.62
772.392	78.75
772.57	77.53
772.748	76.93
772.927	78.83
773.105	77.09
773.283	76.99
773.461	78.66
773.64	79.09
773.818	78.64
773.996	80.03
774.174	79.21
774.352	78.14
774.531	77.68
774.709	75.97
774.887	76.06
775.065	79.42
775.243	80.83
775.421	81.16
775.599	82.01
775.777	82.81
775.955	82.34
776.133	81.07
776.311	79.69
776.489	81.65
776.667	81.48
776.844	80.74
777.022	81.01
777.2	81.29
777.378	80.71
777.556	81.34
777.734	80.71
777.911	80.5
778.089	81.25
778.267	79.11
778.445	79.87
778.622	80.39
778.8	79.79
778.978	77.32
779.155	77.22
779.333	76.81
779.511	76.02
779.688	75.92
779.866	80.13
780.043	83.03
780.221	81.39
780.398	81.28
780.576	81.01
780.753	79.09
780.931	77.81
781.108	77.28
781.286	77.37
781.463	78.63
781.64	76.9
781.818	76.08
781.995	76.01
782.172	74.78
782.35	74.67
782.527	76.31
782.704	75.91
782.882	77.27
783.059	78.66
783.236	78.65
783.413	77.64
783.59	78.13
783.768	79.65
783.945	77.78
784.122	78.2
784.299	78.45
784.476	78.7
784.653	77.96
784.83	79
785.007	79.47
785.184	79.76
785.361	80.56
785.538	79.07
785.715	80
785.892	78.71
786.069	78.69
786.246	76.28
786.423	74.95
786.6	79.14
786.776	80.65
786.953	79.69
787.13	79.39
787.307	77.36
787.484	73.95
787.66	71.85
787.837	74.66
788.014	76.41
788.191	80.83
788.367	80.69
788.544	82.91
788.721	81.63
788.897	81.64
789.074	78.68
789.25	77.29
789.427	77.75
789.603	78.05
789.78	78.19
789.956	80.97
790.133	82.52
790.309	80.63
790.486	74.49
790.662	76.11
790.839	76.65
791.015	74.95
791.192	72.39
791.368	76.19
791.544	75.11
791.721	73.22
791.897	70.87
792.073	73.93
792.249	75.34
792.426	71.84
792.602	67.68
792.778	70.98
792.954	72.04
793.13	76.4
793.307	80.57
793.483	84.61
793.659	83.17
793.835	80.99
794.011	73.62
794.187	71.11
794.363	76.4
794.539	78.31
794.715	77.42
794.891	77.69
795.067	79.16
795.243	71.51
795.419	67.95
795.595	68.28
795.771	73.79
795.947	71.41
796.122	76.76
796.298	74.8
796.474	74.48
796.65	71.49
796.826	73.62
797.001	70.42
797.177	72.6
797.353	71.82
797.529	73.41
797.704	75.19
797.88	82.56
798.056	87.19
798.231	89.05
798.407	86.17
798.582	84.95
798.758	76.87
798.934	75.45
799.109	76.22
799.285	77.51
799.46	74.23
799.636	76.93
799.811	74.14
799.986	71.97
800.162	70.62
800.337	67.45
800.513	70.98
800.688	73.33
800.863	72.37
801.039	75.54
801.214	84.09
801.389	80.99
801.565	78.98
801.74	77.99
801.915	72.95
802.09	68.01
802.265	61.36
802.441	58.93
802.616	61.87
802.791	64.39
802.966	68.1
803.141	77.91
803.316	89.59
803.491	90.08
803.666	88.76
803.841	85.7
804.016	79.48
804.191	73.81
804.366	75.77
804.541	80.73
804.716	80.01
804.891	81.53
805.066	78.69
805.241	81.28
805.416	76.82
805.591	80.75
805.765	81.97
805.94	86.48
806.115	83.28
806.29	87.1
806.464	84.88
806.639	81.5
806.814	78.85
806.989	81.92
807.163	79.04
807.338	80.46
807.512	82.33
807.687	81.6
807.862	74.33
808.036	69.01
808.211	68.39
808.385	60.33
808.56	52.48
808.734	58.22
808.909	63.13
809.083	67.87
809.258	65.44
809.432	71.12
809.606	70.24
809.781	75.92
809.955	68.77
810.13	70.55
810.304	72.59
810.478	76.99
810.652	71.86
810.827	80.21
811.001	83.33
811.175	81.58
811.349	77.49
811.524	74.17
811.698	67.97
811.872	68.71
812.046	72.04
812.22	66.86
812.394	79.23
812.568	79.41
812.742	80.1
812.916	79.7
813.09	84.07
813.264	77.17
813.438	86.82
813.612	82.61
813.786	88.62
813.96	93.25
814.134	91.68
814.308	79.61
814.482	81.17
814.656	79.58
814.83	70.89
815.003	69
815.177	78.14
815.351	82.74
815.525	82.18
815.698	92.17
815.872	100.04
816.046	91.87
816.219	86.71
816.393	73.97
816.567	73.77
816.74	72.44
816.914	62.92
817.088	64.73
817.261	70.79
817.435	67.76
817.608	69.53
817.782	83.83
817.955	83.68
818.129	82.85
818.302	83.52
818.475	72.76
818.649	60.52
818.822	61.05
818.996	49.78
819.169	51.68
819.342	54.95
819.516	62.46
819.689	52.79
819.862	80.27
820.035	81.59
820.209	77.79
820.382	79.78
820.555	80.73
820.728	56.09
820.901	60.58
821.075	66.48
821.248	68.06
821.421	81.08
821.594	98.22
821.767	91.11
821.94	74.24
822.113	67.27
822.286	63
822.459	51.29
822.632	53.62
822.805	58.96
822.978	66.51
823.151	64.95
823.324	80.32
823.496	83.27
823.669	81.82
823.842	71.19
824.015	80.86
824.188	76.7
824.361	75.29
824.533	84.06
824.706	85.78
824.879	74.86
825.051	55.05
825.224	65.04
825.397	62.77
825.569	59.99
825.742	59.73
825.915	72.22
826.087	61.24
826.26	61.93
826.432	68.31
826.605	64.88
826.777	62
826.95	67.44
827.122	61.17
827.295	62.01
827.467	72.3
827.64	77.93
827.812	83.19
827.984	73.39
828.157	71.74
828.329	72.19
828.501	73.41
828.674	69.96
828.846	90.72
829.018	85.41
829.19	77.42
829.363	76.46
829.535	71.32
829.707	63.39
829.879	71.32
830.051	71.97
830.223	71.76
830.395	77.83
830.568	85.78
830.74	77.83
830.912	63.05
831.084	74.9
831.256	72.4
831.428	66.95
831.6	80.4
831.772	108.03
831.943	98.59
832.115	95.88
832.287	98.94
832.459	90.17
832.631	67.96
832.803	56.02
832.975	51.87
833.146	65
833.318	74.03
833.49	69.93
833.662	79.83
833.833	78.83
834.005	69.31
834.177	69.97
834.348	84.53
834.52	80.58
834.692	88.48
834.863	101.64
835.035	85.73
835.206	77.28
835.378	82.79
835.549	81.42
835.721	72.48
835.892	80.66
836.064	72.5
836.235	82.05
836.407	87.82
836.578	94.03
836.749	105.72
836.921	118.72
837.092	111.56
837.264	110.89
837.435	99.28
837.606	74.19
837.777	59.03
837.949	23.25
838.12	1.16
838.291	17.63
838.462	26.69
838.633	47.4
838.805	70.76
838.976	85.35
839.147	65.85
839.318	77.59
839.489	85.05
839.66	81.22
839.831	40.95
840.002	50.73
840.173	59.96
840.344	58.74
840.515	42.29
840.686	50.31
840.857	57.23
841.028	63.04
841.199	63.22
841.369	98.48
841.54	112.76
841.711	140.55
841.882	120.64
842.053	101.39
842.223	79.97
842.394	72.2
842.565	63.94
842.736	58.7
842.906	57.51
843.077	53.51
843.248	43.49
843.418	49.92
843.589	62.07
843.759	23.29
843.93	34.3
844.101	29.29
844.271	16.39
844.442	2.14
844.612	2.37
844.783	5.28
844.953	41.88
845.123	31.69
845.294	28.07
845.464	47.85
845.635	65.45
845.805	58.51
845.975	85.93
846.146	93.87
846.316	92.58
846.486	77.73
846.656	62.92
846.827	66.64
846.997	78.72
847.167	80.32
847.337	94.01
847.507	98.52
847.677	85.69
847.848	78.92
848.018	69.5
848.188	62.51
848.358	74.78
848.528	75.37
848.698	80.87
848.868	98.47
849.038	83.05
849.208	81.94
849.378	65.18
849.548	60.98
849.718	68.48
849.887	57.8
850.057	59.92
850.227	92.86
850.397	98.75
850.567	77.61
850.737	73.54
850.906	61.45
851.076	70.49
851.246	62.27
851.415	64.96
851.585	57.1
851.755	99.4
851.924	101.45
852.094	74.62
852.264	88.78
852.433	123.3
852.603	100.08
852.772	83.85
852.942	108.65
853.111	85.26
853.281	64.74
853.45	42.04
853.62	52.12
853.789	49.48
853.959	43.47
854.128	65.93
854.297	81.35
854.467	69.53
854.636	50.54
854.805	40.34
854.975	-21.01
855.144	39.69
855.313	-3.48
855.482	52.18
855.652	64.71
855.821	76.45
855.99	55.3
856.159	63.67
856.328	59.53
856.497	54.9
856.667	70.37
856.836	41.32
857.005	68.61
857.174	62.48
857.343	64.02
857.512	40.78
857.681	65.16
857.85	55.07
858.019	74.18
858.188	124.12
858.356	180.28
858.525	253.59
858.694	556.07
858.863	320.19
859.032	251.58
859.201	185.94
859.369	115.54
859.538	67.45
859.707	65.94
859.876	20.04
860.044	46.33
860.213	41.53
860.382	49.81
860.55	36.72
860.719	40.52
860.888	57.84
861.056	67.76
861.225	59.14
861.393	54.13
861.562	55.37
861.73	53.24
861.899	74.01
862.067	81.72
862.236	92.9
862.404	99.58
862.572	93.01
862.741	83.6
862.909	64.5
863.078	102.08
863.246	111.45
863.414	74.77
863.582	37.66
863.751	46.63
863.919	35.72
864.087	3.15
864.255	11.21
864.424	40.41
864.592	27.46
864.76	36.4
864.928	52.59
865.096	55.03
865.264	69.67
865.432	51.05
865.6	45.32
865.768	69.4
865.936	82.04
866.104	53.78
866.272	75.61
866.44	74.48
866.608	79.02
866.776	88.46
866.944	106.55
867.112	94.18
867.28	112.81
867.448	83.24
867.615	46.47
867.783	34.5
867.951	29.57
868.119	-0.67
868.286	18.39
868.454	55.88
868.622	65.68
868.789	60.06
868.957	8.7
869.125	53.35
869.292	51.57
869.46	51.56
869.627	52.95
869.795	71.89
869.963	74.94
870.13	76.42
870.298	68.12
870.465	69.33
870.632	83.06
870.8	76.75
870.967	87.07
871.135	75.7
871.302	78.48
871.469	58.35
871.637	32.65
871.804	47.68
871.971	75.24
872.139	72.3
872.306	73.33
872.473	86.83
872.64	90
872.807	83.98
872.975	81.25
873.142	97.48
873.309	91.71
873.476	-18.81
873.643	-80.45
873.81	-102.39
873.977	-98.33
874.144	-28.91
874.311	66.73
874.478	97.45
874.645	129.68
874.812	99.26
874.979	68.09
875.146	113.18
875.313	98.16
875.48	56.98
875.647	95.61
875.813	117.44
875.98	86.17
876.147	90.5
876.314	96.87
876.481	118.29
876.647	204.63
876.814	163.9
876.981	56.73
877.147	27.68
877.314	86.67
877.481	22.63
877.647	11.8
877.814	64.79
877.98	76.88
878.147	43.18
878.314	62.32
878.48	82.64
878.647	56.88
878.813	6.07
878.979	-52.28
879.146	-19.74
879.312	-7.9
879.479	2.48
879.645	27.08
879.811	74
879.978	79.31
880.144	46.93
880.31	-21.9
880.477	57.74
880.643	57.61
880.809	14.07
880.975	-83.52
881.142	84.81
881.308	-16.77
881.474	76.46
881.64	79.72
881.806	93.14
881.972	83.24
882.138	41.82
882.304	-67.86
882.47	53.99
882.636	-101.69
882.802	22.81
882.968	-20.5
883.134	12.79
883.3	-30.66
883.466	-2.91
883.632	-22.65
883.798	38.77
883.964	53.37
884.129	65.98
884.295	80.01
884.461	94.35
884.627	79.97
884.793	73.24
884.958	56.4
885.124	56.86
885.29	54.72
885.455	62.66
885.621	106.24
885.787	229.34
885.952	508.58
886.118	375.42
886.283	290.92
886.449	299.42
886.614	209.3
886.78	200.56
886.945	489.43
887.111	863.56
887.276	-5351.85
887.442	-1353.33
887.607	381.42
887.773	167.36
887.938	116.94
888.103	72.33
888.269	89.16
888.434	83.52
888.599	47.41
888.764	40.41
888.93	43.62
889.095	-15.58
889.26	73.2
889.425	-738.1
889.59	-406.67
889.756	316.08
889.921	3243.59
890.086	135.68
890.251	53.29
890.416	75.78
890.581	-10.1
890.746	-9.86
890.911	48.12
891.076	67.85
891.241	40.91
891.406	33.72
891.571	15.55
891.736	12.41
891.901	13.58
892.065	9.45
892.23	-47.53
892.395	79.51
892.56	55.07
892.725	-14.5
892.889	-22.31
893.054	26.95
893.219	38.56
893.384	70.47
893.548	181.6
893.713	212.64
893.878	335.66
