Data from Ofav_PP_Phys_2Z21_Reflection_2.txt Node
Date: Tue Aug 03 18:12:24 EDT 2021
User: Adam
Spectrometer: FLMT01687
Trigger mode: 0
Integration Time (sec): 8.750000E-1
Scans to average: 2
Electric dark correction enabled: true
Nonlinearity correction enabled: false
Boxcar width: 2
XAxis mode: Wavelengths
Number of Pixels in Spectrum: 3648
>>>>>Begin Spectral Data<<<<<
179.494	138.59
179.716	193.45
179.937	221.01
180.158	320.6
180.38	942.98
180.601	136.35
180.823	77.59
181.044	105.24
181.265	192.32
181.486	-324.13
181.708	33.08
181.929	-18.92
182.15	66.46
182.372	375.74
182.593	-183.33
182.814	-5.31
183.035	542.2
183.257	1087.25
183.478	24.61
183.699	-268.47
183.92	-109.87
184.141	-158.14
184.363	-96.93
184.584	-244.68
184.805	-50.41
185.026	-73.66
185.247	-54.19
185.468	-31.62
185.689	-19.25
185.91	-12.87
186.132	-21.38
186.353	20.36
186.574	-10.81
186.795	29
187.016	8.05
187.237	19.32
187.458	10.74
187.679	13.51
187.9	-2.16
188.121	8.23
188.342	-1.93
188.563	-6.1
188.784	6.62
189.005	-7.82
189.226	-37.28
189.447	-13.32
189.667	-43.74
189.888	-49.22
190.109	-12.79
190.33	-21.92
190.551	-16.72
190.772	22.1
190.993	-1.45
191.214	-6.66
191.434	13.16
191.655	-12.67
191.876	-8.36
192.097	16.67
192.318	27.08
192.538	30.17
192.759	37.7
192.98	27.29
193.201	-15
193.421	-18.47
193.642	-33.31
193.863	-13.21
194.083	4.69
194.304	15.38
194.525	-2.79
194.745	7.83
194.966	13.78
195.187	13.31
195.407	43.95
195.628	45.75
195.848	22.07
196.069	24.07
196.29	6.65
196.51	-38.25
196.731	-36.94
196.951	-8.24
197.172	0.73
197.392	6.53
197.613	26.92
197.833	55.7
198.054	88.94
198.274	37.01
198.495	60.49
198.715	52.24
198.936	48.31
199.156	37.03
199.377	51.3
199.597	39.36
199.817	57.37
200.038	40.44
200.258	43.14
200.479	-32.87
200.699	-39.91
200.919	-124.07
201.14	-23.85
201.36	-19.12
201.58	11.36
201.801	-15.96
202.021	8.41
202.241	2.25
202.461	12.76
202.682	36.72
202.902	77.22
203.122	87.22
203.342	101.02
203.563	60.27
203.783	27.16
204.003	29.02
204.223	14.49
204.443	-15.33
204.663	4.43
204.884	-0.58
205.104	-4.24
205.324	3.08
205.544	-3.32
205.764	-27.42
205.984	-71.7
206.204	-73.22
206.424	-168.57
206.644	-44.65
206.864	-40.01
207.084	-25.37
207.304	-45.7
207.525	9.12
207.745	5.94
207.964	-19.25
208.184	21.8
208.404	29.32
208.624	15.67
208.844	7
209.064	33.89
209.284	30.06
209.504	18.44
209.724	15.12
209.944	13.93
210.164	-13.41
210.384	-5.83
210.604	-4.68
210.823	-15.77
211.043	20.87
211.263	34.58
211.483	22.77
211.703	40
211.922	31.18
212.142	25.96
212.362	8.04
212.582	13.85
212.801	11.42
213.021	34.79
213.241	10.07
213.461	39.91
213.68	51.2
213.9	40.3
214.12	8.97
214.339	41.64
214.559	36.74
214.779	22.91
214.998	14.37
215.218	42.08
215.438	37.72
215.657	34.11
215.877	35.16
216.096	39.84
216.316	15.18
216.535	-38.67
216.755	-66.94
216.974	-40.75
217.194	-51.78
217.413	-2.4
217.633	31.08
217.852	41.88
218.072	44.54
218.291	40.91
218.511	38.33
218.73	42.73
218.95	40.76
219.169	37.5
219.389	31.69
219.608	20.06
219.827	-4.58
220.047	-19.92
220.266	-20.03
220.485	-11.07
220.705	-3.89
220.924	-5.87
221.143	-4.15
221.363	12.79
221.582	-15.52
221.801	-42.27
222.021	-4.37
222.24	-11.54
222.459	-99.97
222.678	-50.47
222.897	-20.21
223.117	-61
223.336	-140.17
223.555	46.96
223.774	45.52
223.993	-13.19
224.213	-54.86
224.432	-29.74
224.651	-17.63
224.87	0.98
225.089	-10.2
225.308	-10.64
225.527	-18.95
225.746	-72.44
225.965	-67.07
226.184	-105.68
226.404	-25.3
226.623	-15.46
226.842	-1.83
227.061	-53.94
227.28	-22.57
227.499	-14.79
227.718	-5.46
227.936	-6.54
228.155	25.52
228.374	28.04
228.593	28.68
228.812	15.08
229.031	33.35
229.25	50.2
229.469	19.65
229.688	-67.05
229.907	-98.08
230.125	-87.49
230.344	-88.2
230.563	-56.66
230.782	-0.41
231.001	21
231.22	15.45
231.438	-4.92
231.657	-35.07
231.876	-39.42
232.095	-33.38
232.313	-40.6
232.532	-51.69
232.751	9.78
232.969	-4.93
233.188	1.64
233.407	-4.41
233.625	37.8
233.844	33.85
234.063	34.88
234.281	16.62
234.5	29.24
234.719	-5.44
234.937	-26.31
235.156	-33.08
235.374	-36.49
235.593	-43.78
235.811	-33.24
236.03	-5.03
236.249	22.71
236.467	40.24
236.686	40.1
236.904	33.93
237.123	20.1
237.341	11.38
237.559	13.87
237.778	-0.64
237.996	7.15
238.215	4.72
238.433	-5.56
238.652	-16.73
238.87	-1.16
239.088	-9.24
239.307	-10.37
239.525	2.56
239.743	16.91
239.962	21.05
240.18	37.48
240.398	70.13
240.617	64.38
240.835	40.18
241.053	18.63
241.271	-68.37
241.49	-90.17
241.708	-60.03
241.926	-59.33
242.144	-38.35
242.363	4.26
242.581	6.25
242.799	-4.14
243.017	6.03
243.235	39.74
243.453	54.41
243.672	70.77
243.89	83.66
244.108	71.31
244.326	30.17
244.544	19.94
244.762	2.36
244.98	-23.47
245.198	-4.48
245.416	17.24
245.634	5.94
245.852	0.13
246.07	3.11
246.288	-37.7
246.506	-1.5
246.724	0.36
246.942	16.55
247.16	15.54
247.378	18.13
247.596	9.78
247.814	5.16
248.032	-5.08
248.25	-1.08
248.468	-4.86
248.685	-11.7
248.903	-33.31
249.121	-31.66
249.339	-35.41
249.557	-27.14
249.775	-43.26
249.992	4.27
250.21	6.03
250.428	20.56
250.646	23.42
250.863	34.11
251.081	1.37
251.299	-20.08
251.517	-8.45
251.734	-5.82
251.952	-3.22
252.17	20.56
252.387	15.95
252.605	-15.8
252.823	11.21
253.04	-36.67
253.258	4.12
253.475	19.14
253.693	7.63
253.911	13.65
254.128	6.28
254.346	6.87
254.563	2.08
254.781	28.99
254.998	18.39
255.216	29.93
255.433	25.72
255.651	41.16
255.868	17.18
256.086	5.36
256.303	4.64
256.521	7.98
256.738	-16.02
256.956	15.27
257.173	0.79
257.39	19.66
257.608	-6.41
257.825	-7.37
258.043	-74.92
258.26	-21.84
258.477	-30.17
258.695	-14.47
258.912	-26.13
259.129	2.69
259.346	13.39
259.564	11
259.781	6.13
259.998	29.12
260.216	19.79
260.433	-10.03
260.65	-15.67
260.867	-7.25
261.084	-20.2
261.302	-45.14
261.519	-28.05
261.736	1.71
261.953	6.5
262.17	-10.46
262.387	12.92
262.604	18.94
262.822	10.19
263.039	19.07
263.256	29.12
263.473	22.36
263.69	37.46
263.907	36.94
264.124	3.34
264.341	9.84
264.558	-32.09
264.775	-40.99
264.992	-36.82
265.209	-45.48
265.426	-71.04
265.643	-18.77
265.86	-10.25
266.077	-5.84
266.294	2.09
266.51	20.87
266.727	27
266.944	17.17
267.161	20.79
267.378	19.19
267.595	14.04
267.812	8.64
268.028	10.98
268.245	12.72
268.462	33.16
268.679	40.65
268.896	41.71
269.112	51.8
269.329	32.09
269.546	-31.92
269.763	-17.72
269.979	-5.12
270.196	-6.23
270.413	8.02
270.629	31.27
270.846	40.03
271.063	22.13
271.279	29.74
271.496	41.59
271.712	28.65
271.929	12.92
272.146	40.15
272.362	23.24
272.579	0.1
272.795	-3.89
273.012	1.65
273.228	-19.6
273.445	-17.99
273.661	4.03
273.878	15.21
274.094	15.78
274.311	24.21
274.527	4.13
274.744	9.5
274.96	-11.97
275.177	-43.59
275.393	-33.5
275.609	-6.17
275.826	-14.21
276.042	-3.55
276.259	18
276.475	11.95
276.691	-2.51
276.908	0.92
277.124	6.2
277.34	-5.81
277.557	-14.32
277.773	4.17
277.989	-2.86
278.205	-9.49
278.422	-0.45
278.638	14.77
278.854	8.06
279.07	3.23
279.286	21.49
279.503	23.44
279.719	24.84
279.935	25.11
280.151	29.51
280.367	3.5
280.583	-15.95
280.799	-0.56
281.016	-14.59
281.232	-23.9
281.448	-4.55
281.664	14.95
281.88	5.33
282.096	43.23
282.312	44.73
282.528	29
282.744	13.46
282.96	7.95
283.176	-9.8
283.392	5.7
283.608	19.52
283.824	22.74
284.04	23.41
284.256	17.29
284.471	17.13
284.687	16.03
284.903	6.15
285.119	-18.8
285.335	-22.42
285.551	-38.36
285.767	-26.41
285.982	-22.06
286.198	-7.68
286.414	-3.3
286.63	0.93
286.846	-27.23
287.061	-25.37
287.277	-34.35
287.493	-41.94
287.709	-76.19
287.924	-22.33
288.14	-30.74
288.356	-61.25
288.571	-48.16
288.787	-24.12
289.003	-53.19
289.218	-71.2
289.434	-7.38
289.65	-14.51
289.865	-16.84
290.081	-55.61
290.296	-25.01
290.512	-25.01
290.727	-24.76
290.943	0.95
291.159	30.78
291.374	31.66
291.59	36.49
291.805	47.88
292.021	57.78
292.236	49.43
292.451	42.7
292.667	47.55
292.882	31.89
293.098	7.08
293.313	19.77
293.529	40.49
293.744	20.78
293.959	33.96
294.175	36.96
294.39	34.95
294.605	18.76
294.821	30.22
295.036	37.72
295.251	34.44
295.467	27.74
295.682	37.59
295.897	17.17
296.112	3.41
296.328	13.74
296.543	18.2
296.758	11.99
296.973	17.54
297.188	12.83
297.404	20.6
297.619	21.01
297.834	10.64
298.049	-1.7
298.264	7.04
298.479	-24.48
298.694	-26.93
298.909	-26.61
299.125	-9.66
299.34	-25.29
299.555	-6.84
299.77	-43.32
299.985	0.74
300.2	8.66
300.415	7.78
300.63	-7.05
300.845	34.62
301.06	14.89
301.275	-23.21
301.49	-0.5
301.704	4.5
301.919	1.06
302.134	-6.04
302.349	19.49
302.564	39.6
302.779	24.69
302.994	20.94
303.209	31.86
303.423	10.14
303.638	-8.61
303.853	22.11
304.068	35
304.283	33.35
304.497	48.4
304.712	55.83
304.927	45.99
305.142	54.62
305.356	36.6
305.571	24.69
305.786	16.12
306	6.33
306.215	-8.57
306.43	16.12
306.644	25.99
306.859	19.49
307.074	28.09
307.288	24.49
307.503	26.14
307.717	16.88
307.932	17.89
308.147	19.16
308.361	4.41
308.576	5.77
308.79	20.47
309.005	20.39
309.219	15.86
309.434	12.59
309.648	14.78
309.863	-17.48
310.077	-28.77
310.292	-28.57
310.506	-14.81
310.72	-2.94
310.935	-2.29
311.149	10.87
311.364	10.64
311.578	1.41
311.792	15.76
312.007	9.72
312.221	11.24
312.435	-15.66
312.649	8.5
312.864	0.29
313.078	11.25
313.292	-1.17
313.507	12.15
313.721	-5.02
313.935	-22.82
314.149	-41.47
314.363	-37.22
314.578	-23.43
314.792	-7.25
315.006	-7.91
315.22	-5.41
315.434	-16.34
315.648	-44.86
315.862	-22.76
316.077	-2.34
316.291	9.33
316.505	1.52
316.719	2.73
316.933	13.09
317.147	-19.6
317.361	-7.74
317.575	29.8
317.789	39.87
318.003	41.35
318.217	44.96
318.431	28.85
318.645	4.87
318.859	1.26
319.073	-7.83
319.287	22.43
319.5	28.68
319.714	42.83
319.928	49.1
320.142	54.1
320.356	29.56
320.57	23.12
320.784	26.98
320.997	5.14
321.211	22.18
321.425	33.03
321.639	23.33
321.853	-18.12
322.066	-12.24
322.28	-39.67
322.494	-65.56
322.707	-48.43
322.921	-21.6
323.135	-8.34
323.349	9.74
323.562	24.26
323.776	35.29
323.989	41.7
324.203	37.89
324.417	31.72
324.63	32.75
324.844	31.85
325.057	31.03
325.271	17.86
325.485	25.4
325.698	14.08
325.912	-5.45
326.125	-11.87
326.339	10.07
326.552	-17.53
326.766	6.1
326.979	14.02
327.193	14.96
327.406	-4.29
327.619	20.73
327.833	-17.87
328.046	-10.14
328.26	-19.63
328.473	-7.97
328.686	-4.09
328.9	-3.41
329.113	0.82
329.326	20.25
329.54	25.11
329.753	27.27
329.966	45.72
330.179	36.98
330.393	37.45
330.606	44.39
330.819	38.68
331.032	27.96
331.246	21.89
331.459	-10.2
331.672	-32.9
331.885	-38.29
332.098	-28.42
332.311	13.03
332.525	39.01
332.738	45.23
332.951	39.19
333.164	26.73
333.377	22.3
333.59	1.61
333.803	-20.44
334.016	-25.89
334.229	-19.63
334.442	-71.6
334.655	-53.69
334.868	-57.41
335.081	-55.17
335.294	-26.94
335.507	5.5
335.72	8.03
335.933	18.1
336.146	23.66
336.359	16.8
336.572	13.12
336.785	23.81
336.997	29.94
337.21	23.27
337.423	29.99
337.636	48.04
337.849	18.53
338.062	17.33
338.274	5.16
338.487	22.32
338.7	9.29
338.913	21.59
339.125	16.91
339.338	25.19
339.551	4.98
339.763	-2.79
339.976	6.58
340.189	1.93
340.402	-9.55
340.614	-13.28
340.827	0.09
341.039	-1.55
341.252	5.92
341.465	16.57
341.677	16.19
341.89	20.7
342.102	14.39
342.315	16.64
342.527	1.56
342.74	13.18
342.952	1.34
343.165	7.79
343.377	-42.21
343.59	-9.49
343.802	-20.19
344.015	-37.49
344.227	-20.08
344.44	15.07
344.652	12.2
344.864	3.97
345.077	-4.37
345.289	-37.36
345.502	-44.06
345.714	-80.3
345.926	-38.48
346.139	-7.02
346.351	1.68
346.563	-6.12
346.775	35.71
346.988	29.29
347.2	25.31
347.412	22.61
347.624	38.68
347.837	25.82
348.049	18.43
348.261	-4.67
348.473	-6.66
348.685	-11.09
348.897	-6.37
349.11	-8.88
349.322	-0.41
349.534	-11.17
349.746	-13.53
349.958	-15.85
350.17	-7.49
350.382	-3.09
350.594	11.68
350.806	20.99
351.018	31.64
351.23	22.06
351.442	23.73
351.654	5.23
351.866	4.75
352.078	-1.04
352.29	4.08
352.502	-1.17
352.714	8.59
352.926	13.39
353.138	2.76
353.35	9.09
353.561	24.65
353.773	30.53
353.985	28.28
354.197	33.63
354.409	39.32
354.621	37.73
354.832	44.6
355.044	44.85
355.256	39.01
355.468	24.8
355.679	8.36
355.891	9.44
356.103	18.04
356.314	23.57
356.526	30.72
356.738	37.32
356.949	25.51
357.161	0.78
357.373	-6.04
357.584	-7.65
357.796	-8.39
358.008	-14.05
358.219	1.69
358.431	5.21
358.642	-7.33
358.854	-20.34
359.065	-10.57
359.277	6.79
359.488	-2.74
359.7	17.23
359.911	18.33
360.123	13.99
360.334	-2.55
360.546	3.16
360.757	-4.32
360.969	-15.72
361.18	6.33
361.391	8.47
361.603	7.49
361.814	-6.71
362.025	22.56
362.237	23.13
362.448	30.18
362.659	25.92
362.871	29.19
363.082	7.98
363.293	-9.04
363.504	-10.8
363.716	7.31
363.927	8.7
364.138	19.57
364.349	31.9
364.56	29.73
364.772	29.37
364.983	17.97
365.194	6.1
365.405	-7.33
365.616	2.78
365.827	4.23
366.038	18.84
366.25	23.83
366.461	31.52
366.672	5.65
366.883	-8.99
367.094	-27.08
367.305	-9.26
367.516	-12.96
367.727	-0.75
367.938	12.62
368.149	22.49
368.36	9.87
368.571	8.03
368.781	19.03
368.992	4.89
369.203	13.01
369.414	15.35
369.625	13.33
369.836	9.69
370.047	12.92
370.258	9.35
370.468	19.86
370.679	39.67
370.89	37.89
371.101	36.13
371.312	35.1
371.522	28.05
371.733	29.6
371.944	37.41
372.155	36.97
372.365	34.39
372.576	42.33
372.787	37.7
372.997	27.33
373.208	31.79
373.419	24.62
373.629	19.43
373.84	11.22
374.05	3.88
374.261	0.72
374.472	16.22
374.682	3.17
374.893	4.59
375.103	-1.32
375.314	3.55
375.524	-1.86
375.735	10.26
375.945	1.68
376.156	14.61
376.366	6.89
376.577	10.25
376.787	16.84
376.997	22.39
377.208	18
377.418	21.73
377.629	17.26
377.839	10.74
378.049	12.52
378.26	9.09
378.47	3.76
378.68	-2.46
378.89	6.33
379.101	8.59
379.311	11.65
379.521	23.13
379.732	31.72
379.942	27.12
380.152	33.01
380.362	29.98
380.572	32.44
380.783	31.95
380.993	28.67
381.203	25.21
381.413	16.64
381.623	8.98
381.833	8.07
382.043	16.37
382.253	16.79
382.463	26.77
382.674	19.43
382.884	19.25
383.094	10.56
383.304	8.44
383.514	2.61
383.724	6.12
383.934	9.29
384.144	11.98
384.353	7.58
384.563	5.02
384.773	6.92
384.983	-0.1
385.193	0.43
385.403	3.75
385.613	5.82
385.823	6.02
386.033	7.54
386.242	9.19
386.452	10.39
386.662	12.94
386.872	9.6
387.082	6.4
387.291	5.52
387.501	1.1
387.711	-0.49
387.921	2.33
388.13	3.89
388.34	0.77
388.55	7.67
388.759	9.5
388.969	9.17
389.179	10.33
389.388	10.6
389.598	10.07
389.807	8.72
390.017	9.82
390.227	9.73
390.436	11.04
390.646	7.6
390.855	6.71
391.065	4.71
391.274	4.72
391.484	6.14
391.693	7.03
391.903	6.96
392.112	9.02
392.322	7.79
392.531	6.13
392.74	5.03
392.95	6.1
393.159	3.45
393.369	4
393.578	3.72
393.787	5.07
393.997	4.91
394.206	6.47
394.415	6.38
394.625	6.91
394.834	6.83
395.043	7.32
395.252	7.07
395.462	7.61
395.671	5.9
395.88	5.71
396.089	5.19
396.298	5.15
396.508	5.12
396.717	6.53
396.926	6.4
397.135	5.92
397.344	5.98
397.553	5.26
397.762	4.27
397.971	4.31
398.181	4.77
398.39	5
398.599	5.07
398.808	5.87
399.017	5.98
399.226	5.29
399.435	4.96
399.644	5.2
399.853	5.06
400.062	5.06
400.27	5.55
400.479	5.7
400.688	5.67
400.897	5.88
401.106	5.81
401.315	5.91
401.524	6.11
401.733	5.81
401.941	5.39
402.15	5.47
402.359	5.44
402.568	5.02
402.777	4.99
402.985	5.18
403.194	5.06
403.403	4.83
403.612	5.07
403.82	5.31
404.029	5.37
404.238	5.57
404.446	5.56
404.655	5.37
404.864	5.26
405.072	5.24
405.281	4.96
405.489	5.05
405.698	5.19
405.906	5.2
406.115	5.2
406.324	5.37
406.532	5.42
406.741	5.3
406.949	5.34
407.158	5.38
407.366	5.27
407.574	5.14
407.783	5.14
407.991	5.05
408.2	4.76
408.408	4.69
408.617	4.73
408.825	4.86
409.033	4.9
409.242	5.06
409.45	4.95
409.658	4.97
409.867	4.77
410.075	4.82
410.283	4.79
410.491	4.94
410.7	4.9
410.908	4.92
411.116	4.78
411.324	4.72
411.533	4.57
411.741	4.5
411.949	4.42
412.157	4.48
412.365	4.49
412.573	4.53
412.781	4.51
412.99	4.69
413.198	4.66
413.406	4.67
413.614	4.6
413.822	4.71
414.03	4.67
414.238	4.66
414.446	4.61
414.654	4.82
414.862	4.77
415.07	4.59
415.278	4.45
415.486	4.47
415.694	4.46
415.902	4.36
416.109	4.49
416.317	4.46
416.525	4.5
416.733	4.36
416.941	4.43
417.149	4.42
417.357	4.37
417.564	4.19
417.772	4.17
417.98	4.23
418.188	4.16
418.395	4.26
418.603	4.47
418.811	4.57
419.019	4.41
419.226	4.43
419.434	4.38
419.642	4.3
419.849	4.22
420.057	4.27
420.265	4.23
420.472	4.34
420.68	4.19
420.887	4.1
421.095	3.87
421.302	3.99
421.51	3.69
421.717	3.82
421.925	3.89
422.132	4.04
422.34	3.94
422.547	4.02
422.755	4.03
422.962	4.14
423.17	4.19
423.377	4.22
423.585	4.21
423.792	4
423.999	3.9
424.207	3.8
424.414	3.53
424.621	3.52
424.829	3.65
425.036	3.65
425.243	3.54
425.451	3.81
425.658	3.93
425.865	3.9
426.072	3.83
426.28	3.94
426.487	3.99
426.694	3.94
426.901	3.99
427.108	4.05
427.315	4.31
427.523	4.17
427.73	4.21
427.937	4.33
428.144	4.36
428.351	4.15
428.558	3.9
428.765	3.97
428.972	3.89
429.179	3.68
429.386	3.63
429.593	3.85
429.8	3.94
430.007	4.07
430.214	4.28
430.421	4.28
430.628	4.28
430.835	4.24
431.042	4.08
431.249	4.06
431.456	4.2
431.662	4.29
431.869	4.27
432.076	4.23
432.283	4.27
432.49	4.17
432.697	4.15
432.903	4.14
433.11	4.23
433.317	4.11
433.524	4.1
433.73	4.09
433.937	4.09
434.144	4.05
434.35	4.16
434.557	4.33
434.764	4.44
434.97	4.56
435.177	4.72
435.384	4.8
435.59	4.72
435.797	4.61
436.003	4.48
436.21	4.38
436.416	4.37
436.623	4.34
436.829	4.42
437.036	4.42
437.242	4.39
437.449	4.28
437.655	4.3
437.862	4.34
438.068	4.37
438.275	4.39
438.481	4.34
438.687	4.43
438.894	4.48
439.1	4.57
439.307	4.45
439.513	4.54
439.719	4.4
439.926	4.36
440.132	4.38
440.338	4.61
440.544	4.56
440.751	4.72
440.957	4.74
441.163	4.75
441.369	4.73
441.575	4.97
441.782	4.93
441.988	5.02
442.194	5.06
442.4	5.04
442.606	4.98
442.812	5.06
443.018	4.91
443.224	4.85
443.431	4.84
443.637	4.9
443.843	4.91
444.049	4.94
444.255	5.08
444.461	5.08
444.667	4.96
444.873	4.75
445.079	4.86
445.284	4.8
445.49	4.88
445.696	5
445.902	5.18
446.108	5.18
446.314	5.18
446.52	5.35
446.726	5.31
446.931	5.32
447.137	5.29
447.343	5.28
447.549	5.14
447.755	5.16
447.96	5.08
448.166	5.09
448.372	5.02
448.578	5.04
448.783	5.02
448.989	5.13
449.195	5.08
449.4	5.18
449.606	5.17
449.812	5.21
450.017	5.17
450.223	5.19
450.428	5.33
450.634	5.26
450.84	5.31
451.045	5.32
451.251	5.46
451.456	5.22
451.662	5.19
451.867	5.12
452.073	5.18
452.278	5.09
452.483	5.18
452.689	5.27
452.894	5.2
453.1	5.18
453.305	5.16
453.51	5.16
453.716	5.2
453.921	5.31
454.127	5.24
454.332	5.35
454.537	5.39
454.742	5.39
454.948	5.33
455.153	5.43
455.358	5.36
455.563	5.21
455.769	5.15
455.974	5.2
456.179	5.19
456.384	5.09
456.589	5.23
456.795	5.25
457	5.31
457.205	5.17
457.41	5.25
457.615	5.22
457.82	5.23
458.025	5.22
458.23	5.4
458.435	5.36
458.64	5.43
458.845	5.45
459.05	5.36
459.255	5.29
459.46	5.36
459.665	5.28
459.87	5.29
460.075	5.35
460.28	5.38
460.485	5.33
460.69	5.32
460.895	5.34
461.099	5.44
461.304	5.23
461.509	5.21
461.714	5.35
461.919	5.25
462.123	5.21
462.328	5.45
462.533	5.62
462.738	5.59
462.942	5.66
463.147	5.62
463.352	5.61
463.556	5.54
463.761	5.46
463.966	5.48
464.17	5.51
464.375	5.57
464.58	5.59
464.784	5.65
464.989	5.67
465.193	5.64
465.398	5.6
465.602	5.52
465.807	5.56
466.011	5.66
466.216	5.63
466.42	5.61
466.625	5.74
466.829	5.63
467.034	5.52
467.238	5.59
467.443	5.59
467.647	5.56
467.851	5.75
468.056	5.77
468.26	5.75
468.464	5.82
468.669	5.78
468.873	5.53
469.077	5.54
469.282	5.59
469.486	5.5
469.69	5.57
469.894	5.62
470.099	5.62
470.303	5.48
470.507	5.63
470.711	5.67
470.915	5.78
471.119	5.9
471.324	6.04
471.528	6.02
471.732	5.99
471.936	6.01
472.14	5.87
472.344	5.9
472.548	5.86
472.752	5.76
472.956	5.64
473.16	5.7
473.364	5.71
473.568	5.76
473.772	5.83
473.976	6.01
474.18	6.08
474.384	6.06
474.588	6.11
474.792	6.16
474.995	6.08
475.199	6.06
475.403	5.94
475.607	5.89
475.811	5.83
476.015	5.82
476.218	5.73
476.422	5.95
476.626	5.91
476.83	5.92
477.033	5.95
477.237	6.05
477.441	5.87
477.644	5.89
477.848	5.93
478.052	6.02
478.255	6.04
478.459	6.21
478.663	6.22
478.866	6.22
479.07	6.09
479.273	6
479.477	5.87
479.681	5.85
479.884	5.86
480.088	5.91
480.291	6.03
480.495	6.05
480.698	6.05
480.901	6.06
481.105	6.04
481.308	6
481.512	6.06
481.715	6.09
481.919	6.1
482.122	6.11
482.325	6.14
482.529	6.11
482.732	6.11
482.935	6.12
483.138	6.12
483.342	6.06
483.545	6.12
483.748	6.09
483.952	6.05
484.155	6.1
484.358	6.16
484.561	6.09
484.764	6.13
484.967	6.17
485.171	6.11
485.374	6.14
485.577	6.16
485.78	6.06
485.983	6.05
486.186	6.13
486.389	6.12
486.592	6.15
486.795	6.22
486.998	6.3
487.201	6.29
487.404	6.27
487.607	6.21
487.81	6.21
488.013	6.1
488.216	6.06
488.419	6
488.622	6
488.825	6.07
489.028	6.12
489.231	6.17
489.433	6.2
489.636	6.23
489.839	6.23
490.042	6.21
490.245	6.28
490.447	6.31
490.65	6.28
490.853	6.23
491.056	6.22
491.258	6.13
491.461	6.13
491.664	6.05
491.866	6.01
492.069	5.98
492.272	5.94
492.474	5.9
492.677	5.94
492.879	5.94
493.082	5.89
493.285	5.88
493.487	5.91
493.69	5.93
493.892	5.99
494.095	6.11
494.297	6.16
494.5	6.13
494.702	6.13
494.905	6.12
495.107	6.04
495.309	6.01
495.512	6.05
495.714	6.12
495.917	6.11
496.119	6.18
496.321	6.16
496.524	6.12
496.726	6.08
496.928	6.14
497.13	6.15
497.333	6.23
497.535	6.23
497.737	6.28
497.939	6.19
498.142	6.18
498.344	6.14
498.546	6.17
498.748	6.13
498.95	6.18
499.152	6.18
499.355	6.25
499.557	6.23
499.759	6.22
499.961	6.22
500.163	6.21
500.365	6.14
500.567	6.12
500.769	6.18
500.971	6.18
501.173	6.19
501.375	6.24
501.577	6.32
501.779	6.34
501.981	6.4
502.183	6.4
502.385	6.42
502.587	6.45
502.788	6.42
502.99	6.41
503.192	6.44
503.394	6.45
503.596	6.45
503.798	6.45
503.999	6.45
504.201	6.45
504.403	6.46
504.605	6.45
504.806	6.49
505.008	6.52
505.21	6.41
505.411	6.41
505.613	6.42
505.815	6.45
506.016	6.39
506.218	6.48
506.42	6.53
506.621	6.53
506.823	6.55
507.024	6.6
507.226	6.63
507.427	6.61
507.629	6.69
507.83	6.67
508.032	6.66
508.233	6.66
508.435	6.68
508.636	6.56
508.838	6.49
509.039	6.54
509.24	6.54
509.442	6.52
509.643	6.58
509.845	6.63
510.046	6.55
510.247	6.53
510.448	6.51
510.65	6.51
510.851	6.49
511.052	6.48
511.254	6.6
511.455	6.56
511.656	6.5
511.857	6.47
512.058	6.58
512.26	6.5
512.461	6.58
512.662	6.64
512.863	6.76
513.064	6.71
513.265	6.68
513.466	6.65
513.667	6.72
513.868	6.67
514.069	6.67
514.27	6.65
514.471	6.72
514.672	6.72
514.873	6.76
515.074	6.78
515.275	6.85
515.476	6.84
515.677	6.75
515.878	6.75
516.079	6.77
516.28	6.76
516.481	6.72
516.682	6.8
516.882	6.84
517.083	6.81
517.284	6.87
517.485	6.92
517.686	6.9
517.886	6.91
518.087	6.84
518.288	6.78
518.488	6.78
518.689	6.76
518.89	6.77
519.091	6.88
519.291	6.91
519.492	6.93
519.692	6.98
519.893	6.88
520.094	6.95
520.294	6.98
520.495	6.99
520.695	6.95
520.896	6.99
521.096	6.97
521.297	6.99
521.497	7.02
521.698	7.05
521.898	7.07
522.099	7.07
522.299	7.06
522.499	7.07
522.7	7.08
522.9	7.15
523.101	7.05
523.301	7.09
523.501	7.06
523.702	7.1
523.902	7.08
524.102	7.16
524.302	7.14
524.503	7.14
524.703	7.12
524.903	7.16
525.103	7.14
525.304	7.06
525.504	7.1
525.704	7.14
525.904	7.11
526.104	7.15
526.304	7.26
526.504	7.23
526.705	7.24
526.905	7.18
527.105	7.2
527.305	7.17
527.505	7.23
527.705	7.29
527.905	7.38
528.105	7.38
528.305	7.42
528.505	7.4
528.705	7.33
528.905	7.3
529.105	7.33
529.304	7.31
529.504	7.33
529.704	7.37
529.904	7.43
530.104	7.46
530.304	7.47
530.503	7.58
530.703	7.55
530.903	7.56
531.103	7.54
531.303	7.58
531.502	7.57
531.702	7.62
531.902	7.58
532.101	7.59
532.301	7.6
532.501	7.56
532.7	7.59
532.9	7.66
533.1	7.64
533.299	7.71
533.499	7.71
533.698	7.72
533.898	7.71
534.097	7.77
534.297	7.67
534.496	7.72
534.696	7.75
534.895	7.76
535.095	7.79
535.294	7.85
535.494	7.82
535.693	7.81
535.892	7.78
536.092	7.85
536.291	7.91
536.491	7.98
536.69	7.95
536.889	8.03
537.088	7.99
537.288	7.94
537.487	7.94
537.686	7.98
537.886	7.94
538.085	7.91
538.284	7.91
538.483	7.95
538.682	7.96
538.882	8.02
539.081	8.04
539.28	8.14
539.479	8.2
539.678	8.26
539.877	8.23
540.076	8.3
540.275	8.36
540.474	8.26
540.673	8.24
540.872	8.3
541.071	8.34
541.27	8.36
541.469	8.38
541.668	8.4
541.867	8.53
542.066	8.52
542.265	8.5
542.464	8.64
542.663	8.69
542.862	8.65
543.06	8.68
543.259	8.72
543.458	8.72
543.657	8.75
543.856	8.81
544.054	8.89
544.253	8.99
544.452	9.06
544.651	9.02
544.849	9.06
545.048	9.13
545.247	9.1
545.445	9.11
545.644	9.23
545.843	9.24
546.041	9.15
546.24	9.15
546.438	9.17
546.637	9.24
546.836	9.26
547.034	9.35
547.233	9.44
547.431	9.57
547.63	9.57
547.828	9.67
548.027	9.74
548.225	9.83
548.423	9.82
548.622	9.88
548.82	9.9
549.019	9.88
549.217	9.82
549.415	9.89
549.614	9.98
549.812	10.08
550.01	10.25
550.209	10.4
550.407	10.39
550.605	10.4
550.803	10.36
551.002	10.4
551.2	10.47
551.398	10.55
551.596	10.58
551.794	10.72
551.993	10.77
552.191	10.78
552.389	10.76
552.587	10.84
552.785	10.86
552.983	10.84
553.181	10.93
553.379	11.07
553.577	11.16
553.775	11.23
553.973	11.39
554.171	11.42
554.369	11.6
554.567	11.67
554.765	11.71
554.963	11.7
555.161	11.82
555.359	11.77
555.557	11.76
555.755	11.83
555.952	11.89
556.15	11.93
556.348	12.03
556.546	12.12
556.744	12.22
556.941	12.25
557.139	12.33
557.337	12.47
557.535	12.63
557.732	12.72
557.93	12.76
558.128	12.87
558.325	12.8
558.523	12.79
558.721	12.74
558.918	12.95
559.116	13.01
559.313	13.15
559.511	13.2
559.708	13.39
559.906	13.37
560.104	13.41
560.301	13.46
560.498	13.58
560.696	13.57
560.893	13.65
561.091	13.75
561.288	13.94
561.486	14.06
561.683	14.13
561.88	14.21
562.078	14.18
562.275	14.16
562.473	14.14
562.67	14.2
562.867	14.26
563.064	14.34
563.262	14.37
563.459	14.46
563.656	14.44
563.853	14.46
564.051	14.6
564.248	14.63
564.445	14.71
564.642	14.83
564.839	14.87
565.036	14.83
565.234	14.85
565.431	14.93
565.628	14.99
565.825	15
566.022	15.01
566.219	15.09
566.416	15.01
566.613	15.08
566.81	15.17
567.007	15.26
567.204	15.37
567.401	15.41
567.598	15.4
567.795	15.4
567.991	15.46
568.188	15.45
568.385	15.37
568.582	15.39
568.779	15.49
568.976	15.47
569.172	15.51
569.369	15.7
569.566	15.75
569.763	15.59
569.96	15.66
570.156	15.57
570.353	15.54
570.55	15.57
570.746	15.68
570.943	15.7
571.14	15.81
571.336	15.89
571.533	15.87
571.729	15.96
571.926	15.96
572.123	15.93
572.319	15.89
572.516	15.89
572.712	15.86
572.909	15.82
573.105	15.79
573.302	15.78
573.498	15.79
573.695	15.83
573.891	15.89
574.087	15.91
574.284	15.94
574.48	15.98
574.677	15.97
574.873	15.98
575.069	16.04
575.266	16
575.462	15.96
575.658	15.82
575.854	15.75
576.051	15.67
576.247	15.72
576.443	15.79
576.639	15.92
576.835	15.91
577.032	16.01
577.228	16
577.424	15.88
577.62	15.85
577.816	15.79
578.012	15.69
578.208	15.63
578.404	15.55
578.6	15.51
578.796	15.55
578.993	15.57
579.189	15.57
579.384	15.62
579.58	15.56
579.776	15.52
579.972	15.53
580.168	15.52
580.364	15.54
580.56	15.52
580.756	15.6
580.952	15.52
581.148	15.5
581.343	15.44
581.539	15.43
581.735	15.3
581.931	15.23
582.127	15.22
582.322	15.23
582.518	15.19
582.714	15.21
582.909	15.23
583.105	15.13
583.301	15.1
583.496	15.04
583.692	15.08
583.888	15.11
584.083	15.13
584.279	15.11
584.474	15.06
584.67	14.94
584.866	14.9
585.061	14.9
585.257	14.87
585.452	15.02
585.648	15.06
585.843	14.97
586.039	14.94
586.234	14.9
586.429	14.78
586.625	14.75
586.82	14.8
587.015	14.77
587.211	14.82
587.406	14.88
587.601	14.85
587.797	14.81
587.992	14.84
588.187	14.8
588.383	14.82
588.578	14.86
588.773	14.87
588.968	14.86
589.163	14.86
589.359	14.77
589.554	14.75
589.749	14.77
589.944	14.8
590.139	14.78
590.334	14.88
590.529	14.91
590.724	14.94
590.919	14.98
591.114	15.05
591.309	14.96
591.504	14.97
591.699	14.97
591.894	14.96
592.089	15.06
592.284	15.16
592.479	15.21
592.674	15.28
592.869	15.28
593.064	15.23
593.259	15.31
593.454	15.28
593.648	15.29
593.843	15.4
594.038	15.47
594.233	15.4
594.428	15.42
594.622	15.46
594.817	15.49
595.012	15.53
595.206	15.67
595.401	15.73
595.596	15.72
595.79	15.69
595.985	15.72
596.18	15.84
596.374	15.91
596.569	15.98
596.763	16.1
596.958	16.17
597.153	16.08
597.347	16.13
597.542	16.14
597.736	16.19
597.931	16.17
598.125	16.25
598.319	16.31
598.514	16.44
598.708	16.45
598.903	16.5
599.097	16.6
599.291	16.62
599.486	16.64
599.68	16.68
599.874	16.72
600.069	16.68
600.263	16.74
600.457	16.78
600.651	16.75
600.846	16.83
601.04	16.91
601.234	16.93
601.428	16.87
601.622	17.04
601.817	16.93
602.011	16.99
602.205	17.03
602.399	17.11
602.593	17.03
602.787	17.07
602.981	17.05
603.175	17.05
603.369	16.98
603.563	16.92
603.757	16.93
603.951	16.85
604.145	16.8
604.339	16.78
604.533	16.89
604.727	16.93
604.921	16.87
605.115	16.84
605.309	16.86
605.502	16.77
605.696	16.75
605.89	16.79
606.084	16.83
606.278	16.86
606.471	16.85
606.665	16.76
606.859	16.65
607.053	16.65
607.246	16.56
607.44	16.55
607.634	16.52
607.827	16.48
608.021	16.41
608.214	16.4
608.408	16.3
608.602	16.37
608.795	16.49
608.989	16.46
609.182	16.34
609.376	16.24
609.569	16.1
609.763	15.89
609.956	15.8
610.15	15.8
610.343	15.88
610.537	15.78
610.73	15.77
610.923	15.72
611.117	15.71
611.31	15.54
611.504	15.53
611.697	15.5
611.89	15.41
612.083	15.27
612.277	15.22
612.47	15.12
612.663	15.07
612.856	15.05
613.05	15.08
613.243	15.03
613.436	14.93
613.629	14.86
613.822	14.81
614.015	14.78
614.209	14.78
614.402	14.83
614.595	14.82
614.788	14.78
614.981	14.71
615.174	14.6
615.367	14.59
615.56	14.41
615.753	14.31
615.946	14.31
616.139	14.33
616.332	14.2
616.525	14.2
616.718	14.21
616.911	14.17
617.103	14.03
617.296	14.02
617.489	14.01
617.682	13.96
617.875	13.8
618.067	13.82
618.26	13.82
618.453	13.83
618.646	13.72
618.838	13.68
619.031	13.56
619.224	13.61
619.417	13.6
619.609	13.64
619.802	13.64
619.994	13.64
620.187	13.52
620.38	13.41
620.572	13.36
620.765	13.35
620.957	13.42
621.15	13.45
621.342	13.44
621.535	13.32
621.727	13.28
621.92	13.19
622.112	13.19
622.305	13.13
622.497	13.28
622.69	13.33
622.882	13.27
623.074	13.18
623.267	13.21
623.459	13.12
623.651	13.04
623.844	13.13
624.036	13.16
624.228	13.16
624.42	13.18
624.613	13.25
624.805	13.25
624.997	13.16
625.189	13.15
625.381	13.09
625.574	12.99
625.766	12.89
625.958	12.93
626.15	12.91
626.342	12.92
626.534	13.02
626.726	13.08
626.918	13.04
627.11	13.02
627.302	12.94
627.494	12.83
627.686	12.75
627.878	12.76
628.07	12.66
628.262	12.72
628.454	12.63
628.646	12.62
628.838	12.53
629.029	12.55
629.221	12.46
629.413	12.51
629.605	12.48
629.797	12.45
629.989	12.46
630.18	12.4
630.372	12.32
630.564	12.21
630.755	12.23
630.947	12.14
631.139	12.18
631.33	12.16
631.522	12.18
631.714	12.14
631.905	12.17
632.097	12.08
632.289	12.06
632.48	12.09
632.672	12.05
632.863	12.05
633.055	12.11
633.246	12.15
633.438	12.06
633.629	12.07
633.821	12.04
634.012	12.02
634.203	11.94
634.395	11.98
634.586	11.99
634.777	11.96
634.969	11.91
635.16	11.99
635.351	12
635.543	11.94
635.734	11.94
635.925	12.02
636.117	12.05
636.308	12.02
636.499	12.06
636.69	12.09
636.881	11.98
637.073	11.89
637.264	11.86
637.455	11.79
637.646	11.72
637.837	11.71
638.028	11.73
638.219	11.8
638.41	11.83
638.601	11.82
638.792	11.88
638.983	11.93
639.174	11.93
639.365	11.85
639.556	11.9
639.747	11.83
639.938	11.72
640.129	11.68
640.32	11.69
640.511	11.65
640.701	11.64
640.892	11.63
641.083	11.49
641.274	11.5
641.465	11.43
641.655	11.47
641.846	11.5
642.037	11.64
642.228	11.55
642.418	11.53
642.609	11.42
642.8	11.35
642.99	11.3
643.181	11.32
643.372	11.33
643.562	11.36
643.753	11.36
643.943	11.31
644.134	11.36
644.324	11.34
644.515	11.33
644.705	11.35
644.896	11.39
645.086	11.38
645.277	11.32
645.467	11.34
645.658	11.37
645.848	11.3
646.038	11.25
646.229	11.31
646.419	11.27
646.61	11.2
646.8	11.17
646.99	11.11
647.18	11.13
647.371	11.09
647.561	11.07
647.751	11.22
647.941	11.31
648.132	11.36
648.322	11.35
648.512	11.38
648.702	11.31
648.892	11.19
649.082	11.09
649.272	11.12
649.462	11.04
649.653	11.01
649.843	11.05
650.033	10.98
650.223	10.86
650.413	10.89
650.603	10.83
650.793	10.81
650.983	10.9
651.172	11.03
651.362	10.97
651.552	10.98
651.742	11
651.932	10.84
652.122	10.75
652.312	10.72
652.502	10.64
652.691	10.5
652.881	10.53
653.071	10.49
653.261	10.4
653.45	10.37
653.64	10.38
653.83	10.4
654.019	10.32
654.209	10.26
654.399	10.18
654.588	10.05
654.778	9.85
654.968	9.72
655.157	9.64
655.347	9.52
655.536	9.53
655.726	9.44
655.915	9.38
656.105	9.31
656.294	9.2
656.484	9.1
656.673	9.08
656.863	9.03
657.052	8.93
657.241	8.99
657.431	8.87
657.62	8.75
657.809	8.61
657.999	8.54
658.188	8.45
658.377	8.38
658.567	8.31
658.756	8.26
658.945	8.21
659.134	8.08
659.324	7.95
659.513	7.87
659.702	7.78
659.891	7.79
660.08	7.68
660.269	7.68
660.458	7.53
660.648	7.46
660.837	7.31
661.026	7.26
661.215	7.15
661.404	7.09
661.593	6.92
661.782	6.83
661.971	6.71
662.16	6.6
662.349	6.54
662.538	6.59
662.726	6.55
662.915	6.54
663.104	6.5
663.293	6.45
663.482	6.43
663.671	6.31
663.86	6.31
664.048	6.27
664.237	6.22
664.426	6.13
664.615	6.1
664.803	5.99
664.992	5.88
665.181	5.9
665.369	5.85
665.558	5.79
665.747	5.72
665.935	5.71
666.124	5.72
666.312	5.62
666.501	5.67
666.69	5.75
666.878	5.78
667.067	5.68
667.255	5.73
667.444	5.51
667.632	5.43
667.82	5.3
668.009	5.3
668.197	5.34
668.386	5.53
668.574	5.53
668.762	5.65
668.951	5.67
669.139	5.69
669.327	5.72
669.516	5.6
669.704	5.56
669.892	5.58
670.08	5.56
670.269	5.52
670.457	5.62
670.645	5.72
670.833	5.68
671.021	5.6
671.21	5.65
671.398	5.64
671.586	5.57
671.774	5.74
671.962	5.94
672.15	5.92
672.338	6.07
672.526	6.17
672.714	6.21
672.902	6.13
673.09	6.12
673.278	6.01
673.466	6.01
673.654	5.95
673.842	6.01
674.03	6.1
674.218	6.36
674.405	6.46
674.593	6.45
674.781	6.39
674.969	6.38
675.157	6.15
675.344	6.09
675.532	6.08
675.72	6.1
675.908	6.19
676.095	6.32
676.283	6.42
676.471	6.46
676.658	6.64
676.846	6.72
677.033	6.62
677.221	6.65
677.409	6.78
677.596	6.78
677.784	6.7
677.971	6.91
678.159	6.88
678.346	6.85
678.534	6.97
678.721	7.01
678.909	6.93
679.096	7.02
679.283	6.95
679.471	6.87
679.658	6.91
679.846	7.08
680.033	7.06
680.22	7.18
680.408	7.11
680.595	7.12
680.782	7.17
680.969	7.17
681.157	7.25
681.344	7.34
681.531	7.46
681.718	7.51
681.905	7.67
682.093	7.75
682.28	7.85
682.467	7.97
682.654	8.01
682.841	8.12
683.028	8.25
683.215	8.3
683.402	8.3
683.589	8.36
683.776	8.39
683.963	8.42
684.15	8.49
684.337	8.66
684.524	8.8
684.711	8.89
684.898	9.07
685.085	9.32
685.271	9.41
685.458	9.45
685.645	9.65
685.832	9.65
686.019	9.98
686.205	10.14
686.392	10.31
686.579	10.49
686.766	10.65
686.952	10.56
687.139	10.69
687.326	10.95
687.512	10.98
687.699	11.12
687.886	11.31
688.072	11.57
688.259	11.71
688.445	11.99
688.632	12.43
688.818	12.73
689.005	12.88
689.191	13.26
689.378	13.46
689.564	13.56
689.751	13.85
689.937	14.32
690.124	14.5
690.31	14.86
690.496	15.31
690.683	15.62
690.869	15.9
691.055	16.15
691.242	16.44
691.428	16.59
691.614	16.87
691.8	17.23
691.987	17.69
692.173	18.22
692.359	18.69
692.545	19.25
692.731	19.6
692.918	19.97
693.104	20.29
693.29	20.63
693.476	20.88
693.662	21.36
693.848	21.85
694.034	22.42
694.22	23.08
694.406	23.71
694.592	23.92
694.778	24.53
694.964	24.71
695.15	25.19
695.336	25.55
695.522	26.04
695.708	26.65
695.894	27.2
696.08	27.68
696.265	28.15
696.451	28.8
696.637	28.88
696.823	29.46
697.009	29.75
697.194	30.21
697.38	30.68
697.566	31.23
697.751	31.73
697.937	32.25
698.123	32.59
698.308	32.99
698.494	33.75
698.68	34.17
698.865	34.54
699.051	35.03
699.236	35.48
699.422	35.76
699.607	36.1
699.793	36.47
699.978	37.05
700.164	37.31
700.349	37.58
700.535	38.02
700.72	38.42
700.906	38.94
701.091	39.36
701.276	39.82
701.462	39.95
701.647	40.64
701.832	40.81
702.018	41.35
702.203	41.63
702.388	42.29
702.573	42.69
702.759	42.75
702.944	43.08
703.129	43.31
703.314	43.39
703.499	43.5
703.684	44.01
703.87	44.14
704.055	44.64
704.24	45.19
704.425	45.59
704.61	46.03
704.795	46.4
704.98	46.78
705.165	47.13
705.35	47.44
705.535	47.7
705.72	47.98
705.905	48.29
706.09	48.35
706.275	48.73
706.459	48.95
706.644	49.41
706.829	49.49
707.014	50.04
707.199	50.07
707.384	50.19
707.568	50.04
707.753	50.52
707.938	50.32
708.123	50.34
708.307	50.83
708.492	51.3
708.677	51.24
708.861	51.62
709.046	52.08
709.231	52
709.415	52.09
709.6	52.15
709.784	52.55
709.969	52.28
710.153	52.81
710.338	53.12
710.522	53.75
710.707	53.78
710.891	54.29
711.076	53.95
711.26	53.98
711.445	53.58
711.629	53.79
711.813	53.77
711.998	54.02
712.182	54.36
712.366	54.45
712.551	54.31
712.735	54.56
712.919	54.56
713.103	54.63
713.288	55.16
713.472	55.44
713.656	55.44
713.84	56.16
714.024	56.27
714.208	56.26
714.393	56.45
714.577	57
714.761	56.45
714.945	56.14
715.129	56.12
715.313	56.02
715.497	56.06
715.681	56.24
715.865	56.82
716.049	56.79
716.233	56.78
716.417	56.91
716.601	56.95
716.785	57.33
716.968	57.55
717.152	57.71
717.336	57.28
717.52	57.57
717.704	57.4
717.888	57.88
718.071	58.07
718.255	58.36
718.439	58.52
718.622	58.34
718.806	57.75
718.99	57.84
719.174	58.05
719.357	58.46
719.541	58.56
719.724	59.22
719.908	59.39
720.092	59.72
720.275	59.41
720.459	59.58
720.642	59.67
720.826	60.08
721.009	59.64
721.193	59.81
721.376	60
721.559	59.59
721.743	59.06
721.926	59.55
722.11	59.63
722.293	59.6
722.476	60.15
722.66	60.41
722.843	59.78
723.026	60.28
723.21	60.65
723.393	60.31
723.576	60.33
723.759	61.29
723.942	60.85
724.126	60.79
724.309	61.14
724.492	61.74
724.675	62.25
724.858	62.74
725.041	62.43
725.224	62.67
725.407	62.86
725.59	62.19
725.774	61.62
725.957	62.36
726.14	62.49
726.322	62.31
726.505	62.77
726.688	63.88
726.871	64.01
727.054	64.37
727.237	64.56
727.42	64.44
727.603	64.46
727.786	64.45
727.968	64.47
728.151	64.86
728.334	65.75
728.517	65.53
728.699	65.23
728.882	65.1
729.065	64.97
729.248	65.09
729.43	65.08
729.613	65.71
729.796	66.16
729.978	66.38
730.161	65.84
730.343	65.65
730.526	66.25
730.708	66.43
730.891	66.84
731.073	67.59
731.256	68.6
731.438	68.95
731.621	69.03
731.803	68.61
731.986	68.31
732.168	68.74
732.35	68.49
732.533	68.93
732.715	69.82
732.898	69.65
733.08	69.13
733.262	69.3
733.444	69.69
733.627	69.37
733.809	69.88
733.991	69.47
734.173	69.95
734.355	69.03
734.538	69.51
734.72	70.06
734.902	70.87
735.084	70.88
735.266	71.43
735.448	72.22
735.63	72.72
735.812	73.36
735.994	72.74
736.176	73.41
736.358	72.54
736.54	71.74
736.722	71.63
736.904	72.41
737.086	72.02
737.268	72.06
737.45	72.48
737.632	72.82
737.814	72.31
737.995	73.12
738.177	74.06
738.359	74.95
738.541	75.19
738.723	75.74
738.904	75.03
739.086	74.77
739.268	74.13
739.449	73.76
739.631	73.55
739.813	74.29
739.994	74.04
740.176	73.12
740.358	73.4
740.539	73.35
740.721	73.19
740.902	73.59
741.084	73.56
741.265	73.9
741.447	74.41
741.628	74.98
741.81	74.8
741.991	75.99
742.172	75.34
742.354	75.13
742.535	75.4
742.717	75.28
742.898	75.91
743.079	76.29
743.261	76.87
743.442	76.76
743.623	76.39
743.804	76.06
743.986	76.42
744.167	76.84
744.348	76.67
744.529	76.98
744.71	76.55
744.891	76.64
745.073	76.36
745.254	75.78
745.435	75.94
745.616	76.88
745.797	77.12
745.978	77.71
746.159	79.11
746.34	80.42
746.521	80.04
746.702	79.7
746.883	79.72
747.064	78.62
747.245	77.43
747.426	78.19
747.606	78.74
747.787	77.01
747.968	76.65
748.149	77.14
748.33	76.03
748.51	75.31
748.691	76.14
748.872	76.81
749.053	76.43
749.233	78.31
749.414	78.71
749.595	79.06
749.775	79.93
749.956	80.93
750.137	79.21
750.317	77.95
750.498	77.21
750.678	76.32
750.859	75.57
751.04	75.9
751.22	78.2
751.4	78.31
751.581	78.52
751.761	78.04
751.942	77.29
752.122	76.16
752.303	76.86
752.483	76.34
752.663	76.07
752.844	76.79
753.024	77.84
753.204	77.42
753.385	77.78
753.565	78.33
753.745	77.92
753.925	76.13
754.106	76.72
754.286	77.62
754.466	78.4
754.646	79.22
754.826	80.77
755.006	80.86
755.187	80.74
755.367	80.49
755.547	81.52
755.727	79.44
755.907	79.74
756.087	77.89
756.267	77.46
756.447	74.69
756.627	75.52
756.807	75.27
756.987	77.27
757.167	77.89
757.346	79.55
757.526	80.32
757.706	79.62
757.886	78.43
758.066	77.33
758.246	76.85
758.425	77.29
758.605	76.77
758.785	77.27
758.965	78.58
759.144	80.1
759.324	79.38
759.504	80.11
759.683	80.46
759.863	79.39
760.043	78.14
760.222	78.41
760.402	78.22
760.581	77.74
760.761	78.41
760.94	78.45
761.12	77.98
761.299	78.06
761.479	77.95
761.658	77.75
761.838	77.7
762.017	77.71
762.197	78.25
762.376	79.32
762.555	79.11
762.735	77.93
762.914	77.73
763.093	76.64
763.273	75.14
763.452	75.17
763.631	76.61
763.81	77.23
763.99	79.27
764.169	81.05
764.348	81.3
764.527	80.79
764.706	78.26
764.885	77.46
765.064	76.41
765.243	76.92
765.423	78.13
765.602	80.22
765.781	80.25
765.96	80.5
766.139	81.01
766.318	79.91
766.497	79.44
766.676	78.5
766.854	76.75
767.033	74.93
767.212	74.72
767.391	75.55
767.57	76.04
767.749	77.66
767.928	77.05
768.106	77.6
768.285	77.83
768.464	79
768.643	79.12
768.821	79.92
769	79.47
769.179	79.5
769.357	80.22
769.536	80.49
769.715	79.59
769.893	79.32
770.072	78.91
770.25	77.49
770.429	76.98
770.607	77.91
770.786	77.77
770.964	75.85
771.143	76.11
771.321	74.49
771.5	74.36
771.678	75.74
771.857	77.76
772.035	75.8
772.213	76.35
772.392	76.13
772.57	74.91
772.748	75.03
772.927	77.5
773.105	76.5
773.283	76.9
773.461	79
773.64	79.55
773.818	77.98
773.996	79.05
774.174	78.15
774.352	75.66
774.531	74.42
774.709	75.34
774.887	75.68
775.065	77.37
775.243	78.93
775.421	77.9
775.599	77.19
775.777	77.11
775.955	75.57
776.133	75.5
776.311	76
776.489	77.39
776.667	78.24
776.844	78.24
777.022	78.31
777.2	77.87
777.378	77.32
777.556	76.57
777.734	77.14
777.911	75.52
778.089	76.07
778.267	74.66
778.445	74.78
778.622	74.12
778.8	71.66
778.978	71.15
779.155	71.77
779.333	71.12
779.511	72.24
779.688	73.14
779.866	76.6
780.043	78.35
780.221	78.15
780.398	77.05
780.576	77.38
780.753	75.58
780.931	73.14
781.108	73.71
781.286	74.25
781.463	76.4
781.64	73.39
781.818	73.94
781.995	74.18
782.172	74.8
782.35	74.38
782.527	77.32
782.704	77.67
782.882	77.44
783.059	75.35
783.236	75.45
783.413	74.09
783.59	74.58
783.768	77
783.945	76.88
784.122	78.74
784.299	78.5
784.476	77.07
784.653	77.11
784.83	78.04
785.007	78.46
785.184	77.82
785.361	77.88
785.538	77.08
785.715	80.24
785.892	77.5
786.069	77.64
786.246	77.9
786.423	75.12
786.6	74.45
786.776	76.15
786.953	77.81
787.13	75.87
787.307	75.81
787.484	74.37
787.66	76
787.837	73.98
788.014	77.95
788.191	80.03
788.367	79.15
788.544	76.01
788.721	79.06
788.897	75.24
789.074	73.46
789.25	71.63
789.427	73.53
789.603	71.29
789.78	69.5
789.956	69.63
790.133	71.4
790.309	69.47
790.486	66.85
790.662	72.78
790.839	75.42
791.015	71.85
791.192	70.02
791.368	72
791.544	71.97
791.721	71.92
791.897	74.03
792.073	75.42
792.249	77.53
792.426	76.69
792.602	72.76
792.778	76.68
792.954	74.78
793.13	75.3
793.307	76.92
793.483	79.9
793.659	79.29
793.835	82.73
794.011	80.09
794.187	79.41
794.363	81.08
794.539	79.87
794.715	81.29
794.891	82.15
795.067	82.07
795.243	81.49
795.419	79.71
795.595	75.87
795.771	77.5
795.947	74.44
796.122	73.52
796.298	73.56
796.474	69.89
796.65	68.7
796.826	67.6
797.001	66.32
797.177	68.62
797.353	73.55
797.529	75.09
797.704	75.34
797.88	79.03
798.056	79.76
798.231	80.15
798.407	75.31
798.582	74.85
798.758	71.54
798.934	69.22
799.109	66.75
799.285	72.5
799.46	74.36
799.636	75.5
799.811	74.8
799.986	78.27
800.162	77.11
800.337	71.14
800.513	72.54
800.688	78.3
800.863	76.46
801.039	72.32
801.214	74.66
801.389	72.95
801.565	69.31
801.74	68.11
801.915	66.25
802.09	64.66
802.265	61.14
802.441	61.74
802.616	63.54
802.791	63.71
802.966	72.76
803.141	78.77
803.316	85.17
803.491	86.43
803.666	91.88
803.841	88.49
804.016	83.68
804.191	77.72
804.366	80.87
804.541	79.05
804.716	76.98
804.891	77.44
805.066	72.5
805.241	70.66
805.416	68.24
805.591	66.5
805.765	69
805.94	73.58
806.115	70.92
806.29	74.34
806.464	78.65
806.639	78.34
806.814	82.75
806.989	87.05
807.163	84.66
807.338	84.3
807.512	82.37
807.687	70.8
807.862	66.84
808.036	60.21
808.211	61.3
808.385	59.06
808.56	57.98
808.734	54.3
808.909	59.84
809.083	61.98
809.258	57.24
809.432	62.48
809.606	62.76
809.781	59.36
809.955	53.92
810.13	54.06
810.304	57.19
810.478	63.99
810.652	65.47
810.827	68.22
811.001	72.79
811.175	73.44
811.349	75.83
811.524	71.28
811.698	70
811.872	67.62
812.046	71.37
812.22	64.23
812.394	80.16
812.568	79.49
812.742	78.26
812.916	76.87
813.09	73.29
813.264	68.52
813.438	79.81
813.612	82.85
813.786	81.55
813.96	80.15
814.134	82.07
814.308	73.12
814.482	72.24
814.656	67.69
814.83	69.75
815.003	67.17
815.177	73.4
815.351	80.4
815.525	79.68
815.698	81.21
815.872	78.22
816.046	65.93
816.219	60.57
816.393	48.96
816.567	58.61
816.74	63.43
816.914	66.6
817.088	65.53
817.261	85.08
817.435	73.53
817.608	67.96
817.782	69.75
817.955	77.72
818.129	74.95
818.302	70.17
818.475	64.98
818.649	59.12
818.822	52.78
818.996	33.15
819.169	49.89
819.342	56.68
819.516	61.34
819.689	58.98
819.862	82.05
820.035	77.54
820.209	67.4
820.382	69.68
820.555	70.46
820.728	52.31
820.901	60.19
821.075	63.97
821.248	54.84
821.421	67.86
821.594	73.78
821.767	61.59
821.94	49.98
822.113	55.54
822.286	37.56
822.459	46.87
822.632	48.54
822.805	59.33
822.978	61.07
823.151	68.3
823.324	72.99
823.496	82.22
823.669	78.29
823.842	83.15
824.015	98.77
824.188	81.26
824.361	76.32
824.533	81.57
824.706	75.51
824.879	62.41
825.051	61.01
825.224	67.74
825.397	64.53
825.569	62.82
825.742	64.39
825.915	62.06
826.087	52.68
826.26	54.77
826.432	57.18
826.605	57.75
826.777	57.72
826.95	56.1
827.122	50.63
827.295	48.67
827.467	52.08
827.64	55.78
827.812	70.84
827.984	63.76
828.157	68.75
828.329	70.75
828.501	77.06
828.674	61.84
828.846	82.64
829.018	76.91
829.19	77.54
829.363	81.23
829.535	73.32
829.707	64.09
829.879	71.14
830.051	66.79
830.223	65.55
830.395	77.79
830.568	74.32
830.74	47.88
830.912	41.66
831.084	42.92
831.256	48.8
831.428	54.3
831.6	65.42
831.772	74.15
831.943	72.95
832.115	63.1
832.287	65.33
832.459	68.32
832.631	57.8
832.803	50.06
832.975	52.25
833.146	62.32
833.318	88.07
833.49	84.52
833.662	83.48
833.833	71.48
834.005	58.89
834.177	46.98
834.348	43.81
834.52	49.57
834.692	49.78
834.863	58.57
835.035	55
835.206	60.84
835.378	51.56
835.549	79.77
835.721	77.04
835.892	73.05
836.064	65.41
836.235	69.89
836.407	57.97
836.578	60.1
836.749	67.22
836.921	66.03
837.092	61.75
837.264	73.93
837.435	67.04
837.606	66.78
837.777	61.97
837.949	59.5
838.12	54.14
838.291	41.85
838.462	39.64
838.633	45.51
838.805	56.32
838.976	51.39
839.147	58.7
839.318	70.85
839.489	76.02
839.66	70.38
839.831	26.72
840.002	28.76
840.173	40.86
840.344	29.92
840.515	21.98
840.686	44.99
840.857	57.68
841.028	50.36
841.199	51.5
841.369	65.72
841.54	79.18
841.711	92.84
841.882	102.88
842.053	103.24
842.223	94.99
842.394	70.27
842.565	53.83
842.736	51.14
842.906	45.8
843.077	35.48
843.248	37.63
843.418	51.01
843.589	58.54
843.759	27.57
843.93	46.42
844.101	60.15
844.271	48.42
844.442	37.99
844.612	23.18
844.783	22.63
844.953	48.76
845.123	43.06
845.294	36.2
845.464	67.37
845.635	80.27
845.805	39.26
845.975	39.27
846.146	51.81
846.316	67.27
846.486	62.33
846.656	67.63
846.827	81.47
846.997	84.13
847.167	84.4
847.337	88.63
847.507	99.32
847.677	92.91
847.848	95.59
848.018	87.6
848.188	79.01
848.358	79.65
848.528	70.54
848.698	72.5
848.868	72.7
849.038	74.59
849.208	79.94
849.378	70.2
849.548	77.16
849.718	87.09
849.887	82.56
850.057	87.32
850.227	98.35
850.397	79.56
850.567	93.09
850.737	73.94
850.906	56.47
851.076	77.47
851.246	92.4
851.415	50.78
851.585	83.9
851.755	108.32
851.924	86.34
852.094	63.06
852.264	89.84
852.433	61.85
852.603	73.31
852.772	64.82
852.942	76.52
853.111	61.55
853.281	89.15
853.45	55.79
853.62	79.5
853.789	76.77
853.959	61.75
854.128	66.46
854.297	94.89
854.467	75.55
854.636	38.91
854.805	13.25
854.975	-46.84
855.144	-38.92
855.313	-75.7
855.482	56.42
855.652	83.16
855.821	94.97
855.99	92.05
856.159	99.11
856.328	96.39
856.497	69.62
856.667	39.52
856.836	48.08
857.005	55.55
857.174	62.65
857.343	72.03
857.512	62.42
857.681	67.3
857.85	73.25
858.019	60.48
858.188	64.83
858.356	71.1
858.525	120.7
858.694	252.43
858.863	197.28
859.032	165
859.201	157.2
859.369	94.15
859.538	21.99
859.707	22.17
859.876	8.41
860.044	25.62
860.213	15.33
860.382	33.96
860.55	29.52
860.719	32.85
860.888	45.23
861.056	57.57
861.225	49.33
861.393	32.41
861.562	36.06
861.73	33.62
861.899	57.8
862.067	71.13
862.236	89.61
862.404	87.51
862.572	100.32
862.741	90.54
862.909	64.41
863.078	92.63
863.246	101.65
863.414	72.34
863.582	43.59
863.751	65.02
863.919	60.93
864.087	41.36
864.255	57.86
864.424	72.62
864.592	43.15
864.76	33.36
864.928	48.93
865.096	57.02
865.264	59.55
865.432	74.77
865.6	51.96
865.768	75.58
865.936	65.16
866.104	75.96
866.272	88.1
866.44	121.89
866.608	101.32
866.776	92.36
866.944	88.38
867.112	64.88
867.28	74.94
867.448	47.86
867.615	39.31
867.783	27.91
867.951	29.13
868.119	0.18
868.286	24.99
868.454	41.9
868.622	62.31
868.789	64.13
868.957	13.95
869.125	78.29
869.292	64.68
869.46	67.67
869.627	57.62
869.795	73.94
869.963	66
870.13	70.09
870.298	60.75
870.465	66.56
870.632	82.23
870.8	74.75
870.967	84.13
871.135	87.31
871.302	86.35
871.469	67.4
871.637	52.43
871.804	44.09
871.971	52.3
872.139	55.9
872.306	27.2
872.473	45.3
872.64	51.64
872.807	32.14
872.975	27.51
873.142	75.06
873.309	68.22
873.476	46.17
873.643	5.03
873.81	83.77
873.977	43.43
874.144	42.41
874.311	73.82
874.478	115.35
874.645	118.79
874.812	136.56
874.979	93.7
875.146	102.72
875.313	55.43
875.48	53.6
875.647	93.01
875.813	124.84
875.98	113.65
876.147	110.08
876.314	95.16
876.481	99.13
876.647	125.92
876.814	94.55
876.981	215.5
877.147	-25.71
877.314	79.69
877.481	74.86
877.647	88.15
877.814	106.63
877.98	86.88
878.147	71.2
878.314	49.91
878.48	41.39
878.647	70.5
878.813	65.87
878.979	33.89
879.146	50.3
879.312	80.42
879.479	77.16
879.645	79.93
879.811	86.43
879.978	109.07
880.144	19.77
880.31	-50.56
880.477	14.1
880.643	45.3
880.809	20.96
880.975	55.24
881.142	88.48
881.308	106.48
881.474	55.83
881.64	27.67
881.806	89.45
881.972	69.2
882.138	31.86
882.304	-58.89
882.47	76.54
882.636	-292.19
882.802	-274.56
882.968	-157.3
883.134	-13.39
883.3	-23.87
883.466	-0.11
883.632	-0.98
883.798	52.26
883.964	43.62
884.129	41.07
884.295	67.02
884.461	82.86
884.627	72.87
884.793	66.99
884.958	50.94
885.124	51.18
885.29	35.61
885.455	36.49
885.621	54.11
885.787	94.55
885.952	48.68
886.118	154.71
886.283	109.47
886.449	168.2
886.614	100.05
886.78	126.81
886.945	65.63
887.111	217.56
887.276	-479.63
887.442	-294.76
887.607	-49.49
887.773	77.3
887.938	66.03
888.103	40.36
888.269	53.65
888.434	81.61
888.599	61.9
888.764	22.88
888.93	-27.28
889.095	38.13
889.26	76.12
889.425	326.19
889.59	11.33
889.756	264.66
889.921	-37.18
890.086	378.64
890.251	-60.4
890.416	9.38
890.581	-140.59
890.746	-31.5
890.911	-26.62
891.076	-22.15
891.241	20.99
891.406	26.43
891.571	-13.58
891.736	23.98
891.901	32.51
892.065	-9.2
892.23	-76.23
892.395	74.96
892.56	52.77
892.725	-48.98
892.889	-23.99
893.054	20.86
893.219	53.35
893.384	119.43
893.548	278.6
893.713	328.16
893.878	562.4
