Data from Ofav_PP_Phys_2JQ31_Reflection_1.txt Node
Date: Tue Aug 03 18:08:33 EDT 2021
User: Adam
Spectrometer: FLMT01687
Trigger mode: 0
Integration Time (sec): 8.750000E-1
Scans to average: 2
Electric dark correction enabled: true
Nonlinearity correction enabled: false
Boxcar width: 2
XAxis mode: Wavelengths
Number of Pixels in Spectrum: 3648
>>>>>Begin Spectral Data<<<<<
179.494	149.7
179.716	171.87
179.937	182.94
180.158	291.99
180.38	835.96
180.601	58.97
180.823	54.86
181.044	61.34
181.265	131.04
181.486	-141.54
181.708	27.71
181.929	27.94
182.15	-19.6
182.372	340.72
182.593	-155.91
182.814	-1.28
183.035	215.25
183.257	700.98
183.478	103.86
183.699	249.2
183.92	132.75
184.141	107.43
184.363	66.11
184.584	15.89
184.805	-2.3
185.026	-55.93
185.247	-61.47
185.468	-43.86
185.689	-39.07
185.91	-25.64
186.132	18.63
186.353	44.93
186.574	20.11
186.795	38.16
187.016	24.56
187.237	27.04
187.458	23.56
187.679	15.78
187.9	17.87
188.121	26
188.342	2.97
188.563	7.39
188.784	22.35
189.005	1.03
189.226	-25.98
189.447	-1.96
189.667	-20.65
189.888	0.81
190.109	42.88
190.33	47.06
190.551	53.21
190.772	82.65
190.993	19.51
191.214	6.33
191.434	9.64
191.655	-22.99
191.876	-31.25
192.097	-3.66
192.318	-6.19
192.538	-6.52
192.759	2.65
192.98	4.06
193.201	-13.33
193.421	0.1
193.642	-8.15
193.863	3.82
194.083	40.29
194.304	64.85
194.525	69.08
194.745	60.8
194.966	87.07
195.187	74.37
195.407	64.96
195.628	68.23
195.848	78.37
196.069	85.35
196.29	73.83
196.51	30.63
196.731	27.06
196.951	38.38
197.172	30.58
197.392	56.39
197.613	99.19
197.833	82.52
198.054	104.32
198.274	77.02
198.495	52.24
198.715	35.15
198.936	39.59
199.156	35.24
199.377	26.59
199.597	36.64
199.817	53.62
200.038	33.96
200.258	20.9
200.479	-15.73
200.699	-12.39
200.919	-79.71
201.14	4.48
201.36	-2.75
201.58	21.17
201.801	3.89
202.021	18.32
202.241	-10.64
202.461	5.05
202.682	19.47
202.902	-2.84
203.122	-3.48
203.342	13.41
203.563	-19.72
203.783	-29.2
204.003	22.5
204.223	42.1
204.443	39.4
204.663	42.28
204.884	68.06
205.104	58.44
205.324	28.36
205.544	31.06
205.764	40.47
205.984	-20.27
206.204	-21.38
206.424	6.95
206.644	39.74
206.864	42.82
207.084	46.68
207.304	61.01
207.525	57.19
207.745	41.72
207.964	58.28
208.184	62.94
208.404	55.97
208.624	53.62
208.844	47.67
209.064	52.86
209.284	54.46
209.504	39.87
209.724	26.77
209.944	34.55
210.164	12.01
210.384	23.59
210.604	28.41
210.823	72.91
211.043	36.49
211.263	20.63
211.483	25.17
211.703	54.83
211.922	52.29
212.142	41.24
212.362	56.35
212.582	50.71
212.801	34.44
213.021	33.99
213.241	46.07
213.461	58.42
213.68	64.11
213.9	35.89
214.12	12.13
214.339	27.06
214.559	18.91
214.779	13.34
214.998	34.84
215.218	56.88
215.438	47.68
215.657	36.34
215.877	40
216.096	25.16
216.316	6.94
216.535	-14.92
216.755	-33.97
216.974	-9.17
217.194	22.17
217.413	50.3
217.633	52.51
217.852	64.05
218.072	71.04
218.291	51.34
218.511	42.99
218.73	41.29
218.95	27.69
219.169	17.72
219.389	18.73
219.608	13.24
219.827	5.82
220.047	25.23
220.266	13.23
220.485	26.94
220.705	38.21
220.924	43.43
221.143	31.12
221.363	46.13
221.582	35.82
221.801	2.5
222.021	3.04
222.24	1.88
222.459	-51.56
222.678	-11.83
222.897	1.32
223.117	-32.51
223.336	-133.21
223.555	-7.95
223.774	-0.42
223.993	-27.18
224.213	-22.19
224.432	11.64
224.651	10.02
224.87	0.09
225.089	-0.74
225.308	-17.39
225.527	-21.2
225.746	-49.61
225.965	-19.81
226.184	-51.34
226.404	42.09
226.623	63.64
226.842	78.65
227.061	37.88
227.28	52.43
227.499	37.75
227.718	17.95
227.936	-1.37
228.155	30.61
228.374	28.94
228.593	25.85
228.812	19.15
229.031	20.18
229.25	34.19
229.469	-1.37
229.688	-20.04
229.907	-72.01
230.125	-74.51
230.344	-81.3
230.563	-38.44
230.782	-16.47
231.001	23.63
231.22	16.4
231.438	7.99
231.657	-0.62
231.876	1.81
232.095	-18.71
232.313	-21.97
232.532	-35.28
232.751	1.37
232.969	3.78
233.188	13.38
233.407	16.43
233.625	37.59
233.844	38.26
234.063	33.63
234.281	55.19
234.5	55.98
234.719	66.14
234.937	43.77
235.156	29.6
235.374	20.46
235.593	36.7
235.811	7.79
236.03	6.74
236.249	33.75
236.467	35.04
236.686	29.85
236.904	45.42
237.123	54.52
237.341	35.67
237.559	42.03
237.778	38.75
237.996	31.49
238.215	29.94
238.433	37.42
238.652	27.53
238.87	33.68
239.088	42.82
239.307	46.59
239.525	43.31
239.743	55.04
239.962	59.12
240.18	63.29
240.398	73.59
240.617	71.15
240.835	41.25
241.053	22.87
241.271	-14.21
241.49	-43.67
241.708	-19.59
241.926	-15.23
242.144	4.49
242.363	22.76
242.581	32.35
242.799	25.45
243.017	36.99
243.235	66.74
243.453	62.85
243.672	54.93
243.89	56.01
244.108	60.05
244.326	13.49
244.544	12.16
244.762	23.08
244.98	14.23
245.198	-9.79
245.416	10.28
245.634	8.27
245.852	-7.36
246.07	5.41
246.288	10.78
246.506	44.31
246.724	48.34
246.942	62.1
247.16	36.58
247.378	28.74
247.596	5.02
247.814	7.45
248.032	3.18
248.25	-4.5
248.468	-9.67
248.685	-12.79
248.903	-48.84
249.121	-54.06
249.339	-30.73
249.557	-8.82
249.775	-6.1
249.992	28.03
250.21	19.2
250.428	14.06
250.646	-5.96
250.863	-3
251.081	-13.18
251.299	-3.62
251.517	4.81
251.734	17.74
251.952	29.2
252.17	19.02
252.387	-11.23
252.605	-2.32
252.823	6.45
253.04	-31.9
253.258	-13.28
253.475	18.87
253.693	10.53
253.911	3.72
254.128	13.39
254.346	32.15
254.563	12.43
254.781	28.12
254.998	35.21
255.216	19.42
255.433	-1.85
255.651	17.08
255.868	-39.38
256.086	-58.03
256.303	-21.33
256.521	-0.51
256.738	-19.66
256.956	37.52
257.173	58.18
257.39	40.71
257.608	20.92
257.825	17.75
258.043	-26.73
258.26	18.91
258.477	22.09
258.695	36.25
258.912	43.85
259.129	49.22
259.346	30.49
259.564	55.47
259.781	55.61
259.998	57.65
260.216	53.37
260.433	47.55
260.65	16.78
260.867	31.7
261.084	11.94
261.302	3.82
261.519	10.69
261.736	40.44
261.953	28.7
262.17	36.3
262.387	37.77
262.604	45.99
262.822	32.71
263.039	27.23
263.256	25.44
263.473	25.19
263.69	31.76
263.907	30.13
264.124	17.24
264.341	9.8
264.558	-1.86
264.775	7.61
264.992	11.69
265.209	15.82
265.426	22.97
265.643	45.27
265.86	42.31
266.077	61.75
266.294	70.36
266.51	69.59
266.727	66.37
266.944	66.74
267.161	45.82
267.378	41.66
267.595	33.26
267.812	19.79
268.028	-4.16
268.245	0.86
268.462	6.95
268.679	12.01
268.896	6.2
269.112	39.31
269.329	36.65
269.546	-4
269.763	-10.34
269.979	-5.15
270.196	3.73
270.413	12.91
270.629	22.04
270.846	40.31
271.063	39.47
271.279	32.56
271.496	35.18
271.712	24.28
271.929	20.06
272.146	33.67
272.362	29.91
272.579	33.49
272.795	26.42
273.012	21.91
273.228	23.09
273.445	14.22
273.661	14.42
273.878	29.94
274.094	17.73
274.311	5.52
274.527	-3.28
274.744	-18.42
274.96	-21.32
275.177	-42.65
275.393	-11.57
275.609	-5.56
275.826	-3.17
276.042	-5.89
276.259	4.84
276.475	-18.07
276.691	-7.99
276.908	3.31
277.124	21.42
277.34	18.19
277.557	15.76
277.773	23.21
277.989	26.55
278.205	21.26
278.422	31.95
278.638	34.43
278.854	18.81
279.07	10.6
279.286	10.94
279.503	20.65
279.719	17.18
279.935	27.61
280.151	34.09
280.367	34.46
280.583	8.25
280.799	24.84
281.016	24.25
281.232	7.29
281.448	-7.56
281.664	13.91
281.88	17.04
282.096	28.38
282.312	19.98
282.528	13.12
282.744	8.5
282.96	-0.82
283.176	-0.47
283.392	17.36
283.608	27.97
283.824	24.3
284.04	34.66
284.256	22.65
284.471	6.71
284.687	5.18
284.903	13.24
285.119	-15.31
285.335	-20.45
285.551	0.46
285.767	18.57
285.982	21.85
286.198	37.76
286.414	46.33
286.63	32.87
286.846	10.09
287.061	0.08
287.277	-16.26
287.493	-20.95
287.709	-46.91
287.924	-22.88
288.14	-14.74
288.356	-12.15
288.571	0.45
288.787	3.6
289.003	-11.31
289.218	-11.46
289.434	6.42
289.65	13.44
289.865	18.75
290.081	28.06
290.296	6.85
290.512	13.15
290.727	-4.58
290.943	24.55
291.159	30.43
291.374	52.91
291.59	47.28
291.805	56
292.021	58.5
292.236	60.11
292.451	44.36
292.667	47.91
292.882	38.26
293.098	6.05
293.313	3.33
293.529	16.77
293.744	13.15
293.959	22.58
294.175	33.93
294.39	28.76
294.605	21.01
294.821	10.72
295.036	2.49
295.251	3.35
295.467	7.56
295.682	37.38
295.897	46.19
296.112	53.59
296.328	57.68
296.543	53.45
296.758	37.5
296.973	35.58
297.188	28.49
297.404	36.3
297.619	38.08
297.834	29.86
298.049	27.82
298.264	28.48
298.479	6.42
298.694	4.78
298.909	20.94
299.125	20.93
299.34	9.35
299.555	17.42
299.77	-3.48
299.985	3.27
300.2	17.35
300.415	14.12
300.63	-3.97
300.845	35.19
301.06	42.66
301.275	5.22
301.49	28.45
301.704	46.19
301.919	52.29
302.134	55.53
302.349	64.89
302.564	62.86
302.779	57.9
302.994	36.48
303.209	29.74
303.423	14.72
303.638	20.2
303.853	15.52
304.068	37.62
304.283	41.75
304.497	55.1
304.712	51.51
304.927	49.01
305.142	35.86
305.356	27.2
305.571	19.17
305.786	32.47
306	33.5
306.215	37.11
306.43	35.74
306.644	34.48
306.859	26.23
307.074	33.45
307.288	41.39
307.503	34.85
307.717	27.36
307.932	23.64
308.147	21.69
308.361	9.99
308.576	7.26
308.79	31.82
309.005	30.96
309.219	31.92
309.434	21.66
309.648	29.6
309.863	-2.58
310.077	-18.89
310.292	-33.79
310.506	-16.27
310.72	5.63
310.935	18.35
311.149	14.34
311.364	24.71
311.578	13.38
311.792	29.6
312.007	12.06
312.221	11.19
312.435	15.13
312.649	29.5
312.864	9.44
313.078	23.9
313.292	28.47
313.507	18.17
313.721	17.13
313.935	11.97
314.149	2.61
314.363	3.76
314.578	14.92
314.792	12.31
315.006	-15.98
315.22	-7.22
315.434	9.88
315.648	-12.91
315.862	3.3
316.077	22.98
316.291	25.74
316.505	9.73
316.719	25.15
316.933	28.65
317.147	21.18
317.361	12.05
317.575	19.29
317.789	9.12
318.003	0.27
318.217	6.29
318.431	5.48
318.645	-26.48
318.859	-19.75
319.073	-27.23
319.287	-8.57
319.5	9.95
319.714	39.1
319.928	45.68
320.142	44.69
320.356	34.5
320.57	41.99
320.784	28.9
320.997	14.27
321.211	33.57
321.425	33.55
321.639	29
321.853	16.96
322.066	30.24
322.28	12.23
322.494	2.94
322.707	-22.7
322.921	-6.33
323.135	-17.21
323.349	4.18
323.562	15.83
323.776	33.28
323.989	29.66
324.203	43.26
324.417	26.72
324.63	42.32
324.844	21.46
325.057	13.83
325.271	-3.21
325.485	-2.29
325.698	-43.54
325.912	-26.59
326.125	-1.04
326.339	-4.67
326.552	-4.21
326.766	11.68
326.979	15.45
327.193	6.62
327.406	17.3
327.619	29.76
327.833	0.09
328.046	-3.2
328.26	-6.06
328.473	-1.39
328.686	-0.42
328.9	12.55
329.113	25.74
329.326	36.15
329.54	46.26
329.753	65.19
329.966	83.11
330.179	69.77
330.393	71.06
330.606	62.79
330.819	50.18
331.032	30.75
331.246	37.69
331.459	33.01
331.672	9.43
331.885	16.75
332.098	7.69
332.311	31.86
332.525	49.15
332.738	48.75
332.951	47.75
333.164	50.39
333.377	47.64
333.59	36.68
333.803	41.63
334.016	24.04
334.229	19.48
334.442	-21.93
334.655	-25.09
334.868	-39.67
335.081	-33.04
335.294	-33.44
335.507	13.06
335.72	14.42
335.933	19.75
336.146	16.59
336.359	19.07
336.572	6.19
336.785	14.11
336.997	23.9
337.21	28.24
337.423	27.38
337.636	35.15
337.849	18.91
338.062	22.6
338.274	21.84
338.487	35.32
338.7	32.24
338.913	42.14
339.125	35.67
339.338	38.42
339.551	21.26
339.763	9.51
339.976	6.86
340.189	7.41
340.402	6.44
340.614	12.77
340.827	21.04
341.039	21.16
341.252	31.77
341.465	29.39
341.677	34.54
341.89	35.35
342.102	22.91
342.315	22.58
342.527	15.69
342.74	11.98
342.952	11.62
343.165	39.23
343.377	10.63
343.59	20.78
343.802	19.37
344.015	-9.98
344.227	-27.22
344.44	-2.8
344.652	3.36
344.864	-0.86
345.077	26.59
345.289	1.73
345.502	-17.86
345.714	-21.02
345.926	-7.99
346.139	-26.78
346.351	-0.8
346.563	13.31
346.775	15.96
346.988	19.06
347.2	39.65
347.412	32.7
347.624	28.26
347.837	16.82
348.049	20.6
348.261	-0.88
348.473	-10.4
348.685	-3.85
348.897	19.63
349.11	3.01
349.322	9.32
349.534	12.99
349.746	12.76
349.958	5.34
350.17	10.94
350.382	3.76
350.594	12.94
350.806	19.22
351.018	26.29
351.23	21.46
351.442	31.09
351.654	20.73
351.866	14.55
352.078	6.09
352.29	12.35
352.502	0.08
352.714	4.47
352.926	2.87
353.138	1.4
353.35	2.48
353.561	24.63
353.773	31.98
353.985	40.62
354.197	34.85
354.409	43.5
354.621	35.51
354.832	34.47
355.044	33.74
355.256	30.49
355.468	15.45
355.679	21.19
355.891	25.58
356.103	35.76
356.314	52.1
356.526	55.84
356.738	52.66
356.949	50.15
357.161	34.51
357.373	21.86
357.584	28.02
357.796	21.59
358.008	22.66
358.219	23.82
358.431	20.85
358.642	12.59
358.854	4.76
359.065	0.4
359.277	18.05
359.488	26.09
359.7	24.77
359.911	36.71
360.123	34.88
360.334	24.1
360.546	24.71
360.757	45.49
360.969	32.69
361.18	45
361.391	46.35
361.603	38.63
361.814	23.15
362.025	16.85
362.237	18.6
362.448	12.15
362.659	16.48
362.871	17.64
363.082	20.4
363.293	5.82
363.504	11.25
363.716	22.98
363.927	25.48
364.138	27.55
364.349	31.99
364.56	24.89
364.772	31
364.983	20.57
365.194	17.18
365.405	15.97
365.616	21.94
365.827	9.07
366.038	18.01
366.25	14.06
366.461	22.23
366.672	18.54
366.883	17.42
367.094	24.85
367.305	33.24
367.516	19.09
367.727	30.29
367.938	30.4
368.149	18.19
368.36	14.06
368.571	20.54
368.781	8.22
368.992	0.41
369.203	18.42
369.414	22.38
369.625	9.86
369.836	13.37
370.047	20.85
370.258	14.55
370.468	18.64
370.679	41.14
370.89	38.85
371.101	38.47
371.312	29.82
371.522	17.57
371.733	21.42
371.944	27.23
372.155	20.14
372.365	20.49
372.576	37.26
372.787	22.08
372.997	15.15
373.208	16.81
373.419	6.35
373.629	-4.03
373.84	-0.72
374.05	-7.81
374.261	-3.16
374.472	12.99
374.682	10.22
374.893	6.89
375.103	11.2
375.314	27.06
375.524	36.36
375.735	26.28
375.945	34.09
376.156	34.98
376.366	17.48
376.577	7.4
376.787	9.38
376.997	2.84
377.208	6.64
377.418	2.5
377.629	1.89
377.839	11.74
378.049	13.44
378.26	-0.56
378.47	9.57
378.68	10.15
378.89	13.46
379.101	16.34
379.311	23.22
379.521	30.02
379.732	29.73
379.942	23.21
380.152	28.47
380.362	26.92
380.572	17.97
380.783	24.96
380.993	19.57
381.203	11.32
381.413	-1.8
381.623	1.38
381.833	-5.08
382.043	1.87
382.253	1.43
382.463	20.07
382.674	15.21
382.884	14.02
383.094	12.44
383.304	16.67
383.514	9.4
383.724	11.49
383.934	10.76
384.144	11.97
384.353	5.44
384.563	4.04
384.773	0.84
384.983	0.93
385.193	-3.14
385.403	2
385.613	2.89
385.823	7.93
386.033	8.86
386.242	12.52
386.452	9.17
386.662	13.92
386.872	10.69
387.082	4.99
387.291	3.93
387.501	4.04
387.711	-1.06
387.921	2.75
388.13	8.55
388.34	6.76
388.55	11.38
388.759	13.25
388.969	11.74
389.179	11.1
389.388	9.94
389.598	10.45
389.807	8.8
390.017	9.62
390.227	8.19
390.436	9.56
390.646	5.68
390.855	5.33
391.065	3.02
391.274	3.7
391.484	5.34
391.693	5.95
391.903	5.76
392.112	8.35
392.322	7.64
392.531	5.79
392.74	5.68
392.95	7.66
393.159	5.3
393.369	5.93
393.578	5.99
393.787	6.32
393.997	4.67
394.206	6.17
394.415	6.15
394.625	6.64
394.834	6.97
395.043	7.42
395.252	6.91
395.462	6.36
395.671	5.17
395.88	4.48
396.089	4.45
396.298	4.43
396.508	4.52
396.717	4.94
396.926	4.69
397.135	3.96
397.344	3.95
397.553	3.64
397.762	3.47
397.971	3.58
398.181	3.86
398.39	4.29
398.599	4.28
398.808	4.62
399.017	4.31
399.226	4.22
399.435	3.61
399.644	3.91
399.853	3.84
400.062	4.25
400.27	4.21
400.479	4.4
400.688	4.44
400.897	4.57
401.106	4.51
401.315	4.8
401.524	4.85
401.733	4.32
401.941	3.98
402.15	4.07
402.359	4.11
402.568	3.97
402.777	4.22
402.985	4.48
403.194	4.45
403.403	4.27
403.612	4.26
403.82	4.19
404.029	4.1
404.238	4.16
404.446	4
404.655	3.94
404.864	3.9
405.072	3.95
405.281	3.89
405.489	3.97
405.698	4.02
405.906	4.17
406.115	4.2
406.324	4.16
406.532	4.11
406.741	4.08
406.949	4.06
407.158	3.94
407.366	4.03
407.574	4.05
407.783	4.09
407.991	4.03
408.2	3.92
408.408	3.76
408.617	3.82
408.825	3.76
409.033	3.75
409.242	3.81
409.45	3.64
409.658	3.71
409.867	3.79
410.075	3.85
410.283	3.87
410.491	4
410.7	3.98
410.908	3.84
411.116	3.71
411.324	3.66
411.533	3.58
411.741	3.48
411.949	3.47
412.157	3.52
412.365	3.53
412.573	3.68
412.781	3.73
412.99	3.88
413.198	3.88
413.406	3.94
413.614	3.84
413.822	3.84
414.03	3.76
414.238	3.76
414.446	3.69
414.654	3.75
414.862	3.75
415.07	3.69
415.278	3.65
415.486	3.66
415.694	3.75
415.902	3.7
416.109	3.7
416.317	3.65
416.525	3.59
416.733	3.54
416.941	3.47
417.149	3.55
417.357	3.51
417.564	3.52
417.772	3.32
417.98	3.53
418.188	3.64
418.395	3.76
418.603	3.77
418.811	3.98
419.019	3.7
419.226	3.42
419.434	3.28
419.642	3.23
419.849	3.06
420.057	3.18
420.265	3.17
420.472	3.29
420.68	3.34
420.887	3.34
421.095	3.21
421.302	3.31
421.51	3.09
421.717	3.09
421.925	3
422.132	3.1
422.34	3.09
422.547	3.25
422.755	3.11
422.962	3.27
423.17	3.24
423.377	3.31
423.585	3.34
423.792	3.33
423.999	3.26
424.207	3.2
424.414	2.93
424.621	2.65
424.829	2.69
425.036	2.75
425.243	2.81
425.451	2.99
425.658	3.26
425.865	3.39
426.072	3.26
426.28	3.19
426.487	3.27
426.694	3.16
426.901	3.16
427.108	3.3
427.315	3.61
427.523	3.5
427.73	3.58
427.937	3.75
428.144	3.66
428.351	3.52
428.558	3.38
428.765	3.35
428.972	3.21
429.179	3.14
429.386	2.97
429.593	3.24
429.8	3.45
430.007	3.44
430.214	3.6
430.421	3.83
430.628	3.8
430.835	3.79
431.042	3.68
431.249	3.72
431.456	3.75
431.662	3.85
431.869	3.88
432.076	3.91
432.283	3.85
432.49	3.84
432.697	3.72
432.903	3.69
433.11	3.66
433.317	3.73
433.524	3.69
433.73	3.78
433.937	3.73
434.144	3.84
434.35	3.68
434.557	3.72
434.764	3.67
434.97	3.79
435.177	3.81
435.384	4.1
435.59	4.07
435.797	4.05
436.003	3.9
436.21	3.9
436.416	3.86
436.623	3.81
436.829	3.96
437.036	3.97
437.242	3.96
437.449	3.91
437.655	3.89
437.862	3.87
438.068	3.83
438.275	3.86
438.481	3.74
438.687	3.83
438.894	3.91
439.1	3.99
439.307	3.88
439.513	3.96
439.719	3.89
439.926	3.8
440.132	3.91
440.338	4.1
440.544	4.1
440.751	4.3
440.957	4.26
441.163	4.24
441.369	4.29
441.575	4.42
441.782	4.41
441.988	4.51
442.194	4.47
442.4	4.33
442.606	4.37
442.812	4.33
443.018	4.26
443.224	4.21
443.431	4.21
443.637	4.22
443.843	4.24
444.049	4.23
444.255	4.42
444.461	4.49
444.667	4.52
444.873	4.42
445.079	4.47
445.284	4.36
445.49	4.44
445.696	4.33
445.902	4.37
446.108	4.45
446.314	4.5
446.52	4.57
446.726	4.63
446.931	4.82
447.137	4.8
447.343	4.8
447.549	4.73
447.755	4.75
447.96	4.57
448.166	4.56
448.372	4.61
448.578	4.63
448.783	4.6
448.989	4.67
449.195	4.61
449.4	4.6
449.606	4.58
449.812	4.65
450.017	4.73
450.223	4.85
450.428	4.99
450.634	4.96
450.84	4.97
451.045	5.04
451.251	5.07
451.456	4.96
451.662	4.82
451.867	4.72
452.073	4.58
452.278	4.54
452.483	4.58
452.689	4.73
452.894	4.83
453.1	4.8
453.305	4.81
453.51	4.8
453.716	4.82
453.921	4.91
454.127	4.95
454.332	4.93
454.537	4.96
454.742	5.12
454.948	5.08
455.153	5.15
455.358	5.23
455.563	5.04
455.769	4.93
455.974	4.94
456.179	4.93
456.384	4.85
456.589	5.11
456.795	5.08
457	5.07
457.205	5.03
457.41	5.17
457.615	5.12
457.82	5.11
458.025	5.12
458.23	5.19
458.435	5.01
458.64	5.06
458.845	5.19
459.05	5.24
459.255	5.21
459.46	5.27
459.665	5.23
459.87	5.18
460.075	5.19
460.28	5.32
460.485	5.37
460.69	5.38
460.895	5.41
461.099	5.38
461.304	5.23
461.509	5.21
461.714	5.28
461.919	5.22
462.123	5.24
462.328	5.29
462.533	5.35
462.738	5.37
462.942	5.42
463.147	5.48
463.352	5.5
463.556	5.55
463.761	5.48
463.966	5.4
464.17	5.43
464.375	5.49
464.58	5.49
464.784	5.52
464.989	5.68
465.193	5.61
465.398	5.55
465.602	5.44
465.807	5.52
466.011	5.45
466.216	5.52
466.42	5.64
466.625	5.79
466.829	5.75
467.034	5.79
467.238	5.72
467.443	5.66
467.647	5.62
467.851	5.68
468.056	5.7
468.26	5.79
468.464	5.81
468.669	5.83
468.873	5.79
469.077	5.76
469.282	5.85
469.486	5.83
469.69	5.78
469.894	5.77
470.099	5.78
470.303	5.7
470.507	5.82
470.711	5.94
470.915	6.06
471.119	6.14
471.324	6.17
471.528	6.16
471.732	6.03
471.936	5.95
472.14	5.84
472.344	5.74
472.548	5.72
472.752	5.74
472.956	5.74
473.16	5.88
473.364	6.03
473.568	6.1
473.772	6.17
473.976	6.3
474.18	6.28
474.384	6.2
474.588	6.19
474.792	6.3
474.995	6.15
475.199	6.11
475.403	6.06
475.607	6
475.811	5.99
476.015	6.15
476.218	6.13
476.422	6.22
476.626	6.26
476.83	6.17
477.033	6.14
477.237	6.15
477.441	6.12
477.644	6.07
477.848	6.16
478.052	6.14
478.255	6.21
478.459	6.24
478.663	6.21
478.866	6.22
479.07	6.24
479.273	6.2
479.477	6.13
479.681	6.16
479.884	6.1
480.088	6.09
480.291	6.1
480.495	6.14
480.698	6.12
480.901	6.14
481.105	6.07
481.308	6.08
481.512	6.11
481.715	6.19
481.919	6.16
482.122	6.22
482.325	6.22
482.529	6.24
482.732	6.24
482.935	6.25
483.138	6.21
483.342	6.19
483.545	6.2
483.748	6.09
483.952	6.12
484.155	6.16
484.358	6.22
484.561	6.18
484.764	6.22
484.967	6.18
485.171	6.14
485.374	6.1
485.577	6.08
485.78	6.08
485.983	6.06
486.186	6.12
486.389	6.15
486.592	6.2
486.795	6.23
486.998	6.3
487.201	6.28
487.404	6.21
487.607	6.18
487.81	6.14
488.013	6.08
488.216	6.03
488.419	6.03
488.622	6.07
488.825	6.1
489.028	6.15
489.231	6.21
489.433	6.23
489.636	6.14
489.839	6.11
490.042	6.14
490.245	6.19
490.447	6.24
490.65	6.22
490.853	6.27
491.056	6.25
491.258	6.18
491.461	6.14
491.664	6.24
491.866	6.22
492.069	6.15
492.272	6.08
492.474	6.07
492.677	6.06
492.879	5.97
493.082	5.92
493.285	6.01
493.487	6.06
493.69	6.04
493.892	6.12
494.095	6.16
494.297	6.14
494.5	6.11
494.702	6.13
494.905	6.15
495.107	6.14
495.309	6.19
495.512	6.17
495.714	6.17
495.917	6.1
496.119	6.08
496.321	5.98
496.524	5.99
496.726	5.98
496.928	5.96
497.13	6.05
497.333	6.08
497.535	6.07
497.737	6.13
497.939	6.21
498.142	6.18
498.344	6.15
498.546	6.15
498.748	6.09
498.95	6.03
499.152	6.08
499.355	6.09
499.557	5.99
499.759	5.92
499.961	5.97
500.163	5.92
500.365	5.97
500.567	5.99
500.769	6.03
500.971	6.02
501.173	6.05
501.375	5.98
501.577	6.1
501.779	6.16
501.981	6.22
502.183	6.22
502.385	6.26
502.587	6.23
502.788	6.16
502.99	6.09
503.192	6.1
503.394	6.09
503.596	6.1
503.798	6.15
503.999	6.2
504.201	6.21
504.403	6.19
504.605	6.17
504.806	6.19
505.008	6.22
505.21	6.14
505.411	6.15
505.613	6.15
505.815	6.13
506.016	6.09
506.218	6.13
506.42	6.18
506.621	6.2
506.823	6.19
507.024	6.14
507.226	6.17
507.427	6.18
507.629	6.22
507.83	6.22
508.032	6.18
508.233	6.15
508.435	6.15
508.636	6.09
508.838	6.12
509.039	6.19
509.24	6.15
509.442	6.12
509.643	6.22
509.845	6.18
510.046	6.16
510.247	6.19
510.448	6.15
510.65	6.12
510.851	6.12
511.052	6.14
511.254	6.21
511.455	6.17
511.656	6.09
511.857	6.03
512.058	6.03
512.26	5.99
512.461	6.03
512.662	6.06
512.863	6.14
513.064	6.2
513.265	6.17
513.466	6.21
513.667	6.25
513.868	6.22
514.069	6.13
514.27	6.09
514.471	6.02
514.672	5.98
514.873	5.98
515.074	5.97
515.275	6.01
515.476	6.09
515.677	6.05
515.878	6.06
516.079	6.12
516.28	6.11
516.481	6.08
516.682	6.1
516.882	6.16
517.083	6.1
517.284	6.14
517.485	6.1
517.686	6.12
517.886	6.12
518.087	6.15
518.288	6.11
518.488	6.21
518.689	6.16
518.89	6.14
519.091	6.15
519.291	6.11
519.492	6.01
519.692	6.09
519.893	6
520.094	6.04
520.294	6.09
520.495	6.13
520.695	6.11
520.896	6.18
521.096	6.17
521.297	6.17
521.497	6.16
521.698	6.2
521.898	6.15
522.099	6.14
522.299	6.12
522.499	6.06
522.7	6
522.9	6.07
523.101	6.02
523.301	6.05
523.501	6.12
523.702	6.21
523.902	6.2
524.102	6.26
524.302	6.31
524.503	6.27
524.703	6.24
524.903	6.25
525.103	6.27
525.304	6.16
525.504	6.15
525.704	6.13
525.904	6.13
526.104	6.09
526.304	6.18
526.504	6.22
526.705	6.22
526.905	6.22
527.105	6.22
527.305	6.19
527.505	6.18
527.705	6.23
527.905	6.22
528.105	6.22
528.305	6.26
528.505	6.26
528.705	6.22
528.905	6.24
529.105	6.25
529.304	6.26
529.504	6.31
529.704	6.36
529.904	6.33
530.104	6.34
530.304	6.31
530.503	6.28
530.703	6.22
530.903	6.25
531.103	6.24
531.303	6.28
531.502	6.32
531.702	6.34
531.902	6.32
532.101	6.33
532.301	6.32
532.501	6.29
532.7	6.35
532.9	6.38
533.1	6.38
533.299	6.44
533.499	6.44
533.698	6.38
533.898	6.42
534.097	6.45
534.297	6.33
534.496	6.32
534.696	6.36
534.895	6.32
535.095	6.31
535.294	6.38
535.494	6.37
535.693	6.36
535.892	6.37
536.092	6.38
536.291	6.4
536.491	6.46
536.69	6.49
536.889	6.5
537.088	6.55
537.288	6.5
537.487	6.5
537.686	6.51
537.886	6.52
538.085	6.52
538.284	6.55
538.483	6.53
538.682	6.52
538.882	6.5
539.081	6.49
539.28	6.54
539.479	6.6
539.678	6.66
539.877	6.67
540.076	6.7
540.275	6.7
540.474	6.64
540.673	6.59
540.872	6.63
541.071	6.63
541.27	6.71
541.469	6.79
541.668	6.81
541.867	6.93
542.066	7
542.265	6.98
542.464	7.02
542.663	7.08
542.862	6.99
543.06	6.97
543.259	6.99
543.458	6.97
543.657	6.99
543.856	7.07
544.054	7.09
544.253	7.1
544.452	7.15
544.651	7.11
544.849	7.12
545.048	7.17
545.247	7.22
545.445	7.21
545.644	7.31
545.843	7.31
546.041	7.31
546.24	7.27
546.438	7.31
546.637	7.38
546.836	7.39
547.034	7.44
547.233	7.48
547.431	7.54
547.63	7.55
547.828	7.65
548.027	7.67
548.225	7.75
548.423	7.77
548.622	7.77
548.82	7.76
549.019	7.76
549.217	7.64
549.415	7.73
549.614	7.82
549.812	7.84
550.01	7.92
550.209	8.03
550.407	8.04
550.605	8.06
550.803	8.11
551.002	8.2
551.2	8.21
551.398	8.23
551.596	8.29
551.794	8.34
551.993	8.34
552.191	8.47
552.389	8.52
552.587	8.5
552.785	8.54
552.983	8.53
553.181	8.54
553.379	8.56
553.577	8.65
553.775	8.7
553.973	8.78
554.171	8.84
554.369	8.94
554.567	9.01
554.765	9.07
554.963	9.09
555.161	9.13
555.359	9.16
555.557	9.14
555.755	9.19
555.952	9.29
556.15	9.36
556.348	9.41
556.546	9.47
556.744	9.48
556.941	9.46
557.139	9.53
557.337	9.63
557.535	9.73
557.732	9.87
557.93	9.91
558.128	9.96
558.325	9.93
558.523	9.97
558.721	9.99
558.918	10.13
559.116	10.19
559.313	10.26
559.511	10.37
559.708	10.42
559.906	10.45
560.104	10.49
560.301	10.57
560.498	10.61
560.696	10.63
560.893	10.72
561.091	10.8
561.288	10.88
561.486	10.88
561.683	10.93
561.88	11
562.078	11.04
562.275	11.05
562.473	11.09
562.67	11.08
562.867	11.06
563.064	11.11
563.262	11.14
563.459	11.24
563.656	11.27
563.853	11.33
564.051	11.38
564.248	11.43
564.445	11.5
564.642	11.66
564.839	11.77
565.036	11.87
565.234	11.85
565.431	11.87
565.628	11.88
565.825	11.82
566.022	11.78
566.219	11.9
566.416	11.92
566.613	12.07
566.81	12.18
567.007	12.22
567.204	12.33
567.401	12.34
567.598	12.28
567.795	12.3
567.991	12.31
568.188	12.27
568.385	12.19
568.582	12.21
568.779	12.2
568.976	12.23
569.172	12.24
569.369	12.35
569.566	12.37
569.763	12.23
569.96	12.29
570.156	12.25
570.353	12.27
570.55	12.33
570.746	12.5
570.943	12.45
571.14	12.53
571.336	12.58
571.533	12.54
571.729	12.53
571.926	12.57
572.123	12.54
572.319	12.5
572.516	12.47
572.712	12.5
572.909	12.44
573.105	12.36
573.302	12.4
573.498	12.42
573.695	12.43
573.891	12.48
574.087	12.56
574.284	12.56
574.48	12.58
574.677	12.62
574.873	12.56
575.069	12.6
575.266	12.55
575.462	12.5
575.658	12.35
575.854	12.44
576.051	12.35
576.247	12.39
576.443	12.41
576.639	12.53
576.835	12.42
577.032	12.43
577.228	12.32
577.424	12.25
577.62	12.19
577.816	12.24
578.012	12.24
578.208	12.24
578.404	12.24
578.6	12.18
578.796	12.2
578.993	12.24
579.189	12.29
579.384	12.32
579.58	12.35
579.776	12.33
579.972	12.24
580.168	12.24
580.364	12.29
580.56	12.22
580.756	12.2
580.952	12.17
581.148	12.14
581.343	11.99
581.539	11.99
581.735	11.94
581.931	11.98
582.127	11.96
582.322	12.03
582.518	12.03
582.714	12.06
582.909	12.03
583.105	12.03
583.301	11.96
583.496	11.9
583.692	11.88
583.888	11.83
584.083	11.78
584.279	11.81
584.474	11.79
584.67	11.73
584.866	11.7
585.061	11.68
585.257	11.68
585.452	11.67
585.648	11.63
585.843	11.57
586.039	11.57
586.234	11.47
586.429	11.5
586.625	11.48
586.82	11.57
587.015	11.6
587.211	11.67
587.406	11.68
587.601	11.76
587.797	11.69
587.992	11.62
588.187	11.61
588.383	11.61
588.578	11.59
588.773	11.6
588.968	11.61
589.163	11.62
589.359	11.57
589.554	11.54
589.749	11.59
589.944	11.6
590.139	11.51
590.334	11.54
590.529	11.6
590.724	11.62
590.919	11.59
591.114	11.7
591.309	11.68
591.504	11.64
591.699	11.64
591.894	11.74
592.089	11.69
592.284	11.75
592.479	11.74
592.674	11.85
592.869	11.82
593.064	11.92
593.259	11.89
593.454	11.92
593.648	11.88
593.843	11.94
594.038	12.03
594.233	12.1
594.428	12.15
594.622	12.18
594.817	12.21
595.012	12.19
595.206	12.29
595.401	12.34
595.596	12.34
595.79	12.39
595.985	12.39
596.18	12.46
596.374	12.53
596.569	12.6
596.763	12.67
596.958	12.67
597.153	12.63
597.347	12.64
597.542	12.63
597.736	12.63
597.931	12.74
598.125	12.7
598.319	12.83
598.514	13.01
598.708	13.07
598.903	13.03
599.097	13.17
599.291	13.09
599.486	13.09
599.68	13.05
599.874	13.1
600.069	13.08
600.263	13.17
600.457	13.16
600.651	13.17
600.846	13.31
601.04	13.26
601.234	13.26
601.428	13.19
601.622	13.24
601.817	13.07
602.011	13.18
602.205	13.24
602.399	13.28
602.593	13.3
602.787	13.37
602.981	13.32
603.175	13.28
603.369	13.28
603.563	13.26
603.757	13.29
603.951	13.26
604.145	13.27
604.339	13.26
604.533	13.28
604.727	13.26
604.921	13.24
605.115	13.21
605.309	13.18
605.502	13.13
605.696	13.12
605.89	13.03
606.084	13.09
606.278	13.14
606.471	13.12
606.665	13.02
606.859	13.11
607.053	13.06
607.246	12.99
607.44	12.98
607.634	13.03
607.827	12.9
608.021	12.85
608.214	12.88
608.408	12.83
608.602	12.85
608.795	12.97
608.989	12.84
609.182	12.62
609.376	12.51
609.569	12.41
609.763	12.24
609.956	12.26
610.15	12.26
610.343	12.34
610.537	12.29
610.73	12.26
610.923	12.2
611.117	12.26
611.31	12.05
611.504	12.02
611.697	12.04
611.89	11.94
612.083	11.81
612.277	11.79
612.47	11.78
612.663	11.67
612.856	11.64
613.05	11.57
613.243	11.63
613.436	11.54
613.629	11.54
613.822	11.46
614.015	11.49
614.209	11.42
614.402	11.36
614.595	11.38
614.788	11.41
614.981	11.38
615.174	11.3
615.367	11.3
615.56	11.17
615.753	11.14
615.946	11.1
616.139	11.05
616.332	10.93
616.525	10.89
616.718	10.86
616.911	10.84
617.103	10.87
617.296	10.84
617.489	10.87
617.682	10.85
617.875	10.7
618.067	10.68
618.26	10.77
618.453	10.65
618.646	10.58
618.838	10.58
619.031	10.47
619.224	10.44
619.417	10.53
619.609	10.53
619.802	10.54
619.994	10.59
620.187	10.54
620.38	10.51
620.572	10.45
620.765	10.45
620.957	10.4
621.15	10.35
621.342	10.32
621.535	10.23
621.727	10.17
621.92	10.19
622.112	10.16
622.305	10.09
622.497	10.13
622.69	10.09
622.882	10.03
623.074	10.06
623.267	10.05
623.459	10.04
623.651	10.02
623.844	10.05
624.036	10.05
624.228	10.05
624.42	10.12
624.613	10.12
624.805	10.12
624.997	10.03
625.189	10.01
625.381	9.97
625.574	10.02
625.766	9.98
625.958	10
626.15	9.97
626.342	9.99
626.534	9.91
626.726	9.93
626.918	9.95
627.11	9.96
627.302	9.86
627.494	9.92
627.686	9.85
627.878	9.77
628.07	9.69
628.262	9.62
628.454	9.48
628.646	9.47
628.838	9.52
629.029	9.58
629.221	9.66
629.413	9.73
629.605	9.73
629.797	9.66
629.989	9.64
630.18	9.63
630.372	9.57
630.564	9.49
630.755	9.46
630.947	9.41
631.139	9.4
631.33	9.37
631.522	9.31
631.714	9.25
631.905	9.26
632.097	9.16
632.289	9.14
632.48	9.13
632.672	9.18
632.863	9.15
633.055	9.19
633.246	9.24
633.438	9.28
633.629	9.18
633.821	9.12
634.012	9.11
634.203	9.05
634.395	9.01
634.586	9.15
634.777	9.18
634.969	9.12
635.16	9.17
635.351	9.17
635.543	9.17
635.734	9.16
635.925	9.22
636.117	9.17
636.308	9.19
636.499	9.1
636.69	9.08
636.881	9.05
637.073	9.04
637.264	9.03
637.455	9
637.646	8.96
637.837	8.99
638.028	8.98
638.219	8.94
638.41	8.98
638.601	8.93
638.792	8.86
638.983	8.84
639.174	8.83
639.365	8.77
639.556	8.84
639.747	8.86
639.938	8.8
640.129	8.74
640.32	8.78
640.511	8.84
640.701	8.77
640.892	8.82
641.083	8.84
641.274	8.8
641.465	8.63
641.655	8.63
641.846	8.59
642.037	8.64
642.228	8.56
642.418	8.53
642.609	8.5
642.8	8.51
642.99	8.45
643.181	8.5
643.372	8.56
643.562	8.57
643.753	8.54
643.943	8.58
644.134	8.56
644.324	8.54
644.515	8.51
644.705	8.45
644.896	8.36
645.086	8.36
645.277	8.39
645.467	8.4
645.658	8.5
645.848	8.5
646.038	8.46
646.229	8.44
646.419	8.37
646.61	8.28
646.8	8.31
646.99	8.24
647.18	8.24
647.371	8.25
647.561	8.27
647.751	8.29
647.941	8.42
648.132	8.4
648.322	8.43
648.512	8.44
648.702	8.44
648.892	8.35
649.082	8.33
649.272	8.3
649.462	8.3
649.653	8.25
649.843	8.28
650.033	8.24
650.223	8.18
650.413	8.11
650.603	8.14
650.793	8.1
650.983	8.14
651.172	8.17
651.362	8.14
651.552	8.08
651.742	8.08
651.932	7.94
652.122	7.99
652.312	7.96
652.502	7.91
652.691	7.83
652.881	7.92
653.071	7.87
653.261	7.83
653.45	7.75
653.64	7.73
653.83	7.77
654.019	7.65
654.209	7.65
654.399	7.64
654.588	7.61
654.778	7.33
654.968	7.32
655.157	7.29
655.347	7.26
655.536	7.23
655.726	7.24
655.915	7.16
656.105	7.1
656.294	7.02
656.484	6.94
656.673	7.01
656.863	7.01
657.052	7.02
657.241	7.05
657.431	7.02
657.62	6.93
657.809	6.83
657.999	6.81
658.188	6.71
658.377	6.68
658.567	6.59
658.756	6.55
658.945	6.43
659.134	6.45
659.324	6.39
659.513	6.4
659.702	6.42
659.891	6.45
660.08	6.37
660.269	6.3
660.458	6.16
660.648	6.05
660.837	5.98
661.026	6.01
661.215	6.04
661.404	6.14
661.593	6.07
661.782	5.97
661.971	5.86
662.16	5.79
662.349	5.68
662.538	5.74
662.726	5.74
662.915	5.79
663.104	5.78
663.293	5.77
663.482	5.71
663.671	5.7
663.86	5.7
664.048	5.71
664.237	5.74
664.426	5.82
664.615	5.77
664.803	5.65
664.992	5.58
665.181	5.6
665.369	5.49
665.558	5.5
665.747	5.49
665.935	5.6
666.124	5.63
666.312	5.71
666.501	5.77
666.69	5.85
666.878	5.85
667.067	5.78
667.255	5.74
667.444	5.6
667.632	5.55
667.82	5.47
668.009	5.56
668.197	5.67
668.386	5.72
668.574	5.76
668.762	5.84
668.951	5.79
669.139	5.76
669.327	5.96
669.516	5.91
669.704	5.91
669.892	6.05
670.08	6.12
670.269	6.03
670.457	6.12
670.645	6.17
670.833	6.09
671.021	6.06
671.21	6.19
671.398	6.31
671.586	6.34
671.774	6.42
671.962	6.51
672.15	6.66
672.338	6.73
672.526	6.93
672.714	6.97
672.902	7.11
673.09	7.05
673.278	6.95
673.466	6.91
673.654	6.96
673.842	6.98
674.03	7.03
674.218	7.25
674.405	7.37
674.593	7.43
674.781	7.36
674.969	7.38
675.157	7.35
675.344	7.37
675.532	7.43
675.72	7.46
675.908	7.56
676.095	7.75
676.283	7.66
676.471	7.67
676.658	7.84
676.846	7.82
677.033	7.69
677.221	7.86
677.409	7.91
677.596	7.95
677.784	7.92
677.971	8.13
678.159	8.22
678.346	8.18
678.534	8.19
678.721	8.28
678.909	8.25
679.096	8.29
679.283	8.43
679.471	8.61
679.658	8.69
679.846	8.75
680.033	8.71
680.22	8.81
680.408	8.73
680.595	8.78
680.782	8.82
680.969	8.9
681.157	8.88
681.344	8.99
681.531	9.08
681.718	9.07
681.905	9.08
682.093	9.13
682.28	9.07
682.467	9.04
682.654	9.02
682.841	9.12
683.028	9.21
683.215	9.32
683.402	9.43
683.589	9.54
683.776	9.64
683.963	9.72
684.15	9.71
684.337	9.8
684.524	9.94
684.711	9.84
684.898	9.86
685.085	9.88
685.271	9.98
685.458	9.97
685.645	10.2
685.832	10.32
686.019	10.68
686.205	10.86
686.392	11.13
686.579	11.22
686.766	11.18
686.952	11.27
687.139	11.29
687.326	11.37
687.512	11.51
687.699	11.7
687.886	11.74
688.072	11.98
688.259	12.15
688.445	12.43
688.632	12.82
688.818	13.05
689.005	13.25
689.191	13.37
689.378	13.54
689.564	13.85
689.751	14.14
689.937	14.4
690.124	14.78
690.31	15
690.496	15.16
690.683	15.4
690.869	15.73
691.055	15.99
691.242	16.27
691.428	16.53
691.614	16.75
691.8	17
691.987	17.32
692.173	17.89
692.359	18.36
692.545	18.88
692.731	19.31
692.918	19.71
693.104	19.89
693.29	20.21
693.476	20.56
693.662	20.89
693.848	21.33
694.034	21.9
694.22	22.47
694.406	22.98
694.592	23.28
694.778	23.9
694.964	24.16
695.15	24.62
695.336	25.17
695.522	25.62
695.708	26
695.894	26.44
696.08	26.65
696.265	26.92
696.451	27.67
696.637	27.95
696.823	28.55
697.009	29.34
697.194	29.89
697.38	30.38
697.566	31.11
697.751	31.79
697.937	32.17
698.123	32.64
698.308	33.11
698.494	33.68
698.68	33.97
698.865	34.12
699.051	34.72
699.236	35.18
699.422	35.53
699.607	36.18
699.793	37.06
699.978	37.49
700.164	37.79
700.349	38.11
700.535	38.4
700.72	38.81
700.906	39.27
701.091	39.79
701.276	40.32
701.462	40.81
701.647	41.46
701.832	41.51
702.018	42.32
702.203	42.81
702.388	43.5
702.573	43.75
702.759	44.23
702.944	44.56
703.129	44.66
703.314	45.07
703.499	45.5
703.684	46.29
703.87	46.2
704.055	46.88
704.24	46.94
704.425	47.28
704.61	47.68
704.795	48.44
704.98	48.95
705.165	49.46
705.35	50.05
705.535	50.26
705.72	50.23
705.905	50.32
706.09	50.51
706.275	50.63
706.459	50.71
706.644	51.4
706.829	51.6
707.014	52.2
707.199	52.27
707.384	52.8
707.568	52.73
707.753	53.2
707.938	53.04
708.123	53.4
708.307	53.9
708.492	54.24
708.677	54.63
708.861	55.28
709.046	55.6
709.231	55.78
709.415	56.41
709.6	56.4
709.784	56.58
709.969	56.52
710.153	56.72
710.338	56.96
710.522	57.4
710.707	57.24
710.891	57.66
711.076	57.6
711.26	57.32
711.445	57.19
711.629	57.53
711.813	57.45
711.998	57.7
712.182	58.45
712.366	58.93
712.551	59.24
712.735	59.77
712.919	59.89
713.103	59.79
713.288	60.44
713.472	60.61
713.656	60.66
713.84	61.31
714.024	61.18
714.208	60.93
714.393	61.32
714.577	61.45
714.761	61.36
714.945	61.76
715.129	61.62
715.313	61.38
715.497	61.84
715.681	61.85
715.865	61.99
716.049	62.29
716.233	62.73
716.417	62.65
716.601	62.87
716.785	63.14
716.968	63.33
717.152	63.22
717.336	63.38
717.52	63.53
717.704	63.49
717.888	64.04
718.071	64.49
718.255	64.63
718.439	64.58
718.622	64.87
718.806	64.23
718.99	64.43
719.174	64.75
719.357	64.87
719.541	64.96
719.724	65.43
719.908	65.67
720.092	65.8
720.275	66.13
720.459	66.44
720.642	66.26
720.826	66.46
721.009	66.65
721.193	66.83
721.376	67.44
721.559	68.11
721.743	67.77
721.926	67.72
722.11	67.88
722.293	67.91
722.476	67.71
722.66	68.13
722.843	68.38
723.026	68.9
723.21	68.88
723.393	69.26
723.576	69.24
723.759	69.34
723.942	69.36
724.126	69.19
724.309	69.09
724.492	69.53
724.675	69.92
724.858	70.06
725.041	70.02
725.224	70.88
725.407	70.81
725.59	71.21
725.774	71.26
725.957	72.03
726.14	71.72
726.322	71.27
726.505	70.89
726.688	71.26
726.871	71.05
727.054	70.66
727.237	71.92
727.42	72.34
727.603	72.87
727.786	73.92
727.968	74.84
728.151	74.56
728.334	74.79
728.517	74.52
728.699	73.7
728.882	73.76
729.065	73.98
729.248	74.57
729.43	74.93
729.613	75.75
729.796	76.64
729.978	76.91
730.161	76.14
730.343	75.96
730.526	75.37
730.708	75.07
730.891	75.49
731.073	76.59
731.256	77.12
731.438	78.09
731.621	77.8
731.803	77.33
731.986	77.07
732.168	77.59
732.35	77.9
732.533	78.75
732.715	80.07
732.898	79.8
733.08	79.43
733.262	79.02
733.444	78.66
733.627	78.21
733.809	78.63
733.991	78.42
734.173	78.86
734.355	78.47
734.538	79.06
734.72	79.26
734.902	79.91
735.084	79.93
735.266	80.05
735.448	79.83
735.63	80.55
735.812	81.39
735.994	81.64
736.176	82.8
736.358	81.99
736.54	81.87
736.722	80.86
736.904	80.97
737.086	80.51
737.268	81.48
737.45	81.72
737.632	81.99
737.814	82.42
737.995	82.8
738.177	82.68
738.359	83.22
738.541	83.39
738.723	83.31
738.904	83.45
739.086	83.85
739.268	82.61
739.449	82.72
739.631	82.1
739.813	82.45
739.994	82.75
740.176	83.24
740.358	83.59
740.539	84.15
740.721	84.31
740.902	84.3
741.084	83.9
741.265	84.66
741.447	84.56
741.628	84.41
741.81	84.59
741.991	85.32
742.172	83.63
742.354	84.03
742.535	84.93
742.717	84.48
742.898	85.7
743.079	86.58
743.261	86.69
743.442	85.95
743.623	86.5
743.804	85.55
743.986	86.26
744.167	86.09
744.348	87
744.529	85.8
744.71	85.25
744.891	84.45
745.073	84.87
745.254	83.66
745.435	85.02
745.616	86.3
745.797	86.78
745.978	86.83
746.159	87.98
746.34	86.98
746.521	86.11
746.702	86.21
746.883	86.55
747.064	86.58
747.245	86.58
747.426	86.9
747.606	87.33
747.787	85.62
747.968	84.17
748.149	84.75
748.33	84.12
748.51	82.45
748.691	84.18
748.872	85.9
749.053	86.84
749.233	88.83
749.414	90.12
749.595	89.83
749.775	90.23
749.956	89.76
750.137	87.12
750.317	86.26
750.498	86.39
750.678	84.78
750.859	84.22
751.04	84.87
751.22	86.83
751.4	86.79
751.581	88.12
751.761	86.96
751.942	87.26
752.122	85.54
752.303	85.82
752.483	84.47
752.663	85.52
752.844	86.9
753.024	88.79
753.204	89.07
753.385	89.44
753.565	90.42
753.745	89
753.925	87.07
754.106	86.31
754.286	86.11
754.466	85.8
754.646	87.38
754.826	87.94
755.006	87.16
755.187	87.6
755.367	86.76
755.547	85.95
755.727	85.73
755.907	86.21
756.087	85.65
756.267	86.19
756.447	86.08
756.627	86.34
756.807	86.81
756.987	86.85
757.167	87.69
757.346	86.57
757.526	86.23
757.706	86.29
757.886	86.97
758.066	85.75
758.246	86.7
758.425	88.36
758.605	87.44
758.785	88.31
758.965	89.95
759.144	91.52
759.324	91.34
759.504	91.58
759.683	92.05
759.863	90.15
760.043	89.14
760.222	89.26
760.402	89.96
760.581	88.58
760.761	89.6
760.94	89.51
761.12	87.93
761.299	87.14
761.479	86.27
761.658	86.23
761.838	86.31
762.017	86.82
762.197	86.23
762.376	88.12
762.555	87.54
762.735	85.69
762.914	84.99
763.093	85.34
763.273	83.09
763.452	83.81
763.631	84.87
763.81	85.06
763.99	87.65
764.169	89.54
764.348	88.28
764.527	88.84
764.706	88.91
764.885	86.85
765.064	86.52
765.243	87.9
765.423	87.35
765.602	86.68
765.781	86.83
765.96	85.81
766.139	85.12
766.318	85.87
766.497	86.56
766.676	86.33
766.854	86.31
767.033	86.31
767.212	84.89
767.391	84.44
767.57	85.08
767.749	86.06
767.928	85.2
768.106	86.29
768.285	86.79
768.464	86.84
768.643	86.04
768.821	86.02
769	84.31
769.179	84.64
769.357	86.06
769.536	86.18
769.715	86.79
769.893	87.64
770.072	87.64
770.25	84.98
770.429	85.79
770.607	85.09
770.786	84.57
770.964	82.95
771.143	83.17
771.321	81.43
771.5	81.11
771.678	82.11
771.857	83.85
772.035	83.04
772.213	84.67
772.392	84.67
772.57	86.07
772.748	84.79
772.927	85.71
773.105	85.08
773.283	85.46
773.461	83.68
773.64	85.01
773.818	84.83
773.996	84.2
774.174	82.86
774.352	82.15
774.531	79.76
774.709	80.57
774.887	80.41
775.065	82.06
775.243	83.27
775.421	82.41
775.599	82.7
775.777	84.02
775.955	83.4
776.133	84.7
776.311	85.47
776.489	84.89
776.667	83.78
776.844	84.64
777.022	84.6
777.2	85.1
777.378	83.84
777.556	84.66
777.734	83.36
777.911	80.89
778.089	81.2
778.267	82.82
778.445	83.33
778.622	82.37
778.8	82.03
778.978	81.04
779.155	78.63
779.333	78
779.511	80.92
779.688	79.73
779.866	82.56
780.043	85.15
780.221	83.81
780.398	82.3
780.576	82.07
780.753	81.41
780.931	80.69
781.108	79.48
781.286	79.35
781.463	82.07
781.64	80.78
781.818	79.31
781.995	81.84
782.172	82.55
782.35	81.39
782.527	80.48
782.704	80.98
782.882	80.17
783.059	79.65
783.236	78.03
783.413	78.25
783.59	79.53
783.768	81.73
783.945	81.61
784.122	85.18
784.299	87.78
784.476	87.41
784.653	86.04
784.83	84.74
785.007	85.32
785.184	84.67
785.361	84.65
785.538	83.85
785.715	82.5
785.892	79.22
786.069	78.65
786.246	78.1
786.423	79.03
786.6	84.17
786.776	87.26
786.953	87.95
787.13	86.71
787.307	84.3
787.484	81.82
787.66	80.24
787.837	81.79
788.014	83.34
788.191	84.79
788.367	85.62
788.544	86.45
788.721	86.08
788.897	86.53
789.074	86.02
789.25	84.99
789.427	85.07
789.603	82.25
789.78	83.65
789.956	84.96
790.133	86.04
790.309	86.36
790.486	85.35
790.662	84.65
790.839	83.81
791.015	80.9
791.192	75.44
791.368	75.24
791.544	74.92
791.721	73.17
791.897	73.35
792.073	77.61
792.249	77.45
792.426	76.34
792.602	75.66
792.778	78.9
792.954	79.86
793.13	85.03
793.307	86.64
793.483	88.25
793.659	88.13
793.835	87.47
794.011	80.16
794.187	78.61
794.363	79.83
794.539	78.4
794.715	78.87
794.891	83.12
795.067	81.72
795.243	81.24
795.419	81.27
795.595	76.28
795.771	76.9
795.947	76.36
796.122	76.75
796.298	74.82
796.474	79.09
796.65	77.21
796.826	78.3
797.001	74.1
797.177	75.12
797.353	72.65
797.529	71.34
797.704	71.97
797.88	78.23
798.056	78.41
798.231	83.23
798.407	84.02
798.582	82.84
798.758	80.46
798.934	77.08
799.109	75.13
799.285	75.81
799.46	74.03
799.636	75.54
799.811	77.01
799.986	74.07
800.162	69.2
800.337	69.07
800.513	71.8
800.688	78.89
800.863	83.96
801.039	87.15
801.214	87.79
801.389	84.96
801.565	85.14
801.74	83.5
801.915	83.93
802.09	86.65
802.265	80.88
802.441	75.92
802.616	71
802.791	67.57
802.966	69.79
803.141	78.64
803.316	87.44
803.491	92.91
803.666	90.75
803.841	88.91
804.016	85.93
804.191	76.9
804.366	75.09
804.541	82.73
804.716	79.24
804.891	81.35
805.066	77.59
805.241	82.63
805.416	81.83
805.591	82.77
805.765	78.25
805.94	82.04
806.115	79.86
806.29	76.61
806.464	76.96
806.639	72.93
806.814	71.48
806.989	72.44
807.163	71.85
807.338	73.74
807.512	77.24
807.687	79.61
807.862	78.33
808.036	75.43
808.211	76.76
808.385	78.1
808.56	76.19
808.734	68.77
808.909	75.65
809.083	77.86
809.258	72.29
809.432	72.57
809.606	75.87
809.781	72.65
809.955	67.36
810.13	67.77
810.304	68.31
810.478	72.2
810.652	77.5
810.827	83.49
811.001	85.47
811.175	87.77
811.349	90.77
811.524	84.08
811.698	74.06
811.872	68.95
812.046	64.36
812.22	60.38
812.394	68.68
812.568	71.58
812.742	71.86
812.916	77.12
813.09	70.52
813.264	64.6
813.438	75.56
813.612	81.51
813.786	88.94
813.96	95.22
814.134	92.11
814.308	79.74
814.482	80.42
814.656	75.03
814.83	76.98
815.003	85.14
815.177	91.61
815.351	96.41
815.525	93.37
815.698	91.67
815.872	79.26
816.046	70
816.219	69.2
816.393	64.74
816.567	63.67
816.74	73.37
816.914	75.93
817.088	76.03
817.261	72.66
817.435	73.78
817.608	78.24
817.782	85.83
817.955	75.98
818.129	87.2
818.302	76.32
818.475	65.18
818.649	52.51
818.822	64.07
818.996	55.8
819.169	73.99
819.342	67.57
819.516	72.19
819.689	71.07
819.862	78.89
820.035	69.1
820.209	78.92
820.382	88.91
820.555	88.15
820.728	73.57
820.901	74.21
821.075	76.2
821.248	71.26
821.421	74.2
821.594	82.5
821.767	85.69
821.94	71.6
822.113	70.85
822.286	48.04
822.459	44.19
822.632	49.43
822.805	60.77
822.978	55.13
823.151	68.29
823.324	86.32
823.496	81.28
823.669	62.32
823.842	63.58
824.015	62.31
824.188	47.53
824.361	54.59
824.533	67.78
824.706	62.7
824.879	67.79
825.051	59.89
825.224	54.1
825.397	56.23
825.569	55.39
825.742	53.75
825.915	55.69
826.087	58.43
826.26	58.77
826.432	76.01
826.605	70.55
826.777	70.57
826.95	61.8
827.122	60.33
827.295	46.66
827.467	57.27
827.64	56
827.812	77.1
827.984	67.24
828.157	69.91
828.329	63.77
828.501	72.34
828.674	63.81
828.846	75.85
829.018	87.94
829.19	80.4
829.363	72.49
829.535	77.66
829.707	76.93
829.879	62.29
830.051	67.88
830.223	74.71
830.395	65.16
830.568	67.98
830.74	71.25
830.912	62.4
831.084	53.95
831.256	47.2
831.428	51.7
831.6	55.01
831.772	69.25
831.943	67.51
832.115	76.86
832.287	74.97
832.459	84.51
832.631	80.54
832.803	82.44
832.975	83.41
833.146	70.01
833.318	60.55
833.49	55.42
833.662	57.07
833.833	57.27
834.005	56.48
834.177	65.78
834.348	63.53
834.52	69.34
834.692	80.56
834.863	92.43
835.035	82.65
835.206	87.4
835.378	90.6
835.549	81.83
835.721	73.09
835.892	68.93
836.064	51.3
836.235	59.35
836.407	67.52
836.578	71.23
836.749	74.41
836.921	65.99
837.092	61.72
837.264	63.91
837.435	60.76
837.606	47.67
837.777	62.43
837.949	68.09
838.12	67.41
838.291	58.59
838.462	70.1
838.633	64.73
838.805	62.05
838.976	61.72
839.147	62.31
839.318	65.62
839.489	59.49
839.66	57.59
839.831	43.63
840.002	54.03
840.173	58.65
840.344	58.38
840.515	52.68
840.686	46.43
840.857	49.29
841.028	50.95
841.199	56.68
841.369	67.44
841.54	88.47
841.711	88.01
841.882	66.6
842.053	67.13
842.223	64.8
842.394	34.9
842.565	55.21
842.736	53.47
842.906	60.5
843.077	62.62
843.248	66.41
843.418	61.57
843.589	70.55
843.759	61.44
843.93	63.7
844.101	46.7
844.271	35.54
844.442	31.65
844.612	17.51
844.783	31.78
844.953	67.88
845.123	52.38
845.294	43.73
845.464	71.68
845.635	65.61
845.805	46.1
845.975	75.53
846.146	87.21
846.316	81.09
846.486	67.88
846.656	79.31
846.827	76.23
846.997	73.35
847.167	72.03
847.337	87.38
847.507	81.72
847.677	91.52
847.848	90.81
848.018	106.67
848.188	100.23
848.358	100.2
848.528	75.68
848.698	78.27
848.868	70.91
849.038	65.18
849.208	67.99
849.378	80.46
849.548	91.69
849.718	97.32
849.887	93.04
850.057	114.75
850.227	78.28
850.397	78.2
850.567	71.44
850.737	75.3
850.906	52.78
851.076	69.17
851.246	51.32
851.415	59.87
851.585	73.39
851.755	109.7
851.924	108.99
852.094	91.41
852.264	96.02
852.433	87.35
852.603	76.39
852.772	69.12
852.942	79.42
853.111	48.13
853.281	36.79
853.45	16.49
853.62	24.58
853.789	36.47
853.959	36.54
854.128	57.8
854.297	72.33
854.467	70.46
854.636	56.17
854.805	116.67
854.975	150.16
855.144	134.29
855.313	153.14
855.482	116.67
855.652	82.31
855.821	90.9
855.99	98.34
856.159	84.96
856.328	92.42
856.497	118.11
856.667	135.87
856.836	97.8
857.005	92.68
857.174	72.07
857.343	82.32
857.512	62.6
857.681	73.61
857.85	65.01
858.019	72.42
858.188	80.89
858.356	99.44
858.525	127.68
858.694	329.03
858.863	217.86
859.032	138.83
859.201	177.69
859.369	107.62
859.538	44.07
859.707	49.9
859.876	47.71
860.044	39.29
860.213	43.79
860.382	56.01
860.55	35.78
860.719	34.33
860.888	45.61
861.056	44.44
861.225	42.72
861.393	40.4
861.562	36.45
861.73	11.36
861.899	43
862.067	64.73
862.236	90.07
862.404	89.97
862.572	105
862.741	98.21
862.909	64.35
863.078	62.93
863.246	79.23
863.414	72.29
863.582	58.78
863.751	59.41
863.919	55.03
864.087	19.85
864.255	13.06
864.424	10.04
864.592	15.2
864.76	33.3
864.928	82.78
865.096	123.83
865.264	118.88
865.432	85.58
865.6	76.44
865.768	70.47
865.936	55.73
866.104	70.8
866.272	88.98
866.44	96.81
866.608	68.77
866.776	61.93
866.944	60.91
867.112	52.12
867.28	48.18
867.448	49.92
867.615	40.32
867.783	45.84
867.951	18.14
868.119	9.04
868.286	4.58
868.454	35.98
868.622	21.25
868.789	64.89
868.957	38.25
869.125	78.21
869.292	42.47
869.46	72.51
869.627	89.93
869.795	106.92
869.963	107.35
870.13	122.29
870.298	98.57
870.465	72.18
870.632	66.94
870.8	89.73
870.967	69.45
871.135	43.17
871.302	48.78
871.469	13.19
871.637	-21.48
871.804	11.84
871.971	59.14
872.139	67.06
872.306	77.91
872.473	89.67
872.64	95.32
872.807	55.93
872.975	44.36
873.142	79.08
873.309	69.26
873.476	24.08
873.643	-1.52
873.81	-1.68
873.977	-34.83
874.144	-0.91
874.311	52.57
874.478	85.98
874.645	92.02
874.812	85.26
874.979	69.06
875.146	81.54
875.313	73.39
875.48	51.71
875.647	76.98
875.813	81.74
875.98	69.46
876.147	64.05
876.314	53.62
876.481	65.5
876.647	129.59
876.814	162.6
876.981	-243.57
877.147	-357.34
877.314	91.64
877.481	102.92
877.647	38.76
877.814	65.79
877.98	87.67
878.147	83.75
878.314	17.09
878.48	66.27
878.647	74.66
878.813	19.84
878.979	21.4
879.146	63.83
879.312	61.47
879.479	46.98
879.645	60.11
879.811	72.78
879.978	81.89
880.144	54.29
880.31	8.72
880.477	66.53
880.643	52.81
880.809	-40.52
880.975	-248.5
881.142	-17.44
881.308	-191.83
881.474	-39.33
881.64	28.73
881.806	49.07
881.972	53
882.138	62.59
882.304	37.35
882.47	92.88
882.636	309.92
882.802	156.67
882.968	59.94
883.134	59.89
883.3	40.31
883.466	41.05
883.632	51.34
883.798	73.8
883.964	83.33
884.129	98.27
884.295	91.73
884.461	95.28
884.627	89.21
884.793	92.97
884.958	76.85
885.124	87.28
885.29	97.57
885.455	115.44
885.621	139.93
885.787	165.36
885.952	270.13
886.118	162.46
886.283	122.46
886.449	134.86
886.614	112.49
886.78	75.2
886.945	104.02
887.111	283.78
887.276	-1587.04
887.442	-550.95
887.607	324.3
887.773	134.58
887.938	95.22
888.103	78.19
888.269	70.67
888.434	81.54
888.599	79.78
888.764	96.09
888.93	205.39
889.095	167.44
889.26	165.61
889.425	-5926.19
889.59	-1323.33
889.756	261.58
889.921	1960.26
890.086	319.95
890.251	-64.44
890.416	0.27
890.581	-148.2
890.746	-42.34
890.911	42.4
891.076	47.9
891.241	40.45
891.406	69.67
891.571	19.03
891.736	11.03
891.901	2.35
892.065	8.01
892.23	-115.48
892.395	36.72
892.56	35.63
892.725	1.89
892.889	12.62
893.054	53.81
893.219	46.45
893.384	37.66
893.548	100.58
893.713	81.32
893.878	79.46
