Data from Ofra_1a_PS_2HS27_Reflection_1.txt Node
Date: Tue Jul 20 10:53:27 EDT 2021
User: Adam
Spectrometer: FLMT01687
Trigger mode: 0
Integration Time (sec): 1.004000E0
Scans to average: 2
Electric dark correction enabled: true
Nonlinearity correction enabled: false
Boxcar width: 2
XAxis mode: Wavelengths
Number of Pixels in Spectrum: 3648
>>>>>Begin Spectral Data<<<<<
179.494	-199.49
179.716	-375.57
179.937	693.31
180.158	-861.78
180.38	109.03
180.601	39.83
180.823	-48.7
181.044	-127.42
181.265	-89.5
181.486	185.3
181.708	128.43
181.929	-6681.82
182.15	-19.89
182.372	-214.29
182.593	463.79
182.814	-331.58
183.035	-38.95
183.257	7.31
183.478	-13.99
183.699	-7.87
183.92	-30.73
184.141	-42.66
184.363	-39.62
184.584	-56.98
184.805	-13.68
185.026	11.07
185.247	-3.62
185.468	-19.66
185.689	2.03
185.91	-29.15
186.132	-28.09
186.353	3.31
186.574	0.3
186.795	-9.23
187.016	7.73
187.237	10.24
187.458	2.03
187.679	1.34
187.9	38.11
188.121	54.83
188.342	58.46
188.563	60.48
188.784	81.24
189.005	61
189.226	60.72
189.447	59.6
189.667	38.25
189.888	26.37
190.109	20.06
190.33	12.06
190.551	11.12
190.772	43.84
190.993	39.08
191.214	41
191.434	41.44
191.655	39.63
191.876	28.3
192.097	20.45
192.318	33.23
192.538	0.64
192.759	7.96
192.98	10.76
193.201	21.8
193.421	6.89
193.642	23.28
193.863	31.83
194.083	20.25
194.304	21.95
194.525	24.62
194.745	8.64
194.966	2.22
195.187	15.74
195.407	-12.92
195.628	4.16
195.848	18.85
196.069	6.42
196.29	2.77
196.51	9.52
196.731	3.21
196.951	-21.41
197.172	-6.34
197.392	-26.48
197.613	5.67
197.833	-5.6
198.054	8.45
198.274	1.14
198.495	-0.38
198.715	-20.08
198.936	1.56
199.156	6.99
199.377	5.78
199.597	30.66
199.817	51.29
200.038	24.35
200.258	32.43
200.479	28.98
200.699	22.34
200.919	-12.78
201.14	1.13
201.36	-10.69
201.58	5.99
201.801	-15.59
202.021	-8.89
202.241	-23.56
202.461	-17.26
202.682	-10.3
202.902	4.45
203.122	14.79
203.342	33.45
203.563	24.34
203.783	-10.03
204.003	-20.22
204.223	-9.36
204.443	-10.94
204.663	-45.67
204.884	-7.56
205.104	3.68
205.324	17.82
205.544	-11.39
205.764	39.63
205.984	37.59
206.204	57.24
206.424	35.08
206.644	20.85
206.864	-41.8
207.084	-15.43
207.304	-55.95
207.525	-46.51
207.745	-8.11
207.964	24.54
208.184	20.06
208.404	21.06
208.624	30.52
208.844	9.59
209.064	-1
209.284	-9.8
209.504	-16.6
209.724	-22.78
209.944	-18.53
210.164	-20.64
210.384	-31.31
210.604	-72.53
210.823	-99.87
211.043	-82.13
211.263	-180.7
211.483	-99.88
211.703	-71.28
211.922	-79.89
212.142	-48.47
212.362	-7.05
212.582	-17.24
212.801	3.06
213.021	-32
213.241	-57.1
213.461	-57.41
213.68	-27
213.9	-27.03
214.12	-7.65
214.339	-2.66
214.559	12.01
214.779	-18
214.998	-11.19
215.218	-0.16
215.438	10.97
215.657	0.48
215.877	-7.15
216.096	2.23
216.316	-6.75
216.535	-12.52
216.755	-8.75
216.974	-11.2
217.194	-11.1
217.413	-4.72
217.633	-29.29
217.852	-40.36
218.072	-18.52
218.291	-35.32
218.511	-31.1
218.73	-14.9
218.95	-8.78
219.169	-10.97
219.389	6.31
219.608	-4.65
219.827	-6.22
220.047	1.93
220.266	6.71
220.485	-2.99
220.705	8.18
220.924	12.55
221.143	25.42
221.363	18.43
221.582	29.96
221.801	40.52
222.021	46.08
222.24	45.82
222.459	59.63
222.678	50.7
222.897	44.1
223.117	41.33
223.336	54.24
223.555	54.51
223.774	76.82
223.993	99.76
224.213	86.98
224.432	57.12
224.651	44.58
224.87	25.5
225.089	0.05
225.308	11.05
225.527	10.53
225.746	17.04
225.965	26.63
226.184	17.35
226.404	6.8
226.623	4.95
226.842	-8.21
227.061	-10.87
227.28	15.35
227.499	12.71
227.718	21.47
227.936	31.82
228.155	16.87
228.374	6.83
228.593	20.14
228.812	-8.35
229.031	-2.44
229.25	-3.2
229.469	-12.27
229.688	-10.93
229.907	15.63
230.125	8.05
230.344	11.71
230.563	8.72
230.782	6.52
231.001	-3.43
231.22	-19.18
231.438	-14.49
231.657	11.02
231.876	4.08
232.095	12.07
232.313	9.99
232.532	11.21
232.751	0.24
232.969	9.99
233.188	10.71
233.407	17.12
233.625	20.71
233.844	18.02
234.063	13.82
234.281	6.61
234.5	15.88
234.719	10.27
234.937	-8.64
235.156	-7.97
235.374	1.47
235.593	-3.14
235.811	18.39
236.03	32.85
236.249	38.5
236.467	29.16
236.686	22.19
236.904	14.34
237.123	10.46
237.341	8.15
237.559	0.52
237.778	11.79
237.996	-22.66
238.215	-67.68
238.433	-139.45
238.652	-52.8
238.87	-67.63
239.088	-46.76
239.307	-20.35
239.525	0.89
239.743	3.91
239.962	13.15
240.18	21.13
240.398	30.57
240.617	19.49
240.835	-4.24
241.053	1.9
241.271	-2.42
241.49	19.31
241.708	12.29
241.926	22.06
242.144	32.34
242.363	22.53
242.581	-17.63
242.799	3.54
243.017	-3.02
243.235	-4.3
243.453	-0.44
243.672	6.29
243.89	6.95
244.108	22
244.326	35.23
244.544	42.52
244.762	23.95
244.98	24.43
245.198	16.24
245.416	-6.7
245.634	-17.1
245.852	-20.34
246.07	-0.3
246.288	5.8
246.506	14.35
246.724	8.75
246.942	13.81
247.16	4.49
247.378	-8.95
247.596	-1.35
247.814	-9.16
248.032	10.22
248.25	16.17
248.468	12.52
248.685	11.11
248.903	9.47
249.121	9.61
249.339	8.8
249.557	15.87
249.775	24.79
249.992	31.62
250.21	29.85
250.428	37.68
250.646	42.87
250.863	24.54
251.081	25.35
251.299	32.01
251.517	18.4
251.734	12.26
251.952	11.89
252.17	3.03
252.387	-19.43
252.605	-26.86
252.823	-59.3
253.04	-16.55
253.258	-0.19
253.475	12.12
253.693	2.91
253.911	13.69
254.128	-11.56
254.346	1.47
254.563	11.75
254.781	26.47
254.998	15.98
255.216	5.01
255.433	-54.23
255.651	-47.05
255.868	-49.94
256.086	-20.88
256.303	-9.43
256.521	17.18
256.738	17.32
256.956	19.5
257.173	8.49
257.39	13.75
257.608	3.79
257.825	6.76
258.043	18.18
258.26	11.42
258.477	9.23
258.695	16.08
258.912	1.72
259.129	-23.53
259.346	-48.52
259.564	-40.66
259.781	-40.72
259.998	-18.84
260.216	-4.56
260.433	4.2
260.65	10.82
260.867	-4.12
261.084	-10.88
261.302	-15.25
261.519	-0.62
261.736	-30.33
261.953	-20.81
262.17	-8.64
262.387	-8.33
262.604	-16.92
262.822	7.13
263.039	14.26
263.256	10.51
263.473	9.66
263.69	17.18
263.907	18.3
264.124	32.23
264.341	33.37
264.558	34.42
264.775	42.51
264.992	38.7
265.209	2.53
265.426	-1.58
265.643	-17.55
265.86	-67.15
266.077	-75.48
266.294	-34.23
266.51	4.94
266.727	24.75
266.944	28.73
267.161	20.76
267.378	25.13
267.595	1.79
267.812	-8.73
268.028	-11.61
268.245	6.95
268.462	6.92
268.679	13.91
268.896	28.96
269.112	12.97
269.329	-0.15
269.546	11.18
269.763	1.68
269.979	-14.57
270.196	3.57
270.413	10.01
270.629	-4.04
270.846	-15.69
271.063	-9.65
271.279	-4.99
271.496	-21.21
271.712	-8.22
271.929	6.55
272.146	32.85
272.362	34.54
272.579	23.5
272.795	21.32
273.012	34.33
273.228	20.33
273.445	15.55
273.661	15.45
273.878	11.7
274.094	7.82
274.311	13.24
274.527	6.79
274.744	26.78
274.96	22.46
275.177	24.66
275.393	29.2
275.609	37.96
275.826	37.12
276.042	33.27
276.259	32.75
276.475	17.77
276.691	5.86
276.908	5.47
277.124	16.31
277.34	20.22
277.557	3.71
277.773	11.09
277.989	4.89
278.205	11.79
278.422	-8.94
278.638	8.38
278.854	-0.28
279.07	20.61
279.286	13.49
279.503	31.73
279.719	26.49
279.935	16.23
280.151	-3.63
280.367	0.6
280.583	4.16
280.799	-2.08
281.016	-17.82
281.232	-1.59
281.448	-17.94
281.664	-30.3
281.88	-18.55
282.096	8.15
282.312	14.79
282.528	9.39
282.744	0.52
282.96	-24.08
283.176	-48.25
283.392	-105.35
283.608	-61.09
283.824	-41.65
284.04	-54.09
284.256	-31.49
284.471	-23.77
284.687	-16.84
284.903	-11.97
285.119	-0.22
285.335	8.6
285.551	25.22
285.767	13.45
285.982	10.55
286.198	-14.29
286.414	-38.27
286.63	-87.81
286.846	-58.88
287.061	-46.89
287.277	-8.98
287.493	-7.1
287.709	14.38
287.924	23.49
288.14	43.68
288.356	57.15
288.571	64.94
288.787	40.04
289.003	35.27
289.218	9.79
289.434	-22.23
289.65	8.68
289.865	22.68
290.081	17.86
290.296	19.86
290.512	25.61
290.727	3.09
290.943	0.98
291.159	1.79
291.374	-2.13
291.59	-2.36
291.805	-18.21
292.021	-17.62
292.236	-17.73
292.451	-27.08
292.667	-31.64
292.882	-11.77
293.098	0.61
293.313	-11.86
293.529	2.76
293.744	-2.33
293.959	-7.21
294.175	-13.77
294.39	-8.64
294.605	7.91
294.821	16.73
295.036	25.59
295.251	27.8
295.467	22.1
295.682	20.58
295.897	8.81
296.112	2.95
296.328	-0.95
296.543	-3.89
296.758	-21.31
296.973	5.85
297.188	-4.17
297.404	-25.56
297.619	-37.85
297.834	-42.48
298.049	-56.68
298.264	-43.84
298.479	2.01
298.694	34.71
298.909	47.47
299.125	38.39
299.34	48.16
299.555	31.75
299.77	27.92
299.985	22.31
300.2	26.97
300.415	14.77
300.63	22.76
300.845	14.92
301.06	14.82
301.275	9.54
301.49	23.16
301.704	16.65
301.919	14.93
302.134	6.21
302.349	11.1
302.564	-5.91
302.779	-21.72
302.994	6.64
303.209	13.1
303.423	23.3
303.638	58.44
303.853	65.28
304.068	20.28
304.283	36.77
304.497	7.04
304.712	-6.8
304.927	-0.38
305.142	14.85
305.356	5.03
305.571	16.25
305.786	23.52
306	28.17
306.215	22.9
306.43	16.25
306.644	-1.43
306.859	-27.86
307.074	-16.43
307.288	0.05
307.503	15.08
307.717	16.5
307.932	16.49
308.147	3.12
308.361	-3.05
308.576	-40.33
308.79	-16.98
309.005	-33.28
309.219	-17.44
309.434	-33.6
309.648	-12.5
309.863	-21.02
310.077	3.33
310.292	9.72
310.506	24.1
310.72	20.56
310.935	34.8
311.149	32.2
311.364	30.7
311.578	27.22
311.792	25.04
312.007	17.69
312.221	8.52
312.435	4.09
312.649	16.62
312.864	-20.65
313.078	-31.47
313.292	-31.67
313.507	-30.93
313.721	-42.32
313.935	0.97
314.149	25.85
314.363	29.37
314.578	34.94
314.792	40.89
315.006	36.69
315.22	10.14
315.434	11.73
315.648	-17.04
315.862	-7.92
316.077	-25.41
316.291	-16.33
316.505	-40.2
316.719	-11.34
316.933	-1.26
317.147	18.65
317.361	6.66
317.575	31.99
317.789	35.11
318.003	22.66
318.217	16.09
318.431	10.16
318.645	-18.57
318.859	-11.56
319.073	2.18
319.287	5.39
319.5	6.15
319.714	12.98
319.928	2.47
320.142	-12.15
320.356	-2.14
320.57	-15.42
320.784	-13.79
320.997	-25.47
321.211	3.53
321.425	-21.42
321.639	10.5
321.853	20.61
322.066	19.15
322.28	0.21
322.494	8.2
322.707	10.14
322.921	4.2
323.135	22.35
323.349	26.88
323.562	24.08
323.776	12.01
323.989	19.76
324.203	0.79
324.417	6.56
324.63	6.9
324.844	3.39
325.057	-19.37
325.271	-4.96
325.485	-17.89
325.698	-13.07
325.912	3.01
326.125	2.47
326.339	1.92
326.552	8.45
326.766	-2.89
326.979	-1.24
327.193	3.32
327.406	-4.49
327.619	2.18
327.833	12.6
328.046	2.22
328.26	4.96
328.473	26.43
328.686	26.63
328.9	28.38
329.113	28.09
329.326	25.22
329.54	14.62
329.753	16.84
329.966	13.78
330.179	12.42
330.393	11.16
330.606	-3.49
330.819	-14.44
331.032	-9.59
331.246	3.37
331.459	20.64
331.672	35.22
331.885	29.08
332.098	31.44
332.311	13.97
332.525	0.96
332.738	9.85
332.951	10.83
333.164	7.16
333.377	18.82
333.59	20.34
333.803	13.77
334.016	22.09
334.229	26.98
334.442	23.61
334.655	20.37
334.868	11.28
335.081	10.8
335.294	0.98
335.507	8.87
335.72	7.62
335.933	20.04
336.146	18.58
336.359	18.6
336.572	21.19
336.785	32.58
336.997	28.19
337.21	18.17
337.423	17.94
337.636	-0.17
337.849	-14.7
338.062	-12.14
338.274	6.9
338.487	-2.23
338.7	-17.46
338.913	-3.82
339.125	-14.29
339.338	-23.58
339.551	-3.73
339.763	8.4
339.976	5.78
340.189	15.27
340.402	23.7
340.614	15.95
340.827	25.97
341.039	23.19
341.252	20.49
341.465	4.98
341.677	-1.77
341.89	-11.12
342.102	1.45
342.315	-7.52
342.527	-9.29
342.74	-6.21
342.952	-15.07
343.165	-9.62
343.377	3.09
343.59	9.2
343.802	11.45
344.015	22.13
344.227	13.03
344.44	-0.72
344.652	2.46
344.864	10.71
345.077	18.63
345.289	23.44
345.502	44.68
345.714	39.88
345.926	28.84
346.139	7.67
346.351	8.71
346.563	-9.65
346.775	-13.44
346.988	-0.14
347.2	-5.96
347.412	-5.73
347.624	10.2
347.837	17.33
348.049	5.37
348.261	3.02
348.473	-13.3
348.685	-17.5
348.897	-18.43
349.11	-5.53
349.322	-5.71
349.534	-6.6
349.746	-10.5
349.958	-31.15
350.17	-63.27
350.382	-45.23
350.594	-24.06
350.806	-9.12
351.018	9
351.23	31.07
351.442	30.5
351.654	29.65
351.866	20.74
352.078	20.68
352.29	8.32
352.502	12.48
352.714	22.25
352.926	19.74
353.138	13.16
353.35	1.99
353.561	-5.78
353.773	-10.9
353.985	0.15
354.197	-0.42
354.409	12.02
354.621	7.27
354.832	14.76
355.044	-8.62
355.256	0.23
355.468	-15.38
355.679	9.39
355.891	9.5
356.103	15.55
356.314	8.48
356.526	7.62
356.738	-14.98
356.949	-30.07
357.161	-16.1
357.373	-2.76
357.584	4.89
357.796	21.73
358.008	27.01
358.219	24.79
358.431	13.89
358.642	21
358.854	6.6
359.065	6.81
359.277	4.04
359.488	3.91
359.7	-7.69
359.911	-21.41
360.123	-18.53
360.334	-28.09
360.546	-24.14
360.757	-15.79
360.969	3.7
361.18	6.27
361.391	16.87
361.603	16.65
361.814	7.12
362.025	10.09
362.237	15.13
362.448	19.06
362.659	25.94
362.871	18.66
363.082	17.88
363.293	15.02
363.504	-6.13
363.716	-17.52
363.927	13.83
364.138	-13.27
364.349	-28.88
364.56	-36.96
364.772	-19.56
364.983	-22.43
365.194	2.08
365.405	12.52
365.616	26
365.827	13.69
366.038	19.17
366.25	11.99
366.461	14.89
366.672	13.61
366.883	12.42
367.094	-2.78
367.305	-10.85
367.516	-10.1
367.727	-39.64
367.938	-35.06
368.149	-23.64
368.36	-24.14
368.571	-47.91
368.781	-22.94
368.992	-26.62
369.203	-25.34
369.414	-24.41
369.625	-7.16
369.836	13.06
370.047	15.81
370.258	21.01
370.468	20.61
370.679	9.09
370.89	-5.74
371.101	-4.3
371.312	-30.27
371.522	-35.47
371.733	-24.2
371.944	-33.82
372.155	-16.73
372.365	-2.5
372.576	9.99
372.787	16.99
372.997	15.67
373.208	14.65
373.419	11.03
373.629	-11.79
373.84	-25.11
374.05	-27.25
374.261	-54.31
374.472	-34.05
374.682	-17.08
374.893	-23.14
375.103	-5.12
375.314	12.1
375.524	6.8
375.735	14.56
375.945	27.32
376.156	22.79
376.366	21.22
376.577	29.23
376.787	25.44
376.997	28.18
377.208	25.26
377.418	21.73
377.629	8.82
377.839	15.64
378.049	8.13
378.26	-0.7
378.47	-18.49
378.68	-8.87
378.89	-9.47
379.101	-4.06
379.311	4.18
379.521	11.21
379.732	21.96
379.942	15.9
380.152	4.83
380.362	7.92
380.572	23.21
380.783	26.97
380.993	26.63
381.203	25.39
381.413	18.29
381.623	4.61
381.833	2.28
382.043	-5.3
382.253	-1.29
382.463	5.02
382.674	2.28
382.884	-2.53
383.094	2.86
383.304	11.17
383.514	12.48
383.724	16.46
383.934	12.72
384.144	11.5
384.353	8.81
384.563	12.54
384.773	16.83
384.983	12.59
385.193	5.68
385.403	-1.75
385.613	-5.16
385.823	-10.82
386.033	-1.26
386.242	-2.7
386.452	2.34
386.662	4.22
386.872	7.88
387.082	1.94
387.291	4.91
387.501	6.04
387.711	6.9
387.921	8.85
388.13	9.85
388.34	9.54
388.55	4.7
388.759	0.91
388.969	-1.25
389.179	-2.89
389.388	-0.14
389.598	1.24
389.807	-3.73
390.017	-6.18
390.227	-5.86
390.436	-2.56
390.646	-3.16
390.855	2.06
391.065	3.24
391.274	5.18
391.484	1.35
391.693	1.24
391.903	0.88
392.112	1.68
392.322	-0.08
392.531	0.22
392.74	-0.39
392.95	0.03
393.159	0.43
393.369	1.01
393.578	1.1
393.787	1.61
393.997	1.46
394.206	-0.24
394.415	1.82
394.625	0.88
394.834	-0.21
395.043	0.27
395.252	2.09
395.462	1.86
395.671	2.28
395.88	3.53
396.089	3.13
396.298	1.98
396.508	1.94
396.717	2.14
396.926	2.1
397.135	2.4
397.344	2.36
397.553	1.72
397.762	2.65
397.971	2.61
398.181	2.88
398.39	3.08
398.599	3.61
398.808	3.75
399.017	4.51
399.226	4.63
399.435	4.72
399.644	4.92
399.853	4.51
400.062	4.08
400.27	3.35
400.479	3.25
400.688	3.06
400.897	2.82
401.106	2.81
401.315	3.04
401.524	3.11
401.733	2.59
401.941	2.86
402.15	2.87
402.359	2.84
402.568	3.04
402.777	3.46
402.985	3.22
403.194	3.23
403.403	3.33
403.612	3.21
403.82	2.81
404.029	2.84
404.238	2.75
404.446	2.94
404.655	3.09
404.864	3.41
405.072	3.59
405.281	3.62
405.489	3.47
405.698	3.42
405.906	3.34
406.115	3.18
406.324	3.24
406.532	3.27
406.741	3.11
406.949	3.19
407.158	3.21
407.366	3.02
407.574	3.04
407.783	3.08
407.991	3.08
408.2	3.22
408.408	3.35
408.617	3.2
408.825	3.09
409.033	3.04
409.242	2.9
409.45	2.78
409.658	2.78
409.867	2.87
410.075	2.84
410.283	2.87
410.491	2.84
410.7	2.77
410.908	2.82
411.116	2.87
411.324	2.76
411.533	2.81
411.741	2.96
411.949	2.92
412.157	2.84
412.365	2.98
412.573	2.97
412.781	2.96
412.99	2.95
413.198	3.04
413.406	3.06
413.614	3.13
413.822	3.07
414.03	3.08
414.238	3.03
414.446	3
414.654	2.89
414.862	2.91
415.07	2.8
415.278	2.96
415.486	2.74
415.694	2.8
415.902	2.75
416.109	2.8
416.317	2.59
416.525	2.67
416.733	2.62
416.941	2.62
417.149	2.55
417.357	2.57
417.564	2.57
417.772	2.66
417.98	2.73
418.188	2.73
418.395	2.61
418.603	2.57
418.811	2.45
419.019	2.43
419.226	2.44
419.434	2.66
419.642	2.65
419.849	2.63
420.057	2.45
420.265	2.51
420.472	2.37
420.68	2.4
420.887	2.44
421.095	2.66
421.302	2.64
421.51	2.54
421.717	2.62
421.925	2.61
422.132	2.55
422.34	2.32
422.547	2.31
422.755	2.26
422.962	2.33
423.17	2.15
423.377	2.28
423.585	2.5
423.792	2.54
423.999	2.52
424.207	2.29
424.414	2.33
424.621	2.25
424.829	2.31
425.036	2.42
425.243	2.69
425.451	2.57
425.658	2.51
425.865	2.4
426.072	2.31
426.28	2.5
426.487	2.61
426.694	2.52
426.901	2.59
427.108	2.37
427.315	2.3
427.523	2.18
427.73	2.2
427.937	1.99
428.144	2.23
428.351	2.12
428.558	2.37
428.765	2.51
428.972	2.62
429.179	2.46
429.386	2.57
429.593	2.38
429.8	2.37
430.007	2.4
430.214	2.43
430.421	2.46
430.628	2.47
430.835	2.34
431.042	2.41
431.249	2.49
431.456	2.43
431.662	2.6
431.869	2.78
432.076	2.76
432.283	2.88
432.49	2.86
432.697	2.77
432.903	2.67
433.11	2.79
433.317	2.74
433.524	2.88
433.73	2.84
433.937	2.87
434.144	2.65
434.35	2.62
434.557	2.54
434.764	2.66
434.97	2.7
435.177	2.96
435.384	3
435.59	2.93
435.797	2.88
436.003	2.9
436.21	2.71
436.416	2.65
436.623	2.8
436.829	2.75
437.036	2.65
437.242	2.72
437.449	2.63
437.655	2.59
437.862	2.65
438.068	2.69
438.275	2.76
438.481	2.9
438.687	2.96
438.894	3.1
439.1	3.02
439.307	3.07
439.513	3.08
439.719	3.09
439.926	3.03
440.132	3.24
440.338	3.13
440.544	3.08
440.751	2.97
440.957	3.09
441.163	2.95
441.369	3.03
441.575	2.99
441.782	3.09
441.988	2.98
442.194	3.04
442.4	3.02
442.606	3.28
442.812	3.31
443.018	3.28
443.224	3.38
443.431	3.42
443.637	3.26
443.843	3.31
444.049	3.44
444.255	3.35
444.461	3.28
444.667	3.33
444.873	3.22
445.079	3.15
445.284	3.15
445.49	3.1
445.696	3.06
445.902	3.13
446.108	3.18
446.314	3.17
446.52	3.36
446.726	3.44
446.931	3.37
447.137	3.4
447.343	3.5
447.549	3.45
447.755	3.37
447.96	3.44
448.166	3.41
448.372	3.4
448.578	3.29
448.783	3.33
448.989	3.37
449.195	3.29
449.4	3.35
449.606	3.44
449.812	3.51
450.017	3.54
450.223	3.59
450.428	3.54
450.634	3.5
450.84	3.42
451.045	3.38
451.251	3.36
451.456	3.38
451.662	3.47
451.867	3.55
452.073	3.53
452.278	3.53
452.483	3.56
452.689	3.45
452.894	3.46
453.1	3.46
453.305	3.53
453.51	3.56
453.716	3.64
453.921	3.7
454.127	3.67
454.332	3.6
454.537	3.55
454.742	3.53
454.948	3.48
455.153	3.52
455.358	3.57
455.563	3.7
455.769	3.67
455.974	3.64
456.179	3.61
456.384	3.51
456.589	3.38
456.795	3.41
457	3.43
457.205	3.34
457.41	3.44
457.615	3.47
457.82	3.47
458.025	3.48
458.23	3.64
458.435	3.69
458.64	3.67
458.845	3.68
459.05	3.69
459.255	3.68
459.46	3.51
459.665	3.57
459.87	3.63
460.075	3.7
460.28	3.76
460.485	3.93
460.69	3.89
460.895	3.88
461.099	3.77
461.304	3.63
461.509	3.65
461.714	3.72
461.919	3.65
462.123	3.72
462.328	3.74
462.533	3.64
462.738	3.61
462.942	3.47
463.147	3.52
463.352	3.53
463.556	3.62
463.761	3.54
463.966	3.69
464.17	3.68
464.375	3.77
464.58	3.75
464.784	3.84
464.989	3.91
465.193	3.87
465.398	3.8
465.602	3.94
465.807	3.93
466.011	3.86
466.216	3.85
466.42	3.9
466.625	3.86
466.829	3.91
467.034	4.07
467.238	4.14
467.443	4.14
467.647	4.05
467.851	4.07
468.056	4.04
468.26	4
468.464	4.03
468.669	4.11
468.873	4.1
469.077	4.07
469.282	4.11
469.486	4.13
469.69	4.13
469.894	4.12
470.099	4.13
470.303	4.11
470.507	4.12
470.711	4.11
470.915	4.23
471.119	4.35
471.324	4.45
471.528	4.45
471.732	4.58
471.936	4.55
472.14	4.46
472.344	4.51
472.548	4.55
472.752	4.47
472.956	4.46
473.16	4.49
473.364	4.45
473.568	4.34
473.772	4.31
473.976	4.42
474.18	4.47
474.384	4.49
474.588	4.62
474.792	4.65
474.995	4.61
475.199	4.59
475.403	4.64
475.607	4.65
475.811	4.74
476.015	4.63
476.218	4.7
476.422	4.68
476.626	4.74
476.83	4.76
477.033	4.9
477.237	4.92
477.441	4.98
477.644	4.94
477.848	4.87
478.052	4.85
478.255	4.88
478.459	4.8
478.663	4.89
478.866	5
479.07	4.96
479.273	5.03
479.477	5.16
479.681	5.16
479.884	5.06
480.088	5.11
480.291	5.05
480.495	4.95
480.698	4.94
480.901	5.04
481.105	5.09
481.308	5.06
481.512	5.08
481.715	5.23
481.919	5.28
482.122	5.28
482.325	5.4
482.529	5.48
482.732	5.34
482.935	5.3
483.138	5.31
483.342	5.29
483.545	5.34
483.748	5.43
483.952	5.48
484.155	5.53
484.358	5.57
484.561	5.48
484.764	5.39
484.967	5.33
485.171	5.35
485.374	5.22
485.577	5.26
485.78	5.29
485.983	5.24
486.186	5.19
486.389	5.33
486.592	5.32
486.795	5.35
486.998	5.38
487.201	5.41
487.404	5.48
487.607	5.55
487.81	5.48
488.013	5.58
488.216	5.54
488.419	5.43
488.622	5.39
488.825	5.46
489.028	5.41
489.231	5.48
489.433	5.41
489.636	5.44
489.839	5.46
490.042	5.46
490.245	5.35
490.447	5.38
490.65	5.34
490.853	5.37
491.056	5.36
491.258	5.45
491.461	5.4
491.664	5.4
491.866	5.33
492.069	5.42
492.272	5.35
492.474	5.49
492.677	5.49
492.879	5.49
493.082	5.44
493.285	5.52
493.487	5.48
493.69	5.48
493.892	5.45
494.095	5.44
494.297	5.43
494.5	5.44
494.702	5.5
494.905	5.57
495.107	5.58
495.309	5.57
495.512	5.55
495.714	5.58
495.917	5.68
496.119	5.76
496.321	5.79
496.524	5.8
496.726	5.74
496.928	5.68
497.13	5.65
497.333	5.59
497.535	5.61
497.737	5.68
497.939	5.66
498.142	5.66
498.344	5.73
498.546	5.75
498.748	5.76
498.95	5.87
499.152	5.88
499.355	5.87
499.557	5.93
499.759	6.03
499.961	5.97
500.163	6.01
500.365	6.11
500.567	6.02
500.769	5.99
500.971	6.02
501.173	5.98
501.375	5.99
501.577	6.05
501.779	6.05
501.981	6.08
502.183	6.11
502.385	6.1
502.587	6.19
502.788	6.2
502.99	6.21
503.192	6.22
503.394	6.2
503.596	6.12
503.798	6.07
503.999	6.04
504.201	6.09
504.403	6.16
504.605	6.26
504.806	6.35
505.008	6.44
505.21	6.46
505.411	6.45
505.613	6.38
505.815	6.38
506.016	6.36
506.218	6.41
506.42	6.39
506.621	6.48
506.823	6.47
507.024	6.48
507.226	6.5
507.427	6.54
507.629	6.56
507.83	6.66
508.032	6.68
508.233	6.7
508.435	6.74
508.636	6.79
508.838	6.74
509.039	6.79
509.24	6.79
509.442	6.81
509.643	6.78
509.845	6.86
510.046	6.87
510.247	6.9
510.448	6.91
510.65	6.95
510.851	6.96
511.052	6.97
511.254	7.03
511.455	7.05
511.656	7.05
511.857	7.03
512.058	7.08
512.26	7.05
512.461	7.05
512.662	7.07
512.863	7.04
513.064	7.09
513.265	7.1
513.466	7.16
513.667	7.26
513.868	7.29
514.069	7.25
514.27	7.26
514.471	7.19
514.672	7.15
514.873	7.17
515.074	7.2
515.275	7.22
515.476	7.29
515.677	7.31
515.878	7.39
516.079	7.39
516.28	7.44
516.481	7.45
516.682	7.48
516.882	7.46
517.083	7.46
517.284	7.46
517.485	7.43
517.686	7.46
517.886	7.4
518.087	7.38
518.288	7.35
518.488	7.36
518.689	7.34
518.89	7.36
519.091	7.49
519.291	7.57
519.492	7.58
519.692	7.54
519.893	7.63
520.094	7.53
520.294	7.48
520.495	7.47
520.695	7.5
520.896	7.44
521.096	7.53
521.297	7.53
521.497	7.56
521.698	7.62
521.898	7.68
522.099	7.65
522.299	7.68
522.499	7.7
522.7	7.68
522.9	7.69
523.101	7.69
523.301	7.73
523.501	7.72
523.702	7.74
523.902	7.7
524.102	7.83
524.302	7.86
524.503	7.87
524.703	7.91
524.903	7.99
525.103	7.9
525.304	7.85
525.504	7.92
525.704	7.92
525.904	7.87
526.104	7.9
526.304	7.97
526.504	7.93
526.705	7.93
526.905	7.97
527.105	7.95
527.305	7.98
527.505	7.97
527.705	7.95
527.905	7.97
528.105	7.97
528.305	7.97
528.505	8.03
528.705	8.09
528.905	8.11
529.105	8.18
529.304	8.15
529.504	8.17
529.704	8.15
529.904	8.18
530.104	8.19
530.304	8.21
530.503	8.24
530.703	8.25
530.903	8.22
531.103	8.23
531.303	8.25
531.502	8.29
531.702	8.31
531.902	8.42
532.101	8.46
532.301	8.48
532.501	8.55
532.7	8.63
532.9	8.59
533.1	8.57
533.299	8.58
533.499	8.5
533.698	8.49
533.898	8.5
534.097	8.52
534.297	8.55
534.496	8.56
534.696	8.58
534.895	8.58
535.095	8.58
535.294	8.58
535.494	8.64
535.693	8.64
535.892	8.65
536.092	8.72
536.291	8.75
536.491	8.74
536.69	8.73
536.889	8.7
537.088	8.69
537.288	8.69
537.487	8.74
537.686	8.82
537.886	8.87
538.085	8.92
538.284	9.01
538.483	8.97
538.682	8.99
538.882	9.03
539.081	9.02
539.28	8.96
539.479	8.99
539.678	8.99
539.877	9.04
540.076	9.05
540.275	9.1
540.474	9.14
540.673	9.2
540.872	9.19
541.071	9.28
541.27	9.36
541.469	9.37
541.668	9.37
541.867	9.48
542.066	9.55
542.265	9.58
542.464	9.63
542.663	9.76
542.862	9.81
543.06	9.84
543.259	9.93
543.458	9.99
543.657	10.01
543.856	10
544.054	10
544.253	9.97
544.452	10.06
544.651	10.1
544.849	10.12
545.048	10.17
545.247	10.22
545.445	10.19
545.644	10.21
545.843	10.23
546.041	10.26
546.24	10.2
546.438	10.27
546.637	10.3
546.836	10.38
547.034	10.5
547.233	10.66
547.431	10.73
547.63	10.75
547.828	10.79
548.027	10.75
548.225	10.74
548.423	10.74
548.622	10.8
548.82	10.86
549.019	10.94
549.217	11.05
549.415	11.14
549.614	11.29
549.812	11.36
550.01	11.42
550.209	11.46
550.407	11.53
550.605	11.41
550.803	11.43
551.002	11.5
551.2	11.52
551.398	11.63
551.596	11.84
551.794	11.94
551.993	12.04
552.191	12.18
552.389	12.2
552.587	12.26
552.785	12.33
552.983	12.38
553.181	12.43
553.379	12.5
553.577	12.56
553.775	12.7
553.973	12.81
554.171	12.86
554.369	12.94
554.567	13.02
554.765	13.06
554.963	13.11
555.161	13.19
555.359	13.26
555.557	13.38
555.755	13.47
555.952	13.56
556.15	13.67
556.348	13.76
556.546	13.87
556.744	13.94
556.941	13.99
557.139	14.05
557.337	14.15
557.535	14.19
557.732	14.23
557.93	14.4
558.128	14.47
558.325	14.47
558.523	14.55
558.721	14.7
558.918	14.77
559.116	14.91
559.313	15.11
559.511	15.23
559.708	15.3
559.906	15.39
560.104	15.44
560.301	15.58
560.498	15.69
560.696	15.82
560.893	15.97
561.091	16.13
561.288	16.23
561.486	16.24
561.683	16.32
561.88	16.36
562.078	16.49
562.275	16.6
562.473	16.75
562.67	16.89
562.867	17.02
563.064	17.07
563.262	17.13
563.459	17.28
563.656	17.33
563.853	17.41
564.051	17.6
564.248	17.74
564.445	17.95
564.642	18.15
564.839	18.35
565.036	18.45
565.234	18.57
565.431	18.53
565.628	18.51
565.825	18.59
566.022	18.65
566.219	18.69
566.416	18.83
566.613	19.03
566.81	19.14
567.007	19.27
567.204	19.36
567.401	19.43
567.598	19.54
567.795	19.61
567.991	19.64
568.188	19.77
568.385	19.88
568.582	19.98
568.779	19.97
568.976	20.1
569.172	20.22
569.369	20.31
569.566	20.38
569.763	20.55
569.96	20.64
570.156	20.69
570.353	20.71
570.55	20.72
570.746	20.79
570.943	20.93
571.14	20.97
571.336	21.06
571.533	21.17
571.729	21.19
571.926	21.17
572.123	21.31
572.319	21.48
572.516	21.52
572.712	21.61
572.909	21.61
573.105	21.71
573.302	21.67
573.498	21.72
573.695	21.76
573.891	21.89
574.087	21.77
574.284	21.87
574.48	21.88
574.677	21.95
574.873	21.98
575.069	22.11
575.266	22.1
575.462	22.19
575.658	22.28
575.854	22.3
576.051	22.34
576.247	22.31
576.443	22.29
576.639	22.25
576.835	22.19
577.032	22.19
577.228	22.27
577.424	22.25
577.62	22.22
577.816	22.28
578.012	22.25
578.208	22.29
578.404	22.29
578.6	22.39
578.796	22.43
578.993	22.45
579.189	22.49
579.384	22.61
579.58	22.57
579.776	22.51
579.972	22.59
580.168	22.57
580.364	22.61
580.56	22.58
580.756	22.56
580.952	22.46
581.148	22.46
581.343	22.44
581.539	22.4
581.735	22.4
581.931	22.43
582.127	22.36
582.322	22.31
582.518	22.4
582.714	22.44
582.909	22.47
583.105	22.46
583.301	22.48
583.496	22.41
583.692	22.32
583.888	22.34
584.083	22.39
584.279	22.29
584.474	22.28
584.67	22.32
584.866	22.21
585.061	22.15
585.257	22.25
585.452	22.24
585.648	22.19
585.843	22.25
586.039	22.26
586.234	22.22
586.429	22.26
586.625	22.4
586.82	22.38
587.015	22.45
587.211	22.48
587.406	22.42
587.601	22.33
587.797	22.33
587.992	22.26
588.187	22.18
588.383	22.31
588.578	22.41
588.773	22.49
588.968	22.57
589.163	22.74
589.359	22.64
589.554	22.57
589.749	22.55
589.944	22.55
590.139	22.48
590.334	22.59
590.529	22.65
590.724	22.69
590.919	22.7
591.114	22.78
591.309	22.81
591.504	22.88
591.699	22.9
591.894	22.94
592.089	22.97
592.284	23.05
592.479	23.03
592.674	23.15
592.869	23.25
593.064	23.3
593.259	23.32
593.454	23.45
593.648	23.54
593.843	23.56
594.038	23.57
594.233	23.61
594.428	23.74
594.622	23.74
594.817	23.88
595.012	23.99
595.206	24.09
595.401	24.12
595.596	24.26
595.79	24.26
595.985	24.3
596.18	24.42
596.374	24.46
596.569	24.49
596.763	24.57
596.958	24.7
597.153	24.74
597.347	24.86
597.542	24.93
597.736	25
597.931	25.07
598.125	25.11
598.319	25.23
598.514	25.18
598.708	25.36
598.903	25.48
599.097	25.61
599.291	25.63
599.486	25.87
599.68	25.88
599.874	25.97
600.069	26.1
600.263	26.18
600.457	26.16
600.651	26.19
600.846	26.22
601.04	26.2
601.234	26.14
601.428	26.17
601.622	26.22
601.817	26.22
602.011	26.2
602.205	26.27
602.399	26.24
602.593	26.34
602.787	26.27
602.981	26.23
603.175	26.35
603.369	26.35
603.563	26.26
603.757	26.27
603.951	26.34
604.145	26.32
604.339	26.44
604.533	26.35
604.727	26.4
604.921	26.39
605.115	26.29
605.309	26.26
605.502	26.35
605.696	26.46
605.89	26.44
606.084	26.51
606.278	26.5
606.471	26.48
606.665	26.22
606.859	26.14
607.053	26.03
607.246	25.91
607.44	25.82
607.634	25.81
607.827	25.81
608.021	25.7
608.214	25.7
608.408	25.63
608.602	25.6
608.795	25.55
608.989	25.57
609.182	25.5
609.376	25.52
609.569	25.56
609.763	25.49
609.956	25.44
610.15	25.3
610.343	25.13
610.537	24.95
610.73	24.84
610.923	24.74
611.117	24.76
611.31	24.7
611.504	24.64
611.697	24.62
611.89	24.52
612.083	24.34
612.277	24.34
612.47	24.29
612.663	24.23
612.856	24.11
613.05	24.1
613.243	24.02
613.436	23.95
613.629	23.81
613.822	23.8
614.015	23.69
614.209	23.56
614.402	23.51
614.595	23.47
614.788	23.38
614.981	23.35
615.174	23.25
615.367	23.17
615.56	23.04
615.753	23.02
615.946	23.01
616.139	22.97
616.332	22.93
616.525	22.92
616.718	22.84
616.911	22.72
617.103	22.7
617.296	22.56
617.489	22.45
617.682	22.51
617.875	22.48
618.067	22.45
618.26	22.48
618.453	22.43
618.646	22.33
618.838	22.27
619.031	22.11
619.224	21.98
619.417	21.99
619.609	21.89
619.802	21.87
619.994	21.98
620.187	21.89
620.38	21.83
620.572	21.81
620.765	21.77
620.957	21.64
621.15	21.67
621.342	21.68
621.535	21.74
621.727	21.64
621.92	21.65
622.112	21.6
622.305	21.59
622.497	21.51
622.69	21.57
622.882	21.57
623.074	21.71
623.267	21.61
623.459	21.55
623.651	21.46
623.844	21.5
624.036	21.38
624.228	21.41
624.42	21.38
624.613	21.38
624.805	21.29
624.997	21.28
625.189	21.33
625.381	21.21
625.574	21.13
625.766	21.12
625.958	21.14
626.15	20.99
626.342	21.08
626.534	21.08
626.726	21.05
626.918	21.01
627.11	21.02
627.302	20.93
627.494	20.91
627.686	20.81
627.878	20.69
628.07	20.64
628.262	20.67
628.454	20.55
628.646	20.56
628.838	20.65
629.029	20.54
629.221	20.5
629.413	20.5
629.605	20.36
629.797	20.23
629.989	20.28
630.18	20.26
630.372	20.27
630.564	20.28
630.755	20.2
630.947	20.13
631.139	20.02
631.33	20.03
631.522	20.02
631.714	20.01
631.905	19.96
632.097	19.86
632.289	19.85
632.48	19.86
632.672	19.88
632.863	19.89
633.055	20.02
633.246	19.95
633.438	19.94
633.629	19.91
633.821	19.85
634.012	19.74
634.203	19.68
634.395	19.62
634.586	19.62
634.777	19.65
634.969	19.58
635.16	19.57
635.351	19.55
635.543	19.44
635.734	19.39
635.925	19.54
636.117	19.5
636.308	19.52
636.499	19.64
636.69	19.59
636.881	19.47
637.073	19.53
637.264	19.56
637.455	19.47
637.646	19.55
637.837	19.6
638.028	19.53
638.219	19.53
638.41	19.59
638.601	19.55
638.792	19.58
638.983	19.63
639.174	19.55
639.365	19.56
639.556	19.52
639.747	19.46
639.938	19.51
640.129	19.55
640.32	19.41
640.511	19.47
640.701	19.44
640.892	19.3
641.083	19.27
641.274	19.26
641.465	19.15
641.655	19.1
641.846	19.15
642.037	19.1
642.228	19.11
642.418	19.1
642.609	19.17
642.8	19.16
642.99	19.06
643.181	19.06
643.372	19.06
643.562	18.91
643.753	18.89
643.943	18.88
644.134	18.86
644.324	18.9
644.515	18.98
644.705	18.91
644.896	19.03
645.086	18.98
645.277	18.85
645.467	18.8
645.658	18.69
645.848	18.61
646.038	18.66
646.229	18.82
646.419	18.69
646.61	18.77
646.8	18.76
646.99	18.67
647.18	18.53
647.371	18.56
647.561	18.46
647.751	18.39
647.941	18.33
648.132	18.31
648.322	18.27
648.512	18.38
648.702	18.44
648.892	18.49
649.082	18.5
649.272	18.49
649.462	18.4
649.653	18.34
649.843	18.24
650.033	18.19
650.223	18.15
650.413	18.2
650.603	18.2
650.793	18.22
650.983	18.2
651.172	18.18
651.362	17.99
651.552	17.87
651.742	17.78
651.932	17.7
652.122	17.75
652.312	17.74
652.502	17.65
652.691	17.62
652.881	17.53
653.071	17.35
653.261	17.18
653.45	17.17
653.64	17
653.83	16.94
654.019	16.84
654.209	16.89
654.399	16.75
654.588	16.68
654.778	16.55
654.968	16.51
655.157	16.3
655.347	16.1
655.536	15.98
655.726	15.7
655.915	15.51
656.105	15.44
656.294	15.31
656.484	15.17
656.673	15.12
656.863	14.93
657.052	14.68
657.241	14.58
657.431	14.38
657.62	14.32
657.809	14.06
657.999	13.89
658.188	13.7
658.377	13.52
658.567	13.31
658.756	13.3
658.945	13.15
659.134	12.97
659.324	12.79
659.513	12.61
659.702	12.4
659.891	12.3
660.08	12.19
660.269	12.1
660.458	11.93
660.648	11.82
660.837	11.67
661.026	11.4
661.215	11.25
661.404	11.13
661.593	11.01
661.782	10.81
661.971	10.67
662.16	10.55
662.349	10.34
662.538	10.14
662.726	10.13
662.915	10.08
663.104	9.89
663.293	9.93
663.482	9.85
663.671	9.68
663.86	9.62
664.048	9.63
664.237	9.44
664.426	9.3
664.615	9.16
664.803	9.04
664.992	8.81
665.181	8.67
665.369	8.52
665.558	8.5
665.747	8.51
665.935	8.5
666.124	8.46
666.312	8.49
666.501	8.43
666.69	8.4
666.878	8.35
667.067	8.31
667.255	8.19
667.444	8.17
667.632	8.07
667.82	7.99
668.009	7.99
668.197	8.11
668.386	8.02
668.574	7.97
668.762	7.99
668.951	7.94
669.139	7.81
669.327	7.76
669.516	7.77
669.704	7.83
669.892	7.87
670.08	7.94
670.269	8
670.457	8.07
670.645	7.94
670.833	8.03
671.021	8.12
671.21	8.15
671.398	8.12
671.586	8.22
671.774	8.2
671.962	8.16
672.15	8.23
672.338	8.31
672.526	8.33
672.714	8.36
672.902	8.4
673.09	8.46
673.278	8.52
673.466	8.65
673.654	8.57
673.842	8.57
674.03	8.71
674.218	8.74
674.405	8.78
674.593	9.03
674.781	9.17
674.969	9.23
675.157	9.37
675.344	9.46
675.532	9.41
675.72	9.5
675.908	9.4
676.095	9.45
676.283	9.52
676.471	9.63
676.658	9.69
676.846	9.78
677.033	9.76
677.221	9.75
677.409	9.92
677.596	9.96
677.784	10.25
677.971	10.28
678.159	10.48
678.346	10.48
678.534	10.62
678.721	10.72
678.909	11.01
679.096	11.09
679.283	11.32
679.471	11.37
679.658	11.44
679.846	11.42
680.033	11.6
680.22	11.68
680.408	11.78
680.595	11.83
680.782	12.03
680.969	12.18
681.157	12.31
681.344	12.34
681.531	12.52
681.718	12.75
681.905	12.87
682.093	13.03
682.28	13.37
682.467	13.61
682.654	13.67
682.841	13.94
683.028	14.03
683.215	14.24
683.402	14.26
683.589	14.48
683.776	14.52
683.963	14.98
684.15	15.28
684.337	15.73
684.524	16.02
684.711	16.34
684.898	16.42
685.085	16.54
685.271	16.8
685.458	17.07
685.645	17.38
685.832	17.71
686.019	17.97
686.205	18.31
686.392	18.58
686.579	18.92
686.766	19.35
686.952	19.81
687.139	20.18
687.326	20.64
687.512	21.04
687.699	21.42
687.886	21.85
688.072	22.13
688.259	22.55
688.445	23.2
688.632	23.78
688.818	24.38
689.005	24.93
689.191	25.53
689.378	25.87
689.564	26.24
689.751	26.71
689.937	27.54
690.124	28.09
690.31	28.68
690.496	29.48
690.683	30.14
690.869	30.53
691.055	31.1
691.242	31.63
691.428	32.1
691.614	32.77
691.8	33.58
691.987	34.34
692.173	35.2
692.359	36.09
692.545	36.95
692.731	37.65
692.918	38.25
693.104	38.8
693.29	39.29
693.476	39.93
693.662	40.63
693.848	41.5
694.034	42.25
694.22	43.13
694.406	43.6
694.592	44.08
694.778	44.57
694.964	45.46
695.15	46.12
695.336	47.14
695.522	47.85
695.708	48.49
695.894	49.13
696.08	49.58
696.265	50.05
696.451	50.74
696.637	51.75
696.823	52.27
697.009	52.89
697.194	53.55
697.38	54.14
697.566	54.54
697.751	55.33
697.937	56.29
698.123	56.76
698.308	56.95
698.494	57.69
698.68	58.32
698.865	58.71
699.051	59.47
699.236	60.28
699.422	60.66
699.607	61.17
699.793	61.81
699.978	61.92
700.164	62.78
700.349	63.38
700.535	63.68
700.72	63.84
700.906	64.7
701.091	65.1
701.276	65.2
701.462	65.54
701.647	66.2
701.832	66.69
702.018	66.93
702.203	67.8
702.388	68.22
702.573	68.65
702.759	69.16
702.944	69.48
703.129	69.25
703.314	69.44
703.499	69.78
703.684	69.78
703.87	70.37
704.055	71.15
704.24	71.76
704.425	71.79
704.61	72.02
704.795	72.48
704.98	72.53
705.165	72.66
705.35	73.07
705.535	73.53
705.72	73.54
705.905	74.17
706.09	74.53
706.275	74.82
706.459	75.39
706.644	75.58
706.829	76.03
707.014	76.41
707.199	76.82
707.384	76.88
707.568	77.23
707.753	77.52
707.938	77.76
708.123	78
708.307	78.31
708.492	78.57
708.677	78.47
708.861	78.51
709.046	78.37
709.231	78.14
709.415	78.34
709.6	78.5
709.784	78.82
709.969	79.14
710.153	78.83
710.338	79.33
710.522	79.62
710.707	79.54
710.891	79.74
711.076	80.5
711.26	80.43
711.445	80.38
711.629	80.3
711.813	80.55
711.998	80.67
712.182	80.3
712.366	80.97
712.551	81.76
712.735	81.8
712.919	82.15
713.103	82.6
713.288	82.45
713.472	82.31
713.656	82.29
713.84	82.43
714.024	82.7
714.208	82.32
714.393	82.48
714.577	83.04
714.761	83.08
714.945	83.31
715.129	83.57
715.313	83.97
715.497	83.95
715.681	83.87
715.865	83.31
716.049	83.33
716.233	82.52
716.417	82.24
716.601	82.32
716.785	82.89
716.968	83.17
717.152	83.67
717.336	84.31
717.52	84.33
717.704	84.55
717.888	84.78
718.071	84.63
718.255	84.72
718.439	84.79
718.622	84.88
718.806	84.71
718.99	85.05
719.174	85.06
719.357	85.81
719.541	85.95
719.724	86.12
719.908	85.93
720.092	85.65
720.275	85.3
720.459	84.98
720.642	85.07
720.826	85.12
721.009	85.2
721.193	84.85
721.376	84.76
721.559	84.73
721.743	85.62
721.926	85.73
722.11	86.21
722.293	86.65
722.476	86.63
722.66	87.25
722.843	87.52
723.026	87.66
723.21	87.64
723.393	88.51
723.576	87.89
723.759	88.06
723.942	88
724.126	88.3
724.309	87.95
724.492	87.86
724.675	87.45
724.858	87.43
725.041	87.1
725.224	87.33
725.407	86.8
725.59	86.88
725.774	86.67
725.957	87.38
726.14	87.06
726.322	87.93
726.505	87.97
726.688	88.95
726.871	88.13
727.054	88.39
727.237	88.17
727.42	88.58
727.603	87.6
727.786	88.49
727.968	88.21
728.151	88.08
728.334	88.04
728.517	88.89
728.699	88.54
728.882	88.52
729.065	88.26
729.248	88.17
729.43	88.19
729.613	88.64
729.796	88.98
729.978	89.13
730.161	89.71
730.343	89.73
730.526	89.49
730.708	89.81
730.891	90.27
731.073	90.15
731.256	90.22
731.438	90.84
731.621	90.86
731.803	91.27
731.986	91.46
732.168	91.64
732.35	91.84
732.533	92.24
732.715	92.09
732.898	91.43
733.08	91.47
733.262	90.43
733.444	90.87
733.627	91.31
733.809	92.26
733.991	91.94
734.173	92.4
734.355	91.73
734.538	91.04
734.72	91.13
734.902	91.86
735.084	91.41
735.266	92.25
735.448	93.11
735.63	92.87
735.812	92.73
735.994	93.36
736.176	92.46
736.358	92.34
736.54	92.33
736.722	92.13
736.904	91.97
737.086	91.52
737.268	91.41
737.45	92.1
737.632	91.93
737.814	93.31
737.995	94.25
738.177	94.44
738.359	94
738.541	94.58
738.723	93.57
738.904	93.45
739.086	93.7
739.268	93.37
739.449	92.36
739.631	92.09
739.813	91.57
739.994	91.4
740.176	92.23
740.358	93.09
740.539	94.12
740.721	95.14
740.902	95.67
741.084	95.14
741.265	95.65
741.447	95.57
741.628	95.04
741.81	94.7
741.991	95.09
742.172	94.08
742.354	94.04
742.535	93.77
742.717	92.82
742.898	92.51
743.079	93.83
743.261	93.16
743.442	92.36
743.623	93.33
743.804	93.34
743.986	92.68
744.167	92.02
744.348	92.5
744.529	92.42
744.71	92.67
744.891	92.26
745.073	93.35
745.254	93.56
745.435	93.52
745.616	92.81
745.797	92.97
745.978	92.97
746.159	93.12
746.34	93.57
746.521	93.74
746.702	93.97
746.883	93.72
747.064	93.77
747.245	93.81
747.426	93.5
747.606	93.53
747.787	94.33
747.968	93.93
748.149	93.08
748.33	93.6
748.51	92.57
748.691	91.93
748.872	93.19
749.053	92.85
749.233	92.72
749.414	92.98
749.595	93.7
749.775	92.37
749.956	92.2
750.137	92.4
750.317	92.72
750.498	91.55
750.678	92
750.859	92.8
751.04	93.08
751.22	91.89
751.4	91.72
751.581	92.1
751.761	92.5
751.942	92.79
752.122	93.95
752.303	94.9
752.483	94.67
752.663	94.32
752.844	94
753.024	94.66
753.204	95.19
753.385	94.8
753.565	93.86
753.745	92.05
753.925	90.49
754.106	89.76
754.286	88.82
754.466	89.95
754.646	90.92
754.826	92.63
755.006	91.33
755.187	94.34
755.367	93.29
755.547	93.52
755.727	92.6
755.907	93.35
756.087	91.76
756.267	90.7
756.447	91.38
756.627	91.39
756.807	91.54
756.987	90.56
757.167	92.01
757.346	90.49
757.526	91.81
757.706	91.92
757.886	92.3
758.066	92.58
758.246	93.44
758.425	92.53
758.605	92.18
758.785	91.95
758.965	91.65
759.144	90.15
759.324	90.5
759.504	90.77
759.683	90.5
759.863	91.59
760.043	92.29
760.222	91.51
760.402	89.82
760.581	91.06
760.761	90.01
760.94	89.45
761.12	87.89
761.299	89.52
761.479	90
761.658	90.34
761.838	91.13
762.017	92.46
762.197	90.94
762.376	89.15
762.555	87.7
762.735	88.51
762.914	88.28
763.093	88.29
763.273	89.88
763.452	91.02
763.631	90.51
763.81	91.04
763.99	91.62
764.169	90.55
764.348	89.22
764.527	88.88
764.706	87.45
764.885	88.98
765.064	88.54
765.243	88.73
765.423	87.99
765.602	89.55
765.781	87.46
765.96	87.07
766.139	87.15
766.318	89.77
766.497	87.81
766.676	86.48
766.854	86.98
767.033	87.43
767.212	86.75
767.391	88.26
767.57	91.69
767.749	91.69
767.928	92.55
768.106	90.14
768.285	89.96
768.464	87.95
768.643	87.34
768.821	85.1
769	85.87
769.179	85.63
769.357	86.58
769.536	86.16
769.715	85.19
769.893	85.76
770.072	85.68
770.25	83.26
770.429	83.45
770.607	85.62
770.786	83.93
770.964	86.07
771.143	87.95
771.321	85.89
771.5	86.23
771.678	86.21
771.857	82.92
772.035	83.18
772.213	85.11
772.392	83.12
772.57	84.24
772.748	85.27
772.927	83.12
773.105	85.1
773.283	86.82
773.461	86.79
773.64	86.56
773.818	90.41
773.996	90.14
774.174	90.19
774.352	90.08
774.531	88.74
774.709	87.84
774.887	84.24
775.065	84.19
775.243	84.24
775.421	83.67
775.599	83.06
775.777	84.99
775.955	83.49
776.133	84.26
776.311	85.86
776.489	85.85
776.667	85.2
776.844	86.1
777.022	85.14
777.2	85.47
777.378	82.36
777.556	84.85
777.734	86
777.911	88.43
778.089	89.19
778.267	90.76
778.445	91.55
778.622	90.64
778.8	87.83
778.978	88.07
779.155	90.25
779.333	88.97
779.511	87.61
779.688	88.78
779.866	87.84
780.043	88.06
780.221	85.79
780.398	85.53
780.576	83.82
780.753	84.44
780.931	83.91
781.108	84.53
781.286	87.2
781.463	87.24
781.64	86.43
781.818	87.96
781.995	87.67
782.172	86.61
782.35	86.62
782.527	84.69
782.704	80.6
782.882	79.78
783.059	77.18
783.236	78.73
783.413	79.25
783.59	79.82
783.768	80.45
783.945	81.62
784.122	80.01
784.299	81.48
784.476	79.79
784.653	80.37
784.83	80.81
785.007	80.02
785.184	79.01
785.361	81.78
785.538	82.88
785.715	81.47
785.892	83.04
786.069	83.08
786.246	82.21
786.423	80.65
786.6	83.22
786.776	79.73
786.953	79.39
787.13	81.74
787.307	78.3
787.484	77.45
787.66	78.29
787.837	80.36
788.014	79.42
788.191	80.04
788.367	78.86
788.544	81.04
788.721	78.19
788.897	76.3
789.074	80.44
789.25	80.54
789.427	78.03
789.603	78.92
789.78	78.35
789.956	75.96
790.133	74.67
790.309	76.13
790.486	75.01
790.662	76.19
790.839	77.15
791.015	77.23
791.192	77.55
791.368	76.41
791.544	77.93
791.721	78.52
791.897	75.07
792.073	73.44
792.249	75.19
792.426	69.51
792.602	67.98
792.778	69.69
792.954	74.09
793.13	74.69
793.307	82.1
793.483	79.61
793.659	79.05
793.835	79.46
794.011	83.36
794.187	77.45
794.363	77.62
794.539	79.69
794.715	76.34
794.891	72.81
795.067	78.91
795.243	81.04
795.419	83.69
795.595	85.61
795.771	82.83
795.947	80.26
796.122	78.18
796.298	75.87
796.474	80.37
796.65	80.88
796.826	74.92
797.001	72.66
797.177	69.08
797.353	61.93
797.529	63.75
797.704	69.06
797.88	71.36
798.056	76.38
798.231	77.77
798.407	79.88
798.582	78.82
798.758	82.72
798.934	85.39
799.109	89.78
799.285	86.95
799.46	82.09
799.636	77.66
799.811	76.09
799.986	72.86
800.162	68.03
800.337	76.02
800.513	76.05
800.688	72.73
800.863	76.44
801.039	84.78
801.214	76.02
801.389	74.73
801.565	76.84
801.74	71.13
801.915	66.54
802.09	65.08
802.265	67.95
802.441	66.52
802.616	66.32
802.791	71.32
802.966	76.28
803.141	76.72
803.316	75.77
803.491	76.8
803.666	74.23
803.841	75.42
804.016	72.17
804.191	75.8
804.366	75.57
804.541	77.66
804.716	77.77
804.891	81.21
805.066	78.62
805.241	73.66
805.416	78.35
805.591	74.96
805.765	82.77
805.94	80.7
806.115	83.18
806.29	77.53
806.464	82.47
806.639	76.73
806.814	78.35
806.989	79.23
807.163	81.07
807.338	74.87
807.512	72.92
807.687	67.89
807.862	71.77
808.036	70.33
808.211	74.2
808.385	67.86
808.56	70.27
808.734	67.83
808.909	66.82
809.083	68.26
809.258	75.69
809.432	80.23
809.606	79.36
809.781	84.59
809.955	80.85
810.13	76.31
810.304	73.99
810.478	70.41
810.652	61.8
810.827	65.77
811.001	64.01
811.175	65.21
811.349	69.24
811.524	72.51
811.698	63.36
811.872	69.21
812.046	62.46
812.22	64.17
812.394	60.44
812.568	66.5
812.742	62.63
812.916	73.39
813.09	66.99
813.264	68.65
813.438	64.41
813.612	61.57
813.786	51.45
813.96	59.23
814.134	55.43
814.308	64.55
814.482	70.01
814.656	65.42
814.83	61.23
815.003	72.2
815.177	65.61
815.351	63.64
815.525	76.69
815.698	69.4
815.872	60.39
816.046	55
816.219	57.82
816.393	55.61
816.567	65.45
816.74	71.89
816.914	74.27
817.088	69.12
817.261	60
817.435	55.17
817.608	51.54
817.782	47.59
817.955	50.59
818.129	59.02
818.302	58.95
818.475	53.17
818.649	57.77
818.822	46.36
818.996	51.19
819.169	61.31
819.342	62.99
819.516	58.67
819.689	68.19
819.862	64.02
820.035	59.34
820.209	59.94
820.382	55.31
820.555	51.71
820.728	59.95
820.901	51.45
821.075	60.42
821.248	61.45
821.421	60.05
821.594	52.76
821.767	60.1
821.94	51.3
822.113	54.34
822.286	54.78
822.459	58
822.632	58.26
822.805	64.78
822.978	61.91
823.151	58.26
823.324	53.07
823.496	36.75
823.669	42.9
823.842	67.95
824.015	65.15
824.188	60.28
824.361	78.83
824.533	67.39
824.706	56.1
824.879	57.35
825.051	60.92
825.224	51.68
825.397	49.06
825.569	49.64
825.742	59.14
825.915	70.35
826.087	61.42
826.26	47.11
826.432	45.13
826.605	37.36
826.777	28.82
826.95	35.73
827.122	37.6
827.295	39.69
827.467	47.6
827.64	40.76
827.812	33.16
827.984	44.81
828.157	21.61
828.329	20.83
828.501	22.77
828.674	46.29
828.846	51.93
829.018	60.99
829.19	59.23
829.363	59.43
829.535	49.72
829.707	45.77
829.879	45.54
830.051	44.63
830.223	57.5
830.395	57.94
830.568	52.94
830.74	52.92
830.912	60.05
831.084	45.61
831.256	32.99
831.428	43.45
831.6	35.94
831.772	22.74
831.943	29.53
832.115	60.84
832.287	54.65
832.459	66.4
832.631	68.73
832.803	69.46
832.975	60.28
833.146	51.45
833.318	45.9
833.49	50.15
833.662	52.38
833.833	47.85
834.005	58.11
834.177	57.73
834.348	49.37
834.52	44.37
834.692	42.67
834.863	40.03
835.035	32.18
835.206	26.62
835.378	30.25
835.549	35.38
835.721	35.63
835.892	45.7
836.064	44.1
836.235	40.52
836.407	36.94
836.578	41.73
836.749	30.47
836.921	43.01
837.092	36.23
837.264	38.18
837.435	20.58
837.606	30.73
837.777	39.02
837.949	47.48
838.12	53.46
838.291	63.5
838.462	76.45
838.633	69.33
838.805	59.97
838.976	52.31
839.147	52.88
839.318	37.32
839.489	28.08
839.66	50.29
839.831	51.18
840.002	54.18
840.173	57.63
840.344	56.71
840.515	42.57
840.686	42.33
840.857	42.62
841.028	35.45
841.199	41.24
841.369	50.22
841.54	34.77
841.711	48.03
841.882	57.7
842.053	51.49
842.223	41.96
842.394	43.41
842.565	22.32
842.736	27.05
842.906	27.31
843.077	18.87
843.248	37.65
843.418	31.68
843.589	31.28
843.759	40.64
843.93	53.4
844.101	29.98
844.271	63.47
844.442	37.89
844.612	41.81
844.783	40.83
844.953	48.29
845.123	16.77
845.294	6.92
845.464	-18.6
845.635	-28.11
845.805	-33.76
845.975	18.77
846.146	39.94
846.316	39.4
846.486	46.61
846.656	48.32
846.827	42.6
846.997	45.72
847.167	43.48
847.337	36.95
847.507	39.24
847.677	30.7
847.848	40.75
848.018	47.14
848.188	55.31
848.358	32.55
848.528	40.17
848.698	28.53
848.868	21
849.038	1.87
849.208	26.8
849.378	31.8
849.548	26.66
849.718	33.94
849.887	33.58
850.057	-5.96
850.227	16.34
850.397	22.47
850.567	-8.63
850.737	36.57
850.906	25.75
851.076	19.53
851.246	52.37
851.415	74.68
851.585	85.31
851.755	100.05
851.924	79.55
852.094	41.46
852.264	34.9
852.433	10.18
852.603	-34.27
852.772	4.11
852.942	39.07
853.111	21.79
853.281	33.79
853.45	24.33
853.62	8.67
853.789	-28.4
853.959	18.72
854.128	18.23
854.297	25.29
854.467	31.99
854.636	48.68
854.805	50.14
854.975	43.87
855.144	54.64
855.313	67.79
855.482	57.44
855.652	29.6
855.821	7.51
855.99	35.43
856.159	-0.73
856.328	11.08
856.497	35.24
856.667	36.26
856.836	22.74
857.005	40.96
857.174	27.57
857.343	-5.88
857.512	-5.7
857.681	-7.78
857.85	-25.2
858.019	-33.77
858.188	-15.67
858.356	17.63
858.525	23.16
858.694	57.27
858.863	37.88
859.032	38.14
859.201	21.36
859.369	22.88
859.538	31.05
859.707	56.57
859.876	55.31
860.044	73.82
860.213	73.92
860.382	59.1
860.55	33.16
860.719	51.75
860.888	28.84
861.056	9.91
861.225	-16.86
861.393	12.5
861.562	-16.86
861.73	-9.3
861.899	-13.47
862.067	7.45
862.236	-13.99
862.404	-21.98
862.572	-9.06
862.741	2.05
862.909	4.47
863.078	24.99
863.246	32.07
863.414	33.77
863.582	6.36
863.751	4.13
863.919	0.86
864.087	-16.24
864.255	-34.66
864.424	-15.91
864.592	10.5
864.76	18.54
864.928	51.48
865.096	38.97
865.264	41.05
865.432	24.73
865.6	17.62
865.768	-35.68
865.936	-24.58
866.104	-42.62
866.272	-140.3
866.44	-96.61
866.608	-37.04
866.776	-26.99
866.944	23.79
867.112	37.81
867.28	42.09
867.448	55.41
867.615	52.85
867.783	24.04
867.951	35.48
868.119	50.83
868.286	50.35
868.454	29.48
868.622	33.68
868.789	38.1
868.957	35.17
869.125	27.74
869.292	2.95
869.46	27.96
869.627	29.71
869.795	-6.99
869.963	-1.73
870.13	7.82
870.298	-1.54
870.465	10.12
870.632	33.17
870.8	55.95
870.967	69.78
871.135	66.22
871.302	54
871.469	56.69
871.637	60.27
871.804	57.06
871.971	48.32
872.139	-7.25
872.306	-54.43
872.473	-79.7
872.64	-272.28
872.807	-256.28
872.975	-405.09
873.142	-65
873.309	-36.43
873.476	37.95
873.643	57.26
873.81	49.21
873.977	8.71
874.144	18.94
874.311	-11.61
874.478	-16.25
874.645	-49.83
874.812	23.22
874.979	8.12
875.146	-45.84
875.313	0.11
875.48	64.78
875.647	39.84
875.813	20.88
875.98	63.98
876.147	38.56
876.314	34.19
876.481	57.65
876.647	35.11
876.814	26.96
876.981	29.39
877.147	4.13
877.314	30.53
877.481	60.25
877.647	41.45
877.814	74.55
877.98	88.22
878.147	86.72
878.314	91.69
878.48	101.16
878.647	89.49
878.813	100.69
878.979	107.61
879.146	113.43
879.312	145.62
879.479	101.58
879.645	62.1
879.811	11.46
879.978	22.56
880.144	2.99
880.31	-11.81
880.477	10.13
880.643	20.68
880.809	-50.39
880.975	-69.99
881.142	-100.56
881.308	471.2
881.474	554.39
881.64	-66.42
881.806	-61.19
881.972	-10.96
882.138	19.12
882.304	20.9
882.47	-32.91
882.636	-33.6
882.802	-24.22
882.968	-3.59
883.134	31.75
883.3	85.83
883.466	158.55
883.632	150.08
883.798	85.75
883.964	-9.2
884.129	-512.23
884.295	-60.61
884.461	-84.6
884.627	25.2
884.793	20.6
884.958	39.83
885.124	52.85
885.29	25.32
885.455	-20.79
885.621	18.96
885.787	5.25
885.952	-34.11
886.118	31.07
886.283	42
886.449	49.73
886.614	63.01
886.78	66.62
886.945	28.88
887.111	-5.69
887.276	-59.18
887.442	-175.07
887.607	-134.07
887.773	-91.46
887.938	-83.34
888.103	-30.67
888.269	9
888.434	-5.73
888.599	-6.74
888.764	16.61
888.93	7.39
889.095	-17.42
889.26	-32.51
889.425	-11.68
889.59	-64.14
889.756	-46.52
889.921	-31.46
890.086	-26.95
890.251	-2.52
890.416	36.05
890.581	31.09
890.746	70.79
890.911	55.52
891.076	37.42
891.241	-1.52
891.406	-16.69
891.571	-27.33
891.736	-111.58
891.901	9.41
892.065	36.63
892.23	70.37
892.395	26.8
892.56	9.11
892.725	-17.53
892.889	39.45
893.054	-7.79
893.219	-34.87
893.384	-30.02
893.548	-85.41
893.713	-193.12
893.878	-302.23
