Data from Ofra_PS_T2_2A_0GT05_Reflection_2.txt Node
Date: Wed Jul 21 16:52:33 EDT 2021
User: Adam
Spectrometer: FLMT01687
Trigger mode: 0
Integration Time (sec): 1.100000E0
Scans to average: 2
Electric dark correction enabled: true
Nonlinearity correction enabled: false
Boxcar width: 2
XAxis mode: Wavelengths
Number of Pixels in Spectrum: 3648
>>>>>Begin Spectral Data<<<<<
179.494	406
179.716	476.94
179.937	434.78
180.158	397.37
180.38	749.69
180.601	334.53
180.823	56.65
181.044	-55.69
181.265	94.49
181.486	11.13
181.708	35.22
181.929	360.2
182.15	-197.89
182.372	58.95
182.593	34.67
182.814	17.64
183.035	7.91
183.257	-23
183.478	-47.77
183.699	17.73
183.92	14.44
184.141	25.68
184.363	1.45
184.584	-22.19
184.805	-26.44
185.026	-8.73
185.247	8.72
185.468	9.3
185.689	23.22
185.91	1.28
186.132	-0.23
186.353	-2.73
186.574	40.92
186.795	25.91
187.016	-2.87
187.237	-3.6
187.458	-58.55
187.679	-75.56
187.9	-57.84
188.121	-26.09
188.342	-28.72
188.563	9.2
188.784	21.25
189.005	-40.51
189.226	-24.96
189.447	-50.24
189.667	-232.77
189.888	-391.38
190.109	-755.19
190.33	-506.77
190.551	-1080.09
190.772	-243.22
190.993	-203.94
191.214	-105.35
191.434	-34.22
191.655	35.77
191.876	13.41
192.097	-16.17
192.318	-71.21
192.538	-151.17
192.759	-97.19
192.98	-27.71
193.201	-9.59
193.421	3.36
193.642	14.71
193.863	10.62
194.083	0.42
194.304	-5.99
194.525	1.46
194.745	-3.85
194.966	-6.26
195.187	-15.86
195.407	-36.94
195.628	-71.27
195.848	-113.89
196.069	-124.36
196.29	-98.06
196.51	-72.02
196.731	-80.51
196.951	-61.33
197.172	-68.52
197.392	-90.93
197.613	-108.38
197.833	-126.1
198.054	-87.28
198.274	-57.9
198.495	-68.31
198.715	-34.31
198.936	-56.2
199.156	-50.93
199.377	-125.47
199.597	-95.64
199.817	-125.6
200.038	-66.4
200.258	-128.68
200.479	-63.47
200.699	-81.01
200.919	24.03
201.14	26.04
201.36	35.62
201.58	27.54
201.801	42.52
202.021	6.68
202.241	9.46
202.461	6.01
202.682	-30.12
202.902	-85.7
203.122	-37.29
203.342	-29.41
203.563	-4.7
203.783	22.64
204.003	-2.67
204.223	18.28
204.443	33.86
204.663	10.16
204.884	-0.51
205.104	24.86
205.324	-1.84
205.544	13.99
205.764	44.86
205.984	36.98
206.204	39.42
206.424	27.81
206.644	0.31
206.864	-3.12
207.084	-49.33
207.304	-0.42
207.525	33.91
207.745	40.62
207.964	49.75
208.184	25.31
208.404	-16.59
208.624	-37.91
208.844	-62.75
209.064	-283.99
209.284	-233.03
209.504	-149.62
209.724	-65.93
209.944	-38.84
210.164	-20.46
210.384	-20.33
210.604	-26.71
210.823	-41.51
211.043	-46.58
211.263	-46.75
211.483	-43.49
211.703	-67.19
211.922	-49.73
212.142	-3.69
212.362	12.71
212.582	-2.24
212.801	26.26
213.021	20.78
213.241	-1.82
213.461	-13.65
213.68	-1.09
213.9	-9.8
214.12	-5.36
214.339	-36.69
214.559	-29.34
214.779	-7.97
214.998	-11.85
215.218	-38.27
215.438	5.06
215.657	1.16
215.877	3.4
216.096	24.28
216.316	29.65
216.535	9.88
216.755	9.36
216.974	-35.63
217.194	-110.67
217.413	-117.46
217.633	-131.41
217.852	-195.11
218.072	-89.32
218.291	-55.91
218.511	-19.65
218.73	-17.6
218.95	-14.61
219.169	-21.52
219.389	-35.02
219.608	-22.76
219.827	-26.07
220.047	-9.36
220.266	3.92
220.485	4.18
220.705	-1.5
220.924	-4.23
221.143	12.42
221.363	-13.34
221.582	2.24
221.801	-7.28
222.021	0.87
222.24	-59.85
222.459	-39.67
222.678	-56.2
222.897	-53.09
223.117	-85.26
223.336	-68.28
223.555	13.34
223.774	54.93
223.993	42.98
224.213	85.44
224.432	80.43
224.651	59.16
224.87	41.22
225.089	58.31
225.308	41.56
225.527	33.62
225.746	39.54
225.965	24.24
226.184	-12.96
226.404	20.85
226.623	19.16
226.842	15.92
227.061	34.92
227.28	43.02
227.499	30.03
227.718	28.8
227.936	9.34
228.155	-0.17
228.374	-5.43
228.593	4.26
228.812	-6.94
229.031	-7.49
229.25	-36.33
229.469	-44.47
229.688	-48.65
229.907	4.15
230.125	7.88
230.344	13.36
230.563	20.78
230.782	28.07
231.001	-36.8
231.22	-29.59
231.438	-15.09
231.657	-31
231.876	-51.37
232.095	0.03
232.313	-2.05
232.532	-10.89
232.751	-2.43
232.969	3.62
233.188	-30.97
233.407	28.31
233.625	26.08
233.844	30.41
234.063	21.96
234.281	23.37
234.5	-3.6
234.719	2.11
234.937	4.69
235.156	-0.48
235.374	-0.5
235.593	-4.68
235.811	-16.84
236.03	-5.48
236.249	-28.69
236.467	-32.45
236.686	5.07
236.904	6.47
237.123	-18.97
237.341	-9.94
237.559	2.69
237.778	-11.96
237.996	-35.97
238.215	1.37
238.433	15.78
238.652	-0.17
238.87	-7.96
239.088	8.73
239.307	3.94
239.525	-12.67
239.743	-2.57
239.962	-4.35
240.18	-1.91
240.398	-45.79
240.617	-20.85
240.835	-27.68
241.053	-20.54
241.271	-18.04
241.49	17.44
241.708	-24.51
241.926	-57.7
242.144	-2.36
242.363	-27.49
242.581	-32.05
242.799	13.84
243.017	15.47
243.235	-25.62
243.453	-17.85
243.672	-10.17
243.89	-21.17
244.108	-16.93
244.326	1.64
244.544	6.52
244.762	7.31
244.98	1.53
245.198	8.34
245.416	13.98
245.634	7.33
245.852	-21.08
246.07	-30.64
246.288	-46.17
246.506	-90.35
246.724	-72
246.942	-24.98
247.16	-2.39
247.378	10.04
247.596	30.68
247.814	11.72
248.032	-7.35
248.25	24.15
248.468	28.4
248.685	44.12
248.903	55.76
249.121	49.49
249.339	21.01
249.557	1.23
249.775	-3.24
249.992	-42.33
250.21	-32.08
250.428	-18.69
250.646	-38.6
250.863	-46.3
251.081	-30.38
251.299	-45.17
251.517	-40.72
251.734	-24.01
251.952	-19.59
252.17	-18.15
252.387	-2.38
252.605	-8.46
252.823	0.61
253.04	9.91
253.258	30.18
253.475	33.84
253.693	46.42
253.911	55.66
254.128	52.27
254.346	51.23
254.563	22.61
254.781	5.25
254.998	-18.56
255.216	-20.66
255.433	-31.74
255.651	7.04
255.868	10.95
256.086	26.56
256.303	20.28
256.521	33.32
256.738	10.3
256.956	-15.83
257.173	-39.19
257.39	-44.39
257.608	-49.87
257.825	-1.55
258.043	43.72
258.26	45.84
258.477	53.26
258.695	29.88
258.912	-26.71
259.129	-27.41
259.346	-50
259.564	-72.95
259.781	-95.72
259.998	-26.03
260.216	5.78
260.433	36.19
260.65	29.3
260.867	39.53
261.084	27.02
261.302	-1.53
261.519	-29.08
261.736	-22.3
261.953	-27.59
262.17	-14.04
262.387	-33.85
262.604	-21.94
262.822	-22.38
263.039	-12.6
263.256	-22.61
263.473	18.78
263.69	4.57
263.907	26.89
264.124	32.55
264.341	19.79
264.558	8.71
264.775	26.56
264.992	15.08
265.209	17.77
265.426	29.27
265.643	28.48
265.86	23.09
266.077	23.95
266.294	18
266.51	-11.16
266.727	-35.74
266.944	-44.04
267.161	-58.48
267.378	-57.41
267.595	-17.81
267.812	-28.2
268.028	-44.91
268.245	-9.01
268.462	-19.49
268.679	-24.34
268.896	20.42
269.112	25.64
269.329	19.36
269.546	17.22
269.763	12.03
269.979	-2.98
270.196	2.93
270.413	-25.18
270.629	-34.8
270.846	-42
271.063	-23.96
271.279	-41.21
271.496	-26.91
271.712	9.84
271.929	30.95
272.146	18.15
272.362	26.77
272.579	40.72
272.795	30.99
273.012	30.36
273.228	31.06
273.445	27.12
273.661	3.83
273.878	-23.73
274.094	-33.01
274.311	-64.75
274.527	-16.16
274.744	-7.77
274.96	-9.91
275.177	4.16
275.393	32.05
275.609	32.45
275.826	51.01
276.042	65.48
276.259	64.19
276.475	57.41
276.691	56.27
276.908	33.48
277.124	43.27
277.34	46.07
277.557	35.29
277.773	24.37
277.989	21.63
278.205	3.65
278.422	8.54
278.638	24.6
278.854	33.27
279.07	36.7
279.286	26.74
279.503	-5.61
279.719	-32.03
279.935	-62.76
280.151	-74.35
280.367	-54.4
280.583	-46.66
280.799	-37.28
281.016	-54.61
281.232	-16.44
281.448	-0.15
281.664	5.7
281.88	-4.1
282.096	16.81
282.312	11.11
282.528	10.89
282.744	26.1
282.96	10.23
283.176	3.21
283.392	-0.76
283.608	-4.34
283.824	-5.93
284.04	1.35
284.256	14.94
284.471	38.69
284.687	29.26
284.903	33.01
285.119	44.95
285.335	26.23
285.551	0.73
285.767	2.72
285.982	-11.31
286.198	-45.74
286.414	16.21
286.63	18.17
286.846	30.66
287.061	22.94
287.277	50.22
287.493	19.51
287.709	24.42
287.924	7.88
288.14	27.21
288.356	17.15
288.571	31.05
288.787	27.31
289.003	26.49
289.218	10.98
289.434	-3.39
289.65	-5.04
289.865	-25.65
290.081	-18.74
290.296	-11.78
290.512	-20.67
290.727	-45.42
290.943	-16.39
291.159	-23.9
291.374	-23.86
291.59	-32.77
291.805	-14.31
292.021	-20.49
292.236	-7.88
292.451	14.03
292.667	19.3
292.882	19.94
293.098	9.98
293.313	-13.2
293.529	-41.95
293.744	-36.37
293.959	-24.89
294.175	-20.78
294.39	17.68
294.605	27.79
294.821	35.61
295.036	28.36
295.251	41.39
295.467	35.99
295.682	32.7
295.897	12.41
296.112	32.22
296.328	22.09
296.543	-19.26
296.758	-8.16
296.973	3.75
297.188	15.05
297.404	-1.64
297.619	-8.4
297.834	-30.85
298.049	-42.79
298.264	-61.95
298.479	-15.02
298.694	-2.61
298.909	17.74
299.125	28.34
299.34	41.86
299.555	17.55
299.77	21.52
299.985	-13.88
300.2	-55.54
300.415	-71.98
300.63	-50.85
300.845	-56.56
301.06	-40.85
301.275	-3.92
301.49	3.22
301.704	12.51
301.919	8.78
302.134	0.91
302.349	-7.78
302.564	-35.21
302.779	-101.53
302.994	-107.13
303.209	-78.63
303.423	-58.63
303.638	2.39
303.853	13.72
304.068	18.38
304.283	24.5
304.497	15.75
304.712	3.76
304.927	-0.12
305.142	-4.38
305.356	2.04
305.571	-0.94
305.786	-4.13
306	-16.06
306.215	-7.51
306.43	-49.88
306.644	-58.88
306.859	-42.32
307.074	-19.48
307.288	-59.04
307.503	-52.55
307.717	-31.87
307.932	-45.39
308.147	-44.3
308.361	-26.16
308.576	-23.75
308.79	-63.55
309.005	-43.3
309.219	-36.47
309.434	-34.99
309.648	-40.99
309.863	-11.93
310.077	-13.18
310.292	-18.54
310.506	-16.39
310.72	3.25
310.935	-0.62
311.149	1.48
311.364	9.33
311.578	17.51
311.792	12.78
312.007	19.15
312.221	16.74
312.435	23.16
312.649	15.79
312.864	33.39
313.078	36.41
313.292	55.59
313.507	25.16
313.721	31
313.935	14.78
314.149	12.68
314.363	18.53
314.578	21.2
314.792	27.81
315.006	12.98
315.22	20.93
315.434	23.19
315.648	31.61
315.862	25.11
316.077	39.68
316.291	23.32
316.505	-6.26
316.719	-16.52
316.933	-21.03
317.147	-60.61
317.361	-77.77
317.575	-74.34
317.789	-105.93
318.003	-153.57
318.217	-110.33
318.431	-36.01
318.645	0.23
318.859	0.03
319.073	11.11
319.287	15.91
319.5	-10.62
319.714	-40.8
319.928	-63.34
320.142	-73.3
320.356	-41.33
320.57	-9.32
320.784	-23.26
320.997	-13.22
321.211	-12.42
321.425	-50
321.639	-76.66
321.853	-37.36
322.066	-13.27
322.28	-23.43
322.494	-20.78
322.707	-15.7
322.921	-19.18
323.135	-10.2
323.349	2.17
323.562	-8.38
323.776	-1.42
323.989	-5.75
324.203	-21.76
324.417	-34.07
324.63	-44.25
324.844	-42.6
325.057	-24.46
325.271	-25.18
325.485	7.48
325.698	28.09
325.912	33.23
326.125	23.29
326.339	28.03
326.552	8.37
326.766	6.48
326.979	1.77
327.193	24.05
327.406	9.9
327.619	16.19
327.833	20.93
328.046	5.58
328.26	-36.31
328.473	-23.27
328.686	-64.23
328.9	-63.89
329.113	-38.19
329.326	-40.94
329.54	-37.29
329.753	-20.66
329.966	-47.53
330.179	-51.9
330.393	-16.55
330.606	11.28
330.819	17.04
331.032	35.75
331.246	36.95
331.459	46.48
331.672	33.2
331.885	21.29
332.098	1.85
332.311	-20.51
332.525	-70.95
332.738	-63.33
332.951	-28.74
333.164	2.49
333.377	19.08
333.59	42.22
333.803	39.66
334.016	35.66
334.229	27.82
334.442	33.84
334.655	36.6
334.868	38.25
335.081	36.18
335.294	21.64
335.507	22.51
335.72	20.79
335.933	10.96
336.146	-1.3
336.359	2.64
336.572	-22.14
336.785	-39.11
336.997	-37.94
337.21	-0.34
337.423	-6.77
337.636	9.17
337.849	7.04
338.062	-0.53
338.274	-17.49
338.487	-16.3
338.7	-43.66
338.913	-65.78
339.125	-65.74
339.338	-106.72
339.551	-106.83
339.763	-56.27
339.976	-23.86
340.189	-4.56
340.402	-0.73
340.614	4.69
340.827	-1.57
341.039	-10.71
341.252	-2.78
341.465	3.79
341.677	-0.49
341.89	-31.64
342.102	-12.83
342.315	-22.79
342.527	-34.42
342.74	-11.81
342.952	4.58
343.165	-6.56
343.377	6.85
343.59	7.68
343.802	9.63
344.015	13.83
344.227	24.66
344.44	20.29
344.652	18.71
344.864	5.08
345.077	27.18
345.289	22.03
345.502	18.68
345.714	9.14
345.926	4.43
346.139	-13.63
346.351	-19.07
346.563	-14.36
346.775	-2.8
346.988	6.8
347.2	0.82
347.412	-24.61
347.624	-34.75
347.837	-66.9
348.049	-53.21
348.261	-36.06
348.473	-4.63
348.685	-4.79
348.897	13.65
349.11	-8.02
349.322	-25.1
349.534	-20.39
349.746	-18.58
349.958	-31.76
350.17	-28.29
350.382	2.97
350.594	0.9
350.806	-1.2
351.018	4.65
351.23	-7.23
351.442	-50.97
351.654	-59.42
351.866	-57.33
352.078	-44.76
352.29	-21.94
352.502	4.16
352.714	13.09
352.926	18.81
353.138	21.4
353.35	9.15
353.561	4.78
353.773	-11.9
353.985	-7.3
354.197	-11.27
354.409	-1.94
354.621	-3.15
354.832	3.59
355.044	-4.47
355.256	-11.02
355.468	-0.84
355.679	-9.59
355.891	-6.78
356.103	-18.09
356.314	-4.21
356.526	4.56
356.738	21.7
356.949	17.2
357.161	17.27
357.373	10.98
357.584	-6.08
357.796	0.85
358.008	-8.61
358.219	11.38
358.431	0.02
358.642	7
358.854	-0.4
359.065	-2.82
359.277	-36.11
359.488	-31.15
359.7	-48.09
359.911	-36.9
360.123	-25.8
360.334	-14.03
360.546	-26.5
360.757	-21.41
360.969	-24.69
361.18	-0.39
361.391	-0.16
361.603	-3.2
361.814	-10.62
362.025	-13.7
362.237	-25.37
362.448	-15.19
362.659	10.52
362.871	21.29
363.082	10.86
363.293	8.78
363.504	2.78
363.716	-19.12
363.927	-36.34
364.138	-39.74
364.349	-46.32
364.56	-40.63
364.772	-31.94
364.983	-10.67
365.194	-6.76
365.405	7.2
365.616	12.55
365.827	15.3
366.038	-8.27
366.25	-17.87
366.461	-44.89
366.672	-18.24
366.883	-10.01
367.094	9.22
367.305	7.64
367.516	13.22
367.727	-10.24
367.938	-15.52
368.149	-18.84
368.36	-13.72
368.571	-13.36
368.781	-13.32
368.992	-21.04
369.203	-39.05
369.414	-40.8
369.625	-39.42
369.836	-40.1
370.047	-56.08
370.258	-35.09
370.468	-38.39
370.679	-50.74
370.89	-40.16
371.101	-20.59
371.312	-17.81
371.522	-9.15
371.733	2.63
371.944	-2.66
372.155	3.62
372.365	-3.08
372.576	1.07
372.787	-3.76
372.997	-9.1
373.208	-24.63
373.419	-9.28
373.629	-33.93
373.84	-40.06
374.05	-44.57
374.261	-37.83
374.472	-51.65
374.682	-10.6
374.893	2.63
375.103	28.11
375.314	23.75
375.524	22.03
375.735	15.25
375.945	12.39
376.156	-9.15
376.366	-0.44
376.577	1.62
376.787	3.74
376.997	-6.15
377.208	0.71
377.418	-5.39
377.629	-3.65
377.839	-1.15
378.049	7.83
378.26	9.02
378.47	17.27
378.68	16.83
378.89	11.73
379.101	9.54
379.311	-10.15
379.521	-25.2
379.732	-28.54
379.942	-37.41
380.152	-49.47
380.362	-5.47
380.572	-6.21
380.783	1.88
380.993	14.29
381.203	29.24
381.413	25.19
381.623	25.8
381.833	22.89
382.043	14.11
382.253	0.43
382.463	1.68
382.674	-6.11
382.884	-21.73
383.094	-12.23
383.304	-7.65
383.514	-13.88
383.724	-6.33
383.934	-5.64
384.144	-21.4
384.353	-23.19
384.563	-22.85
384.773	-20.04
384.983	-30.6
385.193	-7.84
385.403	-6.21
385.613	1
385.823	-2.58
386.033	11.46
386.242	-5.76
386.452	-4.18
386.662	-10.32
386.872	-0.88
387.082	-5.85
387.291	-3.11
387.501	-5.79
387.711	-2.62
387.921	-6.19
388.13	-3.45
388.34	4.4
388.55	0.11
388.759	1.39
388.969	0.87
389.179	-3.11
389.388	-5.56
389.598	1.92
389.807	-3.75
390.017	-6.58
390.227	-5.26
390.436	-7.01
390.646	-7.31
390.855	-4.63
391.065	-4.36
391.274	-3.85
391.484	-4.62
391.693	-2.07
391.903	-1.38
392.112	3.5
392.322	3.5
392.531	5.84
392.74	3.35
392.95	-1.71
393.159	-3.44
393.369	-2.52
393.578	-2.9
393.787	-3.86
393.997	-0.95
394.206	-1.88
394.415	-0.91
394.625	-1.02
394.834	-1.29
395.043	-0.2
395.252	2.59
395.462	3.6
395.671	3.49
395.88	3.25
396.089	3.19
396.298	0.39
396.508	-0.51
396.717	-0.66
396.926	0.8
397.135	-0.02
397.344	1.06
397.553	1.6
397.762	2.83
397.971	2.25
398.181	2.66
398.39	1.86
398.599	1.39
398.808	1.18
399.017	1.93
399.226	2.63
399.435	3.49
399.644	3.66
399.853	2.87
400.062	2.55
400.27	2.01
400.479	1.59
400.688	1.17
400.897	1.5
401.106	1.41
401.315	1.62
401.524	1.45
401.733	1.66
401.941	1.83
402.15	1.99
402.359	1.64
402.568	2
402.777	2.01
402.985	1.78
403.194	1.72
403.403	1.7
403.612	1.26
403.82	1.36
404.029	1.65
404.238	1.57
404.446	1.93
404.655	2.15
404.864	2.16
405.072	2
405.281	1.93
405.489	1.72
405.698	1.71
405.906	1.68
406.115	1.82
406.324	1.85
406.532	2.06
406.741	2.25
406.949	2.2
407.158	2.07
407.366	2.16
407.574	2.05
407.783	1.95
407.991	1.78
408.2	1.94
408.408	1.95
408.617	1.86
408.825	1.82
409.033	2.03
409.242	1.83
409.45	1.96
409.658	1.86
409.867	2.01
410.075	1.9
410.283	1.98
410.491	1.86
410.7	1.91
410.908	1.73
411.116	1.91
411.324	1.82
411.533	1.63
411.741	1.84
411.949	1.78
412.157	1.53
412.365	1.58
412.573	1.72
412.781	1.63
412.99	1.63
413.198	1.95
413.406	1.9
413.614	1.83
413.822	1.71
414.03	1.71
414.238	1.48
414.446	1.61
414.654	1.51
414.862	1.69
415.07	1.83
415.278	1.98
415.486	1.88
415.694	2.06
415.902	1.92
416.109	1.89
416.317	1.85
416.525	1.64
416.733	1.5
416.941	1.65
417.149	1.54
417.357	1.44
417.564	1.65
417.772	1.9
417.98	1.71
418.188	1.79
418.395	1.84
418.603	1.95
418.811	1.53
419.019	1.47
419.226	1.48
419.434	1.56
419.642	1.5
419.849	1.75
420.057	1.75
420.265	1.84
420.472	1.72
420.68	1.73
420.887	1.68
421.095	1.91
421.302	1.81
421.51	2.01
421.717	2.08
421.925	2
422.132	1.78
422.34	1.62
422.547	1.41
422.755	1.16
422.962	1.19
423.17	1.2
423.377	1.43
423.585	1.49
423.792	1.51
423.999	1.58
424.207	1.56
424.414	1.49
424.621	1.51
424.829	1.59
425.036	1.65
425.243	1.78
425.451	1.63
425.658	1.59
425.865	1.74
426.072	1.62
426.28	1.79
426.487	1.87
426.694	2
426.901	1.83
427.108	1.8
427.315	1.6
427.523	1.68
427.73	1.44
427.937	1.45
428.144	1.48
428.351	1.48
428.558	1.54
428.765	1.57
428.972	1.47
429.179	1.48
429.386	1.56
429.593	1.35
429.8	1.33
430.007	1.42
430.214	1.49
430.421	1.45
430.628	1.39
430.835	1.33
431.042	1.48
431.249	1.52
431.456	1.48
431.662	1.67
431.869	1.86
432.076	1.72
432.283	1.79
432.49	1.74
432.697	1.8
432.903	1.62
433.11	1.7
433.317	1.7
433.524	1.89
433.73	1.75
433.937	2
434.144	1.89
434.35	1.76
434.557	1.52
434.764	1.58
434.97	1.37
435.177	1.48
435.384	1.52
435.59	1.6
435.797	1.74
436.003	1.75
436.21	1.71
436.416	1.8
436.623	1.88
436.829	1.78
437.036	1.9
437.242	1.9
437.449	1.81
437.655	1.87
437.862	1.89
438.068	1.82
438.275	1.88
438.481	2.03
438.687	1.95
438.894	1.87
439.1	1.96
439.307	2.14
439.513	2.01
439.719	1.98
439.926	2.14
440.132	2.14
440.338	2.01
440.544	2.09
440.751	2.17
440.957	2.11
441.163	2.05
441.369	2.12
441.575	2.01
441.782	2
441.988	1.95
442.194	1.96
442.4	1.92
442.606	2.24
442.812	2.24
443.018	2.27
443.224	2.34
443.431	2.41
443.637	2.12
443.843	2.1
444.049	2.11
444.255	2.01
444.461	1.95
444.667	1.99
444.873	2.13
445.079	2.18
445.284	2.33
445.49	2.21
445.696	2.16
445.902	2.03
446.108	1.96
446.314	1.89
446.52	1.89
446.726	2.02
446.931	2.07
447.137	2.12
447.343	2.16
447.549	2.22
447.755	2.07
447.96	2.1
448.166	2.04
448.372	1.95
448.578	1.99
448.783	2.09
448.989	2.1
449.195	2.23
449.4	2.32
449.606	2.22
449.812	2.19
450.017	2.19
450.223	2.06
450.428	1.96
450.634	2.08
450.84	2.2
451.045	2.2
451.251	2.18
451.456	2.4
451.662	2.47
451.867	2.5
452.073	2.45
452.278	2.57
452.483	2.61
452.689	2.5
452.894	2.39
453.1	2.36
453.305	2.29
453.51	2.2
453.716	2.2
453.921	2.24
454.127	2.26
454.332	2.22
454.537	2.09
454.742	2.09
454.948	2.01
455.153	2.08
455.358	2.22
455.563	2.33
455.769	2.33
455.974	2.37
456.179	2.26
456.384	2.2
456.589	2.16
456.795	2.02
457	2.02
457.205	2.2
457.41	2.18
457.615	2.21
457.82	2.35
458.025	2.39
458.23	2.27
458.435	2.24
458.64	2.2
458.845	2.33
459.05	2.33
459.255	2.31
459.46	2.29
459.665	2.36
459.87	2.31
460.075	2.32
460.28	2.47
460.485	2.58
460.69	2.57
460.895	2.44
461.099	2.38
461.304	2.35
461.509	2.32
461.714	2.3
461.919	2.45
462.123	2.34
462.328	2.31
462.533	2.27
462.738	2.3
462.942	2.29
463.147	2.38
463.352	2.45
463.556	2.49
463.761	2.49
463.966	2.48
464.17	2.54
464.375	2.45
464.58	2.47
464.784	2.4
464.989	2.4
465.193	2.45
465.398	2.49
465.602	2.55
465.807	2.59
466.011	2.66
466.216	2.6
466.42	2.59
466.625	2.63
466.829	2.7
467.034	2.63
467.238	2.81
467.443	2.75
467.647	2.66
467.851	2.7
468.056	2.81
468.26	2.68
468.464	2.77
468.669	2.84
468.873	2.89
469.077	2.78
469.282	2.88
469.486	2.88
469.69	2.87
469.894	2.77
470.099	2.85
470.303	2.82
470.507	2.81
470.711	2.77
470.915	2.85
471.119	2.76
471.324	2.78
471.528	2.81
471.732	2.85
471.936	2.81
472.14	2.91
472.344	2.96
472.548	2.94
472.752	3.02
472.956	3.21
473.16	3.16
473.364	3.09
473.568	3.09
473.772	3.07
473.976	2.96
474.18	3
474.384	3.03
474.588	3.01
474.792	3.03
474.995	3.06
475.199	3.1
475.403	3.14
475.607	3.16
475.811	3.1
476.015	3.14
476.218	3.2
476.422	3.16
476.626	3.21
476.83	3.3
477.033	3.25
477.237	3.15
477.441	3.21
477.644	3.22
477.848	3.2
478.052	3.18
478.255	3.24
478.459	3.27
478.663	3.3
478.866	3.31
479.07	3.37
479.273	3.43
479.477	3.37
479.681	3.37
479.884	3.35
480.088	3.32
480.291	3.26
480.495	3.28
480.698	3.33
480.901	3.36
481.105	3.4
481.308	3.39
481.512	3.44
481.715	3.46
481.919	3.52
482.122	3.56
482.325	3.57
482.529	3.6
482.732	3.55
482.935	3.56
483.138	3.48
483.342	3.57
483.545	3.64
483.748	3.75
483.952	3.7
484.155	3.8
484.358	3.85
484.561	3.78
484.764	3.66
484.967	3.79
485.171	3.91
485.374	3.84
485.577	3.88
485.78	3.96
485.983	3.92
486.186	3.79
486.389	3.79
486.592	3.83
486.795	3.84
486.998	3.81
487.201	3.89
487.404	3.91
487.607	3.88
487.81	3.85
488.013	3.92
488.216	3.85
488.419	3.89
488.622	3.9
488.825	3.96
489.028	3.88
489.231	3.93
489.433	3.86
489.636	3.84
489.839	3.82
490.042	3.86
490.245	3.87
490.447	3.96
490.65	3.99
490.853	4.03
491.056	4.11
491.258	4.12
491.461	4.23
491.664	4.32
491.866	4.36
492.069	4.43
492.272	4.44
492.474	4.43
492.677	4.45
492.879	4.49
493.082	4.56
493.285	4.68
493.487	4.75
493.69	4.73
493.892	4.73
494.095	4.69
494.297	4.71
494.5	4.73
494.702	4.77
494.905	4.82
495.107	4.84
495.309	4.86
495.512	4.97
495.714	5.04
495.917	5.16
496.119	5.27
496.321	5.32
496.524	5.34
496.726	5.39
496.928	5.43
497.13	5.45
497.333	5.5
497.535	5.53
497.737	5.62
497.939	5.64
498.142	5.68
498.344	5.76
498.546	5.67
498.748	5.75
498.95	5.8
499.152	5.84
499.355	5.85
499.557	6.01
499.759	6.07
499.961	6.07
500.163	6.1
500.365	6.14
500.567	6.18
500.769	6.13
500.971	6.19
501.173	6.18
501.375	6.18
501.577	6.15
501.779	6.13
501.981	6.16
502.183	6.2
502.385	6.14
502.587	6.16
502.788	6.18
502.99	6.15
503.192	6.17
503.394	6.26
503.596	6.26
503.798	6.33
503.999	6.36
504.201	6.32
504.403	6.27
504.605	6.35
504.806	6.29
505.008	6.29
505.21	6.31
505.411	6.39
505.613	6.32
505.815	6.3
506.016	6.33
506.218	6.39
506.42	6.31
506.621	6.35
506.823	6.39
507.024	6.32
507.226	6.24
507.427	6.23
507.629	6.23
507.83	6.22
508.032	6.23
508.233	6.3
508.435	6.34
508.636	6.31
508.838	6.27
509.039	6.27
509.24	6.19
509.442	6.13
509.643	6.1
509.845	6.1
510.046	6.09
510.247	6.11
510.448	6.12
510.65	6.13
510.851	6.14
511.052	6.08
511.254	6.05
511.455	6.1
511.656	6.09
511.857	6.12
512.058	6.15
512.26	6.15
512.461	6.11
512.662	6.11
512.863	6
513.064	5.99
513.265	5.94
513.466	5.9
513.667	5.84
513.868	5.87
514.069	5.88
514.27	5.99
514.471	5.99
514.672	6.05
514.873	6.01
515.074	6.02
515.275	5.9
515.476	5.88
515.677	5.85
515.878	5.91
516.079	5.91
516.28	5.95
516.481	6.03
516.682	5.99
516.882	5.93
517.083	5.89
517.284	5.83
517.485	5.82
517.686	5.81
517.886	5.85
518.087	5.84
518.288	5.91
518.488	5.86
518.689	5.87
518.89	5.77
519.091	5.81
519.291	5.77
519.492	5.76
519.692	5.83
519.893	5.93
520.094	5.86
520.294	5.81
520.495	5.8
520.695	5.82
520.896	5.81
521.096	5.86
521.297	5.94
521.497	5.93
521.698	5.87
521.898	5.86
522.099	5.84
522.299	5.89
522.499	5.91
522.7	5.9
522.9	5.85
523.101	5.88
523.301	5.83
523.501	5.78
523.702	5.83
523.902	5.87
524.102	5.88
524.302	5.87
524.503	5.95
524.703	5.94
524.903	5.97
525.103	5.96
525.304	5.97
525.504	6
525.704	6
525.904	5.94
526.104	5.9
526.304	5.91
526.504	5.88
526.705	5.85
526.905	5.93
527.105	5.95
527.305	5.93
527.505	5.91
527.705	5.91
527.905	5.87
528.105	5.89
528.305	5.9
528.505	5.93
528.705	5.99
528.905	5.97
529.105	6
529.304	6.04
529.504	6.12
529.704	6.08
529.904	6.09
530.104	6.05
530.304	6.09
530.503	6.01
530.703	5.99
530.903	5.95
531.103	5.98
531.303	5.93
531.502	5.95
531.702	6.04
531.902	6.1
532.101	6.1
532.301	6.13
532.501	6.18
532.7	6.13
532.9	6.2
533.1	6.24
533.299	6.28
533.499	6.25
533.698	6.24
533.898	6.21
534.097	6.22
534.297	6.2
534.496	6.2
534.696	6.25
534.895	6.27
535.095	6.31
535.294	6.3
535.494	6.27
535.693	6.28
535.892	6.31
536.092	6.23
536.291	6.25
536.491	6.35
536.69	6.36
536.889	6.3
537.088	6.29
537.288	6.31
537.487	6.29
537.686	6.33
537.886	6.43
538.085	6.5
538.284	6.57
538.483	6.6
538.682	6.62
538.882	6.64
539.081	6.68
539.28	6.6
539.479	6.61
539.678	6.59
539.877	6.59
540.076	6.59
540.275	6.66
540.474	6.69
540.673	6.72
540.872	6.71
541.071	6.77
541.27	6.78
541.469	6.79
541.668	6.81
541.867	6.82
542.066	6.82
542.265	6.87
542.464	6.86
542.663	6.89
542.862	6.98
543.06	7.03
543.259	7.05
543.458	7.08
543.657	7.09
543.856	7.11
544.054	7.05
544.253	7.02
544.452	7.05
544.651	7.14
544.849	7.11
545.048	7.21
545.247	7.25
545.445	7.3
545.644	7.31
545.843	7.39
546.041	7.42
546.24	7.47
546.438	7.52
546.637	7.56
546.836	7.64
547.034	7.67
547.233	7.68
547.431	7.68
547.63	7.69
547.828	7.63
548.027	7.64
548.225	7.71
548.423	7.73
548.622	7.76
548.82	7.79
549.019	7.82
549.217	7.87
549.415	7.92
549.614	7.99
549.812	8
550.01	8.05
550.209	8.07
550.407	8.14
550.605	8.15
550.803	8.27
551.002	8.38
551.2	8.45
551.398	8.46
551.596	8.55
551.794	8.57
551.993	8.57
552.191	8.59
552.389	8.72
552.587	8.77
552.785	8.83
552.983	8.91
553.181	9.01
553.379	9.03
553.577	9.07
553.775	9.11
553.973	9.16
554.171	9.23
554.369	9.25
554.567	9.26
554.765	9.3
554.963	9.36
555.161	9.28
555.359	9.37
555.557	9.5
555.755	9.59
555.952	9.67
556.15	9.82
556.348	9.89
556.546	9.98
556.744	10
556.941	9.97
557.139	10.01
557.337	10.1
557.535	10.14
557.732	10.26
557.93	10.39
558.128	10.5
558.325	10.53
558.523	10.55
558.721	10.58
558.918	10.64
559.116	10.67
559.313	10.71
559.511	10.86
559.708	10.89
559.906	10.95
560.104	11.03
560.301	11.14
560.498	11.16
560.696	11.26
560.893	11.36
561.091	11.46
561.288	11.61
561.486	11.74
561.683	11.86
561.88	11.87
562.078	11.93
562.275	11.89
562.473	11.95
562.67	12.02
562.867	12.17
563.064	12.26
563.262	12.4
563.459	12.49
563.656	12.62
563.853	12.76
564.051	12.9
564.248	13.01
564.445	13.09
564.642	13.2
564.839	13.27
565.036	13.39
565.234	13.52
565.431	13.56
565.628	13.65
565.825	13.8
566.022	13.85
566.219	13.89
566.416	14.04
566.613	14.1
566.81	14.15
567.007	14.21
567.204	14.27
567.401	14.32
567.598	14.35
567.795	14.38
567.991	14.42
568.188	14.59
568.385	14.7
568.582	14.79
568.779	14.86
568.976	15
569.172	15.1
569.369	15.18
569.566	15.3
569.763	15.37
569.96	15.44
570.156	15.36
570.353	15.44
570.55	15.58
570.746	15.72
570.943	15.93
571.14	16.07
571.336	16.08
571.533	16.14
571.729	16.2
571.926	16.25
572.123	16.42
572.319	16.55
572.516	16.58
572.712	16.68
572.909	16.61
573.105	16.65
573.302	16.76
573.498	16.86
573.695	16.9
573.891	17.03
574.087	17.04
574.284	17.11
574.48	17.1
574.677	17.22
574.873	17.28
575.069	17.43
575.266	17.48
575.462	17.54
575.658	17.62
575.854	17.72
576.051	17.76
576.247	17.73
576.443	17.79
576.639	17.76
576.835	17.7
577.032	17.7
577.228	17.82
577.424	17.88
577.62	17.89
577.816	17.98
578.012	18.03
578.208	18.04
578.404	18.11
578.6	18.22
578.796	18.28
578.993	18.33
579.189	18.32
579.384	18.34
579.58	18.37
579.776	18.43
579.972	18.38
580.168	18.41
580.364	18.41
580.56	18.34
580.756	18.26
580.952	18.25
581.148	18.28
581.343	18.37
581.539	18.43
581.735	18.52
581.931	18.62
582.127	18.67
582.322	18.6
582.518	18.6
582.714	18.6
582.909	18.57
583.105	18.52
583.301	18.51
583.496	18.53
583.692	18.48
583.888	18.48
584.083	18.55
584.279	18.51
584.474	18.44
584.67	18.52
584.866	18.5
585.061	18.36
585.257	18.46
585.452	18.43
585.648	18.35
585.843	18.35
586.039	18.41
586.234	18.4
586.429	18.5
586.625	18.47
586.82	18.44
587.015	18.53
587.211	18.37
587.406	18.38
587.601	18.44
587.797	18.45
587.992	18.27
588.187	18.41
588.383	18.32
588.578	18.32
588.773	18.41
588.968	18.5
589.163	18.52
589.359	18.55
589.554	18.58
589.749	18.56
589.944	18.63
590.139	18.61
590.334	18.71
590.529	18.71
590.724	18.77
590.919	18.76
591.114	18.79
591.309	18.87
591.504	18.91
591.699	18.86
591.894	18.94
592.089	18.95
592.284	18.96
592.479	19.04
592.674	19.1
592.869	19.14
593.064	19.25
593.259	19.28
593.454	19.33
593.648	19.38
593.843	19.41
594.038	19.41
594.233	19.44
594.428	19.47
594.622	19.55
594.817	19.68
595.012	19.83
595.206	19.89
595.401	19.92
595.596	19.94
595.79	19.99
595.985	19.96
596.18	20.05
596.374	20.22
596.569	20.36
596.763	20.47
596.958	20.58
597.153	20.67
597.347	20.57
597.542	20.64
597.736	20.64
597.931	20.71
598.125	20.7
598.319	20.93
598.514	20.88
598.708	20.94
598.903	20.95
599.097	21.05
599.291	21.03
599.486	21.12
599.68	21.09
599.874	21.26
600.069	21.27
600.263	21.28
600.457	21.42
600.651	21.53
600.846	21.52
601.04	21.63
601.234	21.71
601.428	21.7
601.622	21.75
601.817	21.71
602.011	21.76
602.205	21.79
602.399	21.79
602.593	21.79
602.787	21.93
602.981	21.92
603.175	21.94
603.369	21.89
603.563	21.92
603.757	21.89
603.951	21.91
604.145	21.87
604.339	21.9
604.533	21.87
604.727	21.82
604.921	21.75
605.115	21.8
605.309	21.86
605.502	21.89
605.696	21.89
605.89	21.87
606.084	21.81
606.278	21.79
606.471	21.64
606.665	21.51
606.859	21.4
607.053	21.3
607.246	21.18
607.44	21.21
607.634	21.16
607.827	21.21
608.021	21.19
608.214	21.12
608.408	21.09
608.602	21.1
608.795	21.02
608.989	21.03
609.182	20.97
609.376	20.87
609.569	20.77
609.763	20.64
609.956	20.47
610.15	20.38
610.343	20.36
610.537	20.32
610.73	20.3
610.923	20.27
611.117	20.26
611.31	20.18
611.504	20.14
611.697	20.01
611.89	19.88
612.083	19.86
612.277	19.82
612.47	19.74
612.663	19.84
612.856	19.85
613.05	19.78
613.243	19.69
613.436	19.56
613.629	19.34
613.822	19.24
614.015	19.17
614.209	18.96
614.402	18.98
614.595	19.01
614.788	19.01
614.981	18.84
615.174	18.84
615.367	18.71
615.56	18.58
615.753	18.45
615.946	18.43
616.139	18.44
616.332	18.43
616.525	18.49
616.718	18.46
616.911	18.46
617.103	18.38
617.296	18.36
617.489	18.22
617.682	18.09
617.875	18.1
618.067	18.03
618.26	17.88
618.453	17.84
618.646	17.92
618.838	17.81
619.031	17.86
619.224	17.95
619.417	17.97
619.609	17.93
619.802	17.82
619.994	17.74
620.187	17.7
620.38	17.6
620.572	17.58
620.765	17.64
620.957	17.6
621.15	17.53
621.342	17.57
621.535	17.48
621.727	17.4
621.92	17.28
622.112	17.22
622.305	17.22
622.497	17.18
622.69	17.13
622.882	17.2
623.074	17.29
623.267	17.25
623.459	17.25
623.651	17.31
623.844	17.28
624.036	17.23
624.228	17.15
624.42	17.2
624.613	17.29
624.805	17.32
624.997	17.24
625.189	17.2
625.381	17.14
625.574	17.03
625.766	16.91
625.958	16.97
626.15	17
626.342	17
626.534	16.99
626.726	17.04
626.918	16.99
627.11	16.92
627.302	16.9
627.494	16.8
627.686	16.77
627.878	16.64
628.07	16.67
628.262	16.58
628.454	16.62
628.646	16.59
628.838	16.68
629.029	16.64
629.221	16.61
629.413	16.58
629.605	16.44
629.797	16.39
629.989	16.35
630.18	16.32
630.372	16.26
630.564	16.3
630.755	16.29
630.947	16.3
631.139	16.15
631.33	16.08
631.522	16.14
631.714	16.05
631.905	15.98
632.097	16.01
632.289	15.97
632.48	15.84
632.672	15.89
632.863	15.8
633.055	15.8
633.246	15.82
633.438	15.78
633.629	15.72
633.821	15.77
634.012	15.76
634.203	15.67
634.395	15.68
634.586	15.71
634.777	15.69
634.969	15.72
635.16	15.78
635.351	15.79
635.543	15.76
635.734	15.73
635.925	15.72
636.117	15.77
636.308	15.81
636.499	15.74
636.69	15.71
636.881	15.62
637.073	15.67
637.264	15.62
637.455	15.7
637.646	15.85
637.837	15.95
638.028	15.86
638.219	15.87
638.41	15.79
638.601	15.59
638.792	15.56
638.983	15.51
639.174	15.44
639.365	15.5
639.556	15.48
639.747	15.52
639.938	15.55
640.129	15.46
640.32	15.4
640.511	15.51
640.701	15.54
640.892	15.52
641.083	15.58
641.274	15.57
641.465	15.48
641.655	15.31
641.846	15.3
642.037	15.3
642.228	15.2
642.418	15.26
642.609	15.32
642.8	15.33
642.99	15.29
643.181	15.36
643.372	15.27
643.562	15.23
643.753	15.12
643.943	15.09
644.134	14.98
644.324	14.96
644.515	14.86
644.705	14.97
644.896	14.97
645.086	15.03
645.277	14.99
645.467	15.1
645.658	14.98
645.848	15
646.038	15
646.229	15.02
646.419	14.93
646.61	14.94
646.8	14.9
646.99	14.84
647.18	14.75
647.371	14.72
647.561	14.73
647.751	14.72
647.941	14.63
648.132	14.67
648.322	14.61
648.512	14.65
648.702	14.7
648.892	14.69
649.082	14.67
649.272	14.62
649.462	14.41
649.653	14.34
649.843	14.3
650.033	14.31
650.223	14.29
650.413	14.27
650.603	14.21
650.793	14.3
650.983	14.13
651.172	14.08
651.362	14.02
651.552	13.91
651.742	13.76
651.932	13.8
652.122	13.8
652.312	13.95
652.502	13.91
652.691	13.82
652.881	13.78
653.071	13.77
653.261	13.52
653.45	13.32
653.64	13.35
653.83	13.16
654.019	13.02
654.209	12.96
654.399	13.03
654.588	12.8
654.778	12.76
654.968	12.62
655.157	12.52
655.347	12.39
655.536	12.36
655.726	12.2
655.915	12.02
656.105	11.91
656.294	11.75
656.484	11.56
656.673	11.47
656.863	11.39
657.052	11.22
657.241	11.09
657.431	10.93
657.62	10.78
657.809	10.58
657.999	10.54
658.188	10.36
658.377	10.17
658.567	10.04
658.756	9.97
658.945	9.73
659.134	9.57
659.324	9.48
659.513	9.36
659.702	9.22
659.891	9.09
660.08	8.92
660.269	8.86
660.458	8.68
660.648	8.47
660.837	8.36
661.026	8.36
661.215	8.22
661.404	8.06
661.593	7.96
661.782	7.75
661.971	7.62
662.16	7.4
662.349	7.35
662.538	7.26
662.726	7.23
662.915	7
663.104	6.93
663.293	6.82
663.482	6.72
663.671	6.61
663.86	6.63
664.048	6.56
664.237	6.54
664.426	6.45
664.615	6.44
664.803	6.33
664.992	6.29
665.181	6.18
665.369	6.07
665.558	5.9
665.747	5.74
665.935	5.73
666.124	5.74
666.312	5.72
666.501	5.71
666.69	5.7
666.878	5.59
667.067	5.43
667.255	5.46
667.444	5.61
667.632	5.69
667.82	5.71
668.009	5.69
668.197	5.55
668.386	5.39
668.574	5.3
668.762	5.19
668.951	5.14
669.139	5.15
669.327	5.06
669.516	5.16
669.704	5.03
669.892	5.09
670.08	5.13
670.269	5.08
670.457	4.88
670.645	4.92
670.833	5.01
671.021	4.97
671.21	5.08
671.398	5.27
671.586	5.27
671.774	5.1
671.962	5.07
672.15	5.07
672.338	4.93
672.526	5.05
672.714	4.99
672.902	5.04
673.09	5.13
673.278	5.33
673.466	5.34
673.654	5.59
673.842	5.59
674.03	5.5
674.218	5.34
674.405	5.32
674.593	5.2
674.781	5.26
674.969	5.3
675.157	5.37
675.344	5.51
675.532	5.63
675.72	5.77
675.908	5.79
676.095	5.81
676.283	5.74
676.471	5.87
676.658	5.84
676.846	5.95
677.033	6.07
677.221	6.16
677.409	6.02
677.596	6.06
677.784	6.09
677.971	6.08
678.159	6.13
678.346	6.24
678.534	6.43
678.721	6.58
678.909	6.69
679.096	6.75
679.283	6.95
679.471	6.97
679.658	7
679.846	7.08
680.033	7.25
680.22	7.27
680.408	7.21
680.595	7.32
680.782	7.2
680.969	7.3
681.157	7.45
681.344	7.58
681.531	7.56
681.718	7.78
681.905	7.96
682.093	8.03
682.28	8.2
682.467	8.42
682.654	8.54
682.841	8.45
683.028	8.66
683.215	8.89
683.402	8.97
683.589	9.22
683.776	9.54
683.963	9.58
684.15	9.65
684.337	9.89
684.524	10.02
684.711	10.21
684.898	10.34
685.085	10.55
685.271	10.88
685.458	11.17
685.645	11.34
685.832	11.75
686.019	12.11
686.205	12.28
686.392	12.56
686.579	12.87
686.766	13.15
686.952	13.39
687.139	13.71
687.326	13.98
687.512	14.38
687.699	14.82
687.886	15.13
688.072	15.38
688.259	15.84
688.445	16.28
688.632	16.64
688.818	17.16
689.005	17.63
689.191	18.01
689.378	18.45
689.564	18.92
689.751	19.49
689.937	20.14
690.124	20.76
690.31	21.18
690.496	21.73
690.683	22.15
690.869	22.65
691.055	23.14
691.242	23.9
691.428	24.52
691.614	25.12
691.8	25.74
691.987	26.56
692.173	27.03
692.359	27.71
692.545	28.47
692.731	29.04
692.918	29.54
693.104	30.19
693.29	30.8
693.476	31.45
693.662	32.31
693.848	33.08
694.034	33.92
694.22	34.67
694.406	35.46
694.592	36.1
694.778	36.8
694.964	37.43
695.15	38.08
695.336	38.62
695.522	39.45
695.708	39.91
695.894	40.52
696.08	41.09
696.265	41.76
696.451	42.18
696.637	43.12
696.823	43.8
697.009	44.47
697.194	45.28
697.38	45.97
697.566	46.41
697.751	46.94
697.937	47.61
698.123	48.13
698.308	48.99
698.494	49.68
698.68	50.44
698.865	51.01
699.051	51.83
699.236	52.07
699.422	52.68
699.607	53.07
699.793	53.73
699.978	53.93
700.164	54.57
700.349	55.31
700.535	56.01
700.72	56.48
700.906	57.24
701.091	57.84
701.276	58.27
701.462	58.96
701.647	59.83
701.832	60.22
702.018	60.68
702.203	60.71
702.388	60.95
702.573	61.04
702.759	61.76
702.944	62.11
703.129	62.42
703.314	62.81
703.499	63.34
703.684	63.31
703.87	63.92
704.055	64.87
704.24	65.4
704.425	65.88
704.61	66.5
704.795	66.59
704.98	66.93
705.165	66.79
705.35	67.02
705.535	67.35
705.72	67.87
705.905	68.08
706.09	68.8
706.275	68.98
706.459	69.08
706.644	69.2
706.829	69.44
707.014	69.44
707.199	69.9
707.384	70.25
707.568	70.6
707.753	70.99
707.938	71.33
708.123	71.4
708.307	71.54
708.492	71.83
708.677	72.39
708.861	72.59
709.046	72.56
709.231	73.29
709.415	73.56
709.6	73.36
709.784	73.61
709.969	73.8
710.153	73.64
710.338	73.74
710.522	73.71
710.707	74.15
710.891	74.64
711.076	74.86
711.26	74.6
711.445	74.98
711.629	75.02
711.813	75.12
711.998	75.43
712.182	75.96
712.366	76.39
712.551	76.76
712.735	77.25
712.919	77.2
713.103	77.55
713.288	77.24
713.472	77.2
713.656	77.38
713.84	77.37
714.024	77.52
714.208	77.63
714.393	78.22
714.577	78.07
714.761	78.27
714.945	78.02
715.129	78.28
715.313	78.07
715.497	77.96
715.681	78.17
715.865	78.36
716.049	78.38
716.233	78.28
716.417	78.41
716.601	78.5
716.785	78.63
716.968	78.86
717.152	78.98
717.336	79.06
717.52	79.24
717.704	79.27
717.888	79.75
718.071	79.97
718.255	80.19
718.439	80.1
718.622	80.46
718.806	80.35
718.99	79.84
719.174	79.83
719.357	79.78
719.541	79.74
719.724	79.67
719.908	80.94
720.092	81.66
720.275	82.04
720.459	81.79
720.642	81.74
720.826	80.94
721.009	80.28
721.193	79.92
721.376	80.12
721.559	80.32
721.743	80.82
721.926	80.91
722.11	81.22
722.293	80.83
722.476	81.01
722.66	80.82
722.843	81.34
723.026	80.84
723.21	81.47
723.393	81.59
723.576	81.6
723.759	81.12
723.942	81.63
724.126	81.63
724.309	81.77
724.492	81.96
724.675	81.93
724.858	82.34
725.041	82.76
725.224	83.04
725.407	83.09
725.59	83.59
725.774	83.14
725.957	82.19
726.14	81.58
726.322	81.71
726.505	81.53
726.688	82.09
726.871	82.95
727.054	83.16
727.237	83.28
727.42	83.4
727.603	83.45
727.786	83.48
727.968	83.48
728.151	83.67
728.334	83.89
728.517	83.92
728.699	84.02
728.882	84.6
729.065	84.46
729.248	85.06
729.43	85.19
729.613	86.03
729.796	86.23
729.978	85.93
730.161	85.65
730.343	85.3
730.526	85.19
730.708	84.36
730.891	85.11
731.073	85.04
731.256	85.23
731.438	84.99
731.621	85.82
731.803	85.11
731.986	84.91
732.168	84.46
732.35	84.79
732.533	84.74
732.715	85.41
732.898	85.97
733.08	86.28
733.262	86.13
733.444	86.39
733.627	86.65
733.809	86.26
733.991	86.74
734.173	86.61
734.355	86.29
734.538	86.47
734.72	86.67
734.902	87.05
735.084	87.53
735.266	87.81
735.448	88.49
735.63	88.28
735.812	88.74
735.994	88.44
736.176	88.52
736.358	87.62
736.54	88.6
736.722	87.09
736.904	86.54
737.086	86.8
737.268	87.81
737.45	87.8
737.632	88.46
737.814	88.77
737.995	88.33
738.177	87.78
738.359	86.8
738.541	87.55
738.723	88.14
738.904	88.8
739.086	88.94
739.268	89.51
739.449	89.4
739.631	89.57
739.813	89.75
739.994	89.95
740.176	90.37
740.358	90.17
740.539	90.67
740.721	90.66
740.902	90.82
741.084	90.19
741.265	90.33
741.447	89.36
741.628	89.41
741.81	88.21
741.991	89.32
742.172	89.78
742.354	90.69
742.535	90.83
742.717	92.4
742.898	91.9
743.079	91.98
743.261	91.98
743.442	90.46
743.623	89.97
743.804	90.49
743.986	90.01
744.167	88.98
744.348	89.57
744.529	89.2
744.71	87.77
744.891	87.68
745.073	87.31
745.254	87.2
745.435	86.93
745.616	86.67
745.797	86.35
745.978	86.98
746.159	88.12
746.34	87.96
746.521	90
746.702	88.84
746.883	88.21
747.064	87.54
747.245	88.23
747.426	87.38
747.606	88.62
747.787	89.45
747.968	89.53
748.149	89.57
748.33	89.23
748.51	89.51
748.691	89.52
748.872	90
749.053	89.21
749.233	88.66
749.414	88.57
749.595	87.1
749.775	85.83
749.956	85.76
750.137	85.89
750.317	86.58
750.498	88.52
750.678	89.1
750.859	90.32
751.04	90.45
751.22	89.09
751.4	87.94
751.581	87.3
751.761	86.89
751.942	87.7
752.122	87.95
752.303	88.24
752.483	87.8
752.663	87.43
752.844	86.16
753.024	86.5
753.204	86.84
753.385	86.03
753.565	86.15
753.745	86.73
753.925	87.1
754.106	86.56
754.286	88.36
754.466	88
754.646	89.61
754.826	88.47
755.006	87.33
755.187	87.53
755.367	87.53
755.547	85.89
755.727	87.65
755.907	89.05
756.087	89.63
756.267	89.01
756.447	88.85
756.627	86.32
756.807	86.57
756.987	85.41
757.167	86.43
757.346	86.13
757.526	86.75
757.706	88.41
757.886	88.6
758.066	88.81
758.246	90.54
758.425	90.85
758.605	89.63
758.785	89.57
758.965	89.26
759.144	87.27
759.324	86.99
759.504	86.73
759.683	87.04
759.863	86.22
760.043	86.14
760.222	86.04
760.402	84.8
760.581	84.2
760.761	86.18
760.94	87.04
761.12	87.54
761.299	89.08
761.479	89.54
761.658	87.46
761.838	87.47
762.017	88.26
762.197	87.18
762.376	87.52
762.555	88.37
762.735	88.3
762.914	86.81
763.093	86.56
763.273	85.28
763.452	85.69
763.631	85.25
763.81	86.15
763.99	86.79
764.169	87.57
764.348	85.11
764.527	83.97
764.706	85.03
764.885	86.96
765.064	86.35
765.243	87.03
765.423	89.04
765.602	87.77
765.781	84.67
765.96	83.99
766.139	83.41
766.318	82.57
766.497	81.71
766.676	82.96
766.854	84.06
767.033	85.05
767.212	85.09
767.391	85.86
767.57	86.68
767.749	85.41
767.928	86.9
768.106	86.32
768.285	85.09
768.464	83.7
768.643	83.87
768.821	82.73
769	85.72
769.179	85.28
769.357	84.5
769.536	84.33
769.715	85.56
769.893	85
770.072	85.74
770.25	86.7
770.429	87.85
770.607	85.7
770.786	82.81
770.964	84.2
771.143	82.97
771.321	83.73
771.5	83.93
771.678	82.73
771.857	82.09
772.035	82.25
772.213	81.4
772.392	81.27
772.57	82.91
772.748	82.14
772.927	82.84
773.105	80.74
773.283	80.26
773.461	81.49
773.64	83.07
773.818	84.53
773.996	86.73
774.174	87.52
774.352	84.77
774.531	81.85
774.709	79.9
774.887	77.98
775.065	77.46
775.243	80.01
775.421	80.08
775.599	82.11
775.777	83.51
775.955	82.96
776.133	81.4
776.311	83.71
776.489	81.17
776.667	80.98
776.844	81.95
777.022	81.2
777.2	80.5
777.378	81.9
777.556	81.68
777.734	80.88
777.911	83.15
778.089	81.98
778.267	80.71
778.445	80.42
778.622	79.92
778.8	78.38
778.978	79.79
779.155	80.33
779.333	80.92
779.511	82.47
779.688	82.39
779.866	78.66
780.043	76.74
780.221	77.33
780.398	75.41
780.576	75.54
780.753	79.57
780.931	80.16
781.108	79.13
781.286	80.1
781.463	79.2
781.64	74.01
781.818	73.67
781.995	74.12
782.172	76.44
782.35	78.23
782.527	84.05
782.704	83.08
782.882	83.45
783.059	81.04
783.236	81.03
783.413	80.46
783.59	80.64
783.768	80.07
783.945	80.61
784.122	79.43
784.299	79.64
784.476	77.02
784.653	76.65
784.83	74.82
785.007	71.87
785.184	70.35
785.361	72.37
785.538	74.12
785.715	78.79
785.892	82.28
786.069	85.94
786.246	88.65
786.423	89.54
786.6	85.66
786.776	85.07
786.953	81.47
787.13	81.87
787.307	80.89
787.484	82.1
787.66	80.63
787.837	82.18
788.014	80.15
788.191	76.48
788.367	72.88
788.544	76.48
788.721	73.69
788.897	77.57
789.074	77.39
789.25	79.32
789.427	77.94
789.603	80.72
789.78	77.29
789.956	76.99
790.133	74.57
790.309	75.02
790.486	74.46
790.662	72.81
790.839	73.23
791.015	75.4
791.192	74.11
791.368	75.37
791.544	74.72
791.721	78.96
791.897	78.62
792.073	75.93
792.249	68.58
792.426	72.58
792.602	71.49
792.778	66.03
792.954	68.37
793.13	72.11
793.307	63.54
793.483	59.96
793.659	67.54
793.835	71.01
794.011	69.7
794.187	78.42
794.363	74.53
794.539	76.62
794.715	69.27
794.891	69.48
795.067	64.88
795.243	69.07
795.419	64.76
795.595	67.95
795.771	67.42
795.947	67.14
796.122	68.79
796.298	71.55
796.474	70.84
796.65	73.63
796.826	76.44
797.001	75.42
797.177	70.38
797.353	74.14
797.529	74.55
797.704	76.39
797.88	72.73
798.056	74.97
798.231	75.24
798.407	74.94
798.582	72.15
798.758	80.02
798.934	81.92
799.109	76.65
799.285	75.81
799.46	76.99
799.636	71.94
799.811	71.83
799.986	70.79
800.162	71.13
800.337	69.05
800.513	65.98
800.688	66.2
800.863	74.24
801.039	68.73
801.214	67.47
801.389	72.67
801.565	73.38
801.74	60.82
801.915	70.46
802.09	72.12
802.265	74.79
802.441	67.24
802.616	70.49
802.791	67.16
802.966	66.09
803.141	64.49
803.316	68.48
803.491	74.35
803.666	73.49
803.841	69.16
804.016	66.01
804.191	63.8
804.366	58.45
804.541	58.78
804.716	60.01
804.891	57.25
805.066	65.3
805.241	65.58
805.416	64.36
805.591	66.98
805.765	71.72
805.94	69.35
806.115	66.4
806.29	65.54
806.464	67.31
806.639	66.6
806.814	60.07
806.989	64.69
807.163	66.72
807.338	69.95
807.512	66.84
807.687	60.76
807.862	60.48
808.036	63.54
808.211	59.52
808.385	58.27
808.56	70.89
808.734	74.47
808.909	72.02
809.083	73.15
809.258	77.2
809.432	74.91
809.606	65.22
809.781	70.1
809.955	69.75
810.13	72.42
810.304	71.59
810.478	67.9
810.652	66.51
810.827	68.52
811.001	67.42
811.175	66.8
811.349	74.08
811.524	67.58
811.698	57.96
811.872	58.7
812.046	64.13
812.22	67.03
812.394	66.21
812.568	78.65
812.742	83.25
812.916	73.48
813.09	71.73
813.264	76.18
813.438	68.8
813.612	62.92
813.786	64.68
813.96	68.91
814.134	73.18
814.308	83.26
814.482	82.13
814.656	74.77
814.83	69.87
815.003	62.67
815.177	53.24
815.351	56.59
815.525	62.2
815.698	55.48
815.872	51.92
816.046	43.05
816.219	46.43
816.393	50.13
816.567	61.01
816.74	66.87
816.914	78.61
817.088	75.58
817.261	71.03
817.435	68.65
817.608	65.64
817.782	50.76
817.955	49.46
818.129	44.86
818.302	37.28
818.475	47.23
818.649	54.18
818.822	49.41
818.996	64.48
819.169	80.56
819.342	73.86
819.516	88.18
819.689	86.71
819.862	74.74
820.035	71.34
820.209	64.01
820.382	54.12
820.555	52.75
820.728	45.46
820.901	37.58
821.075	36.52
821.248	45.64
821.421	45.17
821.594	48.58
821.767	61.59
821.94	79.25
822.113	57.86
822.286	57.74
822.459	67.02
822.632	61.09
822.805	37.47
822.978	39.17
823.151	44.55
823.324	35.98
823.496	31.53
823.669	30.99
823.842	42.08
824.015	26.78
824.188	27.61
824.361	30.2
824.533	35.3
824.706	27.37
824.879	35.29
825.051	33.28
825.224	25.1
825.397	22.34
825.569	26.98
825.742	35.13
825.915	53.39
826.087	65.24
826.26	55.54
826.432	61.56
826.605	58.7
826.777	54.97
826.95	46.53
827.122	34.21
827.295	37.35
827.467	46.61
827.64	15.04
827.812	30.54
827.984	50.23
828.157	28.83
828.329	-22.61
828.501	8.41
828.674	20.33
828.846	3.36
829.018	41.06
829.19	46.65
829.363	60.37
829.535	47.61
829.707	56.66
829.879	22.09
830.051	39.98
830.223	32.94
830.395	40.45
830.568	39.32
830.74	49.56
830.912	50.15
831.084	29.71
831.256	28.74
831.428	32.5
831.6	16.03
831.772	-7.22
831.943	-7.7
832.115	-3.88
832.287	9.93
832.459	18.28
832.631	35.35
832.803	54.64
832.975	77.8
833.146	72.46
833.318	79.47
833.49	86.8
833.662	75.32
833.833	56.79
834.005	46.12
834.177	68.66
834.348	53.17
834.52	50.63
834.692	36.81
834.863	26.62
835.035	-3.32
835.206	-20.76
835.378	-8.29
835.549	18.83
835.721	24.18
835.892	32.95
836.064	36.29
836.235	32.7
836.407	47.46
836.578	50.42
836.749	66.07
836.921	62.02
837.092	44.23
837.264	-1.08
837.435	-5.46
837.606	17.83
837.777	40.44
837.949	41.53
838.12	37.82
838.291	50.11
838.462	50.05
838.633	28.17
838.805	37.64
838.976	65.06
839.147	57.91
839.318	-1.1
839.489	-30.8
839.66	-46.15
839.831	-5.58
840.002	-9.32
840.173	1.03
840.344	39.79
840.515	59.88
840.686	-23.24
840.857	-5.12
841.028	8.86
841.199	6.05
841.369	-7.3
841.54	19.84
841.711	42.21
841.882	66.59
842.053	56.12
842.223	55.74
842.394	49.32
842.565	33.64
842.736	25
842.906	35.07
843.077	37.34
843.248	41.07
843.418	48.98
843.589	23.76
843.759	46.08
843.93	35.23
844.101	35.59
844.271	30.33
844.442	60.22
844.612	52.19
844.783	34.17
844.953	-15
845.123	-45.38
845.294	-120.11
845.464	-306.12
845.635	-131.01
845.805	-49.22
845.975	-29.89
846.146	-37.71
846.316	-30.14
846.486	-12.59
846.656	25.89
846.827	36.85
846.997	43.47
847.167	86.02
847.337	68.27
847.507	42.06
847.677	62.78
847.848	84.47
848.018	58.22
848.188	66.49
848.358	60.55
848.528	40.45
848.698	10.39
848.868	-4.9
849.038	-89.39
849.208	-6.42
849.378	31.26
849.548	23.49
849.718	31.56
849.887	44.63
850.057	26.65
850.227	16.55
850.397	18.07
850.567	-89.49
850.737	-282.83
850.906	-711.88
851.076	-355.86
851.246	-221.2
851.415	20.3
851.585	13.93
851.755	-28.34
851.924	-31.98
852.094	-58.63
852.264	-157.85
852.433	-763.94
852.603	-113.49
852.772	-23.38
852.942	-3.53
853.111	18.51
853.281	34.13
853.45	65.96
853.62	7.71
853.789	22.55
853.959	52.19
854.128	11.95
854.297	-34.98
854.467	-57.21
854.636	-84.68
854.805	-14.11
854.975	-43.16
855.144	-63.15
855.313	107.34
855.482	-216.42
855.652	-129.75
855.821	14.97
855.99	35.05
856.159	16.36
856.328	30.88
856.497	7.06
856.667	0.25
856.836	-4.49
857.005	-22.58
857.174	-55.33
857.343	-95.24
857.512	-71.32
857.681	-101
857.85	-128.71
858.019	-46.59
858.188	-23.27
858.356	-52.91
858.525	-87.32
858.694	-51.46
858.863	-149.58
859.032	-104.24
859.201	-143.84
859.369	-82.53
859.538	-47.13
859.707	-31.77
859.876	-35.14
860.044	5.66
860.213	35.96
860.382	24.93
860.55	48.17
860.719	66.37
860.888	54.15
861.056	46.43
861.225	38.27
861.393	49.95
861.562	33.6
861.73	24.71
861.899	31.68
862.067	374.14
862.236	93.96
862.404	30.4
862.572	0.1
862.741	18.07
862.909	-0.59
863.078	-103.17
863.246	-19.25
863.414	44.29
863.582	19.06
863.751	24.78
863.919	45.62
864.087	42.64
864.255	32.7
864.424	7.37
864.592	59.99
864.76	106.22
864.928	355.6
865.096	77.55
865.264	99.6
865.432	130.68
865.6	121.75
865.768	-16.16
865.936	-43.68
866.104	-84.74
866.272	-31.72
866.44	-221.85
866.608	258.97
866.776	100.41
866.944	1233.72
867.112	-330.3
867.28	-113.13
867.448	-78.63
867.615	-36.72
867.783	6.32
867.951	-3.46
868.119	2.23
868.286	15.84
868.454	-45.17
868.622	-72.91
868.789	-41.54
868.957	-789.29
869.125	-1380.26
869.292	-94.23
869.46	-214.53
869.627	-60.19
869.795	-42.26
869.963	-17.65
870.13	18.89
870.298	63.37
870.465	47.85
870.632	32.72
870.8	60.46
870.967	36.24
871.135	-14.6
871.302	1.12
871.469	35.29
871.637	45.02
871.804	-21.29
871.971	-44.96
872.139	-320.7
872.306	-36.43
872.473	-35.67
872.64	-113.09
872.807	53.73
872.975	70.96
873.142	-43.45
873.309	728.38
873.476	51.59
873.643	29.15
873.81	35.87
873.977	72.11
874.144	73.38
874.311	-41.53
874.478	-46.19
874.645	-61.68
874.812	-55.01
874.979	-36.62
875.146	-11.41
875.313	-22
875.48	43.97
875.647	9.74
875.813	-16.64
875.98	-10.57
876.147	-42.74
876.314	-113.49
876.481	755.79
876.647	-929.78
876.814	273.32
876.981	56.73
877.147	-17.99
877.314	11.38
877.481	21.36
877.647	29.78
877.814	-2.67
877.98	-5.59
878.147	-0.35
878.314	20.77
878.48	-28.4
878.647	-8.11
878.813	32.79
878.979	33.83
879.146	1.55
879.312	1.26
879.479	-64.7
879.645	-145.43
879.811	-221.29
879.978	-356.87
880.144	-125.42
880.31	-43.45
880.477	-220.52
880.643	-266.02
880.809	-105.81
880.975	-75.77
881.142	-561.36
881.308	-36.82
881.474	-38.15
881.64	-63.4
881.806	-56.26
881.972	9.02
882.138	33.1
882.304	64.99
882.47	-28.51
882.636	-331.56
882.802	-155.57
882.968	-47.44
883.134	-12.99
883.3	-28.6
883.466	3.64
883.632	38.27
883.798	12.37
883.964	-30.43
884.129	-24.03
884.295	-1.27
884.461	-17.25
884.627	-0.37
884.793	9.82
884.958	22.3
885.124	-35.02
885.29	-103.79
885.455	-229.85
885.621	-41.24
885.787	-103.98
885.952	-38.78
886.118	-37.48
886.283	-28.03
886.449	-75.17
886.614	-80.27
886.78	-168.27
886.945	825.41
887.111	-481.79
887.276	-465.06
887.442	-823.18
887.607	-470.99
887.773	-326.59
887.938	-245.82
888.103	-260.84
888.269	-163.4
888.434	-153.78
888.599	-70.97
888.764	-15.72
888.93	26.53
889.095	0.72
889.26	-25.92
889.425	1.65
889.59	51.55
889.756	-18.66
889.921	31.98
890.086	25
890.251	35.85
890.416	-96.68
890.581	-754.03
890.746	109.11
890.911	-13.69
891.076	90.13
891.241	16.04
891.406	67.44
891.571	-29.74
891.736	-269.5
891.901	-400.44
892.065	714.84
892.23	138.88
892.395	183.07
892.56	246.1
892.725	-473.05
892.889	-1286.59
893.054	-235.49
893.219	-82.6
893.384	-35.75
893.548	-30.62
893.713	-35.11
893.878	-5.84
