Data from Ofra_PS_T2_1A_4HS15_Reflection_2.txt Node
Date: Wed Jul 21 18:07:08 EDT 2021
User: Adam
Spectrometer: FLMT01687
Trigger mode: 0
Integration Time (sec): 1.100000E0
Scans to average: 2
Electric dark correction enabled: true
Nonlinearity correction enabled: false
Boxcar width: 2
XAxis mode: Wavelengths
Number of Pixels in Spectrum: 3648
>>>>>Begin Spectral Data<<<<<
179.494	537
179.716	599.29
179.937	613.76
180.158	581.81
180.38	940.78
180.601	412.29
180.823	178.58
181.044	-10.31
181.265	222.24
181.486	88.27
181.708	135.62
181.929	935.2
182.15	-675
182.372	97.55
182.593	46.25
182.814	58.48
183.035	126.39
183.257	115.93
183.478	-3.67
183.699	16.74
183.92	-12.52
184.141	-20.47
184.363	-65.28
184.584	36.54
184.805	42.58
185.026	74.11
185.247	80.12
185.468	63.25
185.689	28.08
185.91	24.4
186.132	4.76
186.353	-26.07
186.574	20.52
186.795	63.43
187.016	29.66
187.237	25.02
187.458	50.58
187.679	2.93
187.9	-18.79
188.121	-4.66
188.342	35.78
188.563	54.69
188.784	98.02
189.005	96.87
189.226	141.83
189.447	97.4
189.667	-25.85
189.888	-309.98
190.109	-1440.58
190.33	-837.58
190.551	-1382.52
190.772	-238.8
190.993	-164.5
191.214	-100.05
191.434	-51.56
191.655	12.98
191.876	-60.61
192.097	-72.25
192.318	-106.81
192.538	-186.29
192.759	-153.49
192.98	-69.34
193.201	-54.66
193.421	-25.32
193.642	-15.67
193.863	1.32
194.083	-9.7
194.304	-6.56
194.525	-6.25
194.745	25.11
194.966	-17.36
195.187	-13.64
195.407	-40.54
195.628	-122.19
195.848	-147.1
196.069	-123.9
196.29	-137.03
196.51	-161.43
196.731	-129.18
196.951	-170.19
197.172	-206.75
197.392	-170.55
197.613	-151.79
197.833	-174.11
198.054	-127.05
198.274	-63.39
198.495	-90.5
198.715	-44.14
198.936	-51.22
199.156	-38.1
199.377	-154.27
199.597	-146.52
199.817	-159.06
200.038	-99.17
200.258	-193.81
200.479	-87.97
200.699	-69.3
200.919	6.28
201.14	4.24
201.36	16.31
201.58	31.94
201.801	43.17
202.021	7.83
202.241	-6.77
202.461	-10.56
202.682	-112.1
202.902	-168.25
203.122	-110.38
203.342	-71.17
203.563	-24.6
203.783	-10.22
204.003	-62.53
204.223	-71.24
204.443	-17.32
204.663	-86.33
204.884	-37.64
205.104	-0.78
205.324	24.39
205.544	20.35
205.764	68.18
205.984	54.94
206.204	52.97
206.424	47.84
206.644	4.08
206.864	-11.29
207.084	-51.08
207.304	-24.92
207.525	-123.52
207.745	-18.43
207.964	24.57
208.184	-19.88
208.404	-60.34
208.624	-72.19
208.844	-71.65
209.064	-357.89
209.284	-334
209.504	-189.54
209.724	-48.67
209.944	-25.62
210.164	26.29
210.384	30.59
210.604	38.23
210.823	-13.52
211.043	-29.84
211.263	-42.18
211.483	-56.94
211.703	-119.78
211.922	-77.2
212.142	-18.56
212.362	12.14
212.582	28.19
212.801	26.76
213.021	1.12
213.241	-35.97
213.461	-91.56
213.68	-120.27
213.9	-67.75
214.12	-56.54
214.339	-94.53
214.559	-83.39
214.779	-26.19
214.998	-33.38
215.218	-74.18
215.438	-25.27
215.657	-20.45
215.877	-44.66
216.096	-24.41
216.316	-6.21
216.535	-23.38
216.755	-24.28
216.974	-112.66
217.194	-153.01
217.413	-134.83
217.633	-146.44
217.852	-234.79
218.072	-91.39
218.291	-43.61
218.511	-8.24
218.73	-16.52
218.95	-10.3
219.169	-18.79
219.389	-60.68
219.608	-50.55
219.827	-51.25
220.047	-40.59
220.266	-30.65
220.485	-16.92
220.705	-4.54
220.924	-21.82
221.143	16.76
221.363	13.91
221.582	12.46
221.801	8.2
222.021	37.45
222.24	-35.51
222.459	2.19
222.678	2.33
222.897	-35.48
223.117	-105.66
223.336	-70.61
223.555	-70.96
223.774	-17.01
223.993	-16.19
224.213	59.95
224.432	45.27
224.651	72.76
224.87	41.23
225.089	48.18
225.308	40.7
225.527	49.69
225.746	41.77
225.965	39.2
226.184	28.27
226.404	26.62
226.623	1.96
226.842	-0.13
227.061	33.29
227.28	35.33
227.499	25.53
227.718	39.14
227.936	35.24
228.155	29.24
228.374	25.84
228.593	24.08
228.812	21.64
229.031	16.77
229.25	-36.09
229.469	-39.32
229.688	-5.04
229.907	24.73
230.125	42.26
230.344	44.75
230.563	50.27
230.782	41.83
231.001	-44.88
231.22	-42.87
231.438	-7.51
231.657	-12.93
231.876	-19.82
232.095	30.97
232.313	28.99
232.532	2.59
232.751	-18.83
232.969	-34.78
233.188	-85.02
233.407	-3.05
233.625	-2.43
233.844	-8.12
234.063	13.17
234.281	28.8
234.5	19.82
234.719	25.58
234.937	32.53
235.156	31.17
235.374	20.48
235.593	0.87
235.811	1.75
236.03	4.08
236.249	-44.16
236.467	-28.94
236.686	-0.97
236.904	10.96
237.123	-12.24
237.341	-8.61
237.559	-0.9
237.778	-3
237.996	-40.17
238.215	3.68
238.433	20.34
238.652	13.84
238.87	-31.36
239.088	-2.13
239.307	-5.54
239.525	-16.35
239.743	-41.84
239.962	-28.12
240.18	-59.35
240.398	-95.96
240.617	-96.41
240.835	-79.01
241.053	-30.82
241.271	6.11
241.49	19.85
241.708	6.92
241.926	-7.61
242.144	-32.49
242.363	-66.47
242.581	-86.57
242.799	-40.51
243.017	-4.56
243.235	-9.23
243.453	3.66
243.672	0.92
243.89	-7.59
244.108	-10.43
244.326	7.63
244.544	0.77
244.762	2.96
244.98	9.89
245.198	-2.23
245.416	-28.73
245.634	-18.71
245.852	-35.46
246.07	-55.64
246.288	-55.33
246.506	-79.07
246.724	-71.01
246.942	-63.68
247.16	-18.28
247.378	-2.17
247.596	12.77
247.814	14.6
248.032	5.21
248.25	-0.39
248.468	2.28
248.685	15.51
248.903	35.08
249.121	32.53
249.339	4.73
249.557	-19.49
249.775	-7.87
249.992	-74.3
250.21	-54.98
250.428	-32.8
250.646	-43.51
250.863	-70.61
251.081	-45.15
251.299	-56.9
251.517	-34.51
251.734	-27.42
251.952	-19.36
252.17	-5.29
252.387	1.73
252.605	-22.96
252.823	-17.44
253.04	-2.96
253.258	-5.26
253.475	-11.51
253.693	21.93
253.911	35.77
254.128	35.36
254.346	56.78
254.563	26.12
254.781	-2.45
254.998	-25.88
255.216	-48.14
255.433	-51.88
255.651	-13.35
255.868	20.15
256.086	35.8
256.303	38.71
256.521	34.07
256.738	17.56
256.956	-8.26
257.173	-15.32
257.39	-35.32
257.608	-46.23
257.825	8.47
258.043	36.78
258.26	51.84
258.477	104.44
258.695	95.24
258.912	51.94
259.129	47.56
259.346	1.64
259.564	-40.7
259.781	-61.95
259.998	-17.4
260.216	4.19
260.433	43.79
260.65	28.56
260.867	55.34
261.084	36.38
261.302	7.22
261.519	-5.23
261.736	-24.34
261.953	-75.87
262.17	-36.55
262.387	-78.94
262.604	-98.99
262.822	-100.3
263.039	-63.13
263.256	-123.01
263.473	-60.32
263.69	-45.96
263.907	2.05
264.124	13.73
264.341	22.66
264.558	10.85
264.775	19.36
264.992	-6.46
265.209	2.92
265.426	23.94
265.643	40.32
265.86	47.85
266.077	55.07
266.294	44.11
266.51	-8.01
266.727	-40.55
266.944	-50.46
267.161	-54.94
267.378	-55.77
267.595	-29.23
267.812	-60.62
268.028	-73.7
268.245	-33.81
268.462	-50.7
268.679	-59.18
268.896	14.9
269.112	25.34
269.329	8.85
269.546	11.19
269.763	10.01
269.979	-20.87
270.196	-24.16
270.413	-57.27
270.629	-64.34
270.846	-65.57
271.063	-51.42
271.279	-68.24
271.496	-56.18
271.712	-19.76
271.929	-24.47
272.146	-23.36
272.362	-4.57
272.579	28.27
272.795	17.9
273.012	31.68
273.228	17.72
273.445	4.06
273.661	-20.88
273.878	-65.46
274.094	-40.96
274.311	-72.79
274.527	0.05
274.744	8.61
274.96	27.3
275.177	11.27
275.393	47.08
275.609	22.22
275.826	35.46
276.042	21.46
276.259	3.19
276.475	6.27
276.691	16.61
276.908	-3.09
277.124	22.42
277.34	52.43
277.557	46.55
277.773	25.65
277.989	24.68
278.205	7.12
278.422	-4.59
278.638	-4.91
278.854	13.24
279.07	7.85
279.286	9.34
279.503	-6.24
279.719	-10.63
279.935	-34.78
280.151	-36.89
280.367	-13.56
280.583	-25.68
280.799	-14.99
281.016	-44.52
281.232	-9.3
281.448	-9.15
281.664	23.6
281.88	-4.08
282.096	13.76
282.312	35.07
282.528	34.57
282.744	25.09
282.96	18.36
283.176	9.76
283.392	-4.53
283.608	-10.29
283.824	-14.36
284.04	7.87
284.256	19.99
284.471	-2.61
284.687	-9.64
284.903	25.25
285.119	35.8
285.335	14.82
285.551	38.85
285.767	42.14
285.982	26.38
286.198	-11.14
286.414	38.86
286.63	48.15
286.846	65.67
287.061	34.27
287.277	55.05
287.493	27.03
287.709	33.08
287.924	9.56
288.14	46.71
288.356	41.69
288.571	71.52
288.787	47.42
289.003	40.6
289.218	25.94
289.434	-10.82
289.65	-32.34
289.865	-36.23
290.081	-11.62
290.296	-4.89
290.512	23.6
290.727	1.02
290.943	-1.68
291.159	-13.74
291.374	-14.01
291.59	-38.62
291.805	-19.84
292.021	-8.8
292.236	-17.49
292.451	-6.19
292.667	10.24
292.882	11.99
293.098	4.74
293.313	15.15
293.529	-11.37
293.744	-48.81
293.959	-51.49
294.175	-41.58
294.39	-16.22
294.605	2.88
294.821	37.02
295.036	47.44
295.251	49.77
295.467	17.06
295.682	1.16
295.897	-52.12
296.112	-68.72
296.328	-60.28
296.543	-59.51
296.758	-53.14
296.973	-19.5
297.188	13.25
297.404	-17.13
297.619	-29.38
297.834	-40.77
298.049	-68.47
298.264	-80.98
298.479	-18.92
298.694	2.39
298.909	20.61
299.125	30.22
299.34	23.45
299.555	-14.15
299.77	-19.11
299.985	-63.09
300.2	-116.23
300.415	-109.43
300.63	-80.15
300.845	-78.03
301.06	-73.73
301.275	-27.44
301.49	-18.12
301.704	-14.39
301.919	-37.37
302.134	-33.31
302.349	-35.62
302.564	-96.47
302.779	-116.53
302.994	-78.88
303.209	-66.04
303.423	-80.7
303.638	15.48
303.853	-20.58
304.068	-18.11
304.283	-1.28
304.497	20.42
304.712	-3.86
304.927	6.74
305.142	-6.57
305.356	-6.31
305.571	-26.67
305.786	-37.52
306	-52.31
306.215	-48.54
306.43	-66.74
306.644	-50.27
306.859	16.04
307.074	29.96
307.288	0.28
307.503	9.77
307.717	-13.24
307.932	-21.24
308.147	-32.72
308.361	11.06
308.576	-6.73
308.79	-35.6
309.005	-31.39
309.219	-22.56
309.434	-45.58
309.648	-36.93
309.863	1.77
310.077	-11.05
310.292	9.06
310.506	6.44
310.72	17.93
310.935	16.26
311.149	9.36
311.364	19.59
311.578	35.01
311.792	23.98
312.007	35.08
312.221	28.9
312.435	22.76
312.649	5.2
312.864	-11.28
313.078	-32.02
313.292	6.67
313.507	-36.94
313.721	-36.94
313.935	28.42
314.149	19.98
314.363	21.21
314.578	28.58
314.792	37.83
315.006	15.01
315.22	33.96
315.434	27.61
315.648	31.23
315.862	18.6
316.077	29.48
316.291	-11.79
316.505	-15.45
316.719	-44.77
316.933	-53.17
317.147	-70.1
317.361	-84.56
317.575	-110.65
317.789	-129.18
318.003	-168.44
318.217	-134.5
318.431	-41.79
318.645	11.88
318.859	6.22
319.073	19.59
319.287	9.6
319.5	-23.04
319.714	-67.76
319.928	-83.38
320.142	-106.15
320.356	-49.31
320.57	-11.89
320.784	-31.32
320.997	-26.14
321.211	-33.7
321.425	-74.86
321.639	-79.53
321.853	-6.01
322.066	-1.71
322.28	-7.67
322.494	-5.02
322.707	8
322.921	-17.24
323.135	-16.32
323.349	15.67
323.562	-2.25
323.776	-32.18
323.989	-16.63
324.203	-43.94
324.417	-77.08
324.63	-68.89
324.844	-48.18
325.057	-56.05
325.271	-8.29
325.485	24.26
325.698	42.44
325.912	49.06
326.125	34.29
326.339	18.96
326.552	-3.33
326.766	-8.16
326.979	2.56
327.193	36.23
327.406	24.28
327.619	15.33
327.833	30.97
328.046	2.35
328.26	-36.29
328.473	-10.65
328.686	-38.98
328.9	-37.93
329.113	-16.56
329.326	-42.65
329.54	-37.04
329.753	-39.14
329.966	-73.62
330.179	-54.6
330.393	-24.53
330.606	-19.35
330.819	8.83
331.032	22.44
331.246	21.1
331.459	43.39
331.672	36.68
331.885	33.02
332.098	13.57
332.311	9.37
332.525	-20.1
332.738	-4.15
332.951	6.38
333.164	20.93
333.377	24.66
333.59	45.31
333.803	42.66
334.016	30.16
334.229	35.15
334.442	44.15
334.655	46.45
334.868	45.26
335.081	35.43
335.294	16.57
335.507	10.02
335.72	-3.18
335.933	-12.76
336.146	-18.21
336.359	-16.56
336.572	-45.71
336.785	-74.9
336.997	-70.55
337.21	-26.5
337.423	-24.71
337.636	-7.87
337.849	24.43
338.062	35.92
338.274	8.1
338.487	1.74
338.7	4.48
338.913	-49.2
339.125	-79.1
339.338	-110.18
339.551	-101.15
339.763	-84.64
339.976	-56.49
340.189	-33.11
340.402	-14.57
340.614	-9.12
340.827	-19.78
341.039	-42.16
341.252	-32.37
341.465	-14.86
341.677	-26.01
341.89	-61.84
342.102	-15.76
342.315	-33.43
342.527	-82.08
342.74	-55.29
342.952	-4.85
343.165	-18.89
343.377	2.37
343.59	6.7
343.802	10.05
344.015	7.31
344.227	24.17
344.44	21.09
344.652	25.95
344.864	19.19
345.077	25.6
345.289	23.26
345.502	26.48
345.714	20.76
345.926	23.96
346.139	16.58
346.351	16.09
346.563	18.73
346.775	26.84
346.988	7.92
347.2	0.67
347.412	-43.82
347.624	-58.88
347.837	-79.51
348.049	-53.43
348.261	-29.07
348.473	1.54
348.685	-9.01
348.897	0.57
349.11	-14.35
349.322	-41.45
349.534	-34.6
349.746	-38.7
349.958	-40.42
350.17	-43.58
350.382	-2.9
350.594	-14.7
350.806	-5.93
351.018	-2.86
351.23	6.71
351.442	-37.35
351.654	-31.14
351.866	-15.61
352.078	-20.67
352.29	-11.03
352.502	12.18
352.714	29.37
352.926	9.7
353.138	6.99
353.35	-6.42
353.561	-12.65
353.773	-37.2
353.985	-9.66
354.197	-13.71
354.409	-7.52
354.621	-13.08
354.832	0.65
355.044	-15.43
355.256	-14.32
355.468	-2.92
355.679	-3.89
355.891	-12.85
356.103	-31
356.314	-15.1
356.526	-16.99
356.738	-3.93
356.949	-7.27
357.161	9.11
357.373	-0.12
357.584	-8.42
357.796	-3.97
358.008	-9.4
358.219	8.96
358.431	-3.2
358.642	-4.62
358.854	-2.78
359.065	-9.78
359.277	-39.84
359.488	-29.29
359.7	-41.2
359.911	-82.11
360.123	-46.64
360.334	-60.29
360.546	-97.18
360.757	-88.73
360.969	-47.04
361.18	-44.56
361.391	-10.75
361.603	-4.63
361.814	-1.42
362.025	-15.4
362.237	-25.53
362.448	-27.49
362.659	-4.42
362.871	-6.42
363.082	-17.35
363.293	-17.49
363.504	-19.54
363.716	-32.82
363.927	-34.2
364.138	-50.08
364.349	-53.48
364.56	-42.05
364.772	-34.15
364.983	-15.42
365.194	3.36
365.405	17.43
365.616	23.92
365.827	16.41
366.038	-2
366.25	-10.53
366.461	-47.53
366.672	-24.03
366.883	1.68
367.094	14.55
367.305	-2.63
367.516	5.82
367.727	-29.53
367.938	-49.99
368.149	-52.86
368.36	-19.48
368.571	-13.74
368.781	-19.85
368.992	-31.95
369.203	-48.16
369.414	-83.54
369.625	-90.33
369.836	-88.1
370.047	-103.57
370.258	-75.99
370.468	-59.37
370.679	-74.41
370.89	-56.06
371.101	-29.58
371.312	-38.6
371.522	-37.15
371.733	-15.32
371.944	-5.32
372.155	1.9
372.365	-10.45
372.576	-12.98
372.787	-17.52
372.997	-35.99
373.208	-45.06
373.419	-3.06
373.629	-30.58
373.84	-40.05
374.05	-44.73
374.261	-26.66
374.472	-50.77
374.682	1.92
374.893	-1.41
375.103	33.97
375.314	24.83
375.524	21.3
375.735	19.28
375.945	34.55
376.156	5.03
376.366	13.09
376.577	19.67
376.787	7
376.997	7.58
377.208	7.65
377.418	-12.68
377.629	-2.93
377.839	5.74
378.049	1.16
378.26	14.44
378.47	19.39
378.68	4.69
378.89	-2.18
379.101	-4.25
379.311	-30.85
379.521	-48.84
379.732	-49.99
379.942	-52.73
380.152	-68.81
380.362	-34.77
380.572	-23.98
380.783	-9.05
380.993	0.03
381.203	18.36
381.413	15.93
381.623	18.12
381.833	17.81
382.043	9.42
382.253	-2.06
382.463	2.42
382.674	-7.91
382.884	-22.59
383.094	-26.24
383.304	-16.63
383.514	-9.99
383.724	3.88
383.934	-1.37
384.144	-5.86
384.353	-12.17
384.563	-20.6
384.773	-19.16
384.983	-22.52
385.193	-2.27
385.403	1.17
385.613	4.57
385.823	-5.56
386.033	6.76
386.242	-2.66
386.452	-8.66
386.662	-18.02
386.872	0.02
387.082	-10.56
387.291	-12.47
387.501	-9.4
387.711	0.68
387.921	-14.43
388.13	-12.25
388.34	-2.53
388.55	-6.57
388.759	-11.98
388.969	-4.14
389.179	-4.99
389.388	-7.02
389.598	-2.76
389.807	-8.37
390.017	-11.29
390.227	-6.96
390.436	-6.34
390.646	-3.35
390.855	2.13
391.065	1.97
391.274	2.6
391.484	0.66
391.693	1.16
391.903	3.25
392.112	9.43
392.322	11.29
392.531	14.08
392.74	15.83
392.95	11.29
393.159	7.88
393.369	6.14
393.578	4.78
393.787	2.13
393.997	4.01
394.206	2.22
394.415	2.69
394.625	2.67
394.834	1.83
395.043	3.02
395.252	5.64
395.462	6.59
395.671	7.6
395.88	8.25
396.089	9.01
396.298	7.34
396.508	7.08
396.717	5.88
396.926	6.78
397.135	6.6
397.344	6.49
397.553	6.78
397.762	9.17
397.971	8.76
398.181	8.77
398.39	8.93
398.599	8.88
398.808	8.44
399.017	8.98
399.226	10.13
399.435	10.62
399.644	10.88
399.853	9.68
400.062	9.66
400.27	8.93
400.479	8.81
400.688	7.83
400.897	8.2
401.106	8.04
401.315	7.64
401.524	7.7
401.733	8.63
401.941	9.03
402.15	9.24
402.359	9.13
402.568	9.59
402.777	9.55
402.985	9.2
403.194	8.97
403.403	8.98
403.612	8.48
403.82	8.12
404.029	8.3
404.238	8.26
404.446	8.8
404.655	8.74
404.864	8.69
405.072	8.49
405.281	8.77
405.489	8.43
405.698	8.39
405.906	8.45
406.115	8.46
406.324	8.27
406.532	8.34
406.741	8.58
406.949	8.56
407.158	8.54
407.366	8.57
407.574	8.49
407.783	8.4
407.991	8.3
408.2	8.46
408.408	8.3
408.617	8.24
408.825	8.16
409.033	8.27
409.242	8.21
409.45	8.42
409.658	8.33
409.867	8.43
410.075	8.23
410.283	8.09
410.491	7.89
410.7	7.96
410.908	7.82
411.116	8.14
411.324	8.14
411.533	8.02
411.741	8.13
411.949	8.12
412.157	7.74
412.365	7.59
412.573	7.72
412.781	7.62
412.99	7.56
413.198	7.81
413.406	7.97
413.614	8.02
413.822	7.87
414.03	7.87
414.238	7.62
414.446	7.68
414.654	7.4
414.862	7.46
415.07	7.54
415.278	7.78
415.486	7.52
415.694	7.6
415.902	7.6
416.109	7.41
416.317	7.3
416.525	7.26
416.733	7.29
416.941	7.29
417.149	7.15
417.357	7.14
417.564	7.23
417.772	7.43
417.98	7.36
418.188	7.36
418.395	7.45
418.603	7.58
418.811	7.25
419.019	7.16
419.226	7.5
419.434	7.57
419.642	7.29
419.849	7.4
420.057	7.52
420.265	7.36
420.472	7.06
420.68	7.12
420.887	7.01
421.095	7.09
421.302	7.05
421.51	7.3
421.717	7.51
421.925	7.57
422.132	7.3
422.34	7.02
422.547	6.91
422.755	6.74
422.962	6.78
423.17	6.81
423.377	7.08
423.585	7
423.792	7.04
423.999	6.98
424.207	6.92
424.414	7
424.621	7.06
424.829	6.93
425.036	6.88
425.243	7.01
425.451	6.78
425.658	6.58
425.865	6.73
426.072	6.81
426.28	7.12
426.487	7.23
426.694	7.3
426.901	7.12
427.108	7.07
427.315	6.86
427.523	7.1
427.73	7.19
427.937	7.18
428.144	6.97
428.351	6.84
428.558	6.82
428.765	6.61
428.972	6.58
429.179	6.82
429.386	7.2
429.593	7.05
429.8	7.09
430.007	7.21
430.214	7.36
430.421	7.15
430.628	7
430.835	6.94
431.042	7.12
431.249	7.12
431.456	7.09
431.662	7.28
431.869	7.56
432.076	7.5
432.283	7.58
432.49	7.54
432.697	7.52
432.903	7.36
433.11	7.39
433.317	7.44
433.524	7.73
433.73	7.74
433.937	8.07
434.144	7.97
434.35	7.93
434.557	7.76
434.764	7.78
434.97	7.52
435.177	7.71
435.384	7.6
435.59	7.7
435.797	7.96
436.003	8.21
436.21	8.25
436.416	8.36
436.623	8.43
436.829	8.39
437.036	8.42
437.242	8.44
437.449	8.37
437.655	8.31
437.862	8.14
438.068	8.01
438.275	8.05
438.481	8.35
438.687	8.33
438.894	8.38
439.1	8.49
439.307	8.62
439.513	8.41
439.719	8.51
439.926	8.6
440.132	8.51
440.338	8.29
440.544	8.5
440.751	8.44
440.957	8.46
441.163	8.51
441.369	8.63
441.575	8.36
441.782	8.39
441.988	8.34
442.194	8.42
442.4	8.45
442.606	8.81
442.812	8.84
443.018	8.92
443.224	8.88
443.431	9.03
443.637	8.82
443.843	8.75
444.049	8.77
444.255	8.72
444.461	8.71
444.667	8.73
444.873	8.92
445.079	8.86
445.284	8.97
445.49	8.72
445.696	8.6
445.902	8.46
446.108	8.49
446.314	8.45
446.52	8.59
446.726	8.93
446.931	9.03
447.137	9.08
447.343	9.13
447.549	9.13
447.755	8.94
447.96	9.01
448.166	9.05
448.372	9.14
448.578	9.2
448.783	9.17
448.989	9.26
449.195	9.3
449.4	9.25
449.606	9.21
449.812	9.27
450.017	9.32
450.223	9.31
450.428	9.27
450.634	9.47
450.84	9.58
451.045	9.52
451.251	9.44
451.456	9.69
451.662	9.73
451.867	9.71
452.073	9.61
452.278	9.69
452.483	9.71
452.689	9.53
452.894	9.64
453.1	9.66
453.305	9.75
453.51	9.64
453.716	9.62
453.921	9.62
454.127	9.67
454.332	9.66
454.537	9.62
454.742	9.74
454.948	9.76
455.153	9.85
455.358	9.91
455.563	10.1
455.769	10.18
455.974	10.2
456.179	10.08
456.384	10.07
456.589	10.07
456.795	10.01
457	10.07
457.205	10.42
457.41	10.48
457.615	10.44
457.82	10.47
458.025	10.44
458.23	10.26
458.435	10.33
458.64	10.28
458.845	10.48
459.05	10.51
459.255	10.51
459.46	10.5
459.665	10.58
459.87	10.56
460.075	10.54
460.28	10.6
460.485	10.64
460.69	10.63
460.895	10.39
461.099	10.41
461.304	10.6
461.509	10.67
461.714	10.71
461.919	11.05
462.123	10.95
462.328	10.91
462.533	10.79
462.738	10.89
462.942	10.71
463.147	10.89
463.352	10.9
463.556	10.93
463.761	10.91
463.966	11.04
464.17	11.01
464.375	10.94
464.58	10.97
464.784	10.96
464.989	10.92
465.193	10.97
465.398	10.97
465.602	11.17
465.807	11.18
466.011	11.29
466.216	11.38
466.42	11.57
466.625	11.59
466.829	11.73
467.034	11.7
467.238	11.84
467.443	11.68
467.647	11.53
467.851	11.58
468.056	11.66
468.26	11.6
468.464	11.76
468.669	12.01
468.873	12.16
469.077	12.1
469.282	12.15
469.486	12.22
469.69	12.2
469.894	12.06
470.099	12.2
470.303	12.33
470.507	12.17
470.711	12
470.915	11.99
471.119	11.87
471.324	11.79
471.528	11.89
471.732	12.08
471.936	12.02
472.14	12.16
472.344	12.21
472.548	12.26
472.752	12.34
472.956	12.62
473.16	12.54
473.364	12.37
473.568	12.29
473.772	12.22
473.976	12.03
474.18	12.02
474.384	12.15
474.588	12.1
474.792	11.97
474.995	12.07
475.199	12.19
475.403	12.26
475.607	12.38
475.811	12.43
476.015	12.42
476.218	12.41
476.422	12.28
476.626	12.38
476.83	12.51
477.033	12.55
477.237	12.51
477.441	12.64
477.644	12.59
477.848	12.56
478.052	12.52
478.255	12.49
478.459	12.49
478.663	12.56
478.866	12.57
479.07	12.58
479.273	12.77
479.477	12.71
479.681	12.66
479.884	12.64
480.088	12.56
480.291	12.5
480.495	12.59
480.698	12.59
480.901	12.63
481.105	12.72
481.308	12.63
481.512	12.61
481.715	12.75
481.919	12.78
482.122	12.78
482.325	12.86
482.529	12.88
482.732	12.82
482.935	12.71
483.138	12.64
483.342	12.77
483.545	12.74
483.748	12.71
483.952	12.89
484.155	13.06
484.358	13
484.561	12.97
484.764	12.94
484.967	12.95
485.171	12.98
485.374	12.87
485.577	12.98
485.78	13.08
485.983	13
486.186	12.9
486.389	12.91
486.592	12.91
486.795	12.89
486.998	12.82
487.201	12.87
487.404	12.99
487.607	13.01
487.81	13
488.013	13.1
488.216	13.1
488.419	13.04
488.622	12.9
488.825	12.93
489.028	12.87
489.231	12.84
489.433	12.77
489.636	12.72
489.839	12.67
490.042	12.6
490.245	12.53
490.447	12.6
490.65	12.7
490.853	12.69
491.056	12.79
491.258	12.88
491.461	12.9
491.664	12.9
491.866	12.82
492.069	12.88
492.272	12.82
492.474	12.82
492.677	12.85
492.879	12.93
493.082	12.93
493.285	13.05
493.487	12.97
493.69	12.88
493.892	12.83
494.095	12.73
494.297	12.61
494.5	12.73
494.702	12.75
494.905	12.73
495.107	12.75
495.309	12.77
495.512	12.7
495.714	12.7
495.917	12.77
496.119	12.75
496.321	12.78
496.524	12.86
496.726	12.86
496.928	12.89
497.13	12.87
497.333	12.88
497.535	12.86
497.737	12.84
497.939	12.79
498.142	12.88
498.344	12.87
498.546	12.79
498.748	12.86
498.95	12.99
499.152	12.88
499.355	12.84
499.557	12.9
499.759	12.98
499.961	12.86
500.163	12.88
500.365	12.89
500.567	12.94
500.769	12.79
500.971	12.79
501.173	12.79
501.375	12.83
501.577	12.72
501.779	12.8
501.981	12.74
502.183	12.66
502.385	12.6
502.587	12.53
502.788	12.57
502.99	12.69
503.192	12.82
503.394	12.74
503.596	12.82
503.798	12.79
503.999	12.79
504.201	12.72
504.403	12.77
504.605	12.77
504.806	12.78
505.008	12.69
505.21	12.81
505.411	12.85
505.613	12.86
505.815	12.82
506.016	12.89
506.218	12.88
506.42	12.85
506.621	12.84
506.823	12.83
507.024	12.75
507.226	12.68
507.427	12.69
507.629	12.73
507.83	12.84
508.032	12.84
508.233	12.88
508.435	12.98
508.636	13.04
508.838	12.97
509.039	12.99
509.24	13.01
509.442	12.93
509.643	12.86
509.845	12.87
510.046	12.94
510.247	12.91
510.448	12.93
510.65	12.96
510.851	13.05
511.052	13.03
511.254	13.06
511.455	13.13
511.656	13.12
511.857	13.17
512.058	13.24
512.26	13.21
512.461	13.15
512.662	13.23
512.863	13.1
513.064	12.99
513.265	13.05
513.466	13.1
513.667	13.06
513.868	13.13
514.069	13.2
514.27	13.27
514.471	13.24
514.672	13.27
514.873	13.23
515.074	13.3
515.275	13.13
515.476	13.12
515.677	13.07
515.878	13.18
516.079	13.13
516.28	13.25
516.481	13.32
516.682	13.37
516.882	13.31
517.083	13.28
517.284	13.21
517.485	13.16
517.686	13.12
517.886	13.08
518.087	13.13
518.288	13.16
518.488	13.13
518.689	13.15
518.89	13.11
519.091	13.11
519.291	13.11
519.492	13.18
519.692	13.15
519.893	13.29
520.094	13.25
520.294	13.21
520.495	13.18
520.695	13.22
520.896	13.15
521.096	13.17
521.297	13.25
521.497	13.23
521.698	13.16
521.898	13.13
522.099	13.11
522.299	13.14
522.499	13.15
522.7	13.17
522.9	13.19
523.101	13.31
523.301	13.28
523.501	13.25
523.702	13.21
523.902	13.3
524.102	13.26
524.302	13.27
524.503	13.36
524.703	13.42
524.903	13.31
525.103	13.26
525.304	13.32
525.504	13.34
525.704	13.42
525.904	13.45
526.104	13.42
526.304	13.41
526.504	13.39
526.705	13.34
526.905	13.47
527.105	13.56
527.305	13.55
527.505	13.49
527.705	13.44
527.905	13.4
528.105	13.35
528.305	13.27
528.505	13.33
528.705	13.4
528.905	13.27
529.105	13.3
529.304	13.42
529.504	13.5
529.704	13.45
529.904	13.53
530.104	13.58
530.304	13.56
530.503	13.48
530.703	13.46
530.903	13.45
531.103	13.43
531.303	13.36
531.502	13.38
531.702	13.47
531.902	13.51
532.101	13.48
532.301	13.53
532.501	13.48
532.7	13.44
532.9	13.46
533.1	13.44
533.299	13.47
533.499	13.53
533.698	13.53
533.898	13.53
534.097	13.55
534.297	13.59
534.496	13.52
534.696	13.54
534.895	13.64
535.095	13.72
535.294	13.68
535.494	13.72
535.693	13.67
535.892	13.61
536.092	13.5
536.291	13.51
536.491	13.58
536.69	13.65
536.889	13.55
537.088	13.61
537.288	13.65
537.487	13.73
537.686	13.75
537.886	13.87
538.085	13.9
538.284	13.96
538.483	13.86
538.682	13.89
538.882	13.93
539.081	13.98
539.28	13.88
539.479	13.91
539.678	13.88
539.877	13.91
540.076	13.85
540.275	13.94
540.474	14.04
540.673	14.07
540.872	14.04
541.071	14.1
541.27	14.11
541.469	14.11
541.668	14.14
541.867	14.13
542.066	14.21
542.265	14.28
542.464	14.25
542.663	14.34
542.862	14.51
543.06	14.48
543.259	14.48
543.458	14.52
543.657	14.54
543.856	14.54
544.054	14.49
544.253	14.46
544.452	14.43
544.651	14.44
544.849	14.38
545.048	14.49
545.247	14.56
545.445	14.66
545.644	14.73
545.843	14.71
546.041	14.76
546.24	14.89
546.438	14.94
546.637	14.93
546.836	15.13
547.034	15.16
547.233	15.12
547.431	15.14
547.63	15.21
547.828	15.16
548.027	15.16
548.225	15.15
548.423	15.15
548.622	15.19
548.82	15.24
549.019	15.3
549.217	15.44
549.415	15.54
549.614	15.55
549.812	15.57
550.01	15.65
550.209	15.7
550.407	15.75
550.605	15.8
550.803	15.95
551.002	15.98
551.2	16
551.398	16.04
551.596	16.16
551.794	16.1
551.993	16.17
552.191	16.22
552.389	16.34
552.587	16.4
552.785	16.48
552.983	16.53
553.181	16.67
553.379	16.68
553.577	16.72
553.775	16.83
553.973	16.95
554.171	16.96
554.369	17.02
554.567	17.05
554.765	17.14
554.963	17.21
555.161	17.25
555.359	17.34
555.557	17.49
555.755	17.53
555.952	17.59
556.15	17.65
556.348	17.69
556.546	17.72
556.744	17.75
556.941	17.78
557.139	17.92
557.337	17.95
557.535	17.97
557.732	18.13
557.93	18.28
558.128	18.35
558.325	18.46
558.523	18.51
558.721	18.57
558.918	18.58
559.116	18.65
559.313	18.69
559.511	18.89
559.708	18.94
559.906	19.02
560.104	19.09
560.301	19.24
560.498	19.25
560.696	19.28
560.893	19.39
561.091	19.49
561.288	19.51
561.486	19.63
561.683	19.76
561.88	19.83
562.078	19.91
562.275	20
562.473	20.09
562.67	20.29
562.867	20.41
563.064	20.45
563.262	20.49
563.459	20.53
563.656	20.6
563.853	20.59
564.051	20.69
564.248	20.85
564.445	20.91
564.642	20.85
564.839	21.03
565.036	21.21
565.234	21.45
565.431	21.6
565.628	21.77
565.825	21.83
566.022	21.89
566.219	21.8
566.416	21.86
566.613	21.9
566.81	22.01
567.007	21.96
567.204	21.95
567.401	22.07
567.598	22.15
567.795	22.15
567.991	22.28
568.188	22.39
568.385	22.41
568.582	22.46
568.779	22.61
568.976	22.68
569.172	22.77
569.369	22.68
569.566	22.76
569.763	22.74
569.96	22.8
570.156	22.85
570.353	22.96
570.55	23.04
570.746	23.06
570.943	23.01
571.14	23.01
571.336	23.09
571.533	23.15
571.729	23.19
571.926	23.4
572.123	23.48
572.319	23.51
572.516	23.48
572.712	23.53
572.909	23.41
573.105	23.44
573.302	23.54
573.498	23.6
573.695	23.58
573.891	23.67
574.087	23.68
574.284	23.64
574.48	23.61
574.677	23.62
574.873	23.57
575.069	23.63
575.266	23.66
575.462	23.59
575.658	23.67
575.854	23.79
576.051	23.72
576.247	23.71
576.443	23.75
576.639	23.67
576.835	23.59
577.032	23.61
577.228	23.76
577.424	23.9
577.62	23.87
577.816	23.95
578.012	23.93
578.208	23.79
578.404	23.7
578.6	23.75
578.796	23.68
578.993	23.78
579.189	23.79
579.384	23.7
579.58	23.65
579.776	23.65
579.972	23.51
580.168	23.42
580.364	23.51
580.56	23.51
580.756	23.47
580.952	23.38
581.148	23.38
581.343	23.33
581.539	23.41
581.735	23.46
581.931	23.55
582.127	23.59
582.322	23.58
582.518	23.57
582.714	23.53
582.909	23.5
583.105	23.44
583.301	23.42
583.496	23.39
583.692	23.25
583.888	23.33
584.083	23.35
584.279	23.38
584.474	23.35
584.67	23.52
584.866	23.47
585.061	23.41
585.257	23.4
585.452	23.41
585.648	23.31
585.843	23.29
586.039	23.41
586.234	23.41
586.429	23.3
586.625	23.34
586.82	23.31
587.015	23.28
587.211	23.18
587.406	23.3
587.601	23.3
587.797	23.29
587.992	23.19
588.187	23.27
588.383	23.23
588.578	23.2
588.773	23.25
588.968	23.37
589.163	23.47
589.359	23.48
589.554	23.52
589.749	23.49
589.944	23.49
590.139	23.42
590.334	23.46
590.529	23.47
590.724	23.51
590.919	23.56
591.114	23.55
591.309	23.59
591.504	23.67
591.699	23.64
591.894	23.71
592.089	23.72
592.284	23.81
592.479	23.8
592.674	23.88
592.869	23.87
593.064	24.01
593.259	24.11
593.454	24.22
593.648	24.28
593.843	24.29
594.038	24.33
594.233	24.24
594.428	24.21
594.622	24.26
594.817	24.42
595.012	24.42
595.206	24.49
595.401	24.63
595.596	24.69
595.79	24.85
595.985	24.94
596.18	25
596.374	25.05
596.569	25.16
596.763	25.02
596.958	25.15
597.153	25.2
597.347	25.23
597.542	25.32
597.736	25.33
597.931	25.29
598.125	25.37
598.319	25.53
598.514	25.55
598.708	25.67
598.903	25.76
599.097	25.81
599.291	25.82
599.486	25.77
599.68	25.83
599.874	25.93
600.069	26
600.263	25.99
600.457	26.07
600.651	26.08
600.846	26.08
601.04	26.11
601.234	26.12
601.428	26.25
601.622	26.31
601.817	26.32
602.011	26.33
602.205	26.39
602.399	26.34
602.593	26.3
602.787	26.38
602.981	26.37
603.175	26.44
603.369	26.4
603.563	26.5
603.757	26.51
603.951	26.55
604.145	26.51
604.339	26.58
604.533	26.51
604.727	26.41
604.921	26.35
605.115	26.41
605.309	26.45
605.502	26.46
605.696	26.48
605.89	26.52
606.084	26.43
606.278	26.29
606.471	26.12
606.665	25.97
606.859	25.81
607.053	25.73
607.246	25.73
607.44	25.77
607.634	25.76
607.827	25.73
608.021	25.63
608.214	25.59
608.408	25.54
608.602	25.43
608.795	25.38
608.989	25.26
609.182	25.18
609.376	25.14
609.569	25.12
609.763	25.04
609.956	25.04
610.15	24.92
610.343	24.94
610.537	24.86
610.73	24.86
610.923	24.88
611.117	24.98
611.31	24.86
611.504	24.85
611.697	24.65
611.89	24.48
612.083	24.3
612.277	24.24
612.47	24.17
612.663	24.15
612.856	24.16
613.05	24.02
613.243	23.91
613.436	23.78
613.629	23.77
613.822	23.69
614.015	23.68
614.209	23.59
614.402	23.54
614.595	23.51
614.788	23.39
614.981	23.34
615.174	23.23
615.367	23.08
615.56	22.87
615.753	22.8
615.946	22.69
616.139	22.72
616.332	22.84
616.525	22.89
616.718	22.92
616.911	22.87
617.103	22.78
617.296	22.7
617.489	22.64
617.682	22.63
617.875	22.67
618.067	22.62
618.26	22.49
618.453	22.59
618.646	22.42
618.838	22.43
619.031	22.55
619.224	22.57
619.417	22.48
619.609	22.52
619.802	22.4
619.994	22.26
620.187	22.22
620.38	22.14
620.572	22.01
620.765	22.06
620.957	21.93
621.15	21.85
621.342	21.83
621.535	21.86
621.727	21.8
621.92	21.83
622.112	21.78
622.305	21.8
622.497	21.74
622.69	21.68
622.882	21.67
623.074	21.69
623.267	21.6
623.459	21.51
623.651	21.51
623.844	21.48
624.036	21.47
624.228	21.4
624.42	21.47
624.613	21.56
624.805	21.56
624.997	21.54
625.189	21.5
625.381	21.48
625.574	21.3
625.766	21.18
625.958	21.11
626.15	21.16
626.342	21.15
626.534	21.19
626.726	21.25
626.918	21.33
627.11	21.31
627.302	21.28
627.494	21.2
627.686	21.13
627.878	20.99
628.07	21.02
628.262	20.92
628.454	20.92
628.646	20.91
628.838	20.94
629.029	20.77
629.221	20.83
629.413	20.74
629.605	20.61
629.797	20.53
629.989	20.53
630.18	20.44
630.372	20.45
630.564	20.55
630.755	20.62
630.947	20.76
631.139	20.59
631.33	20.53
631.522	20.56
631.714	20.53
631.905	20.39
632.097	20.45
632.289	20.47
632.48	20.34
632.672	20.24
632.863	20.14
633.055	20.12
633.246	20.11
633.438	20.08
633.629	20.04
633.821	20.08
634.012	20.09
634.203	19.98
634.395	20.02
634.586	20
634.777	19.95
634.969	19.94
635.16	20.04
635.351	19.93
635.543	19.97
635.734	19.99
635.925	19.98
636.117	20
636.308	20.05
636.499	19.98
636.69	19.82
636.881	19.74
637.073	19.73
637.264	19.6
637.455	19.73
637.646	19.9
637.837	19.96
638.028	19.86
638.219	20
638.41	19.88
638.601	19.83
638.792	19.84
638.983	19.84
639.174	19.72
639.365	19.79
639.556	19.69
639.747	19.59
639.938	19.59
640.129	19.59
640.32	19.47
640.511	19.55
640.701	19.65
640.892	19.65
641.083	19.75
641.274	19.82
641.465	19.77
641.655	19.73
641.846	19.67
642.037	19.5
642.228	19.41
642.418	19.51
642.609	19.54
642.8	19.59
642.99	19.53
643.181	19.52
643.372	19.47
643.562	19.37
643.753	19.18
643.943	19.21
644.134	19.14
644.324	19.05
644.515	19.04
644.705	19.18
644.896	19.29
645.086	19.31
645.277	19.27
645.467	19.31
645.658	19.21
645.848	19.12
646.038	19.11
646.229	19.08
646.419	19
646.61	19.01
646.8	18.94
646.99	18.79
647.18	18.76
647.371	18.74
647.561	18.66
647.751	18.72
647.941	18.73
648.132	18.77
648.322	18.72
648.512	18.84
648.702	18.81
648.892	18.92
649.082	18.81
649.272	18.78
649.462	18.62
649.653	18.61
649.843	18.43
650.033	18.52
650.223	18.44
650.413	18.41
650.603	18.3
650.793	18.35
650.983	18.2
651.172	18.18
651.362	18.14
651.552	18.11
651.742	18.04
651.932	18.07
652.122	18.14
652.312	18.14
652.502	18.18
652.691	18.2
652.881	18.01
653.071	17.89
653.261	17.73
653.45	17.51
653.64	17.42
653.83	17.41
654.019	17.27
654.209	17.34
654.399	17.28
654.588	17.21
654.778	17.18
654.968	17.09
655.157	16.95
655.347	16.91
655.536	16.75
655.726	16.61
655.915	16.41
656.105	16.27
656.294	16.16
656.484	15.97
656.673	15.89
656.863	15.93
657.052	15.76
657.241	15.58
657.431	15.39
657.62	15.24
657.809	14.96
657.999	14.89
658.188	14.76
658.377	14.7
658.567	14.6
658.756	14.59
658.945	14.41
659.134	14.21
659.324	14.05
659.513	13.92
659.702	13.66
659.891	13.57
660.08	13.52
660.269	13.58
660.458	13.42
660.648	13.36
660.837	13.18
661.026	13.13
661.215	12.87
661.404	12.8
661.593	12.76
661.782	12.54
661.971	12.45
662.16	12.36
662.349	12.27
662.538	12.21
662.726	12.29
662.915	12.11
663.104	11.99
663.293	11.94
663.482	11.9
663.671	11.76
663.86	11.64
664.048	11.64
664.237	11.61
664.426	11.42
664.615	11.42
664.803	11.3
664.992	11.12
665.181	11
665.369	10.87
665.558	10.78
665.747	10.76
665.935	10.8
666.124	10.84
666.312	10.83
666.501	10.84
666.69	10.77
666.878	10.67
667.067	10.46
667.255	10.64
667.444	10.84
667.632	10.96
667.82	11.05
668.009	11.09
668.197	10.88
668.386	10.7
668.574	10.75
668.762	10.66
668.951	10.56
669.139	10.62
669.327	10.44
669.516	10.52
669.704	10.43
669.892	10.62
670.08	10.67
670.269	10.69
670.457	10.51
670.645	10.51
670.833	10.56
671.021	10.42
671.21	10.52
671.398	10.74
671.586	10.76
671.774	10.6
671.962	10.65
672.15	10.58
672.338	10.31
672.526	10.42
672.714	10.29
672.902	10.42
673.09	10.68
673.278	10.92
673.466	10.95
673.654	11.24
673.842	11.11
674.03	11.04
674.218	10.86
674.405	10.9
674.593	10.82
674.781	11
674.969	10.98
675.157	11.17
675.344	11.33
675.532	11.44
675.72	11.52
675.908	11.58
676.095	11.61
676.283	11.46
676.471	11.53
676.658	11.52
676.846	11.57
677.033	11.6
677.221	11.69
677.409	11.63
677.596	11.69
677.784	11.67
677.971	11.7
678.159	11.78
678.346	11.88
678.534	11.92
678.721	12.18
678.909	12.1
679.096	12.15
679.283	12.31
679.471	12.35
679.658	12.33
679.846	12.66
680.033	12.84
680.22	12.89
680.408	12.92
680.595	13.02
680.782	12.89
680.969	12.85
681.157	12.96
681.344	13.09
681.531	13.19
681.718	13.37
681.905	13.64
682.093	13.7
682.28	13.98
682.467	14.19
682.654	14.39
682.841	14.44
683.028	14.62
683.215	14.64
683.402	14.51
683.589	14.66
683.776	14.83
683.963	14.85
684.15	15.14
684.337	15.45
684.524	15.54
684.711	15.8
684.898	15.95
685.085	16.01
685.271	16.29
685.458	16.53
685.645	16.62
685.832	16.97
686.019	17.34
686.205	17.41
686.392	17.64
686.579	17.98
686.766	18.29
686.952	18.46
687.139	18.93
687.326	19.22
687.512	19.46
687.699	19.79
687.886	19.96
688.072	20.16
688.259	20.48
688.445	20.88
688.632	21.04
688.818	21.77
689.005	22.08
689.191	22.35
689.378	22.81
689.564	23.4
689.751	23.69
689.937	24.32
690.124	25
690.31	25.39
690.496	25.83
690.683	26.28
690.869	26.77
691.055	27.19
691.242	27.83
691.428	28.48
691.614	29.21
691.8	29.85
691.987	30.56
692.173	31.13
692.359	31.7
692.545	32.29
692.731	32.98
692.918	33.71
693.104	34.14
693.29	34.81
693.476	35.37
693.662	35.95
693.848	36.45
694.034	37.27
694.22	37.7
694.406	38.32
694.592	38.97
694.778	39.67
694.964	40.19
695.15	41.07
695.336	41.56
695.522	42.32
695.708	42.8
695.894	43.69
696.08	44.39
696.265	45.34
696.451	45.89
696.637	46.84
696.823	47.46
697.009	47.89
697.194	48.38
697.38	48.95
697.566	49.29
697.751	49.7
697.937	50.78
698.123	51.3
698.308	52.2
698.494	53.02
698.68	53.88
698.865	54.2
699.051	55.05
699.236	55.37
699.422	55.99
699.607	56.3
699.793	57.16
699.978	57.3
700.164	57.93
700.349	58.64
700.535	59.48
700.72	59.55
700.906	60.56
701.091	60.94
701.276	61.22
701.462	61.99
701.647	63.08
701.832	63.44
702.018	64.13
702.203	64.64
702.388	64.59
702.573	64.67
702.759	65.5
702.944	65.8
703.129	66.42
703.314	67.06
703.499	67.68
703.684	67.87
703.87	68.8
704.055	69.71
704.24	70.32
704.425	70.87
704.61	71.46
704.795	71.56
704.98	71.54
705.165	71.77
705.35	72.17
705.535	72.44
705.72	73.01
705.905	73.62
706.09	74.15
706.275	74.17
706.459	74.08
706.644	74.23
706.829	74.51
707.014	74.88
707.199	75.4
707.384	76.38
707.568	76.79
707.753	77.24
707.938	77.39
708.123	77.77
708.307	77.69
708.492	77.88
708.677	78.04
708.861	78.32
709.046	78.38
709.231	79.1
709.415	79.81
709.6	79.64
709.784	79.73
709.969	80.27
710.153	80.26
710.338	79.86
710.522	80.19
710.707	80.64
710.891	80.83
711.076	81.1
711.26	81.16
711.445	81.79
711.629	82.16
711.813	82.36
711.998	82.72
712.182	83.23
712.366	83.51
712.551	84.03
712.735	84.27
712.919	84.34
713.103	84.69
713.288	84.3
713.472	84.03
713.656	84.52
713.84	84.39
714.024	84.96
714.208	85.32
714.393	85.86
714.577	85.88
714.761	86.18
714.945	86.36
715.129	87.05
715.313	87.14
715.497	87.32
715.681	88.21
715.865	88.03
716.049	87.81
716.233	87.76
716.417	87.64
716.601	86.94
716.785	86.75
716.968	86.73
717.152	86.6
717.336	86.78
717.52	86.84
717.704	87.31
717.888	87.91
718.071	88.5
718.255	88.92
718.439	89.17
718.622	89.42
718.806	89.82
718.99	89.17
719.174	88.95
719.357	89.4
719.541	89.73
719.724	89.37
719.908	90.89
720.092	91.48
720.275	91.54
720.459	91.11
720.642	90.56
720.826	89.6
721.009	89.47
721.193	89.25
721.376	89.67
721.559	90.38
721.743	91.07
721.926	91.09
722.11	91.47
722.293	91.02
722.476	91.02
722.66	91.21
722.843	91.08
723.026	90.69
723.21	91.22
723.393	91.79
723.576	91.51
723.759	91.37
723.942	91.61
724.126	91.05
724.309	90.44
724.492	90.11
724.675	90.15
724.858	90.74
725.041	91.63
725.224	92.18
725.407	92.55
725.59	93.49
725.774	93.34
725.957	92.19
726.14	91.24
726.322	91.37
726.505	90.66
726.688	91.12
726.871	91.61
727.054	92.6
727.237	92.61
727.42	92.67
727.603	92.55
727.786	93.13
727.968	93.49
728.151	93.49
728.334	93.55
728.517	93.22
728.699	93.57
728.882	93.1
729.065	93.66
729.248	94.28
729.43	94.99
729.613	95.4
729.796	96.17
729.978	95.49
730.161	95.13
730.343	94.4
730.526	94.75
730.708	94.35
730.891	94.58
731.073	94.79
731.256	94.95
731.438	94.74
731.621	95.78
731.803	95.63
731.986	95.61
732.168	95.15
732.35	95.16
732.533	94.57
732.715	95.18
732.898	95.51
733.08	96.02
733.262	96.48
733.444	95.75
733.627	95.43
733.809	95.41
733.991	96.18
734.173	95.1
734.355	95.14
734.538	95.74
734.72	96.05
734.902	95.81
735.084	96.6
735.266	96.86
735.448	97.33
735.63	96.79
735.812	96.7
735.994	97.34
736.176	97.71
736.358	96.84
736.54	98.18
736.722	97.81
736.904	97.02
737.086	96.7
737.268	98.15
737.45	97.24
737.632	98.16
737.814	97.38
737.995	97.9
738.177	96.87
738.359	96.55
738.541	97
738.723	98.22
738.904	98.86
739.086	99.3
739.268	99.69
739.449	99.53
739.631	98.64
739.813	97.83
739.994	98.02
740.176	97.95
740.358	97.36
740.539	98.47
740.721	99.05
740.902	99.25
741.084	99.33
741.265	98.65
741.447	98.27
741.628	98.26
741.81	97.06
741.991	97.67
742.172	98.81
742.354	99.07
742.535	99.06
742.717	99.75
742.898	99.83
743.079	100.13
743.261	99.44
743.442	98.93
743.623	99.58
743.804	99.54
743.986	99.64
744.167	98.96
744.348	98.57
744.529	98.32
744.71	96.45
744.891	95.64
745.073	95.17
745.254	95.53
745.435	95.44
745.616	96.82
745.797	96.5
745.978	97.66
746.159	97.3
746.34	96.08
746.521	97.15
746.702	96.39
746.883	95.91
747.064	95.41
747.245	96
747.426	95.29
747.606	97.06
747.787	98.08
747.968	98.86
748.149	99.47
748.33	98.72
748.51	98.11
748.691	97.59
748.872	98.43
749.053	97.99
749.233	97.79
749.414	97.61
749.595	96.66
749.775	95.58
749.956	94.97
750.137	96.36
750.317	97.14
750.498	98.84
750.678	99.69
750.859	101.39
751.04	99.7
751.22	98.01
751.4	97.55
751.581	95.89
751.761	96.1
751.942	96.76
752.122	96.97
752.303	95.83
752.483	96.58
752.663	94.9
752.844	93.18
753.024	94.79
753.204	95.51
753.385	94.23
753.565	93.96
753.745	95.26
753.925	94.74
754.106	94.31
754.286	96.08
754.466	96.16
754.646	96.35
754.826	95.3
755.006	94.71
755.187	95.54
755.367	96.33
755.547	96.92
755.727	98.35
755.907	98.7
756.087	97.22
756.267	96.28
756.447	95.33
756.627	93.76
756.807	94.69
756.987	94.32
757.167	94.62
757.346	95.8
757.526	94.51
757.706	94.98
757.886	96.16
758.066	96.62
758.246	97.01
758.425	97.69
758.605	96.14
758.785	95.22
758.965	95.07
759.144	91.8
759.324	92.53
759.504	93.98
759.683	95.3
759.863	94.41
760.043	96.31
760.222	96.37
760.402	95.72
760.581	94.37
760.761	96.29
760.94	94
761.12	94.99
761.299	95.86
761.479	94.94
761.658	92.95
761.838	94.67
762.017	94.06
762.197	92.78
762.376	94.43
762.555	95.75
762.735	96.65
762.914	96.1
763.093	95.02
763.273	93.52
763.452	92
763.631	89.59
763.81	88.66
763.99	89.57
764.169	89.73
764.348	88.86
764.527	89.72
764.706	91.76
764.885	91.1
765.064	90.28
765.243	90.32
765.423	92.08
765.602	90.98
765.781	90.23
765.96	89.61
766.139	90.11
766.318	89.78
766.497	88.68
766.676	90.27
766.854	92.23
767.033	92.75
767.212	91.77
767.391	92.98
767.57	92.84
767.749	93.58
767.928	95.45
768.106	94.68
768.285	91.36
768.464	91.5
768.643	90.01
768.821	88.75
769	90.62
769.179	92.38
769.357	90.18
769.536	90.68
769.715	91.01
769.893	92.09
770.072	92.44
770.25	94.99
770.429	94.97
770.607	92.28
770.786	90.25
770.964	91.27
771.143	90.46
771.321	91.99
771.5	94.28
771.678	91.55
771.857	90.02
772.035	87.94
772.213	84.78
772.392	82.8
772.57	86.49
772.748	88.38
772.927	88.56
773.105	89.47
773.283	89.77
773.461	89.42
773.64	89.33
773.818	91.3
773.996	93.23
774.174	92.09
774.352	90.68
774.531	87.55
774.709	89.88
774.887	87.37
775.065	87.49
775.243	85.41
775.421	87.08
775.599	86.84
775.777	85.3
775.955	83.61
776.133	84.59
776.311	83.73
776.489	77.94
776.667	79.67
776.844	82.88
777.022	82.06
777.2	82.62
777.378	85.54
777.556	85.15
777.734	88.15
777.911	91.97
778.089	91.52
778.267	90.99
778.445	90.56
778.622	87.06
778.8	85.71
778.978	87.13
779.155	87.06
779.333	88.07
779.511	88.2
779.688	87.48
779.866	83.84
780.043	81.5
780.221	80.07
780.398	76.83
780.576	78.64
780.753	82.34
780.931	83.17
781.108	82.74
781.286	85.94
781.463	82.75
781.64	77.93
781.818	76.69
781.995	78.11
782.172	76.45
782.35	78.08
782.527	84.52
782.704	85.82
782.882	86.76
783.059	87.77
783.236	87.14
783.413	85.85
783.59	87.63
783.768	84.82
783.945	88.7
784.122	91.28
784.299	90.28
784.476	87.4
784.653	86.72
784.83	80.36
785.007	74.96
785.184	75.55
785.361	77.01
785.538	85.76
785.715	89.2
785.892	91.36
786.069	91.83
786.246	91.35
786.423	86.91
786.6	84.64
786.776	85.98
786.953	82.84
787.13	85.58
787.307	85.78
787.484	87.38
787.66	88.12
787.837	88.33
788.014	83.38
788.191	79.04
788.367	73.05
788.544	73
788.721	73.99
788.897	77.89
789.074	78.95
789.25	80.55
789.427	82.36
789.603	82.84
789.78	82.52
789.956	81.76
790.133	81.53
790.309	80.57
790.486	81.78
790.662	78.49
790.839	81.73
791.015	85.2
791.192	82
791.368	83.01
791.544	82.44
791.721	77.78
791.897	74.68
792.073	73.34
792.249	63.69
792.426	70.42
792.602	74.81
792.778	78.44
792.954	78.16
793.13	84.26
793.307	74.42
793.483	64.8
793.659	65.19
793.835	68.44
794.011	66.31
794.187	66.97
794.363	71.39
794.539	71.91
794.715	64.8
794.891	63.36
795.067	63.06
795.243	66.87
795.419	65.42
795.595	67.44
795.771	69.27
795.947	72.75
796.122	69.71
796.298	74.39
796.474	76.27
796.65	78.4
796.826	78.21
797.001	81.59
797.177	73.71
797.353	75.35
797.529	76.42
797.704	77.48
797.88	73.82
798.056	73.78
798.231	71.19
798.407	75.42
798.582	82.4
798.758	90.56
798.934	96.37
799.109	96.85
799.285	89.05
799.46	86.1
799.636	82.77
799.811	79.14
799.986	83.11
800.162	89.15
800.337	84.96
800.513	75.25
800.688	76.23
800.863	79.82
801.039	66.94
801.214	63.85
801.389	66.63
801.565	61.2
801.74	52.39
801.915	60.54
802.09	62.88
802.265	69.75
802.441	71.24
802.616	74.61
802.791	80.64
802.966	79.77
803.141	80.13
803.316	80.13
803.491	81.95
803.666	81.4
803.841	75
804.016	68.64
804.191	66.91
804.366	62.1
804.541	57.4
804.716	65.08
804.891	66.8
805.066	73.83
805.241	72.33
805.416	68.81
805.591	65.93
805.765	66.34
805.94	66.03
806.115	68.11
806.29	64.26
806.464	70.38
806.639	69.9
806.814	60.5
806.989	54.52
807.163	72.35
807.338	68.78
807.512	65.78
807.687	58.49
807.862	70.43
808.036	60.17
808.211	62.29
808.385	68.86
808.56	90.28
808.734	102.69
808.909	99.96
809.083	94.64
809.258	91.64
809.432	81.18
809.606	56.47
809.781	61.35
809.955	64.51
810.13	68.06
810.304	65.57
810.478	64.68
810.652	74.8
810.827	77.08
811.001	66.38
811.175	64.35
811.349	67.96
811.524	52.28
811.698	37.64
811.872	44.02
812.046	53.47
812.22	58.39
812.394	59.81
812.568	71.96
812.742	72.16
812.916	63.49
813.09	62.15
813.264	64.82
813.438	62.25
813.612	57.18
813.786	58.03
813.96	64.72
814.134	66.42
814.308	76.08
814.482	79.77
814.656	68.45
814.83	72.68
815.003	75.61
815.177	65.13
815.351	60.9
815.525	62.04
815.698	50.04
815.872	41.26
816.046	29.39
816.219	39.96
816.393	59.63
816.567	62.78
816.74	65.5
816.914	73.64
817.088	76.42
817.261	69.1
817.435	60.88
817.608	65.88
817.782	70.23
817.955	65.57
818.129	55.12
818.302	59.43
818.475	62.52
818.649	61.33
818.822	57.08
818.996	79.67
819.169	83.14
819.342	71.72
819.516	76.18
819.689	70.28
819.862	50.76
820.035	41.06
820.209	41.1
820.382	39.62
820.555	40.07
820.728	28.83
820.901	34.3
821.075	38.04
821.248	40.26
821.421	30.55
821.594	38.38
821.767	56.77
821.94	64.99
822.113	46.14
822.286	51.96
822.459	60.91
822.632	34.41
822.805	25.19
822.978	30.2
823.151	26.61
823.324	17.02
823.496	8.17
823.669	9.57
823.842	21.88
824.015	12.41
824.188	16.13
824.361	33.16
824.533	28.32
824.706	23.84
824.879	25.29
825.051	31.68
825.224	39.42
825.397	48.89
825.569	40.75
825.742	58.54
825.915	63.41
826.087	65.44
826.26	40.43
826.432	49.49
826.605	55.19
826.777	39.1
826.95	40.74
827.122	42.14
827.295	48.85
827.467	41.29
827.64	43.11
827.812	34.99
827.984	39.86
828.157	20.59
828.329	-11.38
828.501	-12.4
828.674	-7.74
828.846	-22.58
829.018	-5.53
829.19	5.98
829.363	33.08
829.535	40.2
829.707	43.99
829.879	40.07
830.051	33.46
830.223	16.79
830.395	-13.35
830.568	-3.46
830.74	-7.93
830.912	24.46
831.084	10.32
831.256	17.33
831.428	16.47
831.6	13.59
831.772	-24.06
831.943	-32.64
832.115	-6.79
832.287	13.67
832.459	23.77
832.631	28.2
832.803	49.43
832.975	68.61
833.146	47.71
833.318	28.9
833.49	50.65
833.662	28.91
833.833	15.89
834.005	15.14
834.177	26.23
834.348	6.06
834.52	-3.51
834.692	-31.85
834.863	-51.67
835.035	-38.47
835.206	-66
835.378	-20.78
835.549	-22.32
835.721	0.06
835.892	-12.11
836.064	3.81
836.235	-7.36
836.407	23.64
836.578	-9.99
836.749	27.9
836.921	-8.8
837.092	-39.65
837.264	-53.35
837.435	-55.37
837.606	-19.36
837.777	17.34
837.949	32.87
838.12	37.24
838.291	48.66
838.462	44.64
838.633	16.02
838.805	24.53
838.976	41.46
839.147	11.96
839.318	-40.82
839.489	-51.69
839.66	-39.82
839.831	-24.95
840.002	-25.15
840.173	-30.37
840.344	18.6
840.515	-14.18
840.686	-154.33
840.857	-70.51
841.028	-28.79
841.199	-56.55
841.369	-65.49
841.54	-49.56
841.711	-34.82
841.882	-23.93
842.053	-24.36
842.223	-28.74
842.394	0.27
842.565	-0.9
842.736	5.48
842.906	18.65
843.077	32.6
843.248	65.4
843.418	75.97
843.589	49.39
843.759	59.81
843.93	11.15
844.101	-6.49
844.271	-2.04
844.442	12.32
844.612	35.31
844.783	24.18
844.953	-18.09
845.123	-33.02
845.294	0.58
845.464	-230.82
845.635	-69.85
845.805	36.46
845.975	39.39
846.146	-13.71
846.316	6.71
846.486	11.54
846.656	22.18
846.827	2.6
846.997	-7.9
847.167	-5.52
847.337	-23.14
847.507	-72.02
847.677	-57.64
847.848	17.96
848.018	22.02
848.188	29.67
848.358	17.78
848.528	2.92
848.698	-37.16
848.868	-118.24
849.038	-210.98
849.208	-46.37
849.378	23.59
849.548	3.75
849.718	11.27
849.887	31.16
850.057	-11.54
850.227	-58.5
850.397	-88.6
850.567	-193.17
850.737	-384.46
850.906	-917.81
851.076	-716.6
851.246	-250.92
851.415	-17.28
851.585	-26.21
851.755	-70.56
851.924	-27.96
852.094	-65.94
852.264	-175.72
852.433	-1303.13
852.603	-250.06
852.772	-204.52
852.942	-105
853.111	-93.26
853.281	-33.64
853.45	-3.19
853.62	-45.38
853.789	-37.64
853.959	10.45
854.128	-5.58
854.297	-55.36
854.467	-81.72
854.636	-83.53
854.805	-46.59
854.975	-96.95
855.144	-112.4
855.313	-171.5
855.482	-520.62
855.652	-240.58
855.821	-176.82
855.99	-53.13
856.159	-17.72
856.328	-1.94
856.497	-20.73
856.667	2.64
856.836	2.91
857.005	-33.29
857.174	-71.82
857.343	-116.73
857.512	-125.73
857.681	-168.95
857.85	-204.46
858.019	-114.67
858.188	-91.21
858.356	-119.28
858.525	-172.55
858.694	-131.09
858.863	-240.34
859.032	-189.84
859.201	-131.72
859.369	-82.46
859.538	-104.52
859.707	-65.42
859.876	-45
860.044	-77.23
860.213	17.9
860.382	25.49
860.55	36.37
860.719	56.06
860.888	54.17
861.056	-9.43
861.225	-7.36
861.393	11.17
861.562	-28.57
861.73	-109.42
861.899	-241.49
862.067	-2749.14
862.236	-154.8
862.404	-234.08
862.572	-187.05
862.741	-78.06
862.909	-63.57
863.078	-196.62
863.246	-124.87
863.414	-91.92
863.582	-26.42
863.751	-39.6
863.919	-37.21
864.087	-18.43
864.255	4.71
864.424	-290.14
864.592	-39.68
864.76	-39.14
864.928	-133.8
865.096	-168.87
865.264	-142.92
865.432	-2077.84
865.6	-328.13
865.768	-199.14
865.936	-179.78
866.104	-153.51
866.272	-158.2
866.44	-304.43
866.608	372.96
866.776	176.36
866.944	2726.16
867.112	-472.56
867.28	-204.91
867.448	-95.97
867.615	-45.45
867.783	-13.9
867.951	-32.04
868.119	28.64
868.286	-18.89
868.454	-152.04
868.622	-160.2
868.789	-188.06
868.957	-6208.93
869.125	-3045.39
869.292	-177.46
869.46	-215.39
869.627	-12.03
869.795	-42.87
869.963	-27.58
870.13	2.36
870.298	4.36
870.465	-112.92
870.632	-111.87
870.8	-53.98
870.967	-113.95
871.135	-155.11
871.302	-61.32
871.469	-20.41
871.637	-25.36
871.804	-69.65
871.971	-77.52
872.139	-455.93
872.306	-24.55
872.473	-52.13
872.64	-149.03
872.807	-16.31
872.975	96.61
873.142	-96.82
873.309	1173.65
873.476	42.68
873.643	83.75
873.81	-0.96
873.977	61.16
874.144	46.62
874.311	-52.06
874.478	-119.36
874.645	-156.1
874.812	-147.36
874.979	-87.95
875.146	-69.56
875.313	-73.06
875.48	13.64
875.647	-2.75
875.813	-33.3
875.98	-29.77
876.147	-43.79
876.314	-107.19
876.481	981.2
876.647	-1108.15
876.814	431.74
876.981	-72.4
877.147	-60.8
877.314	-0.84
877.481	25.11
877.647	27.15
877.814	0.43
877.98	-27.76
878.147	-21.26
878.314	12.86
878.48	-26.39
878.647	-21.97
878.813	33.45
878.979	43.16
879.146	9.37
879.312	3.7
879.479	-39.74
879.645	-124.95
879.811	-263.8
879.978	-647.52
880.144	-223.95
880.31	-94.89
880.477	-299.77
880.643	-350.44
880.809	-105.13
880.975	-33.45
881.142	-381.14
881.308	-29.74
881.474	2.54
881.64	-109.37
881.806	-173.84
881.972	-85.79
882.138	-70.58
882.304	-77.59
882.47	-88.93
882.636	-643.65
882.802	-209.95
882.968	-106.56
883.134	-66.05
883.3	-78.79
883.466	-3.09
883.632	36.49
883.798	16.74
883.964	-27.19
884.129	-31.15
884.295	-29.84
884.461	-103.8
884.627	-105.82
884.793	-79.21
884.958	-28.23
885.124	-118.87
885.29	-198.41
885.455	-413.23
885.621	-102.86
885.787	-198.01
885.952	-95.29
886.118	-66.9
886.283	-11.48
886.449	-80.72
886.614	-74.87
886.78	-113.94
886.945	820.08
887.111	-672.4
887.276	-539.91
887.442	-1106.59
887.607	-472.29
887.773	-263.46
887.938	-188.58
888.103	-283.98
888.269	-173.27
888.434	-435.81
888.599	-131.34
888.764	-91.85
888.93	-30.21
889.095	-34.06
889.26	-75.43
889.425	-88.16
889.59	-80.89
889.756	-81.29
889.921	-37.8
890.086	27.11
890.251	21.8
890.416	-159.78
890.581	-1503.63
890.746	300.8
890.911	547.93
891.076	236.7
891.241	-530.04
891.406	-25.46
891.571	-78.02
891.736	-298.28
891.901	-607.3
892.065	490.38
892.23	143.35
892.395	212.38
892.56	281.58
892.725	-29.88
892.889	-56.71
893.054	-101.03
893.219	-17.89
893.384	0.51
893.548	-79.44
893.713	-106.72
893.878	-55.72
