Data from Ofra_1a_PS_4CX12_Reflection_2.txt Node
Date: Tue Jul 20 10:55:44 EDT 2021
User: Adam
Spectrometer: FLMT01687
Trigger mode: 0
Integration Time (sec): 1.004000E0
Scans to average: 2
Electric dark correction enabled: true
Nonlinearity correction enabled: false
Boxcar width: 2
XAxis mode: Wavelengths
Number of Pixels in Spectrum: 3648
>>>>>Begin Spectral Data<<<<<
179.494	-332.99
179.716	-477.86
179.937	1141.14
180.158	-1340.13
180.38	141.7
180.601	81.85
180.823	20.81
181.044	-101.34
181.265	18.14
181.486	15.62
181.708	61.23
181.929	690.91
182.15	-73.34
182.372	84.73
182.593	111.42
182.814	-275.72
183.035	-60.49
183.257	-16.66
183.478	-27.94
183.699	-42.44
183.92	-68.25
184.141	-66.53
184.363	-69.63
184.584	-75.1
184.805	-48.6
185.026	-2.98
185.247	-5.47
185.468	-20.09
185.689	-23.42
185.91	-35.17
186.132	-29.1
186.353	-24.03
186.574	-4.2
186.795	-8.37
187.016	16.81
187.237	11.77
187.458	1.59
187.679	-23.2
187.9	33.49
188.121	30.15
188.342	71.4
188.563	94.44
188.784	97.13
189.005	74.1
189.226	78.91
189.447	47.54
189.667	40.04
189.888	24.83
190.109	14.72
190.33	8.16
190.551	13.75
190.772	14.42
190.993	12.9
191.214	13.76
191.434	-26.69
191.655	-55.6
191.876	-13.39
192.097	-3.03
192.318	16.87
192.538	5.33
192.759	10.62
192.98	26.19
193.201	21.18
193.421	9.85
193.642	25.18
193.863	28.19
194.083	14.82
194.304	10.99
194.525	-11.73
194.745	-18.87
194.966	-1.33
195.187	-5.84
195.407	-13.25
195.628	22.48
195.848	14.33
196.069	1.87
196.29	-1.81
196.51	-10.27
196.731	-27.64
196.951	-25.71
197.172	-18.3
197.392	-17.87
197.613	13.91
197.833	6.83
198.054	-7.03
198.274	-10.96
198.495	0.8
198.715	-13.18
198.936	2.51
199.156	14.83
199.377	31.27
199.597	18.22
199.817	9.67
200.038	-38.94
200.258	-8.17
200.479	0.41
200.699	7.34
200.919	15.53
201.14	40.35
201.36	35.66
201.58	10.22
201.801	6.48
202.021	-1.07
202.241	12.35
202.461	18.69
202.682	36.18
202.902	45
203.122	52.48
203.342	50.45
203.563	40.82
203.783	20.33
204.003	-3.34
204.223	6.6
204.443	9.25
204.663	-19.43
204.884	-4.1
205.104	-7.95
205.324	-17.48
205.544	-44.94
205.764	4.72
205.984	9.42
206.204	42.72
206.424	37.71
206.644	34.17
206.864	-8.21
207.084	7.24
207.304	-20.19
207.525	-15.69
207.745	11.56
207.964	42.78
208.184	36.44
208.404	31.83
208.624	37.16
208.844	24.2
209.064	0.98
209.284	4.29
209.504	1.33
209.724	-9.58
209.944	-9.36
210.164	-6.62
210.384	0.44
210.604	-3.64
210.823	6.07
211.043	-1.43
211.263	-32.31
211.483	-58.17
211.703	-38.95
211.922	-66.09
212.142	-18.63
212.362	15.11
212.582	36.6
212.801	30.94
213.021	29.01
213.241	-7.92
213.461	-13.39
213.68	-12.82
213.9	-10.88
214.12	-11.78
214.339	-13.63
214.559	-7.28
214.779	-18.89
214.998	-16.83
215.218	1.21
215.438	15.49
215.657	5.75
215.877	7.13
216.096	26.83
216.316	24.9
216.535	1.31
216.755	12.69
216.974	21.35
217.194	1.58
217.413	-2.46
217.633	26.23
217.852	13.9
218.072	15.74
218.291	14.3
218.511	9.93
218.73	-1.99
218.95	-42.37
219.169	-55.01
219.389	-26.08
219.608	-26.52
219.827	-13.04
220.047	19.18
220.266	27.83
220.485	19.22
220.705	50.34
220.924	37.2
221.143	40.07
221.363	27.71
221.582	33.71
221.801	25.41
222.021	44.27
222.24	37.03
222.459	56.38
222.678	48.28
222.897	48.85
223.117	41.81
223.336	50.24
223.555	51.32
223.774	72.97
223.993	98.74
224.213	129.99
224.432	110.75
224.651	82.6
224.87	70.59
225.089	49.93
225.308	41.09
225.527	32.3
225.746	39.71
225.965	30.4
226.184	14.27
226.404	-7.43
226.623	9.21
226.842	10.89
227.061	10.15
227.28	23.92
227.499	37.28
227.718	32.45
227.936	27.8
228.155	38.18
228.374	29.17
228.593	26.41
228.812	33.51
229.031	40.67
229.25	29.76
229.469	40.56
229.688	34.43
229.907	33.18
230.125	28.65
230.344	25.41
230.563	32.38
230.782	29.7
231.001	11.27
231.22	19.35
231.438	21.55
231.657	12.92
231.876	23.43
232.095	32.62
232.313	16.69
232.532	20.25
232.751	4.55
232.969	1.1
233.188	-13.82
233.407	-0.22
233.625	-9.69
233.844	17.76
234.063	10.19
234.281	17.68
234.5	21.33
234.719	23.05
234.937	-13.32
235.156	-17.42
235.374	1.8
235.593	-2.84
235.811	12.83
236.03	33.33
236.249	33.46
236.467	23.34
236.686	14.82
236.904	7.18
237.123	5.39
237.341	-2.04
237.559	-3.34
237.778	13.7
237.996	-19.92
238.215	-53.34
238.433	-73.71
238.652	-5.02
238.87	-2.09
239.088	31.12
239.307	27.81
239.525	27.81
239.743	6.44
239.962	-19.19
240.18	-14.67
240.398	-17.67
240.617	-13.42
240.835	-23.37
241.053	6.1
241.271	9.39
241.49	16.78
241.708	5.31
241.926	7.4
242.144	6.91
242.363	-6.67
242.581	-52
242.799	-58.06
243.017	-23.4
243.235	-14.8
243.453	-24.21
243.672	-12.1
243.89	13.15
244.108	20.05
244.326	16.03
244.544	35.34
244.762	24.39
244.98	22.35
245.198	20.45
245.416	22.52
245.634	18.5
245.852	14.53
246.07	30.63
246.288	28.72
246.506	21.13
246.724	15.31
246.942	31.44
247.16	15.5
247.378	15.89
247.596	42.22
247.814	41.15
248.032	31.97
248.25	37.5
248.468	20.34
248.685	18.32
248.903	15.45
249.121	17.61
249.339	15.25
249.557	20.44
249.775	28.42
249.992	27.94
250.21	25.81
250.428	30.75
250.646	28.03
250.863	6.53
251.081	10.64
251.299	11.48
251.517	11.79
251.734	13.38
251.952	23.5
252.17	12.57
252.387	10.47
252.605	2.23
252.823	-10.5
253.04	14.83
253.258	43.09
253.475	31.11
253.693	48.8
253.911	46.57
254.128	33.51
254.346	39.61
254.563	56.69
254.781	46.51
254.998	56.37
255.216	44.7
255.433	0.44
255.651	-9.61
255.868	-18.68
256.086	-15.51
256.303	-1.72
256.521	17.08
256.738	6.3
256.956	6.61
257.173	-3.33
257.39	6.33
257.608	3.23
257.825	12.67
258.043	29.31
258.26	29.03
258.477	17.64
258.695	18.27
258.912	-1.73
259.129	-27.41
259.346	-45.34
259.564	-23.17
259.781	-27.68
259.998	-1.83
260.216	8.63
260.433	18.22
260.65	5.42
260.867	14.32
261.084	14.33
261.302	24.28
261.519	13.82
261.736	32.37
261.953	17.07
262.17	26.99
262.387	16.25
262.604	32.55
262.822	37.09
263.039	32.89
263.256	27.31
263.473	29.22
263.69	20.85
263.907	10.7
264.124	16.39
264.341	33.6
264.558	21.1
264.775	31.12
264.992	46.51
265.209	32.82
265.426	23.59
265.643	47.8
265.86	11.5
266.077	-23.85
266.294	11.52
266.51	18.42
266.727	1.1
266.944	26.74
267.161	21.2
267.378	19.28
267.595	-1.65
267.812	-4.27
268.028	-21.11
268.245	-10.65
268.462	-7.14
268.679	2.9
268.896	13.34
269.112	10.63
269.329	-15.85
269.546	-16.15
269.763	-1.15
269.979	-3.21
270.196	0.43
270.413	13.81
270.629	15.93
270.846	16.6
271.063	24.93
271.279	30.53
271.496	39.19
271.712	28.61
271.929	11.83
272.146	1.72
272.362	-1.3
272.579	-15.42
272.795	-22.88
273.012	-13.92
273.228	-1.08
273.445	8.32
273.661	17.33
273.878	4.98
274.094	8.11
274.311	13.51
274.527	-17.79
274.744	-12.52
274.96	13.23
275.177	21.24
275.393	21.55
275.609	45.57
275.826	58.18
276.042	51.47
276.259	47.88
276.475	41.58
276.691	28.36
276.908	17.23
277.124	31.54
277.34	15.68
277.557	14.97
277.773	5.31
277.989	-17.87
278.205	-14.45
278.422	7.1
278.638	15.39
278.854	11.02
279.07	31.8
279.286	23.84
279.503	14.86
279.719	15.19
279.935	25.93
280.151	3.33
280.367	2.07
280.583	-4.33
280.799	-8.84
281.016	-40.22
281.232	-12.77
281.448	-3.34
281.664	10.89
281.88	21.21
282.096	24.44
282.312	22.66
282.528	21.8
282.744	9.12
282.96	-9.91
283.176	-9.34
283.392	-35.26
283.608	-23.39
283.824	-16.61
284.04	-56.98
284.256	-39.05
284.471	-23.36
284.687	-23.75
284.903	-14.03
285.119	7.56
285.335	18.14
285.551	26.02
285.767	27.12
285.982	25.09
286.198	15.96
286.414	14.64
286.63	16.99
286.846	28.69
287.061	33.9
287.277	36.59
287.493	21.15
287.709	22.78
287.924	25.86
288.14	32.27
288.356	44.4
288.571	53.79
288.787	50.02
289.003	53.13
289.218	24.67
289.434	13.11
289.65	18.82
289.865	8.22
290.081	2.01
290.296	20.28
290.512	14.99
290.727	3.01
290.943	17.54
291.159	11.29
291.374	-8.25
291.59	-14.31
291.805	-28.01
292.021	-42.42
292.236	-28.21
292.451	1.28
292.667	6.63
292.882	25.77
293.098	37.48
293.313	21.53
293.529	1.81
293.744	-1.41
293.959	8.11
294.175	12.72
294.39	-10.68
294.605	11.68
294.821	21.91
295.036	12.38
295.251	5.96
295.467	2.24
295.682	-0.46
295.897	-21.48
296.112	-26.75
296.328	0.8
296.543	12.24
296.758	7.86
296.973	23.53
297.188	21.46
297.404	-21.17
297.619	-29.36
297.834	-58.18
298.049	-48.8
298.264	-22.83
298.479	-12.73
298.694	14.3
298.909	30.07
299.125	23.37
299.34	26.25
299.555	31.65
299.77	47.49
299.985	37.75
300.2	43.02
300.415	35.64
300.63	35.06
300.845	22.35
301.06	23.67
301.275	18.94
301.49	27.22
301.704	27.45
301.919	11.2
302.134	7.33
302.349	8.86
302.564	-5.84
302.779	-21.64
302.994	9.28
303.209	19.01
303.423	14.88
303.638	23.02
303.853	28.99
304.068	11.51
304.283	15.7
304.497	4.4
304.712	10.86
304.927	14.4
305.142	15.31
305.356	9.26
305.571	16.02
305.786	12.98
306	15.73
306.215	21.61
306.43	17.06
306.644	18.72
306.859	17.1
307.074	13.88
307.288	15.35
307.503	19.33
307.717	8.33
307.932	22.23
308.147	9.77
308.361	6.68
308.576	-19.48
308.79	1.24
309.005	-10.91
309.219	2.49
309.434	17.61
309.648	40.57
309.863	24.07
310.077	18.73
310.292	29.99
310.506	-0.07
310.72	-19.98
310.935	10.49
311.149	9.71
311.364	-0.79
311.578	11.91
311.792	14.46
312.007	-3.7
312.221	-18.54
312.435	-9.31
312.649	7.63
312.864	20.06
313.078	36.78
313.292	35.7
313.507	36.62
313.721	27.75
313.935	22.94
314.149	9.51
314.363	16.85
314.578	17.48
314.792	-5.06
315.006	-12.13
315.22	-3.37
315.434	12.33
315.648	2.82
315.862	24.69
316.077	13.41
316.291	22.3
316.505	-6.42
316.719	8.79
316.933	0.12
317.147	15.17
317.361	3.7
317.575	18.7
317.789	15.98
318.003	1.2
318.217	-0.06
318.431	-2.73
318.645	-8.46
318.859	2.51
319.073	17.4
319.287	15.2
319.5	10.45
319.714	-8.52
319.928	-12.84
320.142	-20.57
320.356	-12.82
320.57	-35.35
320.784	5.61
320.997	-16.1
321.211	-5.29
321.425	-32.51
321.639	-6.06
321.853	-5.76
322.066	11.65
322.28	8.25
322.494	18.6
322.707	17.68
322.921	-0.82
323.135	-9.5
323.349	-9.42
323.562	-8.01
323.776	-5.25
323.989	16.6
324.203	9.06
324.417	10.37
324.63	5.5
324.844	4.74
325.057	-24.24
325.271	-9.28
325.485	-12.32
325.698	5.22
325.912	3.54
326.125	13.6
326.339	21.66
326.552	23.32
326.766	14.08
326.979	28.3
327.193	36.91
327.406	17.89
327.619	23.34
327.833	15.98
328.046	1.84
328.26	-2.86
328.473	17.91
328.686	10.8
328.9	13.88
329.113	19.71
329.326	8.9
329.54	4.3
329.753	21.44
329.966	20.83
330.179	29.32
330.393	39.52
330.606	33.07
330.819	17.11
331.032	27.16
331.246	30.12
331.459	36.09
331.672	34.45
331.885	33.79
332.098	41.43
332.311	13.53
332.525	6.42
332.738	24.87
332.951	23.82
333.164	17.96
333.377	21.37
333.59	31.64
333.803	21.64
334.016	28.36
334.229	32.81
334.442	39.13
334.655	38.95
334.868	20.14
335.081	15.91
335.294	3.08
335.507	7.24
335.72	-10.97
335.933	0.59
336.146	0.83
336.359	22.72
336.572	24.35
336.785	40.37
336.997	40.61
337.21	40.75
337.423	2.5
337.636	-13.63
337.849	-7.73
338.062	-4.15
338.274	13.02
338.487	14.9
338.7	8.53
338.913	4.99
339.125	8.73
339.338	-13.81
339.551	-15.3
339.763	5.15
339.976	10.42
340.189	-2.26
340.402	5.67
340.614	20.39
340.827	15.37
341.039	3.38
341.252	-0.05
341.465	-10.25
341.677	-17.54
341.89	-35.35
342.102	-28.02
342.315	-18.86
342.527	-13.34
342.74	-19.79
342.952	-15.18
343.165	-14.66
343.377	-7.92
343.59	3.32
343.802	20.95
344.015	32.8
344.227	49.29
344.44	48.2
344.652	33.09
344.864	31.33
345.077	39.88
345.289	27.98
345.502	45.34
345.714	47.46
345.926	43.94
346.139	25.46
346.351	33.08
346.563	31.65
346.775	45.32
346.988	47.89
347.2	41.58
347.412	26.23
347.624	21.11
347.837	17.53
348.049	3.96
348.261	1.31
348.473	-4.1
348.685	-10.71
348.897	-9.48
349.11	1.06
349.322	8.2
349.534	16.48
349.746	20.26
349.958	10.8
350.17	-9.67
350.382	-11.89
350.594	2.83
350.806	13.46
351.018	11.5
351.23	31.61
351.442	39.98
351.654	33.77
351.866	19.9
352.078	33.12
352.29	25.5
352.502	28.25
352.714	24.79
352.926	17.7
353.138	10.66
353.35	13.06
353.561	7.06
353.773	-2.74
353.985	15.93
354.197	18.3
354.409	13.38
354.621	-8.44
354.832	0.86
355.044	-29.3
355.256	-50.88
355.468	-60.14
355.679	-11.24
355.891	-1.18
356.103	2.33
356.314	14.91
356.526	17.59
356.738	12.24
356.949	-3.33
357.161	14.5
357.373	7.8
357.584	18.59
357.796	14.82
358.008	27.85
358.219	23.27
358.431	17.7
358.642	15.41
358.854	17.17
359.065	0.63
359.277	6.98
359.488	8.7
359.7	6.06
359.911	0.23
360.123	15.19
360.334	1.28
360.546	-0.7
360.757	-9.79
360.969	-6.97
361.18	-20.22
361.391	-12.05
361.603	-1.42
361.814	19.22
362.025	21.9
362.237	27.81
362.448	37.49
362.659	28.17
362.871	17.57
363.082	14.41
363.293	8.96
363.504	-22.54
363.716	-16.18
363.927	-3.76
364.138	-22.57
364.349	-20.71
364.56	-15.57
364.772	-2.2
364.983	4.34
365.194	16.3
365.405	18.11
365.616	35.96
365.827	21.34
366.038	16.43
366.25	17.02
366.461	18.34
366.672	-1.48
366.883	3.12
367.094	-6.58
367.305	-19.96
367.516	-18.05
367.727	-17.83
367.938	-24.68
368.149	-27.65
368.36	-27.97
368.571	-51.91
368.781	-51.51
368.992	-35.78
369.203	-21.32
369.414	-17.13
369.625	3.4
369.836	23.33
370.047	19.11
370.258	29.64
370.468	16.53
370.679	8.87
370.89	-9.14
371.101	12.26
371.312	-5.17
371.522	14.36
371.733	7.89
371.944	7.91
372.155	-1.48
372.365	6.45
372.576	-4.64
372.787	6.65
372.997	19.86
373.208	14.56
373.419	15.29
373.629	15.36
373.84	8.73
374.05	-4.2
374.261	-7.96
374.472	-3.09
374.682	-0.35
374.893	-9.67
375.103	8.45
375.314	9.47
375.524	4.51
375.735	17.22
375.945	26.91
376.156	10.42
376.366	13.84
376.577	15.34
376.787	11.84
376.997	14.42
377.208	18.41
377.418	14.86
377.629	16.3
377.839	14.05
378.049	18.25
378.26	13.41
378.47	17.98
378.68	11.86
378.89	23.39
379.101	18.26
379.311	26.72
379.521	21.84
379.732	23.9
379.942	9.45
380.152	-1.24
380.362	-4.51
380.572	5.38
380.783	13.88
380.993	20.52
381.203	21.11
381.413	17.59
381.623	13.91
381.833	10.64
382.043	-5.05
382.253	5.14
382.463	17.5
382.674	12.82
382.884	11.99
383.094	23.69
383.304	22.75
383.514	18.59
383.724	23.24
383.934	14.4
384.144	15.04
384.353	13.77
384.563	7.95
384.773	10.32
384.983	11.96
385.193	1.33
385.403	1.38
385.613	7.56
385.823	2.7
386.033	3.89
386.242	5.76
386.452	3.23
386.662	2.75
386.872	3.15
387.082	1.37
387.291	-0.9
387.501	2.97
387.711	3.27
387.921	3.75
388.13	11.76
388.34	11.41
388.55	6.51
388.759	2.92
388.969	3.04
389.179	-0.73
389.388	1.81
389.598	1.51
389.807	-2.73
390.017	-7.18
390.227	-9.37
390.436	-4.56
390.646	-2.8
390.855	1.75
391.065	9.03
391.274	10.76
391.484	7.2
391.693	9.12
391.903	8.21
392.112	4.99
392.322	4.61
392.531	3.93
392.74	-0.43
392.95	0.75
393.159	1.76
393.369	1.83
393.578	2.4
393.787	5.13
393.997	6.1
394.206	4.69
394.415	5.76
394.625	5.26
394.834	2.58
395.043	1.93
395.252	5.44
395.462	5.81
395.671	6.74
395.88	9.5
396.089	9.49
396.298	7.52
396.508	5.9
396.717	5.8
396.926	4.54
397.135	5.12
397.344	4.64
397.553	5.54
397.762	6.18
397.971	6.46
398.181	5.85
398.39	5.79
398.599	5.33
398.808	4.84
399.017	5.18
399.226	5.27
399.435	5.62
399.644	6.34
399.853	6.85
400.062	6.6
400.27	6.42
400.479	6.54
400.688	6.28
400.897	6.05
401.106	6.37
401.315	6.37
401.524	6.36
401.733	6.19
401.941	6.35
402.15	6.01
402.359	6.11
402.568	6.15
402.777	6.22
402.985	5.8
403.194	5.86
403.403	6.19
403.612	5.99
403.82	5.99
404.029	6.22
404.238	6.34
404.446	6.31
404.655	6.52
404.864	6.51
405.072	6.52
405.281	6.43
405.489	6.16
405.698	6.16
405.906	6.19
406.115	6.05
406.324	6.03
406.532	6.03
406.741	5.88
406.949	5.86
407.158	5.88
407.366	5.84
407.574	5.92
407.783	5.93
407.991	5.84
408.2	5.88
408.408	5.85
408.617	5.71
408.825	5.59
409.033	5.75
409.242	5.81
409.45	5.92
409.658	5.87
409.867	6
410.075	5.94
410.283	5.72
410.491	5.51
410.7	5.59
410.908	5.52
411.116	5.55
411.324	5.6
411.533	5.58
411.741	5.51
411.949	5.56
412.157	5.49
412.365	5.47
412.573	5.52
412.781	5.58
412.99	5.57
413.198	5.62
413.406	5.73
413.614	5.77
413.822	5.81
414.03	5.73
414.238	5.65
414.446	5.64
414.654	5.49
414.862	5.42
415.07	5.27
415.278	5.33
415.486	5.15
415.694	5.28
415.902	5.22
416.109	5.28
416.317	5.26
416.525	5.35
416.733	5.26
416.941	5.34
417.149	5.29
417.357	5.25
417.564	5.15
417.772	5.29
417.98	5.19
418.188	5.21
418.395	4.94
418.603	4.99
418.811	4.74
419.019	4.76
419.226	4.84
419.434	4.96
419.642	4.74
419.849	4.94
420.057	4.91
420.265	4.83
420.472	4.78
420.68	4.86
420.887	4.62
421.095	4.69
421.302	4.72
421.51	4.71
421.717	4.83
421.925	4.98
422.132	4.95
422.34	4.82
422.547	4.88
422.755	5.02
422.962	5.02
423.17	4.88
423.377	5
423.585	5.17
423.792	4.93
423.999	4.86
424.207	4.95
424.414	4.89
424.621	4.85
424.829	4.99
425.036	5.08
425.243	5.11
425.451	5.13
425.658	5.07
425.865	5.01
426.072	4.98
426.28	4.94
426.487	4.96
426.694	4.88
426.901	4.8
427.108	4.72
427.315	4.68
427.523	4.59
427.73	4.7
427.937	4.67
428.144	4.75
428.351	4.7
428.558	4.87
428.765	4.87
428.972	4.99
429.179	4.88
429.386	5.02
429.593	4.78
429.8	4.72
430.007	4.8
430.214	4.98
430.421	4.97
430.628	5.08
430.835	5.01
431.042	4.88
431.249	4.83
431.456	4.81
431.662	5.01
431.869	5.21
432.076	5.28
432.283	5.33
432.49	5.4
432.697	5.32
432.903	5.18
433.11	5.27
433.317	5.25
433.524	5.23
433.73	5.12
433.937	5.21
434.144	5.03
434.35	4.99
434.557	4.96
434.764	5.07
434.97	5.04
435.177	5.28
435.384	5.34
435.59	5.47
435.797	5.56
436.003	5.51
436.21	5.34
436.416	5.3
436.623	5.31
436.829	5.14
437.036	5.15
437.242	5.22
437.449	5.24
437.655	5.21
437.862	5.32
438.068	5.3
438.275	5.4
438.481	5.48
438.687	5.39
438.894	5.45
439.1	5.48
439.307	5.43
439.513	5.42
439.719	5.54
439.926	5.59
440.132	5.78
440.338	5.76
440.544	5.77
440.751	5.79
440.957	5.69
441.163	5.52
441.369	5.58
441.575	5.55
441.782	5.56
441.988	5.61
442.194	5.59
442.4	5.61
442.606	5.81
442.812	5.75
443.018	5.71
443.224	5.85
443.431	5.86
443.637	5.71
443.843	5.76
444.049	5.86
444.255	5.83
444.461	5.77
444.667	5.75
444.873	5.73
445.079	5.68
445.284	5.74
445.49	5.75
445.696	5.74
445.902	5.72
446.108	5.79
446.314	5.67
446.52	5.83
446.726	5.92
446.931	5.97
447.137	5.94
447.343	6.09
447.549	6.03
447.755	6.02
447.96	5.99
448.166	6.05
448.372	6.08
448.578	5.98
448.783	5.98
448.989	6.07
449.195	6.04
449.4	6.03
449.606	6.1
449.812	6.02
450.017	6.08
450.223	6.09
450.428	6.06
450.634	6.04
450.84	6.18
451.045	6.16
451.251	6.14
451.456	6.14
451.662	6.17
451.867	6.22
452.073	6.29
452.278	6.28
452.483	6.27
452.689	6.24
452.894	6.24
453.1	6.16
453.305	6.18
453.51	6.26
453.716	6.3
453.921	6.26
454.127	6.23
454.332	6.19
454.537	6.15
454.742	6.16
454.948	6.16
455.153	6.21
455.358	6.3
455.563	6.34
455.769	6.32
455.974	6.34
456.179	6.32
456.384	6.28
456.589	6.23
456.795	6.25
457	6.27
457.205	6.17
457.41	6.25
457.615	6.25
457.82	6.28
458.025	6.22
458.23	6.29
458.435	6.28
458.64	6.32
458.845	6.39
459.05	6.44
459.255	6.51
459.46	6.42
459.665	6.42
459.87	6.37
460.075	6.43
460.28	6.53
460.485	6.74
460.69	6.71
460.895	6.81
461.099	6.74
461.304	6.66
461.509	6.59
461.714	6.7
461.919	6.57
462.123	6.61
462.328	6.59
462.533	6.49
462.738	6.47
462.942	6.48
463.147	6.52
463.352	6.55
463.556	6.67
463.761	6.71
463.966	6.74
464.17	6.86
464.375	6.98
464.58	6.95
464.784	6.92
464.989	7
465.193	6.9
465.398	6.89
465.602	7.03
465.807	7.1
466.011	7.08
466.216	7.01
466.42	7.01
466.625	6.93
466.829	6.84
467.034	6.93
467.238	7.11
467.443	7.07
467.647	7.17
467.851	7.25
468.056	7.28
468.26	7.21
468.464	7.23
468.669	7.2
468.873	7.22
469.077	7.14
469.282	7.19
469.486	7.15
469.69	7.14
469.894	7.17
470.099	7.21
470.303	7.18
470.507	7.25
470.711	7.26
470.915	7.26
471.119	7.29
471.324	7.36
471.528	7.44
471.732	7.52
471.936	7.55
472.14	7.53
472.344	7.6
472.548	7.58
472.752	7.53
472.956	7.5
473.16	7.52
473.364	7.53
473.568	7.45
473.772	7.4
473.976	7.54
474.18	7.58
474.384	7.47
474.588	7.57
474.792	7.61
474.995	7.55
475.199	7.47
475.403	7.52
475.607	7.55
475.811	7.57
476.015	7.48
476.218	7.45
476.422	7.51
476.626	7.46
476.83	7.55
477.033	7.63
477.237	7.74
477.441	7.77
477.644	7.72
477.848	7.72
478.052	7.71
478.255	7.79
478.459	7.78
478.663	7.9
478.866	7.87
479.07	7.83
479.273	7.86
479.477	7.83
479.681	7.79
479.884	7.78
480.088	7.87
480.291	7.83
480.495	7.83
480.698	7.82
480.901	7.8
481.105	7.81
481.308	7.77
481.512	7.85
481.715	7.99
481.919	8.11
482.122	8.07
482.325	8.13
482.529	8.07
482.732	7.92
482.935	7.84
483.138	7.81
483.342	7.78
483.545	7.86
483.748	8.01
483.952	8.02
484.155	8.13
484.358	8.09
484.561	7.97
484.764	7.84
484.967	7.87
485.171	7.79
485.374	7.82
485.577	7.86
485.78	7.89
485.983	7.8
486.186	7.81
486.389	7.75
486.592	7.74
486.795	7.83
486.998	7.86
487.201	7.87
487.404	8.04
487.607	8.11
487.81	7.98
488.013	8
488.216	7.99
488.419	7.91
488.622	7.81
488.825	7.87
489.028	7.87
489.231	7.94
489.433	7.9
489.636	7.9
489.839	7.95
490.042	7.96
490.245	7.95
490.447	7.93
490.65	7.96
490.853	7.94
491.056	7.92
491.258	7.94
491.461	7.97
491.664	7.98
491.866	7.88
492.069	7.92
492.272	7.8
492.474	7.8
492.677	7.77
492.879	7.83
493.082	7.88
493.285	7.95
493.487	7.94
493.69	7.96
493.892	7.9
494.095	7.9
494.297	7.91
494.5	7.93
494.702	8
494.905	7.99
495.107	7.96
495.309	7.98
495.512	7.97
495.714	7.97
495.917	8.11
496.119	8.11
496.321	8.11
496.524	8.06
496.726	8
496.928	7.93
497.13	7.95
497.333	7.89
497.535	7.94
497.737	7.98
497.939	7.93
498.142	7.87
498.344	7.91
498.546	7.95
498.748	7.99
498.95	8.03
499.152	8.05
499.355	8.02
499.557	7.99
499.759	8.07
499.961	8.07
500.163	8.18
500.365	8.24
500.567	8.3
500.769	8.25
500.971	8.27
501.173	8.07
501.375	8.12
501.577	8.09
501.779	8.04
501.981	8.02
502.183	8.09
502.385	8.07
502.587	8.04
502.788	8.11
502.99	8.16
503.192	8.21
503.394	8.17
503.596	8.19
503.798	8.12
503.999	8.1
504.201	8.03
504.403	8.05
504.605	8.09
504.806	8.23
505.008	8.26
505.21	8.36
505.411	8.4
505.613	8.42
505.815	8.3
506.016	8.35
506.218	8.35
506.42	8.31
506.621	8.34
506.823	8.41
507.024	8.41
507.226	8.39
507.427	8.46
507.629	8.39
507.83	8.38
508.032	8.31
508.233	8.36
508.435	8.33
508.636	8.41
508.838	8.44
509.039	8.49
509.24	8.47
509.442	8.49
509.643	8.47
509.845	8.45
510.046	8.48
510.247	8.46
510.448	8.51
510.65	8.5
510.851	8.55
511.052	8.58
511.254	8.69
511.455	8.72
511.656	8.72
511.857	8.71
512.058	8.74
512.26	8.69
512.461	8.63
512.662	8.65
512.863	8.59
513.064	8.6
513.265	8.54
513.466	8.61
513.667	8.64
513.868	8.64
514.069	8.56
514.27	8.63
514.471	8.57
514.672	8.63
514.873	8.71
515.074	8.79
515.275	8.83
515.476	8.86
515.677	8.85
515.878	8.84
516.079	8.79
516.28	8.79
516.481	8.78
516.682	8.77
516.882	8.79
517.083	8.82
517.284	8.84
517.485	8.87
517.686	8.87
517.886	8.84
518.087	8.87
518.288	8.8
518.488	8.74
518.689	8.76
518.89	8.79
519.091	8.82
519.291	8.87
519.492	8.94
519.692	8.89
519.893	8.95
520.094	8.88
520.294	8.84
520.495	8.85
520.695	8.97
520.896	8.95
521.096	9.01
521.297	9.07
521.497	9.06
521.698	8.94
521.898	8.9
522.099	8.89
522.299	8.88
522.499	8.9
522.7	8.96
522.9	9.01
523.101	9.02
523.301	9.05
523.501	9.04
523.702	9.06
523.902	9.05
524.102	9.15
524.302	9.2
524.503	9.22
524.703	9.19
524.903	9.18
525.103	9.06
525.304	9.03
525.504	9.09
525.704	9.12
525.904	9.12
526.104	9.17
526.304	9.16
526.504	9.16
526.705	9.11
526.905	9.11
527.105	9.12
527.305	9.06
527.505	8.97
527.705	9
527.905	9.05
528.105	9.01
528.305	9.11
528.505	9.19
528.705	9.27
528.905	9.28
529.105	9.32
529.304	9.33
529.504	9.36
529.704	9.34
529.904	9.38
530.104	9.39
530.304	9.38
530.503	9.41
530.703	9.4
530.903	9.39
531.103	9.41
531.303	9.43
531.502	9.46
531.702	9.53
531.902	9.6
532.101	9.64
532.301	9.69
532.501	9.71
532.7	9.67
532.9	9.69
533.1	9.64
533.299	9.63
533.499	9.59
533.698	9.65
533.898	9.63
534.097	9.67
534.297	9.7
534.496	9.69
534.696	9.68
534.895	9.71
535.095	9.73
535.294	9.79
535.494	9.83
535.693	9.82
535.892	9.79
536.092	9.78
536.291	9.71
536.491	9.73
536.69	9.74
536.889	9.68
537.088	9.72
537.288	9.79
537.487	9.8
537.686	9.79
537.886	9.87
538.085	9.9
538.284	9.9
538.483	9.89
538.682	9.96
538.882	10.01
539.081	10.02
539.28	10.03
539.479	10.09
539.678	10.11
539.877	10.16
540.076	10.16
540.275	10.2
540.474	10.19
540.673	10.27
540.872	10.25
541.071	10.28
541.27	10.31
541.469	10.34
541.668	10.31
541.867	10.4
542.066	10.47
542.265	10.54
542.464	10.61
542.663	10.71
542.862	10.76
543.06	10.81
543.259	10.9
543.458	10.92
543.657	10.96
543.856	10.99
544.054	11.03
544.253	11.01
544.452	11.09
544.651	11.15
544.849	11.16
545.048	11.17
545.247	11.21
545.445	11.21
545.644	11.19
545.843	11.22
546.041	11.24
546.24	11.29
546.438	11.36
546.637	11.4
546.836	11.45
547.034	11.5
547.233	11.56
547.431	11.54
547.63	11.57
547.828	11.6
548.027	11.67
548.225	11.72
548.423	11.82
548.622	11.86
548.82	11.9
549.019	11.93
549.217	11.98
549.415	11.97
549.614	12.16
549.812	12.19
550.01	12.22
550.209	12.3
550.407	12.43
550.605	12.36
550.803	12.35
551.002	12.46
551.2	12.45
551.398	12.53
551.596	12.68
551.794	12.81
551.993	12.88
552.191	12.99
552.389	13.04
552.587	13.11
552.785	13.21
552.983	13.26
553.181	13.31
553.379	13.36
553.577	13.39
553.775	13.54
553.973	13.64
554.171	13.74
554.369	13.85
554.567	13.95
554.765	13.96
554.963	14.03
555.161	14.12
555.359	14.23
555.557	14.33
555.755	14.4
555.952	14.46
556.15	14.51
556.348	14.51
556.546	14.62
556.744	14.67
556.941	14.75
557.139	14.89
557.337	15.05
557.535	15.11
557.732	15.17
557.93	15.37
558.128	15.46
558.325	15.56
558.523	15.67
558.721	15.9
558.918	15.95
559.116	16.03
559.313	16.14
559.511	16.27
559.708	16.3
559.906	16.44
560.104	16.53
560.301	16.61
560.498	16.73
560.696	16.83
560.893	16.9
561.091	17.06
561.288	17.21
561.486	17.25
561.683	17.4
561.88	17.56
562.078	17.64
562.275	17.69
562.473	17.81
562.67	17.89
562.867	17.99
563.064	18.04
563.262	18.13
563.459	18.3
563.656	18.41
563.853	18.51
564.051	18.62
564.248	18.79
564.445	18.8
564.642	18.97
564.839	19.1
565.036	19.33
565.234	19.47
565.431	19.56
565.628	19.69
565.825	19.76
566.022	19.81
566.219	19.85
566.416	20.07
566.613	20.11
566.81	20.18
567.007	20.2
567.204	20.34
567.401	20.45
567.598	20.55
567.795	20.67
567.991	20.84
568.188	20.85
568.385	20.89
568.582	21.01
568.779	21.1
568.976	21.17
569.172	21.33
569.369	21.45
569.566	21.56
569.763	21.58
569.96	21.67
570.156	21.78
570.353	21.76
570.55	21.81
570.746	21.99
570.943	22.06
571.14	22.08
571.336	22.2
571.533	22.23
571.729	22.21
571.926	22.24
572.123	22.35
572.319	22.38
572.516	22.48
572.712	22.53
572.909	22.59
573.105	22.63
573.302	22.69
573.498	22.65
573.695	22.73
573.891	22.81
574.087	22.75
574.284	22.82
574.48	22.86
574.677	22.82
574.873	22.8
575.069	23
575.266	23.02
575.462	23.12
575.658	23.27
575.854	23.4
576.051	23.27
576.247	23.2
576.443	23.19
576.639	23.11
576.835	22.99
577.032	23.07
577.228	23.19
577.424	23.21
577.62	23.23
577.816	23.33
578.012	23.35
578.208	23.26
578.404	23.28
578.6	23.31
578.796	23.24
578.993	23.22
579.189	23.36
579.384	23.34
579.58	23.38
579.776	23.37
579.972	23.39
580.168	23.23
580.364	23.33
580.56	23.19
580.756	23.21
580.952	23.16
581.148	23.23
581.343	23.13
581.539	23.24
581.735	23.31
581.931	23.26
582.127	23.21
582.322	23.17
582.518	23.15
582.714	22.95
582.909	22.98
583.105	22.94
583.301	22.99
583.496	22.94
583.692	23
583.888	22.94
584.083	22.96
584.279	22.82
584.474	22.8
584.67	22.8
584.866	22.89
585.061	22.89
585.257	23.02
585.452	23.09
585.648	23.07
585.843	22.93
586.039	22.92
586.234	22.88
586.429	22.81
586.625	22.82
586.82	22.92
587.015	22.94
587.211	22.87
587.406	22.87
587.601	22.92
587.797	22.94
587.992	22.89
588.187	22.91
588.383	22.88
588.578	22.93
588.773	22.92
588.968	23.08
589.163	23.15
589.359	23.16
589.554	23.1
589.749	23.15
589.944	23.09
590.139	23.09
590.334	23.21
590.529	23.21
590.724	23.28
590.919	23.38
591.114	23.49
591.309	23.51
591.504	23.54
591.699	23.5
591.894	23.41
592.089	23.39
592.284	23.48
592.479	23.53
592.674	23.64
592.869	23.69
593.064	23.66
593.259	23.66
593.454	23.71
593.648	23.75
593.843	23.89
594.038	24.09
594.233	24.18
594.428	24.32
594.622	24.38
594.817	24.45
595.012	24.45
595.206	24.48
595.401	24.55
595.596	24.6
595.79	24.59
595.985	24.67
596.18	24.76
596.374	24.91
596.569	25.03
596.763	25.14
596.958	25.23
597.153	25.32
597.347	25.21
597.542	25.24
597.736	25.32
597.931	25.3
598.125	25.46
598.319	25.61
598.514	25.66
598.708	25.72
598.903	25.89
599.097	25.94
599.291	25.98
599.486	26.15
599.68	26.25
599.874	26.29
600.069	26.35
600.263	26.44
600.457	26.41
600.651	26.44
600.846	26.51
601.04	26.49
601.234	26.52
601.428	26.64
601.622	26.69
601.817	26.79
602.011	26.81
602.205	26.83
602.399	26.77
602.593	26.79
602.787	26.73
602.981	26.65
603.175	26.75
603.369	26.7
603.563	26.82
603.757	26.72
603.951	26.76
604.145	26.68
604.339	26.83
604.533	26.65
604.727	26.77
604.921	26.83
605.115	26.76
605.309	26.66
605.502	26.75
605.696	26.66
605.89	26.69
606.084	26.72
606.278	26.63
606.471	26.51
606.665	26.47
606.859	26.32
607.053	26.16
607.246	26.11
607.44	26.05
607.634	26.02
607.827	26.03
608.021	26.03
608.214	25.94
608.408	25.77
608.602	25.6
608.795	25.51
608.989	25.45
609.182	25.49
609.376	25.56
609.569	25.56
609.763	25.53
609.956	25.52
610.15	25.42
610.343	25.28
610.537	25.2
610.73	24.94
610.923	24.83
611.117	24.75
611.31	24.58
611.504	24.49
611.697	24.52
611.89	24.4
612.083	24.28
612.277	24.31
612.47	24.2
612.663	24.11
612.856	23.98
613.05	23.94
613.243	23.75
613.436	23.67
613.629	23.52
613.822	23.5
614.015	23.37
614.209	23.3
614.402	23.21
614.595	23.23
614.788	23.12
614.981	22.95
615.174	22.89
615.367	22.81
615.56	22.6
615.753	22.62
615.946	22.65
616.139	22.65
616.332	22.66
616.525	22.65
616.718	22.49
616.911	22.39
617.103	22.31
617.296	22.26
617.489	22.14
617.682	22.17
617.875	22.17
618.067	22.06
618.26	21.96
618.453	22
618.646	21.89
618.838	21.79
619.031	21.79
619.224	21.73
619.417	21.71
619.609	21.7
619.802	21.65
619.994	21.69
620.187	21.6
620.38	21.5
620.572	21.5
620.765	21.53
620.957	21.46
621.15	21.47
621.342	21.47
621.535	21.4
621.727	21.27
621.92	21.28
622.112	21.22
622.305	21.26
622.497	21.25
622.69	21.29
622.882	21.16
623.074	21.2
623.267	21.07
623.459	20.9
623.651	20.9
623.844	20.92
624.036	20.9
624.228	20.91
624.42	20.87
624.613	20.78
624.805	20.71
624.997	20.69
625.189	20.63
625.381	20.68
625.574	20.68
625.766	20.67
625.958	20.62
626.15	20.57
626.342	20.59
626.534	20.6
626.726	20.53
626.918	20.5
627.11	20.42
627.302	20.36
627.494	20.3
627.686	20.21
627.878	20.12
628.07	20.14
628.262	20.19
628.454	20.23
628.646	20.33
628.838	20.38
629.029	20.32
629.221	20.19
629.413	20.05
629.605	19.92
629.797	19.85
629.989	19.85
630.18	19.82
630.372	19.8
630.564	19.79
630.755	19.73
630.947	19.7
631.139	19.62
631.33	19.54
631.522	19.49
631.714	19.44
631.905	19.41
632.097	19.34
632.289	19.39
632.48	19.38
632.672	19.38
632.863	19.26
633.055	19.27
633.246	19.24
633.438	19.25
633.629	19.25
633.821	19.28
634.012	19.36
634.203	19.28
634.395	19.17
634.586	19.16
634.777	19.13
634.969	19.04
635.16	19
635.351	19.02
635.543	18.97
635.734	18.98
635.925	19
636.117	19.04
636.308	19.05
636.499	19.06
636.69	19.11
636.881	19.06
637.073	19.07
637.264	19.03
637.455	18.9
637.646	18.83
637.837	18.86
638.028	18.79
638.219	18.91
638.41	18.98
638.601	18.96
638.792	18.89
638.983	18.94
639.174	18.82
639.365	18.75
639.556	18.73
639.747	18.67
639.938	18.65
640.129	18.63
640.32	18.62
640.511	18.66
640.701	18.76
640.892	18.7
641.083	18.63
641.274	18.58
641.465	18.54
641.655	18.48
641.846	18.46
642.037	18.44
642.228	18.36
642.418	18.27
642.609	18.19
642.8	18.19
642.99	18.23
643.181	18.25
643.372	18.21
643.562	18.16
643.753	18.06
643.943	17.98
644.134	17.85
644.324	17.9
644.515	17.84
644.705	17.82
644.896	17.84
645.086	17.92
645.277	17.93
645.467	17.95
645.658	17.93
645.848	17.95
646.038	18.02
646.229	18.01
646.419	17.99
646.61	18.03
646.8	17.93
646.99	17.87
647.18	17.75
647.371	17.66
647.561	17.58
647.751	17.6
647.941	17.54
648.132	17.48
648.322	17.52
648.512	17.44
648.702	17.4
648.892	17.41
649.082	17.51
649.272	17.46
649.462	17.53
649.653	17.49
649.843	17.44
650.033	17.36
650.223	17.37
650.413	17.37
650.603	17.46
650.793	17.47
650.983	17.35
651.172	17.24
651.362	17.06
651.552	16.93
651.742	16.86
651.932	16.85
652.122	16.89
652.312	16.86
652.502	16.69
652.691	16.6
652.881	16.59
653.071	16.5
653.261	16.42
653.45	16.44
653.64	16.38
653.83	16.31
654.019	16.11
654.209	16.02
654.399	15.89
654.588	15.71
654.778	15.55
654.968	15.58
655.157	15.42
655.347	15.24
655.536	15.03
655.726	14.83
655.915	14.56
656.105	14.48
656.294	14.33
656.484	14.26
656.673	14.18
656.863	14.1
657.052	13.91
657.241	13.86
657.431	13.74
657.62	13.68
657.809	13.51
657.999	13.47
658.188	13.22
658.377	13.1
658.567	12.92
658.756	12.82
658.945	12.56
659.134	12.38
659.324	12.26
659.513	12.08
659.702	11.86
659.891	11.77
660.08	11.67
660.269	11.46
660.458	11.36
660.648	11.19
660.837	11.07
661.026	10.91
661.215	10.78
661.404	10.57
661.593	10.5
661.782	10.33
661.971	10.13
662.16	10.01
662.349	9.8
662.538	9.58
662.726	9.59
662.915	9.59
663.104	9.48
663.293	9.53
663.482	9.5
663.671	9.3
663.86	9.17
664.048	9.24
664.237	9.16
664.426	9.17
664.615	9.17
664.803	9.13
664.992	8.98
665.181	8.8
665.369	8.63
665.558	8.5
665.747	8.52
665.935	8.43
666.124	8.5
666.312	8.5
666.501	8.49
666.69	8.45
666.878	8.36
667.067	8.29
667.255	8.36
667.444	8.4
667.632	8.42
667.82	8.49
668.009	8.5
668.197	8.42
668.386	8.35
668.574	8.35
668.762	8.25
668.951	8.23
669.139	8.22
669.327	8.27
669.516	8.2
669.704	8.34
669.892	8.38
670.08	8.44
670.269	8.45
670.457	8.47
670.645	8.42
670.833	8.47
671.021	8.53
671.21	8.46
671.398	8.52
671.586	8.59
671.774	8.76
671.962	8.73
672.15	8.83
672.338	8.87
672.526	8.96
672.714	8.86
672.902	8.9
673.09	9.04
673.278	9.2
673.466	9.23
673.654	9.33
673.842	9.5
674.03	9.49
674.218	9.42
674.405	9.47
674.593	9.53
674.781	9.56
674.969	9.7
675.157	9.72
675.344	9.74
675.532	9.78
675.72	9.78
675.908	9.77
676.095	9.79
676.283	10
676.471	10.08
676.658	10.2
676.846	10.31
677.033	10.45
677.221	10.41
677.409	10.5
677.596	10.53
677.784	10.64
677.971	10.73
678.159	10.83
678.346	10.81
678.534	10.94
678.721	11
678.909	11.22
679.096	11.38
679.283	11.57
679.471	11.69
679.658	11.92
679.846	11.81
680.033	12
680.22	12.12
680.408	12.05
680.595	12.04
680.782	12.24
680.969	12.32
681.157	12.38
681.344	12.61
681.531	12.68
681.718	12.79
681.905	12.97
682.093	13.18
682.28	13.44
682.467	13.62
682.654	13.7
682.841	13.77
683.028	13.83
683.215	13.89
683.402	14.04
683.589	14.19
683.776	14.23
683.963	14.51
684.15	14.71
684.337	14.95
684.524	15.28
684.711	15.62
684.898	15.72
685.085	15.82
685.271	16.17
685.458	16.41
685.645	16.62
685.832	16.96
686.019	17.38
686.205	17.7
686.392	18.05
686.579	18.4
686.766	18.73
686.952	19.11
687.139	19.23
687.326	19.64
687.512	19.89
687.699	20.3
687.886	20.7
688.072	21.15
688.259	21.56
688.445	22.17
688.632	22.55
688.818	23.07
689.005	23.6
689.191	24.23
689.378	24.72
689.564	25.44
689.751	25.98
689.937	26.79
690.124	27.35
690.31	27.71
690.496	28.18
690.683	28.98
690.869	29.45
691.055	30.08
691.242	31
691.428	31.75
691.614	32.28
691.8	32.91
691.987	33.54
692.173	34.47
692.359	35.27
692.545	36.23
692.731	37.08
692.918	37.81
693.104	38.1
693.29	38.68
693.476	39.36
693.662	40.13
693.848	40.81
694.034	41.96
694.22	42.86
694.406	43.27
694.592	44.03
694.778	44.93
694.964	45.43
695.15	46.05
695.336	46.91
695.522	47.53
695.708	48.34
695.894	49.24
696.08	49.99
696.265	50.86
696.451	51.52
696.637	52.21
696.823	52.83
697.009	53.62
697.194	54.3
697.38	55.17
697.566	55.77
697.751	56.55
697.937	57.59
698.123	58.28
698.308	58.84
698.494	60.01
698.68	60.73
698.865	61.1
699.051	61.95
699.236	62.71
699.422	62.92
699.607	63.71
699.793	64.49
699.978	64.73
700.164	65.25
700.349	65.82
700.535	65.88
700.72	66.28
700.906	66.85
701.091	67.61
701.276	68.01
701.462	69.02
701.647	69.36
701.832	70.36
702.018	70.74
702.203	71.56
702.388	71.68
702.573	72.08
702.759	72.5
702.944	72.73
703.129	72.82
703.314	73.47
703.499	74.27
703.684	74.58
703.87	75.17
704.055	75.84
704.24	75.97
704.425	76.24
704.61	76.47
704.795	77.18
704.98	77.37
705.165	78.14
705.35	78.58
705.535	78.88
705.72	78.93
705.905	79.7
706.09	80.18
706.275	80.42
706.459	81
706.644	81.3
706.829	81.22
707.014	81.49
707.199	81.97
707.384	82.06
707.568	82.45
707.753	83.17
707.938	83.32
708.123	83.51
708.307	83.76
708.492	84.19
708.677	83.98
708.861	83.78
709.046	83.61
709.231	84.07
709.415	83.8
709.6	84.05
709.784	84.78
709.969	85.73
710.153	85.72
710.338	86.39
710.522	86.8
710.707	86.92
710.891	86.7
711.076	86.74
711.26	86.77
711.445	87.19
711.629	87.15
711.813	87.11
711.998	87.87
712.182	87.6
712.366	88.07
712.551	88.76
712.735	88.99
712.919	88.82
713.103	89.78
713.288	89.48
713.472	89.39
713.656	89.73
713.84	89.55
714.024	89.47
714.208	89.36
714.393	89.61
714.577	89.93
714.761	90.53
714.945	90.65
715.129	90.73
715.313	90.7
715.497	90.41
715.681	90.2
715.865	90.08
716.049	90.64
716.233	90.61
716.417	90.95
716.601	91.28
716.785	91.45
716.968	91.25
717.152	91.42
717.336	91.58
717.52	91.83
717.704	92.04
717.888	92.46
718.071	92.61
718.255	93
718.439	92.81
718.622	92.91
718.806	93.11
718.99	92.8
719.174	92.7
719.357	93.02
719.541	93.53
719.724	93.55
719.908	93.87
720.092	93.76
720.275	93.85
720.459	93.77
720.642	93.61
720.826	93.54
721.009	93.76
721.193	93.3
721.376	93.02
721.559	92.99
721.743	94.03
721.926	94.25
722.11	95.21
722.293	95.98
722.476	95.95
722.66	95.87
722.843	95.91
723.026	96.31
723.21	95.92
723.393	96.83
723.576	96.88
723.759	96.83
723.942	96.32
724.126	96.39
724.309	95.61
724.492	95.31
724.675	95.44
724.858	96.03
725.041	96.47
725.224	97.17
725.407	97.27
725.59	97.64
725.774	97.05
725.957	97.03
726.14	96.88
726.322	97.06
726.505	96.87
726.688	97.01
726.871	96.65
727.054	97.08
727.237	96.98
727.42	96.57
727.603	96.55
727.786	96.57
727.968	96.35
728.151	96.07
728.334	96.98
728.517	97.26
728.699	98
728.882	97.27
729.065	97.34
729.248	97.24
729.43	98.12
729.613	97.88
729.796	98.98
729.978	99.3
730.161	98.85
730.343	98.09
730.526	98.12
730.708	97.85
730.891	98.12
731.073	98.7
731.256	98.52
731.438	99.17
731.621	99.37
731.803	99.7
731.986	100.31
732.168	101.25
732.35	101.37
732.533	101.68
732.715	101.76
732.898	101.23
733.08	100.53
733.262	100.38
733.444	100.69
733.627	100.61
733.809	101.18
733.991	101.11
734.173	101.08
734.355	100.95
734.538	101.01
734.72	100.76
734.902	101.34
735.084	100.96
735.266	101.42
735.448	102.28
735.63	102.42
735.812	102.42
735.994	102.43
736.176	102.04
736.358	101.5
736.54	102.73
736.722	102.69
736.904	102.99
737.086	103.03
737.268	103.49
737.45	102.95
737.632	103.09
737.814	103.52
737.995	104.12
738.177	104.41
738.359	103.84
738.541	103.87
738.723	103.92
738.904	103.7
739.086	103.12
739.268	103.76
739.449	104.33
739.631	104.79
739.813	104.38
739.994	103.55
740.176	103.26
740.358	103.08
740.539	102.86
740.721	103.19
740.902	103.99
741.084	104.2
741.265	104.49
741.447	105.22
741.628	105.01
741.81	105.58
741.991	105.15
742.172	104.23
742.354	103.4
742.535	104.27
742.717	103.31
742.898	102.73
743.079	104.04
743.261	103.98
743.442	102.21
743.623	102.67
743.804	103.17
743.986	103
744.167	102.55
744.348	102.73
744.529	102.43
744.71	101.99
744.891	101.19
745.073	102.01
745.254	102.98
745.435	103.36
745.616	103.16
745.797	103.59
745.978	103.33
746.159	103.1
746.34	104.08
746.521	104.58
746.702	104.45
746.883	103.65
747.064	103.87
747.245	103.23
747.426	103.75
747.606	103.85
747.787	105.24
747.968	104.58
748.149	104.58
748.33	103.54
748.51	102.74
748.691	102.14
748.872	103.64
749.053	103.26
749.233	103.27
749.414	104.22
749.595	103.9
749.775	101.27
749.956	100.46
750.137	102.03
750.317	101.01
750.498	101.53
750.678	102.41
750.859	103.86
751.04	102.84
751.22	101.98
751.4	101.24
751.581	102.72
751.761	102.7
751.942	102.87
752.122	102.35
752.303	102.39
752.483	100.82
752.663	100.33
752.844	100.41
753.024	103.02
753.204	103.69
753.385	104.17
753.565	103.36
753.745	103.21
753.925	100.79
754.106	100.43
754.286	99.93
754.466	101.1
754.646	100.58
754.826	104.32
755.006	103.7
755.187	105.8
755.367	104.53
755.547	105.46
755.727	102.42
755.907	102.61
756.087	100.57
756.267	99.8
756.447	100.1
756.627	101.02
756.807	101.93
756.987	102.25
757.167	103.22
757.346	101.31
757.526	101.42
757.706	100.54
757.886	101.09
758.066	103.31
758.246	104.46
758.425	103.8
758.605	103.28
758.785	102.61
758.965	101.49
759.144	99.81
759.324	100.72
759.504	102.56
759.683	101.55
759.863	100.6
760.043	101.74
760.222	101.61
760.402	99.17
760.581	100.35
760.761	100.09
760.94	101.01
761.12	100.23
761.299	102.55
761.479	102.43
761.658	102.56
761.838	102.1
762.017	102.7
762.197	99.99
762.376	99.87
762.555	100.29
762.735	99.87
762.914	99.44
763.093	100.72
763.273	100.37
763.452	100.02
763.631	98.36
763.81	98.11
763.99	97.09
764.169	96.95
764.348	96.89
764.527	98.14
764.706	97.01
764.885	97.78
765.064	98.8
765.243	97.41
765.423	98.14
765.602	99.23
765.781	96.77
765.96	95.83
766.139	95.47
766.318	95.65
766.497	94.39
766.676	94.88
766.854	94.9
767.033	96.59
767.212	97.37
767.391	99.54
767.57	103.23
767.749	102.45
767.928	102.22
768.106	99.31
768.285	97.48
768.464	95.19
768.643	96.14
768.821	95.23
769	95.68
769.179	96.79
769.357	97.01
769.536	96.1
769.715	95.66
769.893	96.27
770.072	94.19
770.25	92.84
770.429	94.02
770.607	96.34
770.786	96.46
770.964	100.47
771.143	104.04
771.321	100.45
771.5	98.67
771.678	98.3
771.857	95.28
772.035	93.53
772.213	95.09
772.392	93.61
772.57	94
772.748	93.51
772.927	93.37
773.105	93.65
773.283	96.22
773.461	96.15
773.64	95.81
773.818	95.71
773.996	96.1
774.174	96.01
774.352	96.54
774.531	96.4
774.709	96.64
774.887	94.46
775.065	93.54
775.243	92.1
775.421	94.17
775.599	94.93
775.777	96.58
775.955	94.92
776.133	93.99
776.311	92.82
776.489	92.86
776.667	93.05
776.844	93.81
777.022	93.86
777.2	93.43
777.378	90.7
777.556	91.98
777.734	92.77
777.911	94.87
778.089	97.57
778.267	99.39
778.445	100.15
778.622	100.24
778.8	96.72
778.978	95.04
779.155	94.43
779.333	94.4
779.511	94.01
779.688	93.53
779.866	93.14
780.043	93.83
780.221	92.8
780.398	92.6
780.576	94.23
780.753	94.12
780.931	94.58
781.108	95.09
781.286	95.93
781.463	96.56
781.64	94.43
781.818	95.51
781.995	91.97
782.172	89.44
782.35	89.77
782.527	91.44
782.704	88.49
782.882	87.94
783.059	88.77
783.236	89.35
783.413	89.6
783.59	91.1
783.768	91.95
783.945	92.48
784.122	91.98
784.299	91.7
784.476	86.99
784.653	87.63
784.83	83.97
785.007	82.85
785.184	82.33
785.361	84.65
785.538	83.23
785.715	88.58
785.892	89.34
786.069	90.4
786.246	90.44
786.423	91.8
786.6	88.73
786.776	89.38
786.953	86.82
787.13	87.53
787.307	86.18
787.484	84.12
787.66	84.62
787.837	85.66
788.014	87.58
788.191	89.47
788.367	91.03
788.544	88.76
788.721	87.42
788.897	87.67
789.074	91.65
789.25	92.1
789.427	93.19
789.603	93.55
789.78	90.02
789.956	84.07
790.133	83.44
790.309	84.91
790.486	83.19
790.662	84.16
790.839	85.39
791.015	88.77
791.192	84
791.368	89.16
791.544	89.8
791.721	88.21
791.897	83.21
792.073	85.65
792.249	81.81
792.426	79.08
792.602	82.01
792.778	81.03
792.954	82.89
793.13	83.02
793.307	85.85
793.483	83.25
793.659	84.71
793.835	83.95
794.011	89.1
794.187	90.88
794.363	89.09
794.539	90.03
794.715	88.33
794.891	84.95
795.067	81.96
795.243	80.38
795.419	81.78
795.595	85.81
795.771	85.01
795.947	81.55
796.122	82.11
796.298	80.6
796.474	81.96
796.65	84.2
796.826	86.13
797.001	89.49
797.177	84.49
797.353	78.34
797.529	76.18
797.704	78.76
797.88	79.9
798.056	82.98
798.231	83.36
798.407	82.56
798.582	83.02
798.758	84.77
798.934	85.66
799.109	84.61
799.285	86.82
799.46	82.11
799.636	76.71
799.811	82.51
799.986	83.13
800.162	79.12
800.337	86.46
800.513	89.36
800.688	78.42
800.863	84.61
801.039	90.92
801.214	83
801.389	79.7
801.565	84.86
801.74	76.08
801.915	73.42
802.09	73.29
802.265	75.92
802.441	75.48
802.616	77.47
802.791	74.59
802.966	78.42
803.141	80.83
803.316	83.52
803.491	82.96
803.666	88.49
803.841	87.1
804.016	81.07
804.191	77.5
804.366	78.44
804.541	76.58
804.716	74.8
804.891	83.03
805.066	88.28
805.241	87.93
805.416	89.08
805.591	91.64
805.765	95.29
805.94	84.29
806.115	88.6
806.29	88.41
806.464	88.54
806.639	81.38
806.814	85.51
806.989	82.96
807.163	87.04
807.338	86.13
807.512	85.38
807.687	87.56
807.862	87.97
808.036	87.4
808.211	87.1
808.385	89.39
808.56	88.45
808.734	77.84
808.909	76.41
809.083	75.26
809.258	78.19
809.432	72.34
809.606	86.45
809.781	82.26
809.955	82.79
810.13	68.72
810.304	72.08
810.478	67.72
810.652	63.5
810.827	67.78
811.001	75.63
811.175	77.27
811.349	83.18
811.524	92.76
811.698	86.86
811.872	88.39
812.046	86.95
812.22	81.97
812.394	75.51
812.568	79.18
812.742	74.15
812.916	81.96
813.09	80.52
813.264	78.54
813.438	75.66
813.612	78.15
813.786	72.82
813.96	79.09
814.134	82.97
814.308	87.73
814.482	96.22
814.656	95.93
814.83	90.99
815.003	86.02
815.177	80.46
815.351	80.09
815.525	78.33
815.698	71.03
815.872	70.94
816.046	70.82
816.219	62.33
816.393	63.17
816.567	70.45
816.74	70.47
816.914	76.34
817.088	80.91
817.261	79.34
817.435	80.84
817.608	78.13
817.782	69.9
817.955	61.67
818.129	63.34
818.302	64.52
818.475	71.69
818.649	71.68
818.822	71.64
818.996	78.77
819.169	77.29
819.342	70
819.516	78.03
819.689	76
819.862	70.78
820.035	80.28
820.209	83.46
820.382	72.69
820.555	76.84
820.728	84.26
820.901	60.79
821.075	60.06
821.248	62.33
821.421	68.62
821.594	59.43
821.767	73.38
821.94	67.3
822.113	73.24
822.286	69.8
822.459	73.56
822.632	78.06
822.805	92.88
822.978	91.49
823.151	84.44
823.324	68.19
823.496	57.01
823.669	54.23
823.842	58.39
824.015	71.57
824.188	76.09
824.361	79.43
824.533	77.45
824.706	70.75
824.879	77.49
825.051	98.54
825.224	96.89
825.397	94.53
825.569	88.4
825.742	75.89
825.915	64.65
826.087	50.02
826.26	50.08
826.432	52.05
826.605	52.48
826.777	47.56
826.95	67.33
827.122	60.49
827.295	76.97
827.467	87.56
827.64	82.75
827.812	61.1
827.984	69.91
828.157	63.85
828.329	68.75
828.501	76.53
828.674	84.61
828.846	85.37
829.018	78.45
829.19	67.7
829.363	66.53
829.535	62.32
829.707	54.2
829.879	48.45
830.051	46.9
830.223	42.8
830.395	44.64
830.568	57.19
830.74	63.92
830.912	77.78
831.084	87.55
831.256	83.11
831.428	78.73
831.6	67.34
831.772	33.21
831.943	18.79
832.115	21.33
832.287	11.38
832.459	31.2
832.631	51.11
832.803	53.47
832.975	59.79
833.146	62.3
833.318	58.08
833.49	54.73
833.662	62.48
833.833	50.78
834.005	55.22
834.177	69.99
834.348	68.08
834.52	55.74
834.692	36.53
834.863	41.41
835.035	33.66
835.206	34.5
835.378	49.76
835.549	71.04
835.721	64.24
835.892	63.05
836.064	67.74
836.235	63.29
836.407	56.94
836.578	55.74
836.749	50.53
836.921	47.52
837.092	31.58
837.264	35.44
837.435	26.04
837.606	23.63
837.777	24.49
837.949	45.04
838.12	43.15
838.291	49.79
838.462	60.37
838.633	63.94
838.805	40.5
838.976	49.78
839.147	48.99
839.318	49.57
839.489	38.56
839.66	69.95
839.831	69.88
840.002	73.14
840.173	77.68
840.344	80.54
840.515	54.71
840.686	56.1
840.857	49.42
841.028	39.05
841.199	48.75
841.369	49.39
841.54	27.45
841.711	48.17
841.882	70.2
842.053	58.27
842.223	67.57
842.394	66.72
842.565	62.46
842.736	53.32
842.906	42.3
843.077	61.33
843.248	70.02
843.418	55
843.589	63.88
843.759	84.13
843.93	81.22
844.101	77.14
844.271	112.89
844.442	80.98
844.612	53.34
844.783	48.67
844.953	48.71
845.123	29.25
845.294	53.36
845.464	68.96
845.635	69.62
845.805	68.79
845.975	113.45
846.146	66.21
846.316	45.31
846.486	53.89
846.656	57.38
846.827	45.21
846.997	53.35
847.167	51.71
847.337	33.11
847.507	36.48
847.677	28.04
847.848	38.42
848.018	56.14
848.188	76.49
848.358	51.89
848.528	63.06
848.698	37.91
848.868	24.93
849.038	4.13
849.208	36.93
849.378	29.32
849.548	30.37
849.718	19.24
849.887	58.2
850.057	38.12
850.227	98.54
850.397	82.52
850.567	77.96
850.737	67.62
850.906	61.36
851.076	18.16
851.246	44.29
851.415	54.93
851.585	70.72
851.755	68.07
851.924	68.31
852.094	74.81
852.264	53.89
852.433	41.16
852.603	43.86
852.772	46.85
852.942	43.37
853.111	45.02
853.281	47.28
853.45	39.56
853.62	44.65
853.789	13.54
853.959	19.01
854.128	36.28
854.297	42.53
854.467	36.36
854.636	56.4
854.805	71.27
854.975	62.47
855.144	58.22
855.313	92.52
855.482	51.6
855.652	37.03
855.821	33.82
855.99	26.72
856.159	26.17
856.328	35.21
856.497	52.23
856.667	32.42
856.836	73.62
857.005	61.77
857.174	65.91
857.343	52.58
857.512	66.82
857.681	28.41
857.85	7.13
858.019	-18.73
858.188	-6.72
858.356	-7.54
858.525	-6.96
858.694	25.31
858.863	22.83
859.032	17.99
859.201	5.63
859.369	38.47
859.538	16.62
859.707	38.06
859.876	55.65
860.044	79.39
860.213	90.11
860.382	113.77
860.55	80.61
860.719	88.74
860.888	58.58
861.056	15.48
861.225	-38.41
861.393	-0.44
861.562	-22.6
861.73	-9.73
861.899	17.48
862.067	35.78
862.236	21.15
862.404	36.07
862.572	44.55
862.741	36.97
862.909	41.11
863.078	40.54
863.246	20.01
863.414	37.36
863.582	24.47
863.751	28.01
863.919	48.59
864.087	56.27
864.255	52.98
864.424	41.26
864.592	43.84
864.76	24.24
864.928	27.47
865.096	32.72
865.264	38.27
865.432	32.17
865.6	79.92
865.768	77.02
865.936	65.27
866.104	89.87
866.272	95.52
866.44	18.82
866.608	31.93
866.776	12.03
866.944	43.52
867.112	63.93
867.28	60.48
867.448	68.37
867.615	62.37
867.783	25.81
867.951	10.64
868.119	24.68
868.286	-11.11
868.454	22.8
868.622	27.07
868.789	20.07
868.957	20.95
869.125	16.19
869.292	-21.12
869.46	-8.72
869.627	1.57
869.795	-2.89
869.963	18.85
870.13	46.57
870.298	80.08
870.465	66.17
870.632	37.41
870.8	34.2
870.967	44.54
871.135	18.15
871.302	18.99
871.469	47.18
871.637	81.27
871.804	46.72
871.971	50.76
872.139	42.21
872.306	0.66
872.473	-22.4
872.64	-88.48
872.807	-98.71
872.975	-204.72
873.142	-38.54
873.309	-10.04
873.476	42.53
873.643	61.62
873.81	24.62
873.977	18.39
874.144	-3.74
874.311	-56.05
874.478	-68.46
874.645	-56.49
874.812	1.74
874.979	-23.66
875.146	-65.2
875.313	-26.27
875.48	35.9
875.647	4.37
875.813	-2.74
875.98	16.04
876.147	-25.59
876.314	-82.01
876.481	-66.19
876.647	-19.12
876.814	-21.82
876.981	-27.38
877.147	-31.25
877.314	-17.64
877.481	-14.3
877.647	-7.63
877.814	13.33
877.98	42.97
878.147	65.73
878.314	80.29
878.48	113.45
878.647	118.64
878.813	107.48
878.979	74.68
879.146	43.81
879.312	57.22
879.479	20.78
879.645	28.79
879.811	18.16
879.978	30.8
880.144	9.22
880.31	7.73
880.477	4.04
880.643	10.21
880.809	-14.62
880.975	-12.62
881.142	-38.58
881.308	237.95
881.474	522.48
881.64	-116.06
881.806	-146.98
881.972	-115.34
882.138	-34.91
882.304	-3.47
882.47	15.47
882.636	-0.12
882.802	16.85
882.968	42.36
883.134	33.32
883.3	17.47
883.466	80.47
883.632	102.27
883.798	89.72
883.964	53.29
884.129	34.93
884.295	103.11
884.461	36.67
884.627	17.85
884.793	-14.79
884.958	23.29
885.124	-25.8
885.29	-44.91
885.455	-88.29
885.621	-18.42
885.787	-19.77
885.952	6.15
886.118	31.81
886.283	42.46
886.449	36.61
886.614	21.56
886.78	9.93
886.945	-8.64
887.111	-15.18
887.276	-0.58
887.442	26.36
887.607	4.31
887.773	36.5
887.938	28.15
888.103	11.14
888.269	28.66
888.434	38.34
888.599	19.2
888.764	45.04
888.93	61.97
889.095	40.13
889.26	38.29
889.425	48.24
889.59	103.55
889.756	82.36
889.921	67.81
890.086	137.33
890.251	199.54
890.416	65.26
890.581	45.61
890.746	82.6
890.911	61.37
891.076	41.57
891.241	26.08
891.406	34.78
891.571	51.64
891.736	-77.47
891.901	43.55
892.065	49.87
892.23	74.31
892.395	47.79
892.56	71.61
892.725	143.99
892.889	365.74
893.054	184.41
893.219	119.83
893.384	122.14
893.548	-14.59
893.713	-95.31
893.878	-208.18
