Data from Ofra_1a_PS_4HS15_Reflection_2.txt Node
Date: Tue Jul 20 10:57:22 EDT 2021
User: Adam
Spectrometer: FLMT01687
Trigger mode: 0
Integration Time (sec): 1.004000E0
Scans to average: 2
Electric dark correction enabled: true
Nonlinearity correction enabled: false
Boxcar width: 2
XAxis mode: Wavelengths
Number of Pixels in Spectrum: 3648
>>>>>Begin Spectral Data<<<<<
179.494	-208.63
179.716	-373.28
179.937	803.68
180.158	-1293.63
180.38	211.4
180.601	154.91
180.823	142.33
181.044	93.44
181.265	109.55
181.486	110.69
181.708	122.88
181.929	-8590.91
182.15	-85.05
182.372	-223.15
182.593	-29.25
182.814	-128.86
183.035	26.11
183.257	95.2
183.478	40.03
183.699	10.22
183.92	6.42
184.141	-28.35
184.363	-45.73
184.584	-78.43
184.805	-32.14
185.026	-2.34
185.247	3.62
185.468	-21.68
185.689	6.08
185.91	-46.53
186.132	-7.96
186.353	-0.76
186.574	6.96
186.795	7.47
187.016	55.86
187.237	32.97
187.458	20.93
187.679	36.62
187.9	56.15
188.121	65.54
188.342	75.69
188.563	90.23
188.784	86.04
189.005	53.08
189.226	35.68
189.447	26.42
189.667	12.88
189.888	-22.7
190.109	-21.36
190.33	-5.23
190.551	-15.03
190.772	-15.86
190.993	11.37
191.214	-6.85
191.434	-10.84
191.655	45.04
191.876	81.49
192.097	91.15
192.318	65.3
192.538	51.34
192.759	37.61
192.98	38.12
193.201	18.43
193.421	20.85
193.642	32.53
193.863	28.95
194.083	23.73
194.304	56.68
194.525	42.46
194.745	26.16
194.966	21.55
195.187	17.97
195.407	-5.7
195.628	12.12
195.848	25.95
196.069	27.56
196.29	17.92
196.51	18.14
196.731	-6.63
196.951	-49.92
197.172	-48.33
197.392	-63.97
197.613	-25.45
197.833	-20.55
198.054	-8.69
198.274	-3.32
198.495	4.52
198.715	-1.57
198.936	6.4
199.156	19.95
199.377	6.58
199.597	19.23
199.817	5.38
200.038	-2.93
200.258	12.42
200.479	39.64
200.699	26.98
200.919	16.31
201.14	21.45
201.36	17.23
201.58	-10.63
201.801	2.74
202.021	9.53
202.241	-9.66
202.461	-27.81
202.682	-1.88
202.902	2.25
203.122	35.84
203.342	51.33
203.563	45.49
203.783	44.33
204.003	41.43
204.223	19.56
204.443	8.55
204.663	1.61
204.884	-42.6
205.104	-45.49
205.324	-42.72
205.544	-91.64
205.764	-24.93
205.984	14.07
206.204	24.59
206.424	5.81
206.644	39.25
206.864	5.19
207.084	19.73
207.304	-0.6
207.525	-0.55
207.745	19.95
207.964	23.01
208.184	20.2
208.404	27.15
208.624	44.66
208.844	31.27
209.064	29.48
209.284	27.41
209.504	31.86
209.724	-0.69
209.944	-18.19
210.164	-4.76
210.384	-33.57
210.604	-81.71
210.823	-80.3
211.043	-26.06
211.263	-105.11
211.483	-61
211.703	-33.56
211.922	-30.07
212.142	-32.98
212.362	1.9
212.582	-2.39
212.801	1.72
213.021	-6.8
213.241	-19.38
213.461	-19.45
213.68	13.66
213.9	4.36
214.12	4.9
214.339	14.29
214.559	18.91
214.779	4.89
214.998	9.94
215.218	34.48
215.438	31.06
215.657	30.76
215.877	16.41
216.096	39.78
216.316	20.33
216.535	8.4
216.755	11.8
216.974	14.23
217.194	-8.13
217.413	5.58
217.633	4.73
217.852	-4.89
218.072	-4.95
218.291	-8.66
218.511	-17.35
218.73	-22.06
218.95	-38.06
219.169	-28.43
219.389	-8.31
219.608	-8.96
219.827	7.27
220.047	22.4
220.266	5.52
220.485	-11.12
220.705	2.63
220.924	-0.1
221.143	8.47
221.363	25.76
221.582	25.05
221.801	24.14
222.021	34.66
222.24	34.38
222.459	48.9
222.678	49.95
222.897	42.24
223.117	54.93
223.336	63.81
223.555	62.84
223.774	84.92
223.993	101.9
224.213	68.38
224.432	50.4
224.651	38.09
224.87	28.55
225.089	27.42
225.308	41.83
225.527	27.62
225.746	19.3
225.965	0.97
226.184	-3.85
226.404	-20.7
226.623	-2.95
226.842	-3.79
227.061	-0.04
227.28	9.47
227.499	21.18
227.718	17.53
227.936	33.01
228.155	31.2
228.374	19.86
228.593	19.56
228.812	27.45
229.031	19.49
229.25	11.14
229.469	26.42
229.688	8.14
229.907	15.85
230.125	21.32
230.344	35.83
230.563	25.34
230.782	32.65
231.001	33.95
231.22	36.94
231.438	38.33
231.657	43.55
231.876	34.17
232.095	26.95
232.313	9.9
232.532	1.31
232.751	-15.62
232.969	-2
233.188	-4.31
233.407	13.36
233.625	15.72
233.844	15.92
234.063	8.02
234.281	17.54
234.5	3.96
234.719	-3.91
234.937	-18.48
235.156	-25.86
235.374	-36.99
235.593	-30.05
235.811	5.19
236.03	20.33
236.249	27.98
236.467	32.03
236.686	29.21
236.904	15.45
237.123	9.41
237.341	8.84
237.559	1.34
237.778	12.7
237.996	-33.01
238.215	-60.17
238.433	-137.33
238.652	-72.38
238.87	-83.77
239.088	-81.74
239.307	-40.45
239.525	-12.2
239.743	-21.66
239.962	-32.06
240.18	0.46
240.398	0.54
240.617	-21.6
240.835	16.02
241.053	30.6
241.271	25.46
241.49	17.66
241.708	16.23
241.926	-5.83
242.144	-11.87
242.363	-5
242.581	-12.73
242.799	-29.71
243.017	-18.32
243.235	-11.88
243.453	-29.41
243.672	-0.06
243.89	20.85
244.108	26.7
244.326	33.71
244.544	31.87
244.762	20.35
244.98	23.43
245.198	20.6
245.416	14.54
245.634	16.94
245.852	-10.76
246.07	0.46
246.288	5.39
246.506	-1.31
246.724	-4.12
246.942	14.76
247.16	4.06
247.378	-4.44
247.596	12.14
247.814	-4.36
248.032	9.71
248.25	36.25
248.468	25.53
248.685	20.16
248.903	30.96
249.121	31.11
249.339	16.79
249.557	22.79
249.775	32.16
249.992	28.7
250.21	19.04
250.428	31.06
250.646	34.14
250.863	15.73
251.081	22.6
251.299	36.72
251.517	32.07
251.734	10.08
251.952	12.44
252.17	4.17
252.387	-10.39
252.605	-11.31
252.823	-3.97
253.04	41.61
253.258	30.49
253.475	43.81
253.693	44.73
253.911	10.59
254.128	3.17
254.346	19.88
254.563	18.01
254.781	21.02
254.998	42.48
255.216	9.05
255.433	-11.03
255.651	-20.36
255.868	-30.35
256.086	-17.32
256.303	-7.02
256.521	-1.22
256.738	-11.32
256.956	5.9
257.173	3.92
257.39	21.01
257.608	16.83
257.825	36.95
258.043	37.77
258.26	45.5
258.477	27.54
258.695	25.53
258.912	-1.21
259.129	-19.26
259.346	-54.78
259.564	-35.68
259.781	-33.97
259.998	5
260.216	10.06
260.433	23.88
260.65	23.08
260.867	17.29
261.084	18.17
261.302	19.89
261.519	7.12
261.736	-4.16
261.953	-1.35
262.17	4.8
262.387	-6.79
262.604	-8.66
262.822	-0.54
263.039	5.42
263.256	-4.37
263.473	9.24
263.69	13.5
263.907	22.79
264.124	29.06
264.341	29.57
264.558	19.96
264.775	31.85
264.992	17
265.209	5.69
265.426	-4.48
265.643	-2.54
265.86	-25.43
266.077	-13.79
266.294	-0.86
266.51	18.25
266.727	12.01
266.944	18.99
267.161	27.56
267.378	32.58
267.595	19.07
267.812	23.11
268.028	-2.14
268.245	-7.18
268.462	-21.66
268.679	5.1
268.896	32.05
269.112	45.12
269.329	24.44
269.546	45.3
269.763	8.15
269.979	-13
270.196	-9.19
270.413	2.45
270.629	-17.49
270.846	5.51
271.063	6.3
271.279	10.77
271.496	12.63
271.712	29.36
271.929	22.27
272.146	26.59
272.362	27.25
272.579	11.93
272.795	-2.76
273.012	10.49
273.228	11.51
273.445	12.25
273.661	27.55
273.878	28.29
274.094	7.31
274.311	-11.66
274.527	-31.98
274.744	-21.25
274.96	-1.7
275.177	8.61
275.393	20.16
275.609	36.46
275.826	29.71
276.042	25.21
276.259	18.31
276.475	33.23
276.691	9.89
276.908	11.99
277.124	13.63
277.34	8.35
277.557	-14.07
277.773	-15.25
277.989	-15
278.205	-6.11
278.422	-11.19
278.638	-2.3
278.854	-6.37
279.07	2.1
279.286	-0.36
279.503	19.79
279.719	15.2
279.935	29.15
280.151	22.43
280.367	22.73
280.583	5.03
280.799	6.78
281.016	-25.75
281.232	-13.37
281.448	-22.75
281.664	2.45
281.88	13.02
282.096	22.52
282.312	20.69
282.528	34.68
282.744	38.12
282.96	27.36
283.176	29.24
283.392	-5.54
283.608	-33.92
283.824	-79.52
284.04	-126.01
284.256	-72.9
284.471	-24.87
284.687	-14.65
284.903	0.95
285.119	36.72
285.335	41.6
285.551	31.81
285.767	27.51
285.982	26.04
286.198	-31.33
286.414	-50.56
286.63	-84.12
286.846	-69.56
287.061	-48.19
287.277	-23.68
287.493	-29.44
287.709	24.05
287.924	43.92
288.14	49.07
288.356	47.42
288.571	67.1
288.787	32.52
289.003	34.84
289.218	5.22
289.434	-8.77
289.65	-11.24
289.865	-4.68
290.081	-6.48
290.296	12.33
290.512	11.92
290.727	3.56
290.943	12.44
291.159	5.89
291.374	-14.74
291.59	-5.89
291.805	-5.96
292.021	-6.73
292.236	-9.86
292.451	-8.36
292.667	3.3
292.882	2.48
293.098	-4.39
293.313	-5.44
293.529	1.32
293.744	-22.62
293.959	-20.37
294.175	-7.47
294.39	-18.77
294.605	5.98
294.821	11.53
295.036	16.72
295.251	14.12
295.467	14.63
295.682	-2.93
295.897	-10.92
296.112	-27.06
296.328	-24.33
296.543	-41.67
296.758	-27.48
296.973	-10.84
297.188	1.76
297.404	-17.45
297.619	6.99
297.834	-32.42
298.049	-16.21
298.264	-20.96
298.479	-3.22
298.694	30.6
298.909	44.54
299.125	31.73
299.34	31.35
299.555	29.65
299.77	21.35
299.985	9.48
300.2	17.97
300.415	23.6
300.63	28
300.845	20.26
301.06	26.17
301.275	16.29
301.49	18.3
301.704	23.34
301.919	14.54
302.134	13.51
302.349	12.56
302.564	2.53
302.779	-10.45
302.994	12.52
303.209	15.76
303.423	24.74
303.638	26.28
303.853	2.18
304.068	-18.69
304.283	-7.93
304.497	-20.51
304.712	-0.6
304.927	26.77
305.142	30.27
305.356	24.27
305.571	23.92
305.786	17.54
306	0.86
306.215	-7.66
306.43	-8.97
306.644	-4.65
306.859	-22.73
307.074	5.02
307.288	17.02
307.503	29.72
307.717	12.31
307.932	21.4
308.147	7.36
308.361	6.28
308.576	-8.12
308.79	2.07
309.005	6.98
309.219	21.08
309.434	9.84
309.648	18.35
309.863	20.26
310.077	11.45
310.292	13.03
310.506	5.12
310.72	-13.26
310.935	1.44
311.149	-1
311.364	-7.16
311.578	15.51
311.792	10.61
312.007	11.29
312.221	8.14
312.435	-0.43
312.649	-3.63
312.864	-23.71
313.078	-27.8
313.292	-37.18
313.507	-34.39
313.721	-29.58
313.935	3.48
314.149	3.72
314.363	30.4
314.578	22.19
314.792	3.08
315.006	-3.37
315.22	-5.68
315.434	-7.2
315.648	-10.65
315.862	3.86
316.077	7.35
316.291	24.42
316.505	3.23
316.719	20.41
316.933	8.89
317.147	4.19
317.361	-8.09
317.575	4.57
317.789	2.18
318.003	2.77
318.217	7.39
318.431	-4.44
318.645	-6.3
318.859	2.07
319.073	6.41
319.287	3.18
319.5	9.04
319.714	6.21
319.928	-1.86
320.142	-12.75
320.356	-16.87
320.57	-24.07
320.784	-12.21
320.997	-26.84
321.211	8.86
321.425	4.64
321.639	28.08
321.853	40.35
322.066	44.89
322.28	29.19
322.494	34.7
322.707	20.46
322.921	5.51
323.135	12.66
323.349	22.26
323.562	17.22
323.776	18.54
323.989	21.71
324.203	0.73
324.417	2.74
324.63	-6.41
324.844	-20.8
325.057	-31.04
325.271	-5.86
325.485	-21.06
325.698	10.86
325.912	27.61
326.125	10.13
326.339	3.73
326.552	-2.79
326.766	-37.8
326.979	-29.69
327.193	-20.08
327.406	-18.57
327.619	-11.41
327.833	-1.53
328.046	-4.69
328.26	-4.82
328.473	-0.71
328.686	7.69
328.9	16.31
329.113	16.1
329.326	16.96
329.54	15.53
329.753	18.72
329.966	23.49
330.179	18.93
330.393	25.63
330.606	26.17
330.819	14.29
331.032	7.45
331.246	7.8
331.459	12.88
331.672	12.75
331.885	10.95
332.098	10.05
332.311	6.84
332.525	12.37
332.738	16.69
332.951	15.96
333.164	19.59
333.377	24.8
333.59	4.42
333.803	-0.55
334.016	0.43
334.229	-0.66
334.442	-10.93
334.655	-1.24
334.868	4.44
335.081	6.32
335.294	-10.54
335.507	1.66
335.72	6.49
335.933	-5.68
336.146	-5.03
336.359	25.71
336.572	23.38
336.785	16.5
336.997	15.29
337.21	29.42
337.423	-24.93
337.636	-21.38
337.849	-14.22
338.062	3.51
338.274	13.36
338.487	17.63
338.7	16
338.913	23.4
339.125	-5.21
339.338	-6.84
339.551	16.02
339.763	11.16
339.976	5.02
340.189	19.58
340.402	32.03
340.614	14.12
340.827	26.9
341.039	40.09
341.252	39.89
341.465	20.52
341.677	29.49
341.89	24.26
342.102	26.36
342.315	27.45
342.527	33.5
342.74	22
342.952	14.48
343.165	-0.78
343.377	5.9
343.59	-9.2
343.802	1.33
344.015	18.77
344.227	19.73
344.44	11.34
344.652	21.25
344.864	17.19
345.077	11.39
345.289	14.41
345.502	23.49
345.714	21.31
345.926	17.13
346.139	5.86
346.351	1.84
346.563	-0.23
346.775	15.69
346.988	22.44
347.2	27.9
347.412	39.7
347.624	35.54
347.837	28.71
348.049	26.13
348.261	17.22
348.473	-3.64
348.685	-12.5
348.897	-17.62
349.11	2.35
349.322	15.87
349.534	21.84
349.746	30.81
349.958	18.92
350.17	-7.11
350.382	-17.68
350.594	0.47
350.806	7.47
351.018	16.68
351.23	17.06
351.442	27.19
351.654	22.65
351.866	8.48
352.078	5.73
352.29	6.18
352.502	0.43
352.714	-0.62
352.926	21.62
353.138	26.2
353.35	23.53
353.561	25.42
353.773	21.59
353.985	27.02
354.197	18.76
354.409	17.75
354.621	-3.36
354.832	-8.84
355.044	-42.85
355.256	-53.25
355.468	-53.33
355.679	-2.67
355.891	6.53
356.103	15.85
356.314	24.67
356.526	20.95
356.738	8.16
356.949	0.27
357.161	21.32
357.373	19.38
357.584	21.38
357.796	22.61
358.008	30.01
358.219	14.58
358.431	6.31
358.642	3.86
358.854	13.24
359.065	-1.12
359.277	1.64
359.488	6.28
359.7	7.44
359.911	-17.58
360.123	0.74
360.334	-4.9
360.546	-10.2
360.757	-5.09
360.969	14.77
361.18	12.58
361.391	27.34
361.603	28.46
361.814	37.01
362.025	39.6
362.237	31.76
362.448	31.8
362.659	34.6
362.871	29.62
363.082	5.81
363.293	6.27
363.504	-20.87
363.716	-24.73
363.927	-12.05
364.138	-37.19
364.349	-41.85
364.56	-46.55
364.772	-25.17
364.983	-7.21
365.194	16.02
365.405	21.28
365.616	39.13
365.827	30.16
366.038	35.73
366.25	40.42
366.461	39.01
366.672	26.05
366.883	18.93
367.094	0.7
367.305	-24.92
367.516	-28.78
367.727	-29.4
367.938	-26.88
368.149	-30.05
368.36	-25.2
368.571	-27.63
368.781	-31.06
368.992	-29.44
369.203	-26.17
369.414	-10.07
369.625	-3.64
369.836	17.97
370.047	27.99
370.258	43.98
370.468	20.68
370.679	15.84
370.89	-1.2
371.101	16.47
371.312	-9.11
371.522	-9.75
371.733	-13.68
371.944	-32.16
372.155	-45.44
372.365	-32.58
372.576	-9.99
372.787	11.36
372.997	20.17
373.208	9.99
373.419	12.41
373.629	-7.74
373.84	-20.87
374.05	-18.45
374.261	-24.71
374.472	-28.65
374.682	-17.31
374.893	-26.06
375.103	-9.75
375.314	-2.98
375.524	1.79
375.735	9.04
375.945	23.19
376.156	12.38
376.366	15.44
376.577	14.02
376.787	12.85
376.997	12.18
377.208	16.67
377.418	11.99
377.629	12.71
377.839	11.97
378.049	7.04
378.26	-3.13
378.47	-4.6
378.68	0.19
378.89	-0.69
379.101	5.89
379.311	12.98
379.521	8.74
379.732	10.77
379.942	3.79
380.152	-5.49
380.362	-6.21
380.572	7.13
380.783	8.05
380.993	20.25
381.203	18.21
381.413	20.34
381.623	20.81
381.833	25.65
382.043	19.73
382.253	24.92
382.463	25.83
382.674	23.69
382.884	17.76
383.094	18.99
383.304	16.05
383.514	12.99
383.724	7.21
383.934	-0.76
384.144	-3.6
384.353	-0.55
384.563	3.58
384.773	3.55
384.983	12.11
385.193	10.82
385.403	7.06
385.613	3.95
385.823	4.26
386.033	-1.23
386.242	-0.85
386.452	2.73
386.662	2.9
386.872	10.13
387.082	7.26
387.291	7.14
387.501	4.7
387.711	6.93
387.921	2.07
388.13	6.58
388.34	9.05
388.55	4.27
388.759	-1.8
388.969	-3.86
389.179	-7.04
389.388	-11.71
389.598	-5.83
389.807	-7.54
390.017	-4.71
390.227	-4.98
390.436	0.27
390.646	-2.68
390.855	0.82
391.065	1.22
391.274	2.18
391.484	0.5
391.693	2.73
391.903	2.97
392.112	3.82
392.322	2.48
392.531	1.94
392.74	2.05
392.95	1.62
393.159	-0.89
393.369	1.02
393.578	1.82
393.787	0.6
393.997	1.8
394.206	2.38
394.415	3.1
394.625	2.8
394.834	3.35
395.043	3.56
395.252	5.48
395.462	6.09
395.671	6.54
395.88	7.89
396.089	6.86
396.298	4.97
396.508	3.81
396.717	3.39
396.926	2.75
397.135	3.42
397.344	3.39
397.553	2.89
397.762	3.65
397.971	3.46
398.181	3.3
398.39	3.68
398.599	4.34
398.808	4.31
399.017	4.74
399.226	4.94
399.435	4.83
399.644	5.39
399.853	5.27
400.062	4.73
400.27	4.4
400.479	4.5
400.688	4.28
400.897	4.09
401.106	4.33
401.315	4.35
401.524	4.52
401.733	4.22
401.941	4.09
402.15	3.98
402.359	3.93
402.568	4.04
402.777	4.41
402.985	4.42
403.194	4.6
403.403	4.83
403.612	4.49
403.82	3.9
404.029	4.06
404.238	3.97
404.446	4.18
404.655	4.29
404.864	4.43
405.072	4.32
405.281	4.15
405.489	3.71
405.698	3.84
405.906	3.87
406.115	3.85
406.324	3.91
406.532	4.2
406.741	4.12
406.949	4.22
407.158	4.35
407.366	4.34
407.574	4.34
407.783	4.31
407.991	4.16
408.2	4.18
408.408	4.2
408.617	3.97
408.825	3.87
409.033	3.97
409.242	3.91
409.45	3.9
409.658	3.88
409.867	4.02
410.075	4
410.283	3.75
410.491	3.55
410.7	3.53
410.908	3.5
411.116	3.55
411.324	3.68
411.533	3.85
411.741	3.9
411.949	3.82
412.157	3.64
412.365	3.69
412.573	3.55
412.781	3.52
412.99	3.62
413.198	3.7
413.406	3.76
413.614	3.84
413.822	3.9
414.03	3.83
414.238	3.92
414.446	3.8
414.654	3.76
414.862	3.82
415.07	3.74
415.278	3.57
415.486	3.45
415.694	3.47
415.902	3.36
416.109	3.34
416.317	3.41
416.525	3.4
416.733	3.39
416.941	3.46
417.149	3.41
417.357	3.37
417.564	3.49
417.772	3.41
417.98	3.29
418.188	3.2
418.395	3.09
418.603	2.91
418.811	2.89
419.019	2.84
419.226	3.03
419.434	3.13
419.642	3.19
419.849	3.15
420.057	3.27
420.265	3.2
420.472	3.18
420.68	3.25
420.887	3.41
421.095	3.43
421.302	3.39
421.51	3.48
421.717	3.44
421.925	3.38
422.132	3.22
422.34	3.07
422.547	2.85
422.755	2.88
422.962	2.92
423.17	2.78
423.377	2.95
423.585	3.09
423.792	3.04
423.999	2.98
424.207	3.01
424.414	2.94
424.621	2.92
424.829	2.96
425.036	3.03
425.243	3.2
425.451	3.29
425.658	3.24
425.865	3.36
426.072	3.32
426.28	3.33
426.487	3.35
426.694	3.32
426.901	3.29
427.108	3.21
427.315	3.1
427.523	2.99
427.73	3.14
427.937	2.95
428.144	2.99
428.351	2.86
428.558	3.06
428.765	2.98
428.972	3.1
429.179	2.96
429.386	3.18
429.593	2.98
429.8	2.89
430.007	2.95
430.214	3.05
430.421	3.19
430.628	3.2
430.835	3.24
431.042	3.07
431.249	3.18
431.456	3.06
431.662	3.22
431.869	3.37
432.076	3.51
432.283	3.61
432.49	3.65
432.697	3.58
432.903	3.45
433.11	3.5
433.317	3.39
433.524	3.41
433.73	3.33
433.937	3.5
434.144	3.46
434.35	3.41
434.557	3.43
434.764	3.5
434.97	3.32
435.177	3.34
435.384	3.37
435.59	3.36
435.797	3.35
436.003	3.47
436.21	3.37
436.416	3.5
436.623	3.58
436.829	3.5
437.036	3.54
437.242	3.71
437.449	3.65
437.655	3.71
437.862	3.82
438.068	3.73
438.275	3.72
438.481	3.77
438.687	3.62
438.894	3.78
439.1	3.82
439.307	3.91
439.513	3.92
439.719	4.02
439.926	3.99
440.132	4.08
440.338	4.04
440.544	4.06
440.751	3.97
440.957	3.91
441.163	3.8
441.369	3.71
441.575	3.61
441.782	3.79
441.988	3.81
442.194	3.89
442.4	3.91
442.606	4.04
442.812	3.9
443.018	3.92
443.224	4.02
443.431	4.1
443.637	4.1
443.843	4.13
444.049	4.19
444.255	4.22
444.461	4.14
444.667	4.16
444.873	4.26
445.079	4.22
445.284	4.08
445.49	4.15
445.696	4.07
445.902	4
446.108	4.02
446.314	4.14
446.52	4.23
446.726	4.28
446.931	4.27
447.137	4.27
447.343	4.29
447.549	4.24
447.755	4.26
447.96	4.31
448.166	4.29
448.372	4.27
448.578	4.25
448.783	4.24
448.989	4.24
449.195	4.31
449.4	4.36
449.606	4.38
449.812	4.42
450.017	4.48
450.223	4.37
450.428	4.36
450.634	4.37
450.84	4.36
451.045	4.35
451.251	4.48
451.456	4.42
451.662	4.45
451.867	4.51
452.073	4.55
452.278	4.56
452.483	4.61
452.689	4.69
452.894	4.69
453.1	4.61
453.305	4.6
453.51	4.68
453.716	4.63
453.921	4.71
454.127	4.74
454.332	4.72
454.537	4.65
454.742	4.69
454.948	4.57
455.153	4.62
455.358	4.59
455.563	4.72
455.769	4.61
455.974	4.7
456.179	4.59
456.384	4.61
456.589	4.47
456.795	4.42
457	4.36
457.205	4.45
457.41	4.43
457.615	4.46
457.82	4.65
458.025	4.66
458.23	4.64
458.435	4.73
458.64	4.74
458.845	4.71
459.05	4.8
459.255	4.84
459.46	4.78
459.665	4.82
459.87	4.77
460.075	4.83
460.28	4.89
460.485	4.98
460.69	4.9
460.895	4.93
461.099	4.79
461.304	4.75
461.509	4.77
461.714	4.95
461.919	4.9
462.123	5.01
462.328	4.96
462.533	4.91
462.738	4.77
462.942	4.83
463.147	4.78
463.352	4.94
463.556	5.06
463.761	5.1
463.966	5.13
464.17	5.21
464.375	5.28
464.58	5.16
464.784	5.24
464.989	5.29
465.193	5.29
465.398	5.22
465.602	5.34
465.807	5.29
466.011	5.25
466.216	5.18
466.42	5.23
466.625	5.33
466.829	5.42
467.034	5.52
467.238	5.62
467.443	5.59
467.647	5.47
467.851	5.48
468.056	5.46
468.26	5.51
468.464	5.55
468.669	5.57
468.873	5.59
469.077	5.51
469.282	5.45
469.486	5.33
469.69	5.3
469.894	5.36
470.099	5.39
470.303	5.43
470.507	5.61
470.711	5.63
470.915	5.57
471.119	5.67
471.324	5.74
471.528	5.75
471.732	5.86
471.936	5.93
472.14	5.9
472.344	5.89
472.548	5.83
472.752	5.79
472.956	5.84
473.16	5.89
473.364	5.88
473.568	5.81
473.772	5.9
473.976	5.89
474.18	5.91
474.384	5.86
474.588	5.98
474.792	5.87
474.995	5.85
475.199	5.83
475.403	5.93
475.607	5.96
475.811	6.06
476.015	5.99
476.218	5.94
476.422	5.95
476.626	5.99
476.83	6.03
477.033	6.17
477.237	6.32
477.441	6.28
477.644	6.26
477.848	6.23
478.052	6.26
478.255	6.29
478.459	6.35
478.663	6.44
478.866	6.47
479.07	6.34
479.273	6.37
479.477	6.38
479.681	6.36
479.884	6.34
480.088	6.45
480.291	6.41
480.495	6.43
480.698	6.39
480.901	6.42
481.105	6.43
481.308	6.43
481.512	6.4
481.715	6.48
481.919	6.55
482.122	6.57
482.325	6.58
482.529	6.58
482.732	6.55
482.935	6.49
483.138	6.52
483.342	6.58
483.545	6.65
483.748	6.69
483.952	6.75
484.155	6.75
484.358	6.71
484.561	6.71
484.764	6.72
484.967	6.67
485.171	6.67
485.374	6.62
485.577	6.61
485.78	6.57
485.983	6.5
486.186	6.47
486.389	6.52
486.592	6.57
486.795	6.66
486.998	6.75
487.201	6.8
487.404	6.9
487.607	6.9
487.81	6.8
488.013	6.8
488.216	6.77
488.419	6.65
488.622	6.59
488.825	6.6
489.028	6.61
489.231	6.62
489.433	6.63
489.636	6.63
489.839	6.69
490.042	6.68
490.245	6.68
490.447	6.67
490.65	6.7
490.853	6.71
491.056	6.7
491.258	6.74
491.461	6.72
491.664	6.7
491.866	6.61
492.069	6.65
492.272	6.55
492.474	6.62
492.677	6.62
492.879	6.66
493.082	6.69
493.285	6.81
493.487	6.81
493.69	6.8
493.892	6.81
494.095	6.79
494.297	6.76
494.5	6.76
494.702	6.84
494.905	6.84
495.107	6.85
495.309	6.9
495.512	6.91
495.714	6.89
495.917	6.98
496.119	7.03
496.321	6.95
496.524	6.92
496.726	6.9
496.928	6.84
497.13	6.79
497.333	6.83
497.535	6.94
497.737	6.96
497.939	7
498.142	6.95
498.344	7.01
498.546	7
498.748	7.06
498.95	7.12
499.152	7.14
499.355	7.05
499.557	7.01
499.759	7.09
499.961	7
500.163	7.07
500.365	7.2
500.567	7.22
500.769	7.16
500.971	7.25
501.173	7.19
501.375	7.26
501.577	7.3
501.779	7.26
501.981	7.22
502.183	7.25
502.385	7.19
502.587	7.2
502.788	7.25
502.99	7.3
503.192	7.32
503.394	7.31
503.596	7.31
503.798	7.27
503.999	7.3
504.201	7.35
504.403	7.36
504.605	7.38
504.806	7.51
505.008	7.49
505.21	7.49
505.411	7.54
505.613	7.6
505.815	7.56
506.016	7.64
506.218	7.69
506.42	7.71
506.621	7.71
506.823	7.67
507.024	7.63
507.226	7.6
507.427	7.63
507.629	7.66
507.83	7.81
508.032	7.81
508.233	7.87
508.435	7.86
508.636	7.9
508.838	7.87
509.039	7.9
509.24	7.93
509.442	8
509.643	7.97
509.845	7.94
510.046	8.03
510.247	8.02
510.448	8.02
510.65	8.07
510.851	8.16
511.052	8.15
511.254	8.23
511.455	8.2
511.656	8.22
511.857	8.23
512.058	8.23
512.26	8.17
512.461	8.25
512.662	8.24
512.863	8.12
513.064	8.16
513.265	8.2
513.466	8.18
513.667	8.19
513.868	8.3
514.069	8.27
514.27	8.35
514.471	8.32
514.672	8.38
514.873	8.3
515.074	8.39
515.275	8.3
515.476	8.39
515.677	8.42
515.878	8.51
516.079	8.47
516.28	8.57
516.481	8.6
516.682	8.59
516.882	8.56
517.083	8.55
517.284	8.52
517.485	8.46
517.686	8.48
517.886	8.57
518.087	8.6
518.288	8.62
518.488	8.67
518.689	8.67
518.89	8.67
519.091	8.75
519.291	8.82
519.492	8.82
519.692	8.8
519.893	8.86
520.094	8.76
520.294	8.78
520.495	8.76
520.695	8.85
520.896	8.75
521.096	8.87
521.297	8.83
521.497	8.88
521.698	8.85
521.898	8.9
522.099	8.9
522.299	8.89
522.499	8.91
522.7	8.92
522.9	8.95
523.101	8.93
523.301	9.04
523.501	9.07
523.702	9.1
523.902	9.11
524.102	9.18
524.302	9.15
524.503	9.1
524.703	9.15
524.903	9.18
525.103	9.11
525.304	9.12
525.504	9.24
525.704	9.21
525.904	9.22
526.104	9.29
526.304	9.27
526.504	9.22
526.705	9.21
526.905	9.3
527.105	9.29
527.305	9.34
527.505	9.3
527.705	9.33
527.905	9.35
528.105	9.35
528.305	9.35
528.505	9.47
528.705	9.56
528.905	9.55
529.105	9.6
529.304	9.69
529.504	9.7
529.704	9.66
529.904	9.64
530.104	9.64
530.304	9.61
530.503	9.64
530.703	9.65
530.903	9.68
531.103	9.72
531.303	9.74
531.502	9.77
531.702	9.81
531.902	9.89
532.101	9.87
532.301	9.87
532.501	9.97
532.7	10.01
532.9	10.03
533.1	10.04
533.299	10.07
533.499	9.96
533.698	9.94
533.898	9.93
534.097	9.99
534.297	10.04
534.496	10.09
534.696	10.14
534.895	10.16
535.095	10.16
535.294	10.17
535.494	10.18
535.693	10.18
535.892	10.2
536.092	10.24
536.291	10.29
536.491	10.36
536.69	10.39
536.889	10.39
537.088	10.41
537.288	10.41
537.487	10.44
537.686	10.42
537.886	10.47
538.085	10.51
538.284	10.55
538.483	10.56
538.682	10.65
538.882	10.71
539.081	10.78
539.28	10.79
539.479	10.79
539.678	10.78
539.877	10.82
540.076	10.85
540.275	10.93
540.474	10.99
540.673	11.14
540.872	11.13
541.071	11.13
541.27	11.12
541.469	11.15
541.668	11.12
541.867	11.2
542.066	11.25
542.265	11.32
542.464	11.41
542.663	11.48
542.862	11.55
543.06	11.63
543.259	11.73
543.458	11.78
543.657	11.81
543.856	11.86
544.054	11.9
544.253	11.87
544.452	11.9
544.651	11.92
544.849	11.91
545.048	11.97
545.247	12.03
545.445	12.04
545.644	12.21
545.843	12.32
546.041	12.33
546.24	12.37
546.438	12.44
546.637	12.43
546.836	12.5
547.034	12.57
547.233	12.7
547.431	12.75
547.63	12.82
547.828	12.82
548.027	12.82
548.225	12.82
548.423	12.91
548.622	12.98
548.82	13.02
549.019	13.12
549.217	13.2
549.415	13.25
549.614	13.33
549.812	13.43
550.01	13.5
550.209	13.6
550.407	13.71
550.605	13.68
550.803	13.74
551.002	13.84
551.2	13.82
551.398	13.85
551.596	13.94
551.794	14.04
551.993	14.13
552.191	14.34
552.389	14.47
552.587	14.59
552.785	14.66
552.983	14.78
553.181	14.77
553.379	14.82
553.577	14.9
553.775	15.03
553.973	15.09
554.171	15.17
554.369	15.3
554.567	15.42
554.765	15.46
554.963	15.52
555.161	15.62
555.359	15.7
555.557	15.77
555.755	15.89
555.952	16.04
556.15	16.16
556.348	16.21
556.546	16.3
556.744	16.39
556.941	16.39
557.139	16.48
557.337	16.68
557.535	16.76
557.732	16.83
557.93	17.04
558.128	17.14
558.325	17.23
558.523	17.37
558.721	17.43
558.918	17.52
559.116	17.66
559.313	17.73
559.511	17.89
559.708	18.1
559.906	18.23
560.104	18.25
560.301	18.38
560.498	18.47
560.696	18.54
560.893	18.66
561.091	18.79
561.288	19.08
561.486	19.09
561.683	19.21
561.88	19.3
562.078	19.47
562.275	19.37
562.473	19.46
562.67	19.55
562.867	19.68
563.064	19.75
563.262	19.83
563.459	20.01
563.656	20.15
563.853	20.14
564.051	20.29
564.248	20.47
564.445	20.6
564.642	20.73
564.839	20.9
565.036	21
565.234	21.15
565.431	21.17
565.628	21.18
565.825	21.29
566.022	21.39
566.219	21.42
566.416	21.54
566.613	21.71
566.81	21.82
567.007	21.82
567.204	21.81
567.401	21.87
567.598	21.92
567.795	22.07
567.991	22.14
568.188	22.35
568.385	22.44
568.582	22.53
568.779	22.55
568.976	22.71
569.172	22.82
569.369	22.88
569.566	22.95
569.763	22.9
569.96	22.96
570.156	22.94
570.353	23.04
570.55	23.01
570.746	23.13
570.943	23.15
571.14	23.09
571.336	22.99
571.533	23.01
571.729	23.07
571.926	23.15
572.123	23.29
572.319	23.43
572.516	23.59
572.712	23.62
572.909	23.59
573.105	23.59
573.302	23.59
573.498	23.43
573.695	23.39
573.891	23.36
574.087	23.29
574.284	23.31
574.48	23.44
574.677	23.44
574.873	23.56
575.069	23.63
575.266	23.61
575.462	23.64
575.658	23.76
575.854	23.76
576.051	23.82
576.247	23.77
576.443	23.79
576.639	23.73
576.835	23.68
577.032	23.63
577.228	23.74
577.424	23.69
577.62	23.71
577.816	23.68
578.012	23.7
578.208	23.72
578.404	23.77
578.6	23.82
578.796	23.77
578.993	23.76
579.189	23.81
579.384	23.78
579.58	23.77
579.776	23.84
579.972	23.87
580.168	23.73
580.364	23.77
580.56	23.63
580.756	23.57
580.952	23.47
581.148	23.52
581.343	23.45
581.539	23.55
581.735	23.56
581.931	23.6
582.127	23.53
582.322	23.45
582.518	23.34
582.714	23.33
582.909	23.27
583.105	23.25
583.301	23.33
583.496	23.3
583.692	23.28
583.888	23.27
584.083	23.27
584.279	23.21
584.474	23.18
584.67	23.24
584.866	23.16
585.061	23.23
585.257	23.34
585.452	23.41
585.648	23.24
585.843	23.32
586.039	23.28
586.234	23.2
586.429	23.18
586.625	23.34
586.82	23.42
587.015	23.43
587.211	23.44
587.406	23.47
587.601	23.44
587.797	23.29
587.992	23.21
588.187	23.17
588.383	23.16
588.578	23.17
588.773	23.25
588.968	23.38
589.163	23.51
589.359	23.42
589.554	23.39
589.749	23.48
589.944	23.37
590.139	23.29
590.334	23.39
590.529	23.41
590.724	23.43
590.919	23.6
591.114	23.66
591.309	23.66
591.504	23.76
591.699	23.69
591.894	23.69
592.089	23.69
592.284	23.68
592.479	23.66
592.674	23.78
592.869	23.72
593.064	23.76
593.259	23.99
593.454	24.08
593.648	24.09
593.843	24.14
594.038	24.33
594.233	24.27
594.428	24.36
594.622	24.42
594.817	24.64
595.012	24.6
595.206	24.62
595.401	24.67
595.596	24.76
595.79	24.66
595.985	24.76
596.18	24.9
596.374	24.94
596.569	25.09
596.763	25.19
596.958	25.33
597.153	25.44
597.347	25.47
597.542	25.5
597.736	25.64
597.931	25.67
598.125	25.71
598.319	25.88
598.514	25.92
598.708	25.94
598.903	26
599.097	26.07
599.291	26.09
599.486	26.21
599.68	26.33
599.874	26.33
600.069	26.38
600.263	26.43
600.457	26.44
600.651	26.44
600.846	26.46
601.04	26.46
601.234	26.44
601.428	26.51
601.622	26.59
601.817	26.68
602.011	26.87
602.205	27
602.399	26.95
602.593	27.03
602.787	27.04
602.981	26.99
603.175	26.95
603.369	27.03
603.563	27
603.757	27.03
603.951	27.02
604.145	26.96
604.339	26.93
604.533	26.81
604.727	26.77
604.921	26.72
605.115	26.73
605.309	26.63
605.502	26.73
605.696	26.66
605.89	26.69
606.084	26.65
606.278	26.67
606.471	26.56
606.665	26.49
606.859	26.34
607.053	26.35
607.246	26.32
607.44	26.17
607.634	26.07
607.827	26.04
608.021	25.95
608.214	25.79
608.408	25.8
608.602	25.83
608.795	25.83
608.989	25.72
609.182	25.8
609.376	25.72
609.569	25.57
609.763	25.46
609.956	25.34
610.15	25.23
610.343	25.22
610.537	25.21
610.73	25.06
610.923	25.09
611.117	24.98
611.31	24.77
611.504	24.76
611.697	24.81
611.89	24.69
612.083	24.53
612.277	24.52
612.47	24.34
612.663	24.19
612.856	24.1
613.05	24.08
613.243	24.03
613.436	23.98
613.629	23.92
613.822	23.83
614.015	23.81
614.209	23.77
614.402	23.72
614.595	23.64
614.788	23.63
614.981	23.46
615.174	23.27
615.367	23.16
615.56	23.11
615.753	23.07
615.946	23.15
616.139	23.23
616.332	23.16
616.525	23.08
616.718	22.95
616.911	22.83
617.103	22.64
617.296	22.61
617.489	22.49
617.682	22.49
617.875	22.49
618.067	22.43
618.26	22.33
618.453	22.29
618.646	22.21
618.838	22.14
619.031	22.17
619.224	22.2
619.417	22.2
619.609	22.13
619.802	22.07
619.994	22
620.187	21.83
620.38	21.82
620.572	21.78
620.765	21.7
620.957	21.63
621.15	21.69
621.342	21.63
621.535	21.64
621.727	21.63
621.92	21.66
622.112	21.66
622.305	21.54
622.497	21.47
622.69	21.44
622.882	21.45
623.074	21.4
623.267	21.46
623.459	21.4
623.651	21.36
623.844	21.32
624.036	21.35
624.228	21.34
624.42	21.3
624.613	21.27
624.805	21.25
624.997	21.14
625.189	21.1
625.381	21.08
625.574	21.03
625.766	20.9
625.958	20.93
626.15	20.95
626.342	20.95
626.534	20.96
626.726	21.01
626.918	20.92
627.11	20.76
627.302	20.73
627.494	20.64
627.686	20.5
627.878	20.41
628.07	20.44
628.262	20.49
628.454	20.51
628.646	20.53
628.838	20.61
629.029	20.54
629.221	20.4
629.413	20.33
629.605	20.3
629.797	20.19
629.989	20.14
630.18	20.16
630.372	20.16
630.564	20.17
630.755	20.1
630.947	20.13
631.139	20.02
631.33	19.99
631.522	19.96
631.714	19.93
631.905	19.9
632.097	19.83
632.289	19.71
632.48	19.66
632.672	19.65
632.863	19.54
633.055	19.65
633.246	19.75
633.438	19.67
633.629	19.71
633.821	19.76
634.012	19.67
634.203	19.61
634.395	19.68
634.586	19.67
634.777	19.6
634.969	19.62
635.16	19.58
635.351	19.47
635.543	19.4
635.734	19.38
635.925	19.37
636.117	19.34
636.308	19.4
636.499	19.32
636.69	19.33
636.881	19.26
637.073	19.33
637.264	19.23
637.455	19.26
637.646	19.25
637.837	19.26
638.028	19.12
638.219	19.17
638.41	19.2
638.601	19.15
638.792	19.16
638.983	19.18
639.174	19.11
639.365	19.09
639.556	18.99
639.747	18.93
639.938	18.95
640.129	18.96
640.32	18.93
640.511	19.08
640.701	19.1
640.892	18.96
641.083	18.83
641.274	18.78
641.465	18.63
641.655	18.57
641.846	18.59
642.037	18.59
642.228	18.47
642.418	18.37
642.609	18.27
642.8	18.28
642.99	18.28
643.181	18.4
643.372	18.43
643.562	18.42
643.753	18.37
643.943	18.3
644.134	18.14
644.324	18.15
644.515	18.09
644.705	18.01
644.896	18.11
645.086	18.14
645.277	18.09
645.467	18.2
645.658	18.18
645.848	18.06
646.038	18.04
646.229	18.01
646.419	17.82
646.61	17.84
646.8	17.86
646.99	17.83
647.18	17.84
647.371	17.87
647.561	17.88
647.751	17.89
647.941	17.84
648.132	17.69
648.322	17.64
648.512	17.64
648.702	17.6
648.892	17.65
649.082	17.69
649.272	17.64
649.462	17.58
649.653	17.47
649.843	17.36
650.033	17.37
650.223	17.3
650.413	17.27
650.603	17.35
650.793	17.36
650.983	17.36
651.172	17.4
651.362	17.3
651.552	17.27
651.742	17.22
651.932	17.12
652.122	17.09
652.312	17.07
652.502	16.89
652.691	16.86
652.881	16.74
653.071	16.66
653.261	16.54
653.45	16.5
653.64	16.37
653.83	16.36
654.019	16.19
654.209	16.12
654.399	16.01
654.588	15.84
654.778	15.66
654.968	15.63
655.157	15.47
655.347	15.29
655.536	15.16
655.726	15.04
655.915	14.9
656.105	14.84
656.294	14.66
656.484	14.64
656.673	14.5
656.863	14.42
657.052	14.17
657.241	14.08
657.431	13.89
657.62	13.78
657.809	13.53
657.999	13.52
658.188	13.41
658.377	13.23
658.567	13.04
658.756	12.94
658.945	12.68
659.134	12.4
659.324	12.27
659.513	12.06
659.702	11.89
659.891	11.79
660.08	11.74
660.269	11.54
660.458	11.43
660.648	11.3
660.837	11.13
661.026	10.93
661.215	10.83
661.404	10.71
661.593	10.56
661.782	10.4
661.971	10.2
662.16	10.08
662.349	9.85
662.538	9.65
662.726	9.5
662.915	9.49
663.104	9.31
663.293	9.32
663.482	9.23
663.671	9.13
663.86	9.03
664.048	9.01
664.237	8.83
664.426	8.73
664.615	8.67
664.803	8.51
664.992	8.41
665.181	8.36
665.369	8.21
665.558	8.14
665.747	8.25
665.935	8.2
666.124	8.2
666.312	8.27
666.501	8.28
666.69	8.15
666.878	8.06
667.067	7.9
667.255	7.78
667.444	7.78
667.632	7.73
667.82	7.73
668.009	7.73
668.197	7.69
668.386	7.53
668.574	7.49
668.762	7.41
668.951	7.42
669.139	7.41
669.327	7.35
669.516	7.27
669.704	7.35
669.892	7.3
670.08	7.27
670.269	7.37
670.457	7.46
670.645	7.37
670.833	7.49
671.021	7.64
671.21	7.63
671.398	7.63
671.586	7.65
671.774	7.65
671.962	7.64
672.15	7.62
672.338	7.73
672.526	7.71
672.714	7.63
672.902	7.57
673.09	7.75
673.278	7.74
673.466	7.97
673.654	8.12
673.842	8.28
674.03	8.31
674.218	8.34
674.405	8.32
674.593	8.37
674.781	8.32
674.969	8.31
675.157	8.41
675.344	8.43
675.532	8.43
675.72	8.53
675.908	8.62
676.095	8.72
676.283	8.91
676.471	9.02
676.658	9.11
676.846	9.06
677.033	8.99
677.221	8.95
677.409	9.01
677.596	9.08
677.784	9.26
677.971	9.26
678.159	9.27
678.346	9.36
678.534	9.4
678.721	9.49
678.909	9.71
679.096	9.88
679.283	9.96
679.471	10.2
679.658	10.27
679.846	10.35
680.033	10.54
680.22	10.73
680.408	10.63
680.595	10.73
680.782	10.85
680.969	11.01
681.157	11.13
681.344	11.31
681.531	11.46
681.718	11.61
681.905	11.61
682.093	11.66
682.28	11.92
682.467	12.12
682.654	12.2
682.841	12.49
683.028	12.65
683.215	12.84
683.402	12.78
683.589	12.98
683.776	13.02
683.963	13.36
684.15	13.57
684.337	13.9
684.524	14.12
684.711	14.47
684.898	14.55
685.085	14.68
685.271	15.09
685.458	15.41
685.645	15.67
685.832	15.95
686.019	16.29
686.205	16.55
686.392	16.79
686.579	17.22
686.766	17.63
686.952	17.94
687.139	18.36
687.326	18.98
687.512	19.24
687.699	19.68
687.886	20.14
688.072	20.42
688.259	20.64
688.445	21.06
688.632	21.36
688.818	21.9
689.005	22.33
689.191	23
689.378	23.61
689.564	24.25
689.751	24.6
689.937	25.35
690.124	25.75
690.31	26.06
690.496	26.73
690.683	27.38
690.869	27.88
691.055	28.56
691.242	29.34
691.428	29.89
691.614	30.77
691.8	31.4
691.987	31.98
692.173	32.8
692.359	33.51
692.545	34.16
692.731	34.89
692.918	35.49
693.104	36.02
693.29	36.56
693.476	37.16
693.662	37.8
693.848	38.65
694.034	39.51
694.22	40.4
694.406	41.09
694.592	41.75
694.778	42.22
694.964	42.9
695.15	43.54
695.336	44.25
695.522	45.1
695.708	45.98
695.894	46.78
696.08	47.6
696.265	48.42
696.451	49.07
696.637	50.08
696.823	50.71
697.009	51.42
697.194	51.99
697.38	52.86
697.566	53.25
697.751	53.74
697.937	54.33
698.123	55.01
698.308	55.44
698.494	56.31
698.68	57.22
698.865	57.7
699.051	58.53
699.236	59.08
699.422	59.62
699.607	60.2
699.793	61.06
699.978	61.21
700.164	61.91
700.349	62.51
700.535	62.7
700.72	63.19
700.906	64.27
701.091	64.96
701.276	65.3
701.462	65.91
701.647	66.49
701.832	66.88
702.018	67.46
702.203	68.22
702.388	68.93
702.573	69.13
702.759	69.68
702.944	69.83
703.129	69.96
703.314	70.17
703.499	70.78
703.684	71.3
703.87	71.81
704.055	72.58
704.24	73.45
704.425	73.71
704.61	74.05
704.795	74.74
704.98	74.63
705.165	74.78
705.35	75.3
705.535	75.7
705.72	75.76
705.905	76.35
706.09	77
706.275	77.07
706.459	77.26
706.644	77.55
706.829	78.26
707.014	78.09
707.199	78.86
707.384	79.24
707.568	79.52
707.753	79.53
707.938	79.89
708.123	80.09
708.307	80.37
708.492	81.08
708.677	81.12
708.861	81.62
709.046	81.5
709.231	81.36
709.415	81.43
709.6	81.85
709.784	82.05
709.969	82.43
710.153	82.77
710.338	83.15
710.522	83.52
710.707	83.75
710.891	84.01
711.076	84.3
711.26	84.67
711.445	84.94
711.629	85.06
711.813	85.82
711.998	86.33
712.182	86.23
712.366	86.85
712.551	87.6
712.735	87.24
712.919	87.62
713.103	88.13
713.288	87.58
713.472	87.54
713.656	87.67
713.84	87.43
714.024	87.63
714.208	87.86
714.393	87.72
714.577	88.03
714.761	88.41
714.945	88.32
715.129	88.76
715.313	88.95
715.497	88.88
715.681	88.41
715.865	88.45
716.049	88.75
716.233	88.5
716.417	88.91
716.601	89.59
716.785	89.87
716.968	89.84
717.152	90.67
717.336	90.82
717.52	91.42
717.704	91.64
717.888	92.07
718.071	92.11
718.255	92.45
718.439	91.87
718.622	91.98
718.806	91.73
718.99	91.54
719.174	91.63
719.357	92.18
719.541	92.34
719.724	92.42
719.908	92.59
720.092	92.7
720.275	92.5
720.459	92.14
720.642	92.15
720.826	92.01
721.009	92
721.193	91.64
721.376	91.86
721.559	92.44
721.743	93.28
721.926	93.3
722.11	94.23
722.293	95.06
722.476	94.56
722.66	94.88
722.843	95.49
723.026	95.71
723.21	95.17
723.393	95.96
723.576	95.31
723.759	94.75
723.942	94.89
724.126	94.86
724.309	94.65
724.492	94.95
724.675	95.34
724.858	94.98
725.041	95.2
725.224	95.16
725.407	95.29
725.59	95.13
725.774	95.14
725.957	95.2
726.14	95.15
726.322	95.63
726.505	95.98
726.688	96.31
726.871	96.19
727.054	96.14
727.237	95.42
727.42	95.04
727.603	95.42
727.786	95.61
727.968	95.81
728.151	96.13
728.334	96.56
728.517	95.88
728.699	96.11
728.882	96.44
729.065	96.24
729.248	96.25
729.43	96.47
729.613	96.37
729.796	96.66
729.978	97.07
730.161	97.1
730.343	97.67
730.526	97.81
730.708	98.1
730.891	98.08
731.073	98.21
731.256	97.92
731.438	98.73
731.621	98.87
731.803	99.07
731.986	98.9
732.168	99.6
732.35	98.83
732.533	98.11
732.715	97.91
732.898	97.99
733.08	97.35
733.262	97.75
733.444	98.54
733.627	99.11
733.809	100.27
733.991	100.78
734.173	100.36
734.355	99.61
734.538	99.98
734.72	99.51
734.902	100.01
735.084	100.69
735.266	101.17
735.448	100.75
735.63	100.75
735.812	100.1
735.994	99.88
736.176	99.96
736.358	99.89
736.54	100.37
736.722	99.5
736.904	99.74
737.086	99.07
737.268	100.42
737.45	100.29
737.632	101.34
737.814	101.73
737.995	103.02
738.177	102.39
738.359	102.01
738.541	102.35
738.723	101.9
738.904	101.21
739.086	101.07
739.268	100.54
739.449	99.84
739.631	100.27
739.813	100.07
739.994	98.95
740.176	99.34
740.358	100.29
740.539	99.39
740.721	100.09
740.902	100.9
741.084	102.08
741.265	100.84
741.447	101.94
741.628	101.73
741.81	102.23
741.991	102.1
742.172	103.13
742.354	102.35
742.535	101.76
742.717	100.57
742.898	99.91
743.079	100.58
743.261	100.78
743.442	100.21
743.623	101.43
743.804	101.74
743.986	101.06
744.167	100.97
744.348	101.79
744.529	101.45
744.71	100.82
744.891	101.07
745.073	101.57
745.254	101.29
745.435	101.23
745.616	101.49
745.797	100.45
745.978	99.47
746.159	99.92
746.34	100.5
746.521	100.23
746.702	101.4
746.883	102.1
747.064	101.88
747.245	101.71
747.426	101.67
747.606	100.19
747.787	99.98
747.968	99.87
748.149	98.6
748.33	98.23
748.51	97.92
748.691	97.51
748.872	99.31
749.053	98.67
749.233	99.53
749.414	100.78
749.595	101.75
749.775	99.61
749.956	100.14
750.137	99.87
750.317	98.32
750.498	97.4
750.678	98.64
750.859	99.35
751.04	99.92
751.22	100.53
751.4	101.24
751.581	100.47
751.761	100.06
751.942	99.84
752.122	98.82
752.303	98.7
752.483	98.43
752.663	98.17
752.844	97.07
753.024	98.84
753.204	98.82
753.385	99.24
753.565	99.59
753.745	100.19
753.925	98.75
754.106	99.44
754.286	98.94
754.466	99.2
754.646	98.56
754.826	100.68
755.006	99.27
755.187	100.45
755.367	98.86
755.547	99.79
755.727	98.62
755.907	98.54
756.087	97.57
756.267	98.76
756.447	98.99
756.627	98.91
756.807	100
756.987	100.3
757.167	100.36
757.346	98.82
757.526	99.51
757.706	99.68
757.886	98.16
758.066	98.6
758.246	98.8
758.425	97.83
758.605	96.73
758.785	97.66
758.965	98.32
759.144	96.9
759.324	98.44
759.504	99.63
759.683	98.93
759.863	98.25
760.043	99.91
760.222	98.55
760.402	97.23
760.581	98.26
760.761	98.4
760.94	98.14
761.12	97.85
761.299	99.12
761.479	99.1
761.658	98.17
761.838	99.66
762.017	100.42
762.197	98.71
762.376	98.61
762.555	97.98
762.735	97.27
762.914	96.36
763.093	97.6
763.273	97.08
763.452	97.33
763.631	95.27
763.81	94.65
763.99	93.21
764.169	93.07
764.348	93
764.527	94.37
764.706	94.09
764.885	94.74
765.064	95.91
765.243	95.04
765.423	95.55
765.602	97.96
765.781	96.35
765.96	95.27
766.139	96.07
766.318	97.29
766.497	94.4
766.676	93.32
766.854	94.94
767.033	95.53
767.212	95.37
767.391	97.01
767.57	101.36
767.749	99.71
767.928	99.97
768.106	98.44
768.285	97.44
768.464	95.49
768.643	94.77
768.821	93.24
769	93.68
769.179	94.33
769.357	93.52
769.536	93.44
769.715	92.89
769.893	91.94
770.072	90.54
770.25	90.6
770.429	91.19
770.607	92.29
770.786	92.68
770.964	93.65
771.143	94.79
771.321	94.63
771.5	95.43
771.678	93.36
771.857	91.82
772.035	92.87
772.213	93.18
772.392	91
772.57	92.79
772.748	93.29
772.927	90.94
773.105	91.34
773.283	91.97
773.461	92.61
773.64	93.08
773.818	93.8
773.996	91.96
774.174	93.14
774.352	91.62
774.531	90.16
774.709	89.18
774.887	88.61
775.065	89.32
775.243	87.85
775.421	89.3
775.599	92.17
775.777	93.04
775.955	90.95
776.133	93.83
776.311	93.7
776.489	91.76
776.667	91.54
776.844	92.25
777.022	88.91
777.2	88.53
777.378	86.42
777.556	89.04
777.734	88.57
777.911	90.2
778.089	93.74
778.267	96.41
778.445	96.28
778.622	96.87
778.8	95.5
778.978	93.18
779.155	91.76
779.333	90.96
779.511	89.79
779.688	91.32
779.866	90.29
780.043	91.67
780.221	90.2
780.398	90.15
780.576	90.14
780.753	91.79
780.931	91.34
781.108	91.86
781.286	94.58
781.463	93.02
781.64	91.39
781.818	91.28
781.995	92.31
782.172	90.77
782.35	93.9
782.527	92.3
782.704	91.77
782.882	88.77
783.059	89.18
783.236	87.88
783.413	87.6
783.59	89.76
783.768	90.19
783.945	88.13
784.122	90.41
784.299	92.75
784.476	88.3
784.653	88.71
784.83	88.41
785.007	84.48
785.184	81.95
785.361	85.49
785.538	84
785.715	85.06
785.892	84.69
786.069	88.55
786.246	86.77
786.423	87.97
786.6	89.08
786.776	92.36
786.953	88.57
787.13	88.75
787.307	87.62
787.484	83.6
787.66	79.94
787.837	82.09
788.014	85.14
788.191	84.57
788.367	87.89
788.544	89.26
788.721	86.42
788.897	82.51
789.074	85.63
789.25	84.87
789.427	85.21
789.603	84.75
789.78	83.03
789.956	80.69
790.133	80.26
790.309	77.63
790.486	80.74
790.662	81.73
790.839	84.94
791.015	86.32
791.192	88.33
791.368	86.29
791.544	88.06
791.721	81.58
791.897	79.79
792.073	78.09
792.249	75.7
792.426	75.08
792.602	79.07
792.778	78.14
792.954	81.66
793.13	84.67
793.307	82.82
793.483	80.97
793.659	79.42
793.835	82.07
794.011	84.16
794.187	86.46
794.363	87.14
794.539	88.9
794.715	86.41
794.891	84.21
795.067	84.48
795.243	85.52
795.419	84.79
795.595	86.08
795.771	85.32
795.947	81.9
796.122	77.66
796.298	77.9
796.474	81.34
796.65	81.47
796.826	83.15
797.001	84.11
797.177	84.17
797.353	76.71
797.529	75.84
797.704	79.51
797.88	82.36
798.056	83.83
798.231	86.44
798.407	87.13
798.582	82.14
798.758	84.34
798.934	84.14
799.109	81.15
799.285	82.11
799.46	82.45
799.636	79.99
799.811	79.43
799.986	78.88
800.162	75.95
800.337	82.32
800.513	81.17
800.688	75.72
800.863	82.75
801.039	86.36
801.214	79.91
801.389	82.39
801.565	89.41
801.74	86.05
801.915	81.74
802.09	80.01
802.265	82.43
802.441	82.68
802.616	76.65
802.791	80.77
802.966	85.88
803.141	84.15
803.316	83.63
803.491	86.88
803.666	93.75
803.841	86.3
804.016	78.6
804.191	80.12
804.366	81.23
804.541	72.5
804.716	77.12
804.891	81.69
805.066	86.47
805.241	79.78
805.416	82.3
805.591	84.26
805.765	89.78
805.94	80.66
806.115	85.11
806.29	79.47
806.464	77.45
806.639	73.22
806.814	69.02
806.989	70.93
807.163	74.19
807.338	72.01
807.512	76.49
807.687	79.02
807.862	79.55
808.036	84.63
808.211	86.87
808.385	83.68
808.56	81.9
808.734	72.71
808.909	70.24
809.083	74.18
809.258	78.71
809.432	79.72
809.606	86.84
809.781	88.93
809.955	89.35
810.13	78.86
810.304	81.36
810.478	82.72
810.652	80.36
810.827	78.14
811.001	81.24
811.175	79.56
811.349	78.99
811.524	80.83
811.698	81.92
811.872	82.27
812.046	86.52
812.22	89.13
812.394	84.41
812.568	78.41
812.742	79.4
812.916	80.98
813.09	79.82
813.264	76.37
813.438	77.93
813.612	73.37
813.786	71.78
813.96	71.77
814.134	77.11
814.308	82.4
814.482	85.59
814.656	75.77
814.83	77.11
815.003	76.61
815.177	71.91
815.351	79.3
815.525	95.36
815.698	87.24
815.872	71.57
816.046	71.79
816.219	73.9
816.393	65.86
816.567	73.06
816.74	77.92
816.914	73.06
817.088	63.86
817.261	71.29
817.435	70.03
817.608	78.04
817.782	82.22
817.955	82.4
818.129	73.93
818.302	68.58
818.475	77.49
818.649	78.67
818.822	74.34
818.996	83.37
819.169	90.48
819.342	81.9
819.516	88.57
819.689	89.93
819.862	82.79
820.035	76.32
820.209	66.08
820.382	41.83
820.555	38.36
820.728	35.01
820.901	35.92
821.075	50.31
821.248	80.53
821.421	81.04
821.594	81.7
821.767	80.56
821.94	75.29
822.113	69.12
822.286	83.07
822.459	90.91
822.632	101.09
822.805	98.62
822.978	93.02
823.151	77.89
823.324	61.79
823.496	49.49
823.669	60.32
823.842	69.7
824.015	64.55
824.188	62.34
824.361	72.78
824.533	64.7
824.706	61.66
824.879	63.98
825.051	71.34
825.224	65.53
825.397	67.99
825.569	63.11
825.742	76.13
825.915	80.57
826.087	69.26
826.26	63.54
826.432	61.08
826.605	55.56
826.777	57.26
826.95	64.66
827.122	61.23
827.295	80.29
827.467	86.83
827.64	64.21
827.812	76.18
827.984	103.02
828.157	74.06
828.329	72.35
828.501	70.99
828.674	66.23
828.846	49.58
829.018	58.44
829.19	49.17
829.363	56.23
829.535	68.05
829.707	83.05
829.879	71.66
830.051	69.88
830.223	86.15
830.395	68.79
830.568	50.3
830.74	57.4
830.912	70.67
831.084	53.09
831.256	48.63
831.428	58.09
831.6	47.67
831.772	29.65
831.943	15.84
832.115	33.34
832.287	37.59
832.459	44.3
832.631	59.55
832.803	71.98
832.975	67.02
833.146	60.83
833.318	63.46
833.49	58
833.662	62.49
833.833	56.52
834.005	62.06
834.177	61.82
834.348	57.96
834.52	56.66
834.692	52.33
834.863	42.88
835.035	54.3
835.206	49.35
835.378	41.08
835.549	48.58
835.721	55.88
835.892	48.71
836.064	56.23
836.235	60.97
836.407	53.69
836.578	43.53
836.749	42.69
836.921	39.7
837.092	30.72
837.264	22.45
837.435	19.72
837.606	11.8
837.777	9.38
837.949	24.82
838.12	34.43
838.291	39.22
838.462	58.28
838.633	58.51
838.805	48.79
838.976	51.74
839.147	69.89
839.318	63.57
839.489	59.91
839.66	76.36
839.831	76.69
840.002	69.62
840.173	63.43
840.344	76.57
840.515	57.67
840.686	59.6
840.857	59.35
841.028	60.86
841.199	44.01
841.369	48.31
841.54	53.36
841.711	86.29
841.882	88.09
842.053	87.46
842.223	93.55
842.394	67.28
842.565	42.27
842.736	49.95
842.906	48.13
843.077	52.23
843.248	73.52
843.418	64.19
843.589	72.03
843.759	88.1
843.93	98.25
844.101	90.38
844.271	117.52
844.442	92.79
844.612	71.02
844.783	72.33
844.953	63.93
845.123	66.13
845.294	71.06
845.464	76.45
845.635	44.72
845.805	57.94
845.975	41.91
846.146	5.15
846.316	-4.04
846.486	28.85
846.656	37.41
846.827	21.54
846.997	54.7
847.167	66.61
847.337	47.11
847.507	35.08
847.677	47.54
847.848	53.55
848.018	66.4
848.188	60.59
848.358	56.25
848.528	70
848.698	46.2
848.868	39.1
849.038	44.03
849.208	50.8
849.378	44.91
849.548	36.76
849.718	3.14
849.887	20.69
850.057	27.93
850.227	22.11
850.397	37.14
850.567	28.45
850.737	27.71
850.906	2.17
851.076	-1.87
851.246	-5.02
851.415	30.36
851.585	45.87
851.755	70.37
851.924	69.44
852.094	66.67
852.264	61.89
852.433	58.12
852.603	21.21
852.772	51.24
852.942	71.42
853.111	56.18
853.281	47.78
853.45	65.19
853.62	49.45
853.789	25.72
853.959	39.57
854.128	51.67
854.297	53.59
854.467	52.93
854.636	73.59
854.805	78.3
854.975	67.47
855.144	68.66
855.313	82.33
855.482	30.04
855.652	-19.12
855.821	-25.37
855.99	-15.93
856.159	3.38
856.328	24.58
856.497	58.03
856.667	68.89
856.836	61.59
857.005	48.41
857.174	40.21
857.343	13.52
857.512	6.7
857.681	-8.28
857.85	-14.23
858.019	-33.56
858.188	-14.14
858.356	1.41
858.525	20.16
858.694	36.29
858.863	44.32
859.032	43.4
859.201	37.07
859.369	19.75
859.538	17.85
859.707	9.1
859.876	22.42
860.044	46.69
860.213	56.24
860.382	71.15
860.55	65.28
860.719	91.18
860.888	81.68
861.056	76.5
861.225	51.43
861.393	44.35
861.562	5.45
861.73	-5.3
861.899	2.81
862.067	2.8
862.236	12.8
862.404	28.45
862.572	55.94
862.741	47.15
862.909	78.35
863.078	79.24
863.246	54.87
863.414	54.35
863.582	65.02
863.751	48.9
863.919	52.55
864.087	80.32
864.255	127.6
864.424	88.55
864.592	66.43
864.76	49.47
864.928	39.1
865.096	4.18
865.264	-8.5
865.432	-4.95
865.6	39.33
865.768	9.18
865.936	38.16
866.104	82.86
866.272	73.21
866.44	5.9
866.608	22.37
866.776	21.43
866.944	45.26
867.112	39.72
867.28	36.54
867.448	49.72
867.615	31.07
867.783	-3.18
867.951	21.62
868.119	35.23
868.286	25.74
868.454	21.28
868.622	39.42
868.789	30.76
868.957	42.22
869.125	32.91
869.292	23.48
869.46	32.52
869.627	40.98
869.795	3.05
869.963	42.23
870.13	98.33
870.298	115.91
870.465	91.64
870.632	70.52
870.8	29.98
870.967	-7.11
871.135	-30.83
871.302	-37.64
871.469	-22.36
871.637	-24.54
871.804	32.77
871.971	3.41
872.139	10.91
872.306	9.38
872.473	6.62
872.64	-105.6
872.807	-83.96
872.975	-191.18
873.142	-43.54
873.309	-11.08
873.476	45.45
873.643	76.73
873.81	56.73
873.977	56.43
874.144	40.68
874.311	-27.19
874.478	-69.5
874.645	-93.2
874.812	-28.44
874.979	-51.6
875.146	-43.08
875.313	-4.62
875.48	62.76
875.647	108.47
875.813	90.77
875.98	78.29
876.147	91.79
876.314	80.59
876.481	29.23
876.647	40.81
876.814	30.36
876.981	44.31
877.147	32.31
877.314	39.91
877.481	41.89
877.647	66.68
877.814	73.34
877.98	63.39
878.147	94.08
878.314	126.12
878.48	121.56
878.647	124.53
878.813	144.33
878.979	111.03
879.146	106.32
879.312	121.37
879.479	92.27
879.645	77.25
879.811	49.9
879.978	53.58
880.144	24.66
880.31	10.07
880.477	2.88
880.643	24.44
880.809	-54.56
880.975	-6.98
881.142	-39.35
881.308	346.03
881.474	432.33
881.64	15.66
881.806	-37.82
881.972	-23.53
882.138	50.81
882.304	30.01
882.47	-10.82
882.636	-41.19
882.802	-49.12
882.968	-152.19
883.134	-56.66
883.3	-71.61
883.466	-57.43
883.632	-11.54
883.798	33.08
883.964	-1.31
884.129	3.93
884.295	62.35
884.461	-13.65
884.627	0.73
884.793	-44.98
884.958	10.74
885.124	16.58
885.29	27.71
885.455	27.78
885.621	78.05
885.787	66.21
885.952	32.76
886.118	48.24
886.283	44.75
886.449	11.82
886.614	-4.63
886.78	-8.28
886.945	-36.42
887.111	-49.89
887.276	-23.48
887.442	-62.78
887.607	-19.23
887.773	-20.6
887.938	-5.6
888.103	-11.29
888.269	25.06
888.434	23.32
888.599	23.52
888.764	55.23
888.93	80.65
889.095	50.89
889.26	34.27
889.425	41.41
889.59	-7.8
889.756	-76.51
889.921	-51.85
890.086	11.18
890.251	68.53
890.416	38.12
890.581	61.13
890.746	59.86
890.911	25.61
891.076	18.48
891.241	-4.55
891.406	-13.84
891.571	26.08
891.736	22.53
891.901	28.24
892.065	51.62
892.23	67.24
892.395	-19.11
892.56	-12.25
892.725	-96.1
892.889	-26.42
893.054	78.95
893.219	109.45
893.384	100.52
893.548	96.52
893.713	31.87
893.878	-50.19
