Data from Ofra_1a_PS_9CX6_Reflection_1.txt Node
Date: Tue Jul 20 11:05:42 EDT 2021
User: Adam
Spectrometer: FLMT01687
Trigger mode: 0
Integration Time (sec): 1.004000E0
Scans to average: 2
Electric dark correction enabled: true
Nonlinearity correction enabled: false
Boxcar width: 2
XAxis mode: Wavelengths
Number of Pixels in Spectrum: 3648
>>>>>Begin Spectral Data<<<<<
179.494	-407.61
179.716	-477.86
179.937	813.04
180.158	-982.8
180.38	152.03
180.601	68.18
180.823	-2.6
181.044	-90.16
181.265	-135.8
181.486	213.87
181.708	124.56
181.929	-1463.64
182.15	-44.99
182.372	-132.51
182.593	255.99
182.814	-56.2
183.035	8.05
183.257	36.6
183.478	3.72
183.699	-6.93
183.92	-47.1
184.141	-53.19
184.363	-34.2
184.584	-56.17
184.805	-17.4
185.026	20.46
185.247	19.96
185.468	-29.07
185.689	-3.58
185.91	-26.33
186.132	5.75
186.353	7.3
186.574	37.62
186.795	70.94
187.016	76.83
187.237	59.14
187.458	59.49
187.679	64.36
187.9	49.84
188.121	77.33
188.342	96.96
188.563	114.9
188.784	98.79
189.005	71.01
189.226	53.91
189.447	43.27
189.667	40.38
189.888	26
190.109	18.55
190.33	38.44
190.551	28.43
190.772	31.71
190.993	18.7
191.214	20.07
191.434	5.82
191.655	-12.47
191.876	2.31
192.097	40.87
192.318	40.77
192.538	16.4
192.759	16.14
192.98	19.68
193.201	3.01
193.421	7.28
193.642	25.29
193.863	38.55
194.083	35.91
194.304	53.88
194.525	42.38
194.745	19.12
194.966	14.96
195.187	11.8
195.407	-8.7
195.628	2.04
195.848	17.08
196.069	5.72
196.29	5.77
196.51	12.23
196.731	9.29
196.951	-29.36
197.172	-8.76
197.392	-12.26
197.613	19.13
197.833	4.06
198.054	20.72
198.274	26.88
198.495	28.84
198.715	-0.9
198.936	37.72
199.156	40.49
199.377	29.38
199.597	39.64
199.817	60.17
200.038	16.69
200.258	32.03
200.479	43.97
200.699	38.83
200.919	40.65
201.14	55.56
201.36	50.32
201.58	16.6
201.801	15.17
202.021	4.62
202.241	14.51
202.461	18.04
202.682	57.87
202.902	63.39
203.122	61.19
203.342	53.4
203.563	51.49
203.783	50.31
204.003	21.54
204.223	34.19
204.443	54.16
204.663	51.99
204.884	48.63
205.104	40.32
205.324	74.85
205.544	35.4
205.764	67.21
205.984	51.77
206.204	86
206.424	44.64
206.644	56.28
206.864	14.58
207.084	26.11
207.304	13.51
207.525	16.93
207.745	19.47
207.964	24.98
208.184	27.84
208.404	27.47
208.624	30
208.844	28.92
209.064	36.37
209.284	0.46
209.504	-4.36
209.724	1.36
209.944	-8.53
210.164	-10.36
210.384	16.06
210.604	-9.99
210.823	-37.42
211.043	-8.08
211.263	-60.07
211.483	-19.56
211.703	5.22
211.922	6.8
212.142	28.24
212.362	33.92
212.582	33.69
212.801	30.56
213.021	30.56
213.241	-5.9
213.461	-6.44
213.68	6.36
213.9	2.1
214.12	-6.88
214.339	-6.51
214.559	4.62
214.779	13.71
214.998	13.1
215.218	25.67
215.438	29.52
215.657	34.57
215.877	7.7
216.096	34.35
216.316	37.76
216.535	41.14
216.755	34.9
216.974	45.75
217.194	32.4
217.413	34.36
217.633	34.43
217.852	31.54
218.072	39.78
218.291	53.21
218.511	32
218.73	33.63
218.95	9.83
219.169	-4.95
219.389	-6.89
219.608	2.46
219.827	16.82
220.047	43.47
220.266	22.98
220.485	7.49
220.705	23.84
220.924	11.01
221.143	8.09
221.363	29.41
221.582	27.49
221.801	28.14
222.021	27.43
222.24	16.98
222.459	39.45
222.678	47.4
222.897	40.43
223.117	33.74
223.336	54.49
223.555	37.65
223.774	44.76
223.993	45.98
224.213	69.14
224.432	56.46
224.651	47.71
224.87	39.92
225.089	56.29
225.308	51.69
225.527	40.76
225.746	29.12
225.965	20.12
226.184	0.3
226.404	-6.25
226.623	9.35
226.842	17.3
227.061	30.7
227.28	34.1
227.499	31.73
227.718	19.83
227.936	26.64
228.155	26.02
228.374	19.49
228.593	38.3
228.812	53.99
229.031	55.86
229.25	39.77
229.469	55.58
229.688	50.41
229.907	49.33
230.125	46.31
230.344	45.76
230.563	36.69
230.782	45.12
231.001	48.7
231.22	63.44
231.438	79.46
231.657	68.94
231.876	60.55
232.095	67.21
232.313	53.66
232.532	30.69
232.751	26.81
232.969	17.62
233.188	-4.57
233.407	-1.44
233.625	-0.98
233.844	21.92
234.063	16.37
234.281	25.44
234.5	32.37
234.719	25.02
234.937	8.99
235.156	-2.51
235.374	-18.25
235.593	-5.23
235.811	27.7
236.03	32.59
236.249	38.52
236.467	49.07
236.686	37.91
236.904	27.2
237.123	27.15
237.341	39.21
237.559	41.11
237.778	63.03
237.996	46.47
238.215	54.24
238.433	57.72
238.652	65.85
238.87	58.96
239.088	84.79
239.307	57.85
239.525	36.55
239.743	17.82
239.962	3.83
240.18	14.19
240.398	13
240.617	20.94
240.835	44.36
241.053	31.77
241.271	38.15
241.49	37.05
241.708	18.02
241.926	8.1
242.144	31.18
242.363	25.31
242.581	42.23
242.799	82.98
243.017	47.86
243.235	25.19
243.453	33.68
243.672	48.19
243.89	49.78
244.108	43.98
244.326	62.8
244.544	68.81
244.762	45.62
244.98	53.78
245.198	61.41
245.416	37.52
245.634	18.14
245.852	13.78
246.07	11.87
246.288	17.99
246.506	15.11
246.724	31.92
246.942	45.85
247.16	38.19
247.378	26.13
247.596	61.47
247.814	49.24
248.032	41.01
248.25	32.84
248.468	36.59
248.685	31.05
248.903	30.38
249.121	33.59
249.339	41.92
249.557	48.06
249.775	44.56
249.992	32.69
250.21	27.98
250.428	28.63
250.646	19.21
250.863	2.97
251.081	12.01
251.299	17.66
251.517	18.05
251.734	22.93
251.952	44.68
252.17	42.7
252.387	31.09
252.605	26.22
252.823	24.06
253.04	4.62
253.258	3.64
253.475	0.49
253.693	-23.02
253.911	-11.63
254.128	-4.57
254.346	1.68
254.563	21.04
254.781	33.16
254.998	31.33
255.216	7.66
255.433	-21.04
255.651	-2.9
255.868	-1.64
256.086	8.62
256.303	28.8
256.521	48.3
256.738	40.25
256.956	33.76
257.173	14.72
257.39	12.66
257.608	1.78
257.825	1.82
258.043	13.21
258.26	13.77
258.477	6.32
258.695	17.67
258.912	7.1
259.129	-6.17
259.346	10.08
259.564	30.6
259.781	13.91
259.998	28.22
260.216	44.04
260.433	32
260.65	30.22
260.867	39.41
261.084	33.4
261.302	26.31
261.519	29.46
261.736	16.51
261.953	13.11
262.17	17.76
262.387	12.39
262.604	16.29
262.822	27.93
263.039	27.07
263.256	18.48
263.473	19.93
263.69	17.68
263.907	15.23
264.124	35.33
264.341	44.24
264.558	39.73
264.775	55.8
264.992	52.26
265.209	22.06
265.426	27.38
265.643	23.67
265.86	-5.49
266.077	7.5
266.294	34.4
266.51	49.52
266.727	51.24
266.944	50.86
267.161	44.09
267.378	50.65
267.595	31.59
267.812	28.31
268.028	23.42
268.245	37.56
268.462	19.53
268.679	39.28
268.896	68.14
269.112	59.2
269.329	39.96
269.546	53.68
269.763	29.22
269.979	-2.09
270.196	17.72
270.413	13.46
270.629	1.21
270.846	3.22
271.063	14.07
271.279	1.01
271.496	-1.75
271.712	3.94
271.929	7.72
272.146	18.37
272.362	18.36
272.579	19.64
272.795	17.29
273.012	26.68
273.228	10.63
273.445	11.48
273.661	10.68
273.878	-6.06
274.094	-26.7
274.311	-9.76
274.527	-23.58
274.744	14.38
274.96	30.63
275.177	41.33
275.393	35.4
275.609	43.14
275.826	27.52
276.042	22.12
276.259	30.5
276.475	32.84
276.691	10.34
276.908	11.09
277.124	26.69
277.34	34.54
277.557	20.61
277.773	47.64
277.989	49.09
278.205	36.25
278.422	8.39
278.638	28.19
278.854	26.8
279.07	31.31
279.286	28.38
279.503	38.98
279.719	29.97
279.935	23.66
280.151	23.85
280.367	21.98
280.583	19.87
280.799	11.88
281.016	5.91
281.232	-2.99
281.448	-3.19
281.664	9.52
281.88	24.19
282.096	17.84
282.312	28.83
282.528	26.58
282.744	30.82
282.96	7.42
283.176	18.61
283.392	-32.27
283.608	-8.56
283.824	-17.7
284.04	-56.69
284.256	-32.84
284.471	-4.83
284.687	-21.03
284.903	-25.22
285.119	6.77
285.335	2.16
285.551	-13.86
285.767	-7.37
285.982	-0.37
286.198	-30.3
286.414	-29.36
286.63	23.89
286.846	29.29
287.061	21.15
287.277	37.28
287.493	37.87
287.709	24.72
287.924	18.76
288.14	24.45
288.356	37.4
288.571	44.45
288.787	38.08
289.003	49.81
289.218	54.44
289.434	30.5
289.65	32.22
289.865	31.12
290.081	32.7
290.296	33.22
290.512	35.91
290.727	37.02
290.943	38.76
291.159	24.23
291.374	13.53
291.59	13.57
291.805	-8.98
292.021	-19.99
292.236	-23.44
292.451	-9.41
292.667	-22.81
292.882	-1.35
293.098	1.21
293.313	6.57
293.529	11.61
293.744	8.9
293.959	-1.92
294.175	12.68
294.39	3.75
294.605	8.71
294.821	9.58
295.036	12.35
295.251	7.66
295.467	-1.56
295.682	-2.01
295.897	-8.21
296.112	-4.3
296.328	-2.19
296.543	6.79
296.758	3.02
296.973	10.87
297.188	6.92
297.404	-17.83
297.619	-19.8
297.834	-75.42
298.049	-45.34
298.264	-37.71
298.479	-1.84
298.694	31.45
298.909	48.1
299.125	42.08
299.34	45.05
299.555	40.33
299.77	35.17
299.985	26.46
300.2	23.46
300.415	21.36
300.63	30.43
300.845	13.75
301.06	22.75
301.275	23.07
301.49	27.34
301.704	11.38
301.919	13.53
302.134	6.94
302.349	20.18
302.564	16.95
302.779	15.49
302.994	29.85
303.209	42.51
303.423	33.17
303.638	43.97
303.853	30.77
304.068	7.14
304.283	1.95
304.497	4.09
304.712	8.59
304.927	32.97
305.142	53.45
305.356	57.69
305.571	45.1
305.786	49.45
306	48.71
306.215	28.2
306.43	24.84
306.644	20.15
306.859	18.71
307.074	14.46
307.288	29.43
307.503	31.84
307.717	41.83
307.932	33.95
308.147	34.6
308.361	26.84
308.576	13.15
308.79	4.28
309.005	-3.33
309.219	3.54
309.434	9.39
309.648	17.79
309.863	48.35
310.077	54.63
310.292	63.05
310.506	54.15
310.72	44.85
310.935	43.23
311.149	37.5
311.364	31.64
311.578	46.22
311.792	68.08
312.007	47.19
312.221	40.35
312.435	42.46
312.649	50.66
312.864	40.57
313.078	47.97
313.292	48.1
313.507	46.13
313.721	23.35
313.935	10.65
314.149	6.05
314.363	18.68
314.578	4.23
314.792	-34.96
315.006	-20.46
315.22	-16.23
315.434	-9.35
315.648	-2.98
315.862	22.78
316.077	14.84
316.291	19.79
316.505	-26.6
316.719	-11.72
316.933	-1.6
317.147	4.47
317.361	8.48
317.575	25.34
317.789	23.08
318.003	17.54
318.217	31.99
318.431	34.23
318.645	32.52
318.859	37.41
319.073	40.19
319.287	19.1
319.5	13.05
319.714	6.88
319.928	-13.48
320.142	-21.4
320.356	-1.97
320.57	-14.38
320.784	-7.26
320.997	-4.76
321.211	21.01
321.425	2.33
321.639	24.94
321.853	38.5
322.066	31.3
322.28	-0.26
322.494	10.65
322.707	10.44
322.921	4.99
323.135	21.24
323.349	40.54
323.562	27.64
323.776	33.13
323.989	35.62
324.203	18.38
324.417	14.36
324.63	17.22
324.844	3.74
325.057	-32.55
325.271	-12.54
325.485	-17.85
325.698	3.65
325.912	21.31
326.125	26.77
326.339	31.03
326.552	32.28
326.766	13
326.979	3.58
327.193	22.84
327.406	12.18
327.619	20.82
327.833	34.28
328.046	18.66
328.26	11.45
328.473	15.84
328.686	6.3
328.9	17.93
329.113	28.57
329.326	26.77
329.54	44.93
329.753	47.2
329.966	43.71
330.179	43.54
330.393	43.66
330.606	24.69
330.819	23.94
331.032	15.2
331.246	33.43
331.459	42
331.672	48.72
331.885	36.66
332.098	47.73
332.311	21.04
332.525	18.79
332.738	31.62
332.951	37.25
333.164	39.67
333.377	46.83
333.59	47.29
333.803	41.59
334.016	34.22
334.229	24.67
334.442	36.49
334.655	35.6
334.868	22.95
335.081	13.54
335.294	6.8
335.507	-5.19
335.72	-11.47
335.933	-9.77
336.146	11.66
336.359	24.44
336.572	17.69
336.785	40.14
336.997	44.27
337.21	47.9
337.423	28.86
337.636	31.2
337.849	2.57
338.062	8.84
338.274	8.56
338.487	5.8
338.7	-8.04
338.913	11.19
339.125	-0.49
339.338	-0.9
339.551	10.07
339.763	23.09
339.976	21.52
340.189	26.46
340.402	36.27
340.614	40.28
340.827	39.73
341.039	31.9
341.252	37.42
341.465	27.11
341.677	40.99
341.89	33.23
342.102	48.03
342.315	41.54
342.527	42.47
342.74	28.19
342.952	33.8
343.165	25.44
343.377	26.39
343.59	23.38
343.802	23.65
344.015	30.33
344.227	22.6
344.44	22.37
344.652	15.91
344.864	23.15
345.077	36.64
345.289	52.8
345.502	59.78
345.714	60.51
345.926	60.17
346.139	33.41
346.351	24.93
346.563	17.24
346.775	25.44
346.988	25.35
347.2	34.59
347.412	34.36
347.624	35.22
347.837	36.7
348.049	32.76
348.261	19.21
348.473	9.06
348.685	8.92
348.897	0.98
349.11	11.53
349.322	32.31
349.534	38.47
349.746	37.73
349.958	31.25
350.17	23.02
350.382	5.69
350.594	4.99
350.806	18.53
351.018	31.57
351.23	41.68
351.442	41.8
351.654	43.96
351.866	35.12
352.078	32.09
352.29	33.48
352.502	31.63
352.714	20
352.926	16.52
353.138	18.91
353.35	-3.15
353.561	6.51
353.773	8.04
353.985	10.42
354.197	2.3
354.409	6.26
354.621	-7.03
354.832	-4.49
355.044	-20.68
355.256	-13.68
355.468	-24.19
355.679	7.43
355.891	18.86
356.103	24.93
356.314	23.72
356.526	26.59
356.738	21.46
356.949	5.06
357.161	14.15
357.373	5.77
357.584	14.75
357.796	13.02
358.008	25.9
358.219	30.12
358.431	39.82
358.642	56.23
358.854	55.24
359.065	43.82
359.277	31.67
359.488	24.08
359.7	14.25
359.911	4.24
360.123	22.84
360.334	19.35
360.546	22.51
360.757	20.81
360.969	32.93
361.18	26.79
361.391	29.19
361.603	33.9
361.814	40.87
362.025	28.17
362.237	23.38
362.448	28.54
362.659	29.75
362.871	18.4
363.082	5.45
363.293	3.68
363.504	-19.5
363.716	-20.83
363.927	5.11
364.138	9.46
364.349	7.18
364.56	20.62
364.772	20.04
364.983	26.29
365.194	22.54
365.405	25.65
365.616	34.35
365.827	11.75
366.038	-2.58
366.25	11.61
366.461	14.16
366.672	7.14
366.883	22.43
367.094	22.61
367.305	7.06
367.516	11.71
367.727	11.81
367.938	15.55
368.149	3.53
368.36	10.62
368.571	-18.07
368.781	-37.33
368.992	-45.56
369.203	-30.63
369.414	-21.25
369.625	3.96
369.836	36.83
370.047	42.87
370.258	47.32
370.468	36.38
370.679	31.95
370.89	18.74
371.101	28.45
371.312	17.63
371.522	18.42
371.733	5.07
371.944	-0.52
372.155	-6.58
372.365	-5.96
372.576	0.06
372.787	6.9
372.997	4.34
373.208	-0.37
373.419	13.08
373.629	-0.77
373.84	-2.91
374.05	-3.96
374.261	-2.67
374.472	-13.33
374.682	2.18
374.893	-0.25
375.103	1.73
375.314	9.04
375.524	8.78
375.735	8.5
375.945	14.43
376.156	13.15
376.366	10.89
376.577	16.2
376.787	18.14
376.997	16.75
377.208	16.54
377.418	16.15
377.629	20.63
377.839	23.02
378.049	26.24
378.26	27.03
378.47	22.89
378.68	21.96
378.89	21.37
379.101	23.51
379.311	22.11
379.521	18.49
379.732	17.53
379.942	13.34
380.152	-1.59
380.362	8.04
380.572	18.98
380.783	27.18
380.993	34.44
381.203	44
381.413	37.75
381.623	34.37
381.833	27.88
382.043	14.27
382.253	19.41
382.463	35.35
382.674	34.06
382.884	37.23
383.094	42.76
383.304	35.52
383.514	27.6
383.724	24.57
383.934	8.61
384.144	8.38
384.353	11.02
384.563	8.17
384.773	16.4
384.983	17.19
385.193	18.44
385.403	14.48
385.613	13.79
385.823	6.3
386.033	9.13
386.242	2.68
386.452	-3.23
386.662	-8.8
386.872	-3.84
387.082	-0.44
387.291	-0.66
387.501	4.74
387.711	13.26
387.921	10.66
388.13	10.18
388.34	17.27
388.55	12.41
388.759	3.38
388.969	3.18
389.179	4.91
389.388	0.22
389.598	3.22
389.807	3.81
390.017	3.45
390.227	-1.51
390.436	-0.85
390.646	-0.29
390.855	0.38
391.065	2.83
391.274	4.53
391.484	4.92
391.693	2.16
391.903	7.68
392.112	5.84
392.322	6.03
392.531	6.47
392.74	8.13
392.95	5.27
393.159	4.42
393.369	5.16
393.578	5.03
393.787	4.93
393.997	4.94
394.206	5.25
394.415	3.89
394.625	2.92
394.834	1.54
395.043	2.25
395.252	4.04
395.462	5.19
395.671	5.16
395.88	7.3
396.089	6.78
396.298	6.03
396.508	6.27
396.717	6.21
396.926	5.26
397.135	5.74
397.344	5.55
397.553	5.3
397.762	6.24
397.971	6
398.181	5.62
398.39	5.24
398.599	4.8
398.808	4.54
399.017	5.48
399.226	5.32
399.435	5.26
399.644	5.57
399.853	5.45
400.062	4.59
400.27	4.47
400.479	4.68
400.688	4.51
400.897	4.26
401.106	4.65
401.315	4.64
401.524	4.35
401.733	4.32
401.941	4.24
402.15	3.79
402.359	3.71
402.568	3.79
402.777	4.08
402.985	4.11
403.194	4.34
403.403	4.43
403.612	4.5
403.82	4.15
404.029	4.19
404.238	4.13
404.446	4.27
404.655	4.18
404.864	4.23
405.072	4.18
405.281	4.12
405.489	3.84
405.698	4
405.906	4.03
406.115	4.07
406.324	3.98
406.532	4.14
406.741	3.91
406.949	3.85
407.158	3.83
407.366	3.82
407.574	3.7
407.783	3.66
407.991	3.73
408.2	3.77
408.408	3.96
408.617	3.99
408.825	4
409.033	3.83
409.242	3.86
409.45	3.68
409.658	3.56
409.867	3.67
410.075	3.85
410.283	3.72
410.491	3.67
410.7	3.67
410.908	3.58
411.116	3.57
411.324	3.59
411.533	3.73
411.741	3.73
411.949	3.73
412.157	3.64
412.365	3.67
412.573	3.69
412.781	3.8
412.99	3.81
413.198	3.91
413.406	3.95
413.614	3.95
413.822	3.88
414.03	3.94
414.238	3.73
414.446	3.71
414.654	3.56
414.862	3.6
415.07	3.61
415.278	3.71
415.486	3.52
415.694	3.52
415.902	3.55
416.109	3.37
416.317	3.4
416.525	3.46
416.733	3.45
416.941	3.27
417.149	3.18
417.357	3.13
417.564	3.19
417.772	3.27
417.98	3.36
418.188	3.37
418.395	3.18
418.603	3.04
418.811	2.9
419.019	2.97
419.226	3.08
419.434	3.27
419.642	3.24
419.849	3.34
420.057	3.36
420.265	3.4
420.472	3.35
420.68	3.42
420.887	3.35
421.095	3.44
421.302	3.45
421.51	3.45
421.717	3.44
421.925	3.42
422.132	3.21
422.34	2.96
422.547	2.95
422.755	3.05
422.962	3.04
423.17	2.95
423.377	3.15
423.585	3.3
423.792	3.17
423.999	3.19
424.207	3.15
424.414	3.16
424.621	3.12
424.829	3.13
425.036	3.21
425.243	3.27
425.451	3.25
425.658	3.2
425.865	3.25
426.072	3.1
426.28	3.25
426.487	3.23
426.694	3.13
426.901	3.09
427.108	3.16
427.315	3.02
427.523	2.91
427.73	2.97
427.937	2.82
428.144	2.85
428.351	2.78
428.558	2.97
428.765	2.9
428.972	3.13
429.179	3
429.386	3.26
429.593	3.1
429.8	3.17
430.007	3.11
430.214	3.08
430.421	3.13
430.628	3.04
430.835	3.06
431.042	3.03
431.249	3.18
431.456	3.07
431.662	3.25
431.869	3.34
432.076	3.4
432.283	3.42
432.49	3.3
432.697	3.33
432.903	3.19
433.11	3.22
433.317	3.27
433.524	3.37
433.73	3.31
433.937	3.46
434.144	3.22
434.35	3.08
434.557	3.02
434.764	3.04
434.97	2.88
435.177	3.19
435.384	3.31
435.59	3.43
435.797	3.43
436.003	3.51
436.21	3.35
436.416	3.37
436.623	3.34
436.829	3.32
437.036	3.29
437.242	3.36
437.449	3.31
437.655	3.34
437.862	3.44
438.068	3.39
438.275	3.43
438.481	3.45
438.687	3.4
438.894	3.43
439.1	3.44
439.307	3.53
439.513	3.64
439.719	3.74
439.926	3.69
440.132	3.81
440.338	3.77
440.544	3.66
440.751	3.51
440.957	3.54
441.163	3.42
441.369	3.43
441.575	3.42
441.782	3.53
441.988	3.53
442.194	3.57
442.4	3.49
442.606	3.65
442.812	3.57
443.018	3.55
443.224	3.74
443.431	3.83
443.637	3.71
443.843	3.88
444.049	3.93
444.255	3.83
444.461	3.74
444.667	3.67
444.873	3.53
445.079	3.52
445.284	3.49
445.49	3.49
445.696	3.5
445.902	3.57
446.108	3.52
446.314	3.47
446.52	3.63
446.726	3.76
446.931	3.74
447.137	3.73
447.343	3.8
447.549	3.81
447.755	3.72
447.96	3.76
448.166	3.8
448.372	3.81
448.578	3.64
448.783	3.69
448.989	3.65
449.195	3.7
449.4	3.75
449.606	3.74
449.812	3.69
450.017	3.8
450.223	3.75
450.428	3.7
450.634	3.8
450.84	3.8
451.045	3.74
451.251	3.79
451.456	3.81
451.662	3.86
451.867	3.95
452.073	3.93
452.278	3.91
452.483	3.93
452.689	3.94
452.894	3.98
453.1	3.99
453.305	4.03
453.51	4.01
453.716	3.85
453.921	3.8
454.127	3.78
454.332	3.72
454.537	3.69
454.742	3.77
454.948	3.72
455.153	3.74
455.358	3.71
455.563	3.83
455.769	3.82
455.974	3.77
456.179	3.78
456.384	3.82
456.589	3.61
456.795	3.61
457	3.67
457.205	3.52
457.41	3.46
457.615	3.56
457.82	3.65
458.025	3.66
458.23	3.72
458.435	3.82
458.64	3.81
458.845	3.78
459.05	3.8
459.255	3.78
459.46	3.73
459.665	3.77
459.87	3.68
460.075	3.71
460.28	3.83
460.485	3.96
460.69	3.92
460.895	3.98
461.099	3.91
461.304	3.86
461.509	3.83
461.714	3.84
461.919	3.81
462.123	3.81
462.328	3.67
462.533	3.51
462.738	3.47
462.942	3.42
463.147	3.46
463.352	3.59
463.556	3.63
463.761	3.65
463.966	3.64
464.17	3.68
464.375	3.75
464.58	3.72
464.784	3.81
464.989	3.92
465.193	3.86
465.398	3.82
465.602	4.06
465.807	4.03
466.011	4.01
466.216	3.93
466.42	3.95
466.625	3.91
466.829	3.93
467.034	3.98
467.238	4.16
467.443	4.13
467.647	4.06
467.851	4.12
468.056	4.11
468.26	4.04
468.464	4.08
468.669	4.12
468.873	4.18
469.077	4.19
469.282	4.26
469.486	4.3
469.69	4.31
469.894	4.22
470.099	4.24
470.303	4.18
470.507	4.15
470.711	4.07
470.915	4.12
471.119	4.21
471.324	4.33
471.528	4.42
471.732	4.52
471.936	4.52
472.14	4.44
472.344	4.48
472.548	4.46
472.752	4.39
472.956	4.42
473.16	4.44
473.364	4.39
473.568	4.31
473.772	4.29
473.976	4.25
474.18	4.31
474.384	4.29
474.588	4.41
474.792	4.44
474.995	4.49
475.199	4.45
475.403	4.52
475.607	4.54
475.811	4.6
476.015	4.5
476.218	4.5
476.422	4.4
476.626	4.41
476.83	4.53
477.033	4.64
477.237	4.68
477.441	4.74
477.644	4.69
477.848	4.65
478.052	4.66
478.255	4.68
478.459	4.65
478.663	4.75
478.866	4.76
479.07	4.75
479.273	4.85
479.477	4.88
479.681	4.84
479.884	4.89
480.088	4.95
480.291	4.84
480.495	4.82
480.698	4.85
480.901	4.82
481.105	4.83
481.308	4.89
481.512	4.93
481.715	5.03
481.919	5.1
482.122	5.09
482.325	5.13
482.529	5.15
482.732	5.01
482.935	4.95
483.138	4.91
483.342	4.93
483.545	5.02
483.748	5.06
483.952	5.08
484.155	5.14
484.358	5.16
484.561	5.09
484.764	5.17
484.967	5.1
485.171	5.1
485.374	5.02
485.577	5.05
485.78	5.01
485.983	5.02
486.186	4.97
486.389	5.01
486.592	4.99
486.795	4.98
486.998	5.03
487.201	5.17
487.404	5.27
487.607	5.36
487.81	5.36
488.013	5.41
488.216	5.36
488.419	5.28
488.622	5.23
488.825	5.27
489.028	5.23
489.231	5.28
489.433	5.36
489.636	5.36
489.839	5.42
490.042	5.47
490.245	5.42
490.447	5.42
490.65	5.53
490.853	5.53
491.056	5.58
491.258	5.65
491.461	5.66
491.664	5.66
491.866	5.68
492.069	5.77
492.272	5.79
492.474	5.83
492.677	5.85
492.879	5.91
493.082	5.93
493.285	6.04
493.487	6.1
493.69	6.14
493.892	6.2
494.095	6.22
494.297	6.24
494.5	6.31
494.702	6.42
494.905	6.45
495.107	6.52
495.309	6.59
495.512	6.63
495.714	6.73
495.917	6.82
496.119	6.89
496.321	6.92
496.524	6.94
496.726	6.88
496.928	6.91
497.13	6.94
497.333	6.92
497.535	7.06
497.737	7.15
497.939	7.2
498.142	7.22
498.344	7.3
498.546	7.25
498.748	7.31
498.95	7.41
499.152	7.51
499.355	7.55
499.557	7.64
499.759	7.73
499.961	7.71
500.163	7.78
500.365	7.92
500.567	7.95
500.769	7.97
500.971	8.04
501.173	8.03
501.375	8.06
501.577	8.14
501.779	8.14
501.981	8.19
502.183	8.21
502.385	8.24
502.587	8.22
502.788	8.29
502.99	8.27
503.192	8.3
503.394	8.32
503.596	8.35
503.798	8.31
503.999	8.39
504.201	8.36
504.403	8.36
504.605	8.47
504.806	8.54
505.008	8.55
505.21	8.66
505.411	8.71
505.613	8.63
505.815	8.66
506.016	8.66
506.218	8.62
506.42	8.59
506.621	8.63
506.823	8.6
507.024	8.64
507.226	8.68
507.427	8.66
507.629	8.66
507.83	8.66
508.032	8.62
508.233	8.63
508.435	8.68
508.636	8.71
508.838	8.66
509.039	8.62
509.24	8.62
509.442	8.58
509.643	8.55
509.845	8.62
510.046	8.61
510.247	8.56
510.448	8.59
510.65	8.52
510.851	8.55
511.052	8.55
511.254	8.63
511.455	8.56
511.656	8.6
511.857	8.59
512.058	8.62
512.26	8.54
512.461	8.6
512.662	8.61
512.863	8.49
513.064	8.5
513.265	8.48
513.466	8.52
513.667	8.52
513.868	8.58
514.069	8.52
514.27	8.61
514.471	8.52
514.672	8.5
514.873	8.48
515.074	8.55
515.275	8.49
515.476	8.56
515.677	8.64
515.878	8.66
516.079	8.65
516.28	8.66
516.481	8.68
516.682	8.62
516.882	8.64
517.083	8.66
517.284	8.68
517.485	8.64
517.686	8.69
517.886	8.66
518.087	8.68
518.288	8.66
518.488	8.69
518.689	8.65
518.89	8.68
519.091	8.68
519.291	8.7
519.492	8.73
519.692	8.75
519.893	8.79
520.094	8.76
520.294	8.79
520.495	8.78
520.695	8.78
520.896	8.76
521.096	8.84
521.297	8.83
521.497	8.79
521.698	8.77
521.898	8.75
522.099	8.71
522.299	8.71
522.499	8.73
522.7	8.83
522.9	8.91
523.101	8.93
523.301	8.96
523.501	8.96
523.702	8.93
523.902	8.94
524.102	8.96
524.302	8.98
524.503	9.04
524.703	9
524.903	8.97
525.103	8.95
525.304	8.95
525.504	8.96
525.704	8.96
525.904	8.93
526.104	8.97
526.304	9.01
526.504	9
526.705	9.04
526.905	9.09
527.105	9.11
527.305	9.1
527.505	9.05
527.705	9.05
527.905	9.08
528.105	9.02
528.305	9.02
528.505	9.05
528.705	9.12
528.905	9.14
529.105	9.19
529.304	9.2
529.504	9.23
529.704	9.22
529.904	9.2
530.104	9.26
530.304	9.29
530.503	9.38
530.703	9.37
530.903	9.39
531.103	9.46
531.303	9.45
531.502	9.48
531.702	9.53
531.902	9.61
532.101	9.56
532.301	9.61
532.501	9.65
532.7	9.7
532.9	9.69
533.1	9.73
533.299	9.71
533.499	9.67
533.698	9.69
533.898	9.8
534.097	9.78
534.297	9.83
534.496	9.82
534.696	9.84
534.895	9.83
535.095	9.92
535.294	10
535.494	10.04
535.693	10.07
535.892	10
536.092	9.98
536.291	9.93
536.491	10
536.69	10.04
536.889	10.09
537.088	10.15
537.288	10.23
537.487	10.26
537.686	10.17
537.886	10.22
538.085	10.2
538.284	10.23
538.483	10.24
538.682	10.34
538.882	10.34
539.081	10.41
539.28	10.39
539.479	10.39
539.678	10.4
539.877	10.43
540.076	10.47
540.275	10.52
540.474	10.51
540.673	10.56
540.872	10.63
541.071	10.69
541.27	10.78
541.469	10.87
541.668	10.9
541.867	10.93
542.066	10.95
542.265	10.99
542.464	11.03
542.663	11.12
542.862	11.2
543.06	11.22
543.259	11.26
543.458	11.34
543.657	11.37
543.856	11.4
544.054	11.43
544.253	11.45
544.452	11.49
544.651	11.52
544.849	11.55
545.048	11.64
545.247	11.73
545.445	11.74
545.644	11.73
545.843	11.79
546.041	11.82
546.24	11.8
546.438	11.9
546.637	12.04
546.836	12.08
547.034	12.11
547.233	12.22
547.431	12.21
547.63	12.17
547.828	12.25
548.027	12.3
548.225	12.28
548.423	12.34
548.622	12.47
548.82	12.51
549.019	12.6
549.217	12.69
549.415	12.74
549.614	12.84
549.812	12.83
550.01	12.89
550.209	13.01
550.407	13.14
550.605	13.1
550.803	13.21
551.002	13.29
551.2	13.25
551.398	13.35
551.596	13.5
551.794	13.62
551.993	13.66
552.191	13.75
552.389	13.79
552.587	13.86
552.785	13.91
552.983	14.07
553.181	14.22
553.379	14.32
553.577	14.31
553.775	14.41
553.973	14.47
554.171	14.49
554.369	14.57
554.567	14.79
554.765	14.83
554.963	14.9
555.161	15.01
555.359	15.08
555.557	15.13
555.755	15.24
555.952	15.39
556.15	15.47
556.348	15.55
556.546	15.72
556.744	15.83
556.941	15.85
557.139	15.92
557.337	16.09
557.535	16.04
557.732	16.08
557.93	16.26
558.128	16.4
558.325	16.5
558.523	16.73
558.721	16.88
558.918	16.96
559.116	17.1
559.313	17.14
559.511	17.11
559.708	17.17
559.906	17.28
560.104	17.33
560.301	17.45
560.498	17.61
560.696	17.73
560.893	17.87
561.091	18.02
561.288	18.16
561.486	18.23
561.683	18.4
561.88	18.51
562.078	18.61
562.275	18.72
562.473	18.87
562.67	18.92
562.867	18.98
563.064	19.14
563.262	19.2
563.459	19.43
563.656	19.6
563.853	19.65
564.051	19.67
564.248	19.76
564.445	19.78
564.642	19.86
564.839	20.12
565.036	20.3
565.234	20.51
565.431	20.59
565.628	20.69
565.825	20.74
566.022	20.9
566.219	20.83
566.416	20.93
566.613	21.06
566.81	21.17
567.007	21.16
567.204	21.31
567.401	21.35
567.598	21.47
567.795	21.5
567.991	21.55
568.188	21.68
568.385	21.79
568.582	21.94
568.779	22.03
568.976	22.24
569.172	22.33
569.369	22.54
569.566	22.46
569.763	22.53
569.96	22.63
570.156	22.74
570.353	22.67
570.55	22.8
570.746	22.95
570.943	23
571.14	23.02
571.336	23.11
571.533	23.16
571.729	23.16
571.926	23.14
572.123	23.21
572.319	23.25
572.516	23.35
572.712	23.38
572.909	23.41
573.105	23.45
573.302	23.5
573.498	23.53
573.695	23.6
573.891	23.64
574.087	23.58
574.284	23.65
574.48	23.61
574.677	23.62
574.873	23.65
575.069	23.81
575.266	23.88
575.462	23.98
575.658	24.08
575.854	24.14
576.051	24.17
576.247	24.07
576.443	24.04
576.639	24.04
576.835	24.02
577.032	23.99
577.228	24.08
577.424	24.1
577.62	23.97
577.816	24.03
578.012	24.14
578.208	24.14
578.404	24.14
578.6	24.26
578.796	24.25
578.993	24.18
579.189	24.23
579.384	24.25
579.58	24.17
579.776	24.14
579.972	24.15
580.168	24.05
580.364	24.04
580.56	24.05
580.756	24.01
580.952	24.02
581.148	24.11
581.343	24.11
581.539	24.21
581.735	24.25
581.931	24.18
582.127	24
582.322	23.97
582.518	23.83
582.714	23.84
582.909	23.85
583.105	23.86
583.301	23.87
583.496	23.81
583.692	23.67
583.888	23.64
584.083	23.67
584.279	23.54
584.474	23.64
584.67	23.69
584.866	23.68
585.061	23.76
585.257	23.9
585.452	23.83
585.648	23.75
585.843	23.69
586.039	23.66
586.234	23.6
586.429	23.53
586.625	23.61
586.82	23.62
587.015	23.58
587.211	23.57
587.406	23.66
587.601	23.63
587.797	23.61
587.992	23.56
588.187	23.57
588.383	23.56
588.578	23.57
588.773	23.59
588.968	23.69
589.163	23.74
589.359	23.73
589.554	23.68
589.749	23.65
589.944	23.66
590.139	23.62
590.334	23.74
590.529	23.85
590.724	23.98
590.919	24.06
591.114	24.09
591.309	24.04
591.504	23.99
591.699	23.95
591.894	23.87
592.089	23.89
592.284	23.99
592.479	24.05
592.674	24.13
592.869	24.19
593.064	24.31
593.259	24.31
593.454	24.38
593.648	24.5
593.843	24.6
594.038	24.62
594.233	24.63
594.428	24.73
594.622	24.74
594.817	24.89
595.012	24.9
595.206	25.06
595.401	25.2
595.596	25.2
595.79	25.14
595.985	25.25
596.18	25.38
596.374	25.4
596.569	25.62
596.763	25.75
596.958	25.78
597.153	25.73
597.347	25.75
597.542	25.64
597.736	25.7
597.931	25.77
598.125	25.95
598.319	26.02
598.514	26.17
598.708	26.28
598.903	26.39
599.097	26.39
599.291	26.48
599.486	26.59
599.68	26.62
599.874	26.72
600.069	26.71
600.263	26.82
600.457	26.81
600.651	26.83
600.846	26.87
601.04	26.96
601.234	26.95
601.428	27.04
601.622	27.19
601.817	27.18
602.011	27.21
602.205	27.29
602.399	27.19
602.593	27.16
602.787	27.13
602.981	27.05
603.175	27.06
603.369	27.19
603.563	27.24
603.757	27.23
603.951	27.34
604.145	27.27
604.339	27.26
604.533	27.09
604.727	27.12
604.921	27.03
605.115	27.02
605.309	26.9
605.502	27
605.696	26.95
605.89	27.05
606.084	27.03
606.278	27.06
606.471	26.95
606.665	26.9
606.859	26.75
607.053	26.68
607.246	26.5
607.44	26.33
607.634	26.3
607.827	26.26
608.021	26.18
608.214	26.21
608.408	26.21
608.602	26.04
608.795	26.01
608.989	25.94
609.182	25.87
609.376	25.87
609.569	25.92
609.763	25.8
609.956	25.79
610.15	25.65
610.343	25.59
610.537	25.44
610.73	25.29
610.923	25.16
611.117	25.22
611.31	25.08
611.504	25.1
611.697	25.1
611.89	24.97
612.083	24.72
612.277	24.65
612.47	24.47
612.663	24.36
612.856	24.24
613.05	24.25
613.243	24.13
613.436	24.05
613.629	23.85
613.822	23.87
614.015	23.67
614.209	23.6
614.402	23.45
614.595	23.52
614.788	23.42
614.981	23.4
615.174	23.25
615.367	23.29
615.56	23.04
615.753	23
615.946	22.87
616.139	22.82
616.332	22.69
616.525	22.71
616.718	22.65
616.911	22.71
617.103	22.73
617.296	22.77
617.489	22.69
617.682	22.64
617.875	22.6
618.067	22.51
618.26	22.36
618.453	22.34
618.646	22.25
618.838	22.16
619.031	22.2
619.224	22.17
619.417	22.14
619.609	22.14
619.802	22.11
619.994	21.96
620.187	21.87
620.38	21.9
620.572	21.82
620.765	21.74
620.957	21.71
621.15	21.72
621.342	21.62
621.535	21.56
621.727	21.49
621.92	21.45
622.112	21.42
622.305	21.4
622.497	21.38
622.69	21.36
622.882	21.36
623.074	21.38
623.267	21.37
623.459	21.36
623.651	21.38
623.844	21.43
624.036	21.4
624.228	21.4
624.42	21.28
624.613	21.24
624.805	21.09
624.997	20.99
625.189	20.95
625.381	21.01
625.574	20.98
625.766	20.94
625.958	20.95
626.15	20.93
626.342	20.95
626.534	20.93
626.726	20.93
626.918	20.88
627.11	20.79
627.302	20.74
627.494	20.74
627.686	20.74
627.878	20.69
628.07	20.71
628.262	20.69
628.454	20.64
628.646	20.58
628.838	20.72
629.029	20.64
629.221	20.51
629.413	20.46
629.605	20.41
629.797	20.23
629.989	20.18
630.18	20.23
630.372	20.21
630.564	20.18
630.755	20.14
630.947	20.12
631.139	20.09
631.33	20.07
631.522	20.03
631.714	19.93
631.905	19.85
632.097	19.77
632.289	19.72
632.48	19.69
632.672	19.73
632.863	19.72
633.055	19.66
633.246	19.66
633.438	19.61
633.629	19.65
633.821	19.64
634.012	19.71
634.203	19.61
634.395	19.65
634.586	19.57
634.777	19.53
634.969	19.51
635.16	19.58
635.351	19.52
635.543	19.42
635.734	19.42
635.925	19.37
636.117	19.36
636.308	19.39
636.499	19.52
636.69	19.54
636.881	19.48
637.073	19.45
637.264	19.38
637.455	19.25
637.646	19.22
637.837	19.27
638.028	19.18
638.219	19.21
638.41	19.28
638.601	19.25
638.792	19.21
638.983	19.25
639.174	19.18
639.365	19.19
639.556	19.07
639.747	19.01
639.938	19.01
640.129	19.05
640.32	18.92
640.511	18.96
640.701	19.03
640.892	18.95
641.083	18.87
641.274	18.85
641.465	18.82
641.655	18.74
641.846	18.72
642.037	18.66
642.228	18.61
642.418	18.52
642.609	18.51
642.8	18.5
642.99	18.49
643.181	18.61
643.372	18.57
643.562	18.5
643.753	18.53
643.943	18.5
644.134	18.31
644.324	18.39
644.515	18.38
644.705	18.29
644.896	18.25
645.086	18.35
645.277	18.26
645.467	18.15
645.658	18.05
645.848	18.05
646.038	18
646.229	18
646.419	17.96
646.61	18
646.8	17.99
646.99	17.9
647.18	17.87
647.371	17.81
647.561	17.75
647.751	17.69
647.941	17.72
648.132	17.74
648.322	17.81
648.512	17.81
648.702	17.87
648.892	17.84
649.082	17.85
649.272	17.8
649.462	17.84
649.653	17.73
649.843	17.64
650.033	17.58
650.223	17.56
650.413	17.53
650.603	17.55
650.793	17.53
650.983	17.44
651.172	17.39
651.362	17.28
651.552	17.13
651.742	17.03
651.932	17.01
652.122	17
652.312	16.92
652.502	16.93
652.691	16.93
652.881	16.84
653.071	16.66
653.261	16.66
653.45	16.53
653.64	16.36
653.83	16.32
654.019	16.23
654.209	16.11
654.399	16.04
654.588	16.07
654.778	15.85
654.968	15.78
655.157	15.64
655.347	15.46
655.536	15.22
655.726	15.01
655.915	14.82
656.105	14.6
656.294	14.39
656.484	14.16
656.673	14.08
656.863	14
657.052	13.82
657.241	13.78
657.431	13.65
657.62	13.58
657.809	13.34
657.999	13.33
658.188	13.1
658.377	13.06
658.567	12.84
658.756	12.73
658.945	12.42
659.134	12.3
659.324	12.09
659.513	12.02
659.702	11.78
659.891	11.77
660.08	11.54
660.269	11.32
660.458	11.02
660.648	10.94
660.837	10.76
661.026	10.56
661.215	10.44
661.404	10.34
661.593	10.17
661.782	10.01
661.971	9.97
662.16	9.79
662.349	9.63
662.538	9.54
662.726	9.35
662.915	9.23
663.104	9.09
663.293	9.12
663.482	9
663.671	8.88
663.86	8.8
664.048	8.84
664.237	8.72
664.426	8.56
664.615	8.5
664.803	8.37
664.992	8.18
665.181	8.05
665.369	7.93
665.558	7.86
665.747	7.88
665.935	7.9
666.124	7.91
666.312	7.9
666.501	7.8
666.69	7.68
666.878	7.58
667.067	7.37
667.255	7.33
667.444	7.4
667.632	7.44
667.82	7.47
668.009	7.46
668.197	7.44
668.386	7.34
668.574	7.23
668.762	7.05
668.951	7.08
669.139	6.95
669.327	7.01
669.516	7.08
669.704	7.14
669.892	7.1
670.08	7.2
670.269	7.22
670.457	7.15
670.645	7.19
670.833	7.35
671.021	7.37
671.21	7.29
671.398	7.34
671.586	7.36
671.774	7.39
671.962	7.41
672.15	7.48
672.338	7.42
672.526	7.47
672.714	7.41
672.902	7.35
673.09	7.48
673.278	7.72
673.466	7.78
673.654	7.84
673.842	8.06
674.03	7.98
674.218	7.9
674.405	7.92
674.593	7.99
674.781	7.97
674.969	8.21
675.157	8.23
675.344	8.23
675.532	8.21
675.72	8.31
675.908	8.21
676.095	8.26
676.283	8.42
676.471	8.49
676.658	8.51
676.846	8.56
677.033	8.66
677.221	8.73
677.409	8.85
677.596	8.92
677.784	9.12
677.971	9.22
678.159	9.21
678.346	9.28
678.534	9.31
678.721	9.3
678.909	9.47
679.096	9.69
679.283	9.85
679.471	10.11
679.658	10.23
679.846	10.23
680.033	10.45
680.22	10.56
680.408	10.63
680.595	10.8
680.782	10.96
680.969	11.07
681.157	11.2
681.344	11.23
681.531	11.32
681.718	11.55
681.905	11.61
682.093	11.73
682.28	12.05
682.467	12.39
682.654	12.38
682.841	12.6
683.028	12.78
683.215	12.89
683.402	12.82
683.589	13.16
683.776	13.22
683.963	13.48
684.15	13.81
684.337	14.11
684.524	14.37
684.711	14.7
684.898	14.85
685.085	14.98
685.271	15.39
685.458	15.6
685.645	15.8
685.832	16.18
686.019	16.56
686.205	16.73
686.392	17.17
686.579	17.61
686.766	18.06
686.952	18.28
687.139	18.76
687.326	19.28
687.512	19.59
687.699	20.05
687.886	20.47
688.072	20.75
688.259	20.94
688.445	21.62
688.632	21.98
688.818	22.61
689.005	23.31
689.191	23.95
689.378	24.4
689.564	25.14
689.751	25.82
689.937	26.59
690.124	27.28
690.31	27.74
690.496	28.28
690.683	28.76
690.869	29.24
691.055	29.93
691.242	30.75
691.428	31.42
691.614	32.25
691.8	33.06
691.987	33.8
692.173	34.75
692.359	35.49
692.545	36.32
692.731	37.08
692.918	37.64
693.104	38.32
693.29	39.05
693.476	39.88
693.662	40.53
693.848	41.31
694.034	42.1
694.22	43.03
694.406	43.57
694.592	44.63
694.778	45.44
694.964	46.07
695.15	46.82
695.336	47.77
695.522	48.33
695.708	49.34
695.894	50.05
696.08	50.91
696.265	51.92
696.451	52.65
696.637	53.28
696.823	54.21
697.009	54.8
697.194	55.23
697.38	56.2
697.566	56.83
697.751	57.49
697.937	58.58
698.123	59.29
698.308	59.53
698.494	60.38
698.68	61.06
698.865	61.4
699.051	62.18
699.236	63.09
699.422	63.59
699.607	63.99
699.793	64.7
699.978	65.14
700.164	65.66
700.349	66.62
700.535	67.29
700.72	67.69
700.906	68.77
701.091	69.52
701.276	69.78
701.462	70.65
701.647	71.15
701.832	71.21
702.018	71.96
702.203	72.56
702.388	72.8
702.573	73.54
702.759	74.18
702.944	74.1
703.129	74.34
703.314	74.92
703.499	75.15
703.684	75.41
703.87	76.18
704.055	76.93
704.24	77.45
704.425	78.22
704.61	78.65
704.795	78.97
704.98	79.1
705.165	79.29
705.35	79.56
705.535	79.9
705.72	80.25
705.905	80.74
706.09	81.18
706.275	81.1
706.459	81.72
706.644	82.14
706.829	82.71
707.014	83.12
707.199	83.81
707.384	84.33
707.568	84.44
707.753	84.57
707.938	84.48
708.123	84.81
708.307	84.55
708.492	85.26
708.677	85.28
708.861	85.59
709.046	85.67
709.231	85.85
709.415	85.54
709.6	85.66
709.784	85.91
709.969	86.31
710.153	86.23
710.338	86.72
710.522	87.17
710.707	87.5
710.891	87.6
711.076	88
711.26	88.04
711.445	88.33
711.629	88.55
711.813	88.79
711.998	89.51
712.182	89.67
712.366	90.34
712.551	90.38
712.735	90.56
712.919	90.66
713.103	91.24
713.288	90.85
713.472	91.39
713.656	91.28
713.84	91.12
714.024	90.95
714.208	90.83
714.393	90.78
714.577	91.12
714.761	91.44
714.945	91.61
715.129	92.23
715.313	92.11
715.497	92.02
715.681	91.82
715.865	91.68
716.049	91.62
716.233	91.46
716.417	91.65
716.601	92
716.785	92.45
716.968	92.51
717.152	93.54
717.336	93.79
717.52	94.18
717.704	94.49
717.888	94.93
718.071	94.37
718.255	94.45
718.439	94.14
718.622	94.16
718.806	94.12
718.99	94.49
719.174	94.64
719.357	94.75
719.541	94.77
719.724	95.08
719.908	95.07
720.092	94.9
720.275	95.03
720.459	94.81
720.642	94.96
720.826	95.08
721.009	95.53
721.193	95.44
721.376	95.49
721.559	95.04
721.743	95.33
721.926	95.32
722.11	95.62
722.293	96.52
722.476	96.15
722.66	96.3
722.843	95.85
723.026	96.13
723.21	95.75
723.393	96.55
723.576	96.3
723.759	97.05
723.942	97.32
724.126	97.37
724.309	97.1
724.492	97.65
724.675	97.11
724.858	97.31
725.041	97.3
725.224	97.63
725.407	97.38
725.59	98.22
725.774	97.76
725.957	97.93
726.14	97.7
726.322	98.24
726.505	97.63
726.688	97.72
726.871	97.2
727.054	97.97
727.237	97.33
727.42	97.52
727.603	97.91
727.786	98.7
727.968	97.84
728.151	98.09
728.334	98.84
728.517	98.76
728.699	98.58
728.882	98.78
729.065	98.6
729.248	98.88
729.43	99.13
729.613	99.38
729.796	100.55
729.978	100.53
730.161	100.9
730.343	101.11
730.526	101.23
730.708	100.2
730.891	101.24
731.073	100.98
731.256	101.18
731.438	102.22
731.621	102.45
731.803	101.74
731.986	101.61
732.168	101.87
732.35	101.14
732.533	101.34
732.715	101.54
732.898	101.3
733.08	100.77
733.262	100.74
733.444	101.67
733.627	102.26
733.809	102.96
733.991	103.08
734.173	102.59
734.355	102.12
734.538	102.34
734.72	102.23
734.902	102.72
735.084	103.36
735.266	103.72
735.448	103.43
735.63	103.47
735.812	103.04
735.994	103.31
736.176	102.99
736.358	103.03
736.54	103.93
736.722	104.11
736.904	103.94
737.086	103.02
737.268	104
737.45	103.28
737.632	103.12
737.814	103.14
737.995	104.24
738.177	103.75
738.359	103.35
738.541	103.02
738.723	102.57
738.904	102.33
739.086	102.44
739.268	102.07
739.449	102.2
739.631	102.68
739.813	102.94
739.994	102.53
740.176	102.78
740.358	103.37
740.539	103.51
740.721	103.57
740.902	104.27
741.084	104.85
741.265	105.09
741.447	105.56
741.628	106.46
741.81	106.48
741.991	106.79
742.172	106.45
742.354	106.42
742.535	106.14
742.717	105.23
742.898	104.39
743.079	105.97
743.261	105.93
743.442	104.35
743.623	104.86
743.804	104.87
743.986	103.51
744.167	102.83
744.348	103.92
744.529	103.97
744.71	104.59
744.891	104.36
745.073	104.73
745.254	104.64
745.435	104.48
745.616	103.77
745.797	103.22
745.978	103.13
746.159	103.41
746.34	104.39
746.521	104.8
746.702	105.74
746.883	105.79
747.064	105.61
747.245	104.92
747.426	104.91
747.606	104.81
747.787	105.11
747.968	104.82
748.149	104.16
748.33	103.5
748.51	102.93
748.691	102.31
748.872	102.92
749.053	102.79
749.233	103.55
749.414	103.58
749.595	103.86
749.775	103.09
749.956	104.35
750.137	103.26
750.317	103.84
750.498	103.6
750.678	103.83
750.859	102.32
751.04	103.36
751.22	101.88
751.4	102.54
751.581	102.84
751.761	103.86
751.942	103.88
752.122	105.15
752.303	104.99
752.483	105.29
752.663	104.85
752.844	104.36
753.024	104.52
753.204	103.7
753.385	103.12
753.565	101.66
753.745	101.41
753.925	100.05
754.106	100.39
754.286	100.43
754.466	100.91
754.646	102.23
754.826	104.44
755.006	103.54
755.187	103.92
755.367	103.27
755.547	102.33
755.727	101.13
755.907	101.19
756.087	99.76
756.267	100.93
756.447	101.13
756.627	101.49
756.807	102.48
756.987	102.49
757.167	102.46
757.346	101.83
757.526	102.37
757.706	102.65
757.886	103.34
758.066	104.21
758.246	103.52
758.425	102.11
758.605	101.12
758.785	100.69
758.965	101.12
759.144	101
759.324	102.38
759.504	104.49
759.683	104.39
759.863	103.79
760.043	104.06
760.222	103.43
760.402	100.88
760.581	101.34
760.761	101.53
760.94	102.22
761.12	101.15
761.299	102.81
761.479	102.04
761.658	101.13
761.838	101.34
762.017	102.71
762.197	99.82
762.376	100.42
762.555	100.88
762.735	101.04
762.914	99.66
763.093	100.75
763.273	100.13
763.452	97.91
763.631	95.86
763.81	96.76
763.99	96.86
764.169	97.14
764.348	97.88
764.527	98.8
764.706	97.2
764.885	98.68
765.064	99.51
765.243	99.55
765.423	100.14
765.602	103.05
765.781	100.93
765.96	99.9
766.139	101.11
766.318	101.42
766.497	98.63
766.676	98.05
766.854	97.7
767.033	97.66
767.212	98.4
767.391	100.08
767.57	103.61
767.749	103.9
767.928	103.53
768.106	100.36
768.285	98.78
768.464	96.54
768.643	95.2
768.821	94.6
769	97.24
769.179	96.94
769.357	97.6
769.536	98.14
769.715	97.04
769.893	96.3
770.072	96.6
770.25	94.79
770.429	95.93
770.607	97
770.786	95.57
770.964	95.96
771.143	98.3
771.321	98.06
771.5	97.59
771.678	97.93
771.857	97.04
772.035	96.54
772.213	95.77
772.392	93.9
772.57	94.52
772.748	92.85
772.927	92.75
773.105	93.99
773.283	97.51
773.461	100.18
773.64	103.1
773.818	102.53
773.996	103.3
774.174	103.25
774.352	99.2
774.531	97.24
774.709	96.43
774.887	95.03
775.065	93.7
775.243	94.04
775.421	95.17
775.599	97.42
775.777	95.89
775.955	95.86
776.133	97.62
776.311	96.21
776.489	94.63
776.667	95.31
776.844	93.84
777.022	92.2
777.2	94.27
777.378	93.92
777.556	94.22
777.734	96.19
777.911	96.01
778.089	97.3
778.267	95.31
778.445	97.2
778.622	97
778.8	95.85
778.978	94.1
779.155	97.16
779.333	94.48
779.511	91.96
779.688	93.46
779.866	93.86
780.043	92.48
780.221	95.75
780.398	96.46
780.576	95.51
780.753	95.89
780.931	94.73
781.108	94.83
781.286	95.31
781.463	95.23
781.64	93.76
781.818	96.06
781.995	94.47
782.172	94.66
782.35	95.92
782.527	97.39
782.704	96.26
782.882	91.06
783.059	92.16
783.236	92.03
783.413	89.34
783.59	90.24
783.768	93.58
783.945	92.7
784.122	93.89
784.299	95.39
784.476	93.22
784.653	93.42
784.83	92.62
785.007	88.89
785.184	88.22
785.361	88.85
785.538	87.91
785.715	91.14
785.892	93.26
786.069	94.84
786.246	95.17
786.423	95.96
786.6	93.66
786.776	92.97
786.953	88.91
787.13	89.53
787.307	90.55
787.484	88.34
787.66	87.71
787.837	90.19
788.014	88.01
788.191	85.98
788.367	84.17
788.544	86.52
788.721	87.13
788.897	89.72
789.074	88.58
789.25	91.42
789.427	89.34
789.603	85.12
789.78	84.75
789.956	85.84
790.133	82.34
790.309	82.15
790.486	82.53
790.662	82.23
790.839	82.16
791.015	87.4
791.192	87.78
791.368	90.53
791.544	90.34
791.721	89.37
791.897	86.83
792.073	84.11
792.249	81.01
792.426	78.67
792.602	83.01
792.778	82.45
792.954	87.59
793.13	90.37
793.307	93.79
793.483	86.55
793.659	86.11
793.835	84.77
794.011	88.07
794.187	87.79
794.363	90.03
794.539	90.26
794.715	90.37
794.891	87.61
795.067	86
795.243	87.67
795.419	89.71
795.595	92.03
795.771	89.18
795.947	91.7
796.122	85.9
796.298	83.12
796.474	84.77
796.65	89.98
796.826	86.07
797.001	91.94
797.177	88.48
797.353	80.89
797.529	78.38
797.704	78.43
797.88	77.7
798.056	79.96
798.231	80.45
798.407	78.69
798.582	78.64
798.758	80.36
798.934	85.3
799.109	82.16
799.285	81.69
799.46	83.65
799.636	82.15
799.811	78.25
799.986	83.73
800.162	80.95
800.337	82.45
800.513	80.68
800.688	80.94
800.863	84.13
801.039	85.07
801.214	79.56
801.389	81.3
801.565	82.6
801.74	79.19
801.915	85.62
802.09	86.32
802.265	89.64
802.441	85.78
802.616	85.28
802.791	83.89
802.966	89.62
803.141	87.4
803.316	94.39
803.491	90.94
803.666	91.1
803.841	87.46
804.016	83.35
804.191	83.45
804.366	80.71
804.541	77.53
804.716	72.13
804.891	74.16
805.066	76.13
805.241	86.71
805.416	92.65
805.591	97.94
805.765	107.92
805.94	101.77
806.115	92.15
806.29	86.63
806.464	84.01
806.639	79.09
806.814	79.73
806.989	81.93
807.163	88.77
807.338	93.43
807.512	92.44
807.687	85.39
807.862	81.8
808.036	72.81
808.211	67.93
808.385	69.05
808.56	75.08
808.734	70.23
808.909	76.25
809.083	79.66
809.258	74.83
809.432	75.3
809.606	86.71
809.781	84.43
809.955	88.33
810.13	86.23
810.304	83.63
810.478	83.93
810.652	82.62
810.827	82.5
811.001	84.59
811.175	87.17
811.349	85.86
811.524	89.88
811.698	81.36
811.872	84.45
812.046	78.46
812.22	80.22
812.394	70.27
812.568	79.39
812.742	71.95
812.916	83.5
813.09	79.37
813.264	83.7
813.438	76.31
813.612	75.49
813.786	66.16
813.96	75.79
814.134	73.2
814.308	70.31
814.482	79.5
814.656	83.72
814.83	73.73
815.003	79.72
815.177	88.34
815.351	91.25
815.525	94.76
815.698	89.73
815.872	71.09
816.046	62.56
816.219	59.19
816.393	52.94
816.567	59.24
816.74	72.08
816.914	81.45
817.088	85.06
817.261	85.32
817.435	86.17
817.608	82.41
817.782	78.34
817.955	81.12
818.129	84.98
818.302	90.75
818.475	93.64
818.649	90.51
818.822	77.11
818.996	80.31
819.169	70.24
819.342	74.18
819.516	79.55
819.689	77.61
819.862	72.21
820.035	79.03
820.209	79.31
820.382	72.45
820.555	66.67
820.728	64.26
820.901	54.21
821.075	47.75
821.248	59.28
821.421	76.99
821.594	71.62
821.767	85.69
821.94	79.4
822.113	72.14
822.286	71.59
822.459	77.95
822.632	71.58
822.805	72.66
822.978	71.7
823.151	67.7
823.324	55.12
823.496	51
823.669	55.1
823.842	64.46
824.015	58.54
824.188	71.16
824.361	75.86
824.533	78.86
824.706	73.75
824.879	77.09
825.051	75.78
825.224	66.2
825.397	54.17
825.569	55.38
825.742	65
825.915	67.83
826.087	71.94
826.26	68.45
826.432	73.62
826.605	68.31
826.777	78.22
826.95	81.66
827.122	80.11
827.295	88.76
827.467	94.07
827.64	65.74
827.812	72.46
827.984	88.65
828.157	56.15
828.329	59.21
828.501	61.17
828.674	62.58
828.846	62.88
829.018	70.67
829.19	57.68
829.363	54.36
829.535	48.16
829.707	52.46
829.879	35.09
830.051	29.63
830.223	47.02
830.395	30.57
830.568	30.09
830.74	52.79
830.912	60.21
831.084	59.45
831.256	66.25
831.428	64.41
831.6	43.68
831.772	39.31
831.943	32.7
832.115	47.88
832.287	50.44
832.459	52.88
832.631	60.19
832.803	59.76
832.975	66.88
833.146	59.65
833.318	62.8
833.49	62.11
833.662	65.89
833.833	39.8
834.005	45.4
834.177	56.78
834.348	52.77
834.52	52.45
834.692	49.74
834.863	55.28
835.035	56.81
835.206	51.47
835.378	54
835.549	60.76
835.721	56.96
835.892	61.38
836.064	66.82
836.235	64.62
836.407	68.3
836.578	65.73
836.749	36.99
836.921	32.61
837.092	31.89
837.264	18.88
837.435	15.05
837.606	35.73
837.777	43.82
837.949	48.21
838.12	53.48
838.291	54.76
838.462	58.61
838.633	54.19
838.805	50.06
838.976	52.83
839.147	69.52
839.318	69.78
839.489	65.14
839.66	86.18
839.831	76.65
840.002	64.54
840.173	70.31
840.344	68.43
840.515	49.41
840.686	54.77
840.857	61.29
841.028	62.31
841.199	66.94
841.369	52.43
841.54	53.82
841.711	87.53
841.882	68.98
842.053	50.64
842.223	54.98
842.394	51.79
842.565	33.4
842.736	25.47
842.906	25.71
843.077	31.82
843.248	46.86
843.418	39.14
843.589	42.58
843.759	58.53
843.93	59.11
844.101	44.98
844.271	53.22
844.442	73.31
844.612	67.74
844.783	88.33
844.953	83.8
845.123	70.03
845.294	66.87
845.464	51.57
845.635	26.53
845.805	25.16
845.975	80.29
846.146	61.56
846.316	84.25
846.486	91.83
846.656	107.2
846.827	94.83
846.997	86.77
847.167	64.96
847.337	46.4
847.507	48.01
847.677	31.78
847.848	51.4
848.018	68.65
848.188	71.44
848.358	49.35
848.528	76.45
848.698	50.78
848.868	41.25
849.038	29.4
849.208	42.2
849.378	31.64
849.548	22.82
849.718	4.97
849.887	25.97
850.057	17.58
850.227	57.85
850.397	52.48
850.567	26.54
850.737	44.54
850.906	22.79
851.076	-9.75
851.246	11.65
851.415	18.91
851.585	55.01
851.755	68
851.924	92.89
852.094	89.02
852.264	94.24
852.433	46.55
852.603	24.19
852.772	22.28
852.942	45.65
853.111	44.67
853.281	68.27
853.45	71.13
853.62	53.44
853.789	27.83
853.959	49.87
854.128	40.13
854.297	46.23
854.467	45.59
854.636	62.99
854.805	42.37
854.975	45.69
855.144	47.24
855.313	74.55
855.482	45.56
855.652	47.42
855.821	31.37
855.99	21.77
856.159	22.65
856.328	38.46
856.497	43.61
856.667	52.55
856.836	57.91
857.005	42.27
857.174	41.7
857.343	45.15
857.512	49.47
857.681	45.7
857.85	65.66
858.019	43.13
858.188	41.83
858.356	26.61
858.525	28.31
858.694	33.79
858.863	52.84
859.032	54.44
859.201	61.27
859.369	80.64
859.538	65.95
859.707	64.31
859.876	79.51
860.044	96.82
860.213	89.14
860.382	76.41
860.55	56
860.719	46.45
860.888	28.32
861.056	35.72
861.225	42.16
861.393	47.51
861.562	57.22
861.73	41.15
861.899	28.93
862.067	14.55
862.236	23.17
862.404	14.53
862.572	9.31
862.741	28.67
862.909	47.95
863.078	56.19
863.246	46.57
863.414	67.06
863.582	52.11
863.751	49.96
863.919	45.36
864.087	64.8
864.255	56
864.424	69.67
864.592	90.13
864.76	109.19
864.928	109.51
865.096	93.72
865.264	69.87
865.432	43.53
865.6	38
865.768	-12.82
865.936	-14.64
866.104	27.96
866.272	26.85
866.44	24.26
866.608	26.47
866.776	59.85
866.944	68.51
867.112	50.35
867.28	46.27
867.448	60.59
867.615	45.46
867.783	30.07
867.951	41.35
868.119	63.29
868.286	90.22
868.454	80.29
868.622	72.09
868.789	88.57
868.957	85.54
869.125	95.9
869.292	106.79
869.46	101.81
869.627	94.05
869.795	82.81
869.963	58.53
870.13	43.39
870.298	50.77
870.465	62.5
870.632	28.77
870.8	7.65
870.967	32.54
871.135	14.55
871.302	3.46
871.469	47.4
871.637	86.58
871.804	79.84
871.971	76.85
872.139	64.79
872.306	32.96
872.473	6.06
872.64	-76.97
872.807	-131.23
872.975	-234.91
873.142	-26.04
873.309	-8.01
873.476	38.79
873.643	85.74
873.81	73.68
873.977	49.49
874.144	90.74
874.311	87.85
874.478	23.17
874.645	-27.33
874.812	39.7
874.979	25.2
875.146	8.23
875.313	13.7
875.48	56.39
875.647	30.08
875.813	-32.28
875.98	-25.13
876.147	-72.12
876.314	-47.55
876.481	-29.78
876.647	36.45
876.814	29.18
876.981	47.55
877.147	57.75
877.314	36.43
877.481	66.16
877.647	89.14
877.814	72.54
877.98	69.85
878.147	103.15
878.314	69.27
878.48	68.15
878.647	81.04
878.813	101.38
878.979	95.8
879.146	121.26
879.312	125.87
879.479	115.33
879.645	83.95
879.811	72.88
879.978	77.06
880.144	49.3
880.31	48.23
880.477	39.17
880.643	27.41
880.809	-28.09
880.975	-4.09
881.142	-76.27
881.308	256.12
881.474	456.32
881.64	-4.43
881.806	-61.04
881.972	11.93
882.138	20.65
882.304	42.89
882.47	-5.62
882.636	-16.51
882.802	-24.93
882.968	-4.56
883.134	8.33
883.3	31.98
883.466	109.55
883.632	156.51
883.798	129.11
883.964	150.83
884.129	431.88
884.295	121.14
884.461	-24
884.627	8.96
884.793	-26.13
884.958	2.46
885.124	-39.08
885.29	-60.67
885.455	-61.21
885.621	27.29
885.787	42.7
885.952	51.52
886.118	76.4
886.283	59.47
886.449	39.59
886.614	39.99
886.78	54.82
886.945	64.32
887.111	21
887.276	37.4
887.442	7.85
887.607	-9.87
887.773	-1.68
887.938	36.68
888.103	30.59
888.269	37.05
888.434	30.41
888.599	22.99
888.764	29.62
888.93	24.82
889.095	31.66
889.26	24.59
889.425	29.87
889.59	16.82
889.756	15.08
889.921	-0.26
890.086	-32.94
890.251	28.8
890.416	-3.49
890.581	19.29
890.746	62.5
890.911	76.6
891.076	77.51
891.241	95.32
891.406	72.94
891.571	143.94
891.736	148.14
891.901	93.18
892.065	85.29
892.23	147.82
892.395	118.24
892.56	78.18
892.725	159.1
892.889	308.93
893.054	146.64
893.219	39.09
893.384	52.23
893.548	-72.24
893.713	-158.12
893.878	-343.12
