Data from Ofra_2a_PS_2GT41_Reflection_1.txt Node
Date: Tue Jul 20 09:43:37 EDT 2021
User: Adam
Spectrometer: FLMT01687
Trigger mode: 0
Integration Time (sec): 9.450000E-1
Scans to average: 3
Electric dark correction enabled: true
Nonlinearity correction enabled: false
Boxcar width: 3
XAxis mode: Wavelengths
Number of Pixels in Spectrum: 3648
>>>>>Begin Spectral Data<<<<<
179.494	902.37
179.716	529.93
179.937	602.2
180.158	2607.81
180.38	-698.84
180.601	-144.24
180.823	-50.41
181.044	15.14
181.265	-76.56
181.486	51.64
181.708	921.74
181.929	-181.86
182.15	-281.82
182.372	69.68
182.593	41.44
182.814	240.12
183.035	185.54
183.257	111.29
183.478	76.32
183.699	70.93
183.92	60.64
184.141	57.43
184.363	42.38
184.584	29.74
184.805	21.05
185.026	-0.88
185.247	-10.34
185.468	-15.78
185.689	-3.57
185.91	10.9
186.132	20.29
186.353	1.37
186.574	6.65
186.795	-18.14
187.016	-16.71
187.237	-25.91
187.458	-49.02
187.679	-78.31
187.9	-49.26
188.121	-17.38
188.342	35.41
188.563	49.07
188.784	44.02
189.005	45.98
189.226	49.72
189.447	60.24
189.667	39.04
189.888	37.33
190.109	25.55
190.33	32.22
190.551	32.89
190.772	14.62
190.993	11.61
191.214	5.51
191.434	3.14
191.655	17.14
191.876	19.79
192.097	14.21
192.318	28.83
192.538	22.05
192.759	27.19
192.98	11.82
193.201	28.41
193.421	30.65
193.642	32.28
193.863	18.86
194.083	25.19
194.304	29.66
194.525	49.02
194.745	17.35
194.966	17.61
195.187	25.5
195.407	18.68
195.628	22.14
195.848	27.45
196.069	9.64
196.29	8.79
196.51	-3.04
196.731	7.41
196.951	10.09
197.172	-1.91
197.392	9.77
197.613	9.87
197.833	15.36
198.054	13.23
198.274	-15.51
198.495	-8.05
198.715	-7.76
198.936	-31.84
199.156	-9.17
199.377	-2.41
199.597	-5.8
199.817	15.99
200.038	12.45
200.258	8.7
200.479	7.84
200.699	-2.83
200.919	-28.09
201.14	-23.89
201.36	-21.93
201.58	-18.2
201.801	-7.95
202.021	-2.19
202.241	5.24
202.461	19.38
202.682	27.83
202.902	18.02
203.122	18.68
203.342	23.73
203.563	25.38
203.783	19.43
204.003	15.87
204.223	23.92
204.443	23.84
204.663	27.9
204.884	22.63
205.104	21.81
205.324	34.02
205.544	43.93
205.764	26.85
205.984	37.19
206.204	30.33
206.424	28.34
206.644	25.83
206.864	19.19
207.084	30.05
207.304	30.95
207.525	18.12
207.745	36.19
207.964	41.9
208.184	34.96
208.404	29.79
208.624	10.91
208.844	1.69
209.064	11.39
209.284	1.59
209.504	10.04
209.724	-19.05
209.944	-23.47
210.164	-9.61
210.384	4.73
210.604	-0.23
210.823	-13.92
211.043	-29.91
211.263	-4.93
211.483	2.09
211.703	8.21
211.922	10.42
212.142	13.24
212.362	23.76
212.582	34
212.801	33.28
213.021	40.35
213.241	24.52
213.461	11.41
213.68	14.91
213.9	10.51
214.12	-11.46
214.339	-7.55
214.559	-12.18
214.779	-9.05
214.998	4.74
215.218	4.63
215.438	13.53
215.657	19.13
215.877	18.34
216.096	21.98
216.316	31.59
216.535	29.23
216.755	7.09
216.974	-4.06
217.194	-2.11
217.413	8.18
217.633	3.73
217.852	-3.12
218.072	-18.62
218.291	14.92
218.511	18.1
218.73	16.12
218.95	17.33
219.169	22.58
219.389	5.6
219.608	20.29
219.827	14.1
220.047	4.45
220.266	9.31
220.485	13.88
220.705	0.15
220.924	10.37
221.143	2.73
221.363	-0.24
221.582	0.35
221.801	7.5
222.021	-12.29
222.24	-15.89
222.459	-20.46
222.678	-48.19
222.897	-36.77
223.117	-25.84
223.336	-24.93
223.555	-26.14
223.774	-11.19
223.993	9.76
224.213	24.07
224.432	30.78
224.651	27.45
224.87	17.21
225.089	26.17
225.308	35.26
225.527	25.91
225.746	24.72
225.965	9.87
226.184	12.68
226.404	7.37
226.623	12
226.842	1.07
227.061	0.19
227.28	13.82
227.499	27.03
227.718	20.64
227.936	24.31
228.155	25.75
228.374	29.77
228.593	22.1
228.812	16.76
229.031	9.8
229.25	19.48
229.469	27.58
229.688	26.69
229.907	17.88
230.125	30.65
230.344	33.26
230.563	36.23
230.782	33.82
231.001	24.91
231.22	29.53
231.438	35.77
231.657	34.51
231.876	26.02
232.095	27.89
232.313	28.5
232.532	33.58
232.751	33.07
232.969	39.3
233.188	39.6
233.407	40.98
233.625	37.28
233.844	33.97
234.063	28.65
234.281	16.24
234.5	11.55
234.719	-0.19
234.937	4.13
235.156	-4.69
235.374	-5.24
235.593	-1.97
235.811	-8.36
236.03	-17.48
236.249	2.68
236.467	3.2
236.686	8.63
236.904	2.46
237.123	17.22
237.341	24.87
237.559	20.91
237.778	20.68
237.996	26.75
238.215	23.84
238.433	32.83
238.652	21.89
238.87	28.52
239.088	21.91
239.307	19.48
239.525	7.47
239.743	6.73
239.962	-10.05
240.18	5.61
240.398	-2.64
240.617	16.68
240.835	15.33
241.053	29.92
241.271	42.17
241.49	45.21
241.708	27.46
241.926	21.91
242.144	11.94
242.363	6.45
242.581	-9.6
242.799	-19.82
243.017	-11.03
243.235	-14.12
243.453	-3.56
243.672	4.51
243.89	14.6
244.108	23.4
244.326	15.63
244.544	9.99
244.762	13.48
244.98	11.64
245.198	1.02
245.416	2.52
245.634	13.42
245.852	20.81
246.07	26.89
246.288	22.03
246.506	29.15
246.724	39.76
246.942	35.32
247.16	23.54
247.378	8.89
247.596	7.11
247.814	4.68
248.032	-5.09
248.25	-4.97
248.468	-5.91
248.685	0.07
248.903	-0.88
249.121	7.12
249.339	17.24
249.557	22.27
249.775	4.97
249.992	5.01
250.21	-12.21
250.428	-2.25
250.646	0.59
250.863	-7.58
251.081	-11.03
251.299	8
251.517	14.14
251.734	29.31
251.952	34.5
252.17	17.47
252.387	29.37
252.605	28.89
252.823	8.57
253.04	-1.57
253.258	-1.43
253.475	-2.45
253.693	9.34
253.911	6.5
254.128	4.31
254.346	11.61
254.563	9.91
254.781	1.69
254.998	0.81
255.216	-0.68
255.433	-5.79
255.651	-8.64
255.868	2.49
256.086	-1.13
256.303	6.53
256.521	-2.79
256.738	-5.06
256.956	-11.91
257.173	1.49
257.39	-2.26
257.608	5.44
257.825	4.71
258.043	13.78
258.26	15.29
258.477	30.05
258.695	29.41
258.912	36.45
259.129	30.41
259.346	34.01
259.564	21.47
259.781	21.85
259.998	8.53
260.216	14.44
260.433	-5.52
260.65	2.78
260.867	-10.5
261.084	2
261.302	-10.16
261.519	-8.7
261.736	-20.67
261.953	-6.28
262.17	-10.1
262.387	-8.02
262.604	-14.72
262.822	-3.56
263.039	-6.73
263.256	-1.81
263.473	-9.88
263.69	-6.05
263.907	1.18
264.124	5.01
264.341	-0.37
264.558	4.86
264.775	9.66
264.992	15.32
265.209	23
265.426	17.05
265.643	17.68
265.86	18.62
266.077	25.1
266.294	17.15
266.51	18.62
266.727	1.15
266.944	-0.03
267.161	-6.44
267.378	-2.22
267.595	-16.92
267.812	-17.87
268.028	-12.73
268.245	-6.08
268.462	-2.31
268.679	3.55
268.896	-0.44
269.112	17.55
269.329	27.72
269.546	23.06
269.763	29.23
269.979	24.89
270.196	26.2
270.413	25.14
270.629	16.96
270.846	21.35
271.063	22.32
271.279	23.83
271.496	21.63
271.712	17.71
271.929	26
272.146	19.47
272.362	3.09
272.579	-2.73
272.795	-11.89
273.012	-6.57
273.228	-6.17
273.445	-10.09
273.661	-8.55
273.878	3.13
274.094	11.24
274.311	16.89
274.527	19.46
274.744	13.22
274.96	15.33
275.177	17.47
275.393	6.2
275.609	1.67
275.826	-1.53
276.042	6.39
276.259	11.86
276.475	11.8
276.691	16.72
276.908	19.44
277.124	18.04
277.34	16.57
277.557	16.56
277.773	19.06
277.989	19.41
278.205	8.59
278.422	12.75
278.638	20.59
278.854	19.62
279.07	8.89
279.286	17.13
279.503	19.74
279.719	30.32
279.935	17.69
280.151	28
280.367	20.03
280.583	16.61
280.799	17.99
281.016	16.71
281.232	7.93
281.448	12.77
281.664	-2.24
281.88	10.22
282.096	20.82
282.312	11.27
282.528	8.07
282.744	9.83
282.96	14.81
283.176	14.38
283.392	22.59
283.608	24.64
283.824	17.51
284.04	27.2
284.256	32.08
284.471	32.64
284.687	30.79
284.903	25.93
285.119	9.09
285.335	20.04
285.551	16.91
285.767	13.77
285.982	5.62
286.198	13.74
286.414	13.51
286.63	32.13
286.846	26.68
287.061	35.46
287.277	37.18
287.493	40.05
287.709	34.99
287.924	39.42
288.14	33.18
288.356	45.67
288.571	29.72
288.787	30.41
289.003	31.58
289.218	34.97
289.434	28.28
289.65	25.9
289.865	17.17
290.081	23.46
290.296	22.07
290.512	24.55
290.727	27.69
290.943	25.52
291.159	14.42
291.374	22.89
291.59	14.41
291.805	1.24
292.021	-2.9
292.236	-9.58
292.451	-6.41
292.667	8.57
292.882	-3.09
293.098	-4.89
293.313	0.5
293.529	8.57
293.744	10.16
293.959	6.93
294.175	5.81
294.39	4.65
294.605	8.52
294.821	15.94
295.036	9
295.251	10.56
295.467	7.17
295.682	5.31
295.897	8.8
296.112	2.23
296.328	0.52
296.543	-3.05
296.758	-16.26
296.973	-10.22
297.188	-24.36
297.404	-18.45
297.619	-18.18
297.834	-8.24
298.049	-8.74
298.264	-3.74
298.479	-12.95
298.694	-0.25
298.909	-7.62
299.125	1.79
299.34	-8.92
299.555	-2.72
299.77	1.01
299.985	1.89
300.2	4.63
300.415	7.77
300.63	3.96
300.845	13.52
301.06	16.66
301.275	19.19
301.49	27.8
301.704	23.53
301.919	23.78
302.134	19.3
302.349	9.79
302.564	-0.98
302.779	-7.63
302.994	-7.89
303.209	-2.69
303.423	10.93
303.638	18.92
303.853	26.37
304.068	31.78
304.283	37.17
304.497	25.65
304.712	26.48
304.927	13.72
305.142	12.3
305.356	9.34
305.571	10.8
305.786	11.22
306	20.16
306.215	13.95
306.43	27.6
306.644	24.96
306.859	30.61
307.074	30.63
307.288	29.38
307.503	25.64
307.717	24.22
307.932	18.21
308.147	19.98
308.361	11.95
308.576	7.49
308.79	5.71
309.005	14.93
309.219	16.14
309.434	11.14
309.648	-0.95
309.863	5.13
310.077	-2.22
310.292	-0.29
310.506	6.6
310.72	5.32
310.935	13.11
311.149	24.3
311.364	23.85
311.578	30.64
311.792	22.89
312.007	7.81
312.221	14
312.435	13.91
312.649	-9.82
312.864	-18.42
313.078	-1.4
313.292	7.95
313.507	21.93
313.721	10.19
313.935	18.31
314.149	29.52
314.363	37.68
314.578	53.55
314.792	49.08
315.006	42.05
315.22	48.17
315.434	37.65
315.648	50.11
315.862	46.31
316.077	28.66
316.291	28.16
316.505	25.94
316.719	4.82
316.933	10.2
317.147	3.98
317.361	-3.87
317.575	-6.12
317.789	-4.11
318.003	-0.88
318.217	13.94
318.431	15.69
318.645	16.37
318.859	7.48
319.073	0.97
319.287	10.63
319.5	11.65
319.714	10.39
319.928	12.73
320.142	18.4
320.356	37.02
320.57	41.02
320.784	38.25
320.997	36.85
321.211	39.83
321.425	27.07
321.639	17.83
321.853	5.95
322.066	7.31
322.28	12.59
322.494	14.45
322.707	8.56
322.921	17.4
323.135	25.05
323.349	28.19
323.562	29.57
323.776	22.54
323.989	21.54
324.203	29.15
324.417	15.1
324.63	6.3
324.844	0.97
325.057	-4.03
325.271	-15.65
325.485	-15.55
325.698	-26.95
325.912	-0.03
326.125	4.84
326.339	-0.25
326.552	6.43
326.766	22.56
326.979	25.37
327.193	27.84
327.406	12.09
327.619	0.16
327.833	8.27
328.046	-0.53
328.26	-17.35
328.473	-14.01
328.686	-6.72
328.9	-4.6
329.113	1.83
329.326	6.61
329.54	9.31
329.753	13.35
329.966	11.12
330.179	15.02
330.393	15.44
330.606	25.9
330.819	32.47
331.032	31.49
331.246	27.11
331.459	23.99
331.672	23.61
331.885	19.87
332.098	20.94
332.311	-2.68
332.525	6.37
332.738	15.25
332.951	17.2
333.164	4.82
333.377	1.54
333.59	-2.67
333.803	19.33
334.016	2.07
334.229	0.27
334.442	11.26
334.655	27.78
334.868	38.64
335.081	41.26
335.294	29.77
335.507	45.53
335.72	36.44
335.933	36.56
336.146	33.8
336.359	26.05
336.572	19.76
336.785	32.12
336.997	24.08
337.21	28.85
337.423	20.96
337.636	19.98
337.849	11.39
338.062	16.45
338.274	5.71
338.487	12.76
338.7	12.32
338.913	11.11
339.125	6.57
339.338	18.21
339.551	20.26
339.763	17.85
339.976	8.65
340.189	6.33
340.402	6.85
340.614	13.53
340.827	5.87
341.039	-0.87
341.252	-1.65
341.465	-0.92
341.677	-2.79
341.89	-3.32
342.102	-1.07
342.315	7.09
342.527	1.21
342.74	4.14
342.952	-2.25
343.165	5.22
343.377	1.97
343.59	-3.79
343.802	-3.91
344.015	1.72
344.227	-0.51
344.44	-1.15
344.652	2.76
344.864	3.86
345.077	-2.16
345.289	-5.44
345.502	-2.7
345.714	-6.1
345.926	10.89
346.139	7.47
346.351	-4.33
346.563	5.42
346.775	3.91
346.988	2.16
347.2	0.45
347.412	-1.29
347.624	-0.8
347.837	9.18
348.049	11.34
348.261	8.56
348.473	4.08
348.685	13.29
348.897	8.42
349.11	1.97
349.322	-2.89
349.534	-12.47
349.746	-1.75
349.958	9.92
350.17	2.34
350.382	-0.11
350.594	6.77
350.806	18.54
351.018	27.83
351.23	22.07
351.442	17.93
351.654	20.81
351.866	26.63
352.078	21.7
352.29	24.29
352.502	20.45
352.714	24.43
352.926	25.69
353.138	20.95
353.35	13.42
353.561	11.2
353.773	4.81
353.985	8.33
354.197	4.49
354.409	5.34
354.621	7.5
354.832	10.76
355.044	20.21
355.256	19.48
355.468	11.79
355.679	15.69
355.891	14.03
356.103	19.18
356.314	21.71
356.526	12.46
356.738	8.79
356.949	8.62
357.161	8.1
357.373	7.41
357.584	0.87
357.796	-1.22
358.008	11.64
358.219	21.21
358.431	22.38
358.642	17.28
358.854	19.72
359.065	16.75
359.277	15.52
359.488	8.97
359.7	11.58
359.911	11.28
360.123	18.71
360.334	13.14
360.546	10.83
360.757	13.48
360.969	17.17
361.18	10.81
361.391	9.26
361.603	10.17
361.814	11.76
362.025	16.08
362.237	18.65
362.448	18.66
362.659	7.82
362.871	12.39
363.082	9.09
363.293	13.94
363.504	15.22
363.716	15
363.927	14.24
364.138	22.89
364.349	21.49
364.56	23.73
364.772	23.48
364.983	16.25
365.194	20.71
365.405	20.16
365.616	17.34
365.827	19.65
366.038	19.47
366.25	11.06
366.461	18.67
366.672	7.04
366.883	8.01
367.094	7.31
367.305	8.04
367.516	2.97
367.727	5.05
367.938	8
368.149	13.36
368.36	16.15
368.571	16.17
368.781	17.98
368.992	16.24
369.203	20.87
369.414	14.59
369.625	11.48
369.836	12.93
370.047	13.9
370.258	7.52
370.468	3.55
370.679	1.22
370.89	13.99
371.101	9.55
371.312	0.27
371.522	-1.92
371.733	-7.79
371.944	-2.45
372.155	-13.63
372.365	-17.24
372.576	-15.86
372.787	-14.89
372.997	-14.75
373.208	-3.06
373.419	-6.27
373.629	12.26
373.84	6.18
374.05	6.58
374.261	7.22
374.472	9.63
374.682	5.9
374.893	8.19
375.103	8.27
375.314	7.12
375.524	10.42
375.735	11.47
375.945	9.47
376.156	12.25
376.366	12.69
376.577	8.85
376.787	11.43
376.997	17.11
377.208	16.34
377.418	18.35
377.629	17.95
377.839	22
378.049	22.82
378.26	22.36
378.47	17.78
378.68	16.27
378.89	14.6
379.101	6.38
379.311	-1.2
379.521	0.93
379.732	-8.92
379.942	-12.41
380.152	-5.64
380.362	-1.75
380.572	3.75
380.783	5.59
380.993	5.3
381.203	11.83
381.413	17.67
381.623	14.13
381.833	13.92
382.043	10.27
382.253	17.52
382.463	13.57
382.674	13.96
382.884	10.33
383.094	12.51
383.304	15.06
383.514	17.38
383.724	6.61
383.934	10.32
384.144	12.04
384.353	10.12
384.563	7.44
384.773	6.51
384.983	8.42
385.193	12.74
385.403	11.64
385.613	6.42
385.823	4.35
386.033	8.26
386.242	4.67
386.452	4.18
386.662	3.3
386.872	0.86
387.082	1.02
387.291	5.83
387.501	3.56
387.711	3.65
387.921	1.68
388.13	-0.76
388.34	-1.98
388.55	1.51
388.759	0.09
388.969	-0.67
389.179	1.93
389.388	1.26
389.598	2.4
389.807	3.88
390.017	3.16
390.227	2.77
390.436	3.34
390.646	4.19
390.855	5.17
391.065	6.67
391.274	4.53
391.484	5.67
391.693	6.3
391.903	6.79
392.112	4.46
392.322	6.04
392.531	4.87
392.74	4.97
392.95	5.04
393.159	5.92
393.369	4.67
393.578	5.53
393.787	4.73
393.997	6.06
394.206	6.03
394.415	5.47
394.625	3.47
394.834	3.54
395.043	3.83
395.252	4.17
395.462	3.41
395.671	4.47
395.88	4.41
396.089	4.92
396.298	5.22
396.508	4.77
396.717	4.23
396.926	4.48
397.135	3.96
397.344	3.75
397.553	4.1
397.762	4.25
397.971	4.35
398.181	4.08
398.39	4.14
398.599	4.37
398.808	4.63
399.017	4.79
399.226	4.59
399.435	4.34
399.644	4.23
399.853	4.22
400.062	4.19
400.27	4.15
400.479	3.96
400.688	4.18
400.897	4.38
401.106	4.62
401.315	4.41
401.524	4.35
401.733	4.45
401.941	4.55
402.15	4.32
402.359	4.34
402.568	4.38
402.777	4.59
402.985	4.56
403.194	4.36
403.403	4.11
403.612	4.1
403.82	4.06
404.029	3.92
404.238	3.8
404.446	3.76
404.655	3.68
404.864	3.69
405.072	3.75
405.281	3.61
405.489	3.76
405.698	3.68
405.906	3.6
406.115	3.66
406.324	3.61
406.532	3.6
406.741	3.68
406.949	3.58
407.158	3.65
407.366	3.8
407.574	3.76
407.783	3.74
407.991	3.69
408.2	3.65
408.408	3.65
408.617	3.56
408.825	3.49
409.033	3.5
409.242	3.54
409.45	3.53
409.658	3.51
409.867	3.51
410.075	3.59
410.283	3.49
410.491	3.44
410.7	3.45
410.908	3.46
411.116	3.41
411.324	3.41
411.533	3.22
411.741	3.26
411.949	3.28
412.157	3.33
412.365	3.31
412.573	3.37
412.781	3.31
412.99	3.45
413.198	3.48
413.406	3.48
413.614	3.38
413.822	3.36
414.03	3.29
414.238	3.35
414.446	3.26
414.654	3.23
414.862	3.21
415.07	3.29
415.278	3.23
415.486	3.34
415.694	3.27
415.902	3.33
416.109	3.37
416.317	3.37
416.525	3.37
416.733	3.43
416.941	3.35
417.149	3.45
417.357	3.5
417.564	3.47
417.772	3.5
417.98	3.38
418.188	3.28
418.395	3.31
418.603	3.14
418.811	3.05
419.019	2.99
419.226	3.07
419.434	3.08
419.642	3.09
419.849	3.01
420.057	3.13
420.265	3.22
420.472	3.23
420.68	3.13
420.887	3.22
421.095	3.28
421.302	3.31
421.51	3.29
421.717	3.28
421.925	3.23
422.132	3.15
422.34	3.09
422.547	3.01
422.755	3.02
422.962	2.96
423.17	2.84
423.377	2.98
423.585	3.05
423.792	3.06
423.999	3.09
424.207	3.04
424.414	3.09
424.621	3.14
424.829	3.03
425.036	2.91
425.243	3
425.451	3.03
425.658	3.19
425.865	3.07
426.072	3.13
426.28	3.17
426.487	3.3
426.694	3.2
426.901	3.11
427.108	3.03
427.315	3.07
427.523	3.05
427.73	3.07
427.937	3.02
428.144	3.05
428.351	3.15
428.558	3.11
428.765	3.1
428.972	3.08
429.179	3.04
429.386	3.1
429.593	3.08
429.8	3.07
430.007	3.13
430.214	3.2
430.421	3.12
430.628	3.05
430.835	2.98
431.042	3.03
431.249	3.02
431.456	3.01
431.662	2.98
431.869	3.12
432.076	3.2
432.283	3.17
432.49	3.17
432.697	3.16
432.903	3.11
433.11	3.16
433.317	3.09
433.524	3.01
433.73	3.13
433.937	3.05
434.144	3.13
434.35	3.12
434.557	3.07
434.764	3.07
434.97	3.18
435.177	3.1
435.384	3.2
435.59	3.09
435.797	3.11
436.003	3.08
436.21	3.06
436.416	3.01
436.623	3.03
436.829	2.97
437.036	3
437.242	2.97
437.449	2.99
437.655	3
437.862	3.04
438.068	3.1
438.275	3.07
438.481	3.17
438.687	3.27
438.894	3.3
439.1	3.32
439.307	3.31
439.513	3.24
439.719	3.33
439.926	3.28
440.132	3.23
440.338	3.21
440.544	3.19
440.751	3.23
440.957	3.24
441.163	3.17
441.369	3.17
441.575	3.17
441.782	3.19
441.988	3.17
442.194	3.19
442.4	3.18
442.606	3.28
442.812	3.32
443.018	3.36
443.224	3.35
443.431	3.4
443.637	3.34
443.843	3.4
444.049	3.33
444.255	3.22
444.461	3.15
444.667	3.15
444.873	3.11
445.079	3.12
445.284	3.07
445.49	3.09
445.696	3.22
445.902	3.28
446.108	3.28
446.314	3.33
446.52	3.36
446.726	3.4
446.931	3.39
447.137	3.34
447.343	3.35
447.549	3.35
447.755	3.3
447.96	3.27
448.166	3.26
448.372	3.27
448.578	3.27
448.783	3.23
448.989	3.26
449.195	3.31
449.4	3.3
449.606	3.28
449.812	3.31
450.017	3.29
450.223	3.3
450.428	3.28
450.634	3.33
450.84	3.38
451.045	3.36
451.251	3.39
451.456	3.42
451.662	3.43
451.867	3.43
452.073	3.4
452.278	3.4
452.483	3.42
452.689	3.43
452.894	3.46
453.1	3.42
453.305	3.44
453.51	3.45
453.716	3.43
453.921	3.43
454.127	3.32
454.332	3.29
454.537	3.4
454.742	3.4
454.948	3.38
455.153	3.34
455.358	3.42
455.563	3.51
455.769	3.5
455.974	3.38
456.179	3.33
456.384	3.37
456.589	3.37
456.795	3.26
457	3.22
457.205	3.18
457.41	3.24
457.615	3.29
457.82	3.34
458.025	3.39
458.23	3.43
458.435	3.4
458.64	3.49
458.845	3.42
459.05	3.42
459.255	3.34
459.46	3.33
459.665	3.39
459.87	3.41
460.075	3.36
460.28	3.43
460.485	3.48
460.69	3.44
460.895	3.46
461.099	3.42
461.304	3.45
461.509	3.37
461.714	3.39
461.919	3.3
462.123	3.37
462.328	3.33
462.533	3.36
462.738	3.37
462.942	3.46
463.147	3.46
463.352	3.52
463.556	3.55
463.761	3.59
463.966	3.6
464.17	3.62
464.375	3.6
464.58	3.56
464.784	3.56
464.989	3.53
465.193	3.57
465.398	3.58
465.602	3.55
465.807	3.62
466.011	3.67
466.216	3.66
466.42	3.66
466.625	3.62
466.829	3.63
467.034	3.7
467.238	3.69
467.443	3.73
467.647	3.78
467.851	3.8
468.056	3.81
468.26	3.77
468.464	3.72
468.669	3.73
468.873	3.69
469.077	3.7
469.282	3.71
469.486	3.74
469.69	3.79
469.894	3.83
470.099	3.8
470.303	3.81
470.507	3.81
470.711	3.81
470.915	3.82
471.119	3.78
471.324	3.74
471.528	3.79
471.732	3.8
471.936	3.82
472.14	3.81
472.344	3.77
472.548	3.8
472.752	3.87
472.956	3.9
473.16	3.89
473.364	3.84
473.568	3.83
473.772	3.91
473.976	3.91
474.18	3.84
474.384	3.79
474.588	3.8
474.792	3.84
474.995	3.83
475.199	3.78
475.403	3.79
475.607	3.86
475.811	3.86
476.015	3.89
476.218	3.88
476.422	3.93
476.626	3.96
476.83	3.95
477.033	3.93
477.237	3.98
477.441	3.99
477.644	3.98
477.848	3.92
478.052	3.92
478.255	3.96
478.459	3.99
478.663	3.95
478.866	3.94
479.07	3.98
479.273	4.03
479.477	4.07
479.681	4.05
479.884	4.01
480.088	4.03
480.291	4.04
480.495	4.06
480.698	4.04
480.901	4.01
481.105	4.03
481.308	4.02
481.512	4.02
481.715	4.04
481.919	4
482.122	4.02
482.325	4.04
482.529	4.08
482.732	4.14
482.935	4.17
483.138	4.17
483.342	4.22
483.545	4.21
483.748	4.22
483.952	4.2
484.155	4.19
484.358	4.18
484.561	4.2
484.764	4.13
484.967	4.15
485.171	4.12
485.374	4.11
485.577	4.14
485.78	4.14
485.983	4.12
486.186	4.15
486.389	4.15
486.592	4.18
486.795	4.19
486.998	4.16
487.201	4.16
487.404	4.22
487.607	4.26
487.81	4.28
488.013	4.27
488.216	4.26
488.419	4.24
488.622	4.18
488.825	4.15
489.028	4.11
489.231	4.1
489.433	4.11
489.636	4.07
489.839	4.08
490.042	4.14
490.245	4.13
490.447	4.12
490.65	4.12
490.853	4.14
491.056	4.17
491.258	4.19
491.461	4.16
491.664	4.13
491.866	4.15
492.069	4.12
492.272	4.07
492.474	4.08
492.677	4.04
492.879	4.07
493.082	4.08
493.285	4.1
493.487	4.1
493.69	4.11
493.892	4.15
494.095	4.15
494.297	4.18
494.5	4.25
494.702	4.27
494.905	4.28
495.107	4.31
495.309	4.26
495.512	4.27
495.714	4.3
495.917	4.24
496.119	4.26
496.321	4.3
496.524	4.31
496.726	4.32
496.928	4.35
497.13	4.31
497.333	4.34
497.535	4.32
497.737	4.3
497.939	4.29
498.142	4.29
498.344	4.3
498.546	4.35
498.748	4.31
498.95	4.31
499.152	4.29
499.355	4.3
499.557	4.34
499.759	4.35
499.961	4.34
500.163	4.43
500.365	4.44
500.567	4.44
500.769	4.47
500.971	4.41
501.173	4.45
501.375	4.43
501.577	4.4
501.779	4.43
501.981	4.47
502.183	4.42
502.385	4.46
502.587	4.42
502.788	4.42
502.99	4.41
503.192	4.4
503.394	4.39
503.596	4.56
503.798	4.65
503.999	4.64
504.201	4.68
504.403	4.72
504.605	4.75
504.806	4.76
505.008	4.64
505.21	4.59
505.411	4.63
505.613	4.59
505.815	4.62
506.016	4.62
506.218	4.61
506.42	4.65
506.621	4.7
506.823	4.71
507.024	4.73
507.226	4.7
507.427	4.68
507.629	4.71
507.83	4.65
508.032	4.65
508.233	4.66
508.435	4.68
508.636	4.68
508.838	4.72
509.039	4.74
509.24	4.79
509.442	4.73
509.643	4.71
509.845	4.74
510.046	4.76
510.247	4.79
510.448	4.79
510.65	4.79
510.851	4.85
511.052	4.88
511.254	4.85
511.455	4.86
511.656	4.85
511.857	4.84
512.058	4.89
512.26	4.87
512.461	4.9
512.662	4.89
512.863	4.91
513.064	4.88
513.265	4.92
513.466	4.93
513.667	4.99
513.868	4.97
514.069	5.02
514.27	5.02
514.471	5.06
514.672	5.07
514.873	5.11
515.074	5.09
515.275	5.1
515.476	5.12
515.677	5.14
515.878	5.18
516.079	5.17
516.28	5.14
516.481	5.14
516.682	5.16
516.882	5.14
517.083	5.11
517.284	5.08
517.485	5.09
517.686	5.08
517.886	5.06
518.087	5.07
518.288	5.08
518.488	5.12
518.689	5.14
518.89	5.19
519.091	5.21
519.291	5.23
519.492	5.24
519.692	5.27
519.893	5.26
520.094	5.28
520.294	5.25
520.495	5.24
520.695	5.23
520.896	5.23
521.096	5.2
521.297	5.23
521.497	5.23
521.698	5.24
521.898	5.27
522.099	5.31
522.299	5.32
522.499	5.35
522.7	5.35
522.9	5.36
523.101	5.37
523.301	5.37
523.501	5.42
523.702	5.41
523.902	5.44
524.102	5.46
524.302	5.45
524.503	5.46
524.703	5.47
524.903	5.46
525.103	5.47
525.304	5.46
525.504	5.46
525.704	5.47
525.904	5.47
526.104	5.47
526.304	5.46
526.504	5.46
526.705	5.49
526.905	5.52
527.105	5.54
527.305	5.54
527.505	5.56
527.705	5.55
527.905	5.56
528.105	5.55
528.305	5.56
528.505	5.53
528.705	5.56
528.905	5.55
529.105	5.61
529.304	5.63
529.504	5.63
529.704	5.63
529.904	5.67
530.104	5.66
530.304	5.71
530.503	5.68
530.703	5.75
530.903	5.76
531.103	5.75
531.303	5.79
531.502	5.8
531.702	5.77
531.902	5.79
532.101	5.74
532.301	5.75
532.501	5.78
532.7	5.76
532.9	5.81
533.1	5.81
533.299	5.84
533.499	5.85
533.698	5.89
533.898	5.9
534.097	5.94
534.297	5.94
534.496	5.96
534.696	5.98
534.895	6.02
535.095	6.02
535.294	6
535.494	6.02
535.693	6.06
535.892	6.07
536.092	6.06
536.291	6.06
536.491	6.06
536.69	6.1
536.889	6.08
537.088	6.07
537.288	6.14
537.487	6.18
537.686	6.22
537.886	6.24
538.085	6.28
538.284	6.31
538.483	6.33
538.682	6.29
538.882	6.31
539.081	6.3
539.28	6.32
539.479	6.32
539.678	6.38
539.877	6.42
540.076	6.46
540.275	6.46
540.474	6.48
540.673	6.51
540.872	6.55
541.071	6.52
541.27	6.5
541.469	6.54
541.668	6.62
541.867	6.65
542.066	6.65
542.265	6.64
542.464	6.68
542.663	6.73
542.862	6.76
543.06	6.73
543.259	6.74
543.458	6.78
543.657	6.87
543.856	6.91
544.054	6.93
544.253	6.95
544.452	6.96
544.651	7.01
544.849	7.03
545.048	7.03
545.247	7.07
545.445	7.09
545.644	7.13
545.843	7.21
546.041	7.24
546.24	7.29
546.438	7.37
546.637	7.44
546.836	7.48
547.034	7.49
547.233	7.47
547.431	7.48
547.63	7.53
547.828	7.53
548.027	7.48
548.225	7.52
548.423	7.59
548.622	7.66
548.82	7.74
549.019	7.77
549.217	7.82
549.415	7.92
549.614	7.93
549.812	7.99
550.01	8.04
550.209	8.11
550.407	8.15
550.605	8.23
550.803	8.26
551.002	8.31
551.2	8.37
551.398	8.4
551.596	8.43
551.794	8.49
551.993	8.47
552.191	8.58
552.389	8.67
552.587	8.67
552.785	8.75
552.983	8.8
553.181	8.82
553.379	8.92
553.577	8.96
553.775	9.02
553.973	9.11
554.171	9.14
554.369	9.17
554.567	9.25
554.765	9.29
554.963	9.29
555.161	9.33
555.359	9.4
555.557	9.48
555.755	9.58
555.952	9.63
556.15	9.69
556.348	9.8
556.546	9.88
556.744	9.91
556.941	9.99
557.139	10.08
557.337	10.11
557.535	10.19
557.732	10.28
557.93	10.37
558.128	10.42
558.325	10.49
558.523	10.52
558.721	10.64
558.918	10.74
559.116	10.75
559.313	10.81
559.511	10.9
559.708	10.94
559.906	11.04
560.104	11.11
560.301	11.16
560.498	11.27
560.696	11.29
560.893	11.38
561.091	11.47
561.288	11.52
561.486	11.59
561.683	11.69
561.88	11.76
562.078	11.85
562.275	11.91
562.473	12.01
562.67	12.07
562.867	12.14
563.064	12.16
563.262	12.26
563.459	12.33
563.656	12.42
563.853	12.48
564.051	12.56
564.248	12.6
564.445	12.7
564.642	12.76
564.839	12.86
565.036	12.95
565.234	13.04
565.431	13.11
565.628	13.21
565.825	13.28
566.022	13.35
566.219	13.42
566.416	13.49
566.613	13.51
566.81	13.58
567.007	13.62
567.204	13.68
567.401	13.72
567.598	13.72
567.795	13.74
567.991	13.79
568.188	13.83
568.385	13.85
568.582	13.88
568.779	13.94
568.976	14.05
569.172	14.12
569.369	14.18
569.566	14.18
569.763	14.27
569.96	14.33
570.156	14.36
570.353	14.35
570.55	14.39
570.746	14.41
570.943	14.53
571.14	14.56
571.336	14.54
571.533	14.59
571.729	14.62
571.926	14.6
572.123	14.64
572.319	14.66
572.516	14.69
572.712	14.74
572.909	14.77
573.105	14.82
573.302	14.86
573.498	14.92
573.695	14.92
573.891	14.96
574.087	15.03
574.284	15
574.48	15
574.677	15
574.873	15.03
575.069	15.07
575.266	15.08
575.462	15.05
575.658	15.11
575.854	15.15
576.051	15.16
576.247	15.13
576.443	15.12
576.639	15.08
576.835	15.12
577.032	15.11
577.228	15.11
577.424	15.16
577.62	15.15
577.816	15.16
578.012	15.16
578.208	15.13
578.404	15.12
578.6	15.12
578.796	15.12
578.993	15.14
579.189	15.1
579.384	15.08
579.58	15.1
579.776	15.07
579.972	15.02
580.168	14.98
580.364	14.99
580.56	15
580.756	15.02
580.952	14.97
581.148	14.97
581.343	14.97
581.539	14.93
581.735	14.91
581.931	14.87
582.127	14.8
582.322	14.83
582.518	14.79
582.714	14.79
582.909	14.77
583.105	14.72
583.301	14.72
583.496	14.73
583.692	14.68
583.888	14.69
584.083	14.69
584.279	14.71
584.474	14.7
584.67	14.68
584.866	14.67
585.061	14.67
585.257	14.66
585.452	14.61
585.648	14.6
585.843	14.62
586.039	14.61
586.234	14.59
586.429	14.54
586.625	14.55
586.82	14.54
587.015	14.52
587.211	14.51
587.406	14.54
587.601	14.58
587.797	14.61
587.992	14.6
588.187	14.59
588.383	14.61
588.578	14.58
588.773	14.55
588.968	14.57
589.163	14.6
589.359	14.57
589.554	14.63
589.749	14.6
589.944	14.64
590.139	14.65
590.334	14.66
590.529	14.72
590.724	14.74
590.919	14.73
591.114	14.75
591.309	14.76
591.504	14.78
591.699	14.79
591.894	14.77
592.089	14.77
592.284	14.78
592.479	14.81
592.674	14.83
592.869	14.87
593.064	14.93
593.259	14.94
593.454	14.96
593.648	15
593.843	15.06
594.038	15.09
594.233	15.14
594.428	15.21
594.622	15.24
594.817	15.29
595.012	15.3
595.206	15.32
595.401	15.36
595.596	15.39
595.79	15.38
595.985	15.43
596.18	15.53
596.374	15.58
596.569	15.65
596.763	15.77
596.958	15.83
597.153	15.9
597.347	15.95
597.542	15.98
597.736	16.08
597.931	16.13
598.125	16.16
598.319	16.18
598.514	16.2
598.708	16.28
598.903	16.39
599.097	16.41
599.291	16.44
599.486	16.42
599.68	16.48
599.874	16.57
600.069	16.62
600.263	16.59
600.457	16.62
600.651	16.64
600.846	16.68
601.04	16.73
601.234	16.73
601.428	16.71
601.622	16.73
601.817	16.74
602.011	16.76
602.205	16.82
602.399	16.83
602.593	16.82
602.787	16.88
602.981	16.89
603.175	16.92
603.369	16.94
603.563	16.96
603.757	16.92
603.951	16.9
604.145	16.82
604.339	16.81
604.533	16.79
604.727	16.78
604.921	16.68
605.115	16.66
605.309	16.67
605.502	16.67
605.696	16.66
605.89	16.68
606.084	16.6
606.278	16.59
606.471	16.53
606.665	16.49
606.859	16.44
607.053	16.35
607.246	16.28
607.44	16.28
607.634	16.27
607.827	16.21
608.021	16.15
608.214	16.13
608.408	16.1
608.602	16.04
608.795	15.99
608.989	15.95
609.182	15.93
609.376	15.87
609.569	15.82
609.763	15.84
609.956	15.73
610.15	15.69
610.343	15.6
610.537	15.55
610.73	15.5
610.923	15.4
611.117	15.26
611.31	15.27
611.504	15.18
611.697	15.13
611.89	15.06
612.083	14.99
612.277	14.95
612.47	14.9
612.663	14.81
612.856	14.75
613.05	14.66
613.243	14.6
613.436	14.54
613.629	14.52
613.822	14.47
614.015	14.42
614.209	14.39
614.402	14.4
614.595	14.35
614.788	14.25
614.981	14.17
615.174	14.11
615.367	14.09
615.56	13.99
615.753	13.91
615.946	13.86
616.139	13.93
616.332	13.86
616.525	13.88
616.718	13.85
616.911	13.82
617.103	13.8
617.296	13.78
617.489	13.7
617.682	13.7
617.875	13.61
618.067	13.52
618.26	13.48
618.453	13.38
618.646	13.3
618.838	13.24
619.031	13.24
619.224	13.24
619.417	13.22
619.609	13.2
619.802	13.21
619.994	13.16
620.187	13.14
620.38	13.08
620.572	13.05
620.765	13
620.957	12.95
621.15	12.91
621.342	12.96
621.535	12.94
621.727	12.89
621.92	12.85
622.112	12.84
622.305	12.83
622.497	12.79
622.69	12.72
622.882	12.73
623.074	12.7
623.267	12.64
623.459	12.62
623.651	12.63
623.844	12.61
624.036	12.61
624.228	12.56
624.42	12.57
624.613	12.57
624.805	12.6
624.997	12.59
625.189	12.63
625.381	12.6
625.574	12.6
625.766	12.59
625.958	12.61
626.15	12.59
626.342	12.53
626.534	12.5
626.726	12.49
626.918	12.41
627.11	12.39
627.302	12.33
627.494	12.27
627.686	12.26
627.878	12.21
628.07	12.18
628.262	12.19
628.454	12.18
628.646	12.14
628.838	12.11
629.029	12.05
629.221	12.04
629.413	12
629.605	11.94
629.797	11.93
629.989	11.92
630.18	11.87
630.372	11.9
630.564	11.92
630.755	11.91
630.947	11.89
631.139	11.82
631.33	11.82
631.522	11.81
631.714	11.75
631.905	11.69
632.097	11.66
632.289	11.64
632.48	11.63
632.672	11.54
632.863	11.53
633.055	11.54
633.246	11.52
633.438	11.49
633.629	11.51
633.821	11.51
634.012	11.5
634.203	11.54
634.395	11.55
634.586	11.54
634.777	11.5
634.969	11.47
635.16	11.42
635.351	11.4
635.543	11.33
635.734	11.27
635.925	11.27
636.117	11.26
636.308	11.2
636.499	11.18
636.69	11.24
636.881	11.26
637.073	11.24
637.264	11.18
637.455	11.24
637.646	11.26
637.837	11.27
638.028	11.23
638.219	11.2
638.41	11.18
638.601	11.14
638.792	11.06
638.983	11
639.174	10.98
639.365	10.91
639.556	10.87
639.747	10.84
639.938	10.87
640.129	10.86
640.32	10.84
640.511	10.83
640.701	10.84
640.892	10.85
641.083	10.85
641.274	10.81
641.465	10.78
641.655	10.74
641.846	10.7
642.037	10.65
642.228	10.58
642.418	10.53
642.609	10.54
642.8	10.5
642.99	10.54
643.181	10.54
643.372	10.55
643.562	10.54
643.753	10.52
643.943	10.48
644.134	10.47
644.324	10.4
644.515	10.38
644.705	10.37
644.896	10.32
645.086	10.28
645.277	10.31
645.467	10.34
645.658	10.32
645.848	10.25
646.038	10.19
646.229	10.21
646.419	10.23
646.61	10.18
646.8	10.13
646.99	10.15
647.18	10.2
647.371	10.21
647.561	10.18
647.751	10.11
647.941	10.06
648.132	10.08
648.322	10.09
648.512	10.1
648.702	10.05
648.892	10.08
649.082	10.1
649.272	10.06
649.462	10.04
649.653	10.03
649.843	9.96
650.033	10
650.223	10
650.413	9.98
650.603	10.02
650.793	9.95
650.983	9.91
651.172	9.92
651.362	9.87
651.552	9.81
651.742	9.75
651.932	9.73
652.122	9.75
652.312	9.62
652.502	9.6
652.691	9.56
652.881	9.55
653.071	9.48
653.261	9.42
653.45	9.39
653.64	9.4
653.83	9.31
654.019	9.23
654.209	9.16
654.399	9.15
654.588	9.09
654.778	9.01
654.968	8.92
655.157	8.86
655.347	8.79
655.536	8.66
655.726	8.61
655.915	8.49
656.105	8.4
656.294	8.35
656.484	8.28
656.673	8.24
656.863	8.22
657.052	8.09
657.241	8.03
657.431	7.93
657.62	7.84
657.809	7.74
657.999	7.6
658.188	7.5
658.377	7.43
658.567	7.31
658.756	7.2
658.945	7.09
659.134	7.02
659.324	6.96
659.513	6.83
659.702	6.75
659.891	6.69
660.08	6.66
660.269	6.61
660.458	6.51
660.648	6.41
660.837	6.36
661.026	6.27
661.215	6.2
661.404	6.06
661.593	5.96
661.782	5.9
661.971	5.88
662.16	5.83
662.349	5.73
662.538	5.67
662.726	5.7
662.915	5.66
663.104	5.6
663.293	5.49
663.482	5.42
663.671	5.41
663.86	5.38
664.048	5.29
664.237	5.26
664.426	5.27
664.615	5.25
664.803	5.22
664.992	5.26
665.181	5.2
665.369	5.19
665.558	5.16
665.747	5.19
665.935	5.2
666.124	5.28
666.312	5.2
666.501	5.21
666.69	5.22
666.878	5.22
667.067	5.15
667.255	5.16
667.444	5.16
667.632	5.21
667.82	5.22
668.009	5.23
668.197	5.28
668.386	5.27
668.574	5.28
668.762	5.2
668.951	5.17
669.139	5.24
669.327	5.27
669.516	5.23
669.704	5.32
669.892	5.33
670.08	5.42
670.269	5.47
670.457	5.49
670.645	5.53
670.833	5.59
671.021	5.56
671.21	5.66
671.398	5.68
671.586	5.75
671.774	5.76
671.962	5.77
672.15	5.77
672.338	5.88
672.526	5.85
672.714	5.88
672.902	5.89
673.09	5.99
673.278	6.04
673.466	6.19
673.654	6.21
673.842	6.31
674.03	6.45
674.218	6.46
674.405	6.46
674.593	6.53
674.781	6.52
674.969	6.61
675.157	6.59
675.344	6.59
675.532	6.7
675.72	6.77
675.908	6.84
676.095	6.92
676.283	6.93
676.471	7.01
676.658	7.11
676.846	7.18
677.033	7.3
677.221	7.4
677.409	7.47
677.596	7.65
677.784	7.72
677.971	7.77
678.159	7.88
678.346	7.88
678.534	7.95
678.721	8
678.909	7.96
679.096	8
679.283	8.08
679.471	8.11
679.658	8.18
679.846	8.23
680.033	8.33
680.22	8.38
680.408	8.49
680.595	8.54
680.782	8.62
680.969	8.7
681.157	8.74
681.344	8.86
681.531	8.92
681.718	9.06
681.905	9.18
682.093	9.25
682.28	9.36
682.467	9.45
682.654	9.45
682.841	9.57
683.028	9.69
683.215	9.76
683.402	9.77
683.589	9.85
683.776	9.98
683.963	10.1
684.15	10.23
684.337	10.25
684.524	10.43
684.711	10.64
684.898	10.73
685.085	10.89
685.271	11.05
685.458	11.16
685.645	11.29
685.832	11.49
686.019	11.73
686.205	11.92
686.392	12.06
686.579	12.21
686.766	12.5
686.952	12.86
687.139	12.97
687.326	13.16
687.512	13.47
687.699	13.76
687.886	14.02
688.072	14.29
688.259	14.59
688.445	14.87
688.632	15.26
688.818	15.5
689.005	15.92
689.191	16.32
689.378	16.62
689.564	16.85
689.751	17.34
689.937	17.64
690.124	18
690.31	18.24
690.496	18.62
690.683	19.03
690.869	19.46
691.055	19.91
691.242	20.29
691.428	20.8
691.614	21.37
691.8	21.85
691.987	22.46
692.173	23.01
692.359	23.36
692.545	23.89
692.731	24.44
692.918	24.88
693.104	25.37
693.29	25.86
693.476	26.33
693.662	26.98
693.848	27.48
694.034	27.99
694.22	28.57
694.406	29.21
694.592	29.76
694.778	30.42
694.964	30.93
695.15	31.62
695.336	32.42
695.522	33.1
695.708	33.65
695.894	34.3
696.08	34.95
696.265	35.6
696.451	36.2
696.637	36.68
696.823	37.26
697.009	37.84
697.194	38.37
697.38	38.91
697.566	39.55
697.751	40.24
697.937	40.83
698.123	41.38
698.308	42.05
698.494	42.73
698.68	43.27
698.865	43.9
699.051	44.43
699.236	45
699.422	45.69
699.607	46.33
699.793	46.83
699.978	47.34
700.164	47.86
700.349	48.41
700.535	48.97
700.72	49.5
700.906	50.04
701.091	50.59
701.276	51.26
701.462	51.76
701.647	52.2
701.832	52.8
702.018	53.26
702.203	53.66
702.388	54.15
702.573	54.76
702.759	55.26
702.944	55.9
703.129	56.3
703.314	56.89
703.499	57.33
703.684	57.99
703.87	58.35
704.055	58.94
704.24	59.42
704.425	60.05
704.61	60.36
704.795	60.97
704.98	61.38
705.165	61.87
705.35	62.24
705.535	62.69
705.72	62.91
705.905	63.32
706.09	63.64
706.275	63.85
706.459	64.38
706.644	64.82
706.829	65.18
707.014	65.66
707.199	66.08
707.384	66.68
707.568	67.33
707.753	67.51
707.938	67.81
708.123	68.1
708.307	68.65
708.492	69.16
708.677	69.51
708.861	69.69
709.046	70.04
709.231	70.44
709.415	70.81
709.6	71.01
709.784	71.41
709.969	71.85
710.153	72.46
710.338	72.91
710.522	73.02
710.707	73.04
710.891	73.47
711.076	73.54
711.26	73.78
711.445	73.83
711.629	74.19
711.813	74.62
711.998	75.34
712.182	75.7
712.366	76.08
712.551	76.13
712.735	76.36
712.919	76.75
713.103	77.09
713.288	77.35
713.472	77.58
713.656	77.83
713.84	78.02
714.024	78.48
714.208	78.62
714.393	79.11
714.577	79.29
714.761	79.54
714.945	79.93
715.129	80.57
715.313	80.73
715.497	81.11
715.681	81.53
715.865	81.86
716.049	82.16
716.233	82.58
716.417	82.66
716.601	82.93
716.785	83.04
716.968	82.73
717.152	82.97
717.336	83.14
717.52	83.28
717.704	83.64
717.888	83.83
718.071	84.01
718.255	84.77
718.439	84.85
718.622	85.03
718.806	84.89
718.99	85.06
719.174	85.38
719.357	85.58
719.541	85.77
719.724	85.93
719.908	86.06
720.092	86.81
720.275	87
720.459	87.09
720.642	87.33
720.826	87.24
721.009	87.52
721.193	87.69
721.376	87.67
721.559	87.74
721.743	88.03
721.926	88.13
722.11	88.28
722.293	88.08
722.476	87.95
722.66	87.97
722.843	88.41
723.026	88.55
723.21	88.7
723.393	88.84
723.576	88.97
723.759	89.75
723.942	89.91
724.126	89.83
724.309	89.93
724.492	90.39
724.675	90.59
724.858	91.59
725.041	91.48
725.224	91.75
725.407	91.78
725.59	91.97
725.774	91.65
725.957	91.86
726.14	91.61
726.322	91.53
726.505	91.7
726.688	92.04
726.871	92.13
727.054	92.26
727.237	91.94
727.42	92.34
727.603	92.64
727.786	92.91
727.968	93.07
728.151	93.34
728.334	93.68
728.517	94.42
728.699	94.67
728.882	95.33
729.065	95.27
729.248	95.31
729.43	95.33
729.613	95.65
729.796	95.6
729.978	95.36
730.161	95.46
730.343	95.61
730.526	95.81
730.708	96.44
730.891	96.21
731.073	96.09
731.256	96.37
731.438	96.22
731.621	96.81
731.803	96.73
731.986	96.61
732.168	97
732.35	97.45
732.533	97.46
732.715	97.77
732.898	97.65
733.08	98.37
733.262	98.16
733.444	98.4
733.627	98.6
733.809	98.85
733.991	98.72
734.173	98.29
734.355	98.31
734.538	98.3
734.72	98.72
734.902	98.6
735.084	98.68
735.266	98.76
735.448	99.24
735.63	98.88
735.812	99.46
735.994	98.76
736.176	99.13
736.358	99.58
736.54	99.44
736.722	99.18
736.904	99.58
737.086	99.39
737.268	99.8
737.45	99.73
737.632	99.04
737.814	99.15
737.995	99.45
738.177	99.92
738.359	100.2
738.541	100.02
738.723	100.18
738.904	100.02
739.086	100.36
739.268	101.02
739.449	100.47
739.631	100.6
739.813	100.8
739.994	101.05
740.176	101.54
740.358	101.61
740.539	101.14
740.721	101.4
740.902	100.99
741.084	101.46
741.265	101.15
741.447	100.74
741.628	100.55
741.81	100.77
741.991	101.15
742.172	101.21
742.354	101.05
742.535	101.54
742.717	101.91
742.898	102.42
743.079	102.07
743.261	101.87
743.442	102.52
743.623	102.25
743.804	101.82
743.986	102.08
744.167	101.79
744.348	102.21
744.529	101.7
744.71	100.45
744.891	101.16
745.073	101.82
745.254	101.86
745.435	101.55
745.616	101.3
745.797	101.31
745.978	102.61
746.159	102.2
746.34	101.84
746.521	101.74
746.702	101.92
746.883	102.65
747.064	102.94
747.245	103.39
747.426	103.43
747.606	103.15
747.787	103.8
747.968	104.24
748.149	103.4
748.33	103.59
748.51	102.47
748.691	102.66
748.872	102.55
749.053	101.64
749.233	101.43
749.414	102.08
749.595	101.45
749.775	101.62
749.956	100.92
750.137	101.32
750.317	101.79
750.498	102.3
750.678	102.18
750.859	102.75
751.04	102.63
751.22	102.35
751.4	102.58
751.581	101.72
751.761	101.86
751.942	101.91
752.122	101.65
752.303	102.12
752.483	103.41
752.663	103.5
752.844	103.79
753.024	103.34
753.204	102.86
753.385	102.45
753.565	101.46
753.745	101.05
753.925	99.89
754.106	99.96
754.286	99.51
754.466	99.53
754.646	99.74
754.826	100.35
755.006	99.88
755.187	101.37
755.367	101.94
755.547	102.54
755.727	102.23
755.907	102.99
756.087	103.05
756.267	103.11
756.447	102.29
756.627	101.74
756.807	101.52
756.987	102.62
757.167	102.39
757.346	101.16
757.526	100.9
757.706	100.43
757.886	100.5
758.066	99.95
758.246	99.27
758.425	99.13
758.605	100.12
758.785	100.3
758.965	99.74
759.144	100.8
759.324	101.26
759.504	101.22
759.683	100.96
759.863	100.6
760.043	100.96
760.222	100.99
760.402	100.89
760.581	100.59
760.761	99.93
760.94	99.74
761.12	100.1
761.299	99.38
761.479	100.07
761.658	98.88
761.838	99.43
762.017	100.08
762.197	100.59
762.376	99.9
762.555	100.89
762.735	99.97
762.914	100.06
763.093	99.41
763.273	99.24
763.452	98.67
763.631	98.52
763.81	97.99
763.99	99.24
764.169	98.84
764.348	98.5
764.527	98.04
764.706	98.89
764.885	99.87
765.064	99.43
765.243	99.24
765.423	100.8
765.602	100.95
765.781	100.74
765.96	99.54
766.139	98.63
766.318	99.29
766.497	99.34
766.676	98.55
766.854	98.17
767.033	98.26
767.212	97.97
767.391	98.13
767.57	97.5
767.749	97.19
767.928	95.44
768.106	95.6
768.285	95.66
768.464	96.25
768.643	97.37
768.821	96.98
769	96.78
769.179	96.65
769.357	96.37
769.536	96.04
769.715	96.08
769.893	95.21
770.072	95.28
770.25	95.16
770.429	96.37
770.607	96.08
770.786	96.76
770.964	95.45
771.143	94.72
771.321	93.9
771.5	93.86
771.678	93.81
771.857	93.63
772.035	93.35
772.213	94.44
772.392	94.84
772.57	96.07
772.748	95.5
772.927	95.26
773.105	96.42
773.283	95.39
773.461	95.08
773.64	95.24
773.818	93.52
773.996	93.48
774.174	93.6
774.352	93.36
774.531	93.46
774.709	93.71
774.887	93.31
775.065	94.39
775.243	95.37
775.421	95.4
775.599	94.4
775.777	94.51
775.955	94.31
776.133	93.6
776.311	93.72
776.489	91.98
776.667	91.96
776.844	92.31
777.022	92.2
777.2	92.19
777.378	93.45
777.556	94.43
777.734	95.98
777.911	97.36
778.089	96.77
778.267	97.04
778.445	96.88
778.622	95.31
778.8	93.99
778.978	93.58
779.155	91.56
779.333	91.39
779.511	91.05
779.688	88.54
779.866	87.89
780.043	89.55
780.221	88.93
780.398	89.67
780.576	88.77
780.753	88.25
780.931	90.77
781.108	91.79
781.286	89.01
781.463	88.89
781.64	89.26
781.818	90.23
781.995	92.14
782.172	91.53
782.35	90.95
782.527	93.79
782.704	93.72
782.882	93.41
783.059	93.87
783.236	92.34
783.413	92.38
783.59	92.68
783.768	90.86
783.945	91.42
784.122	91.01
784.299	90.2
784.476	91.67
784.653	90.77
784.83	89.94
785.007	90.57
785.184	90.14
785.361	89.75
785.538	90.23
785.715	88.91
785.892	88.04
786.069	89.28
786.246	87.72
786.423	89.47
786.6	88.74
786.776	88.02
786.953	86.04
787.13	88.78
787.307	88.82
787.484	90.76
787.66	89.17
787.837	89.44
788.014	89.72
788.191	91.45
788.367	88.76
788.544	89.08
788.721	88.56
788.897	89.27
789.074	88.47
789.25	90.59
789.427	90.46
789.603	92.79
789.78	94.24
789.956	92.74
790.133	91.84
790.309	93.74
790.486	94
790.662	95.24
790.839	97.01
791.015	95.11
791.192	96.56
791.368	96.7
791.544	97.08
791.721	93.76
791.897	92.74
792.073	89.88
792.249	91.85
792.426	90.22
792.602	90.01
792.778	90.11
792.954	92.23
793.13	93.88
793.307	93.22
793.483	91
793.659	92.4
793.835	91.64
794.011	87.57
794.187	82.05
794.363	79.93
794.539	79.51
794.715	76.46
794.891	74.15
795.067	75.32
795.243	78.18
795.419	82.6
795.595	81.87
795.771	82.46
795.947	84
796.122	86.04
796.298	84.12
796.474	83.98
796.65	83.85
796.826	87.37
797.001	89.47
797.177	89.18
797.353	88.63
797.529	89.04
797.704	86.94
797.88	86.12
798.056	84.37
798.231	82.76
798.407	83.4
798.582	84.21
798.758	88.73
798.934	86.89
799.109	83.66
799.285	81.51
799.46	80.6
799.636	81.51
799.811	83.02
799.986	78.87
800.162	83.77
800.337	86.93
800.513	91.39
800.688	94.43
800.863	96.59
801.039	94.36
801.214	94.31
801.389	89.94
801.565	93.38
801.74	88.86
801.915	87.2
802.09	82.55
802.265	83.27
802.441	85.63
802.616	87.89
802.791	84.72
802.966	83.24
803.141	79.58
803.316	83.69
803.491	82.49
803.666	80.79
803.841	82.54
804.016	82.74
804.191	84.17
804.366	85.75
804.541	82.07
804.716	78.26
804.891	81.86
805.066	78.71
805.241	76.21
805.416	75.2
805.591	78.64
805.765	79.2
805.94	81.9
806.115	74.92
806.29	79.05
806.464	79.54
806.639	78.97
806.814	77.12
806.989	75.06
807.163	75.34
807.338	78.84
807.512	69.51
807.687	71.84
807.862	77.8
808.036	77.82
808.211	81.56
808.385	79.93
808.56	80.84
808.734	87.16
808.909	82.6
809.083	79.86
809.258	81.61
809.432	78.78
809.606	79.56
809.781	78.17
809.955	79.08
810.13	85.62
810.304	83.78
810.478	81.3
810.652	86.91
810.827	87.18
811.001	86.31
811.175	84.11
811.349	79.35
811.524	80.31
811.698	78.23
811.872	77.34
812.046	78.68
812.22	78.32
812.394	76.99
812.568	80.17
812.742	80.98
812.916	84.91
813.09	82.25
813.264	82.95
813.438	89.17
813.612	91.55
813.786	97.01
813.96	97.26
814.134	93.63
814.308	88.09
814.482	85.81
814.656	83.34
814.83	87.71
815.003	83.02
815.177	80.84
815.351	86.47
815.525	88.67
815.698	84.7
815.872	80.19
816.046	74.19
816.219	75
816.393	68.7
816.567	62.84
816.74	66.45
816.914	71.23
817.088	70.35
817.261	72.62
817.435	65.06
817.608	69.29
817.782	76.37
817.955	71.5
818.129	74.36
818.302	78.58
818.475	79.22
818.649	83.77
818.822	84.3
818.996	77.07
819.169	80.06
819.342	70.14
819.516	68.83
819.689	67.36
819.862	64.2
820.035	63.61
820.209	62.76
820.382	56.26
820.555	62.17
820.728	57.98
820.901	58.49
821.075	69.02
821.248	68.32
821.421	69.41
821.594	75.99
821.767	72.84
821.94	74.68
822.113	76.25
822.286	73.23
822.459	83.18
822.632	88.19
822.805	85.72
822.978	87.34
823.151	87.26
823.324	80.16
823.496	69.19
823.669	69.41
823.842	66.94
824.015	62.86
824.188	69.05
824.361	70.46
824.533	74.96
824.706	91.18
824.879	78.82
825.051	79.01
825.224	84.49
825.397	75.05
825.569	75.55
825.742	77.94
825.915	72.26
826.087	63.33
826.26	59.1
826.432	60.84
826.605	65.18
826.777	64.17
826.95	59.87
827.122	61.01
827.295	70.28
827.467	65.65
827.64	54.88
827.812	49.5
827.984	54.66
828.157	56.45
828.329	55.76
828.501	56.89
828.674	61.31
828.846	62.39
829.018	65.38
829.19	54.43
829.363	50.12
829.535	50.35
829.707	52.16
829.879	53
830.051	55.31
830.223	49.69
830.395	51.66
830.568	60.89
830.74	62.7
830.912	61.52
831.084	58.42
831.256	54.69
831.428	60.37
831.6	63.33
831.772	60.24
831.943	63.84
832.115	61.88
832.287	57.15
832.459	64.47
832.631	64.35
832.803	73.49
832.975	75.51
833.146	72.41
833.318	78.88
833.49	87.23
833.662	87.76
833.833	92.8
834.005	81.53
834.177	84.83
834.348	78.15
834.52	76.95
834.692	83.24
834.863	76.97
835.035	66.18
835.206	73.25
835.378	73.28
835.549	66.84
835.721	62.77
835.892	54.21
836.064	59.85
836.235	66.44
836.407	58.25
836.578	52.58
836.749	60.34
836.921	58.03
837.092	67.3
837.264	63.22
837.435	53.82
837.606	63.55
837.777	56.78
837.949	46.88
838.12	47.92
838.291	48.61
838.462	45.79
838.633	45.73
838.805	42.56
838.976	56.52
839.147	56.94
839.318	49.44
839.489	42.4
839.66	56.77
839.831	55.53
840.002	50.86
840.173	39.17
840.344	48.86
840.515	57.74
840.686	64.14
840.857	48.1
841.028	61.76
841.199	67.03
841.369	65.95
841.54	76.62
841.711	76.5
841.882	64.14
842.053	75.47
842.223	61.4
842.394	61.75
842.565	77.88
842.736	59.1
842.906	60.48
843.077	62.08
843.248	67.13
843.418	59.64
843.589	68.3
843.759	56.35
843.93	56.18
844.101	53.23
844.271	56.6
844.442	43.97
844.612	38.59
844.783	20.56
844.953	12.24
845.123	20.04
845.294	16.7
845.464	31.89
845.635	42.43
845.805	60.11
845.975	54.96
846.146	51.47
846.316	59.4
846.486	67.04
846.656	75.56
846.827	68.89
846.997	78.38
847.167	87.54
847.337	102.96
847.507	103.64
847.677	105.07
847.848	95.5
848.018	95.08
848.188	81.31
848.358	81.87
848.528	68.01
848.698	39.94
848.868	21.49
849.038	36.58
849.208	47
849.378	41.71
849.548	40.56
849.718	47.41
849.887	58.42
850.057	56.78
850.227	42.53
850.397	29.01
850.567	47.67
850.737	50.59
850.906	34.05
851.076	29.22
851.246	44.07
851.415	49.52
851.585	46.97
851.755	35.61
851.924	44.66
852.094	47.73
852.264	47.29
852.433	53.8
852.603	64.17
852.772	65.9
852.942	68.66
853.111	58.94
853.281	67.88
853.45	68.95
853.62	55.61
853.789	50.17
853.959	49.75
854.128	46.97
854.297	45.03
854.467	40.41
854.636	43.08
854.805	54.76
854.975	62.06
855.144	70.31
855.313	66.96
855.482	55.1
855.652	56.3
855.821	53.88
855.99	47.9
856.159	32.55
856.328	31.43
856.497	25.03
856.667	50.88
856.836	49.15
857.005	41.17
857.174	52.15
857.343	49.18
857.512	38.31
857.681	38.76
857.85	13.77
858.019	17.54
858.188	20.42
858.356	-22.5
858.525	-12.95
858.694	3.89
858.863	20.3
859.032	16.44
859.201	0.73
859.369	11.05
859.538	21.33
859.707	34.28
859.876	45.41
860.044	39.84
860.213	43.54
860.382	53.15
860.55	70.81
860.719	82.68
860.888	68.48
861.056	52.21
861.225	74.56
861.393	98.89
861.562	81.08
861.73	66.33
861.899	46.64
862.067	66.31
862.236	58.76
862.404	47.51
862.572	35.95
862.741	32.88
862.909	30.73
863.078	21.92
863.246	20.52
863.414	24.37
863.582	22.77
863.751	11.51
863.919	27.83
864.087	30.44
864.255	38.38
864.424	30.55
864.592	36.06
864.76	46.79
864.928	57.33
865.096	47.55
865.264	51.83
865.432	56.48
865.6	45.34
865.768	26.25
865.936	16.57
866.104	13.83
866.272	16.26
866.44	-15.16
866.608	-14.08
866.776	21.87
866.944	34.59
867.112	3.01
867.28	-20.5
867.448	-7.75
867.615	17.51
867.783	-8.78
867.951	-31.05
868.119	-3.11
868.286	4.4
868.454	16.49
868.622	13.92
868.789	20.88
868.957	48.54
869.125	47.49
869.292	46.23
869.46	54.75
869.627	58.76
869.795	60.47
869.963	55.15
870.13	60.85
870.298	58.04
870.465	50.99
870.632	66.05
870.8	65.95
870.967	55.95
871.135	54.82
871.302	47.98
871.469	52.75
871.637	59.77
871.804	48.19
871.971	46.71
872.139	58.81
872.306	59.22
872.473	55.1
872.64	67.6
872.807	80.47
872.975	111.25
873.142	113.04
873.309	152.64
873.476	257.46
873.643	281.75
873.81	188.58
873.977	85.43
874.144	52.76
874.311	31.99
874.478	-28.34
874.645	-52.39
874.812	-36.99
874.979	-47.39
875.146	-72.48
875.313	-84.37
875.48	3.6
875.647	-6.21
875.813	-1.52
875.98	17.28
876.147	47.47
876.314	50.07
876.481	39.42
876.647	28.72
876.814	40.11
876.981	40.78
877.147	9.66
877.314	-0.22
877.481	24.64
877.647	37.7
877.814	27.77
877.98	37.26
878.147	47.27
878.314	68.47
878.48	79.77
878.647	97.93
878.813	92.93
878.979	102.33
879.146	63.87
879.312	87.54
879.479	90.92
879.645	68.55
879.811	44.94
879.978	47.16
880.144	66.14
880.31	62.61
880.477	25.73
880.643	-57.54
880.809	47.36
880.975	30.74
881.142	56.08
881.308	54.64
881.474	84.81
881.64	31.28
881.806	54.15
881.972	69.66
882.138	55.12
882.304	-2.25
882.47	-5.58
882.636	-51.56
882.802	-99.07
882.968	-195.08
883.134	-519.33
883.3	-217.02
883.466	-94.01
883.632	-77.32
883.798	-44.54
883.964	-2.96
884.129	-13.92
884.295	17.15
884.461	14.85
884.627	8.16
884.793	41.09
884.958	36.62
885.124	4.49
885.29	22.88
885.455	18.52
885.621	15.47
885.787	4.76
885.952	-9.95
886.118	8.56
886.283	24.3
886.449	19.55
886.614	35.89
886.78	39.59
886.945	20.18
887.111	19.62
887.276	-13.66
887.442	6.59
887.607	-18.19
887.773	-23.87
887.938	-41.4
888.103	10.55
888.269	7.16
888.434	7.81
888.599	16.12
888.764	25.84
888.93	19.7
889.095	-10.26
889.26	3.9
889.425	33.2
889.59	27.45
889.756	-6.93
889.921	9.94
890.086	34.96
890.251	58.34
890.416	1.7
890.581	-12.97
890.746	-16.15
890.911	-34.46
891.076	-61.44
891.241	-128.82
891.406	-52.58
891.571	3.45
891.736	-17.67
891.901	5.86
892.065	29.71
892.23	14.6
892.395	9.59
892.56	21.41
892.725	-2.78
892.889	-20.75
893.054	-68.73
893.219	-125.67
893.384	-182
893.548	-395
893.713	997.03
893.878	533.7
