Data from Ofra_2a_PS_2CX13O_Reflection_1.txt Node
Date: Tue Jul 20 10:02:08 EDT 2021
User: Adam
Spectrometer: FLMT01687
Trigger mode: 0
Integration Time (sec): 9.450000E-1
Scans to average: 3
Electric dark correction enabled: true
Nonlinearity correction enabled: false
Boxcar width: 3
XAxis mode: Wavelengths
Number of Pixels in Spectrum: 3648
>>>>>Begin Spectral Data<<<<<
179.494	1509.47
179.716	938.73
179.937	1054.95
180.158	3882.81
180.38	-1968.6
180.601	-379.55
180.823	-91.51
181.044	-60.16
181.265	-136.84
181.486	16.59
181.708	-1791.3
181.929	-211.16
182.15	-568.18
182.372	67.51
182.593	-110.62
182.814	626.35
183.035	536.36
183.257	257.52
183.478	155.52
183.699	132.4
183.92	82.7
184.141	75.2
184.363	60.97
184.584	35.72
184.805	44.36
185.026	48.85
185.247	20.32
185.468	26.38
185.689	13.89
185.91	14.85
186.132	33.14
186.353	4.49
186.574	12.28
186.795	-1.83
187.016	4.42
187.237	-0.84
187.458	-15.67
187.679	-37.61
187.9	-14.54
188.121	-1.03
188.342	42.87
188.563	41.56
188.784	38.56
189.005	48.29
189.226	49.72
189.447	37.7
189.667	38.18
189.888	37.9
190.109	49.31
190.33	48.94
190.551	37.49
190.772	24.27
190.993	34.79
191.214	15.23
191.434	7.03
191.655	8.15
191.876	27.98
192.097	27.52
192.318	36.09
192.538	30.72
192.759	40.44
192.98	29.59
193.201	27.92
193.421	21.4
193.642	14.84
193.863	-6.3
194.083	-18.13
194.304	-13.45
194.525	18.2
194.745	-4.63
194.966	0.91
195.187	26.45
195.407	36.62
195.628	39.3
195.848	41.92
196.069	27.3
196.29	31.8
196.51	22.76
196.731	24.9
196.951	14.56
197.172	19.35
197.392	21.74
197.613	21.63
197.833	22.08
198.054	29.92
198.274	12.18
198.495	9.55
198.715	3.12
198.936	-5.23
199.156	5.25
199.377	13.23
199.597	-12.06
199.817	-2.55
200.038	13.18
200.258	16.82
200.479	26.22
200.699	26.09
200.919	-3.58
201.14	8.98
201.36	7.2
201.58	12.86
201.801	13.38
202.021	12.71
202.241	19.7
202.461	33.19
202.682	42.7
202.902	41.09
203.122	23.5
203.342	27.86
203.563	20.41
203.783	15.68
204.003	25.11
204.223	27.05
204.443	24.5
204.663	31.34
204.884	30.76
205.104	37.28
205.324	59.99
205.544	57.8
205.764	45.43
205.984	42.17
206.204	43.23
206.424	39.64
206.644	37.67
206.864	11.58
207.084	23.32
207.304	22.35
207.525	13.78
207.745	23.28
207.964	16.4
208.184	18.58
208.404	28.32
208.624	13.86
208.844	-3.52
209.064	26.36
209.284	16.02
209.504	24.38
209.724	8.88
209.944	10.94
210.164	17.18
210.384	41.43
210.604	11
210.823	5.84
211.043	-6.38
211.263	-1.75
211.483	-3.07
211.703	0.37
211.922	2.9
212.142	14.55
212.362	15.99
212.582	15.73
212.801	25.14
213.021	32.08
213.241	19.28
213.461	9.34
213.68	9.12
213.9	10.51
214.12	10.53
214.339	-0.13
214.559	-1.89
214.779	-0.81
214.998	1.95
215.218	2.75
215.438	15.39
215.657	19.6
215.877	28.37
216.096	31.93
216.316	37.03
216.535	41.98
216.755	24.2
216.974	20.06
217.194	26.77
217.413	43.15
217.633	42.85
217.852	31.38
218.072	19.13
218.291	41.42
218.511	31.58
218.73	13.33
218.95	-6.53
219.169	-10.11
219.389	-11.44
219.608	12.82
219.827	5.28
220.047	11.35
220.266	23.52
220.485	24.28
220.705	10.36
220.924	25.69
221.143	7.78
221.363	-7.95
221.582	-6.17
221.801	-0.03
222.021	-0.82
222.24	-3.97
222.459	-15.57
222.678	-19.13
222.897	-11.7
223.117	-0.63
223.336	-7.69
223.555	-16.69
223.774	16.23
223.993	26.54
224.213	21.17
224.432	26.58
224.651	11.26
224.87	17.78
225.089	31.38
225.308	20.87
225.527	16.88
225.746	21.01
225.965	17.39
226.184	28.06
226.404	31.02
226.623	37.01
226.842	28.1
227.061	38.23
227.28	52.16
227.499	54.52
227.718	45.89
227.936	41.7
228.155	31.17
228.374	30.25
228.593	22.59
228.812	15.52
229.031	0.42
229.25	9.28
229.469	18.19
229.688	25.25
229.907	20.38
230.125	23.67
230.344	29.97
230.563	44.9
230.782	32.07
231.001	30.7
231.22	33.25
231.438	43.44
231.657	44.48
231.876	42.13
232.095	36.6
232.313	51.41
232.532	48.78
232.751	51.73
232.969	59.25
233.188	60.27
233.407	57.55
233.625	54.75
233.844	57.65
234.063	61.2
234.281	48.6
234.5	42.56
234.719	44.76
234.937	51.05
235.156	52.24
235.374	46.01
235.593	40.04
235.811	43.23
236.03	25.68
236.249	25.9
236.467	18.29
236.686	25.15
236.904	18.1
237.123	24.59
237.341	23.4
237.559	32.82
237.778	35.91
237.996	37.94
238.215	27.74
238.433	40.85
238.652	35.67
238.87	41.35
239.088	26.66
239.307	20.83
239.525	18.07
239.743	18.12
239.962	13.92
240.18	27.18
240.398	25.92
240.617	41.32
240.835	51.06
241.053	58.5
241.271	58.43
241.49	40.27
241.708	29.62
241.926	21.08
242.144	22.82
242.363	17.82
242.581	17.87
242.799	-0.14
243.017	16.16
243.235	12.74
243.453	24.14
243.672	17.23
243.89	16.4
244.108	24.54
244.326	32.2
244.544	38.66
244.762	39.69
244.98	29.06
245.198	25.55
245.416	33.25
245.634	33.84
245.852	38.6
246.07	32.46
246.288	29.99
246.506	36.25
246.724	48.87
246.942	46.85
247.16	33.64
247.378	27.62
247.596	35.07
247.814	24.75
248.032	32.05
248.25	25.9
248.468	27.72
248.685	35.36
248.903	33.2
249.121	34.28
249.339	44.7
249.557	47.7
249.775	27.2
249.992	11.99
250.21	4.49
250.428	6.04
250.646	1.04
250.863	1.63
251.081	-2.23
251.299	31.59
251.517	51.35
251.734	48.15
251.952	64.11
252.17	55.49
252.387	47.51
252.605	37.26
252.823	8.94
253.04	6.33
253.258	7.14
253.475	-12.86
253.693	7.53
253.911	8.62
254.128	7.53
254.346	7.2
254.563	7.39
254.781	9.28
254.998	17.47
255.216	10.56
255.433	12.35
255.651	16.6
255.868	33.34
256.086	28.37
256.303	35.56
256.521	31.72
256.738	31.36
256.956	25.15
257.173	28.14
257.39	33.92
257.608	37.16
257.825	31.74
258.043	39.63
258.26	43.24
258.477	44.36
258.695	49.69
258.912	49.98
259.129	45.45
259.346	54.45
259.564	53.84
259.781	53.89
259.998	48.56
260.216	56.04
260.433	46
260.65	53.64
260.867	34.8
261.084	40.02
261.302	43.25
261.519	48.93
261.736	28.79
261.953	39.11
262.17	34.13
262.387	41.24
262.604	19.2
262.822	15.12
263.039	18.84
263.256	19.19
263.473	7.71
263.69	7.83
263.907	16.58
264.124	23.72
264.341	20.15
264.558	16.34
264.775	11.98
264.992	17.19
265.209	20.77
265.426	18.44
265.643	21.39
265.86	23.19
266.077	23.31
266.294	28.59
266.51	30.87
266.727	23.68
266.944	19.95
267.161	8.64
267.378	3.22
267.595	-2.55
267.812	-8.45
268.028	-4.82
268.245	2.48
268.462	9.8
268.679	15.05
268.896	24.55
269.112	41.75
269.329	44.9
269.546	40.66
269.763	42.04
269.979	31.54
270.196	34.95
270.413	35.66
270.629	22.69
270.846	26.89
271.063	33.39
271.279	30.47
271.496	29.8
271.712	24.52
271.929	23.02
272.146	27.28
272.362	13.22
272.579	3.32
272.795	-3.76
273.012	5.82
273.228	8.05
273.445	10.61
273.661	6.26
273.878	16.94
274.094	26.44
274.311	35.53
274.527	31.32
274.744	30.98
274.96	26.88
275.177	40.9
275.393	33.9
275.609	31.19
275.826	28.95
276.042	36.19
276.259	42.85
276.475	33.37
276.691	31.93
276.908	38.97
277.124	32.25
277.34	28.35
277.557	19.77
277.773	15.95
277.989	27.34
278.205	10.09
278.422	13.77
278.638	23.56
278.854	23.06
279.07	19.61
279.286	17.3
279.503	17.34
279.719	30.39
279.935	24.21
280.151	29.44
280.367	36.17
280.583	46.13
280.799	55.21
281.016	50.44
281.232	57.08
281.448	59.67
281.664	49.11
281.88	46.37
282.096	43.47
282.312	25.02
282.528	17.65
282.744	7.1
282.96	7.89
283.176	13.61
283.392	16.39
283.608	16.45
283.824	23.63
284.04	25.9
284.256	30.89
284.471	38.37
284.687	29.84
284.903	26.48
285.119	20.42
285.335	24.09
285.551	30.91
285.767	28.03
285.982	18.97
286.198	23.57
286.414	33.58
286.63	39.31
286.846	36.26
287.061	37.8
287.277	40.15
287.493	38.78
287.709	39.51
287.924	39.59
288.14	38.68
288.356	45.84
288.571	41.37
288.787	31.3
289.003	35.59
289.218	28.75
289.434	20.76
289.65	27.77
289.865	31.84
290.081	34.96
290.296	41.55
290.512	43.3
290.727	51.84
290.943	47.21
291.159	43.23
291.374	36.38
291.59	23.38
291.805	16.35
292.021	4.31
292.236	8.54
292.451	16.09
292.667	15.08
292.882	8.75
293.098	14.73
293.313	16.41
293.529	21.94
293.744	14.32
293.959	13.4
294.175	10.49
294.39	24.35
294.605	30.43
294.821	25.79
295.036	16.44
295.251	29.29
295.467	22.74
295.682	28.42
295.897	20.66
296.112	24.17
296.328	28.39
296.543	34.99
296.758	28.62
296.973	33.97
297.188	27.47
297.404	31.74
297.619	29.56
297.834	33.06
298.049	35.64
298.264	30.64
298.479	20.36
298.694	33.54
298.909	31.13
299.125	28.67
299.34	24.65
299.555	21.48
299.77	20.19
299.985	18.01
300.2	13.53
300.415	11.18
300.63	4.68
300.845	7.7
301.06	10.42
301.275	20.38
301.49	20.29
301.704	8.82
301.919	5.77
302.134	2.1
302.349	-3.79
302.564	-10.52
302.779	-11.53
302.994	-5.43
303.209	-10.97
303.423	2.86
303.638	15.52
303.853	21.71
304.068	23.87
304.283	16.03
304.497	20.21
304.712	31
304.927	23.19
305.142	23.43
305.356	16.4
305.571	21.55
305.786	26.4
306	30.91
306.215	24.84
306.43	35.13
306.644	31.59
306.859	41.31
307.074	36.05
307.288	31.66
307.503	22.54
307.717	28.28
307.932	22.06
308.147	19.13
308.361	11.45
308.576	12.12
308.79	6.17
309.005	9.34
309.219	3.92
309.434	5.35
309.648	-1.95
309.863	2.97
310.077	-1.04
310.292	1.96
310.506	13.06
310.72	28.99
310.935	35.78
311.149	39.07
311.364	37.67
311.578	35.28
311.792	33.88
312.007	26.28
312.221	18.29
312.435	13.77
312.649	22.37
312.864	28.63
313.078	43.35
313.292	52.96
313.507	56.8
313.721	64.42
313.935	79.13
314.149	61.64
314.363	61.7
314.578	76.44
314.792	74.46
315.006	73.72
315.22	71.18
315.434	60.02
315.648	48.63
315.862	37.88
316.077	22.4
316.291	26.87
316.505	31.62
316.719	8.12
316.933	12.45
317.147	22.66
317.361	29.65
317.575	22
317.789	21.48
318.003	19.44
318.217	32.69
318.431	28.54
318.645	31.68
318.859	21.06
319.073	20.94
319.287	21.57
319.5	22.1
319.714	23.34
319.928	27.95
320.142	21.08
320.356	46.72
320.57	44.01
320.784	45.51
320.997	45.06
321.211	43.82
321.425	33.54
321.639	40.23
321.853	30.01
322.066	36.3
322.28	38.58
322.494	41.1
322.707	44.51
322.921	47.33
323.135	42.22
323.349	39.46
323.562	40.2
323.776	37.84
323.989	34.56
324.203	35.51
324.417	32.93
324.63	34.85
324.844	25.83
325.057	28.75
325.271	20.18
325.485	20.12
325.698	9.82
325.912	16.07
326.125	27.34
326.339	40.69
326.552	46.68
326.766	49.49
326.979	45.77
327.193	59.4
327.406	53.62
327.619	16.34
327.833	2.07
328.046	-2.47
328.26	-5.24
328.473	-0.5
328.686	-2.18
328.9	-2.84
329.113	17.05
329.326	26.37
329.54	20.29
329.753	25.71
329.966	25.16
330.179	20.8
330.393	32.82
330.606	38.62
330.819	40.98
331.032	47.93
331.246	39.6
331.459	42.04
331.672	38.98
331.885	30.73
332.098	34.46
332.311	24.47
332.525	27.16
332.738	27.46
332.951	32.01
333.164	33.15
333.377	31.89
333.59	34.36
333.803	41.02
334.016	47.93
334.229	53.82
334.442	54.47
334.655	65.77
334.868	70.66
335.081	64.48
335.294	58.46
335.507	47.51
335.72	38.84
335.933	32.43
336.146	32.14
336.359	23.43
336.572	17.53
336.785	22.97
336.997	23.69
337.21	26.44
337.423	22.44
337.636	20.27
337.849	22.37
338.062	22.65
338.274	20.33
338.487	21.45
338.7	27.02
338.913	30.34
339.125	20.63
339.338	21.82
339.551	29.22
339.763	26.66
339.976	27.02
340.189	25.14
340.402	21.73
340.614	26.68
340.827	18.52
341.039	13.57
341.252	15.93
341.465	6.11
341.677	-2.86
341.89	3.35
342.102	5.77
342.315	13.49
342.527	10.61
342.74	12.77
342.952	25.22
343.165	36.45
343.377	27.71
343.59	23.69
343.802	34.39
344.015	36.15
344.227	36.1
344.44	29.39
344.652	30.04
344.864	38.36
345.077	41.99
345.289	28.21
345.502	31.76
345.714	21.84
345.926	21.64
346.139	24.54
346.351	13.06
346.563	14.64
346.775	14.24
346.988	8.79
347.2	16.11
347.412	16.64
347.624	18.45
347.837	22.92
348.049	25.88
348.261	29.32
348.473	26.38
348.685	23.87
348.897	19.74
349.11	14.83
349.322	10.3
349.534	15.65
349.746	18.13
349.958	24.73
350.17	24.67
350.382	22.45
350.594	26.66
350.806	31.62
351.018	24.91
351.23	28.97
351.442	28.4
351.654	35.85
351.866	46.17
352.078	40.56
352.29	42.91
352.502	48.09
352.714	41.95
352.926	41.26
353.138	42.99
353.35	36.76
353.561	35.22
353.773	37.31
353.985	35.49
354.197	32.1
354.409	30.94
354.621	24.8
354.832	21.15
355.044	26.18
355.256	16.64
355.468	12.32
355.679	14.68
355.891	13.97
356.103	16
356.314	22.61
356.526	20.68
356.738	20.46
356.949	20.05
357.161	21.5
357.373	27.11
357.584	33.29
357.796	21.09
358.008	16
358.219	25.48
358.431	26.63
358.642	28.39
358.854	24.8
359.065	13.34
359.277	20.55
359.488	19.32
359.7	16.03
359.911	17.28
360.123	21.3
360.334	26.24
360.546	23.28
360.757	25.42
360.969	32.53
361.18	28.65
361.391	24.69
361.603	17.17
361.814	20.16
362.025	27.68
362.237	30.42
362.448	25.5
362.659	17.56
362.871	20.75
363.082	30.82
363.293	29.61
363.504	27.62
363.716	21.77
363.927	26.85
364.138	32.89
364.349	34.21
364.56	28.7
364.772	29.86
364.983	26.75
365.194	26.83
365.405	27.45
365.616	22.89
365.827	15.6
366.038	18.36
366.25	16.74
366.461	21.4
366.672	20.13
366.883	19.33
367.094	23.61
367.305	31.22
367.516	37.74
367.727	32.81
367.938	34.46
368.149	40.63
368.36	35.71
368.571	34.96
368.781	29.21
368.992	21.04
369.203	20.65
369.414	17.06
369.625	7.85
369.836	10.29
370.047	5.31
370.258	2.71
370.468	-0.54
370.679	-0.14
370.89	4.85
371.101	5.77
371.312	4.19
371.522	8.08
371.733	1.57
371.944	7.56
372.155	-2.05
372.365	-8.12
372.576	-6.44
372.787	-9.44
372.997	-7.2
373.208	-0.51
373.419	-7.94
373.629	4.29
373.84	5.55
374.05	7.1
374.261	4.7
374.472	3.99
374.682	1.33
374.893	6.92
375.103	10.68
375.314	10.74
375.524	8.09
375.735	15.85
375.945	18.44
376.156	24.69
376.366	26.11
376.577	25.05
376.787	30.28
376.997	37.08
377.208	31.28
377.418	27.51
377.629	19.68
377.839	24.52
378.049	27.37
378.26	24.54
378.47	21.12
378.68	20.92
378.89	11.68
379.101	9.11
379.311	-3.27
379.521	-4.07
379.732	-15.25
379.942	-16.13
380.152	-6.38
380.362	2.68
380.572	8.48
380.783	11.63
380.993	12.42
381.203	18.92
381.413	27.36
381.623	21.91
381.833	18.6
382.043	14.4
382.253	16.23
382.463	14.52
382.674	15.38
382.884	8.53
383.094	8.19
383.304	8.82
383.514	11.88
383.724	9.37
383.934	6.57
384.144	12
384.353	13.54
384.563	12.47
384.773	16.79
384.983	19.14
385.193	20.71
385.403	28.53
385.613	21.49
385.823	19.12
386.033	18.87
386.242	20.46
386.452	17.28
386.662	19.13
386.872	13.68
387.082	12.44
387.291	11.46
387.501	13.65
387.711	8.97
387.921	8.02
388.13	6.81
388.34	3.56
388.55	6.55
388.759	8.49
388.969	7.13
389.179	10.72
389.388	10.77
389.598	9.04
389.807	10.06
390.017	9.19
390.227	6.48
390.436	7
390.646	5.77
390.855	6.81
391.065	6.39
391.274	3.73
391.484	3.92
391.693	4.81
391.903	5.25
392.112	4.27
392.322	6.42
392.531	7.19
392.74	8.28
392.95	9.44
393.159	10.21
393.369	9.48
393.578	9.63
393.787	7.28
393.997	8.02
394.206	8.36
394.415	6.94
394.625	5.47
394.834	4.15
395.043	3.9
395.252	4.02
395.462	2.72
395.671	3.05
395.88	3.48
396.089	3.89
396.298	4.61
396.508	4.48
396.717	4.43
396.926	4.58
397.135	3.78
397.344	3.44
397.553	3.83
397.762	3.76
397.971	3.89
398.181	3.2
398.39	3.6
398.599	3.98
398.808	4.14
399.017	4.41
399.226	4.65
399.435	4.58
399.644	5.11
399.853	5.13
400.062	5.03
400.27	4.81
400.479	4.31
400.688	4.25
400.897	4.49
401.106	4.57
401.315	4.3
401.524	4.32
401.733	4.57
401.941	4.52
402.15	4.21
402.359	4.08
402.568	4.01
402.777	4
402.985	3.98
403.194	3.82
403.403	3.64
403.612	3.69
403.82	3.68
404.029	3.59
404.238	3.68
404.446	3.56
404.655	3.49
404.864	3.54
405.072	3.61
405.281	3.37
405.489	3.33
405.698	3.14
405.906	3.11
406.115	3.16
406.324	3.2
406.532	3.09
406.741	3.12
406.949	3.08
407.158	3.29
407.366	3.36
407.574	3.34
407.783	3.29
407.991	3.21
408.2	3.22
408.408	3.31
408.617	3.17
408.825	3.17
409.033	3.11
409.242	3.06
409.45	3.12
409.658	3.19
409.867	3.18
410.075	3.12
410.283	2.99
410.491	2.94
410.7	3.06
410.908	3.04
411.116	2.94
411.324	2.95
411.533	2.94
411.741	2.97
411.949	3.02
412.157	2.97
412.365	3
412.573	3.05
412.781	3.01
412.99	3.14
413.198	3.2
413.406	3.11
413.614	3.08
413.822	3
414.03	2.92
414.238	2.91
414.446	2.74
414.654	2.76
414.862	2.85
415.07	2.91
415.278	2.92
415.486	3.05
415.694	2.97
415.902	2.97
416.109	2.98
416.317	2.86
416.525	2.85
416.733	2.87
416.941	2.74
417.149	2.86
417.357	2.85
417.564	2.77
417.772	2.84
417.98	2.79
418.188	2.73
418.395	2.78
418.603	2.58
418.811	2.57
419.019	2.6
419.226	2.74
419.434	2.66
419.642	2.67
419.849	2.72
420.057	2.87
420.265	2.9
420.472	2.86
420.68	2.64
420.887	2.73
421.095	2.78
421.302	2.77
421.51	2.83
421.717	2.86
421.925	2.8
422.132	2.77
422.34	2.74
422.547	2.65
422.755	2.61
422.962	2.41
423.17	2.34
423.377	2.52
423.585	2.55
423.792	2.51
423.999	2.53
424.207	2.4
424.414	2.5
424.621	2.59
424.829	2.46
425.036	2.46
425.243	2.48
425.451	2.5
425.658	2.65
425.865	2.61
426.072	2.6
426.28	2.62
426.487	2.65
426.694	2.69
426.901	2.61
427.108	2.63
427.315	2.62
427.523	2.6
427.73	2.59
427.937	2.57
428.144	2.62
428.351	2.75
428.558	2.69
428.765	2.7
428.972	2.69
429.179	2.6
429.386	2.63
429.593	2.5
429.8	2.49
430.007	2.49
430.214	2.47
430.421	2.44
430.628	2.36
430.835	2.29
431.042	2.43
431.249	2.42
431.456	2.4
431.662	2.41
431.869	2.46
432.076	2.6
432.283	2.61
432.49	2.6
432.697	2.48
432.903	2.54
433.11	2.62
433.317	2.63
433.524	2.57
433.73	2.61
433.937	2.49
434.144	2.67
434.35	2.65
434.557	2.56
434.764	2.54
434.97	2.65
435.177	2.66
435.384	2.76
435.59	2.71
435.797	2.71
436.003	2.76
436.21	2.71
436.416	2.64
436.623	2.68
436.829	2.68
437.036	2.7
437.242	2.67
437.449	2.68
437.655	2.76
437.862	2.78
438.068	2.8
438.275	2.81
438.481	2.86
438.687	2.93
438.894	2.87
439.1	2.87
439.307	2.85
439.513	2.78
439.719	2.84
439.926	2.84
440.132	2.81
440.338	2.91
440.544	2.93
440.751	2.95
440.957	2.94
441.163	2.91
441.369	2.88
441.575	2.88
441.782	2.84
441.988	2.82
442.194	2.91
442.4	2.97
442.606	3.03
442.812	3.02
443.018	3.07
443.224	3.11
443.431	3.18
443.637	3.1
443.843	3.13
444.049	3.08
444.255	3.04
444.461	3.05
444.667	3.04
444.873	2.98
445.079	3.05
445.284	3.02
445.49	2.98
445.696	3.06
445.902	3.11
446.108	3.13
446.314	3.19
446.52	3.19
446.726	3.24
446.931	3.3
447.137	3.3
447.343	3.27
447.549	3.24
447.755	3.15
447.96	3.11
448.166	3.18
448.372	3.17
448.578	3.19
448.783	3.18
448.989	3.15
449.195	3.2
449.4	3.22
449.606	3.14
449.812	3.23
450.017	3.22
450.223	3.24
450.428	3.3
450.634	3.37
450.84	3.4
451.045	3.41
451.251	3.36
451.456	3.35
451.662	3.3
451.867	3.34
452.073	3.29
452.278	3.28
452.483	3.27
452.689	3.31
452.894	3.33
453.1	3.35
453.305	3.32
453.51	3.3
453.716	3.27
453.921	3.31
454.127	3.26
454.332	3.27
454.537	3.36
454.742	3.36
454.948	3.36
455.153	3.41
455.358	3.45
455.563	3.43
455.769	3.38
455.974	3.32
456.179	3.28
456.384	3.31
456.589	3.3
456.795	3.18
457	3.22
457.205	3.22
457.41	3.25
457.615	3.35
457.82	3.37
458.025	3.38
458.23	3.42
458.435	3.37
458.64	3.42
458.845	3.39
459.05	3.32
459.255	3.3
459.46	3.28
459.665	3.37
459.87	3.37
460.075	3.32
460.28	3.31
460.485	3.39
460.69	3.33
460.895	3.37
461.099	3.34
461.304	3.41
461.509	3.35
461.714	3.42
461.919	3.38
462.123	3.47
462.328	3.4
462.533	3.42
462.738	3.44
462.942	3.54
463.147	3.51
463.352	3.54
463.556	3.57
463.761	3.66
463.966	3.67
464.17	3.64
464.375	3.59
464.58	3.58
464.784	3.59
464.989	3.57
465.193	3.57
465.398	3.55
465.602	3.58
465.807	3.66
466.011	3.73
466.216	3.76
466.42	3.79
466.625	3.8
466.829	3.83
467.034	3.87
467.238	3.87
467.443	3.91
467.647	3.91
467.851	3.93
468.056	3.95
468.26	3.94
468.464	3.92
468.669	3.98
468.873	3.9
469.077	3.91
469.282	3.95
469.486	3.95
469.69	3.95
469.894	4
470.099	4.01
470.303	4.05
470.507	4.05
470.711	4.03
470.915	4.07
471.119	4.17
471.324	4.15
471.528	4.17
471.732	4.25
471.936	4.3
472.14	4.31
472.344	4.31
472.548	4.29
472.752	4.38
472.956	4.45
473.16	4.44
473.364	4.43
473.568	4.48
473.772	4.57
473.976	4.62
474.18	4.61
474.384	4.59
474.588	4.58
474.792	4.66
474.995	4.65
475.199	4.61
475.403	4.6
475.607	4.67
475.811	4.69
476.015	4.82
476.218	4.83
476.422	4.93
476.626	4.95
476.83	4.99
477.033	5.03
477.237	5.06
477.441	5.04
477.644	5.11
477.848	5.11
478.052	5.18
478.255	5.25
478.459	5.3
478.663	5.34
478.866	5.33
479.07	5.35
479.273	5.39
479.477	5.45
479.681	5.45
479.884	5.4
480.088	5.43
480.291	5.51
480.495	5.5
480.698	5.5
480.901	5.48
481.105	5.49
481.308	5.55
481.512	5.56
481.715	5.58
481.919	5.62
482.122	5.65
482.325	5.7
482.529	5.78
482.732	5.79
482.935	5.81
483.138	5.81
483.342	5.85
483.545	5.86
483.748	5.9
483.952	5.92
484.155	5.98
484.358	5.99
484.561	6.03
484.764	6.06
484.967	6.12
485.171	6.11
485.374	6.1
485.577	6.12
485.78	6.15
485.983	6.14
486.186	6.12
486.389	6.11
486.592	6.15
486.795	6.16
486.998	6.12
487.201	6.12
487.404	6.17
487.607	6.2
487.81	6.26
488.013	6.22
488.216	6.22
488.419	6.23
488.622	6.21
488.825	6.19
489.028	6.14
489.231	6.08
489.433	6.1
489.636	6.04
489.839	6.09
490.042	6.12
490.245	6.1
490.447	6.16
490.65	6.22
490.853	6.25
491.056	6.29
491.258	6.28
491.461	6.3
491.664	6.27
491.866	6.29
492.069	6.28
492.272	6.25
492.474	6.28
492.677	6.26
492.879	6.25
493.082	6.35
493.285	6.32
493.487	6.33
493.69	6.36
493.892	6.39
494.095	6.45
494.297	6.52
494.5	6.51
494.702	6.55
494.905	6.57
495.107	6.57
495.309	6.51
495.512	6.54
495.714	6.57
495.917	6.58
496.119	6.64
496.321	6.69
496.524	6.72
496.726	6.79
496.928	6.77
497.13	6.79
497.333	6.82
497.535	6.83
497.737	6.83
497.939	6.91
498.142	6.89
498.344	6.92
498.546	6.97
498.748	6.97
498.95	6.99
499.152	6.99
499.355	6.99
499.557	7.1
499.759	7.2
499.961	7.23
500.163	7.34
500.365	7.38
500.567	7.42
500.769	7.51
500.971	7.47
501.173	7.46
501.375	7.48
501.577	7.49
501.779	7.52
501.981	7.56
502.183	7.54
502.385	7.59
502.587	7.59
502.788	7.64
502.99	7.62
503.192	7.64
503.394	7.66
503.596	7.73
503.798	7.85
503.999	7.9
504.201	7.91
504.403	7.98
504.605	8.04
504.806	8.13
505.008	8.15
505.21	8.15
505.411	8.19
505.613	8.27
505.815	8.32
506.016	8.37
506.218	8.36
506.42	8.46
506.621	8.5
506.823	8.58
507.024	8.61
507.226	8.65
507.427	8.65
507.629	8.71
507.83	8.66
508.032	8.73
508.233	8.74
508.435	8.78
508.636	8.83
508.838	8.92
509.039	8.96
509.24	9.04
509.442	9.04
509.643	9.06
509.845	9.12
510.046	9.16
510.247	9.21
510.448	9.28
510.65	9.35
510.851	9.43
511.052	9.48
511.254	9.52
511.455	9.57
511.656	9.62
511.857	9.65
512.058	9.72
512.26	9.73
512.461	9.79
512.662	9.78
512.863	9.8
513.064	9.81
513.265	9.88
513.466	9.91
513.667	9.93
513.868	9.94
514.069	10.03
514.27	10.06
514.471	10.06
514.672	10.08
514.873	10.12
515.074	10.17
515.275	10.22
515.476	10.24
515.677	10.31
515.878	10.4
516.079	10.42
516.28	10.43
516.481	10.47
516.682	10.5
516.882	10.49
517.083	10.49
517.284	10.5
517.485	10.51
517.686	10.56
517.886	10.55
518.087	10.58
518.288	10.63
518.488	10.65
518.689	10.64
518.89	10.72
519.091	10.79
519.291	10.86
519.492	10.91
519.692	10.96
519.893	11.02
520.094	11.08
520.294	11.04
520.495	11.01
520.695	11.03
520.896	11.04
521.096	11.05
521.297	11.06
521.497	11.06
521.698	11.13
521.898	11.17
522.099	11.21
522.299	11.21
522.499	11.24
522.7	11.27
522.9	11.33
523.101	11.35
523.301	11.31
523.501	11.32
523.702	11.37
523.902	11.4
524.102	11.42
524.302	11.43
524.503	11.45
524.703	11.5
524.903	11.55
525.103	11.6
525.304	11.64
525.504	11.66
525.704	11.66
525.904	11.69
526.104	11.75
526.304	11.77
526.504	11.78
526.705	11.8
526.905	11.84
527.105	11.91
527.305	11.92
527.505	11.92
527.705	11.9
527.905	11.91
528.105	11.91
528.305	11.92
528.505	11.93
528.705	11.96
528.905	12
529.105	12.08
529.304	12.13
529.504	12.17
529.704	12.2
529.904	12.21
530.104	12.24
530.304	12.26
530.503	12.26
530.703	12.29
530.903	12.31
531.103	12.35
531.303	12.44
531.502	12.5
531.702	12.55
531.902	12.61
532.101	12.61
532.301	12.65
532.501	12.71
532.7	12.67
532.9	12.69
533.1	12.7
533.299	12.73
533.499	12.78
533.698	12.82
533.898	12.81
534.097	12.88
534.297	12.89
534.496	12.92
534.696	12.98
534.895	13.03
535.095	13.08
535.294	13.09
535.494	13.18
535.693	13.25
535.892	13.3
536.092	13.29
536.291	13.31
536.491	13.33
536.69	13.39
536.889	13.37
537.088	13.4
537.288	13.45
537.487	13.49
537.686	13.55
537.886	13.59
538.085	13.67
538.284	13.72
538.483	13.83
538.682	13.88
538.882	13.96
539.081	14.01
539.28	14.03
539.479	14.07
539.678	14.16
539.877	14.16
540.076	14.19
540.275	14.24
540.474	14.25
540.673	14.32
540.872	14.38
541.071	14.41
541.27	14.44
541.469	14.49
541.668	14.57
541.867	14.66
542.066	14.74
542.265	14.77
542.464	14.86
542.663	14.96
542.862	15.01
543.06	15.05
543.259	15.11
543.458	15.18
543.657	15.27
543.856	15.33
544.054	15.4
544.253	15.48
544.452	15.51
544.651	15.57
544.849	15.61
545.048	15.66
545.247	15.69
545.445	15.73
545.644	15.79
545.843	15.9
546.041	15.97
546.24	16.07
546.438	16.21
546.637	16.3
546.836	16.36
547.034	16.47
547.233	16.56
547.431	16.67
547.63	16.74
547.828	16.78
548.027	16.83
548.225	16.99
548.423	17.07
548.622	17.18
548.82	17.3
549.019	17.39
549.217	17.53
549.415	17.67
549.614	17.69
549.812	17.79
550.01	17.87
550.209	17.98
550.407	18.1
550.605	18.16
550.803	18.26
551.002	18.39
551.2	18.5
551.398	18.56
551.596	18.64
551.794	18.76
551.993	18.84
552.191	18.98
552.389	19.12
552.587	19.2
552.785	19.36
552.983	19.48
553.181	19.56
553.379	19.7
553.577	19.83
553.775	19.95
553.973	20.12
554.171	20.22
554.369	20.31
554.567	20.46
554.765	20.57
554.963	20.65
555.161	20.73
555.359	20.82
555.557	20.97
555.755	21.13
555.952	21.23
556.15	21.39
556.348	21.52
556.546	21.67
556.744	21.82
556.941	21.94
557.139	22.08
557.337	22.18
557.535	22.34
557.732	22.49
557.93	22.64
558.128	22.77
558.325	22.95
558.523	23.09
558.721	23.29
558.918	23.39
559.116	23.5
559.313	23.64
559.511	23.78
559.708	23.88
559.906	23.98
560.104	24.14
560.301	24.29
560.498	24.45
560.696	24.59
560.893	24.73
561.091	24.88
561.288	25.06
561.486	25.16
561.683	25.37
561.88	25.52
562.078	25.66
562.275	25.79
562.473	25.93
562.67	26.13
562.867	26.27
563.064	26.43
563.262	26.66
563.459	26.85
563.656	27.09
563.853	27.28
564.051	27.37
564.248	27.54
564.445	27.67
564.642	27.77
564.839	27.94
565.036	28.07
565.234	28.24
565.431	28.39
565.628	28.56
565.825	28.71
566.022	28.88
566.219	28.96
566.416	29.12
566.613	29.27
566.81	29.4
567.007	29.47
567.204	29.59
567.401	29.7
567.598	29.86
567.795	29.92
567.991	30.08
568.188	30.24
568.385	30.42
568.582	30.59
568.779	30.68
568.976	30.78
569.172	30.94
569.369	30.97
569.566	31.04
569.763	31.14
569.96	31.19
570.156	31.25
570.353	31.34
570.55	31.44
570.746	31.55
570.943	31.67
571.14	31.74
571.336	31.82
571.533	31.97
571.729	32.06
571.926	32.15
572.123	32.2
572.319	32.26
572.516	32.32
572.712	32.41
572.909	32.48
573.105	32.53
573.302	32.53
573.498	32.61
573.695	32.63
573.891	32.69
574.087	32.69
574.284	32.73
574.48	32.77
574.677	32.85
574.873	32.89
575.069	33
575.266	33.01
575.462	33.11
575.658	33.17
575.854	33.22
576.051	33.19
576.247	33.18
576.443	33.21
576.639	33.25
576.835	33.26
577.032	33.25
577.228	33.29
577.424	33.41
577.62	33.51
577.816	33.51
578.012	33.53
578.208	33.52
578.404	33.53
578.6	33.6
578.796	33.59
578.993	33.57
579.189	33.58
579.384	33.59
579.58	33.61
579.776	33.61
579.972	33.57
580.168	33.5
580.364	33.5
580.56	33.51
580.756	33.47
580.952	33.45
581.148	33.42
581.343	33.42
581.539	33.52
581.735	33.47
581.931	33.49
582.127	33.5
582.322	33.6
582.518	33.65
582.714	33.61
582.909	33.56
583.105	33.56
583.301	33.58
583.496	33.56
583.692	33.45
583.888	33.44
584.083	33.44
584.279	33.49
584.474	33.5
584.67	33.47
584.866	33.48
585.061	33.49
585.257	33.46
585.452	33.42
585.648	33.39
585.843	33.35
586.039	33.3
586.234	33.29
586.429	33.3
586.625	33.33
586.82	33.35
587.015	33.31
587.211	33.35
587.406	33.43
587.601	33.45
587.797	33.35
587.992	33.36
588.187	33.39
588.383	33.42
588.578	33.42
588.773	33.41
588.968	33.49
589.163	33.69
589.359	33.69
589.554	33.73
589.749	33.77
589.944	33.84
590.139	33.93
590.334	33.96
590.529	33.99
590.724	34.03
590.919	34.13
591.114	34.19
591.309	34.28
591.504	34.26
591.699	34.33
591.894	34.35
592.089	34.43
592.284	34.36
592.479	34.41
592.674	34.42
592.869	34.53
593.064	34.64
593.259	34.69
593.454	34.75
593.648	34.92
593.843	35.06
594.038	35.15
594.233	35.26
594.428	35.26
594.622	35.39
594.817	35.52
595.012	35.57
595.206	35.66
595.401	35.79
595.596	35.84
595.79	35.98
595.985	36.02
596.18	36.14
596.374	36.22
596.569	36.29
596.763	36.39
596.958	36.46
597.153	36.48
597.347	36.59
597.542	36.61
597.736	36.73
597.931	36.81
598.125	36.87
598.319	37.03
598.514	37.16
598.708	37.31
598.903	37.45
599.097	37.61
599.291	37.74
599.486	37.78
599.68	37.79
599.874	37.85
600.069	37.88
600.263	37.93
600.457	37.92
600.651	38
600.846	38.09
601.04	38.14
601.234	38.26
601.428	38.28
601.622	38.33
601.817	38.36
602.011	38.42
602.205	38.48
602.399	38.58
602.593	38.6
602.787	38.65
602.981	38.71
603.175	38.7
603.369	38.65
603.563	38.65
603.757	38.55
603.951	38.55
604.145	38.55
604.339	38.54
604.533	38.64
604.727	38.6
604.921	38.56
605.115	38.57
605.309	38.59
605.502	38.64
605.696	38.56
605.89	38.53
606.084	38.53
606.278	38.47
606.471	38.47
606.665	38.37
606.859	38.24
607.053	38.22
607.246	38.08
607.44	38
607.634	37.96
607.827	37.86
608.021	37.79
608.214	37.76
608.408	37.68
608.602	37.65
608.795	37.58
608.989	37.61
609.182	37.62
609.376	37.51
609.569	37.42
609.763	37.36
609.956	37.24
610.15	37.16
610.343	36.98
610.537	36.83
610.73	36.85
610.923	36.75
611.117	36.62
611.31	36.57
611.504	36.54
611.697	36.47
611.89	36.36
612.083	36.17
612.277	36.03
612.47	35.98
612.663	35.87
612.856	35.74
613.05	35.6
613.243	35.52
613.436	35.45
613.629	35.48
613.822	35.35
614.015	35.24
614.209	35.26
614.402	35.27
614.595	35.17
614.788	35.03
614.981	34.91
615.174	34.88
615.367	34.84
615.56	34.62
615.753	34.51
615.946	34.43
616.139	34.47
616.332	34.4
616.525	34.33
616.718	34.25
616.911	34.25
617.103	34.15
617.296	34.07
617.489	34.01
617.682	33.9
617.875	33.76
618.067	33.66
618.26	33.53
618.453	33.47
618.646	33.46
618.838	33.35
619.031	33.3
619.224	33.26
619.417	33.2
619.609	33.24
619.802	33.21
619.994	33.13
620.187	33.11
620.38	33.12
620.572	33.16
620.765	33.17
620.957	33.08
621.15	33.05
621.342	33.07
621.535	32.99
621.727	32.87
621.92	32.75
622.112	32.73
622.305	32.72
622.497	32.67
622.69	32.56
622.882	32.57
623.074	32.55
623.267	32.5
623.459	32.49
623.651	32.47
623.844	32.41
624.036	32.4
624.228	32.33
624.42	32.37
624.613	32.41
624.805	32.36
624.997	32.34
625.189	32.35
625.381	32.29
625.574	32.3
625.766	32.21
625.958	32.14
626.15	32.14
626.342	32.11
626.534	32.06
626.726	32.05
626.918	31.94
627.11	31.89
627.302	31.89
627.494	31.86
627.686	31.75
627.878	31.66
628.07	31.61
628.262	31.57
628.454	31.5
628.646	31.44
628.838	31.33
629.029	31.28
629.221	31.24
629.413	31.22
629.605	31.18
629.797	31.19
629.989	31.13
630.18	31.06
630.372	31.04
630.564	31.05
630.755	30.99
630.947	30.88
631.139	30.8
631.33	30.77
631.522	30.71
631.714	30.71
631.905	30.66
632.097	30.61
632.289	30.64
632.48	30.56
632.672	30.46
632.863	30.43
633.055	30.32
633.246	30.28
633.438	30.17
633.629	30.2
633.821	30.23
634.012	30.27
634.203	30.32
634.395	30.39
634.586	30.35
634.777	30.44
634.969	30.33
635.16	30.29
635.351	30.26
635.543	30.18
635.734	30.08
635.925	30.1
636.117	30.05
636.308	30.05
636.499	30.07
636.69	30.14
636.881	30.15
637.073	30.16
637.264	30.15
637.455	30.19
637.646	30.21
637.837	30.19
638.028	30.13
638.219	30.09
638.41	30.08
638.601	30.03
638.792	29.98
638.983	29.82
639.174	29.82
639.365	29.73
639.556	29.71
639.747	29.69
639.938	29.7
640.129	29.68
640.32	29.69
640.511	29.64
640.701	29.64
640.892	29.63
641.083	29.61
641.274	29.58
641.465	29.57
641.655	29.65
641.846	29.59
642.037	29.57
642.228	29.48
642.418	29.4
642.609	29.36
642.8	29.29
642.99	29.29
643.181	29.3
643.372	29.3
643.562	29.33
643.753	29.35
643.943	29.3
644.134	29.31
644.324	29.18
644.515	29.15
644.705	29.11
644.896	29.06
645.086	29.01
645.277	29.07
645.467	29.04
645.658	29
645.848	28.97
646.038	28.89
646.229	28.87
646.419	28.86
646.61	28.76
646.8	28.68
646.99	28.72
647.18	28.66
647.371	28.65
647.561	28.6
647.751	28.58
647.941	28.55
648.132	28.56
648.322	28.53
648.512	28.53
648.702	28.48
648.892	28.47
649.082	28.42
649.272	28.36
649.462	28.33
649.653	28.32
649.843	28.24
650.033	28.22
650.223	28.22
650.413	28.19
650.603	28.21
650.793	28.14
650.983	28.06
651.172	28.08
651.362	28
651.552	27.95
651.742	27.9
651.932	27.82
652.122	27.77
652.312	27.6
652.502	27.44
652.691	27.4
652.881	27.3
653.071	27.18
653.261	27.09
653.45	26.97
653.64	26.95
653.83	26.81
654.019	26.57
654.209	26.39
654.399	26.24
654.588	25.98
654.778	25.81
654.968	25.62
655.157	25.47
655.347	25.34
655.536	25.11
655.726	24.84
655.915	24.69
656.105	24.5
656.294	24.31
656.484	24.14
656.673	23.89
656.863	23.71
657.052	23.51
657.241	23.29
657.431	22.97
657.62	22.67
657.809	22.4
657.999	22.2
658.188	21.92
658.377	21.72
658.567	21.41
658.756	21.22
658.945	20.97
659.134	20.65
659.324	20.33
659.513	20.02
659.702	19.7
659.891	19.42
660.08	19.15
660.269	18.91
660.458	18.7
660.648	18.5
660.837	18.32
661.026	18.09
661.215	17.87
661.404	17.59
661.593	17.31
661.782	17.04
661.971	16.76
662.16	16.46
662.349	16.24
662.538	16.09
662.726	15.87
662.915	15.68
663.104	15.44
663.293	15.23
663.482	15.05
663.671	14.82
663.86	14.51
664.048	14.32
664.237	14.11
664.426	13.95
664.615	13.77
664.803	13.55
664.992	13.39
665.181	13.28
665.369	13.1
665.558	12.93
665.747	12.85
665.935	12.72
666.124	12.67
666.312	12.54
666.501	12.37
666.69	12.25
666.878	12.16
667.067	12.02
667.255	11.95
667.444	11.84
667.632	11.73
667.82	11.65
668.009	11.61
668.197	11.5
668.386	11.36
668.574	11.27
668.762	11.21
668.951	11.15
669.139	11.13
669.327	11.07
669.516	11.09
669.704	11.15
669.892	11.12
670.08	11.11
670.269	11.1
670.457	11.1
670.645	11.13
670.833	11.07
671.021	11.03
671.21	11.08
671.398	11.09
671.586	11.18
671.774	11.17
671.962	11.17
672.15	11.18
672.338	11.26
672.526	11.3
672.714	11.35
672.902	11.34
673.09	11.39
673.278	11.37
673.466	11.57
673.654	11.6
673.842	11.68
674.03	11.79
674.218	11.9
674.405	12.06
674.593	12.28
674.781	12.3
674.969	12.37
675.157	12.45
675.344	12.49
675.532	12.59
675.72	12.63
675.908	12.65
676.095	12.84
676.283	12.97
676.471	13.11
676.658	13.25
676.846	13.4
677.033	13.57
677.221	13.78
677.409	13.91
677.596	14.1
677.784	14.26
677.971	14.38
678.159	14.54
678.346	14.68
678.534	14.83
678.721	14.95
678.909	15.06
679.096	15.19
679.283	15.36
679.471	15.56
679.658	15.82
679.846	15.98
680.033	16.18
680.22	16.33
680.408	16.57
680.595	16.83
680.782	17.02
680.969	17.06
681.157	17.28
681.344	17.46
681.531	17.76
681.718	17.97
681.905	18.24
682.093	18.57
682.28	19.08
682.467	19.33
682.654	19.64
682.841	19.99
683.028	20.4
683.215	20.7
683.402	20.91
683.589	21.12
683.776	21.5
683.963	21.88
684.15	22.19
684.337	22.47
684.524	22.86
684.711	23.24
684.898	23.75
685.085	24.26
685.271	24.78
685.458	25.33
685.645	25.78
685.832	26.23
686.019	26.78
686.205	27.21
686.392	27.66
686.579	28.11
686.766	28.63
686.952	29.3
687.139	29.85
687.326	30.49
687.512	31.12
687.699	31.71
687.886	32.2
688.072	32.89
688.259	33.4
688.445	34.01
688.632	34.66
688.818	35.3
689.005	36.06
689.191	36.91
689.378	37.52
689.564	38.19
689.751	39.12
689.937	39.71
690.124	40.42
690.31	41
690.496	41.6
690.683	42.39
690.869	43.22
691.055	43.99
691.242	44.68
691.428	45.54
691.614	46.29
691.8	47.07
691.987	47.87
692.173	48.72
692.359	49.36
692.545	50.24
692.731	50.98
692.918	51.78
693.104	52.68
693.29	53.31
693.476	53.82
693.662	54.53
693.848	55.17
694.034	55.72
694.22	56.45
694.406	57.08
694.592	57.78
694.778	58.46
694.964	59.13
695.15	59.78
695.336	60.68
695.522	61.38
695.708	62.03
695.894	62.78
696.08	63.49
696.265	64.1
696.451	64.99
696.637	65.56
696.823	65.97
697.009	66.59
697.194	67.2
697.38	67.68
697.566	68.22
697.751	68.6
697.937	69.06
698.123	69.89
698.308	70.27
698.494	70.74
698.68	71.36
698.865	71.93
699.051	72.48
699.236	73.02
699.422	73.25
699.607	73.63
699.793	74.04
699.978	74.32
700.164	74.8
700.349	75.12
700.535	75.34
700.72	75.87
700.906	76.35
701.091	76.57
701.276	77.1
701.462	77.64
701.647	77.91
701.832	78.38
702.018	78.67
702.203	79.03
702.388	79.23
702.573	79.62
702.759	79.67
702.944	80.05
703.129	80.25
703.314	80.51
703.499	80.79
703.684	81.25
703.87	81.45
704.055	81.69
704.24	81.94
704.425	82.32
704.61	82.51
704.795	82.78
704.98	82.97
705.165	83.14
705.35	83.37
705.535	83.75
705.72	83.94
705.905	84.02
706.09	84.12
706.275	84.28
706.459	84.83
706.644	84.89
706.829	84.89
707.014	84.95
707.199	85.22
707.384	85.49
707.568	85.78
707.753	85.84
707.938	86.07
708.123	86.1
708.307	86.53
708.492	86.48
708.677	86.77
708.861	86.91
709.046	86.7
709.231	87.12
709.415	87.46
709.6	87.31
709.784	87.62
709.969	87.65
710.153	87.86
710.338	87.99
710.522	87.74
710.707	87.54
710.891	87.67
711.076	87.76
711.26	87.89
711.445	87.63
711.629	87.83
711.813	87.82
711.998	88.05
712.182	88.51
712.366	88.72
712.551	88.85
712.735	88.99
712.919	89.16
713.103	89.26
713.288	89.5
713.472	89.28
713.656	88.98
713.84	88.96
714.024	89.17
714.208	89.13
714.393	89.43
714.577	89.44
714.761	89.68
714.945	89.96
715.129	90.21
715.313	90.22
715.497	90.38
715.681	90.58
715.865	90.64
716.049	90.64
716.233	90.97
716.417	90.96
716.601	91.13
716.785	91.05
716.968	90.93
717.152	91.2
717.336	91.05
717.52	90.9
717.704	90.93
717.888	90.98
718.071	91.44
718.255	91.52
718.439	91.33
718.622	91.63
718.806	91.39
718.99	91.46
719.174	91.41
719.357	91.23
719.541	91.39
719.724	91.4
719.908	91.28
720.092	91.68
720.275	91.82
720.459	91.92
720.642	91.87
720.826	91.94
721.009	92.08
721.193	92.23
721.376	92.28
721.559	92.46
721.743	92.41
721.926	92.38
722.11	92.47
722.293	92.04
722.476	92.09
722.66	92.25
722.843	92.16
723.026	92.35
723.21	92.44
723.393	92.46
723.576	92.92
723.759	93.03
723.942	93.1
724.126	92.9
724.309	93.31
724.492	93.48
724.675	93.41
724.858	93.65
725.041	93.45
725.224	93.66
725.407	93.83
725.59	93.34
725.774	93.36
725.957	93.81
726.14	93.65
726.322	93.94
726.505	94.2
726.688	94.46
726.871	94.77
727.054	95.02
727.237	94.49
727.42	95.13
727.603	95.24
727.786	95.04
727.968	94.88
728.151	95.22
728.334	95.1
728.517	95.63
728.699	95.49
728.882	95.72
729.065	95.88
729.248	96.03
729.43	95.78
729.613	96.23
729.796	96.04
729.978	95.94
730.161	96.14
730.343	96.26
730.526	96.47
730.708	97.07
730.891	97.04
731.073	97.12
731.256	97.03
731.438	97.04
731.621	97.59
731.803	97.83
731.986	97.66
732.168	97.55
732.35	97.76
732.533	98.26
732.715	98.47
732.898	98.27
733.08	98.66
733.262	98.93
733.444	99.29
733.627	99.52
733.809	99.59
733.991	99.43
734.173	99.14
734.355	99.03
734.538	98.5
734.72	98.82
734.902	98.57
735.084	98.46
735.266	98.73
735.448	98.75
735.63	98.67
735.812	98.68
735.994	98.25
736.176	98.88
736.358	99.62
736.54	99.12
736.722	99.02
736.904	98.92
737.086	99.27
737.268	99.32
737.45	99.14
737.632	98.07
737.814	98.66
737.995	99.09
738.177	99.4
738.359	100.05
738.541	99.79
738.723	99.66
738.904	99.91
739.086	99.54
739.268	99.82
739.449	99.37
739.631	98.99
739.813	99.53
739.994	100.31
740.176	100.64
740.358	101.01
740.539	100.96
740.721	100.91
740.902	100.26
741.084	100.47
741.265	99.92
741.447	99.31
741.628	99.13
741.81	99.11
741.991	99.93
742.172	100.55
742.354	100.64
742.535	101.19
742.717	101.9
742.898	102.09
743.079	101.61
743.261	101.62
743.442	101.68
743.623	101.83
743.804	101.35
743.986	101.04
744.167	101.01
744.348	101.57
744.529	101
744.71	100.49
744.891	100.26
745.073	100.22
745.254	100.47
745.435	100.15
745.616	99.74
745.797	99.56
745.978	100.01
746.159	99.62
746.34	100.26
746.521	100.61
746.702	100.24
746.883	100.11
747.064	100.11
747.245	101.29
747.426	101.49
747.606	100.79
747.787	100.88
747.968	101.87
748.149	102.55
748.33	103.64
748.51	101.88
748.691	102.2
748.872	102.04
749.053	101.17
749.233	100.7
749.414	100.12
749.595	98.62
749.775	98.8
749.956	97.12
750.137	96.51
750.317	96.8
750.498	97.07
750.678	97.18
750.859	97.46
751.04	97.56
751.22	98.54
751.4	99.72
751.581	99.3
751.761	99.25
751.942	99.96
752.122	100.3
752.303	100.69
752.483	100.96
752.663	100.63
752.844	100
753.024	100.34
753.204	99.98
753.385	100.31
753.565	99.81
753.745	99.94
753.925	99.78
754.106	100.55
754.286	100.19
754.466	99.71
754.646	99.2
754.826	99.4
755.006	98.82
755.187	99.22
755.367	98.9
755.547	98.51
755.727	98.49
755.907	99.05
756.087	99.32
756.267	99.2
756.447	98.6
756.627	99.5
756.807	100.16
756.987	101.19
757.167	100.97
757.346	100.62
757.526	100.8
757.706	100.83
757.886	100.6
758.066	100
758.246	98.95
758.425	99.14
758.605	99.27
758.785	99.24
758.965	98.11
759.144	98.39
759.324	98.67
759.504	98.85
759.683	98.16
759.863	98
760.043	97.77
760.222	98.51
760.402	98.71
760.581	98.41
760.761	97.13
760.94	97.27
761.12	97.02
761.299	96.74
761.479	97.54
761.658	96.48
761.838	97.04
762.017	98.42
762.197	98.79
762.376	98.84
762.555	99.74
762.735	98.06
762.914	98.66
763.093	97.47
763.273	96.88
763.452	95.92
763.631	95.21
763.81	95.66
763.99	96.61
764.169	96.14
764.348	97.42
764.527	97.33
764.706	98.11
764.885	99.24
765.064	97.91
765.243	97.82
765.423	98.57
765.602	96.99
765.781	96.87
765.96	96.75
766.139	95.53
766.318	96.66
766.497	97.3
766.676	96.46
766.854	96.24
767.033	96.31
767.212	96.28
767.391	97.47
767.57	97.05
767.749	96.53
767.928	95.7
768.106	96.49
768.285	96.43
768.464	96.23
768.643	96.39
768.821	95.88
769	95.87
769.179	95.84
769.357	95.45
769.536	95.74
769.715	95.26
769.893	94.27
770.072	94.03
770.25	93.89
770.429	95.19
770.607	95.54
770.786	95.3
770.964	95.2
771.143	94.99
771.321	94.99
771.5	93.46
771.678	93.06
771.857	92.21
772.035	91.75
772.213	92.13
772.392	93.07
772.57	93.96
772.748	94.85
772.927	95.01
773.105	96.58
773.283	96.01
773.461	95.01
773.64	93.43
773.818	91.47
773.996	91.24
774.174	90.92
774.352	89.76
774.531	89.95
774.709	91.52
774.887	91.97
775.065	92.85
775.243	94.12
775.421	93.59
775.599	92.81
775.777	93.04
775.955	91.57
776.133	91.26
776.311	91.18
776.489	90.03
776.667	90.27
776.844	90.85
777.022	90.41
777.2	91.08
777.378	92.16
777.556	93.45
777.734	93.8
777.911	93.75
778.089	93.15
778.267	93.05
778.445	91.69
778.622	90.04
778.8	88.28
778.978	88.64
779.155	87.11
779.333	85.91
779.511	85.29
779.688	84.73
779.866	83.8
780.043	85.01
780.221	84.71
780.398	86.32
780.576	86.9
780.753	87.36
780.931	89.67
781.108	92.52
781.286	89.94
781.463	90.11
781.64	89.31
781.818	90.09
781.995	91.7
782.172	90.99
782.35	88.64
782.527	92.01
782.704	91.36
782.882	92.83
783.059	92.59
783.236	92.93
783.413	93.19
783.59	92.83
783.768	90.63
783.945	91.18
784.122	88.95
784.299	89.49
784.476	89.45
784.653	86.25
784.83	86.61
785.007	87.21
785.184	88.61
785.361	88.55
785.538	89.12
785.715	86.95
785.892	88.01
786.069	88.15
786.246	87.29
786.423	86.01
786.6	88.19
786.776	86.73
786.953	87.06
787.13	88.72
787.307	88.71
787.484	89.53
787.66	87.17
787.837	86.84
788.014	86.92
788.191	84.62
788.367	84.03
788.544	84.96
788.721	84.81
788.897	88.15
789.074	87.11
789.25	87.84
789.427	89.63
789.603	91.13
789.78	91.79
789.956	90.27
790.133	89.41
790.309	87.65
790.486	89.51
790.662	89.87
790.839	90.63
791.015	91.64
791.192	93.73
791.368	93.63
791.544	96.01
791.721	91.16
791.897	92.44
792.073	88.94
792.249	88.85
792.426	88.57
792.602	86.21
792.778	84.94
792.954	87.45
793.13	87.89
793.307	86.53
793.483	84.38
793.659	84
793.835	85.89
794.011	86.92
794.187	84.13
794.363	82.69
794.539	85.1
794.715	84.84
794.891	82.75
795.067	82.41
795.243	81.34
795.419	83.02
795.595	81.89
795.771	82.14
795.947	81.23
796.122	82.3
796.298	80.66
796.474	82.83
796.65	83.51
796.826	87.15
797.001	87.75
797.177	89.22
797.353	93.15
797.529	94.75
797.704	91.79
797.88	92.17
798.056	90.29
798.231	88.04
798.407	87.75
798.582	85.44
798.758	86.51
798.934	85.88
799.109	83.38
799.285	85.94
799.46	86.94
799.636	88.88
799.811	88.98
799.986	88.23
800.162	88.48
800.337	88.75
800.513	86.48
800.688	89.77
800.863	89.03
801.039	85.46
801.214	83.54
801.389	83.4
801.565	89.27
801.74	85.94
801.915	84.24
802.09	82.57
802.265	83.84
802.441	85.58
802.616	86.56
802.791	84.14
802.966	85.94
803.141	79.96
803.316	79.81
803.491	80.73
803.666	78.01
803.841	79.44
804.016	76.14
804.191	77.58
804.366	80.98
804.541	79.36
804.716	75.63
804.891	81.23
805.066	81.11
805.241	80.62
805.416	79.03
805.591	81.35
805.765	83.78
805.94	88.42
806.115	80.97
806.29	78.4
806.464	76.09
806.639	74.59
806.814	70.83
806.989	69.5
807.163	68.14
807.338	71.65
807.512	69.16
807.687	70.89
807.862	74.14
808.036	72.37
808.211	74.97
808.385	71.39
808.56	74.62
808.734	74.86
808.909	76.03
809.083	74.17
809.258	81.35
809.432	78.81
809.606	82.75
809.781	80.92
809.955	83.92
810.13	85.44
810.304	84.1
810.478	82.91
810.652	87.15
810.827	84.73
811.001	81.38
811.175	78.86
811.349	81.69
811.524	80.43
811.698	81.9
811.872	80.59
812.046	82.26
812.22	84.53
812.394	87.32
812.568	88.52
812.742	89.37
812.916	83.98
813.09	80.28
813.264	79.67
813.438	85.18
813.612	80.68
813.786	80.2
813.96	83.07
814.134	83.16
814.308	81.42
814.482	80.76
814.656	80.68
814.83	85.07
815.003	83.82
815.177	83.74
815.351	86.94
815.525	86.41
815.698	86.63
815.872	80.72
816.046	79.83
816.219	77.52
816.393	70.79
816.567	67.09
816.74	70.84
816.914	71.48
817.088	70.23
817.261	70.11
817.435	66.93
817.608	72.45
817.782	80.26
817.955	75.98
818.129	76.13
818.302	76.44
818.475	77.12
818.649	74.62
818.822	72.91
818.996	70.37
819.169	71.32
819.342	78.98
819.516	80.52
819.689	82.5
819.862	83.74
820.035	80.11
820.209	76.77
820.382	74.7
820.555	66.18
820.728	62.49
820.901	62.23
821.075	68.01
821.248	76.7
821.421	70.08
821.594	76.4
821.767	75.32
821.94	69.67
822.113	71.95
822.286	70.41
822.459	73.3
822.632	78.03
822.805	75.19
822.978	75.23
823.151	84.31
823.324	74.72
823.496	64.6
823.669	58.86
823.842	62.28
824.015	56.23
824.188	57.98
824.361	55.63
824.533	59.8
824.706	83.12
824.879	84.1
825.051	82.42
825.224	86.58
825.397	82.78
825.569	91.44
825.742	86.68
825.915	78.33
826.087	71.36
826.26	72.67
826.432	74.89
826.605	79.39
826.777	69.3
826.95	72.35
827.122	80.05
827.295	84.36
827.467	74.91
827.64	67.28
827.812	65.12
827.984	67.61
828.157	70.66
828.329	65.53
828.501	65.2
828.674	71.01
828.846	74.23
829.018	70.16
829.19	69.83
829.363	67.84
829.535	64.57
829.707	61.13
829.879	65.5
830.051	67.9
830.223	64.12
830.395	56.86
830.568	59.51
830.74	59.69
830.912	57.8
831.084	53.05
831.256	45.11
831.428	53.76
831.6	51.43
831.772	43.12
831.943	46.97
832.115	57.03
832.287	54.09
832.459	64.39
832.631	64.73
832.803	77.09
832.975	94.48
833.146	83.33
833.318	82.91
833.49	99.01
833.662	97.16
833.833	95.2
834.005	95.38
834.177	87.88
834.348	85.07
834.52	91.16
834.692	84.47
834.863	83.93
835.035	80.17
835.206	77.73
835.378	75.79
835.549	89.11
835.721	73.7
835.892	68.08
836.064	77.96
836.235	84.69
836.407	78.73
836.578	82.42
836.749	72.55
836.921	76.82
837.092	84.24
837.264	63.48
837.435	46.6
837.606	46.42
837.777	34.39
837.949	32.19
838.12	23.18
838.291	29
838.462	38.1
838.633	42.95
838.805	48.04
838.976	43.06
839.147	45.58
839.318	50.03
839.489	48.45
839.66	50.89
839.831	41.78
840.002	41.43
840.173	61.48
840.344	63.05
840.515	58.37
840.686	46.5
840.857	41.41
841.028	59.13
841.199	60.29
841.369	47.91
841.54	64.33
841.711	77.54
841.882	81.22
842.053	84.03
842.223	84.71
842.394	79.53
842.565	98.87
842.736	93.16
842.906	96.1
843.077	89.73
843.248	94.59
843.418	91.23
843.589	103.23
843.759	88.55
843.93	84.33
844.101	78.48
844.271	79.22
844.442	78.43
844.612	57.74
844.783	30.09
844.953	34.16
845.123	51.27
845.294	61.76
845.464	73.32
845.635	65.66
845.805	85.8
845.975	77.79
846.146	78.96
846.316	87.62
846.486	78.22
846.656	81.78
846.827	81.4
846.997	87.72
847.167	106.32
847.337	111.85
847.507	96.77
847.677	106.36
847.848	104.29
848.018	104.28
848.188	93.62
848.358	111.38
848.528	112.4
848.698	76.2
848.868	54.33
849.038	59.52
849.208	61.57
849.378	55.85
849.548	52.1
849.718	24.18
849.887	44.52
850.057	46.9
850.227	37.69
850.397	35.64
850.567	37.45
850.737	11.6
850.906	35.58
851.076	40.19
851.246	47.61
851.415	64.79
851.585	63.45
851.755	82.48
851.924	102.09
852.094	97.29
852.264	89.32
852.433	91.92
852.603	88.02
852.772	87.67
852.942	55.6
853.111	50.45
853.281	49.06
853.45	54.17
853.62	39.49
853.789	28.28
853.959	24.8
854.128	14.18
854.297	-1.71
854.467	4.22
854.636	11.79
854.805	30.81
854.975	42.64
855.144	57.46
855.313	84.56
855.482	87.62
855.652	74.6
855.821	68.14
855.99	74.92
856.159	57.99
856.328	39.3
856.497	24.27
856.667	43.69
856.836	46.54
857.005	46.32
857.174	56.66
857.343	59.24
857.512	56.32
857.681	61.2
857.85	51.99
858.019	53.74
858.188	46.54
858.356	13.09
858.525	26.31
858.694	46.11
858.863	42.16
859.032	36.84
859.201	40.4
859.369	54.2
859.538	34.83
859.707	32.37
859.876	17.89
860.044	27.81
860.213	27.01
860.382	28.65
860.55	34.1
860.719	69.72
860.888	74.86
861.056	85.78
861.225	73.87
861.393	66.17
861.562	44.03
861.73	33.14
861.899	6.92
862.067	14.38
862.236	26.91
862.404	24.12
862.572	28.96
862.741	37.75
862.909	35.21
863.078	42.53
863.246	45.99
863.414	36.58
863.582	37.18
863.751	25.78
863.919	32.45
864.087	42.78
864.255	44.12
864.424	42.21
864.592	47.19
864.76	61.41
864.928	59.07
865.096	53.79
865.264	58.03
865.432	73.01
865.6	53.85
865.768	33.55
865.936	11.65
866.104	39.06
866.272	27.99
866.44	-16.46
866.608	-51.75
866.776	5.88
866.944	33.44
867.112	21.09
867.28	0.18
867.448	40.97
867.615	47.07
867.783	32.63
867.951	2.58
868.119	10.35
868.286	26.12
868.454	30.25
868.622	19.61
868.789	40.89
868.957	70.1
869.125	70.9
869.292	73.17
869.46	72.22
869.627	71.58
869.795	56.51
869.963	45.13
870.13	36.73
870.298	33.65
870.465	-3.28
870.632	22.3
870.8	23.34
870.967	31.89
871.135	52.5
871.302	38.06
871.469	43.43
871.637	44.16
871.804	39.4
871.971	42.45
872.139	51.77
872.306	28.98
872.473	20.17
872.64	25.2
872.807	38.19
872.975	58.75
873.142	61.67
873.309	35.21
873.476	89.86
873.643	148.18
873.81	103.69
873.977	74.22
874.144	71.65
874.311	11.96
874.478	-2.67
874.645	-21.15
874.812	14.83
874.979	-1.92
875.146	-39.11
875.313	-74.81
875.48	41
875.647	61.74
875.813	63.58
875.98	10.55
876.147	72.83
876.314	83.21
876.481	61.07
876.647	40.25
876.814	40.11
876.981	33.75
877.147	14.25
877.314	-4
877.481	18.93
877.647	18.32
877.814	11.84
877.98	5.57
878.147	24.95
878.314	51.8
878.48	30.84
878.647	36.49
878.813	56.1
878.979	76.98
879.146	63.13
879.312	76.04
879.479	76.92
879.645	70.3
879.811	58.8
879.978	74.41
880.144	87.89
880.31	87.63
880.477	37.48
880.643	23.87
880.809	122.83
880.975	54.09
881.142	7.89
881.308	7.34
881.474	67.89
881.64	61.58
881.806	71.53
881.972	81.57
882.138	85.83
882.304	68.73
882.47	23.07
882.636	-26.61
882.802	26.99
882.968	-42.01
883.134	-132.82
883.3	-22.04
883.466	54.44
883.632	46.61
883.798	64.98
883.964	17.68
884.129	60.01
884.295	31.35
884.461	32.71
884.627	12.85
884.793	24.15
884.958	9.45
885.124	-21.84
885.29	-33.56
885.455	-12.83
885.621	-7.74
885.787	-24.1
885.952	-39.3
886.118	-26.86
886.283	19.28
886.449	-6.07
886.614	0.18
886.78	25.14
886.945	38.47
887.111	46.79
887.276	26.08
887.442	10.51
887.607	23.25
887.773	8.47
887.938	8.52
888.103	38.66
888.269	29.47
888.434	27.31
888.599	39.86
888.764	37.33
888.93	47.54
889.095	34.78
889.26	57.44
889.425	91.03
889.59	72.86
889.756	89.07
889.921	82.33
890.086	102.88
890.251	81.66
890.416	23.88
890.581	18.96
890.746	22.83
890.911	-41.98
891.076	-36.83
891.241	-125.13
891.406	-25.91
891.571	17.35
891.736	23
891.901	44.37
892.065	66.93
892.23	55.77
892.395	53.22
892.56	59.42
892.725	53.09
892.889	31.31
893.054	-15.17
893.219	-53.12
893.384	-114.2
893.548	-248.33
893.713	616.83
893.878	398.37
