Data from Ofra_PS_T2_2A_1GT42_Reflection_3.txt Node
Date: Wed Jul 21 16:55:25 EDT 2021
User: Adam
Spectrometer: FLMT01687
Trigger mode: 0
Integration Time (sec): 1.100000E0
Scans to average: 2
Electric dark correction enabled: true
Nonlinearity correction enabled: false
Boxcar width: 2
XAxis mode: Wavelengths
Number of Pixels in Spectrum: 3648
>>>>>Begin Spectral Data<<<<<
179.494	440.4
179.716	520.94
179.937	504.74
180.158	484.87
180.38	902.81
180.601	425.14
180.823	180.69
181.044	63.27
181.265	215.07
181.486	-2.82
181.708	25.98
181.929	-547.96
182.15	272.54
182.372	140.37
182.593	10.98
182.814	-1.29
183.035	21.13
183.257	19.81
183.478	-41.81
183.699	-12.2
183.92	25.04
184.141	20.76
184.363	-3.89
184.584	17.46
184.805	38.96
185.026	41.82
185.247	49.8
185.468	27.91
185.689	52.84
185.91	43.58
186.132	34.6
186.353	14.87
186.574	73.38
186.795	51.08
187.016	25.19
187.237	11.92
187.458	25.03
187.679	-14.38
187.9	1.44
188.121	6.53
188.342	13.58
188.563	33.96
188.784	38.92
189.005	31.08
189.226	54.1
189.447	45.29
189.667	-108.5
189.888	-278.57
190.109	-1053.9
190.33	-564.19
190.551	-1063.27
190.772	-237.17
190.993	-144.99
191.214	-92.69
191.434	-54.65
191.655	12.7
191.876	9.86
192.097	-18.09
192.318	-75.92
192.538	-128.01
192.759	-91.25
192.98	-28.32
193.201	-8.93
193.421	10.55
193.642	26.55
193.863	9.95
194.083	-1.66
194.304	-3.4
194.525	-5.19
194.745	-37.54
194.966	-13.98
195.187	-33.04
195.407	-73.1
195.628	-135.38
195.848	-108.53
196.069	-123.79
196.29	-66.15
196.51	-37.54
196.731	-22.09
196.951	-46.22
197.172	-46.76
197.392	-68.51
197.613	-70.47
197.833	-90.04
198.054	-51.53
198.274	-9.46
198.495	-43.57
198.715	-20.5
198.936	-24.4
199.156	-26.29
199.377	-129.52
199.597	-91.12
199.817	-97.53
200.038	-52.61
200.258	-128.54
200.479	-42.02
200.699	-15.64
200.919	5.99
201.14	-0.17
201.36	11.22
201.58	38.17
201.801	53.04
202.021	34.84
202.241	33.39
202.461	39.43
202.682	-26.09
202.902	-103.52
203.122	-35.93
203.342	-44.04
203.563	-12.69
203.783	18.8
204.003	-9.53
204.223	-22.23
204.443	22.82
204.663	-14.84
204.884	-15.11
205.104	30.87
205.324	-5.53
205.544	-3.96
205.764	23.85
205.984	17.84
206.204	15.56
206.424	36.8
206.644	11.64
206.864	12.54
207.084	-5.56
207.304	8.26
207.525	-84.84
207.745	-23.36
207.964	-3.15
208.184	-34.46
208.404	-67.56
208.624	-65.09
208.844	-64.56
209.064	-265.09
209.284	-205.57
209.504	-61.63
209.724	8.94
209.944	13.32
210.164	30.09
210.384	24.68
210.604	-11.11
210.823	-56.32
211.043	-61.95
211.263	-43
211.483	-51.27
211.703	-66.34
211.922	-60.63
212.142	-15.01
212.362	0.75
212.582	-15.33
212.801	-1.56
213.021	-5.02
213.241	-38.3
213.461	-84.77
213.68	-89.4
213.9	-106.52
214.12	-90.69
214.339	-106.61
214.559	-82.76
214.779	-30.58
214.998	7.29
215.218	-21.53
215.438	-14.67
215.657	-3.74
215.877	-11.32
216.096	-6.28
216.316	13.29
216.535	1.99
216.755	3.75
216.974	-64.22
217.194	-109.07
217.413	-91.82
217.633	-67.37
217.852	-137.91
218.072	-57.35
218.291	-18.99
218.511	2.59
218.73	-22.84
218.95	-22.51
219.169	-12.21
219.389	-48.61
219.608	-32.73
219.827	-29.09
220.047	-19.12
220.266	-20.3
220.485	-14.11
220.705	-10.84
220.924	-10.35
221.143	21.39
221.363	-3.09
221.582	0.94
221.801	-2.19
222.021	18.28
222.24	-40.85
222.459	48.8
222.678	43.21
222.897	16.85
223.117	-27.34
223.336	2.14
223.555	-0.9
223.774	23.69
223.993	17.28
224.213	48.91
224.432	11.98
224.651	44.29
224.87	22.08
225.089	39.28
225.308	32.16
225.527	48.24
225.746	34.98
225.965	31.31
226.184	7.73
226.404	22.26
226.623	11.96
226.842	6.85
227.061	22.59
227.28	23.55
227.499	16.04
227.718	28.55
227.936	14.23
228.155	20.44
228.374	21.09
228.593	15.66
228.812	-0.55
229.031	3.86
229.25	-32.64
229.469	-64.88
229.688	-67.79
229.907	-33.47
230.125	-16.72
230.344	3.59
230.563	22.79
230.782	26.11
231.001	-25.74
231.22	-38.61
231.438	-24.57
231.657	-9.5
231.876	-21.36
232.095	13.77
232.313	28.47
232.532	24.25
232.751	8.52
232.969	4.02
233.188	-51.34
233.407	7.85
233.625	1.02
233.844	1.19
234.063	11.8
234.281	34.07
234.5	13.01
234.719	9.93
234.937	3.54
235.156	-7.61
235.374	-0.97
235.593	-18.15
235.811	-19.17
236.03	-10.16
236.249	-28.58
236.467	-36.41
236.686	10.85
236.904	20.25
237.123	7.78
237.341	16.48
237.559	10.22
237.778	-15.48
237.996	-40.36
238.215	-5.82
238.433	-2.03
238.652	-9.71
238.87	-21.55
239.088	-5.71
239.307	-21.15
239.525	-19.53
239.743	-11.61
239.962	7.63
240.18	-27.64
240.398	-52.37
240.617	-52.24
240.835	-43.92
241.053	-45.61
241.271	42.36
241.49	54.28
241.708	36.53
241.926	15.98
242.144	6.78
242.363	-70.41
242.581	-81.99
242.799	-31.51
243.017	-18.15
243.235	-10.56
243.453	8.08
243.672	1.49
243.89	-5.26
244.108	-7.73
244.326	2.66
244.544	-7.48
244.762	-3
244.98	-16.36
245.198	2.39
245.416	-20.58
245.634	-13.45
245.852	-33.24
246.07	-21.6
246.288	-52.5
246.506	-52.09
246.724	-56.91
246.942	-26.37
247.16	10.05
247.378	30.58
247.596	26.58
247.814	37.8
248.032	10.86
248.25	12.51
248.468	9.89
248.685	23.29
248.903	27.95
249.121	36.29
249.339	6.16
249.557	-12.26
249.775	0.26
249.992	-37.72
250.21	-34.56
250.428	-26.8
250.646	-47.16
250.863	-65.69
251.081	-37.5
251.299	-49
251.517	-21.23
251.734	-16.6
251.952	-16.11
252.17	-17.93
252.387	-4.17
252.605	-13.62
252.823	4.88
253.04	23.74
253.258	36.53
253.475	46.59
253.693	53.98
253.911	38.3
254.128	32.83
254.346	30.32
254.563	6.15
254.781	-22.41
254.998	-29.98
255.216	-59.34
255.433	-44.23
255.651	-16.64
255.868	-8.17
256.086	3.34
256.303	15.07
256.521	6.28
256.738	-9.69
256.956	-20.67
257.173	-24.18
257.39	-44.75
257.608	-44.09
257.825	-9.89
258.043	10.68
258.26	17.85
258.477	58.03
258.695	38.13
258.912	0.81
259.129	18.2
259.346	-3.08
259.564	-45.28
259.781	-32.16
259.998	3.65
260.216	-2.41
260.433	13.08
260.65	24.2
260.867	22.73
261.084	4.14
261.302	5.71
261.519	-2.52
261.736	-31.12
261.953	-40.98
262.17	-22.42
262.387	-56.72
262.604	-55.99
262.822	-48.64
263.039	-40.37
263.256	-57.76
263.473	-26.98
263.69	-17.85
263.907	14.44
264.124	14.84
264.341	20.56
264.558	20.03
264.775	26.94
264.992	14.54
265.209	13.1
265.426	12.25
265.643	17.02
265.86	20.55
266.077	32.99
266.294	31.01
266.51	27.24
266.727	3.99
266.944	19.18
267.161	-27.6
267.378	-34.63
267.595	-14.74
267.812	-31.5
268.028	-62.21
268.245	-23.92
268.462	-27.43
268.679	-38.6
268.896	2.16
269.112	-7.01
269.329	-11.98
269.546	0.54
269.763	-3.66
269.979	-8.57
270.196	9.63
270.413	-12.71
270.629	-36.84
270.846	-29.22
271.063	-49.32
271.279	-68.86
271.496	-55.27
271.712	-5.41
271.929	-15.58
272.146	-16.37
272.362	-22.23
272.579	3.62
272.795	-21.8
273.012	-11.81
273.228	-8.94
273.445	-10.71
273.661	-54.85
273.878	-78.39
274.094	-60.59
274.311	-98.95
274.527	-40.01
274.744	-13.98
274.96	-2.88
275.177	6.52
275.393	32.41
275.609	24.5
275.826	34.7
276.042	33.84
276.259	29.92
276.475	32.37
276.691	28.12
276.908	-0.08
277.124	17.89
277.34	11.47
277.557	0.29
277.773	-1.03
277.989	-3.63
278.205	-13.25
278.422	-7.09
278.638	2.98
278.854	9.17
279.07	11.8
279.286	40.35
279.503	40.7
279.719	31.05
279.935	21.19
280.151	28.26
280.367	-18.32
280.583	-45.39
280.799	-25.53
281.016	-54.11
281.232	-15.44
281.448	-2.67
281.664	15.39
281.88	-26.91
282.096	-22
282.312	-21.12
282.528	-33.89
282.744	-24.63
282.96	-24.86
283.176	-6.45
283.392	-19.77
283.608	-12.72
283.824	-25.39
284.04	-6.72
284.256	3.55
284.471	2.41
284.687	1.34
284.903	24.73
285.119	31.44
285.335	20.84
285.551	24.67
285.767	5.26
285.982	-5.37
286.198	-39.08
286.414	-16.88
286.63	-9.41
286.846	13
287.061	-7.42
287.277	29.57
287.493	1.23
287.709	13.05
287.924	-2.42
288.14	32.83
288.356	10.68
288.571	37.92
288.787	20.9
289.003	18.29
289.218	7.47
289.434	-16.52
289.65	-13.3
289.865	-14.57
290.081	7.21
290.296	-3.54
290.512	7.61
290.727	-26.24
290.943	-17.19
291.159	-22.69
291.374	-18.65
291.59	-23.37
291.805	3.18
292.021	2.6
292.236	7.48
292.451	25.44
292.667	41.17
292.882	36.09
293.098	27.5
293.313	25.66
293.529	-5.48
293.744	-38.88
293.959	-32.19
294.175	-24.73
294.39	-0.96
294.605	14.54
294.821	26.11
295.036	24.64
295.251	33.67
295.467	15.47
295.682	0.65
295.897	-19.68
296.112	-26.12
296.328	-19.45
296.543	-44.68
296.758	-62.23
296.973	-25.5
297.188	2.85
297.404	-25.93
297.619	-37.77
297.834	-37.3
298.049	-53.8
298.264	-54.9
298.479	-11.36
298.694	-4.77
298.909	19.21
299.125	21.52
299.34	15.84
299.555	2.72
299.77	25.84
299.985	-11.86
300.2	-44.99
300.415	-45.81
300.63	-20.52
300.845	-31.57
301.06	-19.57
301.275	-0.63
301.49	15.72
301.704	-1.7
301.919	-4.38
302.134	-8.38
302.349	-13.04
302.564	-67.31
302.779	-73.17
302.994	-83.93
303.209	-45.26
303.423	-12.6
303.638	38.89
303.853	8.97
304.068	18.25
304.283	8.02
304.497	0.22
304.712	-9.75
304.927	8.37
305.142	-3.92
305.356	3.18
305.571	3.48
305.786	-3.74
306	-33.06
306.215	-6.99
306.43	-18.16
306.644	-24.14
306.859	-14.28
307.074	3.83
307.288	-49.04
307.503	-82.6
307.717	-68.07
307.932	-68.39
308.147	-73.34
308.361	-42.9
308.576	-31.78
308.79	-54.73
309.005	-43.24
309.219	-15.66
309.434	-30.32
309.648	-22.53
309.863	3.54
310.077	0.79
310.292	-8.56
310.506	-2.68
310.72	14.3
310.935	6.99
311.149	5.75
311.364	17.49
311.578	29.17
311.792	18.07
312.007	24.01
312.221	19.53
312.435	21.41
312.649	8.36
312.864	-23.66
313.078	-23.61
313.292	5.91
313.507	-56.49
313.721	-61.26
313.935	23.62
314.149	11.79
314.363	4.47
314.578	18.11
314.792	18.13
315.006	-6.69
315.22	6.82
315.434	2.77
315.648	12.31
315.862	5.44
316.077	10.89
316.291	-4.8
316.505	-14.9
316.719	-71.99
316.933	-80.82
317.147	-51.81
317.361	-96.29
317.575	-82.41
317.789	-70.79
318.003	-80.83
318.217	-76.41
318.431	-6.93
318.645	21.62
318.859	20.95
319.073	25.78
319.287	16.41
319.5	5.73
319.714	-26.34
319.928	-51.63
320.142	-62.43
320.356	-21.22
320.57	-8.45
320.784	-36.22
320.997	-17.88
321.211	-26.93
321.425	-76.15
321.639	-96.02
321.853	-32.28
322.066	-26.15
322.28	-21.24
322.494	-11.13
322.707	9.99
322.921	-3.93
323.135	-1.02
323.349	7.16
323.562	-6.34
323.776	-17.8
323.989	-20.06
324.203	-35.17
324.417	-47.8
324.63	-51.29
324.844	-58.74
325.057	-58.72
325.271	-41.79
325.485	-7.1
325.698	1.13
325.912	14.61
326.125	6.93
326.339	3.56
326.552	-15.39
326.766	-7.33
326.979	12.1
327.193	40.37
327.406	39.56
327.619	29.34
327.833	32.16
328.046	16.6
328.26	-16.59
328.473	-1.52
328.686	-10.46
328.9	-12.15
329.113	-0.9
329.326	-8.32
329.54	10.65
329.753	14
329.966	14.07
330.179	-6.39
330.393	4.39
330.606	-6.84
330.819	2.23
331.032	16.77
331.246	30.63
331.459	50.19
331.672	49.83
331.885	44.09
332.098	28.97
332.311	4.85
332.525	-26.45
332.738	-36.59
332.951	-0.33
333.164	29.4
333.377	35.02
333.59	37.38
333.803	47.48
334.016	24.98
334.229	-6.66
334.442	7.09
334.655	27.48
334.868	11.2
335.081	14.36
335.294	10.99
335.507	-6.74
335.72	-21.03
335.933	-8.79
336.146	-26.16
336.359	-33.32
336.572	-37.93
336.785	-59.98
336.997	-61.21
337.21	-25.71
337.423	-23.79
337.636	-18.73
337.849	-2.76
338.062	-11.42
338.274	-13.41
338.487	-9.67
338.7	-15.81
338.913	-56.53
339.125	-69.55
339.338	-101.69
339.551	-67.72
339.763	-33.71
339.976	-3.31
340.189	13.88
340.402	12.06
340.614	3.89
340.827	-5.51
341.039	-21.95
341.252	-14.33
341.465	-5.72
341.677	-8.37
341.89	-40.59
342.102	-11.03
342.315	-17.3
342.527	-36.23
342.74	-31.76
342.952	6.38
343.165	3.97
343.377	10.01
343.59	14.53
343.802	26.56
344.015	18.48
344.227	26.91
344.44	24.27
344.652	21.62
344.864	4.52
345.077	28.8
345.289	19.33
345.502	17.55
345.714	10.65
345.926	14.28
346.139	-3.09
346.351	11.69
346.563	17.72
346.775	35.08
346.988	31.62
347.2	27.27
347.412	-23.8
347.624	-27.11
347.837	-61.42
348.049	-34.59
348.261	-15.07
348.473	19.47
348.685	2.8
348.897	14.58
349.11	-11.05
349.322	-24.56
349.534	-26.05
349.746	-4.71
349.958	-0.56
350.17	-8.8
350.382	-10.99
350.594	0.26
350.806	-3.08
351.018	-8.47
351.23	-9.99
351.442	-19.07
351.654	-38.07
351.866	-31.47
352.078	-24.42
352.29	-3.05
352.502	3.24
352.714	8.01
352.926	-7.15
353.138	-7.02
353.35	-13.08
353.561	-13.81
353.773	-24.45
353.985	-2.66
354.197	3.47
354.409	16.16
354.621	15.35
354.832	20.14
355.044	5.35
355.256	4.21
355.468	9.27
355.679	9.93
355.891	20.2
356.103	8.74
356.314	7.04
356.526	-5.53
356.738	-3.16
356.949	-14.34
357.161	3.29
357.373	-3.95
357.584	-6.81
357.796	-0.48
358.008	0.6
358.219	13.86
358.431	20.29
358.642	21.56
358.854	13.32
359.065	0.4
359.277	-22.93
359.488	-38.13
359.7	-62.35
359.911	-70.38
360.123	-48.47
360.334	-51.91
360.546	-54.79
360.757	-50.69
360.969	-21.09
361.18	-15.19
361.391	-12.44
361.603	-22.01
361.814	-9.64
362.025	-20.68
362.237	-27.02
362.448	-3.34
362.659	3.95
362.871	6.93
363.082	6.34
363.293	-4.59
363.504	-32.99
363.716	-44.17
363.927	-45.68
364.138	-55.12
364.349	-47.92
364.56	-36.29
364.772	-26.61
364.983	-17.41
365.194	-19.31
365.405	-6.9
365.616	7.15
365.827	5.71
366.038	-16.99
366.25	-22.53
366.461	-32.78
366.672	-16.99
366.883	-4.72
367.094	14.45
367.305	11.67
367.516	8.74
367.727	-7.87
367.938	-22.13
368.149	-29.69
368.36	-18.62
368.571	-20.33
368.781	-22.69
368.992	-25.87
369.203	-39.61
369.414	-47.93
369.625	-50.84
369.836	-55.64
370.047	-72.48
370.258	-51.44
370.468	-49.65
370.679	-54.83
370.89	-46.67
371.101	-19.59
371.312	-22.71
371.522	-20.62
371.733	-13.09
371.944	-4.75
372.155	-7.27
372.365	-13.52
372.576	-20.18
372.787	-23.02
372.997	-42.91
373.208	-40.38
373.419	-3.88
373.629	-10.08
373.84	-7.3
374.05	0.76
374.261	2.96
374.472	-13.27
374.682	14.59
374.893	9.21
375.103	26
375.314	29.75
375.524	28.01
375.735	20.2
375.945	34.23
376.156	18.64
376.366	7.16
376.577	0.4
376.787	-4.36
376.997	-15.92
377.208	-19.81
377.418	-20.32
377.629	-15.67
377.839	-18.46
378.049	-21.23
378.26	0.9
378.47	6.12
378.68	1.63
378.89	3.5
379.101	6.95
379.311	-21.01
379.521	-46.66
379.732	-42.69
379.942	-40.31
380.152	-48.97
380.362	-20.89
380.572	-15.62
380.783	-4.1
380.993	11.56
381.203	20.11
381.413	17.34
381.623	16.61
381.833	4.73
382.043	-15.4
382.253	-18.72
382.463	-12.61
382.674	-15.12
382.884	-17.82
383.094	-2.91
383.304	9.12
383.514	3.24
383.724	8.1
383.934	1.84
384.144	-11.89
384.353	-26.17
384.563	-20.03
384.773	-3.54
384.983	-5.97
385.193	7.24
385.403	14.71
385.613	16.43
385.823	1.93
386.033	5.4
386.242	-3.98
386.452	-7.36
386.662	-16.84
386.872	-11.91
387.082	-15.41
387.291	-14.6
387.501	-19.61
387.711	-9.83
387.921	-10.82
388.13	-10.1
388.34	-3.78
388.55	-4.72
388.759	-2.59
388.969	2.86
389.179	3.24
389.388	4.22
389.598	6.1
389.807	-3.11
390.017	-11.15
390.227	-5.8
390.436	-7.03
390.646	-8.48
390.855	-3.81
391.065	-2.97
391.274	-5.38
391.484	-6.9
391.693	-4
391.903	-2.22
392.112	4.15
392.322	4.97
392.531	8.01
392.74	10.52
392.95	5.27
393.159	2.65
393.369	3.4
393.578	1.89
393.787	0.25
393.997	1.99
394.206	0.18
394.415	-0.56
394.625	-0.61
394.834	-2.19
395.043	-0.68
395.252	1.65
395.462	3.89
395.671	4.77
395.88	6.81
396.089	7.23
396.298	5.92
396.508	5
396.717	4.59
396.926	4.05
397.135	3.75
397.344	3.65
397.553	3.75
397.762	3.99
397.971	4.06
398.181	4.14
398.39	4.25
398.599	3.82
398.808	4.04
399.017	5.06
399.226	6.26
399.435	6.61
399.644	6.96
399.853	6.34
400.062	5.59
400.27	4.63
400.479	4.02
400.688	3.48
400.897	3.51
401.106	3.69
401.315	4.03
401.524	4.32
401.733	4.78
401.941	4.91
402.15	4.69
402.359	4.3
402.568	4.54
402.777	4.55
402.985	4.7
403.194	4.5
403.403	4.7
403.612	4.4
403.82	4.17
404.029	4.3
404.238	4.6
404.446	4.63
404.655	4.64
404.864	4.72
405.072	4.46
405.281	4.31
405.489	3.99
405.698	4.05
405.906	4.06
406.115	4.23
406.324	4.26
406.532	4.48
406.741	4.59
406.949	4.5
407.158	4.43
407.366	4.45
407.574	4.58
407.783	4.5
407.991	4.33
408.2	4.27
408.408	4.2
408.617	3.97
408.825	3.93
409.033	4.14
409.242	4.21
409.45	4.36
409.658	4.43
409.867	4.61
410.075	4.45
410.283	4.28
410.491	4.11
410.7	4.01
410.908	4.01
411.116	4.32
411.324	4.4
411.533	4.31
411.741	4.37
411.949	4.2
412.157	3.89
412.365	3.88
412.573	3.81
412.781	3.81
412.99	3.81
413.198	3.97
413.406	3.92
413.614	3.96
413.822	3.93
414.03	3.85
414.238	3.61
414.446	3.73
414.654	3.71
414.862	3.75
415.07	3.82
415.278	4
415.486	3.78
415.694	3.98
415.902	3.81
416.109	3.72
416.317	3.78
416.525	3.75
416.733	3.65
416.941	3.87
417.149	3.91
417.357	3.78
417.564	3.84
417.772	3.9
417.98	3.8
418.188	3.75
418.395	3.68
418.603	3.96
418.811	3.68
419.019	3.57
419.226	3.75
419.434	3.93
419.642	3.56
419.849	3.75
420.057	3.81
420.265	3.61
420.472	3.34
420.68	3.46
420.887	3.46
421.095	3.4
421.302	3.43
421.51	3.68
421.717	3.73
421.925	3.93
422.132	4.04
422.34	3.79
422.547	3.73
422.755	3.62
422.962	3.26
423.17	3.11
423.377	3.43
423.585	3.35
423.792	3.14
423.999	3.21
424.207	3.22
424.414	3.12
424.621	3.06
424.829	3.19
425.036	3.26
425.243	3.48
425.451	3.44
425.658	3.38
425.865	3.57
426.072	3.51
426.28	3.56
426.487	3.53
426.694	3.7
426.901	3.47
427.108	3.44
427.315	3.2
427.523	3.44
427.73	3.36
427.937	3.5
428.144	3.45
428.351	3.39
428.558	3.3
428.765	3.21
428.972	2.97
429.179	3.11
429.386	3.38
429.593	3.31
429.8	3.36
430.007	3.64
430.214	3.68
430.421	3.51
430.628	3.36
430.835	3.38
431.042	3.38
431.249	3.47
431.456	3.5
431.662	3.69
431.869	3.65
432.076	3.75
432.283	3.8
432.49	3.82
432.697	3.87
432.903	3.85
433.11	3.81
433.317	3.72
433.524	3.87
433.73	3.82
433.937	4.05
434.144	3.96
434.35	4.04
434.557	3.86
434.764	3.83
434.97	3.75
435.177	3.84
435.384	3.67
435.59	3.68
435.797	3.9
436.003	3.99
436.21	3.96
436.416	4.13
436.623	4.24
436.829	4.18
437.036	4.2
437.242	4.24
437.449	4.17
437.655	4.19
437.862	4.2
438.068	4.13
438.275	4.21
438.481	4.33
438.687	4.23
438.894	4.25
439.1	4.3
439.307	4.33
439.513	4.28
439.719	4.27
439.926	4.29
440.132	4.25
440.338	4.12
440.544	4.21
440.751	4.21
440.957	4.28
441.163	4.21
441.369	4.38
441.575	4.22
441.782	4.21
441.988	4.16
442.194	4.23
442.4	4.2
442.606	4.46
442.812	4.62
443.018	4.64
443.224	4.71
443.431	4.76
443.637	4.6
443.843	4.5
444.049	4.47
444.255	4.43
444.461	4.45
444.667	4.4
444.873	4.57
445.079	4.61
445.284	4.64
445.49	4.41
445.696	4.38
445.902	4.18
446.108	4.13
446.314	4.1
446.52	4.17
446.726	4.37
446.931	4.5
447.137	4.59
447.343	4.62
447.549	4.62
447.755	4.55
447.96	4.59
448.166	4.5
448.372	4.5
448.578	4.57
448.783	4.52
448.989	4.54
449.195	4.65
449.4	4.71
449.606	4.75
449.812	4.77
450.017	4.72
450.223	4.67
450.428	4.53
450.634	4.55
450.84	4.63
451.045	4.63
451.251	4.62
451.456	4.95
451.662	5.02
451.867	5.06
452.073	5.09
452.278	5.18
452.483	5.13
452.689	5.01
452.894	5.08
453.1	5.05
453.305	5.02
453.51	4.95
453.716	4.97
453.921	4.88
454.127	4.81
454.332	4.68
454.537	4.58
454.742	4.57
454.948	4.53
455.153	4.59
455.358	4.7
455.563	4.86
455.769	4.99
455.974	5.01
456.179	4.97
456.384	4.9
456.589	4.83
456.795	4.63
457	4.62
457.205	4.77
457.41	4.85
457.615	4.79
457.82	4.93
458.025	4.91
458.23	4.81
458.435	4.8
458.64	4.8
458.845	4.97
459.05	4.98
459.255	5.02
459.46	4.93
459.665	4.97
459.87	4.84
460.075	4.85
460.28	4.92
460.485	5.09
460.69	5.16
460.895	5.09
461.099	5.14
461.304	5.13
461.509	5.12
461.714	5.03
461.919	5.09
462.123	4.98
462.328	5
462.533	4.94
462.738	5.11
462.942	5.1
463.147	5.16
463.352	5.15
463.556	5.19
463.761	5.08
463.966	5.08
464.17	5.19
464.375	5.1
464.58	5.07
464.784	5.11
464.989	5.1
465.193	5.11
465.398	5.16
465.602	5.24
465.807	5.21
466.011	5.21
466.216	5.25
466.42	5.29
466.625	5.38
466.829	5.43
467.034	5.48
467.238	5.52
467.443	5.51
467.647	5.35
467.851	5.42
468.056	5.48
468.26	5.33
468.464	5.36
468.669	5.49
468.873	5.57
469.077	5.53
469.282	5.72
469.486	5.77
469.69	5.76
469.894	5.62
470.099	5.65
470.303	5.62
470.507	5.48
470.711	5.43
470.915	5.48
471.119	5.47
471.324	5.42
471.528	5.6
471.732	5.63
471.936	5.59
472.14	5.64
472.344	5.75
472.548	5.69
472.752	5.89
472.956	6.11
473.16	6.12
473.364	6
473.568	6
473.772	5.96
473.976	5.83
474.18	5.84
474.384	5.94
474.588	5.97
474.792	5.85
474.995	5.9
475.199	6.03
475.403	6.08
475.607	6.06
475.811	6.13
476.015	6.12
476.218	6.08
476.422	5.96
476.626	5.99
476.83	6.04
477.033	6.04
477.237	5.92
477.441	6.02
477.644	6.06
477.848	6.05
478.052	6.08
478.255	6.14
478.459	6.16
478.663	6.2
478.866	6.2
479.07	6.22
479.273	6.34
479.477	6.35
479.681	6.36
479.884	6.37
480.088	6.33
480.291	6.3
480.495	6.31
480.698	6.36
480.901	6.37
481.105	6.41
481.308	6.39
481.512	6.33
481.715	6.35
481.919	6.37
482.122	6.44
482.325	6.51
482.529	6.59
482.732	6.58
482.935	6.48
483.138	6.42
483.342	6.41
483.545	6.5
483.748	6.53
483.952	6.63
484.155	6.74
484.358	6.73
484.561	6.7
484.764	6.62
484.967	6.75
485.171	6.81
485.374	6.75
485.577	6.76
485.78	6.86
485.983	6.79
486.186	6.62
486.389	6.67
486.592	6.61
486.795	6.64
486.998	6.56
487.201	6.62
487.404	6.69
487.607	6.79
487.81	6.73
488.013	6.81
488.216	6.74
488.419	6.69
488.622	6.7
488.825	6.66
489.028	6.6
489.231	6.65
489.433	6.56
489.636	6.43
489.839	6.46
490.042	6.44
490.245	6.46
490.447	6.65
490.65	6.65
490.853	6.66
491.056	6.7
491.258	6.74
491.461	6.67
491.664	6.73
491.866	6.7
492.069	6.79
492.272	6.69
492.474	6.73
492.677	6.77
492.879	6.86
493.082	6.82
493.285	6.91
493.487	6.87
493.69	6.82
493.892	6.76
494.095	6.72
494.297	6.67
494.5	6.65
494.702	6.59
494.905	6.65
495.107	6.6
495.309	6.64
495.512	6.69
495.714	6.77
495.917	6.85
496.119	6.89
496.321	6.93
496.524	6.93
496.726	6.92
496.928	6.84
497.13	6.92
497.333	6.87
497.535	6.89
497.737	6.93
497.939	6.98
498.142	7.02
498.344	7.07
498.546	7.04
498.748	7.08
498.95	7.15
499.152	7.09
499.355	7.08
499.557	7.22
499.759	7.29
499.961	7.24
500.163	7.27
500.365	7.3
500.567	7.22
500.769	7.12
500.971	7.15
501.173	7.17
501.375	7.23
501.577	7.31
501.779	7.3
501.981	7.29
502.183	7.28
502.385	7.28
502.587	7.22
502.788	7.33
502.99	7.4
503.192	7.46
503.394	7.44
503.596	7.52
503.798	7.57
503.999	7.61
504.201	7.59
504.403	7.63
504.605	7.63
504.806	7.57
505.008	7.53
505.21	7.66
505.411	7.65
505.613	7.68
505.815	7.74
506.016	7.83
506.218	7.92
506.42	7.99
506.621	8.01
506.823	8.07
507.024	7.97
507.226	7.88
507.427	7.86
507.629	7.95
507.83	8.01
508.032	8.12
508.233	8.22
508.435	8.32
508.636	8.28
508.838	8.23
509.039	8.23
509.24	8.22
509.442	8.21
509.643	8.17
509.845	8.2
510.046	8.24
510.247	8.27
510.448	8.36
510.65	8.52
510.851	8.68
511.052	8.7
511.254	8.7
511.455	8.74
511.656	8.73
511.857	8.75
512.058	8.78
512.26	8.79
512.461	8.77
512.662	8.76
512.863	8.71
513.064	8.75
513.265	8.76
513.466	8.8
513.667	8.88
513.868	8.87
514.069	8.88
514.27	8.95
514.471	8.93
514.672	8.9
514.873	8.87
515.074	8.94
515.275	8.89
515.476	8.93
515.677	9.01
515.878	9.16
516.079	9.09
516.28	9.17
516.481	9.28
516.682	9.26
516.882	9.18
517.083	9.22
517.284	9.18
517.485	9.13
517.686	9.13
517.886	9.2
518.087	9.22
518.288	9.29
518.488	9.3
518.689	9.27
518.89	9.26
519.091	9.3
519.291	9.29
519.492	9.38
519.692	9.45
519.893	9.52
520.094	9.47
520.294	9.45
520.495	9.31
520.695	9.38
520.896	9.33
521.096	9.43
521.297	9.52
521.497	9.61
521.698	9.61
521.898	9.63
522.099	9.62
522.299	9.67
522.499	9.7
522.7	9.71
522.9	9.76
523.101	9.82
523.301	9.84
523.501	9.83
523.702	9.79
523.902	9.79
524.102	9.81
524.302	9.77
524.503	9.83
524.703	9.88
524.903	9.89
525.103	9.83
525.304	9.87
525.504	9.91
525.704	9.96
525.904	9.98
526.104	10.05
526.304	10.1
526.504	10.08
526.705	10.04
526.905	10.1
527.105	10.08
527.305	10.07
527.505	10.04
527.705	10.08
527.905	10.08
528.105	10.13
528.305	10.07
528.505	10.17
528.705	10.21
528.905	10.2
529.105	10.19
529.304	10.25
529.504	10.36
529.704	10.31
529.904	10.35
530.104	10.39
530.304	10.42
530.503	10.34
530.703	10.34
530.903	10.36
531.103	10.41
531.303	10.42
531.502	10.46
531.702	10.59
531.902	10.65
532.101	10.59
532.301	10.66
532.501	10.67
532.7	10.58
532.9	10.61
533.1	10.67
533.299	10.62
533.499	10.66
533.698	10.71
533.898	10.66
534.097	10.69
534.297	10.81
534.496	10.81
534.696	10.82
534.895	10.96
535.095	11.09
535.294	11.04
535.494	11.01
535.693	11.05
535.892	11.04
536.092	10.95
536.291	10.93
536.491	11.07
536.69	11.17
536.889	11.15
537.088	11.16
537.288	11.25
537.487	11.25
537.686	11.21
537.886	11.26
538.085	11.4
538.284	11.51
538.483	11.48
538.682	11.59
538.882	11.63
539.081	11.65
539.28	11.54
539.479	11.54
539.678	11.49
539.877	11.58
540.076	11.61
540.275	11.67
540.474	11.81
540.673	11.85
540.872	11.87
541.071	11.88
541.27	11.96
541.469	12
541.668	12.02
541.867	12.03
542.066	12.15
542.265	12.21
542.464	12.18
542.663	12.25
542.862	12.37
543.06	12.36
543.259	12.42
543.458	12.49
543.657	12.57
543.856	12.6
544.054	12.63
544.253	12.67
544.452	12.78
544.651	12.85
544.849	12.81
545.048	12.86
545.247	12.88
545.445	12.93
545.644	12.95
545.843	13
546.041	13.06
546.24	13.09
546.438	13.19
546.637	13.25
546.836	13.34
547.034	13.39
547.233	13.46
547.431	13.44
547.63	13.49
547.828	13.56
548.027	13.65
548.225	13.74
548.423	13.79
548.622	13.84
548.82	13.81
549.019	13.79
549.217	13.92
549.415	13.97
549.614	14.03
549.812	14.14
550.01	14.2
550.209	14.16
550.407	14.27
550.605	14.34
550.803	14.42
551.002	14.57
551.2	14.64
551.398	14.72
551.596	14.87
551.794	14.98
551.993	15.03
552.191	15.13
552.389	15.25
552.587	15.3
552.785	15.37
552.983	15.53
553.181	15.63
553.379	15.68
553.577	15.78
553.775	15.83
553.973	15.88
554.171	15.99
554.369	16.06
554.567	16.09
554.765	16.24
554.963	16.29
555.161	16.34
555.359	16.45
555.557	16.61
555.755	16.69
555.952	16.81
556.15	16.89
556.348	16.91
556.546	16.99
556.744	16.99
556.941	17.05
557.139	17.15
557.337	17.29
557.535	17.32
557.732	17.45
557.93	17.56
558.128	17.63
558.325	17.76
558.523	17.85
558.721	18
558.918	18.07
559.116	18.18
559.313	18.22
559.511	18.41
559.708	18.49
559.906	18.6
560.104	18.72
560.301	18.81
560.498	18.88
560.696	18.92
560.893	18.98
561.091	19.07
561.288	19.24
561.486	19.31
561.683	19.39
561.88	19.54
562.078	19.68
562.275	19.7
562.473	19.76
562.67	19.91
562.867	20.02
563.064	20.05
563.262	20.07
563.459	20.2
563.656	20.32
563.853	20.35
564.051	20.45
564.248	20.6
564.445	20.66
564.642	20.76
564.839	21
565.036	21.19
565.234	21.37
565.431	21.6
565.628	21.65
565.825	21.68
566.022	21.77
566.219	21.81
566.416	21.81
566.613	21.89
566.81	21.99
567.007	21.97
567.204	22
567.401	22.08
567.598	22.18
567.795	22.24
567.991	22.36
568.188	22.56
568.385	22.67
568.582	22.81
568.779	22.83
568.976	22.88
569.172	22.87
569.369	22.87
569.566	22.84
569.763	22.93
569.96	22.9
570.156	22.94
570.353	22.97
570.55	23.07
570.746	23.08
570.943	23.22
571.14	23.27
571.336	23.32
571.533	23.37
571.729	23.49
571.926	23.5
572.123	23.55
572.319	23.53
572.516	23.47
572.712	23.51
572.909	23.61
573.105	23.64
573.302	23.83
573.498	24.01
573.695	24.01
573.891	24.01
574.087	24.02
574.284	23.97
574.48	23.88
574.677	23.9
574.873	23.98
575.069	24.04
575.266	24.12
575.462	24.08
575.658	24.05
575.854	24.14
576.051	24.13
576.247	24.11
576.443	24.2
576.639	24.24
576.835	24.15
577.032	24.14
577.228	24.18
577.424	24.15
577.62	24.13
577.816	24.1
578.012	24.11
578.208	24.08
578.404	24.14
578.6	24.13
578.796	24.16
578.993	24.2
579.189	24.23
579.384	24.15
579.58	24.11
579.776	24.1
579.972	24.07
580.168	23.92
580.364	23.94
580.56	23.94
580.756	23.9
580.952	23.87
581.148	23.98
581.343	23.99
581.539	24.1
581.735	24.13
581.931	24.12
582.127	24.15
582.322	24.16
582.518	24.16
582.714	24.13
582.909	24.13
583.105	24.03
583.301	23.96
583.496	23.95
583.692	23.9
583.888	23.88
584.083	24.03
584.279	24.06
584.474	23.98
584.67	24.08
584.866	24.09
585.061	23.93
585.257	24.03
585.452	24.03
585.648	23.9
585.843	23.96
586.039	23.93
586.234	23.83
586.429	23.8
586.625	23.97
586.82	23.84
587.015	23.92
587.211	23.83
587.406	23.91
587.601	23.79
587.797	23.79
587.992	23.78
588.187	23.91
588.383	23.8
588.578	23.81
588.773	23.87
588.968	23.84
589.163	23.92
589.359	23.98
589.554	23.99
589.749	24.01
589.944	24.08
590.139	23.95
590.334	24.07
590.529	24.02
590.724	24.09
590.919	24.15
591.114	24.25
591.309	24.22
591.504	24.4
591.699	24.46
591.894	24.52
592.089	24.54
592.284	24.58
592.479	24.62
592.674	24.56
592.869	24.6
593.064	24.68
593.259	24.88
593.454	24.97
593.648	25.03
593.843	25.04
594.038	25.05
594.233	24.94
594.428	24.93
594.622	25.06
594.817	25.17
595.012	25.25
595.206	25.31
595.401	25.34
595.596	25.41
595.79	25.5
595.985	25.53
596.18	25.67
596.374	25.72
596.569	25.74
596.763	25.75
596.958	25.88
597.153	25.94
597.347	26
597.542	26.14
597.736	26.14
597.931	26.22
598.125	26.25
598.319	26.45
598.514	26.36
598.708	26.55
598.903	26.49
599.097	26.5
599.291	26.45
599.486	26.54
599.68	26.51
599.874	26.68
600.069	26.7
600.263	26.67
600.457	26.72
600.651	26.71
600.846	26.74
601.04	26.84
601.234	26.96
601.428	27
601.622	27.04
601.817	27.04
602.011	27.1
602.205	27.12
602.399	27.18
602.593	27.21
602.787	27.21
602.981	27.03
603.175	27.07
603.369	27
603.563	27.07
603.757	27.14
603.951	27.18
604.145	27.09
604.339	27.11
604.533	26.96
604.727	26.9
604.921	26.89
605.115	26.96
605.309	26.92
605.502	27.05
605.696	26.95
605.89	26.95
606.084	26.94
606.278	26.95
606.471	26.8
606.665	26.81
606.859	26.69
607.053	26.6
607.246	26.58
607.44	26.54
607.634	26.5
607.827	26.56
608.021	26.51
608.214	26.46
608.408	26.33
608.602	26.26
608.795	26.16
608.989	26.05
609.182	25.89
609.376	25.95
609.569	25.87
609.763	25.78
609.956	25.73
610.15	25.68
610.343	25.64
610.537	25.63
610.73	25.59
610.923	25.48
611.117	25.43
611.31	25.28
611.504	25.16
611.697	25.05
611.89	25.07
612.083	25.01
612.277	24.98
612.47	24.88
612.663	24.86
612.856	24.78
613.05	24.59
613.243	24.57
613.436	24.48
613.629	24.33
613.822	24.15
614.015	24.17
614.209	23.94
614.402	24.01
614.595	24.04
614.788	23.98
614.981	23.87
615.174	23.81
615.367	23.64
615.56	23.5
615.753	23.56
615.946	23.51
616.139	23.49
616.332	23.58
616.525	23.56
616.718	23.56
616.911	23.54
617.103	23.56
617.296	23.43
617.489	23.39
617.682	23.23
617.875	23.24
618.067	23.13
618.26	23.03
618.453	23.04
618.646	23.07
618.838	22.98
619.031	23.05
619.224	23.01
619.417	22.99
619.609	22.95
619.802	22.88
619.994	22.74
620.187	22.75
620.38	22.67
620.572	22.49
620.765	22.57
620.957	22.54
621.15	22.41
621.342	22.31
621.535	22.41
621.727	22.29
621.92	22.24
622.112	22.16
622.305	22.19
622.497	22.14
622.69	22.16
622.882	22.21
623.074	22.31
623.267	22.24
623.459	22.19
623.651	22.08
623.844	22.08
624.036	22.13
624.228	22.16
624.42	22.15
624.613	22.21
624.805	22.08
624.997	21.98
625.189	21.91
625.381	21.88
625.574	21.83
625.766	21.85
625.958	21.83
626.15	21.87
626.342	21.89
626.534	21.91
626.726	21.82
626.918	21.75
627.11	21.64
627.302	21.61
627.494	21.55
627.686	21.6
627.878	21.56
628.07	21.53
628.262	21.47
628.454	21.42
628.646	21.4
628.838	21.44
629.029	21.44
629.221	21.44
629.413	21.36
629.605	21.26
629.797	21.28
629.989	21.27
630.18	21.21
630.372	21.2
630.564	21.23
630.755	21.26
630.947	21.33
631.139	21.24
631.33	21.14
631.522	21.22
631.714	21.07
631.905	20.96
632.097	20.96
632.289	21.05
632.48	20.85
632.672	20.88
632.863	20.79
633.055	20.75
633.246	20.74
633.438	20.7
633.629	20.64
633.821	20.65
634.012	20.69
634.203	20.61
634.395	20.62
634.586	20.57
634.777	20.51
634.969	20.52
635.16	20.54
635.351	20.56
635.543	20.64
635.734	20.68
635.925	20.67
636.117	20.73
636.308	20.73
636.499	20.63
636.69	20.5
636.881	20.44
637.073	20.42
637.264	20.39
637.455	20.43
637.646	20.56
637.837	20.54
638.028	20.49
638.219	20.57
638.41	20.46
638.601	20.34
638.792	20.34
638.983	20.26
639.174	20.16
639.365	20.25
639.556	20.23
639.747	20.22
639.938	20.34
640.129	20.35
640.32	20.33
640.511	20.38
640.701	20.36
640.892	20.14
641.083	20.09
641.274	20.02
641.465	20.03
641.655	19.93
641.846	19.96
642.037	19.86
642.228	19.81
642.418	19.73
642.609	19.72
642.8	19.73
642.99	19.74
643.181	19.67
643.372	19.64
643.562	19.68
643.753	19.65
643.943	19.59
644.134	19.53
644.324	19.51
644.515	19.45
644.705	19.44
644.896	19.39
645.086	19.49
645.277	19.4
645.467	19.44
645.658	19.45
645.848	19.5
646.038	19.39
646.229	19.38
646.419	19.24
646.61	19.18
646.8	19.16
646.99	19.16
647.18	19.11
647.371	19.05
647.561	18.94
647.751	18.95
647.941	18.86
648.132	18.92
648.322	18.91
648.512	19.03
648.702	18.97
648.892	18.97
649.082	18.96
649.272	18.92
649.462	18.72
649.653	18.71
649.843	18.68
650.033	18.65
650.223	18.6
650.413	18.51
650.603	18.44
650.793	18.48
650.983	18.38
651.172	18.4
651.362	18.44
651.552	18.34
651.742	18.16
651.932	18.07
652.122	18.03
652.312	18.03
652.502	18.03
652.691	17.93
652.881	17.86
653.071	17.75
653.261	17.52
653.45	17.3
653.64	17.36
653.83	17.24
654.019	17.19
654.209	17.12
654.399	17.11
654.588	16.88
654.778	16.79
654.968	16.63
655.157	16.6
655.347	16.49
655.536	16.36
655.726	16.2
655.915	16.01
656.105	15.85
656.294	15.8
656.484	15.68
656.673	15.63
656.863	15.58
657.052	15.36
657.241	15.09
657.431	14.84
657.62	14.63
657.809	14.32
657.999	14.29
658.188	14.12
658.377	13.96
658.567	13.86
658.756	13.76
658.945	13.55
659.134	13.33
659.324	13.3
659.513	13.08
659.702	12.91
659.891	12.75
660.08	12.66
660.269	12.59
660.458	12.4
660.648	12.33
660.837	12.16
661.026	12.06
661.215	11.84
661.404	11.67
661.593	11.49
661.782	11.28
661.971	11.12
662.16	10.9
662.349	10.82
662.538	10.67
662.726	10.62
662.915	10.47
663.104	10.41
663.293	10.32
663.482	10.26
663.671	10.07
663.86	9.93
664.048	9.78
664.237	9.75
664.426	9.59
664.615	9.51
664.803	9.44
664.992	9.34
665.181	9.09
665.369	8.99
665.558	8.92
665.747	8.85
665.935	8.89
666.124	8.96
666.312	8.96
666.501	8.94
666.69	8.82
666.878	8.66
667.067	8.53
667.255	8.53
667.444	8.62
667.632	8.7
667.82	8.76
668.009	8.8
668.197	8.71
668.386	8.55
668.574	8.53
668.762	8.37
668.951	8.28
669.139	8.26
669.327	8.17
669.516	8.19
669.704	8.11
669.892	8.15
670.08	8.08
670.269	8.04
670.457	7.88
670.645	7.92
670.833	8
671.021	8
671.21	8.09
671.398	8.31
671.586	8.31
671.774	8.19
671.962	8.23
672.15	8.26
672.338	8.15
672.526	8.16
672.714	8.16
672.902	8.22
673.09	8.26
673.278	8.4
673.466	8.43
673.654	8.59
673.842	8.51
674.03	8.57
674.218	8.43
674.405	8.46
674.593	8.37
674.781	8.5
674.969	8.55
675.157	8.72
675.344	8.83
675.532	8.82
675.72	8.86
675.908	8.79
676.095	8.7
676.283	8.7
676.471	8.94
676.658	8.86
676.846	9.08
677.033	9.22
677.221	9.29
677.409	9.21
677.596	9.37
677.784	9.3
677.971	9.32
678.159	9.38
678.346	9.4
678.534	9.48
678.721	9.71
678.909	9.71
679.096	9.77
679.283	10
679.471	10.18
679.658	10.18
679.846	10.52
680.033	10.72
680.22	10.8
680.408	10.69
680.595	10.84
680.782	10.69
680.969	10.89
681.157	11.04
681.344	11.27
681.531	11.33
681.718	11.6
681.905	11.66
682.093	11.81
682.28	12.02
682.467	12.28
682.654	12.33
682.841	12.44
683.028	12.6
683.215	12.72
683.402	12.69
683.589	12.96
683.776	13.18
683.963	13.24
684.15	13.48
684.337	13.85
684.524	14.15
684.711	14.4
684.898	14.62
685.085	14.81
685.271	15.11
685.458	15.26
685.645	15.43
685.832	15.78
686.019	16.31
686.205	16.41
686.392	16.7
686.579	16.96
686.766	17.23
686.952	17.4
687.139	17.92
687.326	18.25
687.512	18.74
687.699	19.18
687.886	19.47
688.072	19.75
688.259	20.18
688.445	20.64
688.632	21.02
688.818	21.58
689.005	22.18
689.191	22.74
689.378	23.37
689.564	23.93
689.751	24.48
689.937	24.87
690.124	25.44
690.31	25.65
690.496	26.14
690.683	26.63
690.869	27.13
691.055	27.41
691.242	28.24
691.428	28.85
691.614	29.49
691.8	30.41
691.987	31.28
692.173	31.84
692.359	32.67
692.545	33.32
692.731	33.53
692.918	34.02
693.104	34.57
693.29	35.06
693.476	35.79
693.662	36.48
693.848	37.11
694.034	37.76
694.22	38.39
694.406	38.87
694.592	39.58
694.778	40.2
694.964	40.61
695.15	41.25
695.336	41.78
695.522	42.64
695.708	43.18
695.894	44.06
696.08	44.49
696.265	45.1
696.451	45.5
696.637	46.32
696.823	46.93
697.009	47.47
697.194	48.08
697.38	48.64
697.566	49.1
697.751	49.76
697.937	50.6
698.123	51.25
698.308	52.21
698.494	52.86
698.68	53.24
698.865	53.75
699.051	54.43
699.236	54.66
699.422	55.03
699.607	55.46
699.793	55.82
699.978	56.04
700.164	56.4
700.349	57.02
700.535	57.55
700.72	58.04
700.906	58.7
701.091	59.2
701.276	59.72
701.462	60.51
701.647	61.24
701.832	61.72
702.018	61.96
702.203	62.28
702.388	62.24
702.573	62.25
702.759	62.71
702.944	63.19
703.129	63.45
703.314	64.18
703.499	64.68
703.684	64.81
703.87	65.66
704.055	66.39
704.24	66.38
704.425	67.13
704.61	67.49
704.795	67.43
704.98	67.59
705.165	67.89
705.35	67.83
705.535	68.24
705.72	68.49
705.905	68.9
706.09	69.27
706.275	69.45
706.459	69.33
706.644	69.52
706.829	69.49
707.014	69.88
707.199	70.5
707.384	70.94
707.568	71.35
707.753	71.86
707.938	71.99
708.123	71.83
708.307	71.91
708.492	72.23
708.677	72.44
708.861	72.8
709.046	72.85
709.231	73.67
709.415	73.9
709.6	73.82
709.784	73.68
709.969	73.97
710.153	73.71
710.338	73.86
710.522	74.19
710.707	74.81
710.891	75.18
711.076	75.52
711.26	75.41
711.445	75.55
711.629	75.55
711.813	75.81
711.998	76
712.182	76.24
712.366	76.58
712.551	77.24
712.735	77.42
712.919	77.39
713.103	77.74
713.288	77.55
713.472	77.05
713.656	77.46
713.84	77.58
714.024	77.73
714.208	77.68
714.393	78.08
714.577	77.84
714.761	78
714.945	77.89
715.129	78.68
715.313	78.95
715.497	79.2
715.681	79.95
715.865	80.16
716.049	80.13
716.233	79.65
716.417	79.69
716.601	79.13
716.785	79.21
716.968	79.1
717.152	79.34
717.336	79.43
717.52	79.47
717.704	79.33
717.888	79.79
718.071	80.38
718.255	80.43
718.439	80.6
718.622	80.88
718.806	80.66
718.99	80.13
719.174	80.38
719.357	80.54
719.541	80.66
719.724	80.85
719.908	81.38
720.092	81.62
720.275	82.01
720.459	81.99
720.642	81.56
720.826	81.25
721.009	81.08
721.193	80.4
721.376	80.5
721.559	81.07
721.743	81.72
721.926	81.69
722.11	82.41
722.293	82.06
722.476	82.11
722.66	81.73
722.843	81.97
723.026	81.31
723.21	81.81
723.393	82.19
723.576	82.08
723.759	81.66
723.942	82.03
724.126	82.04
724.309	81.94
724.492	82.28
724.675	82.51
724.858	83.07
725.041	83.24
725.224	83.43
725.407	83.47
725.59	83.78
725.774	83.19
725.957	82.93
726.14	82.76
726.322	82.62
726.505	82.84
726.688	83.77
726.871	84.38
727.054	84.38
727.237	84.58
727.42	84.67
727.603	84.48
727.786	84.37
727.968	84.55
728.151	84.45
728.334	84.03
728.517	84.2
728.699	84.45
728.882	84.2
729.065	85.07
729.248	85.57
729.43	85.35
729.613	85.73
729.796	86.52
729.978	85.34
730.161	85.58
730.343	85.8
730.526	86.46
730.708	85.78
730.891	86.27
731.073	85.63
731.256	85.17
731.438	84.39
731.621	84.74
731.803	84.85
731.986	85.1
732.168	85
732.35	84.84
732.533	84.92
732.715	85.16
732.898	85.91
733.08	85.99
733.262	86.5
733.444	86.31
733.627	86.55
733.809	86.66
733.991	87.45
734.173	86.53
734.355	86.34
734.538	86.72
734.72	86.07
734.902	85.96
735.084	86.71
735.266	87.38
735.448	87.27
735.63	87.24
735.812	87.38
735.994	88.15
736.176	87.75
736.358	87.21
736.54	88.26
736.722	87.5
736.904	86.54
737.086	86.23
737.268	87.32
737.45	86.43
737.632	86.58
737.814	86.59
737.995	86.94
738.177	85.96
738.359	85.64
738.541	86.48
738.723	86.49
738.904	86.45
739.086	86.82
739.268	86.96
739.449	86.61
739.631	86.09
739.813	86.57
739.994	86.8
740.176	87.45
740.358	87.68
740.539	88.81
740.721	89.61
740.902	89.56
741.084	89.19
741.265	88.33
741.447	88.55
741.628	88.45
741.81	87.67
741.991	88.32
742.172	89.4
742.354	88.98
742.535	89.02
742.717	90.12
742.898	90
743.079	90.08
743.261	90.51
743.442	89.81
743.623	90.21
743.804	90.38
743.986	90.4
744.167	88.61
744.348	87.85
744.529	87.56
744.71	86.77
744.891	86.78
745.073	87.27
745.254	87.56
745.435	86.9
745.616	86.99
745.797	86.09
745.978	86.28
746.159	86.47
746.34	86.18
746.521	87.11
746.702	87.12
746.883	86.64
747.064	86.42
747.245	86.81
747.426	85.86
747.606	85.76
747.787	86.36
747.968	86.37
748.149	86.42
748.33	87.14
748.51	87.8
748.691	87.47
748.872	88.24
749.053	87.53
749.233	86.5
749.414	85.93
749.595	86.77
749.775	85.98
749.956	85.64
750.137	86.4
750.317	87.67
750.498	89.2
750.678	90.08
750.859	91.2
751.04	91.01
751.22	89.45
751.4	87.39
751.581	85.62
751.761	85.96
751.942	84.7
752.122	85.88
752.303	85.69
752.483	86.16
752.663	86.04
752.844	86.6
753.024	86.39
753.204	86.59
753.385	86.19
753.565	85.67
753.745	84.44
753.925	84.31
754.106	83.98
754.286	83.32
754.466	83.47
754.646	84.89
754.826	84.74
755.006	84.67
755.187	86.03
755.367	86.41
755.547	86.24
755.727	86.65
755.907	87.34
756.087	88.03
756.267	86.32
756.447	85.39
756.627	83.76
756.807	83.93
756.987	83.24
757.167	84.84
757.346	85.9
757.526	85.41
757.706	85.42
757.886	85.88
758.066	86.6
758.246	87.77
758.425	88.62
758.605	88.27
758.785	88.07
758.965	87.71
759.144	86.35
759.324	86.76
759.504	86.37
759.683	86.06
759.863	83.69
760.043	83.32
760.222	83.71
760.402	83.81
760.581	83.72
760.761	85.51
760.94	84.78
761.12	85.18
761.299	85.6
761.479	85.53
761.658	83.52
761.838	84.4
762.017	84.65
762.197	85.38
762.376	85.63
762.555	87.74
762.735	88.31
762.914	85.86
763.093	84.57
763.273	83.98
763.452	83.88
763.631	82.94
763.81	83.89
763.99	83.7
764.169	85.01
764.348	83.31
764.527	82.11
764.706	83.95
764.885	86.11
765.064	83.73
765.243	85.41
765.423	87.74
765.602	85.67
765.781	83.05
765.96	82.91
766.139	82.11
766.318	82.04
766.497	81.16
766.676	81.85
766.854	84.39
767.033	83.49
767.212	82.54
767.391	83.55
767.57	83.53
767.749	82.5
767.928	84.12
768.106	83.66
768.285	82.09
768.464	82.32
768.643	80.92
768.821	79.67
769	80.79
769.179	81.79
769.357	80.31
769.536	81.44
769.715	82.37
769.893	83
770.072	83.17
770.25	84.87
770.429	85.47
770.607	84.37
770.786	83.25
770.964	84.27
771.143	83.71
771.321	84.03
771.5	85.59
771.678	84.59
771.857	83.57
772.035	81.58
772.213	80.27
772.392	77.43
772.57	76.5
772.748	76.91
772.927	78.37
773.105	77.2
773.283	78.76
773.461	82.42
773.64	82.84
773.818	82.96
773.996	84.92
774.174	84.35
774.352	81.4
774.531	78.26
774.709	79.36
774.887	78.93
775.065	78.87
775.243	80.22
775.421	81.72
775.599	82.53
775.777	79.7
775.955	78.58
776.133	75.98
776.311	77.06
776.489	73.83
776.667	75.39
776.844	75.72
777.022	76.12
777.2	75.91
777.378	77
777.556	78.54
777.734	80.33
777.911	82.31
778.089	81.83
778.267	82.08
778.445	79.39
778.622	79.73
778.8	77.35
778.978	76.39
779.155	75.92
779.333	78.06
779.511	76.59
779.688	79.66
779.866	76.1
780.043	74.36
780.221	72.95
780.398	73.51
780.576	71.94
780.753	76.3
780.931	78.29
781.108	79.3
781.286	78.62
781.463	76.86
781.64	75.15
781.818	72.75
781.995	71.53
782.172	72.72
782.35	72.84
782.527	75.54
782.704	76.28
782.882	77.5
783.059	76.62
783.236	78.02
783.413	78.56
783.59	80.84
783.768	77.67
783.945	77.16
784.122	77.43
784.299	76.52
784.476	72.53
784.653	72.91
784.83	71.61
785.007	69.12
785.184	66.66
785.361	66.4
785.538	71.51
785.715	74.21
785.892	75.52
786.069	78.9
786.246	79.94
786.423	76.96
786.6	74.94
786.776	76.93
786.953	75.34
787.13	78.42
787.307	77.85
787.484	78.49
787.66	74.48
787.837	73.31
788.014	69.54
788.191	67.57
788.367	64.47
788.544	70.16
788.721	71.35
788.897	75.69
789.074	78.75
789.25	81.78
789.427	82.09
789.603	80.98
789.78	80.19
789.956	78.29
790.133	76.25
790.309	75.25
790.486	74.83
790.662	75.21
790.839	75.22
791.015	73.62
791.192	70.2
791.368	75.63
791.544	71.68
791.721	72.17
791.897	73.09
792.073	69.51
792.249	60.97
792.426	63.39
792.602	64.96
792.778	64.86
792.954	67.19
793.13	68.83
793.307	62.31
793.483	55.01
793.659	58.14
793.835	65.38
794.011	66
794.187	69.34
794.363	70.15
794.539	70.28
794.715	60.33
794.891	63.51
795.067	63.96
795.243	68.86
795.419	65.52
795.595	65.01
795.771	61.09
795.947	63.39
796.122	63.49
796.298	66.73
796.474	72.03
796.65	75.23
796.826	74.42
797.001	68.36
797.177	62.01
797.353	61.24
797.529	56.97
797.704	55.87
797.88	58.7
798.056	61.69
798.231	63.6
798.407	67.8
798.582	69.67
798.758	73.68
798.934	80.03
799.109	75.05
799.285	69.18
799.46	70.32
799.636	67.4
799.811	62.16
799.986	64.94
800.162	66.7
800.337	69.63
800.513	67.63
800.688	70.69
800.863	76.82
801.039	75.84
801.214	67.78
801.389	75.9
801.565	73.27
801.74	65.87
801.915	72.43
802.09	76.98
802.265	77.63
802.441	73.53
802.616	77.78
802.791	79.95
802.966	78.7
803.141	72.62
803.316	72.82
803.491	74.75
803.666	75.06
803.841	70.62
804.016	66.54
804.191	68.19
804.366	59.38
804.541	54.95
804.716	58.85
804.891	60.26
805.066	59.84
805.241	58.85
805.416	55.31
805.591	52.75
805.765	55.75
805.94	59.27
806.115	62.24
806.29	64.55
806.464	66.8
806.639	60.74
806.814	60.02
806.989	54.16
807.163	61.78
807.338	57.38
807.512	62.76
807.687	45.42
807.862	60.14
808.036	52.98
808.211	58.55
808.385	61.05
808.56	75.37
808.734	75.11
808.909	71.42
809.083	68.79
809.258	72.77
809.432	73.72
809.606	59.11
809.781	69
809.955	72.8
810.13	77.28
810.304	72.64
810.478	69.51
810.652	65.72
810.827	62.61
811.001	53.6
811.175	44.95
811.349	51.87
811.524	46.33
811.698	41.89
811.872	43.58
812.046	57.87
812.22	60.57
812.394	65.47
812.568	70.35
812.742	65.69
812.916	65.13
813.09	55.7
813.264	48.62
813.438	47.93
813.612	51
813.786	48.11
813.96	58.01
814.134	62.14
814.308	63.47
814.482	65.88
814.656	60.17
814.83	63.5
815.003	67.18
815.177	65.95
815.351	60.34
815.525	58.99
815.698	50.57
815.872	39.81
816.046	27.58
816.219	37.2
816.393	45.98
816.567	54.02
816.74	60.23
816.914	69.51
817.088	68.19
817.261	61.15
817.435	52.46
817.608	62.22
817.782	48.21
817.955	51.44
818.129	51.42
818.302	53.77
818.475	51.32
818.649	50.17
818.822	41.02
818.996	46.04
819.169	49.44
819.342	36.86
819.516	44.63
819.689	55.86
819.862	54.46
820.035	51.15
820.209	49.87
820.382	46.77
820.555	44.1
820.728	39.98
820.901	29.84
821.075	39.38
821.248	44.8
821.421	29.05
821.594	31.91
821.767	60.07
821.94	57.64
822.113	42.85
822.286	46.63
822.459	46.5
822.632	22.15
822.805	9.4
822.978	20.14
823.151	30.26
823.324	32.57
823.496	23.57
823.669	39.38
823.842	40.8
824.015	31.31
824.188	29.79
824.361	34.77
824.533	16.5
824.706	23.59
824.879	26.97
825.051	23.8
825.224	30.66
825.397	29.49
825.569	9.7
825.742	17.55
825.915	22.38
826.087	19.58
826.26	27.19
826.432	41.14
826.605	53.54
826.777	53.48
826.95	53.47
827.122	52.18
827.295	47.75
827.467	40.62
827.64	25.64
827.812	29.91
827.984	30.9
828.157	29.5
828.329	-18.38
828.501	-3.33
828.674	23.48
828.846	21.49
829.018	30.14
829.19	31.52
829.363	42.89
829.535	28.26
829.707	34.66
829.879	18.73
830.051	16.15
830.223	8.08
830.395	-15.89
830.568	-20.37
830.74	-16.68
830.912	19.88
831.084	14.36
831.256	15.86
831.428	17.46
831.6	7.69
831.772	-21.02
831.943	-53.57
832.115	-31.76
832.287	-11.48
832.459	11.37
832.631	34.47
832.803	53.43
832.975	64.77
833.146	42.81
833.318	28.51
833.49	34.95
833.662	31.89
833.833	15.39
834.005	13.45
834.177	24.11
834.348	14.64
834.52	8.14
834.692	7.02
834.863	11.75
835.035	2.72
835.206	-35.85
835.378	1.81
835.549	17.37
835.721	22.85
835.892	27.16
836.064	32
836.235	29.07
836.407	34.52
836.578	20.62
836.749	32.08
836.921	-4.88
837.092	-28.76
837.264	-29.28
837.435	-30.68
837.606	-2.23
837.777	31.12
837.949	37.56
838.12	38.16
838.291	47.37
838.462	29.7
838.633	17.28
838.805	12.15
838.976	19.12
839.147	-25.03
839.318	-32.17
839.489	-91.03
839.66	-53.03
839.831	-35.85
840.002	-35.75
840.173	-34.83
840.344	22.26
840.515	-2.3
840.686	-41.83
840.857	26.93
841.028	11.1
841.199	-6.98
841.369	-31.82
841.54	-21.89
841.711	-9.92
841.882	16.77
842.053	17.28
842.223	12.39
842.394	5.94
842.565	8.52
842.736	23.19
842.906	29.89
843.077	42.99
843.248	71.73
843.418	57.97
843.589	18.15
843.759	94.43
843.93	102.01
844.101	36.93
844.271	45.44
844.442	53.39
844.612	30.92
844.783	0.88
844.953	-26.32
845.123	-63.74
845.294	-100.39
845.464	-284.33
845.635	-119.79
845.805	12.72
845.975	27.37
846.146	12.74
846.316	20.97
846.486	41.55
846.656	46.63
846.827	49.86
846.997	67.58
847.167	73.45
847.337	16.49
847.507	-14.15
847.677	3.49
847.848	36.12
848.018	49.81
848.188	54.26
848.358	47.38
848.528	28.29
848.698	-2.83
848.868	-75.93
849.038	-105.57
849.208	-24.31
849.378	17.52
849.548	12.77
849.718	16.18
849.887	28.17
850.057	21.95
850.227	-13.18
850.397	-34.47
850.567	-148.23
850.737	-325.43
850.906	-1059.38
851.076	-580.08
851.246	-363.61
851.415	15.75
851.585	-0.15
851.755	-39.94
851.924	-11.87
852.094	3.24
852.264	-85.95
852.433	-702.4
852.603	-79.83
852.772	-41.47
852.942	-30.45
853.111	-16
853.281	25.47
853.45	67.17
853.62	41.46
853.789	31.38
853.959	82.73
854.128	38.69
854.297	-22.14
854.467	-42.66
854.636	-35.5
854.805	-12.07
854.975	-9.49
855.144	-12.74
855.313	133.22
855.482	-9.85
855.652	31.16
855.821	56.25
855.99	83.19
856.159	48.82
856.328	42.94
856.497	4.55
856.667	-2.47
856.836	-2.98
857.005	-2.47
857.174	-1.2
857.343	32.28
857.512	79.37
857.681	-10.8
857.85	-80.83
858.019	-67.93
858.188	-74.93
858.356	-95.14
858.525	-144.87
858.694	-97.02
858.863	-125.57
859.032	-40.74
859.201	-26.01
859.369	-1.91
859.538	-42.45
859.707	-67.15
859.876	-101.56
860.044	-61.5
860.213	25.39
860.382	22.37
860.55	17.19
860.719	42.81
860.888	36.18
861.056	-4.75
861.225	-1.79
861.393	36.68
861.562	27.57
861.73	-71.19
861.899	-228.53
862.067	-1908.62
862.236	-156.04
862.404	-336.74
862.572	-153.9
862.741	-47
862.909	-53.89
863.078	-90.15
863.246	-44.74
863.414	-48.95
863.582	-45.71
863.751	-53.6
863.919	-68.13
864.087	-48.29
864.255	-62.71
864.424	-291.04
864.592	-20.34
864.76	-58.62
864.928	-68.4
865.096	-16.72
865.264	32.75
865.432	-439.77
865.6	123.75
865.768	-13.27
865.936	-50.32
866.104	-129.29
866.272	-220.78
866.44	-378.54
866.608	662.77
866.776	309.4
866.944	2082.56
867.112	-309.53
867.28	-136.43
867.448	-18.29
867.615	18.53
867.783	14.12
867.951	6.34
868.119	52.23
868.286	-11.36
868.454	-62.75
868.622	-37.59
868.789	-31.02
868.957	-1746.43
869.125	-1132.89
869.292	-65.97
869.46	-152.34
869.627	-52.24
869.795	-47.21
869.963	-17.28
870.13	-3.69
870.298	29.38
870.465	-1.87
870.632	-14.89
870.8	-2.17
870.967	-44.74
871.135	-118.79
871.302	-123.15
871.469	-170.24
871.637	-235.41
871.804	-112.85
871.971	-157.41
872.139	-356.51
872.306	29.36
872.473	0.59
872.64	-52.15
872.807	-39.45
872.975	13.95
873.142	-210
873.309	2095.95
873.476	-63.53
873.643	8.6
873.81	-17.34
873.977	5.93
874.144	36.33
874.311	-58.24
874.478	-60.76
874.645	-60.99
874.812	-12.52
874.979	-2.37
875.146	-23.55
875.313	-44.75
875.48	16.31
875.647	-20.81
875.813	-59.56
875.98	-33.47
876.147	-39.96
876.314	-116.47
876.481	628.51
876.647	-702.81
876.814	232.38
876.981	28.27
877.147	26.08
877.314	16.38
877.481	46.51
877.647	40.22
877.814	6.3
877.98	-29.53
878.147	-17.81
878.314	24.34
878.48	11.05
878.647	32.9
878.813	50.52
878.979	34.56
879.146	-7.04
879.312	-22.53
879.479	-80.98
879.645	-133.72
879.811	-179.34
879.978	-516.41
880.144	-129.35
880.31	-31.59
880.477	-177.36
880.643	-210.74
880.809	-61.21
880.975	-28.09
881.142	-530.45
881.308	-41.31
881.474	-10.89
881.64	-6.7
881.806	-55.34
881.972	1.02
882.138	3.24
882.304	-31.56
882.47	-90.32
882.636	-315.98
882.802	-83.6
882.968	-19.8
883.134	20.17
883.3	-3.88
883.466	17.43
883.632	34.52
883.798	15.11
883.964	-12.03
884.129	-9.97
884.295	2.91
884.461	-49.12
884.627	-30.93
884.793	-43.65
884.958	1.52
885.124	-87.95
885.29	-123.26
885.455	-294.9
885.621	-94.28
885.787	-224.04
885.952	-60.65
886.118	-66.81
886.283	-73.18
886.449	-181.27
886.614	-130.98
886.78	-353.65
886.945	1522.13
887.111	-606.07
887.276	-403.13
887.442	-762.27
887.607	-413.92
887.773	-278.5
887.938	-209.53
888.103	-318.11
888.269	-271.54
888.434	-318.65
888.599	-67.18
888.764	-16.11
888.93	1.73
889.095	-14.09
889.26	-64.61
889.425	-59.96
889.59	-27.1
889.756	-13.13
889.921	12.57
890.086	63.37
890.251	30.27
890.416	-96.45
890.581	-1376.61
890.746	225.54
890.911	442.36
891.076	136.18
891.241	-189.18
891.406	39.8
891.571	3.2
891.736	-95.64
891.901	-335.84
892.065	628.02
892.23	119.15
892.395	184.64
892.56	373.27
892.725	-584.77
892.889	-1701.22
893.054	-177.44
893.219	-97.79
893.384	-36.43
893.548	-99.53
893.713	-109.92
893.878	-112.85
