Data from Ofra_1a_PS_4HS15.2_Reflection_1.txt Node
Date: Tue Jul 20 10:58:06 EDT 2021
User: Adam
Spectrometer: FLMT01687
Trigger mode: 0
Integration Time (sec): 1.004000E0
Scans to average: 2
Electric dark correction enabled: true
Nonlinearity correction enabled: false
Boxcar width: 2
XAxis mode: Wavelengths
Number of Pixels in Spectrum: 3648
>>>>>Begin Spectral Data<<<<<
179.494	-509.64
179.716	-709.16
179.937	1562.54
180.158	-3014.01
180.38	333.59
180.601	206.54
180.823	170.4
181.044	125.78
181.265	-145.11
181.486	177.18
181.708	133.89
181.929	-8909.09
182.15	153.46
182.372	-453.2
182.593	7.8
182.814	-98.47
183.035	-48.21
183.257	-2.26
183.478	-8.48
183.699	-9.51
183.92	-43.94
184.141	-37.92
184.363	-41.88
184.584	-63.16
184.805	-48.6
185.026	1.18
185.247	-6.55
185.468	-32.24
185.689	-8.93
185.91	-15.48
186.132	-8.54
186.353	10.85
186.574	19.29
186.795	19.01
187.016	38.95
187.237	55.54
187.458	65.16
187.679	54.94
187.9	63.59
188.121	63.81
188.342	56.02
188.563	71.48
188.784	86.67
189.005	57.62
189.226	46.6
189.447	45.52
189.667	25.79
189.888	5.85
190.109	-3.72
190.33	17.33
190.551	-6.3
190.772	3.8
190.993	-8.77
191.214	-27.16
191.434	-51.68
191.655	-55.6
191.876	-30.9
192.097	-5.94
192.318	27.52
192.538	-8.95
192.759	-3.8
192.98	-2.09
193.201	7.2
193.421	13.63
193.642	34.65
193.863	44.17
194.083	25.16
194.304	18.55
194.525	6.75
194.745	-15.16
194.966	-19.48
195.187	-4.52
195.407	-28.73
195.628	-15.08
195.848	-12.26
196.069	-7.9
196.29	-1.31
196.51	16.42
196.731	2.27
196.951	-8.91
197.172	-14.36
197.392	-26.37
197.613	-25.28
197.833	-32.07
198.054	-46.11
198.274	-43.86
198.495	-48.43
198.715	-43.65
198.936	-2.65
199.156	13.2
199.377	37.9
199.597	55.39
199.817	51.39
200.038	-4.38
200.258	9.33
200.479	-2.53
200.699	-22.1
200.919	-23.25
201.14	-18.56
201.36	-22.97
201.58	-34.61
201.801	-43.35
202.021	-22.86
202.241	8.84
202.461	10.88
202.682	25.81
202.902	39.55
203.122	33.9
203.342	27.33
203.563	21.79
203.783	7.55
204.003	-13.13
204.223	4.64
204.443	17.14
204.663	-16.72
204.884	-10.74
205.104	-20.04
205.324	-31.06
205.544	-91.67
205.764	-13.99
205.984	-18.85
206.204	-21.22
206.424	-47.98
206.644	-32.39
206.864	-90.94
207.084	-41.57
207.304	-42.71
207.525	-20.56
207.745	-1.29
207.964	19.93
208.184	23.11
208.404	23.95
208.624	19.64
208.844	32.08
209.064	27.14
209.284	26.64
209.504	28.55
209.724	28.47
209.944	22.93
210.164	19.6
210.384	22.25
210.604	27.2
210.823	-14.08
211.043	-27.08
211.263	-90.58
211.483	-85.04
211.703	-49.44
211.922	-54.43
212.142	-42.59
212.362	2.61
212.582	24.71
212.801	31.53
213.021	23.09
213.241	-0.35
213.461	-19.47
213.68	-8.25
213.9	-9.19
214.12	-3.36
214.339	6.91
214.559	13.74
214.779	20.71
214.998	-14.33
215.218	0.78
215.438	6.42
215.657	8.33
215.877	-3.98
216.096	27.67
216.316	35.59
216.535	36.86
216.755	41.59
216.974	30.87
217.194	9.18
217.413	1.66
217.633	-7.03
217.852	-25.76
218.072	-5.88
218.291	-16.22
218.511	-20.06
218.73	-12.89
218.95	-16.09
219.169	-35.91
219.389	-8.58
219.608	-13.44
219.827	-21.82
220.047	-13.27
220.266	-44.23
220.485	-66.04
220.705	-46.94
220.924	-49.51
221.143	3.89
221.363	17.87
221.582	26.4
221.801	19.63
222.021	32.38
222.24	23.7
222.459	54.5
222.678	47.45
222.897	50.41
223.117	48.26
223.336	41.86
223.555	22.69
223.774	30.17
223.993	44.62
224.213	35.41
224.432	24.92
224.651	28.17
224.87	32.96
225.089	23.74
225.308	29.9
225.527	37.37
225.746	39.06
225.965	24.88
226.184	4.78
226.404	-8.25
226.623	-18.06
226.842	-13.99
227.061	-12.73
227.28	0.95
227.499	8.08
227.718	24.16
227.936	21.33
228.155	19.35
228.374	21.59
228.593	22.98
228.812	1.55
229.031	13.02
229.25	-7.83
229.469	-5.39
229.688	-4.41
229.907	21.96
230.125	2.28
230.344	15.28
230.563	13.66
230.782	7.17
231.001	-5.73
231.22	3.05
231.438	20.13
231.657	25.73
231.876	16.59
232.095	10.51
232.313	1.23
232.532	-10.21
232.751	-20.83
232.969	-6.69
233.188	-5.68
233.407	7.65
233.625	17.1
233.844	27.34
234.063	24.14
234.281	16.92
234.5	18.25
234.719	19.79
234.937	0.35
235.156	28.77
235.374	44.38
235.593	36.52
235.811	42.47
236.03	39.13
236.249	26.49
236.467	28.66
236.686	29.86
236.904	16.17
237.123	15.17
237.341	14.16
237.559	13.44
237.778	18.96
237.996	-0.68
238.215	-53.77
238.433	-98.7
238.652	-51.86
238.87	-69.51
239.088	-47.54
239.307	-8.35
239.525	4.5
239.743	-1.46
239.962	-2.36
240.18	-4.04
240.398	-12.39
240.617	-32.62
240.835	-31.98
241.053	-6.86
241.271	7.54
241.49	27.2
241.708	25.28
241.926	21.76
242.144	25.94
242.363	-7.49
242.581	-67.42
242.799	-34.89
243.017	-13.57
243.235	-10.44
243.453	-2.57
243.672	29.54
243.89	10.58
244.108	6.03
244.326	11.57
244.544	19.12
244.762	0.59
244.98	16.75
245.198	18.23
245.416	15.46
245.634	13.78
245.852	10.31
246.07	20.68
246.288	14.58
246.506	-5.31
246.724	-4.32
246.942	14.05
247.16	0.11
247.378	-16.06
247.596	27.17
247.814	29.77
248.032	11.71
248.25	18.33
248.468	26.73
248.685	20.85
248.903	13.43
249.121	12.95
249.339	8.58
249.557	2.78
249.775	0.92
249.992	2.64
250.21	-6.2
250.428	-2.58
250.646	9.88
250.863	-2.04
251.081	17.56
251.299	42.03
251.517	47.92
251.734	37.28
251.952	46.28
252.17	35.02
252.387	12.85
252.605	9.1
252.823	2
253.04	9.76
253.258	10.77
253.475	26.29
253.693	22.63
253.911	17.31
254.128	3.87
254.346	10.26
254.563	9.38
254.781	4.19
254.998	2.15
255.216	-5.29
255.433	-42.11
255.651	-46.94
255.868	-39.89
256.086	-17.54
256.303	-3.54
256.521	18.93
256.738	21.57
256.956	7.15
257.173	1.32
257.39	9.83
257.608	-3.96
257.825	-14.81
258.043	17.68
258.26	12.02
258.477	7.61
258.695	26.65
258.912	35.79
259.129	27.9
259.346	33.92
259.564	15.86
259.781	-5.84
259.998	16.41
260.216	16.43
260.433	9.01
260.65	17.6
260.867	14.15
261.084	6.31
261.302	5.95
261.519	25.48
261.736	17.18
261.953	7.76
262.17	23.31
262.387	5.82
262.604	10.77
262.822	28.22
263.039	30.66
263.256	16.71
263.473	20.32
263.69	7.33
263.907	1.72
264.124	7.53
264.341	27.94
264.558	14.32
264.775	32.37
264.992	31.57
265.209	28.99
265.426	12.3
265.643	51.02
265.86	49.52
266.077	19.95
266.294	18.64
266.51	35.8
266.727	23.08
266.944	42.26
267.161	52.67
267.378	54.31
267.595	50.58
267.812	41.16
268.028	10.35
268.245	-6.74
268.462	-2.03
268.679	11.02
268.896	22.87
269.112	16.32
269.329	-3.31
269.546	16.42
269.763	0.3
269.979	6.59
270.196	20.33
270.413	39.04
270.629	17.56
270.846	16.97
271.063	14.86
271.279	10.76
271.496	-2.11
271.712	4.17
271.929	6.13
272.146	8.88
272.362	8.55
272.579	2.37
272.795	-0.84
273.012	0.37
273.228	4.39
273.445	5.11
273.661	15.53
273.878	10.47
274.094	5.45
274.311	6.43
274.527	-22.02
274.744	-9.98
274.96	-3.71
275.177	-10.37
275.393	-3.27
275.609	22.05
275.826	11.86
276.042	13.45
276.259	29.11
276.475	12.65
276.691	6.62
276.908	10.11
277.124	18.05
277.34	2.87
277.557	6.44
277.773	-1.8
277.989	-2.71
278.205	-17.11
278.422	-12.2
278.638	3.24
278.854	7.38
279.07	20.07
279.286	23.84
279.503	33.96
279.719	24.88
279.935	13.5
280.151	-1.08
280.367	9.15
280.583	-9.4
280.799	-2.63
281.016	-16.53
281.232	8.74
281.448	0.14
281.664	0.94
281.88	11.17
282.096	30.37
282.312	22.16
282.528	19.72
282.744	22
282.96	-4.5
283.176	-50.2
283.392	-103.16
283.608	-84.55
283.824	-104.46
284.04	-139.4
284.256	-65.73
284.471	-33.67
284.687	-28.46
284.903	-7.81
285.119	19.47
285.335	31.7
285.551	33.58
285.767	31.96
285.982	22.06
286.198	15.4
286.414	8.74
286.63	1.82
286.846	-8.25
287.061	9.7
287.277	-4.61
287.493	-3.54
287.709	12.23
287.924	29.8
288.14	41.28
288.356	49.31
288.571	37.12
288.787	23.08
289.003	23.77
289.218	-4.93
289.434	-25.84
289.65	-9.17
289.865	8.66
290.081	-5.12
290.296	13.05
290.512	8.05
290.727	4.61
290.943	0.79
291.159	12.3
291.374	-20.02
291.59	-9.66
291.805	-19.13
292.021	-32.64
292.236	-38.76
292.451	-8.04
292.667	-4.46
292.882	16.8
293.098	36.16
293.313	15.98
293.529	16.41
293.744	9.28
293.959	-0.6
294.175	-11.8
294.39	-6.24
294.605	-2.06
294.821	5.95
295.036	-1.02
295.251	14.11
295.467	3.86
295.682	4.51
295.897	-3.3
296.112	3.67
296.328	0.23
296.543	0.76
296.758	-2.27
296.973	1.94
297.188	-7.51
297.404	-33.71
297.619	-31.29
297.834	-42.67
298.049	-27.52
298.264	-5.11
298.479	-4.95
298.694	21.92
298.909	31.57
299.125	29.23
299.34	18.93
299.555	30.81
299.77	32.03
299.985	16.48
300.2	18.66
300.415	26.88
300.63	28.11
300.845	24.76
301.06	31.28
301.275	25.61
301.49	22.91
301.704	11.27
301.919	0.11
302.134	-2.35
302.349	7.01
302.564	2.04
302.779	2.25
302.994	13.63
303.209	19.53
303.423	21.5
303.638	35.43
303.853	18.02
304.068	-2.12
304.283	10.1
304.497	-7.31
304.712	-4.88
304.927	6.9
305.142	13.04
305.356	1.62
305.571	5.83
305.786	7.22
306	29.34
306.215	29.23
306.43	38.55
306.644	17.62
306.859	-8.19
307.074	-17.83
307.288	-9.42
307.503	6.15
307.717	6.35
307.932	24.65
308.147	14.74
308.361	17.06
308.576	-2.37
308.79	22.47
309.005	-0.87
309.219	24.89
309.434	20.09
309.648	22.35
309.863	9.13
310.077	27.12
310.292	30.16
310.506	30.74
310.72	34.84
310.935	52.66
311.149	44.58
311.364	30.77
311.578	37.72
311.792	37.25
312.007	8.61
312.221	-21.36
312.435	-12.59
312.649	8.49
312.864	-14.45
313.078	-8.54
313.292	14.62
313.507	21.83
313.721	3.01
313.935	30.36
314.149	30.71
314.363	29.07
314.578	24.53
314.792	1.48
315.006	-14.5
315.22	-6.28
315.434	-13.15
315.648	-17.86
315.862	2.15
316.077	-1.53
316.291	-3.23
316.505	-18.67
316.719	-13.15
316.933	-8.81
317.147	-10.04
317.361	-23.85
317.575	-3.71
317.789	1.38
318.003	-2.55
318.217	8.05
318.431	13.87
318.645	-4.34
318.859	5.22
319.073	10.83
319.287	7.46
319.5	8.38
319.714	12.33
319.928	-0.16
320.142	-2.96
320.356	11.13
320.57	1.62
320.784	8.78
320.997	1.2
321.211	12.33
321.425	-12.6
321.639	1.31
321.853	10.01
322.066	9.94
322.28	-2.21
322.494	-0.43
322.707	-0.32
322.921	-4.06
323.135	9.55
323.349	11.17
323.562	25.02
323.776	19.32
323.989	15.52
324.203	-0.67
324.417	-4.63
324.63	-13.94
324.844	-9.96
325.057	-23.41
325.271	-12.89
325.485	-22.83
325.698	-12.32
325.912	4.95
326.125	-1.87
326.339	6.17
326.552	12.87
326.766	11.49
326.979	6.57
327.193	12.87
327.406	5.42
327.619	15.43
327.833	13
328.046	12.16
328.26	13.03
328.473	27.3
328.686	25.21
328.9	18.09
329.113	7.94
329.326	9.05
329.54	10.05
329.753	15.53
329.966	14.67
330.179	10.49
330.393	16.64
330.606	2.17
330.819	-1.39
331.032	6.37
331.246	16.13
331.459	25.78
331.672	33.61
331.885	18.67
332.098	16.2
332.311	21.25
332.525	8.27
332.738	5.11
332.951	9.82
333.164	20.58
333.377	22.69
333.59	15.33
333.803	19.43
334.016	28.36
334.229	19.1
334.442	17.02
334.655	14.26
334.868	2.94
335.081	-8.08
335.294	-19.49
335.507	-12.45
335.72	-5.36
335.933	5.75
336.146	9.21
336.359	22.85
336.572	16.31
336.785	28.24
336.997	33.4
337.21	14.99
337.423	-3.71
337.636	-2.74
337.849	-5.62
338.062	5.33
338.274	29.84
338.487	18.23
338.7	2.38
338.913	0.84
339.125	-22.81
339.338	-33.54
339.551	-17.43
339.763	-5.1
339.976	-11.2
340.189	-7.84
340.402	20.01
340.614	21.44
340.827	14.18
341.039	20.01
341.252	26.19
341.465	-2.68
341.677	-2.36
341.89	1.59
342.102	14.79
342.315	9.75
342.527	27
342.74	7.67
342.952	3.04
343.165	-10.83
343.377	1.87
343.59	-7.13
343.802	9.84
344.015	21.08
344.227	32.98
344.44	23.01
344.652	20.24
344.864	16.91
345.077	25.71
345.289	17.29
345.502	37.8
345.714	45.96
345.926	60.58
346.139	46.02
346.351	39.48
346.563	32.02
346.775	19.36
346.988	27.07
347.2	22.82
347.412	36.96
347.624	29.62
347.837	32.78
348.049	8.77
348.261	4.17
348.473	-16.39
348.685	-21.04
348.897	-12.74
349.11	-6.74
349.322	7.31
349.534	10.16
349.746	14.83
349.958	-5.1
350.17	-4.18
350.382	-8.08
350.594	2.32
350.806	1.15
351.018	19.65
351.23	19.93
351.442	16.45
351.654	20.29
351.866	10.25
352.078	3.34
352.29	5.89
352.502	17.99
352.714	8.66
352.926	8.74
353.138	22.12
353.35	10.69
353.561	5.9
353.773	2.31
353.985	17.24
354.197	7.84
354.409	11.19
354.621	-0.63
354.832	-3.84
355.044	-23.74
355.256	-30.15
355.468	-54.79
355.679	-11.37
355.891	-9.76
356.103	-6.08
356.314	-16.04
356.526	-16.08
356.738	-34.34
356.949	-25.48
357.161	-18.4
357.373	-1.64
357.584	16.63
357.796	15.76
358.008	12.66
358.219	2.25
358.431	2.03
358.642	-3.4
358.854	1.4
359.065	1.04
359.277	12.43
359.488	10.15
359.7	9.55
359.911	0.37
360.123	8.41
360.334	-3.88
360.546	-10.35
360.757	-1.05
360.969	13.54
361.18	19.61
361.391	22.79
361.603	26.62
361.814	16.97
362.025	14.38
362.237	11.46
362.448	14.26
362.659	7.42
362.871	-9.22
363.082	-16.51
363.293	-42.65
363.504	-60.88
363.716	-44.62
363.927	-5.39
364.138	-22.2
364.349	-20.55
364.56	-12.85
364.772	-9.86
364.983	-5.59
365.194	-3.55
365.405	-6.21
365.616	8.13
365.827	-7.79
366.038	-20.11
366.25	-4.88
366.461	9.78
366.672	2.6
366.883	7.29
367.094	1.29
367.305	-11.71
367.516	-8.67
367.727	-20.21
367.938	-18.04
368.149	-10.31
368.36	-11.25
368.571	-23.21
368.781	-27.79
368.992	-26.38
369.203	-21.17
369.414	-16.66
369.625	4.3
369.836	35.59
370.047	42.62
370.258	45.74
370.468	45.81
370.679	26
370.89	3.25
371.101	5.27
371.312	-13.22
371.522	-18.41
371.733	-9.24
371.944	-11.91
372.155	-26.95
372.365	-13.54
372.576	-7.09
372.787	-5.74
372.997	-9.05
373.208	5.4
373.419	-1.93
373.629	-13.52
373.84	-12.1
374.05	-8.77
374.261	-21.66
374.472	-10.25
374.682	5.4
374.893	4.99
375.103	20.89
375.314	27.97
375.524	21.18
375.735	26.91
375.945	25.1
376.156	14.21
376.366	18.84
376.577	28.17
376.787	17.94
376.997	25.23
377.208	24.72
377.418	16.17
377.629	13.9
377.839	13.68
378.049	6.19
378.26	-1.28
378.47	-1.77
378.68	2.08
378.89	1.4
379.101	-4.23
379.311	-1.53
379.521	-3.56
379.732	-5.16
379.942	-4.16
380.152	-5.49
380.362	-6.01
380.572	-0.23
380.783	4.25
380.993	12.35
381.203	8.78
381.413	13.94
381.623	21.86
381.833	17.24
382.043	6.72
382.253	13.76
382.463	19.86
382.674	17.34
382.884	21.7
383.094	24.02
383.304	22.13
383.514	11.97
383.724	6.65
383.934	-11.24
384.144	-2.78
384.353	2.4
384.563	3.65
384.773	6.97
384.983	9.37
385.193	6.11
385.403	-1.87
385.613	-3.57
385.823	-4.08
386.033	3.39
386.242	2.21
386.452	5.19
386.662	11.51
386.872	9.85
387.082	7.46
387.291	1.55
387.501	5.41
387.711	4.41
387.921	3.19
388.13	6.73
388.34	12.39
388.55	11.05
388.759	6.07
388.969	10.15
389.179	9.05
389.388	5.76
389.598	-1.1
389.807	-2.4
390.017	-3.35
390.227	-5.03
390.436	-3.69
390.646	-0.93
390.855	3.62
391.065	1.32
391.274	2.31
391.484	3.56
391.693	6.01
391.903	5.59
392.112	5.54
392.322	5.3
392.531	5.38
392.74	3.99
392.95	3.02
393.159	4.18
393.369	5.07
393.578	3.81
393.787	2.77
393.997	4.3
394.206	3.5
394.415	4.88
394.625	4.2
394.834	4.21
395.043	4.2
395.252	6.2
395.462	3.58
395.671	4.65
395.88	7.26
396.089	6.46
396.298	5.58
396.508	6.62
396.717	6.8
396.926	4.6
397.135	5.13
397.344	4.74
397.553	4.37
397.762	4.95
397.971	5.2
398.181	5.45
398.39	5.25
398.599	5.8
398.808	5.81
399.017	7.2
399.226	6.91
399.435	6.64
399.644	6.97
399.853	6.87
400.062	6.08
400.27	5.64
400.479	6.17
400.688	6.07
400.897	5.73
401.106	6.09
401.315	6.24
401.524	6.26
401.733	5.94
401.941	6.39
402.15	6.14
402.359	6.24
402.568	6.2
402.777	6.43
402.985	6.16
403.194	5.94
403.403	6
403.612	5.69
403.82	5.45
404.029	5.21
404.238	5.19
404.446	5.32
404.655	5.5
404.864	5.48
405.072	5.6
405.281	5.7
405.489	5.54
405.698	5.72
405.906	5.93
406.115	6.04
406.324	6.01
406.532	6.01
406.741	5.87
406.949	5.71
407.158	5.74
407.366	5.57
407.574	5.59
407.783	5.59
407.991	5.6
408.2	5.61
408.408	5.65
408.617	5.58
408.825	5.39
409.033	5.31
409.242	5.28
409.45	5.4
409.658	5.27
409.867	5.3
410.075	5.45
410.283	5.35
410.491	5.28
410.7	5.27
410.908	5.43
411.116	5.33
411.324	5.33
411.533	5.32
411.741	5.4
411.949	5.39
412.157	5.32
412.365	5.33
412.573	5.3
412.781	5.24
412.99	5.15
413.198	5.25
413.406	5.34
413.614	5.33
413.822	5.53
414.03	5.61
414.238	5.56
414.446	5.52
414.654	5.45
414.862	5.3
415.07	5.14
415.278	5.21
415.486	5.03
415.694	5.19
415.902	5.14
416.109	5.14
416.317	5.13
416.525	5.13
416.733	4.94
416.941	5.14
417.149	5
417.357	4.97
417.564	5.04
417.772	5.1
417.98	4.92
418.188	4.97
418.395	4.7
418.603	4.51
418.811	4.43
419.019	4.38
419.226	4.72
419.434	4.9
419.642	4.89
419.849	4.86
420.057	4.99
420.265	4.78
420.472	4.73
420.68	4.83
420.887	4.85
421.095	4.82
421.302	4.86
421.51	4.81
421.717	4.83
421.925	4.96
422.132	5.06
422.34	4.75
422.547	4.78
422.755	4.81
422.962	4.72
423.17	4.46
423.377	4.45
423.585	4.54
423.792	4.37
423.999	4.24
424.207	4.15
424.414	4.36
424.621	4.17
424.829	4.37
425.036	4.36
425.243	4.67
425.451	4.69
425.658	4.82
425.865	4.75
426.072	4.83
426.28	4.75
426.487	4.78
426.694	4.72
426.901	4.83
427.108	4.86
427.315	4.79
427.523	4.52
427.73	4.51
427.937	4.26
428.144	4.23
428.351	4.18
428.558	4.31
428.765	4.37
428.972	4.51
429.179	4.44
429.386	4.51
429.593	4.55
429.8	4.5
430.007	4.6
430.214	4.83
430.421	4.91
430.628	4.92
430.835	4.97
431.042	4.86
431.249	4.78
431.456	4.76
431.662	4.9
431.869	5.2
432.076	5.29
432.283	5.45
432.49	5.48
432.697	5.37
432.903	5.06
433.11	5.17
433.317	5.04
433.524	5.05
433.73	5.05
433.937	5.24
434.144	5.09
434.35	5
434.557	5.03
434.764	5.08
434.97	4.97
435.177	5.16
435.384	5.22
435.59	5.12
435.797	5.12
436.003	5.16
436.21	4.97
436.416	5.03
436.623	5.21
436.829	5.25
437.036	5.19
437.242	5.34
437.449	5.38
437.655	5.4
437.862	5.46
438.068	5.48
438.275	5.47
438.481	5.48
438.687	5.35
438.894	5.45
439.1	5.49
439.307	5.5
439.513	5.64
439.719	5.67
439.926	5.62
440.132	5.74
440.338	5.73
440.544	5.6
440.751	5.56
440.957	5.6
441.163	5.51
441.369	5.55
441.575	5.47
441.782	5.67
441.988	5.65
442.194	5.65
442.4	5.67
442.606	5.91
442.812	5.87
443.018	5.82
443.224	5.89
443.431	5.95
443.637	5.9
443.843	5.94
444.049	5.97
444.255	6.03
444.461	5.9
444.667	5.84
444.873	5.78
445.079	5.79
445.284	5.79
445.49	5.84
445.696	5.82
445.902	5.81
446.108	5.84
446.314	5.88
446.52	6.04
446.726	6.22
446.931	6.23
447.137	6.21
447.343	6.21
447.549	6.16
447.755	5.98
447.96	6
448.166	6.02
448.372	6.03
448.578	5.91
448.783	6.02
448.989	6.1
449.195	6.11
449.4	6.11
449.606	6.15
449.812	6.05
450.017	6.05
450.223	6.01
450.428	5.95
450.634	5.92
450.84	5.94
451.045	5.86
451.251	6.03
451.456	6.05
451.662	6.22
451.867	6.32
452.073	6.44
452.278	6.4
452.483	6.5
452.689	6.44
452.894	6.53
453.1	6.58
453.305	6.54
453.51	6.54
453.716	6.49
453.921	6.44
454.127	6.41
454.332	6.37
454.537	6.33
454.742	6.42
454.948	6.44
455.153	6.42
455.358	6.46
455.563	6.56
455.769	6.58
455.974	6.56
456.179	6.59
456.384	6.46
456.589	6.34
456.795	6.34
457	6.34
457.205	6.3
457.41	6.5
457.615	6.54
457.82	6.59
458.025	6.6
458.23	6.59
458.435	6.56
458.64	6.6
458.845	6.64
459.05	6.68
459.255	6.78
459.46	6.8
459.665	6.83
459.87	6.77
460.075	6.71
460.28	6.74
460.485	6.93
460.69	6.87
460.895	6.94
461.099	6.93
461.304	6.86
461.509	6.79
461.714	6.85
461.919	6.85
462.123	6.87
462.328	6.84
462.533	6.66
462.738	6.62
462.942	6.53
463.147	6.6
463.352	6.62
463.556	6.78
463.761	6.72
463.966	6.8
464.17	6.85
464.375	6.95
464.58	6.94
464.784	7.03
464.989	7.04
465.193	7
465.398	7.04
465.602	7.16
465.807	7.31
466.011	7.38
466.216	7.33
466.42	7.26
466.625	7.29
466.829	7.15
467.034	7.16
467.238	7.25
467.443	7.25
467.647	7.16
467.851	7.31
468.056	7.33
468.26	7.36
468.464	7.36
468.669	7.39
468.873	7.33
469.077	7.29
469.282	7.24
469.486	7.31
469.69	7.32
469.894	7.36
470.099	7.43
470.303	7.56
470.507	7.57
470.711	7.57
470.915	7.66
471.119	7.66
471.324	7.66
471.528	7.63
471.732	7.75
471.936	7.73
472.14	7.7
472.344	7.78
472.548	7.88
472.752	7.75
472.956	7.67
473.16	7.71
473.364	7.61
473.568	7.55
473.772	7.52
473.976	7.59
474.18	7.63
474.384	7.6
474.588	7.64
474.792	7.74
474.995	7.7
475.199	7.71
475.403	7.81
475.607	7.82
475.811	7.79
476.015	7.76
476.218	7.71
476.422	7.73
476.626	7.74
476.83	7.89
477.033	7.92
477.237	7.94
477.441	7.85
477.644	7.88
477.848	7.81
478.052	7.88
478.255	7.87
478.459	7.94
478.663	7.99
478.866	8.04
479.07	7.96
479.273	8.03
479.477	7.98
479.681	7.9
479.884	7.81
480.088	7.87
480.291	7.87
480.495	7.94
480.698	8.01
480.901	8.04
481.105	8.08
481.308	8.07
481.512	8.06
481.715	8.09
481.919	8.13
482.122	8.09
482.325	8.12
482.529	8.12
482.732	8.01
482.935	8.04
483.138	8.03
483.342	7.96
483.545	8.09
483.748	8.2
483.952	8.22
484.155	8.27
484.358	8.29
484.561	8.16
484.764	8.14
484.967	8.12
485.171	8.1
485.374	8.07
485.577	8.04
485.78	8
485.983	7.95
486.186	7.93
486.389	7.99
486.592	8.03
486.795	8.02
486.998	7.93
487.201	8.04
487.404	8.1
487.607	8.15
487.81	8.15
488.013	8.28
488.216	8.14
488.419	8.05
488.622	7.97
488.825	8
489.028	7.99
489.231	8.1
489.433	8.16
489.636	8.16
489.839	8.21
490.042	8.19
490.245	8.1
490.447	8.02
490.65	8.05
490.853	8.01
491.056	8.08
491.258	8.1
491.461	8.09
491.664	8.09
491.866	8.02
492.069	8.03
492.272	7.97
492.474	8.02
492.677	8.01
492.879	8.03
493.082	7.99
493.285	8.09
493.487	8.05
493.69	8
493.892	7.95
494.095	7.94
494.297	7.93
494.5	7.87
494.702	7.94
494.905	8.07
495.107	8.06
495.309	8.14
495.512	8.17
495.714	8.19
495.917	8.19
496.119	8.21
496.321	8.12
496.524	8.09
496.726	8.01
496.928	8
497.13	7.98
497.333	7.96
497.535	8.05
497.737	8.07
497.939	8.03
498.142	7.99
498.344	8.01
498.546	7.94
498.748	8
498.95	8.06
499.152	8.05
499.355	8.06
499.557	8.16
499.759	8.19
499.961	8.15
500.163	8.2
500.365	8.26
500.567	8.2
500.769	8.09
500.971	8.05
501.173	7.99
501.375	8.02
501.577	7.99
501.779	8.04
501.981	8.06
502.183	8.09
502.385	8.01
502.587	8.05
502.788	8.08
502.99	8.1
503.192	8.18
503.394	8.24
503.596	8.25
503.798	8.12
503.999	8.21
504.201	8.09
504.403	8.04
504.605	8.09
504.806	8.13
505.008	8.11
505.21	8.15
505.411	8.16
505.613	8.06
505.815	8.13
506.016	8.15
506.218	8.18
506.42	8.15
506.621	8.27
506.823	8.26
507.024	8.17
507.226	8.18
507.427	8.26
507.629	8.2
507.83	8.2
508.032	8.23
508.233	8.25
508.435	8.19
508.636	8.25
508.838	8.28
509.039	8.32
509.24	8.32
509.442	8.36
509.643	8.36
509.845	8.34
510.046	8.38
510.247	8.39
510.448	8.36
510.65	8.34
510.851	8.3
511.052	8.31
511.254	8.36
511.455	8.38
511.656	8.39
511.857	8.47
512.058	8.4
512.26	8.38
512.461	8.4
512.662	8.42
512.863	8.31
513.064	8.32
513.265	8.28
513.466	8.29
513.667	8.33
513.868	8.33
514.069	8.36
514.27	8.4
514.471	8.39
514.672	8.34
514.873	8.38
515.074	8.42
515.275	8.39
515.476	8.38
515.677	8.42
515.878	8.47
516.079	8.43
516.28	8.47
516.481	8.46
516.682	8.43
516.882	8.4
517.083	8.41
517.284	8.42
517.485	8.48
517.686	8.55
517.886	8.59
518.087	8.57
518.288	8.55
518.488	8.53
518.689	8.49
518.89	8.46
519.091	8.52
519.291	8.5
519.492	8.49
519.692	8.47
519.893	8.57
520.094	8.5
520.294	8.49
520.495	8.5
520.695	8.52
520.896	8.43
521.096	8.48
521.297	8.54
521.497	8.56
521.698	8.55
521.898	8.59
522.099	8.57
522.299	8.55
522.499	8.55
522.7	8.53
522.9	8.55
523.101	8.53
523.301	8.49
523.501	8.48
523.702	8.54
523.902	8.54
524.102	8.67
524.302	8.75
524.503	8.72
524.703	8.65
524.903	8.61
525.103	8.51
525.304	8.48
525.504	8.56
525.704	8.62
525.904	8.62
526.104	8.64
526.304	8.65
526.504	8.65
526.705	8.66
526.905	8.68
527.105	8.68
527.305	8.68
527.505	8.64
527.705	8.6
527.905	8.65
528.105	8.62
528.305	8.63
528.505	8.72
528.705	8.81
528.905	8.81
529.105	8.88
529.304	8.89
529.504	8.87
529.704	8.8
529.904	8.78
530.104	8.77
530.304	8.76
530.503	8.78
530.703	8.81
530.903	8.81
531.103	8.84
531.303	8.86
531.502	8.91
531.702	8.89
531.902	8.97
532.101	8.9
532.301	8.91
532.501	8.95
532.7	8.99
532.9	8.99
533.1	9.1
533.299	9.09
533.499	9
533.698	9.01
533.898	9.04
534.097	8.99
534.297	8.98
534.496	8.91
534.696	8.94
534.895	8.92
535.095	8.96
535.294	9.05
535.494	9.16
535.693	9.16
535.892	9.14
536.092	9.11
536.291	9.1
536.491	9.13
536.69	9.14
536.889	9.12
537.088	9.11
537.288	9.11
537.487	9.1
537.686	9.08
537.886	9.12
538.085	9.16
538.284	9.19
538.483	9.18
538.682	9.21
538.882	9.24
539.081	9.31
539.28	9.33
539.479	9.35
539.678	9.41
539.877	9.39
540.076	9.36
540.275	9.36
540.474	9.35
540.673	9.35
540.872	9.41
541.071	9.42
541.27	9.47
541.469	9.53
541.668	9.54
541.867	9.56
542.066	9.62
542.265	9.66
542.464	9.67
542.663	9.79
542.862	9.89
543.06	9.98
543.259	10.08
543.458	10.15
543.657	10.12
543.856	10.16
544.054	10.1
544.253	10.03
544.452	10.03
544.651	10.07
544.849	10
545.048	10.06
545.247	10.14
545.445	10.13
545.644	10.11
545.843	10.16
546.041	10.13
546.24	10.11
546.438	10.11
546.637	10.15
546.836	10.15
547.034	10.18
547.233	10.21
547.431	10.31
547.63	10.34
547.828	10.36
548.027	10.39
548.225	10.43
548.423	10.42
548.622	10.52
548.82	10.58
549.019	10.63
549.217	10.7
549.415	10.77
549.614	10.86
549.812	10.84
550.01	10.88
550.209	10.94
550.407	11.02
550.605	10.96
550.803	11.01
551.002	11.06
551.2	11.04
551.398	11.08
551.596	11.09
551.794	11.21
551.993	11.24
552.191	11.37
552.389	11.39
552.587	11.5
552.785	11.55
552.983	11.62
553.181	11.69
553.379	11.76
553.577	11.83
553.775	11.95
553.973	12.05
554.171	12.05
554.369	12.05
554.567	12.09
554.765	12.07
554.963	12.11
555.161	12.2
555.359	12.28
555.557	12.29
555.755	12.37
555.952	12.46
556.15	12.54
556.348	12.57
556.546	12.69
556.744	12.73
556.941	12.78
557.139	12.8
557.337	12.93
557.535	13.01
557.732	13.09
557.93	13.09
558.128	13.21
558.325	13.3
558.523	13.39
558.721	13.49
558.918	13.65
559.116	13.7
559.313	13.77
559.511	13.82
559.708	13.82
559.906	13.84
560.104	13.92
560.301	14.02
560.498	14.08
560.696	14.26
560.893	14.36
561.091	14.38
561.288	14.48
561.486	14.52
561.683	14.55
561.88	14.62
562.078	14.71
562.275	14.73
562.473	14.78
562.67	14.83
562.867	14.9
563.064	14.99
563.262	15.07
563.459	15.24
563.656	15.35
563.853	15.3
564.051	15.38
564.248	15.4
564.445	15.4
564.642	15.4
564.839	15.56
565.036	15.66
565.234	15.82
565.431	15.91
565.628	16
565.825	16.03
566.022	16.12
566.219	16.09
566.416	16.12
566.613	16.25
566.81	16.33
567.007	16.27
567.204	16.37
567.401	16.43
567.598	16.53
567.795	16.59
567.991	16.71
568.188	16.71
568.385	16.79
568.582	16.78
568.779	16.87
568.976	16.96
569.172	17.08
569.369	17.12
569.566	17.11
569.763	17.1
569.96	17.14
570.156	17.08
570.353	17.14
570.55	17.19
570.746	17.25
570.943	17.26
571.14	17.35
571.336	17.28
571.533	17.28
571.729	17.3
571.926	17.38
572.123	17.48
572.319	17.61
572.516	17.64
572.712	17.63
572.909	17.52
573.105	17.48
573.302	17.49
573.498	17.45
573.695	17.5
573.891	17.52
574.087	17.47
574.284	17.45
574.48	17.65
574.677	17.72
574.873	17.81
575.069	17.95
575.266	17.99
575.462	17.95
575.658	17.97
575.854	17.99
576.051	18
576.247	17.94
576.443	17.91
576.639	17.87
576.835	17.85
577.032	17.75
577.228	17.88
577.424	17.85
577.62	17.81
577.816	17.75
578.012	17.75
578.208	17.69
578.404	17.67
578.6	17.75
578.796	17.82
578.993	17.87
579.189	17.94
579.384	17.96
579.58	17.88
579.776	17.85
579.972	17.83
580.168	17.72
580.364	17.75
580.56	17.73
580.756	17.71
580.952	17.67
581.148	17.66
581.343	17.65
581.539	17.76
581.735	17.77
581.931	17.64
582.127	17.63
582.322	17.59
582.518	17.46
582.714	17.47
582.909	17.52
583.105	17.45
583.301	17.43
583.496	17.45
583.692	17.31
583.888	17.33
584.083	17.29
584.279	17.22
584.474	17.15
584.67	17.19
584.866	17.16
585.061	17.23
585.257	17.26
585.452	17.34
585.648	17.34
585.843	17.35
586.039	17.3
586.234	17.27
586.429	17.23
586.625	17.28
586.82	17.35
587.015	17.32
587.211	17.37
587.406	17.29
587.601	17.16
587.797	17.07
587.992	17.01
588.187	16.95
588.383	17.05
588.578	17.17
588.773	17.17
588.968	17.19
589.163	17.22
589.359	17.17
589.554	17.13
589.749	17.14
589.944	17.19
590.139	17.23
590.334	17.33
590.529	17.32
590.724	17.39
590.919	17.45
591.114	17.5
591.309	17.41
591.504	17.42
591.699	17.48
591.894	17.45
592.089	17.44
592.284	17.51
592.479	17.61
592.674	17.6
592.869	17.7
593.064	17.77
593.259	17.81
593.454	17.78
593.648	17.8
593.843	17.78
594.038	17.85
594.233	17.88
594.428	17.91
594.622	17.98
594.817	18.07
595.012	18
595.206	18.04
595.401	18.19
595.596	18.2
595.79	18.2
595.985	18.25
596.18	18.34
596.374	18.36
596.569	18.42
596.763	18.41
596.958	18.55
597.153	18.57
597.347	18.49
597.542	18.49
597.736	18.63
597.931	18.64
598.125	18.66
598.319	18.78
598.514	18.8
598.708	18.88
598.903	18.91
599.097	18.99
599.291	18.95
599.486	19.09
599.68	19.06
599.874	19.1
600.069	19.18
600.263	19.29
600.457	19.33
600.651	19.37
600.846	19.34
601.04	19.3
601.234	19.31
601.428	19.28
601.622	19.3
601.817	19.44
602.011	19.47
602.205	19.53
602.399	19.5
602.593	19.55
602.787	19.45
602.981	19.41
603.175	19.41
603.369	19.43
603.563	19.44
603.757	19.5
603.951	19.51
604.145	19.47
604.339	19.49
604.533	19.35
604.727	19.32
604.921	19.33
605.115	19.29
605.309	19.22
605.502	19.3
605.696	19.27
605.89	19.33
606.084	19.38
606.278	19.41
606.471	19.36
606.665	19.24
606.859	19.11
607.053	18.95
607.246	18.91
607.44	18.77
607.634	18.79
607.827	18.7
608.021	18.63
608.214	18.53
608.408	18.56
608.602	18.48
608.795	18.54
608.989	18.57
609.182	18.57
609.376	18.49
609.569	18.48
609.763	18.4
609.956	18.25
610.15	18.17
610.343	18.15
610.537	18.04
610.73	17.89
610.923	17.89
611.117	17.9
611.31	17.82
611.504	17.83
611.697	17.78
611.89	17.68
612.083	17.59
612.277	17.6
612.47	17.45
612.663	17.45
612.856	17.42
613.05	17.31
613.243	17.2
613.436	17.17
613.629	17.11
613.822	17.04
614.015	16.97
614.209	16.89
614.402	16.95
614.595	16.91
614.788	16.92
614.981	16.88
615.174	16.75
615.367	16.57
615.56	16.35
615.753	16.31
615.946	16.29
616.139	16.32
616.332	16.35
616.525	16.37
616.718	16.21
616.911	16.2
617.103	16.16
617.296	16.11
617.489	16.04
617.682	16.11
617.875	16.06
618.067	15.96
618.26	15.87
618.453	15.89
618.646	15.81
618.838	15.73
619.031	15.73
619.224	15.72
619.417	15.68
619.609	15.68
619.802	15.62
619.994	15.65
620.187	15.58
620.38	15.56
620.572	15.49
620.765	15.48
620.957	15.45
621.15	15.4
621.342	15.36
621.535	15.36
621.727	15.38
621.92	15.29
622.112	15.36
622.305	15.4
622.497	15.34
622.69	15.27
622.882	15.32
623.074	15.28
623.267	15.2
623.459	15.19
623.651	15.17
623.844	15.16
624.036	15.16
624.228	15.21
624.42	15.19
624.613	15.17
624.805	15.09
624.997	14.95
625.189	14.91
625.381	14.85
625.574	14.86
625.766	14.87
625.958	14.93
626.15	14.91
626.342	14.89
626.534	14.87
626.726	14.89
626.918	14.89
627.11	14.79
627.302	14.82
627.494	14.78
627.686	14.7
627.878	14.64
628.07	14.68
628.262	14.66
628.454	14.6
628.646	14.55
628.838	14.58
629.029	14.49
629.221	14.46
629.413	14.5
629.605	14.41
629.797	14.39
629.989	14.36
630.18	14.41
630.372	14.35
630.564	14.35
630.755	14.33
630.947	14.38
631.139	14.21
631.33	14.19
631.522	14.18
631.714	14.15
631.905	14.1
632.097	14.1
632.289	14.13
632.48	14.11
632.672	14.01
632.863	13.89
633.055	13.95
633.246	13.85
633.438	13.87
633.629	13.9
633.821	13.96
634.012	13.92
634.203	13.94
634.395	13.88
634.586	13.91
634.777	13.88
634.969	13.83
635.16	13.8
635.351	13.74
635.543	13.68
635.734	13.64
635.925	13.65
636.117	13.65
636.308	13.71
636.499	13.7
636.69	13.74
636.881	13.69
637.073	13.73
637.264	13.71
637.455	13.67
637.646	13.66
637.837	13.7
638.028	13.59
638.219	13.59
638.41	13.62
638.601	13.61
638.792	13.54
638.983	13.53
639.174	13.48
639.365	13.4
639.556	13.31
639.747	13.26
639.938	13.36
640.129	13.35
640.32	13.24
640.511	13.25
640.701	13.31
640.892	13.2
641.083	13.19
641.274	13.26
641.465	13.22
641.655	13.18
641.846	13.18
642.037	13.08
642.228	12.99
642.418	13
642.609	12.94
642.8	12.95
642.99	12.98
643.181	13.12
643.372	13.11
643.562	13.06
643.753	12.96
643.943	12.86
644.134	12.67
644.324	12.65
644.515	12.69
644.705	12.74
644.896	12.85
645.086	12.99
645.277	12.93
645.467	12.93
645.658	12.84
645.848	12.79
646.038	12.68
646.229	12.74
646.419	12.65
646.61	12.65
646.8	12.65
646.99	12.68
647.18	12.58
647.371	12.61
647.561	12.52
647.751	12.45
647.941	12.39
648.132	12.33
648.322	12.27
648.512	12.37
648.702	12.4
648.892	12.38
649.082	12.42
649.272	12.38
649.462	12.43
649.653	12.39
649.843	12.41
650.033	12.43
650.223	12.47
650.413	12.4
650.603	12.39
650.793	12.34
650.983	12.39
651.172	12.38
651.362	12.25
651.552	12.21
651.742	12.18
651.932	12.01
652.122	12.03
652.312	12.15
652.502	12.04
652.691	12.05
652.881	12.1
653.071	11.97
653.261	11.82
653.45	11.85
653.64	11.73
653.83	11.71
654.019	11.6
654.209	11.64
654.399	11.57
654.588	11.48
654.778	11.35
654.968	11.34
655.157	11.21
655.347	11.12
655.536	11.02
655.726	10.85
655.915	10.76
656.105	10.74
656.294	10.69
656.484	10.67
656.673	10.69
656.863	10.62
657.052	10.48
657.241	10.38
657.431	10.36
657.62	10.26
657.809	10.08
657.999	10.08
658.188	10.02
658.377	9.88
658.567	9.8
658.756	9.8
658.945	9.66
659.134	9.54
659.324	9.45
659.513	9.35
659.702	9.16
659.891	9.08
660.08	8.97
660.269	8.86
660.458	8.85
660.648	8.92
660.837	8.85
661.026	8.76
661.215	8.69
661.404	8.5
661.593	8.42
661.782	8.29
661.971	8.16
662.16	8.14
662.349	8.16
662.538	8.04
662.726	7.98
662.915	8.04
663.104	7.95
663.293	7.91
663.482	7.84
663.671	7.87
663.86	7.85
664.048	7.88
664.237	7.82
664.426	7.78
664.615	7.68
664.803	7.61
664.992	7.61
665.181	7.59
665.369	7.55
665.558	7.52
665.747	7.57
665.935	7.51
666.124	7.56
666.312	7.63
666.501	7.7
666.69	7.67
666.878	7.63
667.067	7.53
667.255	7.54
667.444	7.62
667.632	7.71
667.82	7.81
668.009	7.8
668.197	7.76
668.386	7.65
668.574	7.63
668.762	7.56
668.951	7.61
669.139	7.63
669.327	7.63
669.516	7.57
669.704	7.65
669.892	7.71
670.08	7.73
670.269	7.85
670.457	7.93
670.645	7.91
670.833	7.99
671.021	8.12
671.21	8.02
671.398	8.1
671.586	8.08
671.774	8.06
671.962	8.02
672.15	8.09
672.338	8.09
672.526	8.19
672.714	8.21
672.902	8.28
673.09	8.4
673.278	8.55
673.466	8.65
673.654	8.77
673.842	8.89
674.03	8.94
674.218	8.97
674.405	8.95
674.593	9.07
674.781	9
674.969	9.12
675.157	9.11
675.344	9.21
675.532	9.23
675.72	9.38
675.908	9.27
676.095	9.32
676.283	9.36
676.471	9.39
676.658	9.46
676.846	9.61
677.033	9.62
677.221	9.7
677.409	9.78
677.596	9.75
677.784	9.87
677.971	9.93
678.159	10.01
678.346	10.1
678.534	10.15
678.721	10.15
678.909	10.32
679.096	10.4
679.283	10.42
679.471	10.58
679.658	10.73
679.846	10.77
680.033	10.94
680.22	10.94
680.408	10.87
680.595	10.93
680.782	11.01
680.969	11.1
681.157	11.28
681.344	11.33
681.531	11.43
681.718	11.5
681.905	11.47
682.093	11.54
682.28	11.76
682.467	11.92
682.654	11.99
682.841	12.23
683.028	12.2
683.215	12.4
683.402	12.28
683.589	12.39
683.776	12.38
683.963	12.63
684.15	12.69
684.337	12.93
684.524	13.09
684.711	13.28
684.898	13.39
685.085	13.41
685.271	13.78
685.458	13.92
685.645	13.78
685.832	13.89
686.019	14.22
686.205	14.25
686.392	14.59
686.579	15.15
686.766	15.4
686.952	15.47
687.139	15.64
687.326	15.68
687.512	15.79
687.699	16.05
687.886	16.32
688.072	16.6
688.259	16.9
688.445	17.31
688.632	17.51
688.818	17.86
689.005	18.12
689.191	18.46
689.378	18.62
689.564	19.12
689.751	19.66
689.937	20.19
690.124	20.66
690.31	20.97
690.496	21.3
690.683	21.6
690.869	21.92
691.055	22.21
691.242	22.8
691.428	23.25
691.614	23.66
691.8	24.17
691.987	24.74
692.173	25.14
692.359	25.74
692.545	26.49
692.731	27.1
692.918	27.42
693.104	28.01
693.29	28.45
693.476	28.81
693.662	29.26
693.848	29.91
694.034	30.6
694.22	31.17
694.406	31.73
694.592	32.34
694.778	32.86
694.964	33.35
695.15	33.95
695.336	34.52
695.522	35.23
695.708	35.97
695.894	36.59
696.08	37.19
696.265	37.96
696.451	38.14
696.637	38.7
696.823	39.26
697.009	39.77
697.194	40.26
697.38	41.16
697.566	41.86
697.751	42.62
697.937	43.52
698.123	44.15
698.308	44.54
698.494	45.26
698.68	45.75
698.865	46.15
699.051	46.69
699.236	47.38
699.422	47.76
699.607	48.32
699.793	49.03
699.978	49.49
700.164	50.14
700.349	50.74
700.535	51.08
700.72	51.48
700.906	52.07
701.091	52.46
701.276	53.13
701.462	54.03
701.647	54.6
701.832	55.09
702.018	55.83
702.203	56.39
702.388	56.61
702.573	56.95
702.759	57.5
702.944	57.49
703.129	57.56
703.314	57.94
703.499	58.52
703.684	59.21
703.87	60
704.055	60.8
704.24	61.34
704.425	61.73
704.61	61.91
704.795	62.37
704.98	62.38
705.165	62.62
705.35	62.88
705.535	63.3
705.72	63.44
705.905	64.09
706.09	64.72
706.275	65
706.459	65.26
706.644	65.82
706.829	66.19
707.014	66.45
707.199	66.95
707.384	66.86
707.568	67.09
707.753	67.41
707.938	67.73
708.123	68.39
708.307	69.17
708.492	69.36
708.677	69.44
708.861	69.71
709.046	69.37
709.231	69.35
709.415	69.72
709.6	69.96
709.784	70.12
709.969	70.75
710.153	71.1
710.338	71.63
710.522	71.88
710.707	71.78
710.891	71.62
711.076	71.82
711.26	71.77
711.445	72.21
711.629	72.74
711.813	73.42
711.998	73.76
712.182	73.81
712.366	74.09
712.551	74.67
712.735	74.58
712.919	75.08
713.103	75.56
713.288	75.6
713.472	75.67
713.656	75.72
713.84	75.78
714.024	75.62
714.208	75.67
714.393	75.62
714.577	75.92
714.761	76.07
714.945	76.52
715.129	76.85
715.313	77.4
715.497	77.6
715.681	77.33
715.865	77.36
716.049	77.42
716.233	77.24
716.417	77.68
716.601	78.58
716.785	79.02
716.968	79.23
717.152	79.61
717.336	79.57
717.52	79.51
717.704	79.43
717.888	79.55
718.071	79.37
718.255	79.71
718.439	79.58
718.622	80.1
718.806	80.22
718.99	80.54
719.174	80.53
719.357	80.68
719.541	80.74
719.724	80.82
719.908	80.61
720.092	80.57
720.275	80.7
720.459	80.41
720.642	80.49
720.826	80.67
721.009	80.66
721.193	80.92
721.376	81.37
721.559	81.78
721.743	81.9
721.926	82.07
722.11	82.05
722.293	81.87
722.476	81.63
722.66	82.19
722.843	82.42
723.026	82.44
723.21	82.44
723.393	82.93
723.576	82.6
723.759	82.48
723.942	82.62
724.126	82.74
724.309	82.05
724.492	82.17
724.675	82.27
724.858	82.59
725.041	83.02
725.224	83.91
725.407	84.13
725.59	84.28
725.774	84.25
725.957	84.28
726.14	83.66
726.322	84.36
726.505	84.59
726.688	84.69
726.871	85.18
727.054	86.4
727.237	85.81
727.42	85.79
727.603	86.13
727.786	85.64
727.968	84.76
728.151	84.94
728.334	85.08
728.517	84.98
728.699	85.1
728.882	85.41
729.065	85
729.248	85.31
729.43	85.76
729.613	85.77
729.796	86.24
729.978	86.88
730.161	86.74
730.343	86.13
730.526	86.18
730.708	86.38
730.891	87.11
731.073	87.96
731.256	88.46
731.438	89.75
731.621	89.4
731.803	89.08
731.986	88.86
732.168	89.18
732.35	88.56
732.533	88.23
732.715	88.05
732.898	87.22
733.08	87.14
733.262	86.31
733.444	86.85
733.627	86.61
733.809	87.68
733.991	87.99
734.173	88.74
734.355	89.13
734.538	89.98
734.72	89.87
734.902	89.62
735.084	89.74
735.266	90.25
735.448	90.37
735.63	90.74
735.812	90.88
735.994	91.14
736.176	91.12
736.358	91.22
736.54	91.41
736.722	91.15
736.904	91.11
737.086	90.21
737.268	91
737.45	90.87
737.632	91.36
737.814	91.19
737.995	91.97
738.177	91.36
738.359	91.4
738.541	91.05
738.723	91.36
738.904	90.67
739.086	90.83
739.268	90.27
739.449	90.6
739.631	90.71
739.813	90.3
739.994	89.67
740.176	89.56
740.358	89.48
740.539	89.32
740.721	90.69
740.902	90.65
741.084	91.71
741.265	91.38
741.447	92.12
741.628	92.06
741.81	92.5
741.991	92.72
742.172	93
742.354	92.85
742.535	92.77
742.717	92.25
742.898	91.67
743.079	92
743.261	91.12
743.442	90.04
743.623	90.79
743.804	90.33
743.986	90.29
744.167	91.01
744.348	91.11
744.529	90.44
744.71	91.04
744.891	90.66
745.073	90.45
745.254	90.86
745.435	90.81
745.616	90.23
745.797	90.54
745.978	91.1
746.159	90.36
746.34	90.88
746.521	91.89
746.702	92.7
746.883	91.38
747.064	92.61
747.245	93.03
747.426	93.24
747.606	92.1
747.787	94.02
747.968	92.99
748.149	92.44
748.33	91.11
748.51	91.4
748.691	90.22
748.872	92.3
749.053	91.64
749.233	92.25
749.414	92.91
749.595	93.54
749.775	92.02
749.956	92.35
750.137	91.92
750.317	90.73
750.498	90.1
750.678	90.14
750.859	89.36
751.04	89.75
751.22	89.82
751.4	89.89
751.581	90.58
751.761	91.32
751.942	92.06
752.122	91.77
752.303	91.82
752.483	91.1
752.663	91.29
752.844	90.75
753.024	91.93
753.204	92.15
753.385	92.78
753.565	91.76
753.745	91.29
753.925	90.57
754.106	90.45
754.286	88.75
754.466	89.78
754.646	89.19
754.826	89.8
755.006	88.78
755.187	90.82
755.367	90.4
755.547	90.72
755.727	90.58
755.907	91.47
756.087	90.66
756.267	89.78
756.447	90.29
756.627	90.47
756.807	90.84
756.987	90.54
757.167	90.29
757.346	89.33
757.526	89.08
757.706	88.5
757.886	89.39
758.066	90.82
758.246	90.68
758.425	89.11
758.605	87.72
758.785	87.1
758.965	87.29
759.144	87.41
759.324	90.24
759.504	91.43
759.683	90.22
759.863	89.6
760.043	90.53
760.222	88.4
760.402	87.65
760.581	89.11
760.761	88.73
760.94	88.65
761.12	88.17
761.299	89.33
761.479	88.91
761.658	88.21
761.838	87.78
762.017	89.2
762.197	86.64
762.376	87.25
762.555	88.73
762.735	88.47
762.914	87.7
763.093	88.1
763.273	86.43
763.452	86.1
763.631	85.47
763.81	84.84
763.99	85.95
764.169	86.89
764.348	85.65
764.527	85.45
764.706	86.05
764.885	87.76
765.064	88.21
765.243	88.21
765.423	88.1
765.602	88.18
765.781	85.91
765.96	85.04
766.139	85.32
766.318	87.27
766.497	85.27
766.676	85.19
766.854	84.94
767.033	84.7
767.212	84.77
767.391	85.71
767.57	87.65
767.749	87.78
767.928	87.74
768.106	85.42
768.285	84.92
768.464	83.15
768.643	82.54
768.821	82.2
769	83.59
769.179	84.68
769.357	85.47
769.536	86.21
769.715	86.52
769.893	86.72
770.072	84.54
770.25	82.93
770.429	81.88
770.607	83.12
770.786	82.29
770.964	83.63
771.143	84.98
771.321	85.13
771.5	85.13
771.678	84.49
771.857	82.99
772.035	83.71
772.213	84.12
772.392	82.17
772.57	82.39
772.748	84.41
772.927	82.98
773.105	82.93
773.283	82.97
773.461	83.7
773.64	83.48
773.818	82.98
773.996	83.01
774.174	84.57
774.352	83.67
774.531	82.55
774.709	83.11
774.887	80.08
775.065	81.16
775.243	80.86
775.421	80.25
775.599	80.65
775.777	82.3
775.955	79.7
776.133	80.65
776.311	81.49
776.489	79.97
776.667	80.16
776.844	81.02
777.022	80.45
777.2	81.3
777.378	80.82
777.556	84.74
777.734	84.88
777.911	86.88
778.089	87.19
778.267	88.19
778.445	87.22
778.622	86.89
778.8	83.17
778.978	83.15
779.155	84.13
779.333	82.19
779.511	81.17
779.688	83.48
779.866	82.82
780.043	83.68
780.221	83.61
780.398	83.45
780.576	83.07
780.753	81.75
780.931	81.37
781.108	83.17
781.286	85.64
781.463	83.22
781.64	84.01
781.818	83.49
781.995	81.47
782.172	80.19
782.35	80.62
782.527	81.18
782.704	80.27
782.882	76.89
783.059	74.7
783.236	76.29
783.413	74.72
783.59	75.22
783.768	77.78
783.945	80.64
784.122	80.12
784.299	80.71
784.476	78.57
784.653	78.59
784.83	76.07
785.007	75.39
785.184	74.78
785.361	77.96
785.538	76.76
785.715	78.65
785.892	79.1
786.069	79.51
786.246	77.15
786.423	77.85
786.6	76.24
786.776	75.31
786.953	74.79
787.13	75.6
787.307	76.03
787.484	74.57
787.66	75.27
787.837	76.58
788.014	76.61
788.191	75.62
788.367	74.24
788.544	76.6
788.721	74.67
788.897	73.24
789.074	74.43
789.25	78.14
789.427	74.41
789.603	72.43
789.78	71.36
789.956	72.71
790.133	70.48
790.309	72.63
790.486	75.17
790.662	78.6
790.839	75.66
791.015	79.43
791.192	77.13
791.368	77.93
791.544	77.4
791.721	79.84
791.897	77.2
792.073	80.69
792.249	80.23
792.426	78.57
792.602	78.18
792.778	78.25
792.954	75.06
793.13	76.28
793.307	75.36
793.483	72.31
793.659	72.13
793.835	73.11
794.011	76.1
794.187	77.23
794.363	77.64
794.539	77.97
794.715	78.11
794.891	76.4
795.067	76.96
795.243	79.53
795.419	79.85
795.595	83.66
795.771	81.36
795.947	76.12
796.122	72.49
796.298	69.65
796.474	72.57
796.65	73.46
796.826	76.29
797.001	79.28
797.177	77.33
797.353	72.95
797.529	71.6
797.704	73.32
797.88	71.51
798.056	72.97
798.231	66.87
798.407	70.86
798.582	69.82
798.758	71.35
798.934	72.32
799.109	74.43
799.285	69.46
799.46	67.83
799.636	65.78
799.811	72
799.986	74.06
800.162	72.5
800.337	78.68
800.513	77.7
800.688	69.41
800.863	69.01
801.039	70.38
801.214	62.44
801.389	64.53
801.565	70.41
801.74	69.93
801.915	71.39
802.09	75.92
802.265	75.2
802.441	69.71
802.616	70.46
802.791	68.36
802.966	70.26
803.141	70.46
803.316	75.26
803.491	74.76
803.666	76.35
803.841	70.48
804.016	71.47
804.191	68.63
804.366	65.14
804.541	68.49
804.716	69.36
804.891	70.96
805.066	71.33
805.241	72.55
805.416	74.59
805.591	77.57
805.765	82.8
805.94	83.08
806.115	80.73
806.29	69.95
806.464	69.81
806.639	64.99
806.814	62.41
806.989	67.16
807.163	76.21
807.338	76.49
807.512	77.79
807.687	79.32
807.862	78.25
808.036	76.68
808.211	79.43
808.385	74.95
808.56	72.36
808.734	66.31
808.909	65.49
809.083	65.19
809.258	70.77
809.432	73.36
809.606	81.52
809.781	78.05
809.955	78.97
810.13	73.06
810.304	71.36
810.478	69.72
810.652	68.72
810.827	66.59
811.001	62.84
811.175	63.18
811.349	65.9
811.524	72.21
811.698	66.86
811.872	76.95
812.046	79.28
812.22	71.88
812.394	71.21
812.568	79.1
812.742	76.33
812.916	80.34
813.09	78.12
813.264	68.95
813.438	69.71
813.612	65.31
813.786	63.09
813.96	70.57
814.134	76.11
814.308	75.67
814.482	73.45
814.656	69.24
814.83	62.76
815.003	63.96
815.177	56.18
815.351	65.01
815.525	73.34
815.698	79.64
815.872	64.88
816.046	66.58
816.219	64.52
816.393	58.6
816.567	55.31
816.74	62.94
816.914	60.37
817.088	57.12
817.261	52.73
817.435	54.37
817.608	50.85
817.782	50.81
817.955	58.97
818.129	58.66
818.302	54.85
818.475	64.8
818.649	62.97
818.822	53.82
818.996	65.1
819.169	69.98
819.342	62.31
819.516	70.2
819.689	68.77
819.862	67.69
820.035	74.61
820.209	74.32
820.382	63.28
820.555	64.95
820.728	63.43
820.901	43.29
821.075	50.71
821.248	62.74
821.421	69.5
821.594	68.45
821.767	72.37
821.94	69
822.113	71.97
822.286	70.12
822.459	67.95
822.632	81.84
822.805	81.32
822.978	81.61
823.151	84.32
823.324	74.29
823.496	60.24
823.669	71.06
823.842	75.14
824.015	64.27
824.188	55.75
824.361	58.92
824.533	47.32
824.706	34.92
824.879	48.46
825.051	64.03
825.224	71.18
825.397	65.38
825.569	70.91
825.742	77.17
825.915	74.55
826.087	59.43
826.26	65.05
826.432	52.56
826.605	29.82
826.777	30.51
826.95	45.05
827.122	26.97
827.295	54.02
827.467	76.52
827.64	76.77
827.812	73.88
827.984	100.14
828.157	59.14
828.329	63.73
828.501	50.78
828.674	57.28
828.846	58.06
829.018	61.2
829.19	47.17
829.363	62.87
829.535	52.96
829.707	58.86
829.879	55.93
830.051	67.33
830.223	60.2
830.395	52.63
830.568	40.28
830.74	42.35
830.912	46.39
831.084	47.24
831.256	45.11
831.428	52.42
831.6	47.5
831.772	24
831.943	13.9
832.115	21.73
832.287	33.88
832.459	28.96
832.631	53.01
832.803	57.57
832.975	58.83
833.146	46.15
833.318	41.95
833.49	42.67
833.662	50.88
833.833	48.09
834.005	61.12
834.177	74.84
834.348	64.55
834.52	58.08
834.692	53.9
834.863	48.03
835.035	55.99
835.206	55.55
835.378	57.15
835.549	51.99
835.721	45.72
835.892	39.39
836.064	40.45
836.235	37.98
836.407	42.28
836.578	51.19
836.749	45.75
836.921	52.74
837.092	36.82
837.264	44.75
837.435	37.55
837.606	43.07
837.777	45.71
837.949	56.05
838.12	56.65
838.291	59.11
838.462	69.8
838.633	60.83
838.805	49.61
838.976	44.73
839.147	54.21
839.318	47.42
839.489	47.38
839.66	56.22
839.831	47.16
840.002	48.52
840.173	42.22
840.344	38
840.515	25.79
840.686	38.76
840.857	25.75
841.028	37.28
841.199	53.82
841.369	65.2
841.54	73.45
841.711	120.6
841.882	106.79
842.053	74.3
842.223	55.49
842.394	53.29
842.565	43.29
842.736	33.86
842.906	43.21
843.077	67.99
843.248	77.54
843.418	65.13
843.589	72.2
843.759	67.41
843.93	66.73
844.101	54.58
844.271	92.3
844.442	85.9
844.612	74.22
844.783	65.63
844.953	59.9
845.123	46.16
845.294	48.65
845.464	47.9
845.635	61.9
845.805	81.29
845.975	79.22
846.146	47.59
846.316	57.81
846.486	49.48
846.656	49.8
846.827	59.04
846.997	74.19
847.167	74.93
847.337	69.86
847.507	68.07
847.677	61.42
847.848	70.9
848.018	71.51
848.188	68.8
848.358	65.14
848.528	65.91
848.698	51.24
848.868	53.61
849.038	53.67
849.208	59.13
849.378	56.14
849.548	32.86
849.718	21.5
849.887	49.6
850.057	41.91
850.227	75.47
850.397	103.97
850.567	83.66
850.737	92.48
850.906	94.56
851.076	55.87
851.246	50.21
851.415	83.83
851.585	79.58
851.755	100.17
851.924	104.32
852.094	100.75
852.264	50.96
852.433	18.48
852.603	-23.48
852.772	-10.18
852.942	23.52
853.111	40.01
853.281	44.17
853.45	50.7
853.62	29.1
853.789	9.89
853.959	32.5
854.128	45.59
854.297	43.52
854.467	60.53
854.636	68.64
854.805	67.57
854.975	62.87
855.144	64.17
855.313	66.65
855.482	43.36
855.652	24.33
855.821	3.47
855.99	4.17
856.159	-14.41
856.328	-0.44
856.497	11.73
856.667	24.05
856.836	30.25
857.005	42.33
857.174	43.32
857.343	30.21
857.512	39.26
857.681	34.64
857.85	14.9
858.019	2.75
858.188	-1.9
858.356	6.45
858.525	20.14
858.694	50.97
858.863	38.37
859.032	40.2
859.201	19.48
859.369	3.19
859.538	11.54
859.707	-6.01
859.876	22.4
860.044	38.14
860.213	48.08
860.382	39.79
860.55	46.63
860.719	54.28
860.888	38.93
861.056	43.6
861.225	24.29
861.393	38.12
861.562	41.4
861.73	50.31
861.899	38.8
862.067	34.18
862.236	25.34
862.404	9.9
862.572	-0.49
862.741	-8.33
862.909	29.07
863.078	42.5
863.246	35.59
863.414	34.1
863.582	52.17
863.751	44.24
863.919	22.28
864.087	36.69
864.255	58.44
864.424	31.5
864.592	43.36
864.76	69.97
864.928	51.61
865.096	45.18
865.264	55.12
865.432	31.82
865.6	0.27
865.768	-28.98
865.936	-31.81
866.104	-19.22
866.272	-19.1
866.44	-6.17
866.608	39.71
866.776	45.7
866.944	54.17
867.112	40.21
867.28	45.45
867.448	32.54
867.615	35.47
867.783	-8.47
867.951	-4.74
868.119	-32.82
868.286	-43.93
868.454	-25.48
868.622	-9.89
868.789	-11.33
868.957	12.9
869.125	17.95
869.292	8.49
869.46	35.22
869.627	63.84
869.795	36.08
869.963	58.98
870.13	59.7
870.298	66.51
870.465	37.86
870.632	36.3
870.8	8.39
870.967	-1.32
871.135	-43.31
871.302	-19.49
871.469	-2.81
871.637	19.3
871.804	51.27
871.971	45.24
872.139	33.55
872.306	14.49
872.473	-15.26
872.64	-165
872.807	-144.27
872.975	-461.12
873.142	-124.36
873.309	-104.7
873.476	-15.35
873.643	-9.24
873.81	0.47
873.977	-59.4
874.144	-0.6
874.311	-17.83
874.478	-29.13
874.645	-35.23
874.812	52.84
874.979	46.31
875.146	18.19
875.313	32.72
875.48	88.82
875.647	54.76
875.813	14.14
875.98	-5.53
876.147	-74.83
876.314	-74.32
876.481	-59.01
876.647	-37.26
876.814	-9.33
876.981	-0.6
877.147	-14.43
877.314	-0.41
877.481	35.69
877.647	40.01
877.814	24.71
877.98	19.29
878.147	29.62
878.314	30.73
878.48	31.85
878.647	51.21
878.813	66.54
878.979	39.44
879.146	32.6
879.312	63.55
879.479	63.35
879.645	52.58
879.811	58.49
879.978	37.57
880.144	4.17
880.31	0.48
880.477	15.28
880.643	17.45
880.809	24.8
880.975	45.73
881.142	55.52
881.308	163.66
881.474	185.87
881.64	-9.78
881.806	30.86
881.972	22.02
882.138	31.74
882.304	55.25
882.47	30.2
882.636	-0.12
882.802	-14.02
882.968	-34.2
883.134	-33.56
883.3	-26.71
883.466	-4.87
883.632	20.66
883.798	34.81
883.964	7.01
884.129	155.46
884.295	18.83
884.461	-15.4
884.627	12.83
884.793	-1.63
884.958	18.32
885.124	5.79
885.29	-30.57
885.455	-35.18
885.621	63.89
885.787	59.63
885.952	38.57
886.118	43.35
886.283	14.73
886.449	-19.16
886.614	-34.02
886.78	3.85
886.945	10.22
887.111	1.03
887.276	-56.4
887.442	-126.09
887.607	-138.32
887.773	-87.27
887.938	-64.23
888.103	-7.57
888.269	20.69
888.434	32.32
888.599	17.15
888.764	32.46
888.93	29.28
889.095	18.03
889.26	8.75
889.425	50.53
889.59	108.65
889.756	94.66
889.921	77.46
890.086	184.66
890.251	198.62
890.416	87.37
890.581	86.07
890.746	116.54
890.911	60.55
891.076	43.45
891.241	32.47
891.406	24.38
891.571	37.27
891.736	-1.45
891.901	35.65
892.065	38.84
892.23	98.99
892.395	43.27
892.56	41.03
892.725	37.61
892.889	93.61
893.054	-11.46
893.219	2.73
893.384	29.18
893.548	17.42
893.713	-14.69
893.878	-56.51
