Data from Ofra_2a_PS_2GT10B_Reflection_2.txt Node
Date: Tue Jul 20 09:39:47 EDT 2021
User: Adam
Spectrometer: FLMT01687
Trigger mode: 0
Integration Time (sec): 9.450000E-1
Scans to average: 3
Electric dark correction enabled: true
Nonlinearity correction enabled: false
Boxcar width: 3
XAxis mode: Wavelengths
Number of Pixels in Spectrum: 3648
>>>>>Begin Spectral Data<<<<<
179.494	730.77
179.716	459.07
179.937	533.52
180.158	2148.83
180.38	-1058.43
180.601	-180.02
180.823	-31.58
181.044	15.04
181.265	6.58
181.486	109.75
181.708	1233.7
181.929	140.35
182.15	-57.39
182.372	26.44
182.593	25.09
182.814	151.95
183.035	21.8
183.257	44.47
183.478	27.65
183.699	28.09
183.92	23.87
184.141	19.43
184.363	9.73
184.584	4.53
184.805	2.06
185.026	-12.01
185.247	-24.13
185.468	-14.55
185.689	-2.56
185.91	4.03
186.132	7.18
186.353	-2.76
186.574	-2.59
186.795	-12.44
187.016	-14.26
187.237	-4.94
187.458	-9.99
187.679	-23.87
187.9	-7.5
188.121	-10.28
188.342	33.24
188.563	22.92
188.784	5.54
189.005	4.41
189.226	12.45
189.447	6.79
189.667	15.68
189.888	20.92
190.109	16.32
190.33	-2
190.551	-7.76
190.772	-11.91
190.993	-0.93
191.214	-4.64
191.434	-20.43
191.655	2.15
191.876	15.59
192.097	14.8
192.318	21.32
192.538	19.27
192.759	23.99
192.98	15.17
193.201	26.54
193.421	37.46
193.642	46.82
193.863	47.98
194.083	46.53
194.304	39.7
194.525	57.62
194.745	29.88
194.966	20.58
195.187	23.01
195.407	25.23
195.628	24.16
195.848	16.7
196.069	12.45
196.29	5.18
196.51	-6.47
196.731	2.11
196.951	-0.36
197.172	-0.58
197.392	17.2
197.613	4.96
197.833	22.07
198.054	26.81
198.274	5.19
198.495	5.47
198.715	-7.62
198.936	-35.16
199.156	-7.85
199.377	-21.26
199.597	-35.39
199.817	-15.66
200.038	-6.91
200.258	3.69
200.479	13.2
200.699	-0.19
200.919	1.03
201.14	0.72
201.36	2.64
201.58	-6.24
201.801	-0.62
202.021	5.92
202.241	12.15
202.461	14.14
202.682	19.59
202.902	18.11
203.122	21.18
203.342	25.45
203.563	27.38
203.783	25.18
204.003	21.02
204.223	24.07
204.443	24.17
204.663	21.17
204.884	11.24
205.104	9.05
205.324	19.74
205.544	39.1
205.764	37.88
205.984	40.01
206.204	44.3
206.424	45.69
206.644	30.56
206.864	25.18
207.084	23.13
207.304	21.29
207.525	16.44
207.745	21.85
207.964	20.1
208.184	18.45
208.404	12.66
208.624	-5.68
208.844	-14.5
209.064	-17.9
209.284	-15.13
209.504	-19.01
209.724	-30.58
209.944	-23.01
210.164	-6.82
210.384	1.67
210.604	-2.66
210.823	-11.27
211.043	-23.86
211.263	4.35
211.483	3.91
211.703	8.2
211.922	8.21
212.142	20.21
212.362	30.44
212.582	28.35
212.801	25.42
213.021	24.23
213.241	0.31
213.461	0.19
213.68	-6.66
213.9	-13.54
214.12	-11.15
214.339	-5.65
214.559	-2.49
214.779	22.16
214.998	20.92
215.218	27.65
215.438	31.09
215.657	33.27
215.877	27.73
216.096	30.57
216.316	16.38
216.535	13.93
216.755	-3.34
216.974	-20.03
217.194	-9.59
217.413	-0.4
217.633	-10.43
217.852	-12.11
218.072	-24.92
218.291	9.55
218.511	10.89
218.73	6.74
218.95	-0.61
219.169	1.65
219.389	2.3
219.608	24.07
219.827	8.29
220.047	33.84
220.266	31.68
220.485	25.65
220.705	19.54
220.924	23.52
221.143	6.25
221.363	5.44
221.582	-7.12
221.801	-17.97
222.021	-8.54
222.24	-8.03
222.459	-18.94
222.678	-25.22
222.897	-20.49
223.117	-9.48
223.336	0.18
223.555	-19.94
223.774	-19.27
223.993	-5.84
224.213	10.56
224.432	17.34
224.651	17.77
224.87	10
225.089	36.59
225.308	36.32
225.527	41
225.746	38.33
225.965	33.14
226.184	24.54
226.404	23.59
226.623	14.87
226.842	17.15
227.061	15.77
227.28	28.92
227.499	33.66
227.718	32.77
227.936	30.72
228.155	26.33
228.374	21.67
228.593	23.15
228.812	8.65
229.031	-7.14
229.25	-3.35
229.469	9.35
229.688	8.06
229.907	6.55
230.125	2.21
230.344	10.24
230.563	17.15
230.782	12.89
231.001	4.9
231.22	1.39
231.438	14.67
231.657	14.09
231.876	4.28
232.095	13.12
232.313	12.27
232.532	13.31
232.751	21.55
232.969	22.18
233.188	23.38
233.407	25.83
233.625	20.84
233.844	26.56
234.063	26.72
234.281	17.91
234.5	12.16
234.719	9.13
234.937	11.33
235.156	1.19
235.374	-8.19
235.593	-11.67
235.811	-9.33
236.03	-11.06
236.249	9.46
236.467	10.12
236.686	25.61
236.904	27.98
237.123	40.77
237.341	41.87
237.559	42.88
237.778	48.12
237.996	50.38
238.215	47.69
238.433	46.67
238.652	36.02
238.87	31.35
239.088	23
239.307	17.53
239.525	9.35
239.743	-1.35
239.962	-7.97
240.18	-0.13
240.398	8.61
240.617	18.95
240.835	15.33
241.053	23.67
241.271	30.45
241.49	24.68
241.708	19.54
241.926	10.47
242.144	9.36
242.363	11.13
242.581	11.8
242.799	4.26
243.017	13.34
243.235	4.75
243.453	6.75
243.672	-0.34
243.89	5.09
244.108	13.74
244.326	13.3
244.544	24.43
244.762	30.8
244.98	33.28
245.198	34.3
245.416	41.09
245.634	44.69
245.852	43.75
246.07	22.96
246.288	15.52
246.506	16.21
246.724	33.08
246.942	18.4
247.16	13.92
247.378	7.43
247.596	19.42
247.814	15.49
248.032	9.1
248.25	5
248.468	9.89
248.685	13.63
248.903	14.73
249.121	21.62
249.339	29.94
249.557	24.23
249.775	1
249.992	-5.8
250.21	-9.52
250.428	-10.88
250.646	-6.37
250.863	-6.2
251.081	-10.31
251.299	15.72
251.517	28.32
251.734	24.04
251.952	32.59
252.17	11.75
252.387	11.01
252.605	13.55
252.823	-1.17
253.04	-7.19
253.258	-5.22
253.475	0.5
253.693	13.63
253.911	23.15
254.128	25.52
254.346	18.69
254.563	16.27
254.781	14.47
254.998	14.13
255.216	8.02
255.433	1.37
255.651	5.81
255.868	18.71
256.086	21.76
256.303	20.72
256.521	17
256.738	20.89
256.956	16.24
257.173	7.1
257.39	4.77
257.608	-4.67
257.825	-3
258.043	11.24
258.26	6.44
258.477	7.45
258.695	12.95
258.912	18.53
259.129	30.22
259.346	30.42
259.564	21.47
259.781	28.74
259.998	32.86
260.216	37.77
260.433	29.88
260.65	30.18
260.867	11.77
261.084	10.28
261.302	5.27
261.519	-6.71
261.736	-16.2
261.953	-5.96
262.17	-2.3
262.387	6.9
262.604	0.52
262.822	-7.1
263.039	-4.1
263.256	-3.24
263.473	-20.01
263.69	-24.98
263.907	-26.82
264.124	-24.11
264.341	-22.67
264.558	-11.8
264.775	-14.83
264.992	-13.02
265.209	-4.71
265.426	-1.89
265.643	5.83
265.86	9.9
266.077	12.33
266.294	18.23
266.51	22.49
266.727	7.11
266.944	7.19
267.161	-5.14
267.378	-11.41
267.595	-33.81
267.812	-45.24
268.028	-41.58
268.245	-23.95
268.462	-24.34
268.679	-16.82
268.896	-17.05
269.112	0.76
269.329	8.8
269.546	6.02
269.763	17.35
269.979	22.79
270.196	26.34
270.413	29.54
270.629	22.61
270.846	15.8
271.063	20.46
271.279	11.02
271.496	5.28
271.712	10.39
271.929	16.3
272.146	16.17
272.362	6.02
272.579	2.94
272.795	2.21
273.012	1.6
273.228	-8.62
273.445	-10.5
273.661	-8.47
273.878	10.47
274.094	11.23
274.311	13.85
274.527	15.43
274.744	16.64
274.96	18.27
275.177	25.75
275.393	18.02
275.609	21.82
275.826	16.5
276.042	28.79
276.259	28.07
276.475	25.88
276.691	23.94
276.908	27.26
277.124	18.97
277.34	19.51
277.557	12.04
277.773	10.64
277.989	10.6
278.205	0.05
278.422	-3.53
278.638	4.38
278.854	8.66
279.07	-2.35
279.286	-7.1
279.503	-18.3
279.719	-3.36
279.935	-25.64
280.151	-20.86
280.367	-27.92
280.583	-18.24
280.799	-1.71
281.016	9.74
281.232	4.77
281.448	19.33
281.664	13.33
281.88	15.46
282.096	15.06
282.312	7.62
282.528	-3.99
282.744	-0.46
282.96	8.61
283.176	16.36
283.392	24.68
283.608	28.16
283.824	18.06
284.04	23.6
284.256	21.79
284.471	21.17
284.687	14.69
284.903	8.88
285.119	-4.55
285.335	3.7
285.551	7.63
285.767	-0.69
285.982	2.02
286.198	-2.01
286.414	14.39
286.63	18.09
286.846	19.43
287.061	14.99
287.277	22.15
287.493	24.36
287.709	25.92
287.924	24.58
288.14	38.51
288.356	41.38
288.571	25.86
288.787	18.65
289.003	12.09
289.218	13.82
289.434	12.28
289.65	9.26
289.865	5.09
290.081	17.22
290.296	23.64
290.512	32.03
290.727	37.94
290.943	24.55
291.159	15.25
291.374	15.39
291.59	5.77
291.805	4.27
292.021	-16.49
292.236	-16.63
292.451	-9.88
292.667	0.61
292.882	-3.76
293.098	-0.04
293.313	-6.89
293.529	0.9
293.744	2.26
293.959	6.6
294.175	2.03
294.39	16.11
294.605	16.51
294.821	18.72
295.036	14.66
295.251	21.83
295.467	14.85
295.682	16.4
295.897	7.06
296.112	8.28
296.328	8.17
296.543	3.66
296.758	-12.46
296.973	-6.89
297.188	-9.11
297.404	1.45
297.619	8.4
297.834	18.43
298.049	20.18
298.264	28.44
298.479	12.05
298.694	15.92
298.909	8.91
299.125	7.34
299.34	0.94
299.555	9.05
299.77	5.81
299.985	15.89
300.2	8.01
300.415	12.25
300.63	1.74
300.845	3.39
301.06	-4.54
301.275	5.23
301.49	4.28
301.704	3.07
301.919	-3.6
302.134	-8.18
302.349	-12.8
302.564	-15.12
302.779	-31.45
302.994	-17.19
303.209	-23.09
303.423	-17.98
303.638	-0.7
303.853	0.68
304.068	1.62
304.283	7.25
304.497	-3.69
304.712	8.94
304.927	-1.65
305.142	3.32
305.356	0.25
305.571	9.55
305.786	3.55
306	3.88
306.215	1.18
306.43	9.05
306.644	9.88
306.859	19.56
307.074	8.38
307.288	20.33
307.503	15.87
307.717	12.53
307.932	7.88
308.147	3.46
308.361	-7.27
308.576	0.63
308.79	-6.21
309.005	1.47
309.219	6.63
309.434	10.23
309.648	3.43
309.863	17.24
310.077	16.55
310.292	19.24
310.506	22.59
310.72	19.12
310.935	21.48
311.149	27.93
311.364	21.64
311.578	16.51
311.792	9
312.007	5.72
312.221	13.86
312.435	15.46
312.649	-25.39
312.864	-27.57
313.078	-23.1
313.292	-4.83
313.507	5.06
313.721	-4.59
313.935	13.24
314.149	45.5
314.363	46.67
314.578	72.98
314.792	60.78
315.006	54.4
315.22	55.79
315.434	42.03
315.648	41.61
315.862	43.86
316.077	26.61
316.291	29.6
316.505	29.77
316.719	14.53
316.933	23.8
317.147	11.59
317.361	5.17
317.575	7.43
317.789	14.3
318.003	19.43
318.217	37.45
318.431	34.88
318.645	41.96
318.859	28.22
319.073	22.3
319.287	12.98
319.5	8.55
319.714	6.91
319.928	7.97
320.142	9.29
320.356	30.21
320.57	25.11
320.784	37.97
320.997	38.88
321.211	26.39
321.425	18.24
321.639	13.23
321.853	-0.03
322.066	-0.16
322.28	-4.85
322.494	-6.26
322.707	-6.45
322.921	-1.87
323.135	0.33
323.349	8.14
323.562	13.02
323.776	12.15
323.989	-0.03
324.203	10.21
324.417	5.38
324.63	-4.72
324.844	-17.08
325.057	-10.85
325.271	-19.88
325.485	-0.39
325.698	-5.7
325.912	-0.2
326.125	11.79
326.339	14.46
326.552	12.11
326.766	27.3
326.979	21.35
327.193	18.26
327.406	9.74
327.619	-5.11
327.833	-9.78
328.046	-13.51
328.26	-31.36
328.473	-25.4
328.686	-29.36
328.9	-31.56
329.113	-12.74
329.326	3.6
329.54	8.09
329.753	11.85
329.966	15.24
330.179	25.98
330.393	32.74
330.606	29.16
330.819	26.5
331.032	29.27
331.246	33.31
331.459	31.59
331.672	32.16
331.885	27.78
332.098	32.74
332.311	21.63
332.525	12.82
332.738	3.23
332.951	-2.1
333.164	-11.77
333.377	-26.64
333.59	-20.7
333.803	-5.51
334.016	-17.12
334.229	3.08
334.442	19.76
334.655	24.56
334.868	39.47
335.081	36.8
335.294	34.27
335.507	47.51
335.72	39.56
335.933	33.09
336.146	34.49
336.359	30.17
336.572	19.68
336.785	24.32
336.997	11.16
337.21	13.38
337.423	10.42
337.636	7.17
337.849	6.77
338.062	16.66
338.274	10.79
338.487	14.59
338.7	17.42
338.913	14.69
339.125	9.61
339.338	10.72
339.551	9.72
339.763	7.47
339.976	5.7
340.189	0.92
340.402	-0.26
340.614	7.04
340.827	0.9
341.039	0.83
341.252	-1.34
341.465	-5.34
341.677	-10.06
341.89	-6.14
342.102	-0.24
342.315	7.34
342.527	-0.39
342.74	5.8
342.952	8.65
343.165	19.87
343.377	21.43
343.59	12.74
343.802	12.86
344.015	14.24
344.227	11.48
344.44	9.28
344.652	11.3
344.864	16.42
345.077	19.83
345.289	16.79
345.502	18.82
345.714	16.6
345.926	20.58
346.139	18.31
346.351	3.26
346.563	14.72
346.775	7.31
346.988	12.42
347.2	9.78
347.412	13.91
347.624	13.17
347.837	17.96
348.049	11.4
348.261	14.16
348.473	6.25
348.685	9.29
348.897	4.41
349.11	-2.18
349.322	-7.34
349.534	-9.75
349.746	-4.6
349.958	2.36
350.17	5.85
350.382	5.9
350.594	6.34
350.806	8.9
351.018	14.7
351.23	15.91
351.442	12.19
351.654	16.33
351.866	18.98
352.078	17.01
352.29	24.99
352.502	21.17
352.714	24.91
352.926	28.72
353.138	13.69
353.35	3.79
353.561	6.93
353.773	4.98
353.985	2.22
354.197	-4.23
354.409	-3.14
354.621	7.68
354.832	2.51
355.044	9.82
355.256	5.32
355.468	4.41
355.679	5.26
355.891	11.52
356.103	6.59
356.314	18.57
356.526	13.86
356.738	12.18
356.949	26.46
357.161	28.56
357.373	26.67
357.584	35.73
357.796	32.91
358.008	29.34
358.219	34.33
358.431	26.48
358.642	23.14
358.854	19.78
359.065	13.27
359.277	8.43
359.488	5.61
359.7	4.22
359.911	1.07
360.123	1.49
360.334	0.04
360.546	-10.02
360.757	-2.23
360.969	7.95
361.18	5.83
361.391	2.48
361.603	4.95
361.814	6.7
362.025	10.24
362.237	12.73
362.448	6.46
362.659	-7.23
362.871	2.52
363.082	11.27
363.293	18.35
363.504	22.98
363.716	21.01
363.927	28.9
364.138	38.54
364.349	39.38
364.56	30.71
364.772	23.7
364.983	19.38
365.194	19.78
365.405	11.28
365.616	4.66
365.827	-2.22
366.038	1.09
366.25	7.41
366.461	11.26
366.672	7.32
366.883	14.57
367.094	19.22
367.305	21.18
367.516	21.06
367.727	19.09
367.938	19.32
368.149	21.1
368.36	18.3
368.571	12.33
368.781	6.87
368.992	4.23
369.203	-1.05
369.414	1.46
369.625	0.46
369.836	-3.34
370.047	4.83
370.258	2.83
370.468	1.01
370.679	9.16
370.89	16.14
371.101	14.15
371.312	11.38
371.522	11.39
371.733	10.92
371.944	18.26
372.155	2.56
372.365	-8.25
372.576	-3.62
372.787	-2.35
372.997	-7.02
373.208	0.89
373.419	1.26
373.629	15.01
373.84	10.68
374.05	10.87
374.261	7.53
374.472	8.78
374.682	1.65
374.893	-6.39
375.103	-8.26
375.314	1.16
375.524	0.77
375.735	5.21
375.945	7.33
376.156	13.87
376.366	24.1
376.577	24.56
376.787	22.76
376.997	24.04
377.208	17.01
377.418	12.26
377.629	9.05
377.839	6.08
378.049	9.4
378.26	11.75
378.47	11.97
378.68	14.63
378.89	11.52
379.101	5.26
379.311	-5.81
379.521	-7.91
379.732	-12.46
379.942	-14.1
380.152	-7.45
380.362	1.2
380.572	2.04
380.783	4.43
380.993	3.44
381.203	4.74
381.413	9.61
381.623	10
381.833	7.6
382.043	9.23
382.253	10.03
382.463	10.78
382.674	12.01
382.884	1.32
383.094	0.71
383.304	-2.57
383.514	2.78
383.724	5.93
383.934	5.58
384.144	8.44
384.353	10.12
384.563	4.01
384.773	6.65
384.983	5.13
385.193	6.45
385.403	8.99
385.613	2.33
385.823	4.21
386.033	7.15
386.242	6.38
386.452	5.97
386.662	6.41
386.872	2.68
387.082	1.99
387.291	2.5
387.501	4.69
387.711	3.59
387.921	2.61
388.13	0.77
388.34	-0.86
388.55	0.32
388.759	0.56
388.969	-2.85
389.179	0.9
389.388	2.47
389.598	2.85
389.807	1.96
390.017	2.56
390.227	1.05
390.436	1.39
390.646	0.1
390.855	-2.13
391.065	-4.27
391.274	-3.63
391.484	-2.97
391.693	0.18
391.903	1.25
392.112	-0.9
392.322	2.16
392.531	4.44
392.74	3.46
392.95	3.64
393.159	2.06
393.369	1.58
393.578	2.58
393.787	1.44
393.997	1.88
394.206	3.21
394.415	2.82
394.625	1.98
394.834	1.15
395.043	1.02
395.252	1.02
395.462	0.16
395.671	-0.06
395.88	0.7
396.089	1.09
396.298	1.4
396.508	1.07
396.717	0.6
396.926	0.48
397.135	0.43
397.344	0.04
397.553	0.2
397.762	0.3
397.971	1.01
398.181	0.96
398.39	1.31
398.599	1.77
398.808	1.71
399.017	1.58
399.226	1.89
399.435	1.51
399.644	1.58
399.853	1.44
400.062	1.25
400.27	1.14
400.479	1.25
400.688	1.24
400.897	1.49
401.106	1.65
401.315	1.63
401.524	1.71
401.733	1.54
401.941	1.63
402.15	1.28
402.359	1.12
402.568	1.08
402.777	1.08
402.985	0.96
403.194	1.11
403.403	0.77
403.612	0.89
403.82	0.99
404.029	0.89
404.238	0.88
404.446	0.83
404.655	0.72
404.864	0.84
405.072	0.91
405.281	0.75
405.489	0.87
405.698	0.82
405.906	0.91
406.115	1.06
406.324	1.03
406.532	1.06
406.741	1.12
406.949	1.08
407.158	1.18
407.366	1.2
407.574	1.14
407.783	1.13
407.991	1.04
408.2	1.01
408.408	1.02
408.617	0.92
408.825	0.87
409.033	0.83
409.242	0.81
409.45	0.82
409.658	0.82
409.867	0.75
410.075	0.76
410.283	0.73
410.491	0.78
410.7	0.9
410.908	0.92
411.116	0.86
411.324	0.92
411.533	0.86
411.741	0.88
411.949	0.93
412.157	0.88
412.365	0.83
412.573	0.88
412.781	0.89
412.99	1.02
413.198	1.01
413.406	0.93
413.614	0.88
413.822	0.92
414.03	0.85
414.238	0.85
414.446	0.74
414.654	0.71
414.862	0.67
415.07	0.71
415.278	0.63
415.486	0.78
415.694	0.66
415.902	0.65
416.109	0.68
416.317	0.71
416.525	0.74
416.733	0.84
416.941	0.73
417.149	0.85
417.357	0.95
417.564	0.94
417.772	0.98
417.98	0.95
418.188	0.9
418.395	0.89
418.603	0.82
418.811	0.68
419.019	0.66
419.226	0.66
419.434	0.54
419.642	0.52
419.849	0.6
420.057	0.61
420.265	0.7
420.472	0.63
420.68	0.54
420.887	0.67
421.095	0.69
421.302	0.72
421.51	0.86
421.717	0.88
421.925	0.91
422.132	1
422.34	0.99
422.547	0.97
422.755	0.9
422.962	0.72
423.17	0.66
423.377	0.75
423.585	0.76
423.792	0.65
423.999	0.66
424.207	0.57
424.414	0.71
424.621	0.72
424.829	0.66
425.036	0.57
425.243	0.62
425.451	0.67
425.658	0.72
425.865	0.55
426.072	0.56
426.28	0.56
426.487	0.54
426.694	0.6
426.901	0.48
427.108	0.53
427.315	0.61
427.523	0.69
427.73	0.74
427.937	0.78
428.144	0.73
428.351	0.82
428.558	0.73
428.765	0.66
428.972	0.53
429.179	0.47
429.386	0.52
429.593	0.54
429.8	0.6
430.007	0.76
430.214	0.8
430.421	0.84
430.628	0.71
430.835	0.69
431.042	0.7
431.249	0.65
431.456	0.63
431.662	0.61
431.869	0.69
432.076	0.78
432.283	0.65
432.49	0.63
432.697	0.56
432.903	0.52
433.11	0.58
433.317	0.51
433.524	0.53
433.73	0.61
433.937	0.56
434.144	0.68
434.35	0.69
434.557	0.61
434.764	0.61
434.97	0.64
435.177	0.63
435.384	0.72
435.59	0.68
435.797	0.73
436.003	0.79
436.21	0.75
436.416	0.69
436.623	0.78
436.829	0.71
437.036	0.71
437.242	0.64
437.449	0.68
437.655	0.72
437.862	0.73
438.068	0.75
438.275	0.76
438.481	0.79
438.687	0.86
438.894	0.79
439.1	0.83
439.307	0.82
439.513	0.76
439.719	0.82
439.926	0.8
440.132	0.75
440.338	0.74
440.544	0.69
440.751	0.74
440.957	0.7
441.163	0.66
441.369	0.66
441.575	0.69
441.782	0.7
441.988	0.75
442.194	0.78
442.4	0.84
442.606	0.87
442.812	0.88
443.018	0.9
443.224	0.92
443.431	0.87
443.637	0.79
443.843	0.79
444.049	0.77
444.255	0.7
444.461	0.68
444.667	0.66
444.873	0.66
445.079	0.71
445.284	0.67
445.49	0.6
445.696	0.66
445.902	0.7
446.108	0.72
446.314	0.79
446.52	0.81
446.726	0.87
446.931	0.92
447.137	0.95
447.343	0.91
447.549	0.9
447.755	0.86
447.96	0.83
448.166	0.8
448.372	0.83
448.578	0.82
448.783	0.83
448.989	0.84
449.195	0.87
449.4	0.9
449.606	0.89
449.812	0.89
450.017	0.9
450.223	0.89
450.428	0.92
450.634	0.94
450.84	0.93
451.045	0.95
451.251	0.96
451.456	0.92
451.662	0.96
451.867	0.92
452.073	0.89
452.278	0.86
452.483	0.86
452.689	0.83
452.894	0.83
453.1	0.74
453.305	0.77
453.51	0.76
453.716	0.76
453.921	0.78
454.127	0.76
454.332	0.74
454.537	0.82
454.742	0.76
454.948	0.74
455.153	0.74
455.358	0.79
455.563	0.81
455.769	0.85
455.974	0.78
456.179	0.79
456.384	0.82
456.589	0.87
456.795	0.8
457	0.84
457.205	0.76
457.41	0.81
457.615	0.86
457.82	0.91
458.025	0.87
458.23	0.87
458.435	0.81
458.64	0.9
458.845	0.89
459.05	0.89
459.255	0.85
459.46	0.82
459.665	0.86
459.87	0.87
460.075	0.85
460.28	0.86
460.485	0.88
460.69	0.83
460.895	0.9
461.099	0.89
461.304	0.88
461.509	0.82
461.714	0.83
461.919	0.81
462.123	0.87
462.328	0.82
462.533	0.82
462.738	0.83
462.942	0.92
463.147	0.9
463.352	0.96
463.556	0.92
463.761	0.94
463.966	0.98
464.17	0.96
464.375	0.91
464.58	0.87
464.784	0.83
464.989	0.85
465.193	0.9
465.398	0.89
465.602	0.91
465.807	0.94
466.011	1
466.216	0.99
466.42	1.02
466.625	1.02
466.829	1.02
467.034	1.05
467.238	1.07
467.443	1.07
467.647	1.11
467.851	1.1
468.056	1.08
468.26	1.08
468.464	1.11
468.669	1.09
468.873	1.06
469.077	1.04
469.282	1.06
469.486	1.09
469.69	1.1
469.894	1.11
470.099	1.16
470.303	1.15
470.507	1.11
470.711	1.09
470.915	1.1
471.119	1.12
471.324	1.07
471.528	1.06
471.732	1.08
471.936	1.15
472.14	1.14
472.344	1.11
472.548	1.11
472.752	1.19
472.956	1.18
473.16	1.22
473.364	1.16
473.568	1.17
473.772	1.19
473.976	1.18
474.18	1.13
474.384	1.08
474.588	1.07
474.792	1.1
474.995	1.13
475.199	1.12
475.403	1.14
475.607	1.16
475.811	1.24
476.015	1.26
476.218	1.24
476.422	1.23
476.626	1.25
476.83	1.25
477.033	1.26
477.237	1.26
477.441	1.27
477.644	1.31
477.848	1.31
478.052	1.3
478.255	1.27
478.459	1.29
478.663	1.27
478.866	1.27
479.07	1.27
479.273	1.27
479.477	1.29
479.681	1.32
479.884	1.25
480.088	1.27
480.291	1.28
480.495	1.29
480.698	1.31
480.901	1.29
481.105	1.33
481.308	1.34
481.512	1.34
481.715	1.36
481.919	1.36
482.122	1.34
482.325	1.38
482.529	1.39
482.732	1.43
482.935	1.45
483.138	1.46
483.342	1.46
483.545	1.47
483.748	1.48
483.952	1.47
484.155	1.48
484.358	1.46
484.561	1.46
484.764	1.48
484.967	1.52
485.171	1.48
485.374	1.49
485.577	1.51
485.78	1.5
485.983	1.5
486.186	1.49
486.389	1.45
486.592	1.49
486.795	1.49
486.998	1.46
487.201	1.48
487.404	1.52
487.607	1.51
487.81	1.52
488.013	1.52
488.216	1.51
488.419	1.52
488.622	1.49
488.825	1.46
489.028	1.41
489.231	1.41
489.433	1.39
489.636	1.38
489.839	1.38
490.042	1.41
490.245	1.4
490.447	1.46
490.65	1.5
490.853	1.5
491.056	1.51
491.258	1.51
491.461	1.46
491.664	1.42
491.866	1.43
492.069	1.39
492.272	1.36
492.474	1.34
492.677	1.35
492.879	1.38
493.082	1.43
493.285	1.42
493.487	1.45
493.69	1.45
493.892	1.47
494.095	1.45
494.297	1.48
494.5	1.51
494.702	1.53
494.905	1.54
495.107	1.58
495.309	1.55
495.512	1.57
495.714	1.58
495.917	1.54
496.119	1.55
496.321	1.57
496.524	1.56
496.726	1.6
496.928	1.61
497.13	1.6
497.333	1.61
497.535	1.59
497.737	1.58
497.939	1.56
498.142	1.57
498.344	1.58
498.546	1.62
498.748	1.63
498.95	1.64
499.152	1.64
499.355	1.66
499.557	1.66
499.759	1.72
499.961	1.7
500.163	1.74
500.365	1.75
500.567	1.74
500.769	1.78
500.971	1.8
501.173	1.76
501.375	1.77
501.577	1.76
501.779	1.8
501.981	1.83
502.183	1.8
502.385	1.8
502.587	1.81
502.788	1.82
502.99	1.81
503.192	1.81
503.394	1.83
503.596	1.87
503.798	1.92
503.999	1.91
504.201	1.89
504.403	1.89
504.605	1.91
504.806	1.92
505.008	1.92
505.21	1.92
505.411	1.96
505.613	2
505.815	2.02
506.016	2.05
506.218	2.04
506.42	2.05
506.621	2.05
506.823	2.06
507.024	2.07
507.226	2.08
507.427	2.02
507.629	2.05
507.83	2.03
508.032	2.05
508.233	2.05
508.435	2.05
508.636	2.06
508.838	2.11
509.039	2.12
509.24	2.15
509.442	2.1
509.643	2.08
509.845	2.09
510.046	2.09
510.247	2.11
510.448	2.13
510.65	2.16
510.851	2.2
511.052	2.25
511.254	2.23
511.455	2.25
511.656	2.25
511.857	2.24
512.058	2.29
512.26	2.32
512.461	2.34
512.662	2.37
512.863	2.36
513.064	2.36
513.265	2.4
513.466	2.41
513.667	2.4
513.868	2.41
514.069	2.43
514.27	2.47
514.471	2.5
514.672	2.48
514.873	2.47
515.074	2.48
515.275	2.46
515.476	2.49
515.677	2.49
515.878	2.52
516.079	2.54
516.28	2.55
516.481	2.55
516.682	2.59
516.882	2.59
517.083	2.6
517.284	2.57
517.485	2.58
517.686	2.56
517.886	2.58
518.087	2.59
518.288	2.59
518.488	2.61
518.689	2.63
518.89	2.66
519.091	2.67
519.291	2.67
519.492	2.66
519.692	2.7
519.893	2.68
520.094	2.7
520.294	2.71
520.495	2.73
520.695	2.74
520.896	2.76
521.096	2.76
521.297	2.8
521.497	2.8
521.698	2.8
521.898	2.8
522.099	2.83
522.299	2.83
522.499	2.83
522.7	2.84
522.9	2.84
523.101	2.86
523.301	2.9
523.501	2.87
523.702	2.88
523.902	2.88
524.102	2.88
524.302	2.91
524.503	2.93
524.703	2.91
524.903	2.96
525.103	3
525.304	3.03
525.504	3.02
525.704	3.01
525.904	3.01
526.104	3.02
526.304	3.02
526.504	2.99
526.705	2.99
526.905	3.04
527.105	3.06
527.305	3.06
527.505	3.07
527.705	3.07
527.905	3.07
528.105	3.07
528.305	3.07
528.505	3.08
528.705	3.1
528.905	3.1
529.105	3.14
529.304	3.16
529.504	3.17
529.704	3.2
529.904	3.23
530.104	3.23
530.304	3.24
530.503	3.23
530.703	3.29
530.903	3.32
531.103	3.33
531.303	3.34
531.502	3.32
531.702	3.34
531.902	3.39
532.101	3.37
532.301	3.38
532.501	3.38
532.7	3.38
532.9	3.45
533.1	3.44
533.299	3.45
533.499	3.46
533.698	3.47
533.898	3.49
534.097	3.5
534.297	3.49
534.496	3.52
534.696	3.51
534.895	3.56
535.095	3.6
535.294	3.58
535.494	3.62
535.693	3.63
535.892	3.66
536.092	3.66
536.291	3.67
536.491	3.68
536.69	3.73
536.889	3.72
537.088	3.74
537.288	3.77
537.487	3.79
537.686	3.81
537.886	3.81
538.085	3.84
538.284	3.86
538.483	3.87
538.682	3.89
538.882	3.91
539.081	3.94
539.28	3.95
539.479	3.97
539.678	4.02
539.877	4.08
540.076	4.09
540.275	4.13
540.474	4.14
540.673	4.18
540.872	4.21
541.071	4.23
541.27	4.23
541.469	4.28
541.668	4.34
541.867	4.36
542.066	4.38
542.265	4.4
542.464	4.43
542.663	4.49
542.862	4.52
543.06	4.53
543.259	4.58
543.458	4.6
543.657	4.64
543.856	4.65
544.054	4.67
544.253	4.67
544.452	4.66
544.651	4.67
544.849	4.7
545.048	4.73
545.247	4.77
545.445	4.78
545.644	4.81
545.843	4.86
546.041	4.88
546.24	4.92
546.438	4.97
546.637	5.02
546.836	5.06
547.034	5.1
547.233	5.14
547.431	5.17
547.63	5.21
547.828	5.21
548.027	5.23
548.225	5.28
548.423	5.32
548.622	5.36
548.82	5.42
549.019	5.49
549.217	5.59
549.415	5.65
549.614	5.66
549.812	5.72
550.01	5.78
550.209	5.84
550.407	5.87
550.605	5.9
550.803	5.96
551.002	6.05
551.2	6.11
551.398	6.14
551.596	6.21
551.794	6.28
551.993	6.29
552.191	6.34
552.389	6.39
552.587	6.44
552.785	6.51
552.983	6.56
553.181	6.6
553.379	6.69
553.577	6.76
553.775	6.83
553.973	6.91
554.171	6.95
554.369	7.01
554.567	7.07
554.765	7.13
554.963	7.13
555.161	7.22
555.359	7.27
555.557	7.36
555.755	7.45
555.952	7.51
556.15	7.58
556.348	7.69
556.546	7.74
556.744	7.82
556.941	7.91
557.139	7.99
557.337	8.08
557.535	8.19
557.732	8.28
557.93	8.36
558.128	8.41
558.325	8.48
558.523	8.54
558.721	8.6
558.918	8.67
559.116	8.72
559.313	8.8
559.511	8.87
559.708	8.94
559.906	9
560.104	9.1
560.301	9.16
560.498	9.25
560.696	9.32
560.893	9.45
561.091	9.56
561.288	9.65
561.486	9.7
561.683	9.78
561.88	9.86
562.078	9.95
562.275	10.04
562.473	10.08
562.67	10.17
562.867	10.26
563.064	10.36
563.262	10.48
563.459	10.54
563.656	10.61
563.853	10.7
564.051	10.77
564.248	10.89
564.445	10.96
564.642	11.04
564.839	11.15
565.036	11.26
565.234	11.37
565.431	11.43
565.628	11.53
565.825	11.62
566.022	11.65
566.219	11.72
566.416	11.77
566.613	11.85
566.81	11.91
567.007	11.96
567.204	12.02
567.401	12.13
567.598	12.19
567.795	12.26
567.991	12.3
568.188	12.42
568.385	12.49
568.582	12.57
568.779	12.63
568.976	12.7
569.172	12.76
569.369	12.81
569.566	12.83
569.763	12.92
569.96	12.99
570.156	13
570.353	13.06
570.55	13.12
570.746	13.16
570.943	13.26
571.14	13.23
571.336	13.25
571.533	13.34
571.729	13.38
571.926	13.42
572.123	13.47
572.319	13.49
572.516	13.56
572.712	13.63
572.909	13.63
573.105	13.67
573.302	13.67
573.498	13.72
573.695	13.76
573.891	13.77
574.087	13.77
574.284	13.78
574.48	13.77
574.677	13.86
574.873	13.9
575.069	13.93
575.266	13.97
575.462	13.98
575.658	14.03
575.854	14.1
576.051	14.07
576.247	14.1
576.443	14.12
576.639	14.14
576.835	14.17
577.032	14.17
577.228	14.2
577.424	14.26
577.62	14.24
577.816	14.23
578.012	14.24
578.208	14.24
578.404	14.27
578.6	14.25
578.796	14.25
578.993	14.29
579.189	14.24
579.384	14.27
579.58	14.26
579.776	14.26
579.972	14.21
580.168	14.18
580.364	14.16
580.56	14.16
580.756	14.1
580.952	14.13
581.148	14.1
581.343	14.15
581.539	14.16
581.735	14.14
581.931	14.17
582.127	14.2
582.322	14.21
582.518	14.21
582.714	14.18
582.909	14.13
583.105	14.11
583.301	14.06
583.496	14.08
583.692	14.04
583.888	14.03
584.083	14.06
584.279	14.12
584.474	14.11
584.67	14.11
584.866	14.06
585.061	14.07
585.257	14.08
585.452	14.04
585.648	14.03
585.843	14.05
586.039	14.04
586.234	14.07
586.429	14.08
586.625	14.06
586.82	14.07
587.015	13.99
587.211	13.98
587.406	14
587.601	13.99
587.797	13.95
587.992	13.93
588.187	13.94
588.383	13.98
588.578	13.93
588.773	13.94
588.968	13.97
589.163	14.03
589.359	14.03
589.554	14.07
589.749	14.11
589.944	14.18
590.139	14.24
590.334	14.29
590.529	14.34
590.724	14.36
590.919	14.4
591.114	14.42
591.309	14.45
591.504	14.4
591.699	14.4
591.894	14.41
592.089	14.48
592.284	14.46
592.479	14.52
592.674	14.58
592.869	14.65
593.064	14.69
593.259	14.7
593.454	14.76
593.648	14.79
593.843	14.83
594.038	14.84
594.233	14.91
594.428	14.98
594.622	15.02
594.817	15.04
595.012	15.14
595.206	15.18
595.401	15.18
595.596	15.26
595.79	15.25
595.985	15.4
596.18	15.53
596.374	15.57
596.569	15.65
596.763	15.83
596.958	15.83
597.153	15.93
597.347	15.96
597.542	15.97
597.736	16.04
597.931	16.12
598.125	16.16
598.319	16.26
598.514	16.32
598.708	16.34
598.903	16.44
599.097	16.49
599.291	16.52
599.486	16.54
599.68	16.55
599.874	16.62
600.069	16.66
600.263	16.66
600.457	16.67
600.651	16.75
600.846	16.79
601.04	16.86
601.234	16.9
601.428	16.93
601.622	16.95
601.817	17.06
602.011	17.06
602.205	17.08
602.399	17.11
602.593	17.11
602.787	17.17
602.981	17.21
603.175	17.16
603.369	17.17
603.563	17.15
603.757	17.1
603.951	17.1
604.145	17.06
604.339	17.05
604.533	16.99
604.727	16.94
604.921	16.96
605.115	16.97
605.309	16.98
605.502	17.02
605.696	16.98
605.89	17.04
606.084	17.03
606.278	16.97
606.471	16.9
606.665	16.82
606.859	16.7
607.053	16.61
607.246	16.54
607.44	16.47
607.634	16.4
607.827	16.36
608.021	16.3
608.214	16.31
608.408	16.31
608.602	16.29
608.795	16.28
608.989	16.28
609.182	16.3
609.376	16.3
609.569	16.18
609.763	16.16
609.956	16.01
610.15	15.97
610.343	15.9
610.537	15.81
610.73	15.77
610.923	15.77
611.117	15.65
611.31	15.63
611.504	15.56
611.697	15.53
611.89	15.48
612.083	15.36
612.277	15.2
612.47	15.16
612.663	15.1
612.856	14.97
613.05	14.89
613.243	14.77
613.436	14.67
613.629	14.68
613.822	14.64
614.015	14.62
614.209	14.6
614.402	14.56
614.595	14.49
614.788	14.48
614.981	14.38
615.174	14.3
615.367	14.2
615.56	14.16
615.753	14.09
615.946	14.08
616.139	14
616.332	13.98
616.525	13.97
616.718	13.91
616.911	13.86
617.103	13.82
617.296	13.77
617.489	13.76
617.682	13.76
617.875	13.69
618.067	13.63
618.26	13.61
618.453	13.56
618.646	13.54
618.838	13.48
619.031	13.46
619.224	13.42
619.417	13.4
619.609	13.35
619.802	13.34
619.994	13.28
620.187	13.25
620.38	13.17
620.572	13.18
620.765	13.11
620.957	13.05
621.15	13.01
621.342	13.01
621.535	12.98
621.727	13.01
621.92	12.95
622.112	12.96
622.305	12.92
622.497	12.85
622.69	12.79
622.882	12.77
623.074	12.72
623.267	12.72
623.459	12.68
623.651	12.66
623.844	12.67
624.036	12.68
624.228	12.65
624.42	12.62
624.613	12.59
624.805	12.63
624.997	12.66
625.189	12.68
625.381	12.63
625.574	12.65
625.766	12.67
625.958	12.68
626.15	12.66
626.342	12.61
626.534	12.55
626.726	12.57
626.918	12.46
627.11	12.4
627.302	12.37
627.494	12.33
627.686	12.3
627.878	12.27
628.07	12.23
628.262	12.24
628.454	12.24
628.646	12.19
628.838	12.13
629.029	12.02
629.221	11.96
629.413	11.88
629.605	11.84
629.797	11.79
629.989	11.75
630.18	11.74
630.372	11.81
630.564	11.84
630.755	11.86
630.947	11.83
631.139	11.8
631.33	11.79
631.522	11.77
631.714	11.71
631.905	11.7
632.097	11.66
632.289	11.65
632.48	11.59
632.672	11.53
632.863	11.48
633.055	11.47
633.246	11.46
633.438	11.46
633.629	11.43
633.821	11.44
634.012	11.44
634.203	11.5
634.395	11.49
634.586	11.43
634.777	11.37
634.969	11.39
635.16	11.39
635.351	11.36
635.543	11.34
635.734	11.3
635.925	11.36
636.117	11.4
636.308	11.35
636.499	11.34
636.69	11.4
636.881	11.39
637.073	11.39
637.264	11.36
637.455	11.35
637.646	11.38
637.837	11.38
638.028	11.33
638.219	11.28
638.41	11.29
638.601	11.22
638.792	11.15
638.983	11.06
639.174	11.06
639.365	11.02
639.556	11.01
639.747	11
639.938	11.04
640.129	11.04
640.32	11.04
640.511	10.97
640.701	10.96
640.892	10.98
641.083	10.92
641.274	10.86
641.465	10.86
641.655	10.88
641.846	10.85
642.037	10.85
642.228	10.78
642.418	10.72
642.609	10.74
642.8	10.7
642.99	10.68
643.181	10.72
643.372	10.68
643.562	10.67
643.753	10.68
643.943	10.64
644.134	10.65
644.324	10.63
644.515	10.59
644.705	10.57
644.896	10.52
645.086	10.47
645.277	10.47
645.467	10.47
645.658	10.4
645.848	10.39
646.038	10.4
646.229	10.41
646.419	10.44
646.61	10.39
646.8	10.33
646.99	10.34
647.18	10.28
647.371	10.2
647.561	10.16
647.751	10.08
647.941	10.03
648.132	10.01
648.322	10.02
648.512	10.02
648.702	10.02
648.892	10.05
649.082	10.09
649.272	10.08
649.462	10.07
649.653	10.05
649.843	10.04
650.033	10.07
650.223	10.04
650.413	10.05
650.603	10.07
650.793	10.06
650.983	10.03
651.172	10.01
651.362	9.95
651.552	9.87
651.742	9.81
651.932	9.76
652.122	9.7
652.312	9.57
652.502	9.52
652.691	9.48
652.881	9.48
653.071	9.39
653.261	9.34
653.45	9.29
653.64	9.34
653.83	9.27
654.019	9.18
654.209	9.05
654.399	8.98
654.588	8.92
654.778	8.83
654.968	8.68
655.157	8.59
655.347	8.47
655.536	8.34
655.726	8.31
655.915	8.14
656.105	8.06
656.294	7.97
656.484	7.85
656.673	7.76
656.863	7.69
657.052	7.53
657.241	7.39
657.431	7.27
657.62	7.13
657.809	7.01
657.999	6.88
658.188	6.76
658.377	6.67
658.567	6.59
658.756	6.47
658.945	6.33
659.134	6.17
659.324	6.07
659.513	5.96
659.702	5.8
659.891	5.64
660.08	5.55
660.269	5.5
660.458	5.43
660.648	5.32
660.837	5.21
661.026	5.16
661.215	5.12
661.404	5
661.593	4.9
661.782	4.79
661.971	4.71
662.16	4.61
662.349	4.44
662.538	4.35
662.726	4.24
662.915	4.12
663.104	4
663.293	3.93
663.482	3.86
663.671	3.77
663.86	3.69
664.048	3.61
664.237	3.6
664.426	3.63
664.615	3.55
664.803	3.47
664.992	3.47
665.181	3.39
665.369	3.31
665.558	3.24
665.747	3.18
665.935	3.2
666.124	3.2
666.312	3.14
666.501	3.13
666.69	3.16
666.878	3.13
667.067	3.13
667.255	3.09
667.444	3.06
667.632	3.04
667.82	3
668.009	3
668.197	3
668.386	2.9
668.574	2.86
668.762	2.82
668.951	2.81
669.139	2.84
669.327	2.76
669.516	2.77
669.704	2.85
669.892	2.85
670.08	2.9
670.269	2.92
670.457	2.89
670.645	2.93
670.833	2.85
671.021	2.8
671.21	2.82
671.398	2.82
671.586	2.82
671.774	2.82
671.962	2.78
672.15	2.8
672.338	2.85
672.526	2.81
672.714	2.76
672.902	2.75
673.09	2.8
673.278	2.89
673.466	3.01
673.654	3
673.842	3.1
674.03	3.15
674.218	3.21
674.405	3.27
674.593	3.27
674.781	3.22
674.969	3.25
675.157	3.24
675.344	3.32
675.532	3.35
675.72	3.34
675.908	3.38
676.095	3.49
676.283	3.51
676.471	3.62
676.658	3.64
676.846	3.79
677.033	3.84
677.221	3.87
677.409	3.87
677.596	3.97
677.784	3.99
677.971	4.09
678.159	4.06
678.346	4.11
678.534	4.17
678.721	4.22
678.909	4.24
679.096	4.26
679.283	4.26
679.471	4.32
679.658	4.48
679.846	4.64
680.033	4.79
680.22	4.8
680.408	4.94
680.595	4.96
680.782	5.04
680.969	5
681.157	4.94
681.344	4.95
681.531	5.08
681.718	5.13
681.905	5.27
682.093	5.36
682.28	5.55
682.467	5.69
682.654	5.78
682.841	5.92
683.028	6.09
683.215	6.17
683.402	6.22
683.589	6.34
683.776	6.44
683.963	6.58
684.15	6.73
684.337	6.79
684.524	7
684.711	7.24
684.898	7.35
685.085	7.55
685.271	7.82
685.458	8.06
685.645	8.27
685.832	8.52
686.019	8.71
686.205	8.97
686.392	9.23
686.579	9.42
686.766	9.62
686.952	10.03
687.139	10.2
687.326	10.56
687.512	10.82
687.699	11.03
687.886	11.32
688.072	11.71
688.259	11.95
688.445	12.35
688.632	12.77
688.818	13.14
689.005	13.66
689.191	14.15
689.378	14.4
689.564	14.83
689.751	15.41
689.937	15.75
690.124	16.31
690.31	16.72
690.496	17.21
690.683	17.85
690.869	18.42
691.055	18.86
691.242	19.45
691.428	20
691.614	20.68
691.8	21.11
691.987	21.72
692.173	22.31
692.359	22.87
692.545	23.43
692.731	23.95
692.918	24.46
693.104	25.07
693.29	25.55
693.476	26.06
693.662	26.72
693.848	27.27
694.034	27.84
694.22	28.48
694.406	29.1
694.592	29.78
694.778	30.54
694.964	31.08
695.15	31.85
695.336	32.57
695.522	33.36
695.708	34.08
695.894	34.82
696.08	35.35
696.265	36.12
696.451	36.6
696.637	37.18
696.823	37.59
697.009	38.25
697.194	38.82
697.38	39.44
697.566	39.86
697.751	40.62
697.937	41.34
698.123	41.88
698.308	42.34
698.494	42.79
698.68	43.33
698.865	44.03
699.051	44.49
699.236	44.92
699.422	45.6
699.607	46.13
699.793	46.74
699.978	47.3
700.164	47.76
700.349	48.3
700.535	48.78
700.72	49.2
700.906	49.72
701.091	50.21
701.276	50.75
701.462	51.25
701.647	51.65
701.832	52.19
702.018	52.45
702.203	52.89
702.388	53.11
702.573	53.48
702.759	53.93
702.944	54.36
703.129	54.69
703.314	55.34
703.499	55.8
703.684	56.48
703.87	56.84
704.055	57.1
704.24	57.59
704.425	58.11
704.61	58.45
704.795	58.91
704.98	59.01
705.165	59.41
705.35	59.84
705.535	60.17
705.72	60.33
705.905	60.56
706.09	60.71
706.275	61.06
706.459	61.52
706.644	61.65
706.829	61.77
707.014	62.14
707.199	62.35
707.384	62.63
707.568	63.01
707.753	63.17
707.938	63.64
708.123	63.87
708.307	64.18
708.492	64.5
708.677	64.8
708.861	64.99
709.046	64.99
709.231	65.11
709.415	65.57
709.6	65.58
709.784	65.82
709.969	65.95
710.153	66.4
710.338	66.61
710.522	66.7
710.707	66.46
710.891	66.68
711.076	66.75
711.26	67.06
711.445	67.01
711.629	67.21
711.813	67.32
711.998	67.77
712.182	68.02
712.366	68.46
712.551	68.69
712.735	68.68
712.919	69.22
713.103	69.52
713.288	69.79
713.472	69.8
713.656	69.62
713.84	69.52
714.024	69.86
714.208	69.62
714.393	69.82
714.577	69.73
714.761	69.85
714.945	70.14
715.129	70.29
715.313	70.28
715.497	70.48
715.681	70.68
715.865	70.79
716.049	71.19
716.233	71.38
716.417	71.62
716.601	71.82
716.785	71.96
716.968	71.72
717.152	71.88
717.336	71.65
717.52	71.75
717.704	71.8
717.888	72.01
718.071	72.13
718.255	72.25
718.439	72.16
718.622	72.49
718.806	72.39
718.99	72.51
719.174	72.35
719.357	72.44
719.541	72.69
719.724	72.87
719.908	72.81
720.092	73.07
720.275	73.22
720.459	73.59
720.642	73.73
720.826	73.86
721.009	73.97
721.193	74.12
721.376	74.06
721.559	74.03
721.743	73.84
721.926	73.82
722.11	73.82
722.293	73.66
722.476	73.63
722.66	73.7
722.843	73.91
723.026	74.29
723.21	74.32
723.393	74.41
723.576	74.83
723.759	75.06
723.942	75.2
724.126	74.99
724.309	75.18
724.492	75.12
724.675	75.47
724.858	75.86
725.041	75.94
725.224	76.14
725.407	76.18
725.59	75.94
725.774	76.19
725.957	75.87
726.14	75.44
726.322	75.49
726.505	75.75
726.688	76.15
726.871	76.33
727.054	76.78
727.237	76.95
727.42	77.23
727.603	77.31
727.786	77.4
727.968	77.52
728.151	77.72
728.334	77.51
728.517	77.94
728.699	78.37
728.882	78.81
729.065	78.72
729.248	78.6
729.43	78.53
729.613	78.39
729.796	78.05
729.978	78.04
730.161	78.25
730.343	78.3
730.526	78.53
730.708	78.88
730.891	79.03
731.073	79.29
731.256	79.38
731.438	79.13
731.621	79.91
731.803	80.02
731.986	79.9
732.168	79.91
732.35	80.14
732.533	80
732.715	80.28
732.898	79.74
733.08	79.86
733.262	79.98
733.444	80.28
733.627	80.09
733.809	80.06
733.991	80.24
734.173	80.4
734.355	80.63
734.538	80.44
734.72	80.81
734.902	81.12
735.084	81.29
735.266	80.91
735.448	80.74
735.63	80.6
735.812	80.74
735.994	80.55
736.176	81.04
736.358	81.37
736.54	81.3
736.722	81.41
736.904	81.54
737.086	81.96
737.268	82.1
737.45	81.58
737.632	81.11
737.814	81.54
737.995	82.05
738.177	82.33
738.359	82.63
738.541	82.47
738.723	82.72
738.904	82.77
739.086	82.9
739.268	82.82
739.449	82.7
739.631	82.48
739.813	82.48
739.994	82.73
740.176	83.01
740.358	83.22
740.539	82.84
740.721	82.68
740.902	82.07
741.084	82.09
741.265	81.82
741.447	81.86
741.628	81.11
741.81	81.73
741.991	81.81
742.172	82.34
742.354	82.75
742.535	82.64
742.717	82.79
742.898	83.2
743.079	82.47
743.261	82.57
743.442	82.39
743.623	82.63
743.804	82.84
743.986	82.38
744.167	82.42
744.348	83.08
744.529	82.96
744.71	82.65
744.891	82.38
745.073	82.25
745.254	82.96
745.435	82.79
745.616	82.54
745.797	82.26
745.978	82.73
746.159	82.8
746.34	82.47
746.521	82.43
746.702	82.17
746.883	82.39
747.064	82.34
747.245	83.06
747.426	82.96
747.606	83.77
747.787	83.96
747.968	84.25
748.149	83.96
748.33	85.17
748.51	84.3
748.691	84.18
748.872	83.52
749.053	82.93
749.233	82.95
749.414	83.04
749.595	81.53
749.775	81.84
749.956	81.38
750.137	81.84
750.317	82.1
750.498	82.3
750.678	82.61
750.859	83.26
751.04	82.79
751.22	83.11
751.4	83.19
751.581	83.01
751.761	83.66
751.942	83.09
752.122	83.05
752.303	83.94
752.483	84.29
752.663	84.42
752.844	84.22
753.024	83.47
753.204	83.57
753.385	83.73
753.565	83.08
753.745	82.35
753.925	81.75
754.106	82.06
754.286	82.53
754.466	82.41
754.646	81.67
754.826	81.83
755.006	82.61
755.187	82.85
755.367	82.52
755.547	81.7
755.727	81.18
755.907	82.3
756.087	82.19
756.267	81.09
756.447	81.23
756.627	81.29
756.807	81.89
756.987	82.78
757.167	82.79
757.346	82.41
757.526	83.83
757.706	83.31
757.886	84
758.066	83.7
758.246	83.45
758.425	82.76
758.605	82.54
758.785	81.87
758.965	81.26
759.144	81.3
759.324	81.67
759.504	82.13
759.683	82.27
759.863	82.74
760.043	82.56
760.222	82.72
760.402	82.29
760.581	81.49
760.761	80.7
760.94	80.35
761.12	80.68
761.299	80.21
761.479	81.46
761.658	80.85
761.838	81.05
762.017	81.65
762.197	81.9
762.376	81.33
762.555	81.63
762.735	80.25
762.914	81.05
763.093	80.75
763.273	79.92
763.452	79.72
763.631	79.68
763.81	80.02
763.99	81.06
764.169	80.18
764.348	81.21
764.527	81.15
764.706	81.42
764.885	81.5
765.064	81.66
765.243	80.81
765.423	81.12
765.602	80.11
765.781	80.38
765.96	80.02
766.139	78.92
766.318	79.04
766.497	79.47
766.676	79.86
766.854	80.12
767.033	79.6
767.212	79.48
767.391	80.04
767.57	79.48
767.749	78.97
767.928	78.57
768.106	78.34
768.285	79.13
768.464	79.16
768.643	79.88
768.821	79.62
769	80.73
769.179	79.58
769.357	78.98
769.536	78.62
769.715	78.7
769.893	77.75
770.072	77.88
770.25	76.85
770.429	77.93
770.607	78.62
770.786	78.78
770.964	78.66
771.143	80.3
771.321	79.68
771.5	79.89
771.678	79.57
771.857	79.24
772.035	78.58
772.213	79.29
772.392	78.91
772.57	78.48
772.748	77.76
772.927	78.19
773.105	78.57
773.283	78.35
773.461	77.22
773.64	75.79
773.818	75.55
773.996	75.72
774.174	75.3
774.352	75.36
774.531	75.69
774.709	76.38
774.887	76.04
775.065	76.63
775.243	77.92
775.421	77.94
775.599	76.99
775.777	77.43
775.955	76.33
776.133	76.36
776.311	75.84
776.489	75.2
776.667	74.91
776.844	75.2
777.022	74.89
777.2	76.32
777.378	76.43
777.556	77.68
777.734	77.41
777.911	78.46
778.089	78.56
778.267	78.36
778.445	77.31
778.622	77.93
778.8	77.89
778.978	77.35
779.155	76.31
779.333	76.28
779.511	76.9
779.688	75.79
779.866	74.94
780.043	74.52
780.221	74.88
780.398	74.72
780.576	74.7
780.753	72.68
780.931	75.23
781.108	76.15
781.286	75.43
781.463	75.66
781.64	75.21
781.818	74.37
781.995	75.89
782.172	73.47
782.35	71.92
782.527	74.01
782.704	73.46
782.882	73.51
783.059	73.23
783.236	72.97
783.413	74.27
783.59	73.18
783.768	72.57
783.945	72.98
784.122	72.96
784.299	73.98
784.476	75.54
784.653	73.79
784.83	75.58
785.007	74
785.184	73.04
785.361	72.85
785.538	73.02
785.715	71.13
785.892	70.52
786.069	71.5
786.246	72.34
786.423	74.07
786.6	73.86
786.776	72.14
786.953	72.45
787.13	74.48
787.307	72.38
787.484	71.5
787.66	69.2
787.837	71.35
788.014	72.77
788.191	71.48
788.367	71.98
788.544	74.76
788.721	75.34
788.897	79.01
789.074	76.92
789.25	76.84
789.427	78.01
789.603	78.04
789.78	77.82
789.956	76.38
790.133	73.72
790.309	73.76
790.486	75.23
790.662	76.56
790.839	77.09
791.015	74.97
791.192	75.51
791.368	75.38
791.544	75.26
791.721	71.97
791.897	70.67
792.073	69.33
792.249	70.41
792.426	74.59
792.602	73.94
792.778	74.71
792.954	75.42
793.13	77.25
793.307	75.2
793.483	73.71
793.659	72.01
793.835	72.37
794.011	71.97
794.187	71.15
794.363	70.66
794.539	73.51
794.715	72.87
794.891	69.84
795.067	70.19
795.243	70.03
795.419	73.11
795.595	70.01
795.771	70.08
795.947	71.24
796.122	71.67
796.298	71.81
796.474	73.59
796.65	71.24
796.826	74.27
797.001	73.52
797.177	73.56
797.353	77.62
797.529	75.74
797.704	71.81
797.88	71.66
798.056	73.64
798.231	74.6
798.407	73.88
798.582	70.71
798.758	71.69
798.934	71.22
799.109	70.41
799.285	68.12
799.46	65.92
799.636	68.14
799.811	69.36
799.986	70.96
800.162	74.51
800.337	76.51
800.513	76.65
800.688	78.75
800.863	78.56
801.039	75.78
801.214	73.6
801.389	71.92
801.565	74.5
801.74	72.52
801.915	70.81
802.09	67.44
802.265	69.99
802.441	70.13
802.616	70.32
802.791	69.59
802.966	70.12
803.141	66.42
803.316	66.83
803.491	63.25
803.666	63.1
803.841	64.56
804.016	60.56
804.191	62.02
804.366	65.36
804.541	66.79
804.716	64.59
804.891	67.84
805.066	67.37
805.241	68.95
805.416	65.91
805.591	67.48
805.765	67.88
805.94	70.47
806.115	63.63
806.29	62.18
806.464	61.35
806.639	61.33
806.814	59.18
806.989	59.16
807.163	58.77
807.338	62.14
807.512	57.98
807.687	59.07
807.862	58.74
808.036	59.77
808.211	62.64
808.385	61.22
808.56	61.28
808.734	63.14
808.909	63.57
809.083	67.1
809.258	70.58
809.432	66.79
809.606	69.1
809.781	66.43
809.955	71.51
810.13	74.19
810.304	70.2
810.478	68.71
810.652	73.23
810.827	73.28
811.001	77.79
811.175	71.22
811.349	66.05
811.524	67.39
811.698	65.08
811.872	63.78
812.046	61.97
812.22	57.29
812.394	61.29
812.568	66.19
812.742	65.63
812.916	67.73
813.09	63.41
813.264	64.46
813.438	69.87
813.612	67.06
813.786	64.9
813.96	66.6
814.134	66.06
814.308	66.44
814.482	70.89
814.656	69.35
814.83	73.77
815.003	73.19
815.177	73.38
815.351	71.56
815.525	69.08
815.698	65.36
815.872	65.97
816.046	64.24
816.219	64.46
816.393	59.29
816.567	59.16
816.74	64.51
816.914	66.7
817.088	61.96
817.261	63.96
817.435	62.89
817.608	65.52
817.782	71.96
817.955	75.67
818.129	79.21
818.302	88.7
818.475	88.73
818.649	85.43
818.822	87.56
818.996	83.03
819.169	78.97
819.342	70.18
819.516	65.5
819.689	61.49
819.862	65.24
820.035	60.49
820.209	58.41
820.382	57.4
820.555	61.88
820.728	57.45
820.901	55.32
821.075	50.79
821.248	52.33
821.421	53.43
821.594	53.56
821.767	52.09
821.94	52.13
822.113	55
822.286	60.42
822.459	64
822.632	57.27
822.805	52.6
822.978	51.69
823.151	54.46
823.324	51.04
823.496	38.16
823.669	39.66
823.842	44.88
824.015	49.18
824.188	51.08
824.361	47.84
824.533	51.39
824.706	74.97
824.879	68.56
825.051	70.7
825.224	66.06
825.397	58.54
825.569	65.29
825.742	61.81
825.915	56.6
826.087	54.45
826.26	48.36
826.432	57.71
826.605	61.54
826.777	63.44
826.95	63.15
827.122	57.62
827.295	63.07
827.467	64.7
827.64	48.59
827.812	51.69
827.984	54.31
828.157	56.27
828.329	57.58
828.501	56.04
828.674	56.74
828.846	64.7
829.018	60.33
829.19	50.53
829.363	52.52
829.535	50.02
829.707	45.67
829.879	43.26
830.051	39.15
830.223	39.09
830.395	39.21
830.568	35.63
830.74	49.13
830.912	51.33
831.084	51.37
831.256	49.93
831.428	47.01
831.6	46.75
831.772	49.63
831.943	43.74
832.115	52.98
832.287	50.56
832.459	51.66
832.631	62.65
832.803	69.96
832.975	77.23
833.146	70.48
833.318	59.28
833.49	66.87
833.662	70.2
833.833	68.46
834.005	64.49
834.177	61.9
834.348	61.92
834.52	67.63
834.692	71.34
834.863	72.58
835.035	65.23
835.206	64.14
835.378	50.56
835.549	56.75
835.721	47.07
835.892	46.21
836.064	50.05
836.235	51.67
836.407	50.89
836.578	55.04
836.749	52.44
836.921	56.33
837.092	57.27
837.264	54.79
837.435	47.23
837.606	49.28
837.777	48.58
837.949	45.7
838.12	49.54
838.291	46.65
838.462	39.04
838.633	43.95
838.805	46.13
838.976	42.81
839.147	38.69
839.318	32.14
839.489	29.65
839.66	38.49
839.831	33.28
840.002	19.4
840.173	23.44
840.344	36.5
840.515	32.22
840.686	38.2
840.857	38.6
841.028	45.12
841.199	52.04
841.369	42.75
841.54	43.74
841.711	53
841.882	49.6
842.053	36.36
842.223	44.09
842.394	44.59
842.565	70.5
842.736	60.05
842.906	73.83
843.077	74.78
843.248	71.49
843.418	67.39
843.589	78.45
843.759	68.59
843.93	74.74
844.101	64.69
844.271	62.3
844.442	69.19
844.612	64.99
844.783	60
844.953	59.34
845.123	58.77
845.294	76.94
845.464	67.17
845.635	68.97
845.805	81.66
845.975	76.33
846.146	81.11
846.316	95.09
846.486	72.45
846.656	88.75
846.827	91.52
846.997	97.58
847.167	95.44
847.337	98.51
847.507	92.56
847.677	99.13
847.848	108.79
848.018	103.41
848.188	84.27
848.358	93.95
848.528	72.51
848.698	51.42
848.868	51.72
849.038	36.43
849.208	48.58
849.378	41.7
849.548	44.92
849.718	55.24
849.887	69.93
850.057	53.3
850.227	49.22
850.397	42.74
850.567	61.93
850.737	46.92
850.906	46.86
851.076	39.94
851.246	54.56
851.415	63.95
851.585	59.32
851.755	62.12
851.924	73.32
852.094	71.2
852.264	68.14
852.433	62.63
852.603	55.71
852.772	46.26
852.942	37.01
853.111	39.76
853.281	34.84
853.45	40.14
853.62	35.53
853.789	35.54
853.959	44.25
854.128	32.61
854.297	27.3
854.467	31.04
854.636	45.43
854.805	55.44
854.975	52.91
855.144	53.55
855.313	69.79
855.482	60.27
855.652	54.49
855.821	52.09
855.99	59.84
856.159	59.66
856.328	52.08
856.497	50.3
856.667	54.76
856.836	48.12
857.005	34.82
857.174	35.3
857.343	23.61
857.512	13.07
857.681	3.41
857.85	-3.27
858.019	19.83
858.188	26.97
858.356	-5.36
858.525	15.68
858.694	39.17
858.863	39.57
859.032	33.03
859.201	17.83
859.369	30.56
859.538	27.87
859.707	29.57
859.876	26.67
860.044	28.06
860.213	16.47
860.382	29.83
860.55	35.09
860.719	53.48
860.888	53.22
861.056	54.44
861.225	49.44
861.393	67.91
861.562	49.49
861.73	26.49
861.899	14.03
862.067	11.3
862.236	3.99
862.404	6.24
862.572	-3.33
862.741	1.04
862.909	7.11
863.078	10.37
863.246	11.42
863.414	7.98
863.582	11.91
863.751	23.49
863.919	32.82
864.087	22.69
864.255	27.89
864.424	27.99
864.592	42.16
864.76	54.81
864.928	51
865.096	42.36
865.264	54.32
865.432	43.22
865.6	37.98
865.768	24.29
865.936	3.78
866.104	11.24
866.272	4.28
866.44	-45.6
866.608	-34.55
866.776	-8.08
866.944	-5.18
867.112	-11.11
867.28	-37.34
867.448	2.76
867.615	33.47
867.783	20.53
867.951	28.45
868.119	28.35
868.286	33.77
868.454	38.43
868.622	17.35
868.789	29.57
868.957	41.77
869.125	38.75
869.292	51.34
869.46	57.01
869.627	38.21
869.795	41.29
869.963	27.37
870.13	31.65
870.298	11.58
870.465	-33.53
870.632	-31.54
870.8	-1.6
870.967	9.93
871.135	22.74
871.302	27.29
871.469	29.81
871.637	31.9
871.804	26.61
871.971	24.37
872.139	25.34
872.306	20.52
872.473	6.03
872.64	8.51
872.807	14.21
872.975	37.87
873.142	19.85
873.309	26.72
873.476	39.12
873.643	71.49
873.81	90.99
873.977	40.57
874.144	27.68
874.311	53.38
874.478	-4.95
874.645	-30.74
874.812	-8.14
874.979	-36.17
875.146	-43.35
875.313	-111.72
875.48	-56.27
875.647	-68.67
875.813	-54.82
875.98	-55.18
876.147	30.7
876.314	33.48
876.481	31.76
876.647	31.76
876.814	47.39
876.981	52.37
877.147	40.85
877.314	32.13
877.481	40.22
877.647	51.49
877.814	30.46
877.98	22.49
878.147	29.55
878.314	54.22
878.48	40.57
878.647	45.71
878.813	51.72
878.979	88.08
879.146	76.08
879.312	80.62
879.479	72.15
879.645	68.86
879.811	70.93
879.978	66.9
880.144	90.34
880.31	62.87
880.477	45.96
880.643	32.1
880.809	100.89
880.975	84.93
881.142	77.45
881.308	63.04
881.474	146.23
881.64	122.51
881.806	77.16
881.972	90.9
882.138	78.13
882.304	55.18
882.47	37.85
882.636	-14.48
882.802	-92.72
882.968	-142.88
883.134	-368.48
883.3	-165.03
883.466	-60.56
883.632	-55.98
883.798	-48.78
883.964	2.06
884.129	23.36
884.295	22.82
884.461	4.3
884.627	-40.49
884.793	-0.89
884.958	-5.82
885.124	-31.05
885.29	-31.93
885.455	-11.72
885.621	1.93
885.787	5.58
885.952	-1.04
886.118	18.47
886.283	39.63
886.449	46.55
886.614	45.33
886.78	57.37
886.945	54.37
887.111	74.85
887.276	40.07
887.442	11.86
887.607	17.11
887.773	4.9
887.938	-21.84
888.103	4.7
888.269	10.92
888.434	2.68
888.599	23.84
888.764	20.01
888.93	38.3
889.095	28.04
889.26	20.95
889.425	-6.94
889.59	25.77
889.756	20.48
889.921	20.35
890.086	16.94
890.251	20.96
890.416	24.75
890.581	37.46
890.746	-11.44
890.911	-44.96
891.076	-83.92
891.241	-89.32
891.406	-23.92
891.571	-30.94
891.736	-46.93
891.901	-8.89
892.065	25.97
892.23	24.22
892.395	14.4
892.56	11.93
892.725	29.93
892.889	24.84
893.054	-3.65
893.219	-57.6
893.384	-89.05
893.548	-279.17
893.713	453.22
893.878	367.93
