Data from Ofra_PS_T2_2A_9GT30_Reflection_3.txt Node
Date: Wed Jul 21 17:23:32 EDT 2021
User: Adam
Spectrometer: FLMT01687
Trigger mode: 0
Integration Time (sec): 1.100000E0
Scans to average: 2
Electric dark correction enabled: true
Nonlinearity correction enabled: false
Boxcar width: 2
XAxis mode: Wavelengths
Number of Pixels in Spectrum: 3648
>>>>>Begin Spectral Data<<<<<
179.494	531.2
179.716	603.76
179.937	568.35
180.158	549.5
180.38	966.87
180.601	362.43
180.823	74.94
181.044	-71.56
181.265	164.71
181.486	44.77
181.708	127.25
181.929	916.33
182.15	-425.35
182.372	145.27
182.593	77.7
182.814	92.6
183.035	136.35
183.257	119.01
183.478	102.34
183.699	124.22
183.92	66.33
184.141	47.87
184.363	-19.97
184.584	24.68
184.805	21.66
185.026	62.34
185.247	66.4
185.468	39.89
185.689	23.26
185.91	31.87
186.132	17.74
186.353	-1.02
186.574	42.34
186.795	33.45
187.016	-10.62
187.237	-19.25
187.458	-32.43
187.679	2.25
187.9	17.38
188.121	19.83
188.342	11.89
188.563	53.88
188.784	52.38
189.005	58.56
189.226	125.32
189.447	147.76
189.667	39.81
189.888	-204.93
190.109	-906.49
190.33	-643.87
190.551	-1151.33
190.772	-227.12
190.993	-169.45
191.214	-152.4
191.434	-79.42
191.655	-0.98
191.876	-33.39
192.097	-61.19
192.318	-81.56
192.538	-197.65
192.759	-169.82
192.98	-80.63
193.201	-38.19
193.421	-28.38
193.642	2.79
193.863	25.62
194.083	19.38
194.304	7.25
194.525	11.05
194.745	-5.74
194.966	-48.9
195.187	-49.82
195.407	-43.05
195.628	-91.14
195.848	-79.08
196.069	-54.83
196.29	-21.98
196.51	-37.26
196.731	-23.95
196.951	-32.4
197.172	-73.23
197.392	-125.58
197.613	-110.96
197.833	-144.38
198.054	-100.89
198.274	-53.79
198.495	-49.47
198.715	-12.98
198.936	-21.14
199.156	-31.14
199.377	-106.07
199.597	-126.47
199.817	-150.4
200.038	-79.18
200.258	-135.36
200.479	-50.13
200.699	-50.71
200.919	-29.25
201.14	-63.97
201.36	-68.93
201.58	-7.31
201.801	38.11
202.021	8.42
202.241	11.3
202.461	6.81
202.682	-106.39
202.902	-224.07
203.122	-142.05
203.342	-112.63
203.563	-66.09
203.783	-7.33
204.003	-18.65
204.223	-27.08
204.443	41.31
204.663	45.43
204.884	38.91
205.104	71.71
205.324	138.11
205.544	97.04
205.764	100.15
205.984	92.54
206.204	88.69
206.424	47.85
206.644	29.79
206.864	19.1
207.084	-8.31
207.304	32.72
207.525	-16.56
207.745	-14.45
207.964	3.09
208.184	-50.73
208.404	-106.42
208.624	-103.66
208.844	-83.74
209.064	-348.16
209.284	-369.69
209.504	-197.37
209.724	-41.17
209.944	-25.84
210.164	1.84
210.384	23.88
210.604	4.6
210.823	-48.78
211.043	-58.7
211.263	-42.82
211.483	-54.45
211.703	-109.24
211.922	-74.7
212.142	-14.35
212.362	-2.31
212.582	-22.97
212.801	-0.16
213.021	-21.1
213.241	-46.09
213.461	-84.32
213.68	-78.61
213.9	-43.94
214.12	-31.56
214.339	-71.07
214.559	-65.06
214.779	-0.37
214.998	-4.64
215.218	-56.63
215.438	-50.33
215.657	-48.43
215.877	-68.69
216.096	-12.05
216.316	22.55
216.535	19.77
216.755	17.36
216.974	-58.64
217.194	-158.75
217.413	-168.81
217.633	-142.74
217.852	-254.89
218.072	-92.25
218.291	-41.32
218.511	26.38
218.73	-13.95
218.95	-0.9
219.169	-14.95
219.389	-45.58
219.608	-53.77
219.827	-37.1
220.047	-17.41
220.266	13.08
220.485	14.67
220.705	13.43
220.924	-4.97
221.143	25.82
221.363	-5.29
221.582	-0.11
221.801	11.56
222.021	26.81
222.24	-47.21
222.459	5.34
222.678	-10.93
222.897	-50.63
223.117	-83.13
223.336	-53.01
223.555	-36.48
223.774	25.77
223.993	40.26
224.213	85.17
224.432	61.68
224.651	91.41
224.87	60.67
225.089	77.77
225.308	69.98
225.527	76.61
225.746	56.37
225.965	39.22
226.184	-8.5
226.404	9.71
226.623	-15.62
226.842	1.75
227.061	32.26
227.28	35.71
227.499	26.59
227.718	36.65
227.936	34.04
228.155	46.98
228.374	30.01
228.593	31.38
228.812	31.69
229.031	13.44
229.25	-51.66
229.469	-40.92
229.688	-31.16
229.907	-7.01
230.125	7.46
230.344	24.06
230.563	30.9
230.782	44.41
231.001	-4.62
231.22	-8.79
231.438	22.98
231.657	28.46
231.876	13.1
232.095	59.38
232.313	72.13
232.532	65.14
232.751	45.97
232.969	25.72
233.188	-50.42
233.407	14.77
233.625	27.7
233.844	-6.51
234.063	0.56
234.281	23.02
234.5	10.15
234.719	-5.23
234.937	28.05
235.156	40.59
235.374	36.7
235.593	18.93
235.811	22.99
236.03	12.88
236.249	-42.2
236.467	-50.68
236.686	-22.31
236.904	-11.16
237.123	-27.78
237.341	-8.01
237.559	5.79
237.778	4.53
237.996	-15.07
238.215	14.58
238.433	16.62
238.652	7.17
238.87	-8.52
239.088	0.6
239.307	-13.91
239.525	-15.64
239.743	-46.16
239.962	-36.38
240.18	-54.95
240.398	-84.62
240.617	-100
240.835	-63.23
241.053	-36.8
241.271	41.71
241.49	51.41
241.708	70.67
241.926	68.29
242.144	18.79
242.363	-51.24
242.581	-80.32
242.799	-51.85
243.017	-10.96
243.235	-21.45
243.453	-1.65
243.672	3.93
243.89	-8.03
244.108	-34.68
244.326	-5.76
244.544	-11.48
244.762	-9.04
244.98	5.63
245.198	16.47
245.416	-25.79
245.634	-24.32
245.852	-29.92
246.07	-50.55
246.288	-41.22
246.506	-31.18
246.724	-26.99
246.942	-30.88
247.16	-7.88
247.378	-3.93
247.596	10.08
247.814	3.6
248.032	-12.01
248.25	-2.85
248.468	-7.68
248.685	-3.27
248.903	27.43
249.121	23.33
249.339	-1.16
249.557	-7.71
249.775	16.22
249.992	-44.67
250.21	-35.38
250.428	-27.34
250.646	-43.9
250.863	-61.5
251.081	-29.93
251.299	-12.2
251.517	1.5
251.734	3.97
251.952	-19.56
252.17	-6.45
252.387	-2.21
252.605	-12.82
252.823	-11.6
253.04	11.88
253.258	24.41
253.475	12.53
253.693	52.53
253.911	58.53
254.128	43.65
254.346	44.58
254.563	30.91
254.781	-5.35
254.998	-20.47
255.216	-11.18
255.433	4.11
255.651	59.37
255.868	74.95
256.086	87.47
256.303	60.81
256.521	34.08
256.738	6.63
256.956	-10.89
257.173	-31.35
257.39	-34.87
257.608	-63.28
257.825	12.13
258.043	56
258.26	65.68
258.477	107.65
258.695	115.54
258.912	42.74
259.129	22.65
259.346	-28.33
259.564	-75.83
259.781	-93.65
259.998	-13.4
260.216	16.37
260.433	55.19
260.65	66.65
260.867	74.14
261.084	44.69
261.302	13.96
261.519	24.45
261.736	-44.6
261.953	-71.9
262.17	-32.64
262.387	-57.83
262.604	-82.67
262.822	-62.43
263.039	-26.48
263.256	-67.58
263.473	-19.76
263.69	-22.42
263.907	20.12
264.124	29.74
264.341	38.52
264.558	27.92
264.775	43.61
264.992	30.98
265.209	32
265.426	54.53
265.643	45.92
265.86	48.79
266.077	41.53
266.294	16.84
266.51	-49.96
266.727	-57.94
266.944	-31.14
267.161	-34.87
267.378	-28.19
267.595	14.51
267.812	3.86
268.028	-11.59
268.245	21.29
268.462	-16.37
268.679	-45.47
268.896	2.82
269.112	10.53
269.329	10.41
269.546	33.04
269.763	36.52
269.979	35.11
270.196	9.77
270.413	-22.59
270.629	-53.34
270.846	-64.11
271.063	-49.76
271.279	-58.08
271.496	-50.82
271.712	-11.57
271.929	17.01
272.146	-10.56
272.362	13.45
272.579	58.74
272.795	62.65
273.012	67.65
273.228	76.15
273.445	43.41
273.661	3.59
273.878	-26.73
274.094	-41.17
274.311	-73.78
274.527	14.14
274.744	25.75
274.96	32.29
275.177	30.27
275.393	52.3
275.609	26.52
275.826	39.44
276.042	20.79
276.259	14.78
276.475	19.87
276.691	31.76
276.908	5.68
277.124	27.77
277.34	38.12
277.557	23.51
277.773	9.38
277.989	12.71
278.205	6.8
278.422	8.11
278.638	22.3
278.854	44.95
279.07	56.83
279.286	49.23
279.503	30.68
279.719	11.68
279.935	-26.11
280.151	-57.67
280.367	-26.73
280.583	-41.62
280.799	-35.95
281.016	-60.14
281.232	-8.18
281.448	-9.14
281.664	30.49
281.88	13.72
282.096	52.25
282.312	57.68
282.528	65.41
282.744	51.42
282.96	48.75
283.176	25.36
283.392	25.26
283.608	14.44
283.824	11.81
284.04	29.16
284.256	29.71
284.471	15.98
284.687	1.49
284.903	23.75
285.119	44.98
285.335	28.72
285.551	47.36
285.767	38.65
285.982	13.23
286.198	-26.22
286.414	27.96
286.63	16.7
286.846	48.69
287.061	31.19
287.277	51.41
287.493	15.64
287.709	29.23
287.924	6.74
288.14	45.41
288.356	50.35
288.571	74
288.787	47.43
289.003	50.43
289.218	32.76
289.434	3.93
289.65	18.52
289.865	23.1
290.081	42.9
290.296	32.5
290.512	27.67
290.727	-12.42
290.943	-6.85
291.159	-30.26
291.374	-44.12
291.59	-62.06
291.805	-45.25
292.021	-29.46
292.236	-24.18
292.451	1.45
292.667	16.06
292.882	22.84
293.098	30.48
293.313	18.65
293.529	4.28
293.744	-14.25
293.959	-25.8
294.175	-44.45
294.39	1.58
294.605	11.67
294.821	34.24
295.036	43.42
295.251	53.89
295.467	27.13
295.682	30.32
295.897	-24.44
296.112	-47.32
296.328	-35.51
296.543	-62.59
296.758	-73.98
296.973	-16.35
297.188	34.42
297.404	9.73
297.619	5.95
297.834	6.74
298.049	-16.02
298.264	-67.84
298.479	-7.02
298.694	5.72
298.909	14.63
299.125	21.12
299.34	32.99
299.555	-7.65
299.77	14.97
299.985	-12.6
300.2	-53.92
300.415	-66.25
300.63	-13.18
300.845	-34.06
301.06	-22.52
301.275	6.53
301.49	21.75
301.704	-4.97
301.919	-22.6
302.134	-34.88
302.349	-31.52
302.564	-78.94
302.779	-89.73
302.994	-43.57
303.209	-6.53
303.423	28.42
303.638	67.57
303.853	42.48
304.068	34.53
304.283	32.8
304.497	15.78
304.712	3.79
304.927	10.97
305.142	8.44
305.356	14.77
305.571	7.66
305.786	-11.25
306	-33.68
306.215	-33.88
306.43	-59.22
306.644	-23.59
306.859	43.4
307.074	57.17
307.288	15.06
307.503	28.43
307.717	-6.2
307.932	-22.29
308.147	-34.46
308.361	1.14
308.576	-15.13
308.79	-54.55
309.005	-54.8
309.219	-33.29
309.434	-48.77
309.648	-40.22
309.863	-6.71
310.077	-0.82
310.292	10.16
310.506	22.35
310.72	37.16
310.935	33.78
311.149	22.04
311.364	28.51
311.578	29.27
311.792	12.52
312.007	25.46
312.221	29.3
312.435	31.64
312.649	19.89
312.864	72.46
313.078	88.86
313.292	146.93
313.507	118.88
313.721	152.78
313.935	60.17
314.149	45.69
314.363	23.89
314.578	24.36
314.792	15.19
315.006	-2.69
315.22	14.57
315.434	14.26
315.648	28.15
315.862	36.01
316.077	41.36
316.291	17.63
316.505	17.77
316.719	-7.04
316.933	-5.45
317.147	-16.77
317.361	-54.41
317.575	-61.2
317.789	-85.42
318.003	-171.08
318.217	-106.3
318.431	-18.57
318.645	29.93
318.859	21.86
319.073	58.08
319.287	40.8
319.5	8.28
319.714	-51.88
319.928	-67.63
320.142	-100.74
320.356	-56.76
320.57	-5.63
320.784	-4.56
320.997	7.6
321.211	-0.81
321.425	-62.94
321.639	-102.36
321.853	-39.83
322.066	-19.88
322.28	-13.07
322.494	-4.83
322.707	18.09
322.921	2.68
323.135	-5.45
323.349	-0.93
323.562	-11.25
323.776	-22.66
323.989	-10.68
324.203	-27.68
324.417	-37.69
324.63	-56.34
324.844	-59.97
325.057	-74.88
325.271	-52.49
325.485	-19.45
325.698	17.4
325.912	37.53
326.125	22.04
326.339	26.08
326.552	29.45
326.766	11.6
326.979	12.45
327.193	46.27
327.406	38.83
327.619	18.83
327.833	30.54
328.046	9.62
328.26	-28.91
328.473	-9.84
328.686	-35.95
328.9	-35.87
329.113	-27.75
329.326	-51.82
329.54	-37.48
329.753	-37.91
329.966	-68.67
330.179	-46.69
330.393	-24.32
330.606	-20.37
330.819	5.81
331.032	26.08
331.246	29.56
331.459	62.56
331.672	56.11
331.885	41.48
332.098	5.07
332.311	-10.02
332.525	-77.79
332.738	-84.1
332.951	-42.66
333.164	12
333.377	22.76
333.59	37.91
333.803	44.17
334.016	26.59
334.229	12.08
334.442	15.8
334.655	41.55
334.868	52.67
335.081	50.48
335.294	44.19
335.507	37.59
335.72	23.69
335.933	-0.11
336.146	6.72
336.359	9.07
336.572	-13.97
336.785	-33.85
336.997	-29
337.21	-24.81
337.423	-35.33
337.636	-32.83
337.849	-27.67
338.062	-27.31
338.274	-18.34
338.487	-20.4
338.7	-26.71
338.913	-59.25
339.125	-54.28
339.338	-100.29
339.551	-79.64
339.763	-27.37
339.976	1.99
340.189	0.07
340.402	18.86
340.614	6.28
340.827	-11.93
341.039	-28.39
341.252	-21.3
341.465	5.85
341.677	6.96
341.89	-34.55
342.102	-6.02
342.315	-28.74
342.527	-85.37
342.74	-66.1
342.952	-14.64
343.165	-14.31
343.377	13.08
343.59	17.9
343.802	25.16
344.015	31.07
344.227	36.67
344.44	18.27
344.652	18.28
344.864	11.08
345.077	23.24
345.289	19.01
345.502	22.91
345.714	12.65
345.926	18.35
346.139	-0.22
346.351	12.08
346.563	20.84
346.775	34.67
346.988	23.02
347.2	30.24
347.412	-1.62
347.624	-27.35
347.837	-38.02
348.049	-22.27
348.261	-0.75
348.473	5.65
348.685	27.63
348.897	11.76
349.11	12.91
349.322	-6.84
349.534	21.42
349.746	14.74
349.958	35.66
350.17	32.29
350.382	32.43
350.594	23.47
350.806	23.45
351.018	14.94
351.23	-2.15
351.442	-34.9
351.654	-52.38
351.866	-67.14
352.078	-56.39
352.29	-16.18
352.502	1.43
352.714	13.49
352.926	24
353.138	23.78
353.35	11.6
353.561	9.43
353.773	-10.95
353.985	-4.8
354.197	-11.12
354.409	-17.86
354.621	-21.29
354.832	-8.09
355.044	-25.86
355.256	-25.48
355.468	-9.29
355.679	-9.57
355.891	-8.64
356.103	-24.37
356.314	-18.42
356.526	-22.6
356.738	-3.37
356.949	-10.61
357.161	16.05
357.373	8.43
357.584	-6.84
357.796	-4.79
358.008	-11.91
358.219	11.27
358.431	11.37
358.642	29.06
358.854	41.62
359.065	42.96
359.277	7.73
359.488	-7.99
359.7	-36.22
359.911	-73.99
360.123	-55.34
360.334	-63.38
360.546	-71.44
360.757	-63.7
360.969	-52.13
361.18	-37.96
361.391	-25
361.603	-31.74
361.814	-16.65
362.025	-23.8
362.237	-31.82
362.448	-19.95
362.659	1.77
362.871	-8.33
363.082	-12.92
363.293	-8.71
363.504	-25.76
363.716	-43.7
363.927	-42.7
364.138	-49.88
364.349	-61.93
364.56	-41.24
364.772	-29.41
364.983	-14.93
365.194	-8.35
365.405	4.19
365.616	17.54
365.827	14.63
366.038	-7.93
366.25	-8.89
366.461	-46.09
366.672	-31.19
366.883	-7.44
367.094	4.97
367.305	1.37
367.516	17.41
367.727	-7.07
367.938	-18.6
368.149	-17.19
368.36	-13.7
368.571	-9.96
368.781	-16.83
368.992	-29.97
369.203	-49.06
369.414	-74.07
369.625	-86.55
369.836	-82.65
370.047	-108.98
370.258	-73.83
370.468	-67.84
370.679	-78.39
370.89	-64.28
371.101	-32.17
371.312	-52.03
371.522	-39
371.733	-13.93
371.944	-5.31
372.155	0.84
372.365	3.67
372.576	2.8
372.787	-15.21
372.997	-33.04
373.208	-41.57
373.419	-6.15
373.629	-32.69
373.84	-20.47
374.05	-30.13
374.261	-12.28
374.472	-40.35
374.682	15.64
374.893	13.24
375.103	47.84
375.314	31.16
375.524	30.83
375.735	22.69
375.945	31.38
376.156	-3.06
376.366	6.91
376.577	7.8
376.787	-11.46
376.997	-14.3
377.208	-8.16
377.418	-22.23
377.629	-19.83
377.839	-10.91
378.049	-12.41
378.26	9.51
378.47	20.19
378.68	13.77
378.89	11.07
379.101	1.88
379.311	-39.2
379.521	-77.07
379.732	-65.44
379.942	-56.38
380.152	-61.15
380.362	-18.92
380.572	-13.41
380.783	-3.35
380.993	3.14
381.203	17
381.413	23.21
381.623	32.36
381.833	19.9
382.043	10.06
382.253	-1.63
382.463	-3.02
382.674	-19.05
382.884	-44.11
383.094	-35.42
383.304	-20.86
383.514	-21.98
383.724	2.09
383.934	7.24
384.144	-4.45
384.353	-16.54
384.563	-12.48
384.773	-17.32
384.983	-20.71
385.193	0.19
385.403	5.33
385.613	2.76
385.823	-5.55
386.033	3.5
386.242	-10.4
386.452	-15.69
386.662	-22.6
386.872	-8.99
387.082	-13.42
387.291	-17.36
387.501	-14.31
387.711	-10.36
387.921	-17.67
388.13	-14.26
388.34	3.54
388.55	-2.89
388.759	-6.44
388.969	-3.83
389.179	-7.26
389.388	-16.02
389.598	-9.02
389.807	-12.17
390.017	-14.56
390.227	-13.71
390.436	-13.51
390.646	-12.12
390.855	-4.44
391.065	-1.08
391.274	-1.28
391.484	-1.56
391.693	1.23
391.903	0.67
392.112	3.53
392.322	7.11
392.531	11
392.74	9.19
392.95	3.51
393.159	-0.33
393.369	-1.01
393.578	-3.24
393.787	-4.24
393.997	-1.81
394.206	-1.54
394.415	-1.71
394.625	-2.61
394.834	-4.03
395.043	-2.9
395.252	0.17
395.462	2.46
395.671	3.39
395.88	4.32
396.089	4.97
396.298	2.09
396.508	0.51
396.717	0.69
396.926	1.75
397.135	1.02
397.344	0.78
397.553	1.52
397.762	2.41
397.971	2.1
398.181	2.07
398.39	2.25
398.599	1.79
398.808	1.36
399.017	2.28
399.226	3.72
399.435	4.88
399.644	5.22
399.853	4.42
400.062	3.84
400.27	2.98
400.479	2.38
400.688	1.55
400.897	2.3
401.106	2.32
401.315	2.5
401.524	2.6
401.733	3.33
401.941	3.76
402.15	3.76
402.359	3.34
402.568	3.81
402.777	3.89
402.985	3.35
403.194	3.3
403.403	3.54
403.612	2.91
403.82	2.51
404.029	2.64
404.238	2.55
404.446	2.75
404.655	2.58
404.864	2.74
405.072	2.45
405.281	2.74
405.489	2.43
405.698	2.68
405.906	2.65
406.115	2.91
406.324	2.76
406.532	2.95
406.741	3.26
406.949	3.2
407.158	3.07
407.366	3.18
407.574	3.12
407.783	2.93
407.991	2.85
408.2	3.11
408.408	2.84
408.617	2.71
408.825	2.44
409.033	2.55
409.242	2.56
409.45	2.7
409.658	2.81
409.867	3.01
410.075	2.86
410.283	2.62
410.491	2.61
410.7	2.4
410.908	2.42
411.116	2.79
411.324	2.84
411.533	2.75
411.741	3.09
411.949	2.98
412.157	2.56
412.365	2.5
412.573	2.44
412.781	2.38
412.99	2.37
413.198	2.62
413.406	2.65
413.614	2.73
413.822	2.61
414.03	2.55
414.238	2.35
414.446	2.4
414.654	2.2
414.862	2.23
415.07	2.3
415.278	2.59
415.486	2.36
415.694	2.54
415.902	2.45
416.109	2.42
416.317	2.2
416.525	2.12
416.733	2.06
416.941	2.21
417.149	2.19
417.357	2.28
417.564	2.47
417.772	2.73
417.98	2.58
418.188	2.6
418.395	2.56
418.603	2.71
418.811	2.27
419.019	2.22
419.226	2.45
419.434	2.55
419.642	2.38
419.849	2.66
420.057	2.66
420.265	2.44
420.472	2.11
420.68	2.14
420.887	2.13
421.095	2.25
421.302	2.2
421.51	2.55
421.717	2.51
421.925	2.45
422.132	2.23
422.34	2.02
422.547	1.76
422.755	1.72
422.962	1.59
423.17	1.56
423.377	1.75
423.585	2.02
423.792	1.93
423.999	2.08
424.207	2.04
424.414	2
424.621	1.91
424.829	2.19
425.036	2.05
425.243	2.35
425.451	2.26
425.658	2.07
425.865	2.14
426.072	2.23
426.28	2.37
426.487	2.48
426.694	2.61
426.901	2.25
427.108	2.21
427.315	2.01
427.523	2.25
427.73	2.21
427.937	2.28
428.144	2.18
428.351	2.06
428.558	2.15
428.765	2.11
428.972	2.07
429.179	2.27
429.386	2.55
429.593	2.16
429.8	2.06
430.007	2.27
430.214	2.37
430.421	2.16
430.628	2.18
430.835	2.13
431.042	2.15
431.249	2.09
431.456	2.02
431.662	2.2
431.869	2.37
432.076	2.4
432.283	2.41
432.49	2.45
432.697	2.39
432.903	2.16
433.11	2.06
433.317	2.19
433.524	2.43
433.73	2.35
433.937	2.65
434.144	2.55
434.35	2.38
434.557	2.22
434.764	2.27
434.97	2.18
435.177	2.4
435.384	2.31
435.59	2.37
435.797	2.59
436.003	2.68
436.21	2.64
436.416	2.91
436.623	2.89
436.829	2.96
437.036	3.03
437.242	3.07
437.449	2.89
437.655	2.89
437.862	2.78
438.068	2.68
438.275	2.76
438.481	3
438.687	3.04
438.894	3.04
439.1	3.06
439.307	3.22
439.513	3.09
439.719	3.08
439.926	3.16
440.132	3.18
440.338	2.88
440.544	3.05
440.751	3.04
440.957	3.1
441.163	3.03
441.369	3.29
441.575	3.08
441.782	3.17
441.988	2.97
442.194	2.98
442.4	2.86
442.606	3.19
442.812	3.22
443.018	3.39
443.224	3.56
443.431	3.67
443.637	3.35
443.843	3.25
444.049	3.23
444.255	3.07
444.461	3.08
444.667	3.08
444.873	3.15
445.079	3.1
445.284	3.24
445.49	3.07
445.696	2.97
445.902	2.94
446.108	2.91
446.314	2.85
446.52	2.87
446.726	3.15
446.931	3.09
447.137	3.22
447.343	3.24
447.549	3.23
447.755	3.05
447.96	3.17
448.166	2.98
448.372	3.01
448.578	3.09
448.783	3.14
448.989	3.21
449.195	3.53
449.4	3.48
449.606	3.41
449.812	3.39
450.017	3.39
450.223	3.21
450.428	3.18
450.634	3.3
450.84	3.37
451.045	3.34
451.251	3.31
451.456	3.58
451.662	3.62
451.867	3.71
452.073	3.66
452.278	3.78
452.483	3.9
452.689	3.76
452.894	3.8
453.1	3.84
453.305	3.81
453.51	3.61
453.716	3.62
453.921	3.57
454.127	3.54
454.332	3.43
454.537	3.32
454.742	3.39
454.948	3.37
455.153	3.4
455.358	3.57
455.563	3.77
455.769	3.82
455.974	3.79
456.179	3.76
456.384	3.68
456.589	3.58
456.795	3.36
457	3.4
457.205	3.69
457.41	3.68
457.615	3.69
457.82	3.86
458.025	3.92
458.23	3.7
458.435	3.7
458.64	3.6
458.845	3.77
459.05	3.7
459.255	3.72
459.46	3.68
459.665	3.73
459.87	3.65
460.075	3.63
460.28	3.63
460.485	3.8
460.69	3.82
460.895	3.69
461.099	3.64
461.304	3.79
461.509	3.77
461.714	3.72
461.919	3.9
462.123	3.87
462.328	3.84
462.533	3.72
462.738	3.84
462.942	3.71
463.147	3.85
463.352	3.86
463.556	3.9
463.761	3.94
463.966	4.01
464.17	4.01
464.375	3.9
464.58	3.92
464.784	3.76
464.989	3.68
465.193	3.75
465.398	3.75
465.602	3.88
465.807	4.03
466.011	4.12
466.216	4.1
466.42	4.14
466.625	4.14
466.829	4.16
467.034	4.22
467.238	4.39
467.443	4.34
467.647	4.19
467.851	4.32
468.056	4.3
468.26	4.1
468.464	4.15
468.669	4.3
468.873	4.32
469.077	4.27
469.282	4.43
469.486	4.59
469.69	4.61
469.894	4.43
470.099	4.54
470.303	4.63
470.507	4.54
470.711	4.42
470.915	4.43
471.119	4.34
471.324	4.18
471.528	4.17
471.732	4.32
471.936	4.32
472.14	4.42
472.344	4.5
472.548	4.52
472.752	4.63
472.956	4.91
473.16	4.9
473.364	4.81
473.568	4.85
473.772	4.82
473.976	4.72
474.18	4.68
474.384	4.79
474.588	4.77
474.792	4.67
474.995	4.67
475.199	4.85
475.403	4.87
475.607	4.91
475.811	4.92
476.015	5.04
476.218	5.02
476.422	5.03
476.626	5.14
476.83	5.32
477.033	5.16
477.237	5.04
477.441	5.06
477.644	5.04
477.848	4.94
478.052	5
478.255	5.03
478.459	4.99
478.663	5.11
478.866	5.11
479.07	5.08
479.273	5.28
479.477	5.35
479.681	5.23
479.884	5.26
480.088	5.3
480.291	5.14
480.495	5.19
480.698	5.19
480.901	5.22
481.105	5.32
481.308	5.4
481.512	5.37
481.715	5.49
481.919	5.48
482.122	5.49
482.325	5.46
482.529	5.48
482.732	5.4
482.935	5.41
483.138	5.37
483.342	5.52
483.545	5.58
483.748	5.65
483.952	5.71
484.155	5.84
484.358	5.83
484.561	5.84
484.764	5.86
484.967	5.89
485.171	5.94
485.374	5.84
485.577	5.88
485.78	5.91
485.983	5.9
486.186	5.79
486.389	5.82
486.592	5.75
486.795	5.76
486.998	5.71
487.201	5.76
487.404	5.88
487.607	5.98
487.81	5.96
488.013	6.04
488.216	6.04
488.419	5.95
488.622	5.88
488.825	5.85
489.028	5.77
489.231	5.7
489.433	5.71
489.636	5.67
489.839	5.67
490.042	5.6
490.245	5.6
490.447	5.59
490.65	5.63
490.853	5.65
491.056	5.77
491.258	5.86
491.461	5.93
491.664	6.04
491.866	6
492.069	6.12
492.272	6.04
492.474	6.06
492.677	6
492.879	6.17
493.082	6.17
493.285	6.35
493.487	6.35
493.69	6.3
493.892	6.2
494.095	6.16
494.297	6.06
494.5	6.05
494.702	6.14
494.905	6.12
495.107	6.09
495.309	6.18
495.512	6.23
495.714	6.3
495.917	6.37
496.119	6.39
496.321	6.41
496.524	6.41
496.726	6.38
496.928	6.39
497.13	6.44
497.333	6.43
497.535	6.46
497.737	6.43
497.939	6.4
498.142	6.38
498.344	6.31
498.546	6.22
498.748	6.32
498.95	6.43
499.152	6.39
499.355	6.48
499.557	6.64
499.759	6.69
499.961	6.62
500.163	6.71
500.365	6.71
500.567	6.79
500.769	6.74
500.971	6.85
501.173	6.8
501.375	6.8
501.577	6.66
501.779	6.62
501.981	6.65
502.183	6.7
502.385	6.72
502.587	6.76
502.788	6.86
502.99	6.86
503.192	6.98
503.394	7
503.596	7.08
503.798	7.16
503.999	7.21
504.201	7.15
504.403	7.21
504.605	7.22
504.806	7.14
505.008	7.14
505.21	7.2
505.411	7.26
505.613	7.24
505.815	7.29
506.016	7.38
506.218	7.49
506.42	7.45
506.621	7.55
506.823	7.64
507.024	7.57
507.226	7.55
507.427	7.6
507.629	7.59
507.83	7.61
508.032	7.64
508.233	7.71
508.435	7.74
508.636	7.86
508.838	7.85
509.039	7.87
509.24	7.85
509.442	7.9
509.643	7.83
509.845	7.88
510.046	7.99
510.247	8.01
510.448	8.01
510.65	8.11
510.851	8.19
511.052	8.15
511.254	8.15
511.455	8.29
511.656	8.33
511.857	8.47
512.058	8.57
512.26	8.57
512.461	8.51
512.662	8.57
512.863	8.37
513.064	8.33
513.265	8.41
513.466	8.5
513.667	8.47
513.868	8.56
514.069	8.63
514.27	8.71
514.471	8.67
514.672	8.7
514.873	8.67
515.074	8.77
515.275	8.7
515.476	8.73
515.677	8.73
515.878	8.95
516.079	8.89
516.28	8.94
516.481	9.06
516.682	9.15
516.882	9.02
517.083	9.08
517.284	9.04
517.485	8.97
517.686	8.92
517.886	8.97
518.087	8.99
518.288	9.11
518.488	9.14
518.689	9.2
518.89	9.14
519.091	9.19
519.291	9.16
519.492	9.22
519.692	9.22
519.893	9.38
520.094	9.36
520.294	9.35
520.495	9.33
520.695	9.44
520.896	9.37
521.096	9.43
521.297	9.5
521.497	9.58
521.698	9.53
521.898	9.51
522.099	9.52
522.299	9.64
522.499	9.65
522.7	9.68
522.9	9.71
523.101	9.78
523.301	9.76
523.501	9.75
523.702	9.78
523.902	9.92
524.102	9.99
524.302	9.93
524.503	9.98
524.703	10.05
524.903	10.04
525.103	9.98
525.304	10.1
525.504	10.17
525.704	10.23
525.904	10.21
526.104	10.2
526.304	10.19
526.504	10.2
526.705	10.16
526.905	10.28
527.105	10.38
527.305	10.34
527.505	10.29
527.705	10.35
527.905	10.34
528.105	10.32
528.305	10.3
528.505	10.39
528.705	10.48
528.905	10.42
529.105	10.41
529.304	10.59
529.504	10.68
529.704	10.61
529.904	10.66
530.104	10.7
530.304	10.74
530.503	10.67
530.703	10.66
530.903	10.73
531.103	10.78
531.303	10.74
531.502	10.77
531.702	10.89
531.902	10.91
532.101	10.92
532.301	10.93
532.501	11.04
532.7	11.01
532.9	11.03
533.1	11.07
533.299	11.11
533.499	11.05
533.698	11.04
533.898	11.01
534.097	11.04
534.297	11.13
534.496	11.07
534.696	11.15
534.895	11.28
535.095	11.36
535.294	11.29
535.494	11.35
535.693	11.37
535.892	11.36
536.092	11.28
536.291	11.3
536.491	11.43
536.69	11.49
536.889	11.49
537.088	11.55
537.288	11.65
537.487	11.73
537.686	11.78
537.886	11.85
538.085	11.92
538.284	12.04
538.483	12.01
538.682	12.09
538.882	12.1
539.081	12.2
539.28	12.08
539.479	12.06
539.678	11.96
539.877	12.08
540.076	12.1
540.275	12.2
540.474	12.35
540.673	12.48
540.872	12.49
541.071	12.53
541.27	12.54
541.469	12.58
541.668	12.58
541.867	12.63
542.066	12.7
542.265	12.77
542.464	12.77
542.663	12.82
542.862	12.95
543.06	13.02
543.259	13.1
543.458	13.18
543.657	13.24
543.856	13.24
544.054	13.23
544.253	13.26
544.452	13.24
544.651	13.36
544.849	13.37
545.048	13.44
545.247	13.47
545.445	13.59
545.644	13.59
545.843	13.62
546.041	13.67
546.24	13.8
546.438	13.9
546.637	13.99
546.836	14.15
547.034	14.25
547.233	14.27
547.431	14.26
547.63	14.33
547.828	14.38
548.027	14.39
548.225	14.44
548.423	14.49
548.622	14.63
548.82	14.64
549.019	14.76
549.217	14.93
549.415	15.06
549.614	15.07
549.812	15.13
550.01	15.17
550.209	15.21
550.407	15.26
550.605	15.33
550.803	15.48
551.002	15.6
551.2	15.61
551.398	15.72
551.596	15.83
551.794	15.89
551.993	15.97
552.191	16.1
552.389	16.24
552.587	16.33
552.785	16.48
552.983	16.59
553.181	16.79
553.379	16.86
553.577	16.96
553.775	16.98
553.973	17.02
554.171	17.06
554.369	17.1
554.567	17.14
554.765	17.24
554.963	17.33
555.161	17.3
555.359	17.45
555.557	17.69
555.755	17.77
555.952	17.96
556.15	18.1
556.348	18.18
556.546	18.24
556.744	18.35
556.941	18.44
557.139	18.62
557.337	18.77
557.535	18.78
557.732	18.91
557.93	18.99
558.128	19.04
558.325	19.08
558.523	19.17
558.721	19.31
558.918	19.46
559.116	19.58
559.313	19.64
559.511	19.8
559.708	19.81
559.906	19.84
560.104	19.91
560.301	20.07
560.498	20.13
560.696	20.26
560.893	20.4
561.091	20.54
561.288	20.66
561.486	20.84
561.683	20.93
561.88	20.99
562.078	21.05
562.275	21.07
562.473	21.14
562.67	21.35
562.867	21.56
563.064	21.75
563.262	21.81
563.459	21.9
563.656	22.02
563.853	22.11
564.051	22.26
564.248	22.59
564.445	22.76
564.642	22.8
564.839	22.89
565.036	23.02
565.234	23.14
565.431	23.19
565.628	23.34
565.825	23.47
566.022	23.56
566.219	23.55
566.416	23.65
566.613	23.73
566.81	23.8
567.007	23.83
567.204	23.91
567.401	24.04
567.598	24.11
567.795	24.26
567.991	24.38
568.188	24.49
568.385	24.66
568.582	24.85
568.779	24.89
568.976	24.94
569.172	25.13
569.369	25.13
569.566	25.11
569.763	25.14
569.96	25.21
570.156	25.13
570.353	25.13
570.55	25.24
570.746	25.28
570.943	25.37
571.14	25.52
571.336	25.57
571.533	25.64
571.729	25.66
571.926	25.68
572.123	25.69
572.319	25.78
572.516	25.76
572.712	25.85
572.909	25.96
573.105	26.07
573.302	26.07
573.498	26.23
573.695	26.22
573.891	26.16
574.087	26.07
574.284	26.09
574.48	26.02
574.677	26.11
574.873	26.2
575.069	26.34
575.266	26.41
575.462	26.38
575.658	26.42
575.854	26.53
576.051	26.51
576.247	26.49
576.443	26.55
576.639	26.49
576.835	26.43
577.032	26.35
577.228	26.57
577.424	26.68
577.62	26.72
577.816	26.76
578.012	26.86
578.208	26.71
578.404	26.75
578.6	26.81
578.796	26.79
578.993	26.77
579.189	26.69
579.384	26.49
579.58	26.32
579.776	26.27
579.972	26.23
580.168	26.25
580.364	26.36
580.56	26.37
580.756	26.38
580.952	26.44
581.148	26.51
581.343	26.5
581.539	26.69
581.735	26.74
581.931	26.77
582.127	26.79
582.322	26.71
582.518	26.68
582.714	26.65
582.909	26.65
583.105	26.63
583.301	26.72
583.496	26.68
583.692	26.62
583.888	26.57
584.083	26.54
584.279	26.52
584.474	26.44
584.67	26.5
584.866	26.49
585.061	26.32
585.257	26.4
585.452	26.47
585.648	26.37
585.843	26.42
586.039	26.66
586.234	26.65
586.429	26.56
586.625	26.73
586.82	26.62
587.015	26.56
587.211	26.38
587.406	26.42
587.601	26.32
587.797	26.4
587.992	26.42
588.187	26.57
588.383	26.6
588.578	26.61
588.773	26.64
588.968	26.58
589.163	26.67
589.359	26.65
589.554	26.73
589.749	26.79
589.944	26.88
590.139	26.88
590.334	26.94
590.529	26.94
590.724	26.92
590.919	26.99
591.114	27.01
591.309	27.12
591.504	27.11
591.699	27.09
591.894	27.18
592.089	27.14
592.284	27.2
592.479	27.32
592.674	27.41
592.869	27.41
593.064	27.5
593.259	27.61
593.454	27.8
593.648	27.77
593.843	27.76
594.038	27.85
594.233	27.85
594.428	27.81
594.622	27.98
594.817	28.12
595.012	28.13
595.206	28.17
595.401	28.16
595.596	28.22
595.79	28.31
595.985	28.45
596.18	28.61
596.374	28.76
596.569	28.89
596.763	28.92
596.958	28.96
597.153	28.97
597.347	28.93
597.542	28.97
597.736	28.93
597.931	29.02
598.125	29.05
598.319	29.32
598.514	29.3
598.708	29.51
598.903	29.4
599.097	29.51
599.291	29.46
599.486	29.5
599.68	29.49
599.874	29.75
600.069	29.72
600.263	29.73
600.457	29.85
600.651	29.95
600.846	30.06
601.04	30.21
601.234	30.3
601.428	30.41
601.622	30.48
601.817	30.35
602.011	30.34
602.205	30.39
602.399	30.34
602.593	30.24
602.787	30.27
602.981	30.2
603.175	30.23
603.369	30.13
603.563	30.24
603.757	30.34
603.951	30.33
604.145	30.26
604.339	30.4
604.533	30.2
604.727	30.14
604.921	30.17
605.115	30.26
605.309	30.25
605.502	30.34
605.696	30.21
605.89	30.18
606.084	29.99
606.278	29.96
606.471	29.92
606.665	29.82
606.859	29.7
607.053	29.69
607.246	29.57
607.44	29.59
607.634	29.59
607.827	29.67
608.021	29.59
608.214	29.47
608.408	29.31
608.602	29.31
608.795	29.23
608.989	29.19
609.182	29.15
609.376	29.12
609.569	29.01
609.763	28.86
609.956	28.78
610.15	28.79
610.343	28.71
610.537	28.75
610.73	28.77
610.923	28.72
611.117	28.63
611.31	28.49
611.504	28.37
611.697	28.24
611.89	28.18
612.083	28.09
612.277	28.03
612.47	27.87
612.663	27.86
612.856	27.85
613.05	27.75
613.243	27.67
613.436	27.61
613.629	27.47
613.822	27.24
614.015	27.2
614.209	27.18
614.402	27.27
614.595	27.19
614.788	27.22
614.981	27.11
615.174	26.92
615.367	26.77
615.56	26.72
615.753	26.67
615.946	26.66
616.139	26.75
616.332	26.83
616.525	26.84
616.718	26.75
616.911	26.72
617.103	26.67
617.296	26.52
617.489	26.43
617.682	26.41
617.875	26.4
618.067	26.29
618.26	26.17
618.453	26.18
618.646	26.21
618.838	26.21
619.031	26.36
619.224	26.36
619.417	26.32
619.609	26.2
619.802	26.12
619.994	26.02
620.187	26.02
620.38	25.98
620.572	25.88
620.765	25.85
620.957	25.77
621.15	25.68
621.342	25.61
621.535	25.68
621.727	25.59
621.92	25.46
622.112	25.42
622.305	25.47
622.497	25.39
622.69	25.37
622.882	25.45
623.074	25.58
623.267	25.49
623.459	25.52
623.651	25.51
623.844	25.5
624.036	25.45
624.228	25.42
624.42	25.4
624.613	25.46
624.805	25.36
624.997	25.23
625.189	25.18
625.381	25.14
625.574	25.07
625.766	25.12
625.958	25.16
626.15	25.27
626.342	25.24
626.534	25.31
626.726	25.3
626.918	25.33
627.11	25.15
627.302	25.13
627.494	25
627.686	24.96
627.878	24.76
628.07	24.83
628.262	24.75
628.454	24.79
628.646	24.8
628.838	24.83
629.029	24.77
629.221	24.87
629.413	24.79
629.605	24.67
629.797	24.66
629.989	24.63
630.18	24.53
630.372	24.46
630.564	24.4
630.755	24.38
630.947	24.45
631.139	24.3
631.33	24.21
631.522	24.37
631.714	24.37
631.905	24.27
632.097	24.24
632.289	24.32
632.48	24.09
632.672	24.02
632.863	23.89
633.055	23.87
633.246	23.78
633.438	23.81
633.629	23.79
633.821	23.89
634.012	23.96
634.203	23.92
634.395	23.92
634.586	23.98
634.777	23.79
634.969	23.77
635.16	23.85
635.351	23.79
635.543	23.71
635.734	23.84
635.925	23.82
636.117	23.87
636.308	23.87
636.499	23.8
636.69	23.62
636.881	23.52
637.073	23.44
637.264	23.36
637.455	23.42
637.646	23.61
637.837	23.74
638.028	23.68
638.219	23.77
638.41	23.7
638.601	23.6
638.792	23.54
638.983	23.49
639.174	23.35
639.365	23.31
639.556	23.24
639.747	23.12
639.938	23.2
640.129	23.23
640.32	23.24
640.511	23.29
640.701	23.49
640.892	23.39
641.083	23.39
641.274	23.43
641.465	23.34
641.655	23.17
641.846	23.19
642.037	23.1
642.228	22.98
642.418	23.11
642.609	23.13
642.8	23.09
642.99	23.07
643.181	23.11
643.372	23.04
643.562	22.88
643.753	22.75
643.943	22.66
644.134	22.49
644.324	22.36
644.515	22.33
644.705	22.45
644.896	22.46
645.086	22.52
645.277	22.54
645.467	22.61
645.658	22.43
645.848	22.4
646.038	22.38
646.229	22.23
646.419	22.1
646.61	22.12
646.8	22.05
646.99	21.96
647.18	21.85
647.371	21.78
647.561	21.67
647.751	21.68
647.941	21.62
648.132	21.66
648.322	21.62
648.512	21.69
648.702	21.65
648.892	21.69
649.082	21.62
649.272	21.53
649.462	21.28
649.653	21.2
649.843	21.07
650.033	21.13
650.223	21.11
650.413	21.1
650.603	21.11
650.793	21.02
650.983	20.93
651.172	20.83
651.362	20.81
651.552	20.64
651.742	20.53
651.932	20.46
652.122	20.48
652.312	20.52
652.502	20.53
652.691	20.53
652.881	20.41
653.071	20.37
653.261	20.18
653.45	20.01
653.64	20.05
653.83	19.89
654.019	19.73
654.209	19.52
654.399	19.43
654.588	19.17
654.778	19.03
654.968	18.83
655.157	18.83
655.347	18.66
655.536	18.51
655.726	18.45
655.915	18.29
656.105	18.13
656.294	17.96
656.484	17.79
656.673	17.54
656.863	17.41
657.052	17.12
657.241	16.87
657.431	16.63
657.62	16.46
657.809	16.2
657.999	16.09
658.188	16
658.377	15.8
658.567	15.66
658.756	15.46
658.945	15.24
659.134	14.98
659.324	14.85
659.513	14.66
659.702	14.42
659.891	14.27
660.08	14.16
660.269	14.01
660.458	13.82
660.648	13.78
660.837	13.53
661.026	13.39
661.215	13.25
661.404	13
661.593	12.86
661.782	12.62
661.971	12.5
662.16	12.29
662.349	12.22
662.538	11.93
662.726	11.96
662.915	11.71
663.104	11.59
663.293	11.51
663.482	11.52
663.671	11.39
663.86	11.32
664.048	11.15
664.237	10.99
664.426	10.66
664.615	10.49
664.803	10.28
664.992	10.18
665.181	10.02
665.369	9.96
665.558	9.82
665.747	9.77
665.935	9.75
666.124	9.75
666.312	9.75
666.501	9.66
666.69	9.51
666.878	9.31
667.067	9.2
667.255	9.18
667.444	9.42
667.632	9.47
667.82	9.58
668.009	9.5
668.197	9.49
668.386	9.25
668.574	9.31
668.762	9.17
668.951	9.07
669.139	8.87
669.327	8.67
669.516	8.64
669.704	8.58
669.892	8.79
670.08	8.82
670.269	8.91
670.457	8.79
670.645	8.75
670.833	8.72
671.021	8.73
671.21	8.8
671.398	8.96
671.586	8.91
671.774	8.76
671.962	8.75
672.15	8.65
672.338	8.5
672.526	8.61
672.714	8.59
672.902	8.66
673.09	8.88
673.278	9.06
673.466	9.06
673.654	9.19
673.842	9.18
674.03	9.13
674.218	8.96
674.405	9.02
674.593	8.98
674.781	9.13
674.969	9.1
675.157	9.29
675.344	9.42
675.532	9.53
675.72	9.56
675.908	9.65
676.095	9.58
676.283	9.63
676.471	9.81
676.658	9.85
676.846	9.9
677.033	10.07
677.221	10.17
677.409	10.09
677.596	10.15
677.784	10.25
677.971	10.36
678.159	10.38
678.346	10.42
678.534	10.57
678.721	10.79
678.909	10.8
679.096	10.8
679.283	11.06
679.471	11.18
679.658	11.25
679.846	11.45
680.033	11.79
680.22	11.9
680.408	11.91
680.595	12.01
680.782	12.06
680.969	12.24
681.157	12.25
681.344	12.48
681.531	12.56
681.718	12.66
681.905	12.74
682.093	13
682.28	13.23
682.467	13.6
682.654	13.82
682.841	13.99
683.028	14.28
683.215	14.49
683.402	14.49
683.589	14.8
683.776	15.16
683.963	15.27
684.15	15.59
684.337	15.91
684.524	16.14
684.711	16.36
684.898	16.65
685.085	16.9
685.271	17.34
685.458	17.71
685.645	17.97
685.832	18.37
686.019	18.76
686.205	19.04
686.392	19.42
686.579	19.87
686.766	20.37
686.952	20.7
687.139	21.39
687.326	21.62
687.512	21.96
687.699	22.25
687.886	22.69
688.072	22.85
688.259	23.49
688.445	24.14
688.632	24.66
688.818	25.52
689.005	25.97
689.191	26.56
689.378	27.1
689.564	27.88
689.751	28.12
689.937	28.79
690.124	29.46
690.31	29.98
690.496	30.43
690.683	31.2
690.869	31.76
691.055	32.22
691.242	33.03
691.428	33.72
691.614	34.31
691.8	35.21
691.987	36.15
692.173	36.87
692.359	37.57
692.545	38.2
692.731	38.76
692.918	39.16
693.104	39.41
693.29	40.08
693.476	40.86
693.662	41.49
693.848	42.19
694.034	43.15
694.22	43.4
694.406	44.08
694.592	44.93
694.778	45.63
694.964	46.03
695.15	46.91
695.336	47.53
695.522	48.37
695.708	48.86
695.894	49.74
696.08	50.45
696.265	50.94
696.451	51.38
696.637	52.14
696.823	52.69
697.009	53.44
697.194	54.02
697.38	54.41
697.566	54.8
697.751	55.45
697.937	56.08
698.123	56.94
698.308	57.59
698.494	58.46
698.68	59.07
698.865	59.41
699.051	59.79
699.236	60.23
699.422	60.41
699.607	60.64
699.793	61.27
699.978	61.82
700.164	62.43
700.349	63.19
700.535	63.79
700.72	63.87
700.906	64.57
701.091	64.91
701.276	65.31
701.462	66.09
701.647	67.21
701.832	67.43
702.018	67.91
702.203	68.11
702.388	67.96
702.573	68.06
702.759	68.69
702.944	68.88
703.129	69.29
703.314	69.93
703.499	70.29
703.684	70.34
703.87	71.5
704.055	72.25
704.24	72.61
704.425	73.04
704.61	73.42
704.795	73
704.98	72.95
705.165	73.07
705.35	73.16
705.535	73.28
705.72	73.75
705.905	74.39
706.09	75.2
706.275	75.62
706.459	75.73
706.644	75.77
706.829	75.94
707.014	75.79
707.199	76.1
707.384	76.61
707.568	76.92
707.753	77.44
707.938	77.82
708.123	78.01
708.307	78.19
708.492	78.51
708.677	78.37
708.861	78.4
709.046	78.44
709.231	79.04
709.415	79.51
709.6	79.47
709.784	79.31
709.969	79.64
710.153	79.07
710.338	79.12
710.522	79.6
710.707	80
710.891	80.07
711.076	80.37
711.26	80.26
711.445	80.32
711.629	80.58
711.813	80.76
711.998	81.46
712.182	81.32
712.366	81.99
712.551	82.75
712.735	82.54
712.919	82.12
713.103	82.79
713.288	82.16
713.472	81.6
713.656	82.5
713.84	82.91
714.024	83.06
714.208	83.33
714.393	83.77
714.577	83.81
714.761	83.77
714.945	83.56
715.129	83.85
715.313	83.93
715.497	83.74
715.681	84.88
715.865	84.86
716.049	84.96
716.233	84.86
716.417	85.07
716.601	84.53
716.785	84.89
716.968	85.47
717.152	85.53
717.336	85.54
717.52	85.49
717.704	85.67
717.888	85.7
718.071	85.71
718.255	86.13
718.439	85.88
718.622	86.17
718.806	86.53
718.99	86.35
719.174	85.96
719.357	86.03
719.541	86.12
719.724	85.52
719.908	86.65
720.092	87.19
720.275	87.77
720.459	87.37
720.642	87.44
720.826	86.36
721.009	85.94
721.193	85.31
721.376	85.57
721.559	85.55
721.743	86.45
721.926	87
722.11	87.65
722.293	87.29
722.476	86.97
722.66	86.35
722.843	85.96
723.026	85.35
723.21	86.08
723.393	87.16
723.576	87.54
723.759	87.43
723.942	88.09
724.126	87.55
724.309	87.13
724.492	87.3
724.675	87.44
724.858	87.25
725.041	88.02
725.224	88.31
725.407	88.59
725.59	89.09
725.774	89.47
725.957	88.63
726.14	88.31
726.322	88.27
726.505	87.57
726.688	87.87
726.871	88.09
727.054	88.1
727.237	88.01
727.42	88.57
727.603	88.55
727.786	88.72
727.968	89.09
728.151	89.13
728.334	89.13
728.517	89.05
728.699	89.77
728.882	89.46
729.065	89.61
729.248	89.93
729.43	90.39
729.613	90.8
729.796	91.44
729.978	90.89
730.161	90.45
730.343	89.13
730.526	88.73
730.708	87.89
730.891	88.65
731.073	88.59
731.256	89.46
731.438	89.49
731.621	90.8
731.803	89.96
731.986	89.96
732.168	89.27
732.35	89.27
732.533	87.78
732.715	89.31
732.898	90.45
733.08	91.07
733.262	91.09
733.444	91.71
733.627	91.22
733.809	91.23
733.991	92.09
734.173	91.8
734.355	91.53
734.538	91.74
734.72	90.9
734.902	90.85
735.084	91.27
735.266	91.46
735.448	91.11
735.63	91.47
735.812	91.11
735.994	91.64
736.176	93.01
736.358	93.08
736.54	93.33
736.722	92.13
736.904	91.99
737.086	91.04
737.268	91.49
737.45	91.52
737.632	92.04
737.814	91.07
737.995	91.19
738.177	90.14
738.359	89.38
738.541	90.23
738.723	91.16
738.904	91.44
739.086	92.56
739.268	93.33
739.449	93.57
739.631	92.62
739.813	92.91
739.994	92.68
740.176	93.32
740.358	93.08
740.539	94.25
740.721	94.78
740.902	95.64
741.084	94.32
741.265	94.1
741.447	93.91
741.628	93.46
741.81	91.76
741.991	93.07
742.172	93.95
742.354	94.13
742.535	93.82
742.717	94.63
742.898	94.53
743.079	94.73
743.261	94.34
743.442	93.28
743.623	93.99
743.804	93.84
743.986	93.95
744.167	92.58
744.348	93.26
744.529	92.8
744.71	91.51
744.891	90.3
745.073	90.1
745.254	89.97
745.435	90.25
745.616	90.16
745.797	90.11
745.978	90.33
746.159	90.29
746.34	88.55
746.521	90.56
746.702	89.72
746.883	90.83
747.064	90.4
747.245	91.11
747.426	89.9
747.606	91.46
747.787	91.24
747.968	92.83
748.149	93.24
748.33	93.86
748.51	92.88
748.691	92.65
748.872	92.64
749.053	92.87
749.233	91.51
749.414	91.38
749.595	89.99
749.775	87.69
749.956	86.92
750.137	87.66
750.317	89.17
750.498	92.21
750.678	93.14
750.859	94.27
751.04	93.59
751.22	91.94
751.4	89.8
751.581	89.18
751.761	89.22
751.942	89.91
752.122	89.4
752.303	90.05
752.483	90.26
752.663	89.26
752.844	88.48
753.024	89.72
753.204	89.47
753.385	88.76
753.565	89.13
753.745	89.31
753.925	88.12
754.106	87.84
754.286	89.25
754.466	88.59
754.646	89.51
754.826	90.02
755.006	89.57
755.187	88.3
755.367	88.08
755.547	87.56
755.727	88.17
755.907	89.02
756.087	91.46
756.267	91.22
756.447	90.25
756.627	89.06
756.807	89.33
756.987	87.97
757.167	88.9
757.346	89.62
757.526	89.2
757.706	89.09
757.886	88.83
758.066	89.72
758.246	91.56
758.425	91.62
758.605	90.59
758.785	91.34
758.965	90.84
759.144	88.05
759.324	89.38
759.504	90.58
759.683	91.33
759.863	88.54
760.043	87.68
760.222	86.87
760.402	86.2
760.581	85.27
760.761	89.05
760.94	89.18
761.12	90.35
761.299	90.79
761.479	89.21
761.658	87.45
761.838	87.9
762.017	86.25
762.197	85.9
762.376	86.86
762.555	88.12
762.735	89.64
762.914	89.4
763.093	89.73
763.273	89.21
763.452	87.67
763.631	86.13
763.81	85.6
763.99	84.74
764.169	85.42
764.348	82.84
764.527	82.99
764.706	85.38
764.885	86.88
765.064	84.96
765.243	87.55
765.423	89.08
765.602	88.17
765.781	86
765.96	85.93
766.139	84.84
766.318	85.48
766.497	84.93
766.676	85.81
766.854	88.63
767.033	90.02
767.212	87.53
767.391	87.48
767.57	88.77
767.749	88.31
767.928	89.34
768.106	90.32
768.285	89.27
768.464	87.56
768.643	86.67
768.821	85.36
769	86.01
769.179	85.87
769.357	85.71
769.536	84.77
769.715	85.18
769.893	86.06
770.072	86.26
770.25	87.2
770.429	87.7
770.607	86.51
770.786	84.44
770.964	85.87
771.143	83.75
771.321	86.27
771.5	86.32
771.678	86.94
771.857	84.4
772.035	87.25
772.213	84.68
772.392	83.93
772.57	85.59
772.748	87.38
772.927	86.13
773.105	85.05
773.283	85.64
773.461	85.27
773.64	84.27
773.818	84.28
773.996	87.93
774.174	86.1
774.352	83.75
774.531	82.62
774.709	83.44
774.887	80.01
775.065	80.27
775.243	80.99
775.421	83.23
775.599	83.33
775.777	82.29
775.955	82.82
776.133	81.89
776.311	81.04
776.489	79.34
776.667	81.37
776.844	82.28
777.022	80.89
777.2	80.32
777.378	79.59
777.556	79.03
777.734	80.48
777.911	85.67
778.089	85.32
778.267	86.37
778.445	86.9
778.622	83.63
778.8	81.17
778.978	84.78
779.155	84.52
779.333	83.36
779.511	83.69
779.688	86.42
779.866	81.85
780.043	78.85
780.221	78.1
780.398	78.65
780.576	76.9
780.753	79.72
780.931	79.78
781.108	80.52
781.286	84
781.463	81.43
781.64	77.22
781.818	81.34
781.995	81.61
782.172	78.16
782.35	78.26
782.527	83.34
782.704	79.73
782.882	81.69
783.059	80.97
783.236	80.36
783.413	79.11
783.59	82.2
783.768	77.36
783.945	80.91
784.122	83
784.299	84.07
784.476	80.57
784.653	80.12
784.83	77.72
785.007	72.18
785.184	71.04
785.361	71.86
785.538	78.99
785.715	80.74
785.892	85.98
786.069	86.94
786.246	86.35
786.423	85.04
786.6	84.71
786.776	87.55
786.953	86.54
787.13	92.19
787.307	90.89
787.484	87.65
787.66	80.7
787.837	79.71
788.014	73.72
788.191	68.5
788.367	65.63
788.544	73.1
788.721	71.07
788.897	74.36
789.074	79.08
789.25	80.32
789.427	77.94
789.603	82.36
789.78	81.05
789.956	78
790.133	78.64
790.309	77.19
790.486	79.89
790.662	77.77
790.839	77.16
791.015	78.98
791.192	75.28
791.368	72.83
791.544	71.5
791.721	73.77
791.897	71.58
792.073	70.82
792.249	64.03
792.426	68.9
792.602	71.34
792.778	72.03
792.954	68.67
793.13	67.88
793.307	60.57
793.483	53.53
793.659	55.82
793.835	64.66
794.011	65.62
794.187	69.88
794.363	70.72
794.539	73.21
794.715	61.75
794.891	61.87
795.067	60.83
795.243	65.43
795.419	60.09
795.595	67.03
795.771	68.55
795.947	68.35
796.122	62
796.298	66.59
796.474	65.71
796.65	66.88
796.826	64.68
797.001	67.89
797.177	58.39
797.353	63.92
797.529	70.41
797.704	71.94
797.88	67.86
798.056	69.92
798.231	67.23
798.407	66.17
798.582	69.66
798.758	80.73
798.934	86.57
799.109	84.38
799.285	76.69
799.46	75.75
799.636	72.26
799.811	69.46
799.986	70.7
800.162	77
800.337	77.04
800.513	69.53
800.688	67.18
800.863	76.46
801.039	67.01
801.214	63.1
801.389	71.36
801.565	72.35
801.74	56.8
801.915	64.76
802.09	66.16
802.265	63.35
802.441	60.41
802.616	67
802.791	67.52
802.966	68.7
803.141	65.96
803.316	67.99
803.491	71.74
803.666	74.94
803.841	76.64
804.016	78
804.191	78.76
804.366	76.1
804.541	67.16
804.716	65.8
804.891	62.54
805.066	66.24
805.241	64.67
805.416	66.27
805.591	60.83
805.765	66.17
805.94	66.91
806.115	64.95
806.29	56.29
806.464	62.67
806.639	55.89
806.814	47.64
806.989	40.39
807.163	56.87
807.338	53.9
807.512	53.48
807.687	44.35
807.862	57.92
808.036	56.5
808.211	60.46
808.385	73.5
808.56	96.22
808.734	105.07
808.909	94.35
809.083	89.88
809.258	86.23
809.432	76.39
809.606	59.91
809.781	58.47
809.955	62.67
810.13	63.31
810.304	60.9
810.478	53.43
810.652	66.12
810.827	69.77
811.001	58.42
811.175	53.76
811.349	58.86
811.524	49.12
811.698	34.78
811.872	40.07
812.046	51.41
812.22	63.64
812.394	63.32
812.568	71.48
812.742	81.31
812.916	68.28
813.09	57.28
813.264	50.09
813.438	55.18
813.612	46.14
813.786	47.94
813.96	57.52
814.134	67.95
814.308	68.56
814.482	74.87
814.656	66.93
814.83	68.44
815.003	67.5
815.177	58.47
815.351	50.91
815.525	56.47
815.698	50.55
815.872	45.82
816.046	36.14
816.219	46
816.393	64
816.567	63.66
816.74	60.31
816.914	75.46
817.088	66.52
817.261	47.7
817.435	35.81
817.608	45.4
817.782	30.8
817.955	40.21
818.129	44.67
818.302	49.23
818.475	57.54
818.649	57.51
818.822	43.78
818.996	55.36
819.169	66.23
819.342	52.92
819.516	67.77
819.689	71.95
819.862	52.4
820.035	36.93
820.209	37.12
820.382	35.89
820.555	41.32
820.728	28.32
820.901	24.74
821.075	25.85
821.248	18.83
821.421	10.36
821.594	30.43
821.767	67.48
821.94	82.18
822.113	60.49
822.286	52.19
822.459	62.42
822.632	50.91
822.805	31.98
822.978	46.35
823.151	41.65
823.324	25.79
823.496	-1.93
823.669	-7.54
823.842	-7.77
824.015	-18.51
824.188	-0.65
824.361	17.23
824.533	21.34
824.706	42.14
824.879	44.1
825.051	39.87
825.224	39.69
825.397	23.21
825.569	-2.58
825.742	33.06
825.915	39.2
826.087	51.03
826.26	53.85
826.432	60.87
826.605	61.26
826.777	29.25
826.95	17.93
827.122	6.72
827.295	6.43
827.467	-0.23
827.64	-3.34
827.812	12.16
827.984	25.85
828.157	5.7
828.329	-34.5
828.501	-21.19
828.674	-4.44
828.846	-12.6
829.018	32.27
829.19	28.7
829.363	53.57
829.535	55.91
829.707	63.29
829.879	25.71
830.051	20.6
830.223	-6.59
830.395	-32.13
830.568	-34.87
830.74	-36.97
830.912	8.38
831.084	7.86
831.256	3.25
831.428	-13.34
831.6	-30.28
831.772	-59.89
831.943	-76.58
832.115	-61.89
832.287	-19.73
832.459	16.98
832.631	29.46
832.803	58.31
832.975	79.47
833.146	53.3
833.318	32.47
833.49	35.58
833.662	10.67
833.833	-13.76
834.005	-2.31
834.177	19.75
834.348	20.04
834.52	13
834.692	31.74
834.863	2.16
835.035	-22.67
835.206	-88.44
835.378	-58.57
835.549	-40.05
835.721	-7.42
835.892	-6.46
836.064	11.36
836.235	14.67
836.407	29.48
836.578	13.96
836.749	10.51
836.921	-24.89
837.092	-38.03
837.264	-57.82
837.435	-64.81
837.606	-21.48
837.777	13.15
837.949	20.81
838.12	27.88
838.291	39.93
838.462	30.83
838.633	4.05
838.805	5.03
838.976	10.31
839.147	-14.34
839.318	-26.22
839.489	-86.29
839.66	-61.49
839.831	-27.18
840.002	-19.41
840.173	-38.44
840.344	55.98
840.515	21.12
840.686	-125.63
840.857	-116.8
841.028	-71.08
841.199	-66.89
841.369	-59.7
841.54	-50.93
841.711	-23.86
841.882	-18.73
842.053	-24.09
842.223	-42.17
842.394	-5.76
842.565	-6.88
842.736	5.32
842.906	7.65
843.077	30.58
843.248	53.4
843.418	43.74
843.589	-5.61
843.759	46.72
843.93	31.12
844.101	-2.44
844.271	-4.11
844.442	22.3
844.612	20.23
844.783	-10.73
844.953	-49.96
845.123	-40.31
845.294	-36.65
845.464	-219.1
845.635	-76.66
845.805	11.07
845.975	4.33
846.146	-44.86
846.316	-40.09
846.486	0.82
846.656	23.49
846.827	12.5
846.997	4.91
847.167	33.37
847.337	-13.34
847.507	-41.31
847.677	-27.23
847.848	35.71
848.018	43.59
848.188	54.94
848.358	32.57
848.528	26.83
848.698	0.82
848.868	-114.07
849.038	-214.08
849.208	-78.39
849.378	-27.98
849.548	-46.27
849.718	-13.26
849.887	10.51
850.057	-14.48
850.227	-48.89
850.397	-50.81
850.567	-182.51
850.737	-428.7
850.906	-1161.25
851.076	-1058.59
851.246	-542.93
851.415	-67.08
851.585	-60.73
851.755	-99.29
851.924	-16.78
852.094	-27.48
852.264	-115.27
852.433	-852.88
852.603	-159.41
852.772	-141.98
852.942	-76.09
853.111	-73.27
853.281	2.22
853.45	70.39
853.62	5.86
853.789	5.2
853.959	96.95
854.128	24.37
854.297	-49.17
854.467	-47.01
854.636	-23.49
854.805	6.55
854.975	-22.35
855.144	-38.36
855.313	34.27
855.482	-358.39
855.652	-177.11
855.821	-86.92
855.99	43.3
856.159	36.36
856.328	36.24
856.497	15.42
856.667	11.91
856.836	11.44
857.005	-19.92
857.174	-19.84
857.343	-64.86
857.512	-64.55
857.681	-117.46
857.85	-171.55
858.019	-85.7
858.188	-69.86
858.356	-71.87
858.525	-137.15
858.694	-81
858.863	-192.69
859.032	-117.13
859.201	-176.88
859.369	-110.71
859.538	-61.06
859.707	-86.62
859.876	-117.06
860.044	-96.1
860.213	11.23
860.382	-4.15
860.55	48.21
860.719	78.58
860.888	99.07
861.056	58.14
861.225	36.66
861.393	49.02
861.562	17.79
861.73	-134.57
861.899	-417.28
862.067	-2127.59
862.236	-207.35
862.404	-345.53
862.572	-155.8
862.741	-20.77
862.909	-66.74
863.078	-126.71
863.246	-79.5
863.414	-66.17
863.582	-56.07
863.751	-5.59
863.919	-16.75
864.087	54.14
864.255	45.18
864.424	-72.51
864.592	31.89
864.76	19.21
864.928	-6.4
865.096	-59.87
865.264	-88.68
865.432	-1804.55
865.6	-41.5
865.768	-107.04
865.936	-88.33
866.104	-98.66
866.272	-168.44
866.44	-394.09
866.608	689.13
866.776	317.71
866.944	2286.05
867.112	-299.58
867.28	-145.39
867.448	-10.59
867.615	43.87
867.783	50.57
867.951	9.53
868.119	34.82
868.286	14.06
868.454	-149.01
868.622	-208.83
868.789	-220.68
868.957	-2242.86
869.125	-1971.05
869.292	-105.16
869.46	-78.44
869.627	39.6
869.795	4.53
869.963	15.58
870.13	23.01
870.298	48.66
870.465	-22.71
870.632	-51.56
870.8	-16.24
870.967	-60.12
871.135	-158.74
871.302	-117.56
871.469	-115.27
871.637	-172.6
871.804	-60.6
871.971	-122.53
872.139	-457.21
872.306	-50.16
872.473	-52.49
872.64	-275.11
872.807	-5.52
872.975	56.4
873.142	-116.36
873.309	1270.27
873.476	34.33
873.643	38.14
873.81	28.26
873.977	41.87
874.144	48.66
874.311	-66.12
874.478	-107.63
874.645	-171.63
874.812	-62.71
874.979	-82.3
875.146	-49.74
875.313	-89.37
875.48	-11.52
875.647	-29.04
875.813	-60.9
875.98	-67.08
876.147	-79.28
876.314	-144.71
876.481	1427.27
876.647	-1660.67
876.814	517.1
876.981	17.69
877.147	-2.93
877.314	50.61
877.481	108.34
877.647	69.65
877.814	34.51
877.98	5.35
878.147	22.35
878.314	41.54
878.48	16.37
878.647	7.08
878.813	50.79
878.979	57.75
879.146	-6.79
879.312	4.03
879.479	-4.32
879.645	-87.87
879.811	-313.88
879.978	-722.9
880.144	-240.73
880.31	-129.95
880.477	-347.11
880.643	-433.8
880.809	-155.18
880.975	-95.95
881.142	-765.45
881.308	-92.38
881.474	-25
881.64	-43.5
881.806	-148.03
881.972	-51.56
882.138	-63.46
882.304	-30.84
882.47	-135.81
882.636	-409.84
882.802	-173.57
882.968	-29.66
883.134	-23.26
883.3	-20.45
883.466	2.1
883.632	43.03
883.798	0.08
883.964	-24.28
884.129	-38.64
884.295	-13.71
884.461	-95.11
884.627	-146.29
884.793	-162.92
884.958	-105.39
885.124	-211.27
885.29	-304.71
885.455	-388.35
885.621	-69.16
885.787	-116.2
885.952	-41.73
886.118	-57.3
886.283	-45.15
886.449	-150.34
886.614	-140.71
886.78	-288.08
886.945	898.36
887.111	-660.12
887.276	-507.39
887.442	-1141.82
887.607	-499.06
887.773	-248.09
887.938	-202.61
888.103	-260.68
888.269	-68.37
888.434	-75.68
888.599	-127.73
888.764	-1.56
888.93	52.3
889.095	20.66
889.26	-36.95
889.425	29.82
889.59	42.88
889.756	-56.07
889.921	-46.94
890.086	28.81
890.251	7.36
890.416	-103.43
890.581	-825.81
890.746	78.93
890.911	228.66
891.076	159.96
891.241	-312.69
891.406	10.2
891.571	-62.32
891.736	-241.74
891.901	-328.32
892.065	308.79
892.23	90.64
892.395	174.17
892.56	290.17
892.725	-285.16
892.889	-582.93
893.054	-188.01
893.219	-61.31
893.384	-32.43
893.548	-105.65
893.713	-162.29
893.878	-101.4
