Data from Ofra_2a_PS_6CX18_Reflection_1.txt Node
Date: Tue Jul 20 09:51:56 EDT 2021
User: Adam
Spectrometer: FLMT01687
Trigger mode: 0
Integration Time (sec): 9.450000E-1
Scans to average: 3
Electric dark correction enabled: true
Nonlinearity correction enabled: false
Boxcar width: 3
XAxis mode: Wavelengths
Number of Pixels in Spectrum: 3648
>>>>>Begin Spectral Data<<<<<
179.494	1429.59
179.716	901.5
179.937	985.16
180.158	3640.23
180.38	-1714.83
180.601	-332.99
180.823	-140.21
181.044	-19.82
181.265	-53.95
181.486	60.57
181.708	-425
181.929	-154.3
182.15	-494.89
182.372	34.21
182.593	56.08
182.814	309.73
183.035	171.59
183.257	90.48
183.478	85.93
183.699	87.74
183.92	74.88
184.141	78.89
184.363	61.08
184.584	51.22
184.805	55.81
185.026	57.9
185.247	20.82
185.468	4.18
185.689	-2.43
185.91	-5.48
186.132	11.4
186.353	-8.03
186.574	-2.72
186.795	-2.21
187.016	-1.24
187.237	1.24
187.458	-0.58
187.679	-11.52
187.9	16.79
188.121	23.36
188.342	49.01
188.563	60.3
188.784	57.05
189.005	69.51
189.226	54.54
189.447	40.7
189.667	40.36
189.888	31.27
190.109	27.82
190.33	32.32
190.551	18.57
190.772	9.47
190.993	13.26
191.214	18.23
191.434	12.77
191.655	24.8
191.876	22.19
192.097	20.97
192.318	35.74
192.538	27.75
192.759	22.05
192.98	8.04
193.201	14.16
193.421	20.2
193.642	16.52
193.863	-2.99
194.083	8.17
194.304	4.14
194.525	29.84
194.745	-2.51
194.966	-4.96
195.187	-11.18
195.407	-10.86
195.628	-7
195.848	-2.95
196.069	-33.42
196.29	-28.19
196.51	-46.4
196.731	-14.58
196.951	-11.42
197.172	-16.63
197.392	-11.17
197.613	-3.22
197.833	-0.41
198.054	7.75
198.274	-9.43
198.495	-7.06
198.715	-31.68
198.936	-31.07
199.156	-3.58
199.377	-3.8
199.597	-5.17
199.817	16.25
200.038	13.03
200.258	24.78
200.479	26.56
200.699	23.41
200.919	10.95
201.14	11.79
201.36	5.32
201.58	22.78
201.801	17.72
202.021	15.98
202.241	22.36
202.461	31.11
202.682	36.43
202.902	33.59
203.122	25.31
203.342	37.07
203.563	35.77
203.783	22.05
204.003	26.78
204.223	26.14
204.443	26.3
204.663	21.8
204.884	25.57
205.104	15.2
205.324	41.41
205.544	43.78
205.764	49.17
205.984	45.65
206.204	46.21
206.424	38.08
206.644	34.61
206.864	16.79
207.084	20.78
207.304	13.14
207.525	3.83
207.745	6.68
207.964	-9.87
208.184	9.24
208.404	2.77
208.624	-20.04
208.844	-32.04
209.064	-16.26
209.284	-10.7
209.504	-8.84
209.724	-25.56
209.944	-18.26
210.164	-15
210.384	-0.08
210.604	-17.04
210.823	-26.14
211.043	-25.95
211.263	-3.25
211.483	-0.97
211.703	12.76
211.922	17.28
212.142	19.59
212.362	28.78
212.582	26.81
212.801	21.81
213.021	24.65
213.241	13.4
213.461	10.53
213.68	9.79
213.9	8.1
214.12	13.41
214.339	7.76
214.559	15.23
214.779	21.17
214.998	15.06
215.218	18.6
215.438	26.39
215.657	23.73
215.877	17.79
216.096	20.32
216.316	14.96
216.535	16.44
216.755	6.08
216.974	6.67
217.194	0.44
217.413	17.53
217.633	9.17
217.852	11.85
218.072	4.51
218.291	18.19
218.511	14.61
218.73	16.1
218.95	19.76
219.169	23.99
219.389	17.68
219.608	29.73
219.827	24.94
220.047	16.56
220.266	12.84
220.485	9.81
220.705	4.18
220.924	15.55
221.143	10.14
221.363	12.22
221.582	17.5
221.801	23.37
222.021	17.14
222.24	18.03
222.459	2.87
222.678	-2.11
222.897	-5.46
223.117	-10.08
223.336	-18
223.555	-23.81
223.774	-13.01
223.993	10.56
224.213	4.34
224.432	22.46
224.651	33.82
224.87	40.25
225.089	46.46
225.308	42.28
225.527	37.43
225.746	46.11
225.965	20.82
226.184	8.17
226.404	1.6
226.623	6.73
226.842	12.46
227.061	14.82
227.28	26.65
227.499	44.2
227.718	43.45
227.936	39.29
228.155	37.16
228.374	38.31
228.593	32.13
228.812	20.97
229.031	6.5
229.25	12.21
229.469	29.42
229.688	33.23
229.907	20.82
230.125	31.71
230.344	40.06
230.563	44.35
230.782	35.22
231.001	36.13
231.22	25.69
231.438	32.23
231.657	28.91
231.876	29.99
232.095	28.49
232.313	39.53
232.532	35.17
232.751	40.52
232.969	39.03
233.188	31.52
233.407	21.5
233.625	23.47
233.844	20.27
234.063	11.62
234.281	6.32
234.5	14.2
234.719	6.79
234.937	15.9
235.156	4.61
235.374	2.79
235.593	-3.12
235.811	-8.75
236.03	-30.1
236.249	-0.81
236.467	0.72
236.686	17.75
236.904	10.58
237.123	18.17
237.341	26.5
237.559	26.93
237.778	25.35
237.996	22.16
238.215	21.24
238.433	37.4
238.652	31.34
238.87	27.37
239.088	22.92
239.307	17.45
239.525	5.56
239.743	-6.14
239.962	-29.19
240.18	-27.63
240.398	-27.9
240.617	-6.64
240.835	1.5
241.053	13.73
241.271	23.37
241.49	17.29
241.708	16.36
241.926	14.14
242.144	8.15
242.363	5.83
242.581	10.93
242.799	6.6
243.017	22.38
243.235	22.49
243.453	35.37
243.672	24.57
243.89	12.58
244.108	21.27
244.326	16.01
244.544	8.56
244.762	15.73
244.98	12.21
245.198	6.87
245.416	16
245.634	12.5
245.852	26.96
246.07	30.34
246.288	27.72
246.506	32.1
246.724	56.73
246.942	54.51
247.16	46.79
247.378	29.54
247.596	33.29
247.814	18.53
248.032	6.85
248.25	-1.6
248.468	-1.21
248.685	1.42
248.903	-2.28
249.121	2.01
249.339	15.47
249.557	20.01
249.775	4.52
249.992	2.23
250.21	-9.53
250.428	-3.47
250.646	-7.82
250.863	-5.02
251.081	-2.47
251.299	23.94
251.517	36.88
251.734	45.18
251.952	55.9
252.17	47.03
252.387	38.69
252.605	38.32
252.823	17.52
253.04	7.19
253.258	-6.12
253.475	-14.53
253.693	4.68
253.911	11.63
254.128	9.19
254.346	14.12
254.563	14.51
254.781	17.12
254.998	20.23
255.216	26.05
255.433	12.41
255.651	6.3
255.868	-2.07
256.086	-0.88
256.303	12.71
256.521	4.6
256.738	-13.3
256.956	-8.76
257.173	11.18
257.39	30.18
257.608	28.31
257.825	22.33
258.043	27.29
258.26	30.27
258.477	40.42
258.695	38.98
258.912	46.98
259.129	37.17
259.346	35.99
259.564	34.94
259.781	48.69
259.998	37.12
260.216	43
260.433	34.74
260.65	44.89
260.867	33.94
261.084	36.91
261.302	26.01
261.519	26.03
261.736	4.64
261.953	-0.62
262.17	2.3
262.387	8.03
262.604	-15.77
262.822	-4.21
263.039	-3.91
263.256	10.36
263.473	2.85
263.69	-0.35
263.907	7.6
264.124	17.92
264.341	7.58
264.558	11.21
264.775	14.83
264.992	18.95
265.209	19.03
265.426	16.1
265.643	22.41
265.86	18.42
266.077	16.11
266.294	7.18
266.51	9.76
266.727	-2.82
266.944	-13.22
267.161	-26.32
267.378	-19.89
267.595	-19.69
267.812	-12.63
268.028	-5.27
268.245	2.55
268.462	8.32
268.679	9.66
268.896	5.46
269.112	13.51
269.329	18.79
269.546	11.42
269.763	20.32
269.979	19.17
270.196	25.57
270.413	22.14
270.629	21.67
270.846	20.86
271.063	25.26
271.279	19.96
271.496	9.39
271.712	5.5
271.929	22.66
272.146	25.12
272.362	6.95
272.579	5.43
272.795	6.51
273.012	20.7
273.228	15.18
273.445	-0.62
273.661	0.59
273.878	9.87
274.094	14.47
274.311	18.89
274.527	14.36
274.744	16.63
274.96	21.74
275.177	23.12
275.393	26.42
275.609	28.02
275.826	22.24
276.042	30.54
276.259	30.77
276.475	28.04
276.691	22.54
276.908	27.82
277.124	17.29
277.34	10.73
277.557	7.29
277.773	-3.53
277.989	-0.76
278.205	-5.82
278.422	-6.01
278.638	9.82
278.854	18.58
279.07	16.05
279.286	20.98
279.503	21.95
279.719	37.33
279.935	18.88
280.151	18.77
280.367	12.74
280.583	9.25
280.799	22.18
281.016	26.14
281.232	21.34
281.448	25.13
281.664	19.31
281.88	18.63
282.096	22.08
282.312	2.01
282.528	-13.58
282.744	-22.21
282.96	-5.15
283.176	-1.86
283.392	10.73
283.608	19.76
283.824	30.57
284.04	35.13
284.256	31.74
284.471	21.15
284.687	17.15
284.903	5.4
285.119	-5.42
285.335	0.11
285.551	6.28
285.767	12.08
285.982	19.13
286.198	16.76
286.414	23.41
286.63	26.91
286.846	18.66
287.061	11.13
287.277	13.07
287.493	9.62
287.709	14.18
287.924	21.66
288.14	29.95
288.356	37.98
288.571	43.46
288.787	38.57
289.003	52.48
289.218	50.13
289.434	42.14
289.65	44.29
289.865	47.6
290.081	42.84
290.296	45.58
290.512	37.78
290.727	41.49
290.943	42.68
291.159	18.68
291.374	16.8
291.59	6.95
291.805	4.65
292.021	-7.49
292.236	-14.06
292.451	-10.35
292.667	6.14
292.882	-6.34
293.098	1.01
293.313	-6.12
293.529	1.31
293.744	5.3
293.959	3.19
294.175	6.96
294.39	10.15
294.605	11.23
294.821	11.56
295.036	10.55
295.251	12.1
295.467	15.8
295.682	12.05
295.897	14.06
296.112	20.6
296.328	20.55
296.543	21.96
296.758	21.07
296.973	18.11
297.188	18.28
297.404	25.96
297.619	18.38
297.834	30.04
298.049	25.51
298.264	21.38
298.479	12.11
298.694	17.27
298.909	6.42
299.125	14.18
299.34	6.15
299.555	16.83
299.77	12.13
299.985	10.82
300.2	1.62
300.415	14.22
300.63	3.62
300.845	9.71
301.06	5.52
301.275	17.99
301.49	27.73
301.704	31.68
301.919	23.34
302.134	17.22
302.349	11.25
302.564	4.02
302.779	1.94
302.994	-9.53
303.209	-14.82
303.423	-0.06
303.638	16.48
303.853	21.17
304.068	42.05
304.283	33.64
304.497	37.98
304.712	39.01
304.927	30.96
305.142	21.94
305.356	24.56
305.571	13.2
305.786	10.2
306	12.01
306.215	8.16
306.43	17.65
306.644	22.98
306.859	25.49
307.074	24.62
307.288	28.08
307.503	24.55
307.717	23.6
307.932	17.09
308.147	19.39
308.361	21.04
308.576	26.27
308.79	23.87
309.005	23.49
309.219	23.86
309.434	24.53
309.648	20.47
309.863	15.28
310.077	9.72
310.292	9.72
310.506	21.93
310.72	26.55
310.935	28.04
311.149	27.3
311.364	30.92
311.578	27.72
311.792	30.96
312.007	18.93
312.221	19.37
312.435	17.78
312.649	23.19
312.864	6.21
313.078	14.36
313.292	13.45
313.507	21.07
313.721	32.56
313.935	41.05
314.149	33.08
314.363	41.9
314.578	61.94
314.792	60.38
315.006	57.91
315.22	59.19
315.434	56.06
315.648	59.82
315.862	50.47
316.077	27.4
316.291	31.65
316.505	29.43
316.719	4.07
316.933	1.6
317.147	4.68
317.361	4.21
317.575	9.63
317.789	12.29
318.003	23.2
318.217	32.18
318.431	36.38
318.645	38.25
318.859	26.57
319.073	17.33
319.287	22.62
319.5	15.25
319.714	7.02
319.928	6.12
320.142	-2.79
320.356	21.02
320.57	26.19
320.784	14.28
320.997	19.87
321.211	29.06
321.425	17.96
321.639	28.87
321.853	14.17
322.066	13.01
322.28	20.3
322.494	18.59
322.707	17.53
322.921	18.67
323.135	13.64
323.349	20.61
323.562	26.73
323.776	20.99
323.989	19.76
324.203	13.87
324.417	13.62
324.63	-2.65
324.844	-14.02
325.057	-23.05
325.271	-31.47
325.485	-24.56
325.698	-17.83
325.912	-2.83
326.125	12.55
326.339	25.35
326.552	38.6
326.766	43.26
326.979	43.85
327.193	41.63
327.406	39.31
327.619	27.23
327.833	19.51
328.046	5.59
328.26	3.73
328.473	-1.08
328.686	2.51
328.9	-4.62
329.113	-0.53
329.326	4.12
329.54	9.11
329.753	5.7
329.966	8.64
330.179	15.66
330.393	22.8
330.606	27.83
330.819	31.99
331.032	34.09
331.246	37.9
331.459	36.65
331.672	30.32
331.885	24.19
332.098	32.73
332.311	13.21
332.525	12.88
332.738	14.47
332.951	20.35
333.164	6.93
333.377	3.87
333.59	3.18
333.803	14.36
334.016	2.05
334.229	-2.98
334.442	3.83
334.655	28.85
334.868	35.18
335.081	32.86
335.294	32.3
335.507	42.22
335.72	25.96
335.933	18.36
336.146	20.8
336.359	17.23
336.572	11.45
336.785	19.22
336.997	17.17
337.21	34.44
337.423	27.84
337.636	22.73
337.849	14.3
338.062	20.72
338.274	13.2
338.487	9.57
338.7	14.17
338.913	16.51
339.125	10.76
339.338	26.68
339.551	30.18
339.763	29.29
339.976	27.66
340.189	13.93
340.402	16.73
340.614	21.73
340.827	4.69
341.039	0.57
341.252	5.61
341.465	0.51
341.677	3.13
341.89	1.15
342.102	0.38
342.315	14.19
342.527	4.18
342.74	-5.5
342.952	1.39
343.165	6.36
343.377	19.43
343.59	21.58
343.802	16.8
344.015	22.4
344.227	19.61
344.44	13.15
344.652	14.14
344.864	8.15
345.077	-4.08
345.289	-1.21
345.502	7.13
345.714	-0.21
345.926	11.83
346.139	10.96
346.351	4.98
346.563	16.28
346.775	11.41
346.988	9.58
347.2	16.98
347.412	12.99
347.624	14.07
347.837	12.63
348.049	10.74
348.261	11.92
348.473	4.06
348.685	9.41
348.897	10.03
349.11	13.59
349.322	12.74
349.534	7.79
349.746	13.98
349.958	15.69
350.17	15.16
350.382	8.98
350.594	10.94
350.806	15.07
351.018	25.66
351.23	28.14
351.442	25.14
351.654	26.52
351.866	32.77
352.078	21.44
352.29	19.16
352.502	14.78
352.714	11.53
352.926	21.18
353.138	12.68
353.35	8.73
353.561	15.06
353.773	17.38
353.985	18.43
354.197	16.46
354.409	16.23
354.621	24.28
354.832	18.8
355.044	22.16
355.256	18.01
355.468	12.37
355.679	10.89
355.891	6.18
356.103	3.98
356.314	5.86
356.526	-0.51
356.738	-1.4
356.949	0.28
357.161	-4.59
357.373	-4.73
357.584	3.74
357.796	4.07
358.008	10.28
358.219	20.36
358.431	25.24
358.642	33.96
358.854	32.71
359.065	20.01
359.277	18.74
359.488	16.38
359.7	13.79
359.911	8.71
360.123	6.04
360.334	6.48
360.546	-3.22
360.757	3.55
360.969	8.71
361.18	-1.25
361.391	-0.2
361.603	3.03
361.814	7.06
362.025	17.93
362.237	16.66
362.448	16.26
362.659	8.06
362.871	14.47
363.082	12.39
363.293	9.27
363.504	11.85
363.716	14.06
363.927	11.71
364.138	26.83
364.349	26.11
364.56	24.35
364.772	25.78
364.983	21.95
365.194	21.28
365.405	26.39
365.616	17.86
365.827	16.8
366.038	16.48
366.25	20.88
366.461	25.05
366.672	27.76
366.883	26.87
367.094	28.44
367.305	27.59
367.516	28.54
367.727	22.45
367.938	25.6
368.149	16.66
368.36	13.17
368.571	18.65
368.781	18.14
368.992	17.7
369.203	17.9
369.414	9.81
369.625	14.79
369.836	19
370.047	14.25
370.258	12.32
370.468	11.08
370.679	11.63
370.89	16.07
371.101	13.9
371.312	7.51
371.522	10.76
371.733	6.75
371.944	9.45
372.155	-5.15
372.365	-5.5
372.576	-6.21
372.787	-4.5
372.997	-5.11
373.208	-1.37
373.419	-11.63
373.629	6.91
373.84	4.1
374.05	5.67
374.261	4.31
374.472	-0.17
374.682	-5.77
374.893	-4.11
375.103	-2.7
375.314	1.39
375.524	5.53
375.735	6.56
375.945	7.72
376.156	16.67
376.366	26.94
376.577	24.82
376.787	22.86
376.997	24.52
377.208	19.47
377.418	18.69
377.629	14.87
377.839	11.4
378.049	11.91
378.26	16.99
378.47	13.78
378.68	14.92
378.89	9.51
379.101	4.7
379.311	-0.33
379.521	-0.14
379.732	-13.87
379.942	-19.22
380.152	-9.43
380.362	1.24
380.572	5.35
380.783	6.4
380.993	1.78
381.203	12.03
381.413	18.88
381.623	15.14
381.833	8.98
382.043	6.07
382.253	4.79
382.463	9.48
382.674	6.61
382.884	3.48
383.094	-0.13
383.304	3.85
383.514	10.71
383.724	11.43
383.934	11.72
384.144	12.65
384.353	12.18
384.563	10.41
384.773	8.22
384.983	6.52
385.193	9.21
385.403	7.55
385.613	5.05
385.823	6.98
386.033	10.63
386.242	11.73
386.452	10.23
386.662	10.37
386.872	9.3
387.082	11.72
387.291	11.88
387.501	12.39
387.711	9.36
387.921	9.56
388.13	10.27
388.34	10.83
388.55	10.49
388.759	8.98
388.969	5.89
389.179	10.9
389.388	11.33
389.598	8.09
389.807	8.92
390.017	8.09
390.227	6.94
390.436	7.79
390.646	6.54
390.855	5.56
391.065	5.43
391.274	3.62
391.484	3.29
391.693	4.69
391.903	4.12
392.112	2.15
392.322	2.58
392.531	3.45
392.74	2.7
392.95	3.22
393.159	3.92
393.369	4.18
393.578	5.18
393.787	5.56
393.997	6.07
394.206	6.6
394.415	6.35
394.625	4.71
394.834	4.36
395.043	4.26
395.252	4.86
395.462	4.05
395.671	4.36
395.88	5
396.089	5.26
396.298	5.69
396.508	5.3
396.717	4.03
396.926	3.99
397.135	3.5
397.344	2.74
397.553	3.08
397.762	2.57
397.971	2.56
398.181	2.76
398.39	2.95
398.599	3.52
398.808	3.8
399.017	3.86
399.226	4.25
399.435	4.23
399.644	4.34
399.853	4.34
400.062	4.02
400.27	3.78
400.479	3.67
400.688	3.64
400.897	4.01
401.106	4.14
401.315	4.07
401.524	4.3
401.733	4.55
401.941	4.49
402.15	4.4
402.359	4.1
402.568	3.91
402.777	3.89
402.985	3.81
403.194	3.69
403.403	3.42
403.612	3.49
403.82	3.54
404.029	3.54
404.238	3.71
404.446	3.53
404.655	3.47
404.864	3.63
405.072	3.55
405.281	3.43
405.489	3.48
405.698	3.33
405.906	3.41
406.115	3.46
406.324	3.41
406.532	3.44
406.741	3.49
406.949	3.46
407.158	3.46
407.366	3.49
407.574	3.41
407.783	3.35
407.991	3.27
408.2	3.27
408.408	3.28
408.617	3.2
408.825	3.19
409.033	3.18
409.242	3.21
409.45	3.2
409.658	3.2
409.867	3.14
410.075	3.11
410.283	3.04
410.491	3.07
410.7	3.06
410.908	3.08
411.116	3.05
411.324	3.11
411.533	3.07
411.741	3.1
411.949	3.14
412.157	3.17
412.365	3.2
412.573	3.26
412.781	3.2
412.99	3.37
413.198	3.38
413.406	3.32
413.614	3.38
413.822	3.32
414.03	3.2
414.238	3.26
414.446	3.16
414.654	3.08
414.862	3.05
415.07	3.08
415.278	2.99
415.486	3.18
415.694	3.05
415.902	2.98
416.109	3.03
416.317	2.95
416.525	2.96
416.733	3.04
416.941	2.9
417.149	3.04
417.357	3.03
417.564	3.03
417.772	3.13
417.98	2.99
418.188	2.87
418.395	2.84
418.603	2.73
418.811	2.75
419.019	2.73
419.226	2.78
419.434	2.79
419.642	2.82
419.849	2.86
420.057	2.92
420.265	2.95
420.472	2.93
420.68	2.81
420.887	2.89
421.095	2.96
421.302	2.95
421.51	2.97
421.717	3.03
421.925	2.98
422.132	2.95
422.34	2.92
422.547	2.87
422.755	2.91
422.962	2.76
423.17	2.65
423.377	2.79
423.585	2.9
423.792	2.89
423.999	2.91
424.207	2.8
424.414	2.89
424.621	2.93
424.829	2.8
425.036	2.68
425.243	2.71
425.451	2.73
425.658	2.86
425.865	2.8
426.072	2.86
426.28	2.88
426.487	2.96
426.694	2.9
426.901	2.81
427.108	2.82
427.315	2.82
427.523	2.84
427.73	2.84
427.937	2.81
428.144	2.81
428.351	2.9
428.558	2.75
428.765	2.72
428.972	2.69
429.179	2.57
429.386	2.63
429.593	2.6
429.8	2.57
430.007	2.66
430.214	2.64
430.421	2.6
430.628	2.63
430.835	2.63
431.042	2.73
431.249	2.75
431.456	2.8
431.662	2.9
431.869	2.97
432.076	3.07
432.283	2.98
432.49	2.97
432.697	2.96
432.903	2.98
433.11	3.02
433.317	3.03
433.524	2.93
433.73	3
433.937	2.96
434.144	3.07
434.35	2.99
434.557	2.94
434.764	2.92
434.97	3.13
435.177	3.08
435.384	3.13
435.59	3.04
435.797	3.07
436.003	3.05
436.21	2.95
436.416	2.82
436.623	2.88
436.829	2.88
437.036	2.91
437.242	2.92
437.449	3.02
437.655	3.13
437.862	3.15
438.068	3.17
438.275	3.11
438.481	3.17
438.687	3.21
438.894	3.15
439.1	3.12
439.307	3.19
439.513	3.13
439.719	3.17
439.926	3.13
440.132	3.13
440.338	3.18
440.544	3.15
440.751	3.12
440.957	3.14
441.163	3.16
441.369	3.16
441.575	3.15
441.782	3.11
441.988	3.16
442.194	3.22
442.4	3.28
442.606	3.31
442.812	3.31
443.018	3.27
443.224	3.3
443.431	3.31
443.637	3.24
443.843	3.23
444.049	3.16
444.255	3.11
444.461	3.13
444.667	3.18
444.873	3.13
445.079	3.17
445.284	3.16
445.49	3.19
445.696	3.27
445.902	3.34
446.108	3.28
446.314	3.33
446.52	3.36
446.726	3.36
446.931	3.38
447.137	3.4
447.343	3.38
447.549	3.36
447.755	3.36
447.96	3.32
448.166	3.36
448.372	3.33
448.578	3.35
448.783	3.3
448.989	3.35
449.195	3.35
449.4	3.36
449.606	3.31
449.812	3.38
450.017	3.4
450.223	3.44
450.428	3.46
450.634	3.48
450.84	3.45
451.045	3.48
451.251	3.44
451.456	3.38
451.662	3.37
451.867	3.35
452.073	3.34
452.278	3.36
452.483	3.35
452.689	3.37
452.894	3.36
453.1	3.34
453.305	3.39
453.51	3.41
453.716	3.41
453.921	3.41
454.127	3.36
454.332	3.41
454.537	3.46
454.742	3.43
454.948	3.41
455.153	3.42
455.358	3.49
455.563	3.54
455.769	3.56
455.974	3.51
456.179	3.49
456.384	3.52
456.589	3.53
456.795	3.45
457	3.49
457.205	3.43
457.41	3.48
457.615	3.57
457.82	3.6
458.025	3.58
458.23	3.63
458.435	3.57
458.64	3.64
458.845	3.62
459.05	3.54
459.255	3.48
459.46	3.48
459.665	3.54
459.87	3.58
460.075	3.57
460.28	3.61
460.485	3.64
460.69	3.61
460.895	3.68
461.099	3.63
461.304	3.63
461.509	3.56
461.714	3.63
461.919	3.61
462.123	3.68
462.328	3.67
462.533	3.69
462.738	3.69
462.942	3.8
463.147	3.71
463.352	3.75
463.556	3.77
463.761	3.73
463.966	3.72
464.17	3.75
464.375	3.69
464.58	3.66
464.784	3.67
464.989	3.7
465.193	3.78
465.398	3.82
465.602	3.81
465.807	3.88
466.011	3.96
466.216	3.96
466.42	3.97
466.625	3.95
466.829	3.94
467.034	3.99
467.238	3.99
467.443	4.01
467.647	4.05
467.851	4.04
468.056	4.03
468.26	4.01
468.464	4.04
468.669	4.08
468.873	4.03
469.077	4.03
469.282	4.03
469.486	4.05
469.69	4.1
469.894	4.12
470.099	4.1
470.303	4.15
470.507	4.14
470.711	4.16
470.915	4.22
471.119	4.23
471.324	4.15
471.528	4.19
471.732	4.18
471.936	4.25
472.14	4.21
472.344	4.15
472.548	4.2
472.752	4.3
472.956	4.31
473.16	4.29
473.364	4.23
473.568	4.31
473.772	4.38
473.976	4.34
474.18	4.3
474.384	4.24
474.588	4.27
474.792	4.27
474.995	4.25
475.199	4.25
475.403	4.26
475.607	4.32
475.811	4.36
476.015	4.39
476.218	4.39
476.422	4.42
476.626	4.43
476.83	4.42
477.033	4.4
477.237	4.4
477.441	4.42
477.644	4.49
477.848	4.46
478.052	4.47
478.255	4.45
478.459	4.5
478.663	4.48
478.866	4.46
479.07	4.47
479.273	4.53
479.477	4.57
479.681	4.61
479.884	4.55
480.088	4.62
480.291	4.66
480.495	4.7
480.698	4.68
480.901	4.7
481.105	4.74
481.308	4.76
481.512	4.76
481.715	4.75
481.919	4.75
482.122	4.76
482.325	4.75
482.529	4.78
482.732	4.82
482.935	4.84
483.138	4.83
483.342	4.84
483.545	4.85
483.748	4.85
483.952	4.82
484.155	4.84
484.358	4.8
484.561	4.87
484.764	4.85
484.967	4.82
485.171	4.78
485.374	4.8
485.577	4.78
485.78	4.8
485.983	4.78
486.186	4.76
486.389	4.77
486.592	4.83
486.795	4.82
486.998	4.83
487.201	4.82
487.404	4.87
487.607	4.89
487.81	4.9
488.013	4.87
488.216	4.86
488.419	4.82
488.622	4.78
488.825	4.75
489.028	4.76
489.231	4.75
489.433	4.75
489.636	4.75
489.839	4.79
490.042	4.84
490.245	4.81
490.447	4.78
490.65	4.82
490.853	4.85
491.056	4.86
491.258	4.89
491.461	4.88
491.664	4.88
491.866	4.96
492.069	4.96
492.272	4.92
492.474	4.92
492.677	4.88
492.879	4.9
493.082	4.95
493.285	4.88
493.487	4.83
493.69	4.79
493.892	4.83
494.095	4.8
494.297	4.83
494.5	4.82
494.702	4.85
494.905	4.91
495.107	4.96
495.309	4.92
495.512	4.97
495.714	4.98
495.917	4.96
496.119	4.95
496.321	4.95
496.524	4.95
496.726	4.96
496.928	4.99
497.13	5
497.333	5.03
497.535	5.02
497.737	5.06
497.939	5.08
498.142	5.07
498.344	5.05
498.546	5.07
498.748	5.06
498.95	5.05
499.152	4.99
499.355	4.98
499.557	5.02
499.759	5.01
499.961	5
500.163	5.02
500.365	5.05
500.567	5.1
500.769	5.13
500.971	5.12
501.173	5.12
501.375	5.11
501.577	5.13
501.779	5.16
501.981	5.15
502.183	5.11
502.385	5.11
502.587	5.1
502.788	5.08
502.99	5.06
503.192	5.08
503.394	5.11
503.596	5.14
503.798	5.21
503.999	5.26
504.201	5.31
504.403	5.33
504.605	5.31
504.806	5.28
505.008	5.3
505.21	5.28
505.411	5.27
505.613	5.3
505.815	5.3
506.016	5.33
506.218	5.36
506.42	5.38
506.621	5.37
506.823	5.39
507.024	5.38
507.226	5.39
507.427	5.35
507.629	5.39
507.83	5.36
508.032	5.42
508.233	5.42
508.435	5.4
508.636	5.4
508.838	5.46
509.039	5.46
509.24	5.48
509.442	5.42
509.643	5.41
509.845	5.45
510.046	5.49
510.247	5.53
510.448	5.52
510.65	5.54
510.851	5.6
511.052	5.62
511.254	5.62
511.455	5.6
511.656	5.55
511.857	5.56
512.058	5.57
512.26	5.55
512.461	5.59
512.662	5.58
512.863	5.59
513.064	5.62
513.265	5.65
513.466	5.67
513.667	5.67
513.868	5.66
514.069	5.69
514.27	5.69
514.471	5.71
514.672	5.71
514.873	5.73
515.074	5.77
515.275	5.79
515.476	5.79
515.677	5.83
515.878	5.87
516.079	5.87
516.28	5.83
516.481	5.81
516.682	5.79
516.882	5.77
517.083	5.75
517.284	5.69
517.485	5.74
517.686	5.75
517.886	5.77
518.087	5.83
518.288	5.86
518.488	5.91
518.689	5.93
518.89	5.91
519.091	5.93
519.291	5.92
519.492	5.89
519.692	5.93
519.893	5.89
520.094	5.92
520.294	5.9
520.495	5.92
520.695	5.96
520.896	5.97
521.096	5.97
521.297	5.98
521.497	5.99
521.698	6.02
521.898	6.05
522.099	6.06
522.299	6.06
522.499	6.07
522.7	6.08
522.9	6.08
523.101	6.12
523.301	6.1
523.501	6.14
523.702	6.16
523.902	6.17
524.102	6.19
524.302	6.23
524.503	6.25
524.703	6.26
524.903	6.26
525.103	6.27
525.304	6.27
525.504	6.29
525.704	6.26
525.904	6.24
526.104	6.28
526.304	6.27
526.504	6.3
526.705	6.31
526.905	6.33
527.105	6.36
527.305	6.36
527.505	6.31
527.705	6.32
527.905	6.29
528.105	6.28
528.305	6.28
528.505	6.29
528.705	6.32
528.905	6.34
529.105	6.36
529.304	6.42
529.504	6.42
529.704	6.42
529.904	6.43
530.104	6.41
530.304	6.42
530.503	6.41
530.703	6.4
530.903	6.43
531.103	6.42
531.303	6.44
531.502	6.44
531.702	6.46
531.902	6.52
532.101	6.54
532.301	6.52
532.501	6.55
532.7	6.54
532.9	6.59
533.1	6.6
533.299	6.6
533.499	6.6
533.698	6.65
533.898	6.66
534.097	6.69
534.297	6.69
534.496	6.67
534.696	6.69
534.895	6.72
535.095	6.75
535.294	6.71
535.494	6.72
535.693	6.73
535.892	6.76
536.092	6.75
536.291	6.79
536.491	6.8
536.69	6.85
536.889	6.85
537.088	6.85
537.288	6.89
537.487	6.91
537.686	6.91
537.886	6.9
538.085	6.95
538.284	6.97
538.483	7
538.682	7
538.882	7.01
539.081	7.01
539.28	7.04
539.479	7.05
539.678	7.1
539.877	7.16
540.076	7.2
540.275	7.22
540.474	7.2
540.673	7.21
540.872	7.25
541.071	7.26
541.27	7.25
541.469	7.28
541.668	7.34
541.867	7.4
542.066	7.44
542.265	7.46
542.464	7.49
542.663	7.57
542.862	7.61
543.06	7.61
543.259	7.63
543.458	7.67
543.657	7.68
543.856	7.71
544.054	7.71
544.253	7.7
544.452	7.72
544.651	7.74
544.849	7.77
545.048	7.8
545.247	7.8
545.445	7.79
545.644	7.84
545.843	7.9
546.041	7.92
546.24	8
546.438	8.07
546.637	8.14
546.836	8.2
547.034	8.2
547.233	8.25
547.431	8.32
547.63	8.32
547.828	8.34
548.027	8.34
548.225	8.39
548.423	8.48
548.622	8.5
548.82	8.55
549.019	8.6
549.217	8.67
549.415	8.72
549.614	8.72
549.812	8.75
550.01	8.83
550.209	8.87
550.407	8.93
550.605	8.99
550.803	9.04
551.002	9.13
551.2	9.2
551.398	9.24
551.596	9.31
551.794	9.35
551.993	9.37
552.191	9.45
552.389	9.54
552.587	9.57
552.785	9.68
552.983	9.74
553.181	9.79
553.379	9.88
553.577	9.98
553.775	10.04
553.973	10.16
554.171	10.17
554.369	10.21
554.567	10.25
554.765	10.3
554.963	10.29
555.161	10.35
555.359	10.39
555.557	10.5
555.755	10.61
555.952	10.71
556.15	10.8
556.348	10.92
556.546	10.99
556.744	11.04
556.941	11.09
557.139	11.16
557.337	11.22
557.535	11.29
557.732	11.35
557.93	11.43
558.128	11.53
558.325	11.65
558.523	11.73
558.721	11.84
558.918	11.94
559.116	12.02
559.313	12.15
559.511	12.24
559.708	12.29
559.906	12.36
560.104	12.45
560.301	12.53
560.498	12.61
560.696	12.66
560.893	12.73
561.091	12.84
561.288	12.92
561.486	13.02
561.683	13.12
561.88	13.25
562.078	13.35
562.275	13.44
562.473	13.52
562.67	13.62
562.867	13.7
563.064	13.8
563.262	13.93
563.459	14.04
563.656	14.21
563.853	14.29
564.051	14.4
564.248	14.51
564.445	14.58
564.642	14.64
564.839	14.75
565.036	14.81
565.234	14.92
565.431	15.05
565.628	15.12
565.825	15.22
566.022	15.31
566.219	15.36
566.416	15.46
566.613	15.56
566.81	15.6
567.007	15.69
567.204	15.8
567.401	15.89
567.598	15.96
567.795	16
567.991	16.04
568.188	16.12
568.385	16.18
568.582	16.23
568.779	16.34
568.976	16.4
569.172	16.54
569.369	16.59
569.566	16.65
569.763	16.73
569.96	16.79
570.156	16.78
570.353	16.86
570.55	16.89
570.746	16.97
570.943	17.08
571.14	17.14
571.336	17.2
571.533	17.32
571.729	17.39
571.926	17.44
572.123	17.47
572.319	17.5
572.516	17.55
572.712	17.62
572.909	17.66
573.105	17.66
573.302	17.7
573.498	17.81
573.695	17.83
573.891	17.89
574.087	17.88
574.284	17.84
574.48	17.89
574.677	17.88
574.873	17.88
575.069	17.94
575.266	17.97
575.462	18.01
575.658	18.1
575.854	18.14
576.051	18.22
576.247	18.25
576.443	18.27
576.639	18.26
576.835	18.26
577.032	18.28
577.228	18.29
577.424	18.28
577.62	18.31
577.816	18.35
578.012	18.37
578.208	18.41
578.404	18.43
578.6	18.47
578.796	18.52
578.993	18.5
579.189	18.47
579.384	18.47
579.58	18.47
579.776	18.44
579.972	18.4
580.168	18.34
580.364	18.36
580.56	18.39
580.756	18.39
580.952	18.4
581.148	18.4
581.343	18.4
581.539	18.39
581.735	18.39
581.931	18.37
582.127	18.37
582.322	18.39
582.518	18.39
582.714	18.4
582.909	18.37
583.105	18.37
583.301	18.34
583.496	18.31
583.692	18.27
583.888	18.25
584.083	18.31
584.279	18.33
584.474	18.3
584.67	18.3
584.866	18.32
585.061	18.3
585.257	18.33
585.452	18.29
585.648	18.25
585.843	18.33
586.039	18.32
586.234	18.29
586.429	18.33
586.625	18.31
586.82	18.28
587.015	18.33
587.211	18.26
587.406	18.34
587.601	18.35
587.797	18.33
587.992	18.32
588.187	18.4
588.383	18.43
588.578	18.45
588.773	18.43
588.968	18.48
589.163	18.53
589.359	18.52
589.554	18.48
589.749	18.46
589.944	18.53
590.139	18.56
590.334	18.59
590.529	18.63
590.724	18.69
590.919	18.76
591.114	18.79
591.309	18.81
591.504	18.89
591.699	18.95
591.894	19.02
592.089	19.07
592.284	19.08
592.479	19.13
592.674	19.13
592.869	19.16
593.064	19.22
593.259	19.19
593.454	19.21
593.648	19.27
593.843	19.33
594.038	19.39
594.233	19.43
594.428	19.45
594.622	19.51
594.817	19.58
595.012	19.66
595.206	19.73
595.401	19.8
595.596	19.92
595.79	19.97
595.985	20.09
596.18	20.2
596.374	20.26
596.569	20.34
596.763	20.44
596.958	20.5
597.153	20.56
597.347	20.62
597.542	20.62
597.736	20.72
597.931	20.76
598.125	20.82
598.319	20.82
598.514	20.89
598.708	20.96
598.903	21.07
599.097	21.12
599.291	21.19
599.486	21.25
599.68	21.28
599.874	21.37
600.069	21.36
600.263	21.43
600.457	21.46
600.651	21.53
600.846	21.53
601.04	21.58
601.234	21.63
601.428	21.68
601.622	21.68
601.817	21.71
602.011	21.75
602.205	21.8
602.399	21.84
602.593	21.83
602.787	21.9
602.981	21.92
603.175	21.91
603.369	21.87
603.563	21.91
603.757	21.95
603.951	21.93
604.145	21.87
604.339	21.85
604.533	21.85
604.727	21.88
604.921	21.78
605.115	21.73
605.309	21.79
605.502	21.82
605.696	21.83
605.89	21.8
606.084	21.75
606.278	21.77
606.471	21.73
606.665	21.65
606.859	21.56
607.053	21.5
607.246	21.45
607.44	21.4
607.634	21.33
607.827	21.24
608.021	21.2
608.214	21.2
608.408	21.18
608.602	21.13
608.795	21.02
608.989	20.97
609.182	21.01
609.376	20.94
609.569	20.85
609.763	20.8
609.956	20.72
610.15	20.77
610.343	20.73
610.537	20.61
610.73	20.55
610.923	20.51
611.117	20.37
611.31	20.31
611.504	20.26
611.697	20.17
611.89	20.09
612.083	20.01
612.277	19.89
612.47	19.84
612.663	19.81
612.856	19.68
613.05	19.61
613.243	19.56
613.436	19.44
613.629	19.41
613.822	19.34
614.015	19.26
614.209	19.23
614.402	19.18
614.595	19.1
614.788	19.09
614.981	19.01
615.174	18.97
615.367	18.92
615.56	18.79
615.753	18.7
615.946	18.7
616.139	18.67
616.332	18.61
616.525	18.63
616.718	18.58
616.911	18.58
617.103	18.52
617.296	18.46
617.489	18.42
617.682	18.46
617.875	18.3
618.067	18.24
618.26	18.21
618.453	18.19
618.646	18.15
618.838	18.13
619.031	18.01
619.224	18.03
619.417	18.02
619.609	17.98
619.802	17.98
619.994	17.91
620.187	17.84
620.38	17.85
620.572	17.81
620.765	17.75
620.957	17.68
621.15	17.59
621.342	17.6
621.535	17.6
621.727	17.56
621.92	17.56
622.112	17.51
622.305	17.48
622.497	17.46
622.69	17.42
622.882	17.37
623.074	17.34
623.267	17.3
623.459	17.32
623.651	17.36
623.844	17.39
624.036	17.42
624.228	17.39
624.42	17.35
624.613	17.3
624.805	17.3
624.997	17.25
625.189	17.22
625.381	17.13
625.574	17.1
625.766	17.08
625.958	17.06
626.15	17.03
626.342	17.03
626.534	16.99
626.726	17
626.918	16.94
627.11	16.91
627.302	16.92
627.494	16.84
627.686	16.78
627.878	16.72
628.07	16.66
628.262	16.67
628.454	16.65
628.646	16.6
628.838	16.61
629.029	16.55
629.221	16.52
629.413	16.5
629.605	16.43
629.797	16.4
629.989	16.38
630.18	16.31
630.372	16.28
630.564	16.28
630.755	16.26
630.947	16.24
631.139	16.18
631.33	16.17
631.522	16.14
631.714	16.14
631.905	16.12
632.097	16.08
632.289	16.04
632.48	16.03
632.672	15.95
632.863	16
633.055	15.97
633.246	15.98
633.438	16.02
633.629	16.03
633.821	16.02
634.012	16.06
634.203	16
634.395	16.05
634.586	15.98
634.777	15.95
634.969	15.95
635.16	15.95
635.351	15.84
635.543	15.83
635.734	15.73
635.925	15.78
636.117	15.74
636.308	15.7
636.499	15.66
636.69	15.77
636.881	15.83
637.073	15.9
637.264	15.84
637.455	15.86
637.646	15.89
637.837	15.89
638.028	15.88
638.219	15.84
638.41	15.77
638.601	15.77
638.792	15.71
638.983	15.64
639.174	15.65
639.365	15.59
639.556	15.53
639.747	15.55
639.938	15.56
640.129	15.57
640.32	15.63
640.511	15.58
640.701	15.57
640.892	15.56
641.083	15.54
641.274	15.45
641.465	15.44
641.655	15.41
641.846	15.39
642.037	15.38
642.228	15.38
642.418	15.33
642.609	15.33
642.8	15.3
642.99	15.3
643.181	15.31
643.372	15.32
643.562	15.3
643.753	15.3
643.943	15.28
644.134	15.28
644.324	15.26
644.515	15.28
644.705	15.25
644.896	15.21
645.086	15.16
645.277	15.21
645.467	15.21
645.658	15.19
645.848	15.13
646.038	15.1
646.229	15.14
646.419	15.17
646.61	15.11
646.8	15.05
646.99	14.98
647.18	14.95
647.371	14.92
647.561	14.88
647.751	14.8
647.941	14.79
648.132	14.81
648.322	14.83
648.512	14.83
648.702	14.82
648.892	14.79
649.082	14.8
649.272	14.77
649.462	14.71
649.653	14.65
649.843	14.56
650.033	14.51
650.223	14.52
650.413	14.53
650.603	14.5
650.793	14.47
650.983	14.5
651.172	14.5
651.362	14.48
651.552	14.37
651.742	14.25
651.932	14.23
652.122	14.2
652.312	14.03
652.502	14
652.691	13.95
652.881	13.91
653.071	13.82
653.261	13.73
653.45	13.6
653.64	13.64
653.83	13.55
654.019	13.42
654.209	13.38
654.399	13.32
654.588	13.2
654.778	13.13
654.968	13.01
655.157	12.86
655.347	12.75
655.536	12.56
655.726	12.51
655.915	12.37
656.105	12.27
656.294	12.12
656.484	12.07
656.673	11.97
656.863	11.89
657.052	11.71
657.241	11.62
657.431	11.45
657.62	11.21
657.809	11.03
657.999	10.9
658.188	10.78
658.377	10.7
658.567	10.57
658.756	10.45
658.945	10.42
659.134	10.21
659.324	10.07
659.513	9.88
659.702	9.68
659.891	9.49
660.08	9.4
660.269	9.27
660.458	9.23
660.648	9.06
660.837	9
661.026	8.9
661.215	8.81
661.404	8.64
661.593	8.47
661.782	8.36
661.971	8.28
662.16	8.15
662.349	8.02
662.538	7.93
662.726	7.84
662.915	7.79
663.104	7.65
663.293	7.55
663.482	7.41
663.671	7.37
663.86	7.28
664.048	7.22
664.237	7.13
664.426	7.12
664.615	7.05
664.803	7.02
664.992	7.01
665.181	6.96
665.369	6.96
665.558	6.93
665.747	6.9
665.935	6.91
666.124	6.92
666.312	6.76
666.501	6.7
666.69	6.61
666.878	6.53
667.067	6.49
667.255	6.45
667.444	6.44
667.632	6.47
667.82	6.43
668.009	6.44
668.197	6.48
668.386	6.44
668.574	6.42
668.762	6.4
668.951	6.4
669.139	6.5
669.327	6.47
669.516	6.45
669.704	6.48
669.892	6.49
670.08	6.48
670.269	6.55
670.457	6.52
670.645	6.57
670.833	6.65
671.021	6.61
671.21	6.68
671.398	6.66
671.586	6.71
671.774	6.69
671.962	6.73
672.15	6.73
672.338	6.84
672.526	6.87
672.714	6.94
672.902	6.89
673.09	6.95
673.278	6.97
673.466	7.11
673.654	7.11
673.842	7.15
674.03	7.26
674.218	7.32
674.405	7.49
674.593	7.55
674.781	7.54
674.969	7.62
675.157	7.72
675.344	7.76
675.532	7.87
675.72	7.84
675.908	7.9
676.095	7.98
676.283	8.04
676.471	8.11
676.658	8.16
676.846	8.24
677.033	8.35
677.221	8.39
677.409	8.49
677.596	8.61
677.784	8.66
677.971	8.81
678.159	8.98
678.346	9.06
678.534	9.23
678.721	9.32
678.909	9.36
679.096	9.4
679.283	9.45
679.471	9.5
679.658	9.66
679.846	9.75
680.033	9.83
680.22	9.92
680.408	10.07
680.595	10.09
680.782	10.16
680.969	10.16
681.157	10.28
681.344	10.37
681.531	10.49
681.718	10.67
681.905	10.87
682.093	11
682.28	11.16
682.467	11.22
682.654	11.33
682.841	11.52
683.028	11.69
683.215	11.83
683.402	11.86
683.589	12.02
683.776	12.26
683.963	12.42
684.15	12.58
684.337	12.66
684.524	12.88
684.711	13.1
684.898	13.28
685.085	13.47
685.271	13.76
685.458	14.02
685.645	14.19
685.832	14.47
686.019	14.79
686.205	15.08
686.392	15.37
686.579	15.55
686.766	15.72
686.952	16.12
687.139	16.32
687.326	16.74
687.512	17.09
687.699	17.38
687.886	17.69
688.072	18.22
688.259	18.62
688.445	19.01
688.632	19.48
688.818	19.8
689.005	20.32
689.191	20.87
689.378	21.2
689.564	21.61
689.751	22.19
689.937	22.53
690.124	23.15
690.31	23.54
690.496	24.05
690.683	24.62
690.869	25.18
691.055	25.73
691.242	26.25
691.428	26.79
691.614	27.46
691.8	28.05
691.987	28.72
692.173	29.4
692.359	30.09
692.545	30.79
692.731	31.54
692.918	32.11
693.104	32.74
693.29	33.35
693.476	33.93
693.662	34.53
693.848	35.19
694.034	35.52
694.22	36.29
694.406	36.93
694.592	37.53
694.778	38.2
694.964	38.68
695.15	39.27
695.336	40.27
695.522	40.81
695.708	41.5
695.894	42.23
696.08	42.83
696.265	43.57
696.451	44.3
696.637	44.72
696.823	45.42
697.009	45.99
697.194	46.55
697.38	47.12
697.566	47.71
697.751	48.39
697.937	49.03
698.123	49.65
698.308	50.21
698.494	50.76
698.68	51.36
698.865	51.98
699.051	52.47
699.236	53.05
699.422	53.47
699.607	53.98
699.793	54.43
699.978	54.79
700.164	55.38
700.349	55.75
700.535	56.35
700.72	56.91
700.906	57.49
701.091	58.11
701.276	58.71
701.462	59.13
701.647	59.62
701.832	60.05
702.018	60.42
702.203	60.75
702.388	61.22
702.573	61.75
702.759	62.11
702.944	62.46
703.129	62.84
703.314	63.31
703.499	63.84
703.684	64.16
703.87	64.49
704.055	64.82
704.24	65.28
704.425	65.61
704.61	65.87
704.795	66.01
704.98	66.35
705.165	66.65
705.35	67.06
705.535	67.41
705.72	67.72
705.905	68.06
706.09	68.46
706.275	68.76
706.459	69.17
706.644	69.46
706.829	69.81
707.014	69.99
707.199	70.13
707.384	70.35
707.568	70.8
707.753	71.09
707.938	71.36
708.123	71.36
708.307	71.99
708.492	72.25
708.677	72.49
708.861	72.41
709.046	72.29
709.231	72.37
709.415	72.77
709.6	72.56
709.784	72.84
709.969	73.32
710.153	73.62
710.338	73.93
710.522	74.07
710.707	73.79
710.891	74.21
711.076	74.18
711.26	74.32
711.445	74.59
711.629	75.03
711.813	75.1
711.998	75.38
712.182	75.33
712.366	75.66
712.551	75.7
712.735	75.59
712.919	75.76
713.103	76.09
713.288	76.5
713.472	76.75
713.656	76.73
713.84	76.89
714.024	77.39
714.208	77.22
714.393	77.35
714.577	77.56
714.761	77.62
714.945	77.9
715.129	77.96
715.313	77.98
715.497	78.29
715.681	78.57
715.865	78.4
716.049	78.65
716.233	78.84
716.417	79.18
716.601	79.17
716.785	79.18
716.968	79.06
717.152	79.51
717.336	79.48
717.52	79.59
717.704	79.8
717.888	79.75
718.071	80.08
718.255	80.12
718.439	80.01
718.622	80.27
718.806	80.13
718.99	80.04
719.174	80.35
719.357	80.47
719.541	80.89
719.724	80.94
719.908	81.06
720.092	81.24
720.275	81.3
720.459	81.42
720.642	81.3
720.826	81.31
721.009	81.64
721.193	81.66
721.376	81.62
721.559	81.49
721.743	81.45
721.926	81.18
722.11	81.43
722.293	80.93
722.476	80.71
722.66	80.97
722.843	81.26
723.026	81.32
723.21	81.72
723.393	81.47
723.576	81.91
723.759	82.3
723.942	82.41
724.126	82.25
724.309	82.45
724.492	82.55
724.675	82.54
724.858	82.89
725.041	82.78
725.224	83.04
725.407	83.17
725.59	83.02
725.774	82.85
725.957	83.14
726.14	83.06
726.322	83.22
726.505	83.3
726.688	83.7
726.871	84.03
727.054	84.4
727.237	84.27
727.42	84.7
727.603	85.01
727.786	84.99
727.968	84.86
728.151	85.18
728.334	85.03
728.517	85.38
728.699	85.27
728.882	85.37
729.065	85.22
729.248	85.13
729.43	84.94
729.613	85.35
729.796	85.35
729.978	85.5
730.161	85.54
730.343	85.85
730.526	86.33
730.708	86.68
730.891	86.63
731.073	86.36
731.256	86.06
731.438	86.59
731.621	87.07
731.803	87.12
731.986	86.94
732.168	86.89
732.35	87.64
732.533	87.99
732.715	87.72
732.898	87.65
733.08	87.87
733.262	88.08
733.444	88.62
733.627	88.4
733.809	88.24
733.991	88.38
734.173	87.95
734.355	88.09
734.538	87.88
734.72	88.02
734.902	88.13
735.084	88.73
735.266	88.72
735.448	89.2
735.63	89.19
735.812	89.53
735.994	88.96
736.176	89.19
736.358	89.17
736.54	89.01
736.722	89.08
736.904	89.37
737.086	89.17
737.268	89.77
737.45	89.49
737.632	88.96
737.814	89.32
737.995	89.5
738.177	89.45
738.359	90.07
738.541	89.96
738.723	90.57
738.904	91.07
739.086	91.03
739.268	91.64
739.449	91.65
739.631	91.67
739.813	91.7
739.994	91.71
740.176	91.3
740.358	91.38
740.539	90.62
740.721	90.54
740.902	90.07
741.084	89.98
741.265	89.95
741.447	89.96
741.628	89.92
741.81	89.98
741.991	90.24
742.172	90.56
742.354	91.03
742.535	90.86
742.717	91.11
742.898	91.55
743.079	91.77
743.261	91.47
743.442	91.82
743.623	91.5
743.804	91.4
743.986	91.47
744.167	90.99
744.348	91.31
744.529	90.92
744.71	90.36
744.891	90.65
745.073	90.56
745.254	90.95
745.435	90.68
745.616	89.65
745.797	89.34
745.978	89.88
746.159	89.18
746.34	89.68
746.521	89.4
746.702	89.54
746.883	90.67
747.064	91.42
747.245	91.75
747.426	92.43
747.606	92.13
747.787	92.81
747.968	93.2
748.149	92.74
748.33	92.66
748.51	92.15
748.691	92.37
748.872	92.51
749.053	91.88
749.233	91.58
749.414	91.66
749.595	90.92
749.775	90.96
749.956	89.57
750.137	89.48
750.317	89.74
750.498	89.55
750.678	89.23
750.859	89.41
751.04	89.25
751.22	89.46
751.4	89.66
751.581	89.38
751.761	89.63
751.942	89.77
752.122	90.28
752.303	90.26
752.483	91.25
752.663	91.8
752.844	91.44
753.024	91.51
753.204	91.09
753.385	91.51
753.565	91.03
753.745	90.76
753.925	89.95
754.106	89.93
754.286	90.18
754.466	90.63
754.646	90.22
754.826	90.49
755.006	90.4
755.187	90.67
755.367	91.15
755.547	91.03
755.727	90.42
755.907	90.63
756.087	91.09
756.267	91.09
756.447	90.77
756.627	90.97
756.807	91.83
756.987	93.41
757.167	93.9
757.346	93.06
757.526	93.21
757.706	93.92
757.886	93.46
758.066	93.09
758.246	92.42
758.425	92.14
758.605	91.88
758.785	92.35
758.965	91.13
759.144	92
759.324	91.37
759.504	91.26
759.683	90.69
759.863	91.42
760.043	91.19
760.222	90.72
760.402	90.31
760.581	89.64
760.761	88.47
760.94	88.59
761.12	88.27
761.299	87.46
761.479	88.67
761.658	87.98
761.838	88.3
762.017	89.5
762.197	89.65
762.376	89.79
762.555	90.27
762.735	89.4
762.914	89.98
763.093	89.97
763.273	89.58
763.452	88.85
763.631	88.24
763.81	88.92
763.99	89.42
764.169	89.12
764.348	90.21
764.527	90.34
764.706	91.36
764.885	92.2
765.064	90.28
765.243	90.12
765.423	90.42
765.602	88.67
765.781	88.33
765.96	87.93
766.139	87.39
766.318	88.8
766.497	89.26
766.676	89.39
766.854	89.41
767.033	88.92
767.212	88.02
767.391	88.01
767.57	87.38
767.749	87.42
767.928	86.35
768.106	86.91
768.285	87.26
768.464	87.94
768.643	88.6
768.821	89.35
769	89.31
769.179	89.34
769.357	88.59
769.536	88.34
769.715	87.99
769.893	87.93
770.072	87.1
770.25	86.65
770.429	87.51
770.607	88.48
770.786	88.42
770.964	87.49
771.143	86.58
771.321	86.18
771.5	85.42
771.678	85.07
771.857	84.38
772.035	84.33
772.213	85.28
772.392	86.42
772.57	86.95
772.748	86.93
772.927	86.29
773.105	87.41
773.283	87.24
773.461	88.23
773.64	87.17
773.818	86.41
773.996	87
774.174	87.94
774.352	86.45
774.531	85.57
774.709	84.63
774.887	84.37
775.065	83.37
775.243	83.11
775.421	81.66
775.599	81
775.777	81.48
775.955	80.74
776.133	79.67
776.311	81.24
776.489	80.65
776.667	81.49
776.844	82.97
777.022	83.64
777.2	83.76
777.378	86.23
777.556	87.17
777.734	87.92
777.911	88.85
778.089	87.71
778.267	87.55
778.445	86.99
778.622	86.04
778.8	84.68
778.978	85.15
779.155	82.79
779.333	81.64
779.511	82.12
779.688	81
779.866	80.25
780.043	80.58
780.221	80.49
780.398	81.58
780.576	82.14
780.753	80.94
780.931	83.81
781.108	84.77
781.286	83.99
781.463	83.6
781.64	83.69
781.818	84.39
781.995	85.07
782.172	83.98
782.35	83.27
782.527	86.2
782.704	85.21
782.882	84.56
783.059	83.66
783.236	84.72
783.413	84.64
783.59	82.78
783.768	80.61
783.945	81.69
784.122	81.05
784.299	81.67
784.476	79.85
784.653	79.76
784.83	80.98
785.007	80.86
785.184	79.21
785.361	79.59
785.538	81.38
785.715	80.75
785.892	80.15
786.069	79.74
786.246	78.37
786.423	80.56
786.6	79.88
786.776	77.79
786.953	78.08
787.13	79.4
787.307	80.91
787.484	82.25
787.66	80.49
787.837	83.24
788.014	82.59
788.191	82.41
788.367	82.43
788.544	79.76
788.721	79.4
788.897	81.66
789.074	78.4
789.25	80.57
789.427	82.17
789.603	82.93
789.78	85.06
789.956	83.48
790.133	82.29
790.309	83.33
790.486	83.96
790.662	82.26
790.839	82.06
791.015	83.73
791.192	85.09
791.368	84.58
791.544	85.74
791.721	83.59
791.897	83.34
792.073	80.28
792.249	81.77
792.426	83.22
792.602	81.71
792.778	81.13
792.954	81.77
793.13	84.6
793.307	83.84
793.483	79.68
793.659	79.84
793.835	79.01
794.011	77.74
794.187	74
794.363	72
794.539	73.27
794.715	74.62
794.891	71.97
795.067	74.38
795.243	75.73
795.419	80.36
795.595	79.39
795.771	80.42
795.947	78.93
796.122	81.97
796.298	78.54
796.474	79.74
796.65	78.05
796.826	81.62
797.001	82.54
797.177	81.09
797.353	79.96
797.529	83.66
797.704	82.79
797.88	83.47
798.056	81.42
798.231	79.45
798.407	81.86
798.582	80.52
798.758	81.58
798.934	82.86
799.109	79.08
799.285	79.46
799.46	80.09
799.636	81.69
799.811	83.58
799.986	81.97
800.162	80.96
800.337	83.11
800.513	82.22
800.688	85.41
800.863	81.1
801.039	77.1
801.214	77.6
801.389	76.69
801.565	78.04
801.74	76.85
801.915	72.9
802.09	75.11
802.265	78.22
802.441	76.1
802.616	76.3
802.791	75.24
802.966	74.38
803.141	70.85
803.316	74.78
803.491	71.44
803.666	73.72
803.841	75.46
804.016	77.01
804.191	79.1
804.366	81.4
804.541	75.81
804.716	74.62
804.891	79.71
805.066	78.53
805.241	76.06
805.416	75.34
805.591	77.22
805.765	79.72
805.94	82.01
806.115	72.64
806.29	73.72
806.464	73.6
806.639	73.37
806.814	67.61
806.989	67.49
807.163	68.03
807.338	70.88
807.512	63.6
807.687	64.19
807.862	64.28
808.036	66.69
808.211	68.07
808.385	67.94
808.56	65.87
808.734	66.88
808.909	66.69
809.083	65.57
809.258	73.1
809.432	68.4
809.606	65.58
809.781	70.75
809.955	75.52
810.13	78.99
810.304	79.75
810.478	75.43
810.652	82.37
810.827	82.89
811.001	77.82
811.175	73.44
811.349	72.68
811.524	69.29
811.698	68.13
811.872	67.92
812.046	68.67
812.22	71.64
812.394	76.08
812.568	76.86
812.742	79.09
812.916	76.78
813.09	69.47
813.264	69.16
813.438	72.03
813.612	66.78
813.786	64.26
813.96	67.14
814.134	67.9
814.308	71.74
814.482	70.17
814.656	68.43
814.83	72.3
815.003	72.24
815.177	72.96
815.351	76.64
815.525	73.13
815.698	73.88
815.872	73.58
816.046	68.39
816.219	69.54
816.393	65.59
816.567	60.56
816.74	63.57
816.914	68.98
817.088	65.06
817.261	68.24
817.435	66.16
817.608	67.79
817.782	74.46
817.955	71.84
818.129	70.01
818.302	74.23
818.475	76.65
818.649	75.06
818.822	75.81
818.996	71.4
819.169	73.25
819.342	71.8
819.516	73.77
819.689	71.7
819.862	70.48
820.035	67.42
820.209	66.1
820.382	67.22
820.555	65.09
820.728	55.92
820.901	57.99
821.075	60.29
821.248	61.54
821.421	61.37
821.594	57.63
821.767	58.95
821.94	56.83
822.113	55.35
822.286	57.64
822.459	68.48
822.632	74.52
822.805	77.91
822.978	71.64
823.151	76.88
823.324	69.31
823.496	63.28
823.669	57.83
823.842	57.39
824.015	55.74
824.188	62.73
824.361	68.77
824.533	86.23
824.706	98.47
824.879	96.36
825.051	93.24
825.224	94.1
825.397	83.24
825.569	84.16
825.742	79.28
825.915	75.46
826.087	66.57
826.26	65.36
826.432	71.15
826.605	80.23
826.777	74.61
826.95	70.35
827.122	65.31
827.295	70.27
827.467	61.42
827.64	48.75
827.812	43.84
827.984	48.79
828.157	51.02
828.329	57.19
828.501	61.25
828.674	62.82
828.846	75.62
829.018	73.88
829.19	66.05
829.363	60.8
829.535	62.52
829.707	53.28
829.879	61.19
830.051	50.79
830.223	42.46
830.395	42.07
830.568	47.56
830.74	46.96
830.912	50.1
831.084	44.72
831.256	38.38
831.428	44.15
831.6	45.09
831.772	44.99
831.943	49.04
832.115	57.55
832.287	58.59
832.459	69.13
832.631	76.65
832.803	85.28
832.975	91.01
833.146	74.31
833.318	68.48
833.49	73.12
833.662	72.37
833.833	71.33
834.005	60.87
834.177	60.08
834.348	62.27
834.52	65.64
834.692	64.53
834.863	59.07
835.035	50.84
835.206	52.62
835.378	40.7
835.549	45.2
835.721	46.79
835.892	46.52
836.064	50.62
836.235	57.29
836.407	57.97
836.578	68.01
836.749	64.71
836.921	62.87
837.092	72.09
837.264	73.42
837.435	57.94
837.606	60.23
837.777	54.93
837.949	51.11
838.12	42.08
838.291	40.67
838.462	37.69
838.633	43.69
838.805	35.63
838.976	34.56
839.147	35.28
839.318	38.73
839.489	31.74
839.66	32.04
839.831	29.34
840.002	31.49
840.173	31.67
840.344	33.01
840.515	38.61
840.686	51.63
840.857	48.17
841.028	56.83
841.199	60.54
841.369	52.4
841.54	61.14
841.711	64.78
841.882	42.26
842.053	46.31
842.223	54.41
842.394	63.25
842.565	82.62
842.736	69.86
842.906	68.24
843.077	78.63
843.248	76.51
843.418	65.06
843.589	61.54
843.759	53.76
843.93	62.73
844.101	63.88
844.271	70.15
844.442	73.35
844.612	81.04
844.783	71.59
844.953	65.15
845.123	63.8
845.294	65.33
845.464	54.53
845.635	50.52
845.805	59.07
845.975	50.89
846.146	53.36
846.316	63.69
846.486	65.05
846.656	72.05
846.827	76
846.997	76.36
847.167	83.71
847.337	91.44
847.507	82.37
847.677	85.18
847.848	86.98
848.018	76.89
848.188	57.81
848.358	76.22
848.528	67.7
848.698	49.32
848.868	23.28
849.038	20.01
849.208	31.46
849.378	30.34
849.548	23.54
849.718	20.87
849.887	34.61
850.057	43.66
850.227	47.22
850.397	44.41
850.567	62.05
850.737	55.7
850.906	52.01
851.076	60.92
851.246	78.97
851.415	78.58
851.585	73.88
851.755	67.07
851.924	78.38
852.094	71.68
852.264	59.24
852.433	54.64
852.603	74.48
852.772	68.98
852.942	58.94
853.111	52.73
853.281	66.83
853.45	66.95
853.62	53.56
853.789	33.54
853.959	29.58
854.128	28.36
854.297	15.34
854.467	-1.18
854.636	10.83
854.805	25.95
854.975	33.81
855.144	46.38
855.313	61.02
855.482	69.36
855.652	69.71
855.821	76.13
855.99	75.8
856.159	55.14
856.328	51.71
856.497	49.41
856.667	54.74
856.836	52.01
857.005	39.96
857.174	53.96
857.343	59.32
857.512	41.84
857.681	31.01
857.85	15.75
858.019	19.93
858.188	13.05
858.356	-21.58
858.525	-3.17
858.694	15.53
858.863	25.44
859.032	12.73
859.201	-8.49
859.369	21.63
859.538	19.2
859.707	20.52
859.876	36.71
860.044	37.24
860.213	63.54
860.382	74.63
860.55	73.61
860.719	90.16
860.888	74.04
861.056	60.48
861.225	62.82
861.393	72.33
861.562	61.66
861.73	47.8
861.899	20.68
862.067	45.74
862.236	45.21
862.404	39.5
862.572	22.15
862.741	17.58
862.909	21.42
863.078	26.6
863.246	13.21
863.414	28.35
863.582	23.38
863.751	12.48
863.919	18.42
864.087	23.16
864.255	31.24
864.424	41.57
864.592	26.66
864.76	33.35
864.928	52.41
865.096	50.27
865.264	48.11
865.432	38.34
865.6	15.4
865.768	17.09
865.936	14.53
866.104	13.56
866.272	17.81
866.44	-34.21
866.608	-31.1
866.776	15.26
866.944	4.72
867.112	0.75
867.28	-35.45
867.448	-26.9
867.615	11.47
867.783	-12.4
867.951	6.78
868.119	17.67
868.286	4.56
868.454	27.15
868.622	20.6
868.789	34.74
868.957	72.94
869.125	46.37
869.292	54.84
869.46	52.08
869.627	39.66
869.795	48.72
869.963	45.25
870.13	29.43
870.298	21.77
870.465	-10.67
870.632	26.26
870.8	4.45
870.967	8.69
871.135	14.93
871.302	21.82
871.469	26.01
871.637	35.36
871.804	24
871.971	38.48
872.139	53.36
872.306	46.34
872.473	23.85
872.64	25.48
872.807	32.5
872.975	37.36
873.142	9.96
873.309	-65
873.476	-101.14
873.643	7.34
873.81	26.05
873.977	-41.31
874.144	-55.55
874.311	-66.89
874.478	-51.84
874.645	-60.44
874.812	-37.99
874.979	-58.17
875.146	-74.68
875.313	-93.13
875.48	50.03
875.647	27.39
875.813	11.12
875.98	-22
876.147	29.08
876.314	47.44
876.481	51.93
876.647	8.26
876.814	40.31
876.981	37.96
877.147	32.18
877.314	21.1
877.481	23.96
877.647	20.69
877.814	6.67
877.98	-1.86
878.147	8.74
878.314	11.88
878.48	2.84
878.647	34.56
878.813	35.25
878.979	85.97
879.146	53.63
879.312	71.2
879.479	66.02
879.645	46.12
879.811	15.65
879.978	30.88
880.144	23.08
880.31	-16.85
880.477	-66.51
880.643	-182.85
880.809	-2.6
880.975	-50.89
881.142	-39.81
881.308	-43.93
881.474	-9.87
881.64	-14.99
881.806	18.93
881.972	20.25
882.138	50.32
882.304	-12.5
882.47	-20.14
882.636	-54.44
882.802	-46.11
882.968	-110.4
883.134	-215.87
883.3	-88.78
883.466	-15.68
883.632	-4.62
883.798	9.79
883.964	10.42
884.129	-9.96
884.295	-10.35
884.461	-57.89
884.627	-71.16
884.793	-28.82
884.958	-13.72
885.124	-73.95
885.29	-27.83
885.455	-9.68
885.621	3.45
885.787	-10.25
885.952	-38.85
886.118	-53.89
886.283	-18.68
886.449	-44.35
886.614	-66.16
886.78	-20.31
886.945	-28.42
887.111	-20.06
887.276	-30.8
887.442	-9.32
887.607	-2.17
887.773	-10.59
887.938	-39.31
888.103	10.33
888.269	23.52
888.434	45.19
888.599	52.65
888.764	50.32
888.93	62.88
889.095	62.45
889.26	84.74
889.425	96.4
889.59	75.03
889.756	56.23
889.921	57.58
890.086	55.3
890.251	30.66
890.416	-50.52
890.581	-48.99
890.746	-41.51
890.911	-80.34
891.076	-107.3
891.241	-160.59
891.406	-8.48
891.571	0.36
891.736	0.1
891.901	14.12
892.065	16.3
892.23	-6.7
892.395	-4.56
892.56	-26.51
892.725	-9.71
892.889	-58.92
893.054	-124.47
893.219	-163.61
893.384	-233.75
893.548	-552.5
893.713	886.39
893.878	523.91
