Data from Ofra_PS_T2_2A_2GT41_Reflection_3.txt Node
Date: Wed Jul 21 17:05:05 EDT 2021
User: Adam
Spectrometer: FLMT01687
Trigger mode: 0
Integration Time (sec): 1.100000E0
Scans to average: 2
Electric dark correction enabled: true
Nonlinearity correction enabled: false
Boxcar width: 2
XAxis mode: Wavelengths
Number of Pixels in Spectrum: 3648
>>>>>Begin Spectral Data<<<<<
179.494	537
179.716	619.06
179.937	585.94
180.158	601.31
180.38	1075.78
180.601	523.34
180.823	159.4
181.044	106.28
181.265	250.92
181.486	90.68
181.708	87.82
181.929	65.82
182.15	229.23
182.372	195.86
182.593	172.74
182.814	76.03
183.035	53.35
183.257	36.68
183.478	-34.95
183.699	13.11
183.92	-4.68
184.141	-13.49
184.363	-81.29
184.584	5.85
184.805	0.39
185.026	26.67
185.247	28.76
185.468	25.97
185.689	15.34
185.91	35.08
186.132	24.89
186.353	38.16
186.574	83.17
186.795	58.77
187.016	-0.89
187.237	-16.19
187.458	-23.51
187.679	-30.8
187.9	-8.56
188.121	-4.1
188.342	47.13
188.563	57.46
188.784	64.04
189.005	47.74
189.226	82.85
189.447	43.25
189.667	-177.31
189.888	-308.5
190.109	-1066.56
190.33	-584.03
190.551	-1122.35
190.772	-255.51
190.993	-222.49
191.214	-168.18
191.434	-96.38
191.655	-9.85
191.876	-60.61
192.097	-99.52
192.318	-182.43
192.538	-309.46
192.759	-205.5
192.98	-74.82
193.201	-15.52
193.421	2.43
193.642	33.51
193.863	35.83
194.083	4.34
194.304	-16.08
194.525	-15
194.745	-64.27
194.966	-81.09
195.187	-65.74
195.407	-77.54
195.628	-143.46
195.848	-127.3
196.069	-129.44
196.29	-110.49
196.51	-106.7
196.731	-90.41
196.951	-106.24
197.172	-101.86
197.392	-110.99
197.613	-114.39
197.833	-117.27
198.054	-105.37
198.274	-65.78
198.495	-74.39
198.715	-40.94
198.936	-72.17
199.156	-67.46
199.377	-159.2
199.597	-143.81
199.817	-148.71
200.038	-59.24
200.258	-113.54
200.479	-44.14
200.699	-20.54
200.919	28.7
201.14	5.28
201.36	9.41
201.58	27.36
201.801	44.12
202.021	4.22
202.241	-12.18
202.461	-14.99
202.682	-112.81
202.902	-194.18
203.122	-104.11
203.342	-77.18
203.563	-21.28
203.783	18.34
204.003	1.89
204.223	-2.16
204.443	31.1
204.663	5.3
204.884	0.62
205.104	19.81
205.324	41.45
205.544	59.32
205.764	65.74
205.984	71.62
206.204	68.98
206.424	44.53
206.644	-8.76
206.864	-17.63
207.084	-98.7
207.304	-44.95
207.525	-176.02
207.745	-67.4
207.964	-5.1
208.184	-27.68
208.404	-91.85
208.624	-88.5
208.844	-65.91
209.064	-317.11
209.284	-337.89
209.504	-147.33
209.724	-9.99
209.944	-7.14
210.164	23.64
210.384	31.35
210.604	23.78
210.823	-8.82
211.043	-33.13
211.263	-20.52
211.483	-8.92
211.703	-76.67
211.922	-67.3
212.142	11.46
212.362	6.41
212.582	-16.66
212.801	16.42
213.021	2.41
213.241	-50.91
213.461	-95.79
213.68	-99.17
213.9	-67.21
214.12	-44.7
214.339	-69.07
214.559	-21
214.779	10.06
214.998	-20.36
215.218	-87.25
215.438	-53.62
215.657	-61.76
215.877	-68.15
216.096	-6.34
216.316	21.24
216.535	9.43
216.755	-1.31
216.974	-73.48
217.194	-134.71
217.413	-126.32
217.633	-115.91
217.852	-166.84
218.072	-47.89
218.291	0.28
218.511	28.44
218.73	-6.96
218.95	-10.62
219.169	-20.23
219.389	-70.47
219.608	-60.9
219.827	-41.65
220.047	-23.54
220.266	-14.91
220.485	-14.56
220.705	8.81
220.924	-12.15
221.143	16.62
221.363	-11.98
221.582	2.6
221.801	13.21
222.021	40.16
222.24	-9.53
222.459	86.88
222.678	44.42
222.897	-66.34
223.117	-107.2
223.336	-91.5
223.555	-88.19
223.774	-24.14
223.993	5.66
224.213	43.59
224.432	21.92
224.651	55.04
224.87	29.5
225.089	34.77
225.308	20.02
225.527	45.53
225.746	41.77
225.965	31.26
226.184	24.59
226.404	41.01
226.623	19.95
226.842	17.28
227.061	36.72
227.28	37.19
227.499	28.48
227.718	25.57
227.936	8.67
228.155	-0.55
228.374	-16.11
228.593	-15.87
228.812	-10.19
229.031	1.1
229.25	-28.41
229.469	-31.5
229.688	-36.3
229.907	-6.34
230.125	27.04
230.344	36.55
230.563	45.43
230.782	73.17
231.001	21.49
231.22	-4.61
231.438	26.07
231.657	13.59
231.876	0.97
232.095	33
232.313	28.8
232.532	5.4
232.751	4.73
232.969	5.73
233.188	-31.43
233.407	18.92
233.625	5.94
233.844	-10.76
234.063	-15.19
234.281	15.73
234.5	-2.37
234.719	6.86
234.937	24.58
235.156	20.05
235.374	6.03
235.593	-1.18
235.811	-11.52
236.03	-10.47
236.249	-37.38
236.467	-35.32
236.686	-7.02
236.904	-3.33
237.123	-34.68
237.341	-24.43
237.559	-20.54
237.778	-47.39
237.996	-66.99
238.215	-21.53
238.433	-8.89
238.652	-17.91
238.87	-27.26
239.088	-22.07
239.307	-16.54
239.525	-18.89
239.743	-25.13
239.962	7.56
240.18	-6.76
240.398	-66.08
240.617	-70.87
240.835	-53.04
241.053	-63.99
241.271	-15
241.49	43.56
241.708	24.33
241.926	30.91
242.144	39.57
242.363	-14.84
242.581	-55.49
242.799	-22.39
243.017	-0.95
243.235	-9.42
243.453	-0.71
243.672	9.01
243.89	10.56
244.108	-8.1
244.326	-0.28
244.544	15.55
244.762	7.32
244.98	-7.64
245.198	5.45
245.416	-17.93
245.634	-24.55
245.852	-33.06
246.07	-30.61
246.288	-35.43
246.506	-45.59
246.724	-50.29
246.942	-53.25
247.16	-1.27
247.378	3.39
247.596	24.65
247.814	17.91
248.032	10.13
248.25	4.34
248.468	-8.21
248.685	-13.53
248.903	16.17
249.121	22.51
249.339	-8.11
249.557	15.4
249.775	26.17
249.992	-32.8
250.21	-39.12
250.428	-25.48
250.646	-48.85
250.863	-83.52
251.081	-42.28
251.299	-28.68
251.517	5.97
251.734	-2.92
251.952	0.91
252.17	-2.13
252.387	1.87
252.605	-18.99
252.823	-23.85
253.04	0.79
253.258	19.42
253.475	11.62
253.693	43.8
253.911	59.94
254.128	48.97
254.346	35.57
254.563	18.96
254.781	-13.92
254.998	-34.93
255.216	-46.05
255.433	-30.77
255.651	-8.04
255.868	15.56
256.086	40.64
256.303	26.28
256.521	25.33
256.738	14.19
256.956	-21.85
257.173	-49.87
257.39	-38.98
257.608	-65.88
257.825	11.88
258.043	52.86
258.26	55.35
258.477	81.87
258.695	60.13
258.912	-30.38
259.129	-8.56
259.346	-40.06
259.564	-85.13
259.781	-67.14
259.998	0.28
260.216	0.75
260.433	45.59
260.65	47.5
260.867	54.46
261.084	30.01
261.302	29.83
261.519	4.83
261.736	-20.46
261.953	-48.94
262.17	-24.86
262.387	-67.46
262.604	-90.97
262.822	-98.34
263.039	-64.17
263.256	-73.9
263.473	-36.84
263.69	-28.01
263.907	7.6
264.124	16.75
264.341	0.58
264.558	3.85
264.775	25.1
264.992	14.29
265.209	9
265.426	38.48
265.643	41.44
265.86	46.36
266.077	58.85
266.294	63.27
266.51	27.43
266.727	11.18
266.944	3.63
267.161	-27.86
267.378	-15
267.595	14.89
267.812	-6.69
268.028	-15.58
268.245	36.01
268.462	-0.15
268.679	-17.48
268.896	26.66
269.112	20.82
269.329	12.72
269.546	12.27
269.763	13.6
269.979	3.82
270.196	11.29
270.413	-15.12
270.629	-23.17
270.846	-34.4
271.063	-41.58
271.279	-51.33
271.496	-39.08
271.712	-3.01
271.929	-0.43
272.146	-18.3
272.362	-8.39
272.579	34.75
272.795	41.62
273.012	54.86
273.228	65.49
273.445	24.78
273.661	-15.93
273.878	-69.06
274.094	-65.57
274.311	-94.98
274.527	-7.66
274.744	-13.65
274.96	-19.65
275.177	-10.2
275.393	20.88
275.609	3.77
275.826	29.58
276.042	37.39
276.259	13.98
276.475	17.62
276.691	22.98
276.908	-6.21
277.124	6.43
277.34	16.47
277.557	8.24
277.773	-6.6
277.989	6.12
278.205	6.13
278.422	26.62
278.638	23.74
278.854	50.24
279.07	42.96
279.286	23.66
279.503	-14.71
279.719	-13.13
279.935	-45.21
280.151	-46.43
280.367	-13.56
280.583	-21.86
280.799	-18.52
281.016	-49.45
281.232	-18.64
281.448	-26.07
281.664	2.62
281.88	-27.21
282.096	16.63
282.312	33.26
282.528	48.38
282.744	48.82
282.96	44.16
283.176	21.83
283.392	7.76
283.608	-6.94
283.824	-14.36
284.04	-11.34
284.256	-7.76
284.471	-9.58
284.687	-17.89
284.903	-4.88
285.119	12.55
285.335	-8.75
285.551	-18.31
285.767	-15.22
285.982	-22.64
286.198	-58.87
286.414	-1.97
286.63	1.04
286.846	9.77
287.061	-11.72
287.277	19.54
287.493	-7.76
287.709	11
287.924	-1.63
288.14	35.08
288.356	26.51
288.571	33.97
288.787	7.37
289.003	18.68
289.218	1.52
289.434	-19.97
289.65	-7.01
289.865	-6.27
290.081	12.42
290.296	26.68
290.512	29.89
290.727	-9.31
290.943	-0.65
291.159	-5.47
291.374	-18.38
291.59	-43.39
291.805	-20.17
292.021	-8.17
292.236	-24.89
292.451	-9.76
292.667	13.92
292.882	16.93
293.098	3.61
293.313	-14.8
293.529	-44.73
293.744	-74.88
293.959	-64.52
294.175	-63.19
294.39	-18.65
294.605	7.98
294.821	22.71
295.036	31.32
295.251	44.63
295.467	34.37
295.682	11.19
295.897	-26.26
296.112	-52.41
296.328	-49.67
296.543	-75.24
296.758	-54.79
296.973	-5.81
297.188	34.96
297.404	11.71
297.619	-0.15
297.834	-6.82
298.049	-20
298.264	-62.99
298.479	-15.61
298.694	-8.27
298.909	12.67
299.125	21.11
299.34	37.66
299.555	22.47
299.77	40.11
299.985	-21.54
300.2	-73.71
300.415	-91.19
300.63	-57.65
300.845	-61.63
301.06	-39.86
301.275	-3.37
301.49	4.41
301.704	-5.96
301.919	-9.74
302.134	-17.96
302.349	-16.45
302.564	-65.48
302.779	-72.52
302.994	-79.35
303.209	-25.03
303.423	-14.41
303.638	30.7
303.853	3.71
304.068	-3.84
304.283	1.86
304.497	4.41
304.712	-1.65
304.927	4.26
305.142	6.09
305.356	-5.85
305.571	-21.49
305.786	-24.89
306	-49.21
306.215	-41.66
306.43	-53.38
306.644	-37.24
306.859	-1.77
307.074	21.81
307.288	-25.51
307.503	-38.23
307.717	-43.24
307.932	-66.13
308.147	-70.05
308.361	-43.3
308.576	-45.69
308.79	-82.71
309.005	-59.1
309.219	-45.72
309.434	-33.37
309.648	-25.34
309.863	4.44
310.077	-1.01
310.292	-8.25
310.506	-22.08
310.72	-6.12
310.935	-7.51
311.149	0.33
311.364	27.17
311.578	39.81
311.792	27.24
312.007	39.09
312.221	25.37
312.435	16.11
312.649	6.97
312.864	26.65
313.078	13.61
313.292	58.36
313.507	26.8
313.721	46.51
313.935	32.9
314.149	12.32
314.363	7.25
314.578	19.96
314.792	17.68
315.006	6.66
315.22	28.33
315.434	33.01
315.648	32.91
315.862	27.59
316.077	32.49
316.291	15.78
316.505	21.87
316.719	21.53
316.933	-12.13
317.147	-18.43
317.361	-58.89
317.575	-82.97
317.789	-109.28
318.003	-148.57
318.217	-108.98
318.431	-15.06
318.645	22.93
318.859	19.99
319.073	42.83
319.287	35.79
319.5	2.46
319.714	-29.12
319.928	-34.37
320.142	-54.64
320.356	-15.15
320.57	2.14
320.784	-16.09
320.997	-54.4
321.211	-40.09
321.425	-84.87
321.639	-97.92
321.853	-43.82
322.066	-27.07
322.28	-27.84
322.494	-6.47
322.707	20.55
322.921	10
323.135	20.18
323.349	24.89
323.562	-6.68
323.776	-23.81
323.989	-16.96
324.203	-35.62
324.417	-40.54
324.63	-46.33
324.844	-43.18
325.057	-44.96
325.271	-37.38
325.485	-6.7
325.698	17.09
325.912	31.67
326.125	15.02
326.339	22.29
326.552	3.23
326.766	-1.71
326.979	-6.34
327.193	23.76
327.406	6.79
327.619	-2.15
327.833	7.3
328.046	-4.44
328.26	-38.4
328.473	-8.58
328.686	-32.3
328.9	-39.16
329.113	-23.17
329.326	-46.87
329.54	-48.95
329.753	-29.89
329.966	-36.77
330.179	-37.19
330.393	-13.22
330.606	-11.21
330.819	-5.3
331.032	8.75
331.246	11.84
331.459	38.92
331.672	34.75
331.885	37.65
332.098	13.72
332.311	-4.52
332.525	-58.57
332.738	-49.98
332.951	-24.8
333.164	10.23
333.377	38.31
333.59	56.35
333.803	60.46
334.016	45.51
334.229	33.46
334.442	14.23
334.655	33.41
334.868	31.08
335.081	29.15
335.294	21.47
335.507	21.55
335.72	-3.18
335.933	-18.91
336.146	-21.26
336.359	-27.17
336.572	-64.22
336.785	-77.62
336.997	-64.82
337.21	-40.8
337.423	-30.29
337.636	-16.49
337.849	-12.32
338.062	-17.13
338.274	-8.89
338.487	-13.47
338.7	-5.18
338.913	-40.47
339.125	-53.65
339.338	-131.36
339.551	-111.62
339.763	-71.39
339.976	-8.91
340.189	1.05
340.402	18.84
340.614	6.78
340.827	-0.92
341.039	-35
341.252	-21.88
341.465	-8.59
341.677	4.53
341.89	-36.03
342.102	-6.38
342.315	-19.4
342.527	-57.06
342.74	-58.56
342.952	-17.97
343.165	-17.87
343.377	4.23
343.59	8.25
343.802	25.97
344.015	33.44
344.227	32.1
344.44	27.84
344.652	38.16
344.864	6.47
345.077	21.19
345.289	26.5
345.502	30.07
345.714	18.84
345.926	32.67
346.139	26.68
346.351	24.39
346.563	21.61
346.775	31.84
346.988	13.32
347.2	-3.44
347.412	-36.92
347.624	-64
347.837	-60.35
348.049	-8.02
348.261	17.89
348.473	28.56
348.685	42.46
348.897	23.09
349.11	-5.44
349.322	-25.77
349.534	-15.09
349.746	-20.97
349.958	-12.84
350.17	-2.91
350.382	6.28
350.594	-1.86
350.806	9.19
351.018	13.21
351.23	-4.99
351.442	-36.62
351.654	-30.61
351.866	-20.91
352.078	-24.25
352.29	2.08
352.502	24.05
352.714	34.36
352.926	13.1
353.138	11.09
353.35	-1.19
353.561	-11.73
353.773	-34.55
353.985	-17.92
354.197	-28.28
354.409	-20.11
354.621	-23.32
354.832	-8.22
355.044	-10.54
355.256	-8.11
355.468	4.08
355.679	6.48
355.891	17.41
356.103	8.39
356.314	14.11
356.526	8.02
356.738	9.62
356.949	-12.72
357.161	8.75
357.373	1.33
357.584	-12.02
357.796	1.55
358.008	0.83
358.219	6.66
358.431	11.09
358.642	24.12
358.854	7.79
359.065	1.78
359.277	-37.8
359.488	-46.72
359.7	-77.86
359.911	-87.58
360.123	-58.47
360.334	-54.07
360.546	-71.86
360.757	-54.12
360.969	-30.17
361.18	-27.99
361.391	-6.89
361.603	-12.89
361.814	-7.85
362.025	-19.35
362.237	-23.48
362.448	-12.27
362.659	22.17
362.871	12.93
363.082	21.84
363.293	15.58
363.504	1.78
363.716	-26.87
363.927	-31.53
364.138	-44.26
364.349	-50.17
364.56	-40.46
364.772	-28.73
364.983	-3.89
365.194	-1.7
365.405	16.42
365.616	27.11
365.827	23.57
366.038	-3.72
366.25	-14.6
366.461	-52.43
366.672	-26.42
366.883	-2.06
367.094	4.05
367.305	4.75
367.516	10.91
367.727	-27.2
367.938	-47.03
368.149	-40.63
368.36	-27.45
368.571	-19.2
368.781	-23.25
368.992	-31.82
369.203	-42.08
369.414	-71.98
369.625	-73.83
369.836	-59.71
370.047	-89.92
370.258	-72.52
370.468	-59.37
370.679	-67.75
370.89	-53.69
371.101	-21.26
371.312	-28.41
371.522	-16.45
371.733	-6.82
371.944	-5.86
372.155	0.57
372.365	-6.7
372.576	-6.41
372.787	-18.6
372.997	-25.79
373.208	-30.99
373.419	2.85
373.629	-25.13
373.84	-35.07
374.05	-52.02
374.261	-30.04
374.472	-54.06
374.682	-2.66
374.893	0.62
375.103	30.03
375.314	18.03
375.524	20.43
375.735	14
375.945	24.42
376.156	4.44
376.366	8.74
376.577	13.62
376.787	5.14
376.997	8.84
377.208	13.08
377.418	8.34
377.629	8.9
377.839	10.16
378.049	10.72
378.26	14.91
378.47	15.61
378.68	6.63
378.89	-4.01
379.101	-8.04
379.311	-33.03
379.521	-57.3
379.732	-52.67
379.942	-39.51
380.152	-57.11
380.362	-22.05
380.572	-18.87
380.783	-13.09
380.993	-2.07
381.203	10.11
381.413	12.18
381.623	18.76
381.833	16.04
382.043	7.13
382.253	2.84
382.463	-6.44
382.674	-13.03
382.884	-22.59
383.094	-19.73
383.304	-13.46
383.514	-3.69
383.724	1.22
383.934	-1.95
384.144	-18.23
384.353	-26.83
384.563	-33.11
384.773	-20.59
384.983	-23.95
385.193	1.41
385.403	7.47
385.613	10.8
385.823	-7.37
386.033	1.25
386.242	-10.34
386.452	-16.9
386.662	-22.31
386.872	-0.6
387.082	-4.84
387.291	-3.85
387.501	-1.99
387.711	-1.88
387.921	-15.7
388.13	-15.52
388.34	-7.15
388.55	-7.7
388.759	-3.73
388.969	4.21
389.179	4.47
389.388	2.8
389.598	10.73
389.807	1.51
390.017	-5.16
390.227	-6.23
390.436	-9.2
390.646	-11.06
390.855	-4.11
391.065	-5.6
391.274	-6.51
391.484	-7.12
391.693	-5.58
391.903	-3.68
392.112	3.94
392.322	8.31
392.531	11.75
392.74	12.89
392.95	5.65
393.159	2.67
393.369	3.07
393.578	2.73
393.787	0.75
393.997	5.24
394.206	3.93
394.415	3.14
394.625	3
394.834	0.28
395.043	1.23
395.252	3.18
395.462	4.73
395.671	6.05
395.88	8.58
396.089	8.19
396.298	6.94
396.508	6.1
396.717	4.55
396.926	4.73
397.135	4.51
397.344	5.11
397.553	6.33
397.762	7.1
397.971	6.96
398.181	6.94
398.39	6.11
398.599	5.19
398.808	5.13
399.017	5.29
399.226	6.42
399.435	6.94
399.644	6.77
399.853	6.36
400.062	6.3
400.27	5.38
400.479	5.47
400.688	5.01
400.897	4.99
401.106	5.02
401.315	5.24
401.524	5.35
401.733	5.86
401.941	6.39
402.15	6.6
402.359	6.38
402.568	6.58
402.777	6.54
402.985	6.36
403.194	5.96
403.403	5.92
403.612	5.55
403.82	5.16
404.029	5.24
404.238	5.31
404.446	5.46
404.655	5.51
404.864	5.87
405.072	5.58
405.281	5.54
405.489	5.23
405.698	5.03
405.906	4.9
406.115	4.98
406.324	5.01
406.532	5.42
406.741	5.54
406.949	5.59
407.158	5.63
407.366	5.72
407.574	5.57
407.783	5.72
407.991	5.46
408.2	5.54
408.408	5.48
408.617	5.34
408.825	5.07
409.033	5.25
409.242	5.28
409.45	5.44
409.658	5.42
409.867	5.63
410.075	5.56
410.283	5.38
410.491	5.19
410.7	5.17
410.908	5.14
411.116	5.33
411.324	5.29
411.533	5.23
411.741	5.37
411.949	5.32
412.157	5.08
412.365	5.21
412.573	5.21
412.781	5.25
412.99	5.26
413.198	5.44
413.406	5.35
413.614	5.35
413.822	5.05
414.03	5
414.238	4.8
414.446	4.94
414.654	4.75
414.862	4.92
415.07	4.92
415.278	5.13
415.486	4.8
415.694	4.99
415.902	4.78
416.109	4.61
416.317	4.53
416.525	4.43
416.733	4.54
416.941	4.85
417.149	4.94
417.357	4.87
417.564	5.15
417.772	5.33
417.98	5.2
418.188	5.2
418.395	5.31
418.603	5.34
418.811	4.78
419.019	4.79
419.226	5.04
419.434	5.08
419.642	4.88
419.849	5.17
420.057	5.05
420.265	4.88
420.472	4.63
420.68	4.71
420.887	4.43
421.095	4.54
421.302	4.46
421.51	4.66
421.717	4.77
421.925	4.99
422.132	4.7
422.34	4.49
422.547	4.52
422.755	4.27
422.962	4.1
423.17	4.18
423.377	4.29
423.585	4.2
423.792	4.19
423.999	4.24
424.207	4.29
424.414	4.42
424.621	4.28
424.829	4.21
425.036	4.16
425.243	4.2
425.451	4.04
425.658	3.96
425.865	4.29
426.072	4.33
426.28	4.74
426.487	4.84
426.694	4.89
426.901	4.58
427.108	4.62
427.315	4.21
427.523	4.46
427.73	4.56
427.937	4.59
428.144	4.45
428.351	4.46
428.558	4.44
428.765	4.29
428.972	4.35
429.179	4.48
429.386	4.63
429.593	4.36
429.8	4.39
430.007	4.56
430.214	4.69
430.421	4.55
430.628	4.45
430.835	4.29
431.042	4.4
431.249	4.4
431.456	4.41
431.662	4.62
431.869	4.93
432.076	4.9
432.283	4.96
432.49	5
432.697	5.02
432.903	4.84
433.11	4.82
433.317	4.91
433.524	5.09
433.73	5.06
433.937	5.26
434.144	5.13
434.35	5.07
434.557	4.87
434.764	4.96
434.97	4.89
435.177	5.15
435.384	5.1
435.59	5.22
435.797	5.33
436.003	5.34
436.21	5.21
436.416	5.2
436.623	5.14
436.829	5.13
437.036	5.26
437.242	5.35
437.449	5.4
437.655	5.46
437.862	5.44
438.068	5.37
438.275	5.45
438.481	5.57
438.687	5.55
438.894	5.46
439.1	5.5
439.307	5.6
439.513	5.45
439.719	5.49
439.926	5.66
440.132	5.54
440.338	5.28
440.544	5.45
440.751	5.45
440.957	5.46
441.163	5.57
441.369	5.74
441.575	5.54
441.782	5.54
441.988	5.42
442.194	5.38
442.4	5.33
442.606	5.63
442.812	5.64
443.018	5.72
443.224	5.77
443.431	5.78
443.637	5.53
443.843	5.45
444.049	5.48
444.255	5.36
444.461	5.4
444.667	5.41
444.873	5.52
445.079	5.42
445.284	5.63
445.49	5.39
445.696	5.27
445.902	5.21
446.108	5.21
446.314	5.13
446.52	5.28
446.726	5.58
446.931	5.56
447.137	5.63
447.343	5.63
447.549	5.61
447.755	5.43
447.96	5.47
448.166	5.43
448.372	5.43
448.578	5.45
448.783	5.49
448.989	5.6
449.195	5.7
449.4	5.7
449.606	5.7
449.812	5.55
450.017	5.53
450.223	5.4
450.428	5.32
450.634	5.43
450.84	5.67
451.045	5.56
451.251	5.52
451.456	5.8
451.662	5.76
451.867	5.75
452.073	5.77
452.278	5.88
452.483	5.93
452.689	5.81
452.894	5.83
453.1	5.79
453.305	5.78
453.51	5.59
453.716	5.61
453.921	5.66
454.127	5.69
454.332	5.67
454.537	5.61
454.742	5.68
454.948	5.52
455.153	5.52
455.358	5.67
455.563	5.83
455.769	5.83
455.974	5.84
456.179	5.75
456.384	5.62
456.589	5.57
456.795	5.43
457	5.38
457.205	5.62
457.41	5.6
457.615	5.52
457.82	5.63
458.025	5.68
458.23	5.46
458.435	5.54
458.64	5.48
458.845	5.57
459.05	5.61
459.255	5.65
459.46	5.62
459.665	5.71
459.87	5.61
460.075	5.57
460.28	5.56
460.485	5.64
460.69	5.58
460.895	5.51
461.099	5.51
461.304	5.68
461.509	5.61
461.714	5.56
461.919	5.69
462.123	5.63
462.328	5.58
462.533	5.57
462.738	5.68
462.942	5.54
463.147	5.58
463.352	5.52
463.556	5.56
463.761	5.52
463.966	5.54
464.17	5.62
464.375	5.57
464.58	5.49
464.784	5.47
464.989	5.51
465.193	5.43
465.398	5.39
465.602	5.48
465.807	5.45
466.011	5.5
466.216	5.51
466.42	5.67
466.625	5.72
466.829	5.85
467.034	5.94
467.238	6.16
467.443	6.02
467.647	5.9
467.851	5.92
468.056	5.86
468.26	5.72
468.464	5.87
468.669	5.93
468.873	5.98
469.077	6.01
469.282	6.14
469.486	6.09
469.69	6.15
469.894	6.04
470.099	6.05
470.303	6
470.507	5.95
470.711	5.88
470.915	5.87
471.119	5.79
471.324	5.72
471.528	5.71
471.732	5.76
471.936	5.8
472.14	5.85
472.344	5.9
472.548	6
472.752	6.12
472.956	6.33
473.16	6.31
473.364	6.24
473.568	6.2
473.772	6.2
473.976	5.96
474.18	5.93
474.384	6.02
474.588	5.94
474.792	5.79
474.995	5.89
475.199	6.01
475.403	6.01
475.607	6.12
475.811	6.11
476.015	6.16
476.218	6.16
476.422	6.13
476.626	6.21
476.83	6.33
477.033	6.26
477.237	6.2
477.441	6.2
477.644	6.14
477.848	6.07
478.052	6.03
478.255	6.03
478.459	6.04
478.663	6.13
478.866	6.22
479.07	6.24
479.273	6.5
479.477	6.57
479.681	6.52
479.884	6.42
480.088	6.41
480.291	6.22
480.495	6.18
480.698	6.19
480.901	6.28
481.105	6.39
481.308	6.42
481.512	6.35
481.715	6.34
481.919	6.33
482.122	6.37
482.325	6.41
482.529	6.44
482.732	6.5
482.935	6.47
483.138	6.37
483.342	6.36
483.545	6.49
483.748	6.56
483.952	6.69
484.155	6.85
484.358	6.88
484.561	6.86
484.764	6.82
484.967	6.86
485.171	6.86
485.374	6.86
485.577	6.99
485.78	7.05
485.983	7.05
486.186	6.98
486.389	7.03
486.592	6.96
486.795	6.99
486.998	6.97
487.201	7.12
487.404	7.24
487.607	7.42
487.81	7.53
488.013	7.66
488.216	7.71
488.419	7.74
488.622	7.66
488.825	7.64
489.028	7.66
489.231	7.62
489.433	7.62
489.636	7.68
489.839	7.78
490.042	7.8
490.245	7.91
490.447	8.07
490.65	8.18
490.853	8.29
491.056	8.5
491.258	8.68
491.461	8.78
491.664	8.94
491.866	9.01
492.069	9.22
492.272	9.29
492.474	9.5
492.677	9.7
492.879	9.88
493.082	10.01
493.285	10.34
493.487	10.46
493.69	10.55
493.892	10.66
494.095	10.79
494.297	10.83
494.5	11.05
494.702	11.25
494.905	11.55
495.107	11.75
495.309	12.03
495.512	12.26
495.714	12.45
495.917	12.68
496.119	12.86
496.321	12.99
496.524	13.13
496.726	13.36
496.928	13.48
497.13	13.72
497.333	13.88
497.535	14.02
497.737	14.17
497.939	14.37
498.142	14.52
498.344	14.74
498.546	14.9
498.748	15.14
498.95	15.36
499.152	15.46
499.355	15.58
499.557	15.81
499.759	15.98
499.961	16.07
500.163	16.25
500.365	16.45
500.567	16.56
500.769	16.55
500.971	16.7
501.173	16.71
501.375	16.83
501.577	16.78
501.779	16.87
501.981	16.82
502.183	16.87
502.385	16.8
502.587	16.84
502.788	16.99
502.99	17.07
503.192	17.15
503.394	17.25
503.596	17.41
503.798	17.37
503.999	17.39
504.201	17.39
504.403	17.33
504.605	17.21
504.806	17.1
505.008	17.07
505.21	17.02
505.411	17.01
505.613	16.99
505.815	16.97
506.016	16.95
506.218	17.03
506.42	16.87
506.621	16.8
506.823	16.75
507.024	16.54
507.226	16.38
507.427	16.3
507.629	16.26
507.83	16.17
508.032	16.04
508.233	15.97
508.435	16.01
508.636	15.98
508.838	15.84
509.039	15.86
509.24	15.74
509.442	15.59
509.643	15.36
509.845	15.29
510.046	15.27
510.247	15.22
510.448	15.15
510.65	15.15
510.851	15.14
511.052	15
511.254	14.89
511.455	14.83
511.656	14.75
511.857	14.73
512.058	14.63
512.26	14.51
512.461	14.44
512.662	14.34
512.863	14.21
513.064	14.12
513.265	14.13
513.466	14.1
513.667	14.05
513.868	13.98
514.069	14.05
514.27	13.98
514.471	13.84
514.672	13.79
514.873	13.76
515.074	13.7
515.275	13.55
515.476	13.53
515.677	13.5
515.878	13.54
516.079	13.42
516.28	13.41
516.481	13.46
516.682	13.43
516.882	13.25
517.083	13.24
517.284	13.18
517.485	13.04
517.686	12.95
517.886	12.92
518.087	12.89
518.288	12.91
518.488	12.83
518.689	12.87
518.89	12.88
519.091	12.85
519.291	12.88
519.492	12.97
519.692	12.88
519.893	12.9
520.094	12.82
520.294	12.71
520.495	12.63
520.695	12.65
520.896	12.56
521.096	12.6
521.297	12.66
521.497	12.61
521.698	12.51
521.898	12.45
522.099	12.38
522.299	12.33
522.499	12.38
522.7	12.38
522.9	12.37
523.101	12.41
523.301	12.39
523.501	12.33
523.702	12.34
523.902	12.42
524.102	12.43
524.302	12.43
524.503	12.43
524.703	12.44
524.903	12.45
525.103	12.37
525.304	12.42
525.504	12.43
525.704	12.46
525.904	12.4
526.104	12.37
526.304	12.32
526.504	12.33
526.705	12.26
526.905	12.35
527.105	12.38
527.305	12.39
527.505	12.31
527.705	12.35
527.905	12.29
528.105	12.29
528.305	12.21
528.505	12.26
528.705	12.28
528.905	12.24
529.105	12.21
529.304	12.28
529.504	12.36
529.704	12.31
529.904	12.34
530.104	12.35
530.304	12.4
530.503	12.37
530.703	12.32
530.903	12.29
531.103	12.32
531.303	12.28
531.502	12.35
531.702	12.49
531.902	12.51
532.101	12.55
532.301	12.51
532.501	12.47
532.7	12.4
532.9	12.46
533.1	12.4
533.299	12.5
533.499	12.46
533.698	12.43
533.898	12.45
534.097	12.48
534.297	12.51
534.496	12.55
534.696	12.56
534.895	12.6
535.095	12.68
535.294	12.64
535.494	12.56
535.693	12.54
535.892	12.55
536.092	12.49
536.291	12.46
536.491	12.56
536.69	12.67
536.889	12.58
537.088	12.54
537.288	12.63
537.487	12.68
537.686	12.64
537.886	12.73
538.085	12.76
538.284	12.85
538.483	12.79
538.682	12.82
538.882	12.79
539.081	12.9
539.28	12.75
539.479	12.76
539.678	12.74
539.877	12.86
540.076	12.77
540.275	12.86
540.474	12.89
540.673	12.89
540.872	12.78
541.071	12.87
541.27	12.79
541.469	12.77
541.668	12.81
541.867	12.9
542.066	12.93
542.265	13.06
542.464	13.02
542.663	13.02
542.862	13.1
543.06	13.1
543.259	13.1
543.458	13.2
543.657	13.25
543.856	13.2
544.054	13.18
544.253	13.1
544.452	13.1
544.651	13.19
544.849	13.18
545.048	13.21
545.247	13.29
545.445	13.31
545.644	13.23
545.843	13.21
546.041	13.23
546.24	13.31
546.438	13.42
546.637	13.47
546.836	13.62
547.034	13.64
547.233	13.61
547.431	13.54
547.63	13.58
547.828	13.55
548.027	13.55
548.225	13.61
548.423	13.66
548.622	13.73
548.82	13.71
549.019	13.78
549.217	13.82
549.415	13.84
549.614	13.92
549.812	13.96
550.01	14
550.209	14.03
550.407	14.11
550.605	14.01
550.803	14.1
551.002	14.17
551.2	14.2
551.398	14.28
551.596	14.42
551.794	14.46
551.993	14.58
552.191	14.62
552.389	14.67
552.587	14.73
552.785	14.72
552.983	14.68
553.181	14.75
553.379	14.76
553.577	14.78
553.775	14.88
553.973	14.94
554.171	15.05
554.369	15.08
554.567	15.07
554.765	15.11
554.963	15.21
555.161	15.13
555.359	15.26
555.557	15.47
555.755	15.54
555.952	15.62
556.15	15.67
556.348	15.66
556.546	15.68
556.744	15.73
556.941	15.69
557.139	15.8
557.337	15.83
557.535	15.77
557.732	15.87
557.93	16.01
558.128	16.06
558.325	16.18
558.523	16.26
558.721	16.29
558.918	16.31
559.116	16.49
559.313	16.53
559.511	16.71
559.708	16.74
559.906	16.8
560.104	16.76
560.301	16.87
560.498	16.82
560.696	16.91
560.893	17
561.091	17.11
561.288	17.13
561.486	17.23
561.683	17.28
561.88	17.3
562.078	17.38
562.275	17.4
562.473	17.54
562.67	17.69
562.867	17.8
563.064	17.82
563.262	17.89
563.459	17.92
563.656	17.96
563.853	18.05
564.051	18.15
564.248	18.33
564.445	18.46
564.642	18.57
564.839	18.72
565.036	18.84
565.234	18.94
565.431	19.01
565.628	19.08
565.825	19.09
566.022	19.2
566.219	19.24
566.416	19.38
566.613	19.45
566.81	19.56
567.007	19.47
567.204	19.42
567.401	19.35
567.598	19.27
567.795	19.19
567.991	19.29
568.188	19.38
568.385	19.54
568.582	19.67
568.779	19.76
568.976	19.82
569.172	19.96
569.369	19.88
569.566	19.93
569.763	20.03
569.96	20.09
570.156	20.06
570.353	20.01
570.55	20.07
570.746	20.04
570.943	20.02
571.14	20.07
571.336	20.17
571.533	20.24
571.729	20.27
571.926	20.39
572.123	20.47
572.319	20.58
572.516	20.56
572.712	20.65
572.909	20.63
573.105	20.68
573.302	20.69
573.498	20.78
573.695	20.7
573.891	20.74
574.087	20.68
574.284	20.68
574.48	20.58
574.677	20.57
574.873	20.51
575.069	20.57
575.266	20.65
575.462	20.61
575.658	20.73
575.854	20.87
576.051	20.83
576.247	20.75
576.443	20.85
576.639	20.84
576.835	20.68
577.032	20.68
577.228	20.81
577.424	20.76
577.62	20.69
577.816	20.78
578.012	20.83
578.208	20.7
578.404	20.72
578.6	20.72
578.796	20.66
578.993	20.62
579.189	20.59
579.384	20.49
579.58	20.45
579.776	20.52
579.972	20.41
580.168	20.33
580.364	20.37
580.56	20.37
580.756	20.23
580.952	20.19
581.148	20.22
581.343	20.24
581.539	20.22
581.735	20.25
581.931	20.37
582.127	20.4
582.322	20.38
582.518	20.39
582.714	20.44
582.909	20.35
583.105	20.32
583.301	20.27
583.496	20.24
583.692	20.14
583.888	20.09
584.083	20.11
584.279	20.13
584.474	20.2
584.67	20.26
584.866	20.3
585.061	20.1
585.257	20.16
585.452	20.06
585.648	19.96
585.843	19.9
586.039	20.02
586.234	19.93
586.429	19.86
586.625	19.96
586.82	19.97
587.015	19.96
587.211	19.94
587.406	19.99
587.601	19.96
587.797	19.87
587.992	19.79
588.187	19.89
588.383	19.83
588.578	19.78
588.773	19.89
588.968	19.98
589.163	19.96
589.359	20
589.554	19.91
589.749	19.89
589.944	19.96
590.139	19.94
590.334	20.02
590.529	20.15
590.724	20.19
590.919	20.21
591.114	20.21
591.309	20.2
591.504	20.19
591.699	20.15
591.894	20.16
592.089	20.14
592.284	20.15
592.479	20.18
592.674	20.25
592.869	20.32
593.064	20.46
593.259	20.56
593.454	20.6
593.648	20.6
593.843	20.58
594.038	20.54
594.233	20.48
594.428	20.51
594.622	20.53
594.817	20.74
595.012	20.76
595.206	20.85
595.401	20.91
595.596	20.95
595.79	20.87
595.985	20.95
596.18	20.95
596.374	21.05
596.569	21.16
596.763	21.1
596.958	21.18
597.153	21.35
597.347	21.31
597.542	21.36
597.736	21.44
597.931	21.5
598.125	21.45
598.319	21.59
598.514	21.53
598.708	21.62
598.903	21.53
599.097	21.57
599.291	21.61
599.486	21.64
599.68	21.63
599.874	21.8
600.069	21.75
600.263	21.76
600.457	21.92
600.651	21.95
600.846	21.86
601.04	21.99
601.234	21.93
601.428	21.94
601.622	21.91
601.817	21.97
602.011	21.96
602.205	22.04
602.399	21.97
602.593	22.03
602.787	22.09
602.981	22.03
603.175	22.07
603.369	22.02
603.563	22.05
603.757	22.09
603.951	22.18
604.145	22.18
604.339	22.23
604.533	22.2
604.727	22.11
604.921	22.06
605.115	21.99
605.309	22.08
605.502	22.12
605.696	22.07
605.89	22.02
606.084	21.95
606.278	21.74
606.471	21.59
606.665	21.48
606.859	21.45
607.053	21.43
607.246	21.49
607.44	21.46
607.634	21.4
607.827	21.32
608.021	21.29
608.214	21.23
608.408	21.14
608.602	21.21
608.795	21.21
608.989	21.1
609.182	21.02
609.376	20.98
609.569	20.95
609.763	20.86
609.956	20.77
610.15	20.69
610.343	20.69
610.537	20.58
610.73	20.64
610.923	20.62
611.117	20.6
611.31	20.6
611.504	20.53
611.697	20.39
611.89	20.34
612.083	20.29
612.277	20.2
612.47	20.13
612.663	20.1
612.856	20.02
613.05	19.9
613.243	19.76
613.436	19.65
613.629	19.51
613.822	19.39
614.015	19.36
614.209	19.35
614.402	19.43
614.595	19.48
614.788	19.53
614.981	19.39
615.174	19.31
615.367	19.12
615.56	18.91
615.753	18.76
615.946	18.77
616.139	18.71
616.332	18.92
616.525	19
616.718	19.11
616.911	19.13
617.103	19.18
617.296	19.02
617.489	18.93
617.682	18.81
617.875	18.78
618.067	18.71
618.26	18.57
618.453	18.62
618.646	18.61
618.838	18.51
619.031	18.61
619.224	18.67
619.417	18.62
619.609	18.67
619.802	18.7
619.994	18.59
620.187	18.46
620.38	18.35
620.572	18.16
620.765	18.09
620.957	17.93
621.15	17.96
621.342	18
621.535	18.08
621.727	18.04
621.92	18.07
622.112	17.95
622.305	17.96
622.497	17.83
622.69	17.83
622.882	17.88
623.074	18.02
623.267	17.93
623.459	17.86
623.651	17.78
623.844	17.69
624.036	17.59
624.228	17.51
624.42	17.6
624.613	17.71
624.805	17.69
624.997	17.67
625.189	17.66
625.381	17.73
625.574	17.58
625.766	17.51
625.958	17.5
626.15	17.58
626.342	17.47
626.534	17.52
626.726	17.55
626.918	17.53
627.11	17.47
627.302	17.56
627.494	17.52
627.686	17.55
627.878	17.43
628.07	17.42
628.262	17.33
628.454	17.39
628.646	17.36
628.838	17.43
629.029	17.35
629.221	17.33
629.413	17.1
629.605	16.95
629.797	16.88
629.989	16.85
630.18	16.74
630.372	16.76
630.564	16.8
630.755	16.82
630.947	16.9
631.139	16.86
631.33	16.87
631.522	16.97
631.714	16.94
631.905	16.88
632.097	16.87
632.289	16.89
632.48	16.78
632.672	16.69
632.863	16.58
633.055	16.53
633.246	16.39
633.438	16.33
633.629	16.27
633.821	16.24
634.012	16.21
634.203	16.22
634.395	16.24
634.586	16.26
634.777	16.28
634.969	16.33
635.16	16.43
635.351	16.37
635.543	16.42
635.734	16.38
635.925	16.3
636.117	16.24
636.308	16.17
636.499	16.01
636.69	15.94
636.881	15.85
637.073	15.94
637.264	15.91
637.455	15.94
637.646	16.04
637.837	16.1
638.028	15.93
638.219	16.02
638.41	15.92
638.601	15.8
638.792	15.85
638.983	15.72
639.174	15.63
639.365	15.69
639.556	15.64
639.747	15.54
639.938	15.65
640.129	15.61
640.32	15.55
640.511	15.62
640.701	15.64
640.892	15.51
641.083	15.58
641.274	15.72
641.465	15.67
641.655	15.59
641.846	15.62
642.037	15.51
642.228	15.34
642.418	15.32
642.609	15.33
642.8	15.32
642.99	15.21
643.181	15.27
643.372	15.28
643.562	15.19
643.753	15.1
643.943	15.14
644.134	15.01
644.324	14.91
644.515	14.88
644.705	14.95
644.896	14.91
645.086	14.92
645.277	15.01
645.467	15.1
645.658	15.09
645.848	15.11
646.038	15.11
646.229	15.03
646.419	14.88
646.61	14.8
646.8	14.81
646.99	14.76
647.18	14.73
647.371	14.71
647.561	14.69
647.751	14.65
647.941	14.62
648.132	14.61
648.322	14.73
648.512	14.78
648.702	14.72
648.892	14.7
649.082	14.7
649.272	14.48
649.462	14.26
649.653	14.15
649.843	14.13
650.033	14.1
650.223	14.19
650.413	14.18
650.603	14.27
650.793	14.25
650.983	14.1
651.172	13.98
651.362	14.06
651.552	13.92
651.742	13.8
651.932	13.84
652.122	13.92
652.312	13.91
652.502	13.94
652.691	13.92
652.881	13.85
653.071	13.76
653.261	13.52
653.45	13.48
653.64	13.46
653.83	13.38
654.019	13.27
654.209	13.34
654.399	13.27
654.588	13.12
654.778	13.02
654.968	12.91
655.157	12.79
655.347	12.74
655.536	12.7
655.726	12.62
655.915	12.57
656.105	12.52
656.294	12.37
656.484	12.27
656.673	12.22
656.863	12.14
657.052	11.98
657.241	11.81
657.431	11.61
657.62	11.57
657.809	11.39
657.999	11.27
658.188	11.24
658.377	11.27
658.567	11.13
658.756	11.06
658.945	10.99
659.134	10.81
659.324	10.65
659.513	10.49
659.702	10.37
659.891	10.18
660.08	10.16
660.269	10.17
660.458	10.05
660.648	9.94
660.837	9.86
661.026	9.76
661.215	9.6
661.404	9.48
661.593	9.43
661.782	9.31
661.971	9.26
662.16	9.13
662.349	9.11
662.538	8.94
662.726	8.99
662.915	8.81
663.104	8.62
663.293	8.64
663.482	8.72
663.671	8.57
663.86	8.53
664.048	8.49
664.237	8.38
664.426	8.2
664.615	8.18
664.803	8.18
664.992	8.16
665.181	7.98
665.369	7.88
665.558	7.77
665.747	7.7
665.935	7.75
666.124	7.82
666.312	7.81
666.501	7.78
666.69	7.6
666.878	7.49
667.067	7.34
667.255	7.47
667.444	7.67
667.632	7.75
667.82	7.87
668.009	7.9
668.197	7.76
668.386	7.6
668.574	7.65
668.762	7.52
668.951	7.43
669.139	7.44
669.327	7.18
669.516	7.18
669.704	7.15
669.892	7.25
670.08	7.29
670.269	7.35
670.457	7.24
670.645	7.07
670.833	7.17
671.021	7.14
671.21	7.2
671.398	7.47
671.586	7.63
671.774	7.47
671.962	7.43
672.15	7.47
672.338	7.21
672.526	7.23
672.714	7.14
672.902	7.27
673.09	7.43
673.278	7.73
673.466	7.72
673.654	7.92
673.842	7.8
674.03	7.65
674.218	7.45
674.405	7.5
674.593	7.37
674.781	7.51
674.969	7.6
675.157	7.84
675.344	7.99
675.532	8.25
675.72	8.37
675.908	8.44
676.095	8.26
676.283	8.19
676.471	8.29
676.658	8.15
676.846	8.16
677.033	8.39
677.221	8.4
677.409	8.19
677.596	8.28
677.784	8.26
677.971	8.2
678.159	8.31
678.346	8.44
678.534	8.6
678.721	8.89
678.909	8.96
679.096	8.94
679.283	9.06
679.471	9.05
679.658	8.97
679.846	9.14
680.033	9.39
680.22	9.39
680.408	9.44
680.595	9.5
680.782	9.36
680.969	9.43
681.157	9.55
681.344	9.57
681.531	9.68
681.718	9.77
681.905	9.81
682.093	9.98
682.28	10.26
682.467	10.43
682.654	10.64
682.841	10.79
683.028	10.84
683.215	10.94
683.402	10.79
683.589	11.02
683.776	11.18
683.963	11.32
684.15	11.41
684.337	11.79
684.524	11.84
684.711	11.92
684.898	11.98
685.085	12.19
685.271	12.41
685.458	12.57
685.645	12.83
685.832	13.12
686.019	13.37
686.205	13.58
686.392	13.91
686.579	14.03
686.766	14.33
686.952	14.52
687.139	14.91
687.326	14.89
687.512	15.21
687.699	15.44
687.886	15.63
688.072	15.67
688.259	16.16
688.445	16.63
688.632	16.87
688.818	17.52
689.005	17.94
689.191	18.24
689.378	18.5
689.564	18.99
689.751	19.31
689.937	19.65
690.124	20.17
690.31	20.51
690.496	20.97
690.683	21.33
690.869	21.87
691.055	22.32
691.242	23.03
691.428	23.6
691.614	24.04
691.8	24.64
691.987	25.05
692.173	25.41
692.359	26.04
692.545	26.73
692.731	27.18
692.918	27.91
693.104	28.47
693.29	28.96
693.476	29.54
693.662	30.25
693.848	30.74
694.034	31.39
694.22	31.65
694.406	32.34
694.592	32.92
694.778	33.56
694.964	34.22
695.15	35.14
695.336	35.55
695.522	36.45
695.708	37.23
695.894	37.81
696.08	38.5
696.265	39
696.451	39.19
696.637	39.68
696.823	40.16
697.009	40.55
697.194	41.13
697.38	41.84
697.566	42.54
697.751	43.25
697.937	44.08
698.123	44.96
698.308	45.71
698.494	46.18
698.68	46.75
698.865	47.32
699.051	47.77
699.236	48.1
699.422	48.65
699.607	49.05
699.793	49.29
699.978	49.69
700.164	50.27
700.349	51.05
700.535	51.74
700.72	52.48
700.906	53.17
701.091	53.85
701.276	54.3
701.462	55.05
701.647	55.97
701.832	56.42
702.018	56.66
702.203	57
702.388	57.22
702.573	57.31
702.759	58.08
702.944	58.52
703.129	58.92
703.314	59.53
703.499	60
703.684	60.25
703.87	61.24
704.055	62.22
704.24	62.65
704.425	63.21
704.61	63.67
704.795	63.88
704.98	64.07
705.165	64.32
705.35	64.62
705.535	65.13
705.72	65.44
705.905	66.02
706.09	66.51
706.275	67.14
706.459	67.17
706.644	67.36
706.829	67.65
707.014	67.82
707.199	68.21
707.384	68.8
707.568	69.4
707.753	69.99
707.938	70.81
708.123	70.47
708.307	70.58
708.492	70.87
708.677	70.93
708.861	70.74
709.046	71.29
709.231	72.31
709.415	72.6
709.6	72.51
709.784	72.84
709.969	73.2
710.153	73
710.338	73.44
710.522	74.32
710.707	74.91
710.891	75.58
711.076	75.92
711.26	75.8
711.445	75.84
711.629	76.08
711.813	76.17
711.998	76.62
712.182	77
712.366	77.47
712.551	78
712.735	78.26
712.919	78.17
713.103	78.59
713.288	78.51
713.472	78.36
713.656	78.8
713.84	79.08
714.024	79.33
714.208	79.41
714.393	80.01
714.577	80.38
714.761	80.66
714.945	80.9
715.129	81.49
715.313	81.75
715.497	81.95
715.681	83.03
715.865	82.95
716.049	83.13
716.233	82.8
716.417	82.58
716.601	81.98
716.785	82.51
716.968	82.61
717.152	83.22
717.336	83.33
717.52	83.57
717.704	83.72
717.888	84.1
718.071	84.1
718.255	84.52
718.439	84.34
718.622	84.28
718.806	84.48
718.99	84.04
719.174	83.94
719.357	84.23
719.541	84.48
719.724	84.24
719.908	85.91
720.092	86.5
720.275	87.04
720.459	86.9
720.642	86.43
720.826	85.27
721.009	85
721.193	84.38
721.376	84.87
721.559	86.01
721.743	86.6
721.926	86.61
722.11	87.35
722.293	87.13
722.476	86.92
722.66	86.96
722.843	87.13
723.026	87.07
723.21	87.81
723.393	88.68
723.576	89.02
723.759	89.03
723.942	88.81
724.126	88.65
724.309	88.15
724.492	88.21
724.675	88.31
724.858	89.44
725.041	89.54
725.224	89.57
725.407	89.59
725.59	89.74
725.774	89.15
725.957	88.57
726.14	88.96
726.322	89.01
726.505	89.19
726.688	89.86
726.871	90.27
727.054	89.71
727.237	89.27
727.42	89.64
727.603	89.07
727.786	89.72
727.968	90.04
728.151	90.66
728.334	90.58
728.517	90.95
728.699	90.87
728.882	91.15
729.065	91.59
729.248	92.3
729.43	92.66
729.613	93.41
729.796	93.29
729.978	92.67
730.161	92.01
730.343	91.4
730.526	91.5
730.708	91.21
730.891	91.69
731.073	91.65
731.256	91.87
731.438	91.54
731.621	92.53
731.803	92.12
731.986	92.21
732.168	91.94
732.35	92.08
732.533	92.2
732.715	92.77
732.898	93.69
733.08	93.5
733.262	93.81
733.444	93.57
733.627	93.56
733.809	94.14
733.991	95.63
734.173	94.79
734.355	94.57
734.538	95.14
734.72	94.41
734.902	94.24
735.084	95.04
735.266	95.03
735.448	95.09
735.63	94.78
735.812	94.55
735.994	94.98
736.176	95.72
736.358	95.71
736.54	96.62
736.722	96.03
736.904	95.42
737.086	94.8
737.268	95.31
737.45	95.04
737.632	95.08
737.814	95.09
737.995	95.07
738.177	94.13
738.359	92.57
738.541	93.34
738.723	93.34
738.904	93.5
739.086	93.95
739.268	95.15
739.449	95.48
739.631	95.28
739.813	96.83
739.994	97.37
740.176	97.6
740.358	97.53
740.539	98.54
740.721	97.82
740.902	97.9
741.084	97.47
741.265	97.34
741.447	96.85
741.628	96.6
741.81	95.79
741.991	96.47
742.172	96.97
742.354	97.5
742.535	97.23
742.717	98.49
742.898	98.29
743.079	98.73
743.261	98.52
743.442	98.43
743.623	98.82
743.804	99.04
743.986	99.68
744.167	97.82
744.348	97.99
744.529	97.51
744.71	96.31
744.891	94.66
745.073	95.17
745.254	95.36
745.435	93.8
745.616	93.52
745.797	93.37
745.978	92.94
746.159	93.14
746.34	92.85
746.521	94.67
746.702	94.37
746.883	95.4
747.064	95.8
747.245	96.97
747.426	96.4
747.606	96.87
747.787	97.59
747.968	96.85
748.149	97.01
748.33	97.51
748.51	97.1
748.691	96.18
748.872	96.46
749.053	95.9
749.233	94.75
749.414	95.27
749.595	95.54
749.775	94.92
749.956	95.3
750.137	95.88
750.317	97.2
750.498	97.99
750.678	98.8
750.859	98.46
751.04	98.61
751.22	95.26
751.4	95.36
751.581	93.22
751.761	92.5
751.942	92.61
752.122	93.56
752.303	91.92
752.483	93.14
752.663	94.27
752.844	92.64
753.024	95.04
753.204	96.12
753.385	94.71
753.565	94.95
753.745	96.11
753.925	94.69
754.106	94.06
754.286	94.3
754.466	94.14
754.646	95.03
754.826	93.52
755.006	93.11
755.187	94.91
755.367	94.32
755.547	93
755.727	95.59
755.907	96.62
756.087	97
756.267	95.73
756.447	96.07
756.627	93.12
756.807	93.25
756.987	92.88
757.167	94.74
757.346	94.91
757.526	96.16
757.706	95.66
757.886	95.9
758.066	95.76
758.246	97.39
758.425	96.87
758.605	96.05
758.785	95
758.965	94.5
759.144	91.13
759.324	91.84
759.504	93.38
759.683	94.17
759.863	92.61
760.043	94.04
760.222	92.79
760.402	92.25
760.581	91.77
760.761	93.89
760.94	92.62
761.12	95.45
761.299	95.14
761.479	94.64
761.658	93.26
761.838	94.77
762.017	93.36
762.197	93.4
762.376	93.76
762.555	94.34
762.735	93.81
762.914	92.62
763.093	92.68
763.273	91.16
763.452	90.5
763.631	89.75
763.81	90.08
763.99	89.89
764.169	90.32
764.348	89.9
764.527	90.2
764.706	91.23
764.885	92.42
765.064	92.61
765.243	93.7
765.423	94.37
765.602	92.47
765.781	90.24
765.96	89.37
766.139	87.57
766.318	89.16
766.497	90.11
766.676	90.61
766.854	92.58
767.033	93.67
767.212	92.09
767.391	92.55
767.57	94.49
767.749	94.88
767.928	94.5
768.106	94.02
768.285	91.51
768.464	89.12
768.643	87.34
768.821	88.53
769	89.93
769.179	90.57
769.357	90.67
769.536	90.69
769.715	89.84
769.893	89.96
770.072	91.32
770.25	92.08
770.429	94.26
770.607	93.7
770.786	93.18
770.964	94.66
771.143	94.48
771.321	94
771.5	96.47
771.678	95.15
771.857	91.99
772.035	91.25
772.213	89.17
772.392	85.7
772.57	88.33
772.748	91.19
772.927	90.62
773.105	92.14
773.283	94.86
773.461	93.59
773.64	94.03
773.818	94.34
773.996	92.76
774.174	89.42
774.352	88.45
774.531	83.61
774.709	86.2
774.887	87.1
775.065	86.89
775.243	86.2
775.421	87.84
775.599	85.88
775.777	83.12
775.955	83.48
776.133	81.87
776.311	82.06
776.489	80.71
776.667	81.99
776.844	82.8
777.022	83.85
777.2	83.93
777.378	85.96
777.556	86.41
777.734	89.17
777.911	90.55
778.089	89.53
778.267	88.96
778.445	88.71
778.622	87.06
778.8	85.93
778.978	89.25
779.155	87.63
779.333	88.9
779.511	88.31
779.688	90.17
779.866	83.96
780.043	83.67
780.221	82.51
780.398	80.51
780.576	81.05
780.753	84.26
780.931	82.62
781.108	81.87
781.286	83.57
781.463	81.26
781.64	77.04
781.818	79.53
781.995	81.21
782.172	81.3
782.35	81.9
782.527	88.36
782.704	87.12
782.882	87
783.059	86.06
783.236	88.65
783.413	91.17
783.59	92.97
783.768	89.07
783.945	92.45
784.122	90.96
784.299	87.29
784.476	84.34
784.653	85.52
784.83	82.78
785.007	77.72
785.184	76.57
785.361	78.2
785.538	83.86
785.715	84.66
785.892	86.4
786.069	87.34
786.246	89.03
786.423	84.91
786.6	87.04
786.776	90.31
786.953	87.32
787.13	87.78
787.307	88.49
787.484	86.7
787.66	83.7
787.837	85.6
788.014	82.27
788.191	78.79
788.367	76.18
788.544	79.55
788.721	81.8
788.897	85.2
789.074	87.12
789.25	86.05
789.427	82.56
789.603	80.83
789.78	80.9
789.956	81.44
790.133	82.73
790.309	84.27
790.486	88.71
790.662	85.91
790.839	86.35
791.015	86.3
791.192	84.22
791.368	83.19
791.544	81.4
791.721	80.49
791.897	79.38
792.073	80.59
792.249	69.49
792.426	74.34
792.602	74.03
792.778	75.58
792.954	74.73
793.13	78.92
793.307	71.65
793.483	66.37
793.659	66.67
793.835	72.26
794.011	69.8
794.187	75.13
794.363	81.63
794.539	83.32
794.715	72.55
794.891	74.47
795.067	72.03
795.243	72.99
795.419	69.92
795.595	71.32
795.771	73.19
795.947	71.94
796.122	65
796.298	67.54
796.474	71.43
796.65	69.31
796.826	71.03
797.001	77.22
797.177	76.27
797.353	80.73
797.529	80.33
797.704	78.95
797.88	75.64
798.056	73.59
798.231	67.28
798.407	71.86
798.582	77.74
798.758	83.61
798.934	86.21
799.109	83.33
799.285	85.97
799.46	84.79
799.636	80.8
799.811	79.68
799.986	79.7
800.162	77.58
800.337	77.92
800.513	72.47
800.688	66.91
800.863	79.65
801.039	73.57
801.214	65.72
801.389	78.71
801.565	79.64
801.74	60.95
801.915	70.4
802.09	77.72
802.265	75.03
802.441	78.14
802.616	82.86
802.791	78.18
802.966	74.37
803.141	70.55
803.316	64.94
803.491	73.87
803.666	77.58
803.841	79.02
804.016	72.36
804.191	78.06
804.366	67.5
804.541	64.76
804.716	60.43
804.891	61.52
805.066	63
805.241	65.89
805.416	60.45
805.591	61.14
805.765	67.52
805.94	71.3
806.115	70.2
806.29	69.88
806.464	72.17
806.639	67.45
806.814	59.79
806.989	55.43
807.163	61.17
807.338	61.93
807.512	64.38
807.687	56.46
807.862	65.94
808.036	77.59
808.211	79.98
808.385	81.4
808.56	93.72
808.734	101.02
808.909	83.82
809.083	77.08
809.258	84.68
809.432	85.9
809.606	72.93
809.781	73.23
809.955	78.32
810.13	72.35
810.304	68.26
810.478	64.13
810.652	72.69
810.827	80.16
811.001	78.06
811.175	72.95
811.349	75.4
811.524	70.01
811.698	52.07
811.872	54.22
812.046	62.73
812.22	66.87
812.394	66.45
812.568	74.73
812.742	77.58
812.916	74.85
813.09	70.05
813.264	68.08
813.438	69.16
813.612	63.98
813.786	56.39
813.96	65.83
814.134	71.41
814.308	77.03
814.482	78.77
814.656	79.02
814.83	79.16
815.003	75.87
815.177	67.29
815.351	63.95
815.525	66.57
815.698	53.7
815.872	48.49
816.046	41.13
816.219	47.52
816.393	55.92
816.567	68.44
816.74	65.99
816.914	67.31
817.088	64.96
817.261	53.14
817.435	44.25
817.608	57.59
817.782	55.31
817.955	56.81
818.129	50.56
818.302	48.84
818.475	56.59
818.649	57.08
818.822	50.28
818.996	67.04
819.169	71.59
819.342	50.76
819.516	63.67
819.689	69.18
819.862	55.76
820.035	46
820.209	45.67
820.382	44.88
820.555	41.22
820.728	38.6
820.901	39.28
821.075	42.48
821.248	42.57
821.421	40.03
821.594	41.83
821.767	66.29
821.94	74.79
822.113	51.59
822.286	51.52
822.459	61.6
822.632	48.38
822.805	43.13
822.978	48.59
823.151	46.09
823.324	33.87
823.496	16.31
823.669	22.67
823.842	31.62
824.015	23.7
824.188	25.5
824.361	37.85
824.533	21.48
824.706	21.29
824.879	21.85
825.051	26.32
825.224	21.7
825.397	21.34
825.569	13.05
825.742	40.73
825.915	54.11
826.087	72.19
826.26	60.12
826.432	64.41
826.605	60.54
826.777	48.32
826.95	45.55
827.122	29.49
827.295	46.3
827.467	47.04
827.64	27.03
827.812	18.62
827.984	33.97
828.157	21.8
828.329	-20.88
828.501	-14.12
828.674	26.5
828.846	15.62
829.018	22.9
829.19	19.43
829.363	55.42
829.535	43.24
829.707	59.8
829.879	47.93
830.051	61.28
830.223	37.9
830.395	23.61
830.568	12.46
830.74	12.33
830.912	44.81
831.084	37.9
831.256	35.3
831.428	34.97
831.6	11.33
831.772	-30.03
831.943	-47.44
832.115	-29.46
832.287	-11.53
832.459	15.8
832.631	26.02
832.803	49.27
832.975	75.36
833.146	66.9
833.318	53.53
833.49	62.85
833.662	60.24
833.833	18.47
834.005	21.28
834.177	19.37
834.348	21.77
834.52	5.63
834.692	19.72
834.863	20.18
835.035	25.93
835.206	-26.02
835.378	-2.71
835.549	-11
835.721	-1.35
835.892	6.37
836.064	28.78
836.235	29.71
836.407	66.61
836.578	43.21
836.749	39.77
836.921	8.17
837.092	-13.9
837.264	-41.01
837.435	-54.27
837.606	-3.34
837.777	32.37
837.949	49.91
838.12	55.11
838.291	66.02
838.462	46.12
838.633	24.54
838.805	12.64
838.976	22.95
839.147	-5.47
839.318	-10.51
839.489	-59.23
839.66	-51.02
839.831	-22.42
840.002	-10.85
840.173	-7.69
840.344	67.01
840.515	117.16
840.686	14.51
840.857	-44.45
841.028	-74.23
841.199	-102.83
841.369	-107.7
841.54	-63.22
841.711	-6.1
841.882	41.25
842.053	31.97
842.223	4.78
842.394	-6.21
842.565	-11.7
842.736	-7.09
842.906	-3.57
843.077	21.75
843.248	44.75
843.418	41.5
843.589	-1.82
843.759	55.43
843.93	65.17
844.101	37.88
844.271	35.36
844.442	35.13
844.612	30.39
844.783	-11.13
844.953	-45.31
845.123	-85.4
845.294	-80.47
845.464	-312.31
845.635	-116.53
845.805	-72.02
845.975	-17.77
846.146	-69.46
846.316	-51.65
846.486	-30.48
846.656	5.37
846.827	-4.56
846.997	10.33
847.167	29.22
847.337	12.11
847.507	-20.78
847.677	-2.44
847.848	34.55
848.018	25.96
848.188	21.91
848.358	-5.1
848.528	-21.51
848.698	-68.96
848.868	-145.97
849.038	-258.25
849.208	-63.3
849.378	-3.75
849.548	21.14
849.718	23.33
849.887	50.09
850.057	27.81
850.227	-23.62
850.397	-37.67
850.567	-96.51
850.737	-217.5
850.906	-449.06
851.076	-285.35
851.246	-111.13
851.415	6.7
851.585	23.7
851.755	-8.43
851.924	23.52
852.094	-24.93
852.264	-30.37
852.433	-757.93
852.603	-102.29
852.772	-30.46
852.942	1.02
853.111	-17.6
853.281	22.57
853.45	56.16
853.62	-12.13
853.789	-34.01
853.959	-1.57
854.128	-23.14
854.297	-83.09
854.467	-97.31
854.636	-30.14
854.805	-21.16
854.975	-51.07
855.144	-124.73
855.313	-41.43
855.482	-470.26
855.652	-160.3
855.821	-95.71
855.99	35.08
856.159	16.86
856.328	23.58
856.497	-1.49
856.667	8.88
856.836	3.19
857.005	-30.68
857.174	-37.07
857.343	-73.24
857.512	-18.36
857.681	-44.45
857.85	-40.68
858.019	-12.17
858.188	15.71
858.356	-21.73
858.525	-71.37
858.694	-32.8
858.863	-113.2
859.032	-98.49
859.201	-190.52
859.369	-122.26
859.538	-84.1
859.707	-39.12
859.876	-65.37
860.044	-57.75
860.213	13.93
860.382	-10.53
860.55	-37.05
860.719	7.4
860.888	16.16
861.056	-32.48
861.225	-10.38
861.393	46.71
861.562	52.17
861.73	39.99
861.899	170.03
862.067	-545.69
862.236	-23.99
862.404	-197.77
862.572	-83.25
862.741	2.97
862.909	10.63
863.078	-64.08
863.246	-18.82
863.414	-33.27
863.582	-41.46
863.751	-57.24
863.919	-45.06
864.087	-6.6
864.255	-17.8
864.424	-322.41
864.592	-29.84
864.76	-71.23
864.928	-546.6
865.096	-324.6
865.264	-260.18
865.432	-2807.39
865.6	-379.13
865.768	-122.79
865.936	-76.7
866.104	-74
866.272	-159.14
866.44	-302.07
866.608	580.03
866.776	318.6
866.944	2956.4
867.112	-443.33
867.28	-198.13
867.448	-62.72
867.615	6.79
867.783	36.57
867.951	7.89
868.119	31.54
868.286	-0.81
868.454	-188.43
868.622	-213.19
868.789	-282.8
868.957	-3873.21
869.125	-2319.08
869.292	-87.53
869.46	-158.2
869.627	1.84
869.795	-13.18
869.963	4.22
870.13	25.53
870.298	36.83
870.465	-55.57
870.632	-75.27
870.8	-64.32
870.967	-128.79
871.135	-142.53
871.302	-103.14
871.469	-137.89
871.637	-220.73
871.804	-143.95
871.971	-252.42
872.139	-637.33
872.306	-90.17
872.473	-55.27
872.64	-150.32
872.807	99.59
872.975	90.66
873.142	-73.91
873.309	825
873.476	75.7
873.643	89.08
873.81	57.39
873.977	84
874.144	66.71
874.311	-90.18
874.478	-112.75
874.645	-135.86
874.812	-75.56
874.979	-58.17
875.146	-49.77
875.313	-73.88
875.48	-6.38
875.647	-31
875.813	-67.7
875.98	-55.39
876.147	-70.16
876.314	-138.49
876.481	1127.48
876.647	-1438.48
876.814	504.79
876.981	-29.71
877.147	-20.01
877.314	9.87
877.481	27.14
877.647	22.37
877.814	-36.35
877.98	-92.48
878.147	-33
878.314	11.48
878.48	-32.28
878.647	-31.37
878.813	32.19
878.979	13.4
879.146	-9.22
879.312	-7.79
879.479	-14.33
879.645	-106.44
879.811	-250.55
879.978	-672.71
880.144	-144.73
880.31	-96.29
880.477	-268.77
880.643	-328.26
880.809	-117.81
880.975	-125.53
881.142	-768.41
881.308	-119.97
881.474	-38.1
881.64	-39.47
881.806	-96.58
881.972	-20.25
882.138	-9.28
882.304	-25.72
882.47	-166.11
882.636	-695.29
882.802	-257.72
882.968	-14.79
883.134	9.78
883.3	23.01
883.466	61
883.632	102.38
883.798	34.63
883.964	19.65
884.129	24.56
884.295	25.6
884.461	-41.31
884.627	-51.52
884.793	-81.87
884.958	-47.44
885.124	-154.81
885.29	-261.73
885.455	-349.15
885.621	-42.58
885.787	-96.98
885.952	-13.27
886.118	-9.11
886.283	-41.22
886.449	-125.97
886.614	-98.97
886.78	-233.94
886.945	1287.3
887.111	-583.96
887.276	-505.82
887.442	-951.14
887.607	-401.53
887.773	-257.72
887.938	-201.89
888.103	-219.89
888.269	-175.98
888.434	-272.03
888.599	-57.41
888.764	-20.95
888.93	-17.17
889.095	-32.07
889.26	-66.08
889.425	-53.73
889.59	-0.41
889.756	8.71
889.921	-6.68
890.086	52.04
890.251	39.69
890.416	-94.57
890.581	-1237.5
890.746	89.73
890.911	217.36
891.076	138.02
891.241	-158.4
891.406	26.3
891.571	-4.8
891.736	-243.23
891.901	-474.56
892.065	592.58
892.23	172.45
892.395	272.85
892.56	337.07
892.725	-472.85
892.889	-1790.85
893.054	-136.99
893.219	-42.27
893.384	-20.25
893.548	-62.48
893.713	-70.99
893.878	-55.72
