Data from Ofra_1a_PS_6GT17_Reflection_3.txt Node
Date: Tue Jul 20 11:00:49 EDT 2021
User: Adam
Spectrometer: FLMT01687
Trigger mode: 0
Integration Time (sec): 1.004000E0
Scans to average: 2
Electric dark correction enabled: true
Nonlinearity correction enabled: false
Boxcar width: 2
XAxis mode: Wavelengths
Number of Pixels in Spectrum: 3648
>>>>>Begin Spectral Data<<<<<
179.494	-471.07
179.716	-740.46
179.937	1559.87
180.158	-2206.37
180.38	315.53
180.601	178.32
180.823	93.27
181.044	1.19
181.265	-63.96
181.486	166.91
181.708	104.29
181.929	-7127.27
182.15	54.72
182.372	299.51
182.593	85.79
182.814	-207.13
183.035	-43.93
183.257	2.26
183.478	-26.24
183.699	-34.31
183.92	-56.38
184.141	-78.66
184.363	-66.75
184.584	-49.86
184.805	-24.16
185.026	17.95
185.247	-3.17
185.468	-45.58
185.689	-23.75
185.91	-71.88
186.132	-71.72
186.353	-30.38
186.574	-46.16
186.795	-63.22
187.016	-30.18
187.237	-48.2
187.458	-62.64
187.679	-29.32
187.9	12.77
188.121	20.52
188.342	39.69
188.563	89.81
188.784	82.32
189.005	66.87
189.226	49.62
189.447	43.44
189.667	9.57
189.888	-14.42
190.109	-47.7
190.33	-41.8
190.551	-40.93
190.772	-45.5
190.993	-70.78
191.214	-78.51
191.434	-98.77
191.655	-133.47
191.876	-40.87
192.097	23.75
192.318	43.41
192.538	17.81
192.759	12.87
192.98	24.1
193.201	9.56
193.421	-2.64
193.642	5.86
193.863	4.52
194.083	-38.37
194.304	-39.9
194.525	-20.42
194.745	-7.81
194.966	-6.29
195.187	6.17
195.407	5.09
195.628	2.03
195.848	13.26
196.069	11.82
196.29	10.67
196.51	-5.74
196.731	-11.46
196.951	-45.63
197.172	-35.87
197.392	-69.74
197.613	-17.54
197.833	-31.93
198.054	-29.65
198.274	-31.51
198.495	0.07
198.715	-26.61
198.936	-2.51
199.156	3.54
199.377	2.36
199.597	14.58
199.817	29.1
200.038	15.23
200.258	13.86
200.479	35.61
200.699	16
200.919	-0.17
201.14	-1.86
201.36	8.25
201.58	-30.06
201.801	-10.55
202.021	-23.28
202.241	0.75
202.461	-13.2
202.682	24.43
202.902	16.84
203.122	22.08
203.342	-0.79
203.563	10.79
203.783	-16.96
204.003	-43.74
204.223	-15.42
204.443	0.56
204.663	-55.46
204.884	-14.5
205.104	5.66
205.324	-27.79
205.544	-42.77
205.764	19.6
205.984	13.19
206.204	29.89
206.424	6.53
206.644	-13.39
206.864	-56.56
207.084	-20.57
207.304	-34.49
207.525	-18.45
207.745	-3.4
207.964	1.29
208.184	-19.91
208.404	-25.07
208.624	-2.13
208.844	-4.7
209.064	-1.41
209.284	-13
209.504	-21.28
209.724	-29.95
209.944	-38.41
210.164	-45.21
210.384	-58.67
210.604	-111.16
210.823	-133.94
211.043	-81.78
211.263	-162.08
211.483	-88.74
211.703	-50.03
211.922	-50.54
212.142	-44.61
212.362	-6.29
212.582	17.14
212.801	23.38
213.021	3.86
213.241	-24.97
213.461	-31.46
213.68	-43.17
213.9	-37.5
214.12	-31.44
214.339	-15.63
214.559	-10.65
214.779	-1.9
214.998	-19.16
215.218	-22.53
215.438	-34.01
215.657	-49.06
215.877	-60.62
216.096	-19.27
216.316	-14.03
216.535	0.46
216.755	-0.3
216.974	-7.07
217.194	-44.33
217.413	-42.65
217.633	-65.79
217.852	-51.51
218.072	-43.04
218.291	-27.94
218.511	-31.47
218.73	-28.77
218.95	-61.03
219.169	-36.61
219.389	-24.66
219.608	-12.74
219.827	14.5
220.047	48.55
220.266	53.53
220.485	53.46
220.705	55.94
220.924	49.11
221.143	30.86
221.363	24.58
221.582	11.03
221.801	13.99
222.021	23.08
222.24	-3.48
222.459	12.36
222.678	15.17
222.897	1.43
223.117	-12.85
223.336	6.09
223.555	6.42
223.774	26.7
223.993	55.35
224.213	65.7
224.432	41.11
224.651	21.3
224.87	17.22
225.089	5.01
225.308	11.25
225.527	8.74
225.746	11.68
225.965	10.9
226.184	-20.81
226.404	-47.57
226.623	-26.84
226.842	-21.09
227.061	-30.75
227.28	7.85
227.499	28.42
227.718	27.15
227.936	19.74
228.155	23.44
228.374	11.27
228.593	0.38
228.812	-6.9
229.031	12.14
229.25	-21.01
229.469	-34.86
229.688	-29.03
229.907	-19.48
230.125	-28.32
230.344	5.67
230.563	18.22
230.782	26.85
231.001	26.38
231.22	28.63
231.438	28.35
231.657	15.19
231.876	4.56
232.095	1.35
232.313	-8.04
232.532	-8.06
232.751	-11.47
232.969	9.62
233.188	16.34
233.407	19.99
233.625	14.77
233.844	23.41
234.063	14.68
234.281	9.53
234.5	7.28
234.719	7.96
234.937	-6.76
235.156	-33.76
235.374	-20.39
235.593	-14.18
235.811	-6.18
236.03	1.6
236.249	9.83
236.467	0.33
236.686	-20.44
236.904	-15.14
237.123	-16.29
237.341	-33.53
237.559	-27.19
237.778	3.31
237.996	-31.67
238.215	-71.08
238.433	-82.83
238.652	-38.26
238.87	-59.03
239.088	-35.03
239.307	-9.43
239.525	-6.87
239.743	-16.46
239.962	-38.18
240.18	-24.36
240.398	-24.78
240.617	-26.15
240.835	-30.64
241.053	-6.72
241.271	-12.69
241.49	-10.7
241.708	-16.22
241.926	-33.33
242.144	-30.03
242.363	-59.35
242.581	-127.36
242.799	-104.54
243.017	-45.96
243.235	-36.65
243.453	-45.68
243.672	-30.21
243.89	-16.5
244.108	-7.69
244.326	10.08
244.544	27.39
244.762	19.28
244.98	17.78
245.198	15.56
245.416	0.52
245.634	-5.45
245.852	-16.63
246.07	1.91
246.288	3.01
246.506	-7.37
246.724	-1.05
246.942	17.27
247.16	18
247.378	0.34
247.596	27.36
247.814	5.1
248.032	-14.41
248.25	-22.67
248.468	-0.71
248.685	8.74
248.903	8.53
249.121	7.86
249.339	10.2
249.557	13.22
249.775	7.01
249.992	7.68
250.21	11.72
250.428	18.05
250.646	13.66
250.863	0.51
251.081	4.77
251.299	0.95
251.517	-9.11
251.734	-8.84
251.952	1.46
252.17	4.97
252.387	6.23
252.605	2.35
252.823	-10.59
253.04	4.6
253.258	12.2
253.475	21.39
253.693	4.77
253.911	10.34
254.128	2.92
254.346	-0.12
254.563	4.61
254.781	6.9
254.998	4.91
255.216	-28.81
255.433	-43.77
255.651	-58.55
255.868	-52.73
256.086	-35.7
256.303	-4.26
256.521	4.09
256.738	10.42
256.956	12.13
257.173	-0.8
257.39	-11.11
257.608	-17.13
257.825	-8.14
258.043	8.77
258.26	9.1
258.477	4.22
258.695	2.75
258.912	-8.82
259.129	-21.85
259.346	-28.3
259.564	-18.7
259.781	-7.37
259.998	-3.44
260.216	11.05
260.433	15.95
260.65	14.74
260.867	19.99
261.084	20.64
261.302	-1.08
261.519	-2.62
261.736	-13.07
261.953	-27.12
262.17	-18.64
262.387	-12.87
262.604	-9.31
262.822	5.36
263.039	13.72
263.256	14.14
263.473	20.16
263.69	16.71
263.907	15.36
264.124	4.22
264.341	8.14
264.558	-1.93
264.775	-4.96
264.992	-3.98
265.209	1.98
265.426	-8.45
265.643	9.01
265.86	6.81
266.077	30.2
266.294	27.52
266.51	35.92
266.727	30.02
266.944	28.01
267.161	21.93
267.378	15.75
267.595	-26.85
267.812	-37.83
268.028	-44.92
268.245	-37.16
268.462	-23.9
268.679	14.72
268.896	28.45
269.112	32.29
269.329	6.34
269.546	28.52
269.763	27.01
269.979	6.2
270.196	-0.91
270.413	8.15
270.629	-8.1
270.846	-3.27
271.063	2.86
271.279	15.36
271.496	4.77
271.712	12.93
271.929	7.87
272.146	3.25
272.362	0.68
272.579	3.29
272.795	-25.46
273.012	-37.28
273.228	-13.52
273.445	-26.14
273.661	-23.93
273.878	-2.56
274.094	-6.47
274.311	-16.47
274.527	-22.36
274.744	-9.83
274.96	1.22
275.177	6.88
275.393	11.55
275.609	23.45
275.826	13.96
276.042	-2.42
276.259	-3.37
276.475	-19.34
276.691	-21
276.908	-18.92
277.124	-11.4
277.34	-8.96
277.557	-2.17
277.773	-20.99
277.989	-35.96
278.205	-38.95
278.422	-35.05
278.638	-36.4
278.854	-23.99
279.07	2.34
279.286	-1.69
279.503	8.73
279.719	6.42
279.935	5.35
280.151	-15.22
280.367	5.56
280.583	-12.31
280.799	-10.25
281.016	-46.51
281.232	-37.84
281.448	-51.25
281.664	-43.22
281.88	-26.91
282.096	-0.34
282.312	9.22
282.528	9.02
282.744	23.56
282.96	2.38
283.176	-7.62
283.392	-35.03
283.608	-39.95
283.824	-79.66
284.04	-125.02
284.256	-74.85
284.471	-37.44
284.687	-39.55
284.903	-14.5
285.119	11.95
285.335	22.83
285.551	16.79
285.767	22.4
285.982	8.93
286.198	-39.33
286.414	-29.39
286.63	-27.49
286.846	-18.53
287.061	-6.82
287.277	11.39
287.493	-27.57
287.709	-34.33
287.924	-26.9
288.14	-9.13
288.356	1
288.571	22.49
288.787	11.95
289.003	20.61
289.218	-3.18
289.434	-9.43
289.65	-7.15
289.865	-3.29
290.081	1.42
290.296	19.5
290.512	27.42
290.727	10.68
290.943	22.13
291.159	15.28
291.374	-14.19
291.59	-13.46
291.805	-18.53
292.021	-28.93
292.236	-29.93
292.451	-16.25
292.667	-19.3
292.882	0.84
293.098	1.95
293.313	0.53
293.529	6.68
293.744	-7.07
293.959	-17.54
294.175	-8.92
294.39	-24.84
294.605	-14.14
294.821	-2.59
295.036	6.61
295.251	13.26
295.467	17.4
295.682	29.56
295.897	21.64
296.112	11.54
296.328	11.7
296.543	6.45
296.758	-23.14
296.973	-2.44
297.188	6.1
297.404	-32.38
297.619	-29.47
297.834	-54.99
298.049	-70.2
298.264	-78.47
298.479	-73.14
298.694	-21.62
298.909	-7.78
299.125	-9.91
299.34	1.25
299.555	13.31
299.77	22.73
299.985	27.07
300.2	29.45
300.415	17.58
300.63	0.63
300.845	-30.47
301.06	-35.67
301.275	-36.44
301.49	-22.91
301.704	-7.74
301.919	-12.31
302.134	-11.74
302.349	-21.76
302.564	-26.31
302.779	-24.4
302.994	8.43
303.209	7.44
303.423	30.61
303.638	38.61
303.853	3.32
304.068	-32.65
304.283	-9.47
304.497	-41.3
304.712	-25.3
304.927	10.32
305.142	22.2
305.356	15.88
305.571	27.88
305.786	30.5
306	33.99
306.215	21.94
306.43	20.09
306.644	15.53
306.859	-1.83
307.074	3.03
307.288	9.42
307.503	20.98
307.717	10.57
307.932	20.86
308.147	11.87
308.361	14.49
308.576	-15.7
308.79	-10.16
309.005	-25.03
309.219	-17.97
309.434	-6.4
309.648	0.89
309.863	0.26
310.077	-3.95
310.292	0.91
310.506	-42.07
310.72	-40.95
310.935	-21.85
311.149	-22.66
311.364	-34.97
311.578	-13.45
311.792	-9.68
312.007	-8.13
312.221	-16.32
312.435	-4.56
312.649	10.31
312.864	-26.77
313.078	-28.58
313.292	-35.84
313.507	-41.24
313.721	-37.36
313.935	8.97
314.149	0.74
314.363	31.45
314.578	26.28
314.792	-1.22
315.006	-7.72
315.22	-9.25
315.434	-14.42
315.648	-11.99
315.862	-11.64
316.077	-24.74
316.291	-15.26
316.505	-35.37
316.719	-19.97
316.933	-6.64
317.147	-2.31
317.361	-3.7
317.575	-3.6
317.789	-6.61
318.003	-9.62
318.217	-4.5
318.431	-14.25
318.645	8.29
318.859	8.03
319.073	16.02
319.287	6.94
319.5	8.78
319.714	-0.79
319.928	-4.35
320.142	-7.77
320.356	4.84
320.57	-6.67
320.784	-8.11
320.997	-27.56
321.211	-5.53
321.425	-22.52
321.639	-0.97
321.853	14.31
322.066	15.88
322.28	-12.24
322.494	-1.62
322.707	-4.94
322.921	-21.36
323.135	-16.23
323.349	-1.23
323.562	-9.83
323.776	-20.26
323.989	-10.02
324.203	-19.68
324.417	-18.98
324.63	-17.1
324.844	-25.18
325.057	-41.45
325.271	-24.58
325.485	-39.96
325.698	-23.28
325.912	-3.85
326.125	-9.2
326.339	-3.42
326.552	-6.34
326.766	-19.42
326.979	-39.9
327.193	-32.17
327.406	-42.27
327.619	-18.72
327.833	-17.46
328.046	0.92
328.26	-9.94
328.473	0.59
328.686	-7.23
328.9	12.05
329.113	9.25
329.326	12.95
329.54	9.44
329.753	11.74
329.966	-2.49
330.179	-18.3
330.393	-6.4
330.606	-19.9
330.819	-22.19
331.032	-23.49
331.246	1.33
331.459	5.13
331.672	5.11
331.885	-7.85
332.098	-7.41
332.311	-19.74
332.525	-20.27
332.738	-10.6
332.951	-10.62
333.164	-9.33
333.377	-0.22
333.59	-0.87
333.803	-4.69
334.016	1.76
334.229	-1.19
334.442	-1.41
334.655	0.2
334.868	-2.39
335.081	-3.98
335.294	-14.52
335.507	-20.65
335.72	-19.67
335.933	-8.33
336.146	-17.94
336.359	7.23
336.572	8.93
336.785	4.1
336.997	-16.43
337.21	1.6
337.423	-31.51
337.636	-19.7
337.849	-16.03
338.062	4.01
338.274	18.19
338.487	-0.86
338.7	-9.02
338.913	-7.22
339.125	-33.97
339.338	-45.73
339.551	-22.73
339.763	-31.02
339.976	-31.86
340.189	-31.58
340.402	-21.44
340.614	-14.62
340.827	4.8
341.039	-4.64
341.252	3.92
341.465	-4.58
341.677	-6.71
341.89	-24.08
342.102	-1.98
342.315	-0.11
342.527	5.75
342.74	-12.28
342.952	-4
343.165	-19.83
343.377	-4.92
343.59	-15.86
343.802	2.64
344.015	19.09
344.227	24.58
344.44	9.15
344.652	15.33
344.864	8.72
345.077	-2.39
345.289	-6.6
345.502	10.31
345.714	-3.11
345.926	-5.13
346.139	-37.07
346.351	-29.69
346.563	-27.92
346.775	-13.43
346.988	-3.84
347.2	2.31
347.412	9.51
347.624	4.3
347.837	7.95
348.049	7.39
348.261	3.44
348.473	-16.89
348.685	-22.89
348.897	-30.91
349.11	-30.83
349.322	-8.2
349.534	6.37
349.746	12.3
349.958	0.97
350.17	-1.5
350.382	5.28
350.594	-2.66
350.806	12.06
351.018	16.62
351.23	22.66
351.442	21.08
351.654	29.86
351.866	15.42
352.078	26.32
352.29	14.27
352.502	-1.04
352.714	-14.55
352.926	-17.04
353.138	-17.44
353.35	-11.39
353.561	-0.34
353.773	1.92
353.985	11.36
354.197	10.05
354.409	11.59
354.621	2.51
354.832	-7.54
355.044	-27.72
355.256	-34.61
355.468	-41.69
355.679	-15.63
355.891	-7.66
356.103	-2.92
356.314	-9.19
356.526	-16.28
356.738	-27.11
356.949	-27.4
357.161	-20.04
357.373	-22.03
357.584	-17.67
357.796	-8.92
358.008	-7.67
358.219	-6.84
358.431	1.47
358.642	10.8
358.854	1.75
359.065	-14.18
359.277	-11.21
359.488	-18.65
359.7	-24.49
359.911	-40.2
360.123	-10.46
360.334	-27.05
360.546	-23.07
360.757	-16.29
360.969	-6.07
361.18	-22.57
361.391	-2.15
361.603	4.93
361.814	4.57
362.025	14.58
362.237	16.95
362.448	16.81
362.659	7.26
362.871	2.77
363.082	1.59
363.293	-1.56
363.504	-24.46
363.716	-13.11
363.927	-5.29
364.138	-31.08
364.349	-38.78
364.56	-54.38
364.772	-43.61
364.983	-30.56
365.194	-5.64
365.405	0.05
365.616	24.72
365.827	15.53
366.038	10.16
366.25	8.11
366.461	7.47
366.672	4.61
366.883	10.28
367.094	10.29
367.305	-4.61
367.516	12.15
367.727	1.48
367.938	-17.5
368.149	-35.09
368.36	-42.8
368.571	-69.19
368.781	-67.81
368.992	-53.78
369.203	-33.68
369.414	-18.13
369.625	-16.74
369.836	8.6
370.047	13.57
370.258	17.62
370.468	9.16
370.679	5.06
370.89	-16.97
371.101	-5.55
371.312	-22.5
371.522	-19.98
371.733	-19.87
371.944	-30.19
372.155	-38.23
372.365	-28.36
372.576	-39.45
372.787	-39.83
372.997	-27.09
373.208	-20.58
373.419	-10.08
373.629	-7.66
373.84	1.98
374.05	-4.25
374.261	-18.98
374.472	-21.86
374.682	-11.01
374.893	-12.88
375.103	6.73
375.314	11.97
375.524	8.25
375.735	8.61
375.945	18.72
376.156	9.92
376.366	13.68
376.577	8.22
376.787	13.47
376.997	11.92
377.208	11.88
377.418	7.02
377.629	11.14
377.839	7.57
378.049	6.35
378.26	-4
378.47	-5.14
378.68	0.7
378.89	0.81
379.101	-1.26
379.311	2.7
379.521	-1.88
379.732	-11.65
379.942	-16.56
380.152	-22.45
380.362	-10.2
380.572	5.54
380.783	12.68
380.993	26.08
381.203	26.46
381.413	22.49
381.623	15.92
381.833	16.58
382.043	6.69
382.253	9.77
382.463	18.78
382.674	20.93
382.884	20.27
383.094	20.82
383.304	16.87
383.514	3.53
383.724	-3.23
383.934	-8.38
384.144	-4.97
384.353	0.63
384.563	-0.68
384.773	4.19
384.983	0.32
385.193	-8.66
385.403	-14.06
385.613	-4.02
385.823	-6.32
386.033	-1.9
386.242	-3.39
386.452	-0.41
386.662	-5.1
386.872	1.89
387.082	-1.04
387.291	1.46
387.501	3.54
387.711	3.19
387.921	-0.99
388.13	3.48
388.34	5.37
388.55	-2.58
388.759	-6.65
388.969	-7.78
389.179	-10.07
389.388	-9.81
389.598	-9.99
389.807	-13.59
390.017	-13.08
390.227	-12.66
390.436	-10.34
390.646	-8.36
390.855	-1.32
391.065	-0.66
391.274	0.86
391.484	0.17
391.693	1.64
391.903	-2.03
392.112	-0.63
392.322	-2.73
392.531	-3.56
392.74	-4.9
392.95	-3.87
393.159	-5.12
393.369	-4.26
393.578	-4.34
393.787	-2.56
393.997	-1.61
394.206	-2.73
394.415	-1.48
394.625	-1.22
394.834	-1.97
395.043	-0.76
395.252	2.76
395.462	3.2
395.671	3.51
395.88	3.83
396.089	3.12
396.298	1.89
396.508	1.72
396.717	1.55
396.926	0.93
397.135	1.05
397.344	0.26
397.553	0.09
397.762	1.32
397.971	1.69
398.181	1.62
398.39	2.11
398.599	2.08
398.808	1.57
399.017	2.27
399.226	2.39
399.435	2.22
399.644	2.93
399.853	2.86
400.062	2.3
400.27	2.02
400.479	2.31
400.688	1.94
400.897	1.73
401.106	2
401.315	2.04
401.524	2.1
401.733	1.73
401.941	2.27
402.15	2.34
402.359	2.38
402.568	2.25
402.777	2.27
402.985	1.75
403.194	1.47
403.403	1.7
403.612	1.59
403.82	1.56
404.029	1.76
404.238	1.85
404.446	1.95
404.655	2.02
404.864	2.05
405.072	2.04
405.281	2.08
405.489	1.67
405.698	1.66
405.906	1.9
406.115	1.81
406.324	1.83
406.532	2.03
406.741	2.09
406.949	2.01
407.158	2.09
407.366	1.98
407.574	2.04
407.783	2.09
407.991	1.99
408.2	1.92
408.408	2.02
408.617	1.92
408.825	1.79
409.033	1.9
409.242	2.1
409.45	1.98
409.658	2.02
409.867	2.03
410.075	2
410.283	1.88
410.491	1.89
410.7	1.87
410.908	1.86
411.116	1.9
411.324	1.81
411.533	1.79
411.741	1.7
411.949	1.79
412.157	1.65
412.365	1.74
412.573	1.83
412.781	1.78
412.99	1.74
413.198	1.7
413.406	1.76
413.614	1.72
413.822	1.89
414.03	1.9
414.238	2
414.446	1.93
414.654	1.83
414.862	1.77
415.07	1.79
415.278	1.79
415.486	1.63
415.694	1.77
415.902	1.71
416.109	1.55
416.317	1.56
416.525	1.55
416.733	1.43
416.941	1.45
417.149	1.42
417.357	1.51
417.564	1.51
417.772	1.65
417.98	1.65
418.188	1.67
418.395	1.4
418.603	1.42
418.811	1.33
419.019	1.36
419.226	1.52
419.434	1.69
419.642	1.68
419.849	1.69
420.057	1.75
420.265	1.67
420.472	1.57
420.68	1.57
420.887	1.59
421.095	1.55
421.302	1.46
421.51	1.49
421.717	1.65
421.925	1.57
422.132	1.46
422.34	1.32
422.547	1.25
422.755	1.14
422.962	1.28
423.17	1.21
423.377	1.43
423.585	1.57
423.792	1.5
423.999	1.48
424.207	1.54
424.414	1.36
424.621	1.25
424.829	1.33
425.036	1.29
425.243	1.4
425.451	1.6
425.658	1.72
425.865	1.71
426.072	1.82
426.28	1.87
426.487	1.84
426.694	1.7
426.901	1.76
427.108	1.56
427.315	1.55
427.523	1.39
427.73	1.37
427.937	1.24
428.144	1.14
428.351	1.11
428.558	1.27
428.765	1.38
428.972	1.38
429.179	1.37
429.386	1.35
429.593	1.27
429.8	1.27
430.007	1.4
430.214	1.45
430.421	1.47
430.628	1.55
430.835	1.5
431.042	1.47
431.249	1.51
431.456	1.52
431.662	1.64
431.869	1.72
432.076	1.77
432.283	1.95
432.49	1.85
432.697	1.7
432.903	1.7
433.11	1.75
433.317	1.63
433.524	1.73
433.73	1.77
433.937	1.93
434.144	1.85
434.35	1.81
434.557	1.83
434.764	1.85
434.97	1.63
435.177	1.84
435.384	2.01
435.59	2.07
435.797	2.19
436.003	2.16
436.21	1.92
436.416	1.89
436.623	1.89
436.829	1.77
437.036	1.96
437.242	1.99
437.449	1.96
437.655	1.93
437.862	2.03
438.068	1.98
438.275	2.11
438.481	2.17
438.687	2.16
438.894	2.18
439.1	2.07
439.307	2.17
439.513	2.21
439.719	2.28
439.926	2.28
440.132	2.46
440.338	2.28
440.544	2.21
440.751	2.09
440.957	2.06
441.163	1.91
441.369	2.02
441.575	1.94
441.782	2.06
441.988	2.09
442.194	2.17
442.4	2.09
442.606	2.28
442.812	2.27
443.018	2.19
443.224	2.34
443.431	2.34
443.637	2.25
443.843	2.11
444.049	2.19
444.255	2.15
444.461	2.09
444.667	2.08
444.873	2.19
445.079	2.17
445.284	2.15
445.49	2.23
445.696	2.24
445.902	2.3
446.108	2.37
446.314	2.34
446.52	2.37
446.726	2.41
446.931	2.3
447.137	2.24
447.343	2.34
447.549	2.32
447.755	2.29
447.96	2.34
448.166	2.3
448.372	2.2
448.578	2.18
448.783	2.14
448.989	2.23
449.195	2.3
449.4	2.47
449.606	2.53
449.812	2.56
450.017	2.58
450.223	2.52
450.428	2.47
450.634	2.45
450.84	2.48
451.045	2.43
451.251	2.48
451.456	2.45
451.662	2.43
451.867	2.43
452.073	2.47
452.278	2.44
452.483	2.52
452.689	2.57
452.894	2.65
453.1	2.59
453.305	2.6
453.51	2.55
453.716	2.55
453.921	2.56
454.127	2.56
454.332	2.57
454.537	2.51
454.742	2.46
454.948	2.36
455.153	2.38
455.358	2.44
455.563	2.52
455.769	2.56
455.974	2.54
456.179	2.55
456.384	2.46
456.589	2.39
456.795	2.38
457	2.43
457.205	2.47
457.41	2.41
457.615	2.35
457.82	2.43
458.025	2.4
458.23	2.37
458.435	2.55
458.64	2.69
458.845	2.75
459.05	2.77
459.255	2.78
459.46	2.7
459.665	2.64
459.87	2.51
460.075	2.55
460.28	2.65
460.485	2.72
460.69	2.75
460.895	2.85
461.099	2.73
461.304	2.52
461.509	2.51
461.714	2.57
461.919	2.51
462.123	2.59
462.328	2.64
462.533	2.53
462.738	2.43
462.942	2.38
463.147	2.44
463.352	2.52
463.556	2.56
463.761	2.62
463.966	2.66
464.17	2.66
464.375	2.74
464.58	2.78
464.784	2.72
464.989	2.77
465.193	2.73
465.398	2.66
465.602	2.8
465.807	2.88
466.011	2.93
466.216	2.92
466.42	3.01
466.625	3
466.829	2.9
467.034	2.97
467.238	3.11
467.443	3.09
467.647	2.95
467.851	3.04
468.056	3.02
468.26	2.91
468.464	2.95
468.669	3.03
468.873	3.06
469.077	2.96
469.282	3.03
469.486	2.99
469.69	2.99
469.894	3.01
470.099	3.08
470.303	3.05
470.507	3.09
470.711	3.03
470.915	3.03
471.119	3.04
471.324	3.09
471.528	3.09
471.732	3.21
471.936	3.19
472.14	3.17
472.344	3.23
472.548	3.25
472.752	3.23
472.956	3.31
473.16	3.41
473.364	3.33
473.568	3.33
473.772	3.33
473.976	3.33
474.18	3.28
474.384	3.34
474.588	3.4
474.792	3.4
474.995	3.36
475.199	3.37
475.403	3.38
475.607	3.38
475.811	3.36
476.015	3.34
476.218	3.33
476.422	3.29
476.626	3.3
476.83	3.41
477.033	3.48
477.237	3.47
477.441	3.51
477.644	3.53
477.848	3.49
478.052	3.53
478.255	3.58
478.459	3.61
478.663	3.68
478.866	3.7
479.07	3.61
479.273	3.75
479.477	3.71
479.681	3.67
479.884	3.66
480.088	3.73
480.291	3.59
480.495	3.58
480.698	3.57
480.901	3.58
481.105	3.6
481.308	3.56
481.512	3.62
481.715	3.68
481.919	3.76
482.122	3.77
482.325	3.84
482.529	3.92
482.732	3.9
482.935	3.82
483.138	3.85
483.342	3.88
483.545	3.9
483.748	3.94
483.952	4.06
484.155	4.08
484.358	4.07
484.561	3.99
484.764	3.88
484.967	3.8
485.171	3.85
485.374	3.85
485.577	3.94
485.78	3.96
485.983	3.95
486.186	3.93
486.389	3.95
486.592	3.83
486.795	3.99
486.998	4.09
487.201	4.1
487.404	4.24
487.607	4.3
487.81	4.15
488.013	4.12
488.216	4.1
488.419	3.91
488.622	3.87
488.825	3.86
489.028	3.86
489.231	3.87
489.433	3.89
489.636	3.91
489.839	4
490.042	4.05
490.245	4.01
490.447	4.07
490.65	4.11
490.853	4.16
491.056	4.14
491.258	4.22
491.461	4.16
491.664	4.12
491.866	4.05
492.069	4.03
492.272	3.91
492.474	3.94
492.677	3.96
492.879	3.97
493.082	4
493.285	4.09
493.487	4.12
493.69	4.12
493.892	4.15
494.095	4.14
494.297	4.17
494.5	4.17
494.702	4.17
494.905	4.19
495.107	4.21
495.309	4.23
495.512	4.24
495.714	4.3
495.917	4.31
496.119	4.32
496.321	4.3
496.524	4.26
496.726	4.2
496.928	4.16
497.13	4.14
497.333	4.13
497.535	4.17
497.737	4.2
497.939	4.23
498.142	4.22
498.344	4.18
498.546	4.19
498.748	4.27
498.95	4.26
499.152	4.28
499.355	4.29
499.557	4.34
499.759	4.33
499.961	4.37
500.163	4.4
500.365	4.5
500.567	4.43
500.769	4.43
500.971	4.43
501.173	4.36
501.375	4.39
501.577	4.43
501.779	4.43
501.981	4.46
502.183	4.49
502.385	4.5
502.587	4.56
502.788	4.61
502.99	4.61
503.192	4.65
503.394	4.65
503.596	4.59
503.798	4.56
503.999	4.55
504.201	4.52
504.403	4.52
504.605	4.61
504.806	4.65
505.008	4.7
505.21	4.74
505.411	4.74
505.613	4.73
505.815	4.7
506.016	4.7
506.218	4.75
506.42	4.79
506.621	4.83
506.823	4.85
507.024	4.86
507.226	4.87
507.427	4.89
507.629	4.87
507.83	4.88
508.032	4.83
508.233	4.85
508.435	4.87
508.636	4.9
508.838	4.98
509.039	5.06
509.24	5.03
509.442	5.07
509.643	5.06
509.845	5.03
510.046	5.1
510.247	5.18
510.448	5.2
510.65	5.28
510.851	5.35
511.052	5.34
511.254	5.35
511.455	5.33
511.656	5.2
511.857	5.17
512.058	5.2
512.26	5.2
512.461	5.21
512.662	5.31
512.863	5.24
513.064	5.19
513.265	5.19
513.466	5.19
513.667	5.21
513.868	5.28
514.069	5.31
514.27	5.36
514.471	5.33
514.672	5.3
514.873	5.27
515.074	5.25
515.275	5.25
515.476	5.33
515.677	5.37
515.878	5.47
516.079	5.5
516.28	5.54
516.481	5.54
516.682	5.53
516.882	5.5
517.083	5.53
517.284	5.5
517.485	5.49
517.686	5.58
517.886	5.62
518.087	5.58
518.288	5.61
518.488	5.57
518.689	5.51
518.89	5.44
519.091	5.54
519.291	5.53
519.492	5.6
519.692	5.6
519.893	5.71
520.094	5.68
520.294	5.72
520.495	5.67
520.695	5.7
520.896	5.68
521.096	5.69
521.297	5.66
521.497	5.7
521.698	5.7
521.898	5.68
522.099	5.7
522.299	5.7
522.499	5.71
522.7	5.72
522.9	5.77
523.101	5.69
523.301	5.73
523.501	5.75
523.702	5.76
523.902	5.72
524.102	5.87
524.302	5.89
524.503	5.87
524.703	5.83
524.903	5.88
525.103	5.8
525.304	5.78
525.504	5.84
525.704	5.91
525.904	5.9
526.104	5.9
526.304	5.91
526.504	5.96
526.705	5.93
526.905	6
527.105	6.05
527.305	6.03
527.505	5.98
527.705	5.95
527.905	5.93
528.105	5.97
528.305	6.06
528.505	6.1
528.705	6.21
528.905	6.21
529.105	6.19
529.304	6.11
529.504	6.11
529.704	6.09
529.904	6.14
530.104	6.13
530.304	6.21
530.503	6.25
530.703	6.2
530.903	6.24
531.103	6.34
531.303	6.31
531.502	6.38
531.702	6.5
531.902	6.55
532.101	6.51
532.301	6.58
532.501	6.61
532.7	6.54
532.9	6.51
533.1	6.52
533.299	6.54
533.499	6.47
533.698	6.51
533.898	6.54
534.097	6.56
534.297	6.54
534.496	6.54
534.696	6.54
534.895	6.54
535.095	6.58
535.294	6.62
535.494	6.66
535.693	6.71
535.892	6.8
536.092	6.78
536.291	6.8
536.491	6.82
536.69	6.79
536.889	6.74
537.088	6.77
537.288	6.74
537.487	6.79
537.686	6.79
537.886	6.82
538.085	6.84
538.284	6.98
538.483	6.94
538.682	7.04
538.882	7.09
539.081	7.1
539.28	7.03
539.479	7.05
539.678	7.04
539.877	7.03
540.076	7.11
540.275	7.17
540.474	7.2
540.673	7.21
540.872	7.22
541.071	7.24
541.27	7.27
541.469	7.32
541.668	7.36
541.867	7.38
542.066	7.37
542.265	7.42
542.464	7.39
542.663	7.44
542.862	7.52
543.06	7.58
543.259	7.59
543.458	7.62
543.657	7.67
543.856	7.72
544.054	7.74
544.253	7.75
544.452	7.83
544.651	7.9
544.849	7.89
545.048	7.96
545.247	8.02
545.445	8.07
545.644	8.05
545.843	8.11
546.041	8.08
546.24	8.1
546.438	8.16
546.637	8.25
546.836	8.29
547.034	8.4
547.233	8.46
547.431	8.5
547.63	8.52
547.828	8.56
548.027	8.62
548.225	8.67
548.423	8.71
548.622	8.81
548.82	8.86
549.019	8.84
549.217	8.91
549.415	8.89
549.614	9.01
549.812	9.02
550.01	9.11
550.209	9.2
550.407	9.31
550.605	9.22
550.803	9.32
551.002	9.46
551.2	9.4
551.398	9.47
551.596	9.63
551.794	9.71
551.993	9.71
552.191	9.89
552.389	9.96
552.587	10.01
552.785	10.02
552.983	10.11
553.181	10.12
553.379	10.19
553.577	10.17
553.775	10.29
553.973	10.39
554.171	10.47
554.369	10.57
554.567	10.76
554.765	10.82
554.963	10.82
555.161	10.9
555.359	10.94
555.557	10.95
555.755	11.04
555.952	11.17
556.15	11.28
556.348	11.44
556.546	11.62
556.744	11.7
556.941	11.73
557.139	11.83
557.337	11.9
557.535	11.86
557.732	11.98
557.93	12.14
558.128	12.22
558.325	12.31
558.523	12.45
558.721	12.55
558.918	12.63
559.116	12.75
559.313	12.82
559.511	12.96
559.708	13
559.906	13.12
560.104	13.14
560.301	13.25
560.498	13.27
560.696	13.36
560.893	13.52
561.091	13.72
561.288	13.9
561.486	14.05
561.683	14.15
561.88	14.22
562.078	14.32
562.275	14.38
562.473	14.45
562.67	14.54
562.867	14.6
563.064	14.69
563.262	14.72
563.459	14.88
563.656	15.03
563.853	15.07
564.051	15.21
564.248	15.45
564.445	15.57
564.642	15.69
564.839	15.9
565.036	16
565.234	16.01
565.431	16.1
565.628	16.18
565.825	16.22
566.022	16.27
566.219	16.4
566.416	16.48
566.613	16.61
566.81	16.79
567.007	16.86
567.204	16.98
567.401	17.03
567.598	17.08
567.795	17.12
567.991	17.19
568.188	17.25
568.385	17.27
568.582	17.39
568.779	17.47
568.976	17.65
569.172	17.79
569.369	17.96
569.566	18.01
569.763	18.02
569.96	18.04
570.156	18.01
570.353	18.02
570.55	18.1
570.746	18.26
570.943	18.27
571.14	18.26
571.336	18.31
571.533	18.45
571.729	18.44
571.926	18.54
572.123	18.74
572.319	18.82
572.516	18.88
572.712	18.99
572.909	19
573.105	19.11
573.302	19.16
573.498	19.04
573.695	19.07
573.891	19.08
574.087	18.9
574.284	18.94
574.48	19
574.677	19.04
574.873	19.15
575.069	19.28
575.266	19.32
575.462	19.38
575.658	19.41
575.854	19.42
576.051	19.45
576.247	19.36
576.443	19.34
576.639	19.34
576.835	19.34
577.032	19.27
577.228	19.44
577.424	19.49
577.62	19.44
577.816	19.4
578.012	19.45
578.208	19.45
578.404	19.48
578.6	19.53
578.796	19.58
578.993	19.62
579.189	19.6
579.384	19.64
579.58	19.67
579.776	19.71
579.972	19.72
580.168	19.69
580.364	19.65
580.56	19.59
580.756	19.46
580.952	19.48
581.148	19.53
581.343	19.58
581.539	19.68
581.735	19.72
581.931	19.71
582.127	19.64
582.322	19.66
582.518	19.66
582.714	19.72
582.909	19.71
583.105	19.71
583.301	19.59
583.496	19.45
583.692	19.41
583.888	19.32
584.083	19.27
584.279	19.31
584.474	19.41
584.67	19.47
584.866	19.49
585.061	19.61
585.257	19.6
585.452	19.56
585.648	19.51
585.843	19.5
586.039	19.46
586.234	19.48
586.429	19.5
586.625	19.55
586.82	19.64
587.015	19.63
587.211	19.68
587.406	19.65
587.601	19.69
587.797	19.66
587.992	19.66
588.187	19.61
588.383	19.66
588.578	19.6
588.773	19.63
588.968	19.68
589.163	19.81
589.359	19.75
589.554	19.75
589.749	19.77
589.944	19.82
590.139	19.8
590.334	19.95
590.529	19.98
590.724	20.03
590.919	20.04
591.114	20.06
591.309	20.11
591.504	20.18
591.699	20.19
591.894	20.23
592.089	20.29
592.284	20.25
592.479	20.31
592.674	20.33
592.869	20.34
593.064	20.41
593.259	20.52
593.454	20.51
593.648	20.56
593.843	20.63
594.038	20.64
594.233	20.66
594.428	20.82
594.622	20.98
594.817	21.2
595.012	21.27
595.206	21.33
595.401	21.33
595.596	21.28
595.79	21.27
595.985	21.39
596.18	21.48
596.374	21.69
596.569	21.83
596.763	21.87
596.958	22.01
597.153	22.15
597.347	22.01
597.542	22.05
597.736	22.13
597.931	22.01
598.125	22.09
598.319	22.3
598.514	22.39
598.708	22.48
598.903	22.62
599.097	22.72
599.291	22.74
599.486	22.81
599.68	22.82
599.874	22.97
600.069	23.02
600.263	23.09
600.457	23.13
600.651	23.2
600.846	23.14
601.04	23.11
601.234	23.11
601.428	23.19
601.622	23.25
601.817	23.34
602.011	23.39
602.205	23.45
602.399	23.39
602.593	23.45
602.787	23.38
602.981	23.37
603.175	23.41
603.369	23.44
603.563	23.45
603.757	23.55
603.951	23.62
604.145	23.58
604.339	23.57
604.533	23.5
604.727	23.43
604.921	23.33
605.115	23.3
605.309	23.22
605.502	23.27
605.696	23.26
605.89	23.35
606.084	23.38
606.278	23.42
606.471	23.35
606.665	23.24
606.859	23.07
607.053	22.9
607.246	22.8
607.44	22.72
607.634	22.75
607.827	22.81
608.021	22.79
608.214	22.75
608.408	22.63
608.602	22.47
608.795	22.33
608.989	22.33
609.182	22.31
609.376	22.36
609.569	22.37
609.763	22.32
609.956	22.27
610.15	22.22
610.343	22.11
610.537	22.11
610.73	22.03
610.923	21.94
611.117	21.91
611.31	21.79
611.504	21.71
611.697	21.69
611.89	21.63
612.083	21.43
612.277	21.4
612.47	21.28
612.663	21.26
612.856	21.13
613.05	21.14
613.243	21.08
613.436	21.04
613.629	20.81
613.822	20.77
614.015	20.72
614.209	20.63
614.402	20.49
614.595	20.5
614.788	20.44
614.981	20.26
615.174	20.16
615.367	20.06
615.56	20.04
615.753	20.08
615.946	20.05
616.139	20.04
616.332	20.09
616.525	20
616.718	19.79
616.911	19.8
617.103	19.85
617.296	19.74
617.489	19.63
617.682	19.74
617.875	19.72
618.067	19.59
618.26	19.57
618.453	19.56
618.646	19.41
618.838	19.36
619.031	19.35
619.224	19.4
619.417	19.43
619.609	19.45
619.802	19.37
619.994	19.35
620.187	19.2
620.38	19.14
620.572	19
620.765	19
620.957	18.81
621.15	18.78
621.342	18.72
621.535	18.77
621.727	18.68
621.92	18.81
622.112	18.86
622.305	18.81
622.497	18.73
622.69	18.66
622.882	18.62
623.074	18.6
623.267	18.57
623.459	18.56
623.651	18.68
623.844	18.67
624.036	18.63
624.228	18.63
624.42	18.6
624.613	18.44
624.805	18.46
624.997	18.46
625.189	18.52
625.381	18.47
625.574	18.54
625.766	18.39
625.958	18.36
626.15	18.27
626.342	18.28
626.534	18.22
626.726	18.24
626.918	18.08
627.11	18.03
627.302	17.95
627.494	17.96
627.686	17.92
627.878	17.89
628.07	17.85
628.262	17.87
628.454	17.77
628.646	17.8
628.838	17.89
629.029	17.82
629.221	17.81
629.413	17.73
629.605	17.62
629.797	17.53
629.989	17.55
630.18	17.68
630.372	17.77
630.564	17.7
630.755	17.66
630.947	17.58
631.139	17.34
631.33	17.18
631.522	17.17
631.714	17.13
631.905	17.19
632.097	17.15
632.289	17.19
632.48	17.16
632.672	17.21
632.863	17.07
633.055	17.17
633.246	17.17
633.438	17.12
633.629	17
633.821	17.06
634.012	16.99
634.203	16.98
634.395	17.04
634.586	17.14
634.777	17.07
634.969	16.99
635.16	16.94
635.351	16.86
635.543	16.77
635.734	16.78
635.925	16.82
636.117	16.86
636.308	16.96
636.499	16.98
636.69	16.94
636.881	16.89
637.073	16.84
637.264	16.77
637.455	16.77
637.646	16.84
637.837	16.86
638.028	16.88
638.219	16.95
638.41	16.94
638.601	16.94
638.792	16.95
638.983	16.96
639.174	16.81
639.365	16.79
639.556	16.67
639.747	16.62
639.938	16.64
640.129	16.66
640.32	16.62
640.511	16.64
640.701	16.66
640.892	16.63
641.083	16.66
641.274	16.59
641.465	16.67
641.655	16.59
641.846	16.51
642.037	16.48
642.228	16.48
642.418	16.32
642.609	16.35
642.8	16.39
642.99	16.34
643.181	16.35
643.372	16.42
643.562	16.33
643.753	16.26
643.943	16.2
644.134	16.08
644.324	16.06
644.515	16.13
644.705	16.11
644.896	16.21
645.086	16.33
645.277	16.3
645.467	16.26
645.658	16.11
645.848	15.98
646.038	15.88
646.229	15.86
646.419	15.73
646.61	15.89
646.8	15.91
646.99	15.94
647.18	15.89
647.371	15.88
647.561	15.77
647.751	15.79
647.941	15.76
648.132	15.72
648.322	15.75
648.512	15.8
648.702	15.76
648.892	15.78
649.082	15.83
649.272	15.78
649.462	15.79
649.653	15.73
649.843	15.6
650.033	15.57
650.223	15.52
650.413	15.43
650.603	15.48
650.793	15.53
650.983	15.42
651.172	15.49
651.362	15.38
651.552	15.24
651.742	15.07
651.932	15.08
652.122	15.05
652.312	15.01
652.502	14.97
652.691	14.88
652.881	14.77
653.071	14.65
653.261	14.56
653.45	14.53
653.64	14.49
653.83	14.38
654.019	14.26
654.209	14.16
654.399	14.01
654.588	13.85
654.778	13.74
654.968	13.61
655.157	13.5
655.347	13.38
655.536	13.3
655.726	13.16
655.915	13.04
656.105	12.93
656.294	12.77
656.484	12.56
656.673	12.53
656.863	12.38
657.052	12.25
657.241	12.16
657.431	12.12
657.62	11.88
657.809	11.74
657.999	11.63
658.188	11.45
658.377	11.29
658.567	11.15
658.756	11.03
658.945	10.8
659.134	10.69
659.324	10.46
659.513	10.27
659.702	10.07
659.891	10
660.08	9.92
660.269	9.8
660.458	9.63
660.648	9.51
660.837	9.37
661.026	9.12
661.215	9.05
661.404	8.93
661.593	8.88
661.782	8.68
661.971	8.46
662.16	8.31
662.349	8.12
662.538	7.86
662.726	7.77
662.915	7.81
663.104	7.62
663.293	7.65
663.482	7.63
663.671	7.51
663.86	7.38
664.048	7.42
664.237	7.24
664.426	7.15
664.615	7.06
664.803	6.98
664.992	6.85
665.181	6.78
665.369	6.65
665.558	6.61
665.747	6.58
665.935	6.48
666.124	6.51
666.312	6.46
666.501	6.41
666.69	6.35
666.878	6.37
667.067	6.23
667.255	6.21
667.444	6.25
667.632	6.23
667.82	6.16
668.009	6.13
668.197	6.07
668.386	5.95
668.574	5.89
668.762	5.79
668.951	5.79
669.139	5.69
669.327	5.68
669.516	5.71
669.704	5.76
669.892	5.75
670.08	5.9
670.269	5.86
670.457	5.84
670.645	5.8
670.833	5.78
671.021	5.8
671.21	5.81
671.398	5.86
671.586	5.82
671.774	5.94
671.962	5.89
672.15	6.01
672.338	6
672.526	6.14
672.714	6.14
672.902	6.16
673.09	6.14
673.278	6.24
673.466	6.3
673.654	6.39
673.842	6.57
674.03	6.69
674.218	6.67
674.405	6.67
674.593	6.72
674.781	6.62
674.969	6.72
675.157	6.79
675.344	6.83
675.532	6.73
675.72	6.78
675.908	6.69
676.095	6.7
676.283	6.81
676.471	6.88
676.658	7.03
676.846	7.07
677.033	7.12
677.221	7.11
677.409	7.2
677.596	7.17
677.784	7.25
677.971	7.26
678.159	7.36
678.346	7.45
678.534	7.58
678.721	7.72
678.909	7.94
679.096	8.01
679.283	8.18
679.471	8.3
679.658	8.37
679.846	8.4
680.033	8.66
680.22	8.83
680.408	8.73
680.595	8.71
680.782	8.79
680.969	8.94
681.157	8.84
681.344	9.07
681.531	9.34
681.718	9.49
681.905	9.46
682.093	9.8
682.28	10.03
682.467	10.19
682.654	10.24
682.841	10.47
683.028	10.47
683.215	10.66
683.402	10.7
683.589	10.95
683.776	11.04
683.963	11.35
684.15	11.56
684.337	11.78
684.524	12.13
684.711	12.38
684.898	12.3
685.085	12.46
685.271	12.94
685.458	13.01
685.645	13.12
685.832	13.64
686.019	13.85
686.205	14.16
686.392	14.59
686.579	15
686.766	15.28
686.952	15.7
687.139	15.88
687.326	16.18
687.512	16.54
687.699	16.86
687.886	17.08
688.072	17.41
688.259	17.84
688.445	18.32
688.632	18.71
688.818	19.39
689.005	19.83
689.191	20.32
689.378	20.74
689.564	21.43
689.751	21.85
689.937	22.56
690.124	23.04
690.31	23.54
690.496	24.14
690.683	24.75
690.869	25.19
691.055	25.8
691.242	26.41
691.428	26.91
691.614	27.53
691.8	28.2
691.987	29.06
692.173	29.95
692.359	30.64
692.545	31.32
692.731	31.93
692.918	32.36
693.104	32.86
693.29	33.31
693.476	33.94
693.662	34.65
693.848	35.29
694.034	35.89
694.22	36.73
694.406	37.27
694.592	38.02
694.778	38.51
694.964	39.15
695.15	39.83
695.336	40.44
695.522	40.9
695.708	41.65
695.894	42.29
696.08	42.84
696.265	43.52
696.451	43.95
696.637	44.91
696.823	45.55
697.009	45.83
697.194	46.52
697.38	47.42
697.566	47.62
697.751	48.23
697.937	49.42
698.123	49.91
698.308	50.3
698.494	51.01
698.68	51.6
698.865	51.64
699.051	52.21
699.236	52.75
699.422	53.22
699.607	53.69
699.793	54.62
699.978	55
700.164	55.39
700.349	55.74
700.535	55.91
700.72	55.95
700.906	56.41
701.091	57.07
701.276	57.37
701.462	57.95
701.647	58.63
701.832	59.1
702.018	59.6
702.203	60.29
702.388	60.57
702.573	60.81
702.759	61.49
702.944	61.64
703.129	61.96
703.314	62.39
703.499	62.7
703.684	62.52
703.87	62.93
704.055	63.05
704.24	63.54
704.425	63.91
704.61	64.18
704.795	64.73
704.98	64.95
705.165	64.88
705.35	65.23
705.535	65.72
705.72	65.72
705.905	66.35
706.09	66.78
706.275	66.67
706.459	67.08
706.644	67.33
706.829	67.47
707.014	67.68
707.199	68.16
707.384	68.2
707.568	68.19
707.753	68.57
707.938	68.78
708.123	68.94
708.307	69.12
708.492	69.46
708.677	69.25
708.861	69.31
709.046	69.22
709.231	69.1
709.415	69.07
709.6	69.49
709.784	69.99
709.969	70.46
710.153	70.63
710.338	71.12
710.522	71.34
710.707	71.23
710.891	71.27
711.076	71.49
711.26	71.67
711.445	71.59
711.629	71.68
711.813	71.79
711.998	72.1
712.182	71.86
712.366	72.24
712.551	72.66
712.735	72.92
712.919	73.27
713.103	73.6
713.288	73.58
713.472	73.6
713.656	73.49
713.84	73.3
714.024	73.53
714.208	73.64
714.393	73.43
714.577	74.02
714.761	74.11
714.945	74.32
715.129	74.25
715.313	74.63
715.497	74.3
715.681	74.3
715.865	73.8
716.049	74.01
716.233	73.81
716.417	73.95
716.601	74.33
716.785	74.93
716.968	74.6
717.152	74.92
717.336	75.12
717.52	75.07
717.704	75.14
717.888	75.56
718.071	75.63
718.255	75.71
718.439	75.82
718.622	75.81
718.806	75.39
718.99	75.07
719.174	74.81
719.357	74.67
719.541	74.46
719.724	74.79
719.908	75.31
720.092	74.98
720.275	75.46
720.459	75.94
720.642	75.94
720.826	75.58
721.009	76.25
721.193	75.54
721.376	75.39
721.559	75.79
721.743	76.36
721.926	76.4
722.11	77.3
722.293	77.77
722.476	77.16
722.66	77.27
722.843	77.19
723.026	76.97
723.21	76.4
723.393	77.18
723.576	77.01
723.759	77.33
723.942	77.07
724.126	77.03
724.309	77.07
724.492	77.34
724.675	77.13
724.858	77.36
725.041	77.56
725.224	77.68
725.407	77.58
725.59	77.5
725.774	77.57
725.957	77.96
726.14	77.86
726.322	78.14
726.505	78.3
726.688	78.43
726.871	78.04
727.054	78.51
727.237	78.21
727.42	78.36
727.603	78.27
727.786	78.77
727.968	77.45
728.151	77.79
728.334	78.29
728.517	78.94
728.699	78.38
728.882	78.89
729.065	78.5
729.248	78.31
729.43	78.22
729.613	78.62
729.796	79.82
729.978	80.08
730.161	80.08
730.343	80.41
730.526	80.54
730.708	79.8
730.891	80.05
731.073	80.47
731.256	80.32
731.438	80.91
731.621	81.32
731.803	81.69
731.986	81.66
732.168	81.82
732.35	81.67
732.533	81.39
732.715	81.12
732.898	80.47
733.08	80.45
733.262	80.58
733.444	80.83
733.627	80.39
733.809	80.49
733.991	80.41
734.173	79.79
734.355	80.05
734.538	81.25
734.72	81.21
734.902	81.49
735.084	82.14
735.266	82.49
735.448	82.55
735.63	83.27
735.812	82.97
735.994	82.73
736.176	82.57
736.358	82.54
736.54	82.76
736.722	82.8
736.904	82.84
737.086	82.17
737.268	82.05
737.45	82.58
737.632	83.17
737.814	83.71
737.995	84.39
738.177	84.68
738.359	83.79
738.541	83.33
738.723	82.81
738.904	82.07
739.086	81.8
739.268	81.92
739.449	81.89
739.631	81.78
739.813	82.26
739.994	81.78
740.176	82.28
740.358	82.46
740.539	82.48
740.721	82.72
740.902	83.25
741.084	83.25
741.265	83.16
741.447	83.98
741.628	84.07
741.81	84.52
741.991	83.95
742.172	83.6
742.354	83.57
742.535	83.98
742.717	82.72
742.898	82.97
743.079	83.93
743.261	83.8
743.442	82.86
743.623	83.49
743.804	83.68
743.986	83.25
744.167	82.76
744.348	82.04
744.529	81.92
744.71	81.36
744.891	81.26
745.073	81.47
745.254	82.96
745.435	83.28
745.616	83.26
745.797	83.32
745.978	83.7
746.159	82.92
746.34	82.99
746.521	83.29
746.702	83.29
746.883	82.4
747.064	82.74
747.245	82.15
747.426	81.2
747.606	80.91
747.787	81.15
747.968	80.62
748.149	80.57
748.33	81.39
748.51	80.93
748.691	81.56
748.872	82.62
749.053	82.79
749.233	82.84
749.414	84.36
749.595	84.54
749.775	83.86
749.956	83.39
750.137	83.59
750.317	81.76
750.498	81.34
750.678	81.1
750.859	81.97
751.04	81.86
751.22	81.37
751.4	81.32
751.581	81.17
751.761	81.48
751.942	81.36
752.122	81.74
752.303	82.12
752.483	82.7
752.663	81.72
752.844	81.41
753.024	82.14
753.204	83.05
753.385	82.61
753.565	82.55
753.745	82.37
753.925	81.2
754.106	80.26
754.286	80.05
754.466	80.25
754.646	81.06
754.826	82.16
755.006	81.02
755.187	81.87
755.367	80.25
755.547	79.2
755.727	78.74
755.907	78.29
756.087	78.13
756.267	77.61
756.447	79.19
756.627	80.4
756.807	82.41
756.987	81.74
757.167	83.78
757.346	82.52
757.526	81.28
757.706	79.77
757.886	79.76
758.066	80.78
758.246	80.64
758.425	79.93
758.605	80.3
758.785	79.73
758.965	79.76
759.144	80.02
759.324	81.38
759.504	81.44
759.683	81.13
759.863	80.99
760.043	80.48
760.222	80.24
760.402	78.52
760.581	79.24
760.761	78.2
760.94	78.64
761.12	78.34
761.299	80.18
761.479	80.97
761.658	80.47
761.838	80.15
762.017	79.49
762.197	77.64
762.376	77.8
762.555	78.05
762.735	79.06
762.914	79.6
763.093	80.68
763.273	79.03
763.452	79.2
763.631	78.61
763.81	78.64
763.99	77.32
764.169	77.53
764.348	76.2
764.527	75.29
764.706	74.93
764.885	75.97
765.064	76.81
765.243	76.81
765.423	77.02
765.602	77.28
765.781	76.76
765.96	76.45
766.139	77.54
766.318	78.96
766.497	78.87
766.676	78.9
766.854	80.04
767.033	79.69
767.212	79.13
767.391	80.25
767.57	81.93
767.749	81.39
767.928	82.09
768.106	80.7
768.285	78.95
768.464	78.84
768.643	77.04
768.821	74.72
769	75.47
769.179	75.59
769.357	75.09
769.536	74.74
769.715	75.04
769.893	75.09
770.072	75.12
770.25	73.88
770.429	74.9
770.607	76.08
770.786	74.58
770.964	76.18
771.143	78.35
771.321	76.32
771.5	77.66
771.678	79.87
771.857	76.98
772.035	75.37
772.213	76.61
772.392	73.98
772.57	72.55
772.748	73.33
772.927	73.36
773.105	75.2
773.283	76.94
773.461	78.71
773.64	78.73
773.818	79.69
773.996	79.5
774.174	78.86
774.352	75.97
774.531	76.15
774.709	75.49
774.887	73.08
775.065	71.92
775.243	74.06
775.421	73.49
775.599	73.29
775.777	73.98
775.955	72.54
776.133	70.41
776.311	69.98
776.489	69.14
776.667	69.07
776.844	71.03
777.022	72.9
777.2	73.26
777.378	72.08
777.556	73.66
777.734	75.26
777.911	75.68
778.089	77.02
778.267	78.45
778.445	78.17
778.622	77.16
778.8	74.81
778.978	75.66
779.155	76.85
779.333	77.85
779.511	76.18
779.688	78.52
779.866	76.48
780.043	76.48
780.221	75.16
780.398	76.82
780.576	74.75
780.753	75.1
780.931	73.15
781.108	72.44
781.286	72.17
781.463	71.92
781.64	72.04
781.818	74.03
781.995	72.83
782.172	73.62
782.35	75.4
782.527	74.76
782.704	73.84
782.882	71.64
783.059	70.74
783.236	67.84
783.413	68.61
783.59	67.84
783.768	69.36
783.945	68.85
784.122	69.6
784.299	69.49
784.476	66.31
784.653	65.81
784.83	63.47
785.007	63.42
785.184	62.33
785.361	66.82
785.538	69.43
785.715	73.45
785.892	74.76
786.069	75.14
786.246	77.5
786.423	74.76
786.6	71.61
786.776	71.45
786.953	71.32
787.13	68.56
787.307	69.94
787.484	67.21
787.66	66.05
787.837	65.12
788.014	64.14
788.191	61.04
788.367	64.23
788.544	64.56
788.721	62.76
788.897	62.2
789.074	66.21
789.25	65.03
789.427	65.88
789.603	67.59
789.78	67.79
789.956	66.08
790.133	65.19
790.309	65.99
790.486	67.67
790.662	68.18
790.839	68.51
791.015	74.4
791.192	71.9
791.368	71
791.544	71.86
791.721	71.22
791.897	64.65
792.073	63.74
792.249	61.33
792.426	61.76
792.602	64.26
792.778	65.64
792.954	66.74
793.13	67.73
793.307	65.19
793.483	60.17
793.659	62.03
793.835	64.02
794.011	67.62
794.187	69.25
794.363	71.18
794.539	69.17
794.715	67.59
794.891	63.49
795.067	61.05
795.243	62.08
795.419	61.97
795.595	62.21
795.771	62.5
795.947	62.36
796.122	56.77
796.298	56.01
796.474	60.25
796.65	63.46
796.826	62.87
797.001	66.87
797.177	65.78
797.353	61.67
797.529	63.49
797.704	68.42
797.88	66.68
798.056	69.29
798.231	69.35
798.407	67.96
798.582	61.63
798.758	63.46
798.934	64.43
799.109	63.58
799.285	61.1
799.46	62.53
799.636	58.93
799.811	58.49
799.986	58.13
800.162	55.22
800.337	56.91
800.513	60.29
800.688	60.88
800.863	63.58
801.039	67.76
801.214	67.26
801.389	66.72
801.565	68.36
801.74	63.55
801.915	60.36
802.09	58.66
802.265	59.18
802.441	56.27
802.616	53.85
802.791	57.14
802.966	59.46
803.141	64.26
803.316	65.48
803.491	70.2
803.666	74.13
803.841	73.61
804.016	61.91
804.191	64.39
804.366	63.41
804.541	57.67
804.716	55.19
804.891	62.92
805.066	66.56
805.241	66.04
805.416	67.99
805.591	70.37
805.765	78.03
805.94	74.04
806.115	73.63
806.29	69.22
806.464	71.25
806.639	66.91
806.814	63.57
806.989	67
807.163	69.41
807.338	62.77
807.512	60.5
807.687	58.8
807.862	52.34
808.036	57.08
808.211	61.18
808.385	62.41
808.56	65.09
808.734	59.75
808.909	59.5
809.083	62.07
809.258	66.44
809.432	64.62
809.606	71.65
809.781	70.23
809.955	65.5
810.13	51.78
810.304	50.78
810.478	52.31
810.652	55.09
810.827	56.96
811.001	61.16
811.175	61.05
811.349	63.36
811.524	61.98
811.698	59.15
811.872	63.42
812.046	65.5
812.22	62.6
812.394	59.84
812.568	58.67
812.742	52.82
812.916	55.74
813.09	53.42
813.264	49.68
813.438	44.64
813.612	42.1
813.786	39.28
813.96	48.2
814.134	51.39
814.308	59.55
814.482	64.03
814.656	62
814.83	57.37
815.003	54.34
815.177	58.62
815.351	66.57
815.525	68.79
815.698	60.61
815.872	55.86
816.046	46.34
816.219	42.64
816.393	38.7
816.567	42.25
816.74	41.59
816.914	42.04
817.088	48.27
817.261	50.64
817.435	61.58
817.608	64.88
817.782	66.81
817.955	57.58
818.129	66.25
818.302	59.95
818.475	67.06
818.649	69.29
818.822	62.07
818.996	65.95
819.169	69.95
819.342	63.62
819.516	69.79
819.689	72
819.862	59.3
820.035	52.35
820.209	44.23
820.382	30.37
820.555	29.48
820.728	30.31
820.901	30.27
821.075	34.21
821.248	36.84
821.421	38.13
821.594	44.78
821.767	57.21
821.94	53.43
822.113	61.62
822.286	65.38
822.459	61.88
822.632	54.69
822.805	54.47
822.978	51.93
823.151	41.09
823.324	35.11
823.496	22.53
823.669	28.02
823.842	33.55
824.015	45
824.188	37.05
824.361	43.25
824.533	37.93
824.706	33.86
824.879	34.28
825.051	50.33
825.224	57.93
825.397	59.47
825.569	52.4
825.742	55.06
825.915	45.23
826.087	39.33
826.26	39
826.432	41.46
826.605	50.04
826.777	62.11
826.95	67.02
827.122	56.4
827.295	66.31
827.467	55.67
827.64	35.79
827.812	25.64
827.984	61.26
828.157	44.96
828.329	44.5
828.501	33.22
828.674	41.51
828.846	34.64
829.018	52.97
829.19	44.12
829.363	60.09
829.535	63.7
829.707	65.93
829.879	44.51
830.051	52.92
830.223	53.41
830.395	41.81
830.568	36.71
830.74	38.65
830.912	39.09
831.084	35.51
831.256	31.88
831.428	18.72
831.6	1.94
831.772	-5.57
831.943	-19.31
832.115	-18.93
832.287	10.95
832.459	32.93
832.631	37.46
832.803	46.64
832.975	46.47
833.146	29.73
833.318	33.54
833.49	46.39
833.662	48.64
833.833	56.45
834.005	72.56
834.177	71.61
834.348	53.35
834.52	47.37
834.692	45.11
834.863	51.83
835.035	50.11
835.206	56.04
835.378	60.22
835.549	51.16
835.721	40.44
835.892	34.43
836.064	33.03
836.235	28.09
836.407	29.21
836.578	31.4
836.749	14.24
836.921	1.47
837.092	3.38
837.264	11.13
837.435	-0.32
837.606	27.82
837.777	30.15
837.949	44.65
838.12	42.29
838.291	51.68
838.462	44.21
838.633	45.25
838.805	14.13
838.976	12.92
839.147	5.75
839.318	11.89
839.489	10.64
839.66	38.84
839.831	35.82
840.002	32.69
840.173	24.04
840.344	26.78
840.515	21.51
840.686	28.11
840.857	38.66
841.028	44.32
841.199	40.93
841.369	33.51
841.54	14.14
841.711	15.76
841.882	29.48
842.053	36.59
842.223	30.59
842.394	37.26
842.565	18.71
842.736	20.31
842.906	4.06
843.077	21.35
843.248	39.69
843.418	37.07
843.589	22.98
843.759	50.24
843.93	46.28
844.101	37.38
844.271	58.61
844.442	59.53
844.612	56.08
844.783	51.86
844.953	46.9
845.123	39.08
845.294	43.48
845.464	20.62
845.635	7.52
845.805	12.23
845.975	27.75
846.146	9.26
846.316	20.52
846.486	46.09
846.656	29.96
846.827	17.89
846.997	44.63
847.167	48.1
847.337	36.63
847.507	44.05
847.677	38.87
847.848	43.01
848.018	34.43
848.188	38.16
848.358	27.81
848.528	47.31
848.698	21.28
848.868	32.59
849.038	19.91
849.208	42.56
849.378	36.55
849.548	22.8
849.718	10.1
849.887	-12.51
850.057	-75.61
850.227	-89.14
850.397	-13.46
850.567	-16.41
850.737	19.4
850.906	9.18
851.076	10.58
851.246	-5.15
851.415	-26.81
851.585	-13.78
851.755	35.6
851.924	54.1
852.094	49.06
852.264	48.22
852.433	27.13
852.603	-17.75
852.772	-16.66
852.942	24.37
853.111	15.41
853.281	21.13
853.45	26.8
853.62	24.48
853.789	-7.46
853.959	10.23
854.128	11.33
854.297	15.45
854.467	16.11
854.636	42.57
854.805	43.92
854.975	26.76
855.144	20.92
855.313	12.56
855.482	-39.1
855.652	-76.38
855.821	-61.79
855.99	-33.73
856.159	-29.88
856.328	-14.22
856.497	23.68
856.667	26.19
856.836	37.41
857.005	42.75
857.174	45.48
857.343	9.16
857.512	9.1
857.681	-8.41
857.85	-9.63
858.019	-88.26
858.188	-46.77
858.356	-28.17
858.525	-21.7
858.694	-20.76
858.863	3.14
859.032	-0.13
859.201	-42.78
859.369	-43.25
859.538	-27.52
859.707	-38.35
859.876	6.54
860.044	33.8
860.213	51.91
860.382	61.47
860.55	47.43
860.719	20.95
860.888	17.18
861.056	-11.07
861.225	-37.16
861.393	-2.5
861.562	10.49
861.73	0.37
861.899	1.82
862.067	-11.75
862.236	-31.33
862.404	-35.78
862.572	-52.24
862.741	-83.44
862.909	-56.8
863.078	-32.01
863.246	-24.83
863.414	1.47
863.582	7.28
863.751	-4.25
863.919	8.24
864.087	14.93
864.255	1.3
864.424	-1.82
864.592	27.5
864.76	20.62
864.928	33.01
865.096	19.25
865.264	20.44
865.432	28.58
865.6	52.31
865.768	17.82
865.936	23.59
866.104	34.57
866.272	-60.57
866.44	-80.37
866.608	-57.07
866.776	-43.62
866.944	-6.41
867.112	13.09
867.28	17.28
867.448	29.68
867.615	17.73
867.783	-24.62
867.951	-15.54
868.119	-17.54
868.286	-30.67
868.454	-3.61
868.622	0.37
868.789	7.3
868.957	10.59
869.125	15.89
869.292	-26.96
869.46	7.74
869.627	2.81
869.795	-16.01
869.963	8.15
870.13	24.06
870.298	11.24
870.465	-2.03
870.632	-20.69
870.8	-46.61
870.967	-18.85
871.135	-50.44
871.302	-33.83
871.469	-18.27
871.637	-11.61
871.804	9.9
871.971	0.68
872.139	-5.22
872.306	-38.99
872.473	-69.58
872.64	-182.43
872.807	-120.27
872.975	-164.97
873.142	-20.53
873.309	-2.36
873.476	40.34
873.643	28.18
873.81	-2.46
873.977	-51.87
874.144	-28.09
874.311	-76.83
874.478	-101.96
874.645	-116.42
874.812	-26.36
874.979	-46.81
875.146	-93
875.313	-18.31
875.48	35.04
875.647	25.54
875.813	-34.04
875.98	-29.73
876.147	-123.6
876.314	-148.65
876.481	-144.8
876.647	-33.6
876.814	-16.75
876.981	6.72
877.147	19.1
877.314	26.56
877.481	27.56
877.647	66.23
877.814	51.82
877.98	64.24
878.147	73.69
878.314	86.24
878.48	68.12
878.647	68.7
878.813	88.97
878.979	76.72
879.146	73.39
879.312	79.02
879.479	75.01
879.645	42.58
879.811	2.87
879.978	-10.48
880.144	-32.62
880.31	-25.98
880.477	-14.69
880.643	3.71
880.809	-20.92
880.975	-35.18
881.142	-116.31
881.308	475.91
881.474	746.9
881.64	-189.29
881.806	-204.13
881.972	-87.48
882.138	-21.62
882.304	-17.71
882.47	-6.1
882.636	-29.87
882.802	-61.24
882.968	-58.31
883.134	-11.62
883.3	-24.96
883.466	2.53
883.632	17.29
883.798	-127.53
883.964	-240.49
884.129	-1140.61
884.295	-101.38
884.461	-138.28
884.627	-2.37
884.793	33.32
884.958	35.18
885.124	9.49
885.29	10.58
885.455	-20.03
885.621	-93.88
885.787	-85.33
885.952	-109.72
886.118	-40.92
886.283	-31.82
886.449	-10.09
886.614	5.36
886.78	22.28
886.945	1.57
887.111	-34.22
887.276	-66.07
887.442	-152.87
887.607	-97.52
887.773	-49.68
887.938	-46.08
888.103	-14.61
888.269	25.92
888.434	18.59
888.599	10.96
888.764	37.98
888.93	48.91
889.095	21.54
889.26	9.68
889.425	7.3
889.59	-3.61
889.756	-26.48
889.921	-28.35
890.086	-7.6
890.251	39.72
890.416	-3.07
890.581	-17.65
890.746	17.36
890.911	6.92
891.076	0.63
891.241	4.58
891.406	1.45
891.571	24.57
891.736	78.55
891.901	95.93
892.065	80.44
892.23	118.93
892.395	68
892.56	26.79
892.725	-21.49
892.889	-99.4
893.054	-78.08
893.219	-75.08
893.384	-71.79
893.548	-108.22
893.713	-141.87
893.878	-211.15
