Data from Ofra_2a_PS_1GT37_Reflection_3.txt Node
Date: Tue Jul 20 09:34:15 EDT 2021
User: Adam
Spectrometer: FLMT01687
Trigger mode: 0
Integration Time (sec): 9.450000E-1
Scans to average: 3
Electric dark correction enabled: true
Nonlinearity correction enabled: false
Boxcar width: 3
XAxis mode: Wavelengths
Number of Pixels in Spectrum: 3648
>>>>>Begin Spectral Data<<<<<
179.494	419.53
179.716	278.52
179.937	319.78
180.158	278.13
180.38	-154.65
180.601	-19.33
180.823	-6.85
181.044	39.04
181.265	6.7
181.486	38.32
181.708	-2117.39
181.929	10.7
182.15	-561.36
182.372	93.5
182.593	25
182.814	304.79
183.035	153.31
183.257	63.32
183.478	7.05
183.699	38.98
183.92	39.31
184.141	26.61
184.363	16.41
184.584	17.14
184.805	21.16
185.026	7.82
185.247	-5.02
185.468	1.73
185.689	2.74
185.91	0.22
186.132	9.06
186.353	-2.6
186.574	13.98
186.795	-14.09
187.016	-15.77
187.237	-20.5
187.458	-44.47
187.679	-45.09
187.9	-32.55
188.121	-34.32
188.342	25.93
188.563	16.32
188.784	17.03
189.005	20.94
189.226	18.72
189.447	12.75
189.667	10.53
189.888	6.11
190.109	1.29
190.33	6.7
190.551	15.49
190.772	-2.13
190.993	9.04
191.214	-3.38
191.434	-5.34
191.655	12.35
191.876	14.39
192.097	15.57
192.318	24.71
192.538	14.81
192.759	25.46
192.98	15.37
193.201	33.41
193.421	28.9
193.642	30.78
193.863	7.73
194.083	29.71
194.304	29.22
194.525	47.32
194.745	9.12
194.966	19.16
195.187	17.82
195.407	21.58
195.628	9.82
195.848	5.03
196.069	-8.62
196.29	1.82
196.51	-10.17
196.731	-12.52
196.951	-14.96
197.172	-16.42
197.392	1.26
197.613	0.62
197.833	-5.48
198.054	-10.09
198.274	-26.11
198.495	-21.43
198.715	-18.94
198.936	-27.1
199.156	-20.27
199.377	-9.47
199.597	-7.49
199.817	14.22
200.038	30.57
200.258	26.31
200.479	20.47
200.699	20.52
200.919	-2.09
201.14	6.02
201.36	4.07
201.58	-0.45
201.801	6.5
202.021	13.85
202.241	17.02
202.461	30.86
202.682	31.99
202.902	29.42
203.122	24.47
203.342	41.04
203.563	29.59
203.783	31.49
204.003	31.24
204.223	31.31
204.443	29.38
204.663	31.18
204.884	4.46
205.104	20.03
205.324	17.72
205.544	2.08
205.764	-3.29
205.984	2.68
206.204	0.08
206.424	11.99
206.644	-1.45
206.864	-6.41
207.084	6.52
207.304	-0.7
207.525	-20.87
207.745	-24.31
207.964	-24.36
208.184	-6.99
208.404	-16.6
208.624	-39.67
208.844	-32.95
209.064	-8.8
209.284	1.05
209.504	-11.3
209.724	-46.11
209.944	-35.26
210.164	-19.82
210.384	-22.04
210.604	-45.68
210.823	-52.31
211.043	-37.48
211.263	-11.89
211.483	-2.26
211.703	9.84
211.922	16.38
212.142	29.04
212.362	26.97
212.582	23.16
212.801	20.22
213.021	20.1
213.241	17.13
213.461	15.68
213.68	10.86
213.9	21.74
214.12	15.81
214.339	18.01
214.559	13.88
214.779	17.03
214.998	12.47
215.218	13.56
215.438	20.27
215.657	22.9
215.877	16.99
216.096	17.15
216.316	15.73
216.535	17.79
216.755	4.46
216.974	-8.08
217.194	-4.3
217.413	16.98
217.633	20.27
217.852	9.83
218.072	-3.73
218.291	25.54
218.511	33.31
218.73	33.38
218.95	24.05
219.169	18.92
219.389	7.13
219.608	26.47
219.827	2.38
220.047	-20.75
220.266	-22.65
220.485	-23.72
220.705	-10.42
220.924	-5.24
221.143	-10.7
221.363	-11.19
221.582	-2.67
221.801	14.33
222.021	18.75
222.24	12.44
222.459	5.72
222.678	11.08
222.897	11.49
223.117	13.75
223.336	8.18
223.555	-10.23
223.774	-0.04
223.993	31.38
224.213	18.67
224.432	23.07
224.651	18.79
224.87	20.29
225.089	42.82
225.308	38.14
225.527	21.91
225.746	27.82
225.965	14.29
226.184	9.41
226.404	-6.48
226.623	-0.57
226.842	8.93
227.061	16.25
227.28	33.56
227.499	44.49
227.718	44.36
227.936	39.31
228.155	33.51
228.374	27.6
228.593	18.78
228.812	10.26
229.031	1.24
229.25	10.8
229.469	25.91
229.688	26.78
229.907	17.69
230.125	19.84
230.344	20.27
230.563	13.39
230.782	-5.81
231.001	-16.29
231.22	-22.54
231.438	-10.49
231.657	-0.82
231.876	-4.83
232.095	1.04
232.313	8.35
232.532	11.31
232.751	15.95
232.969	22.27
233.188	16.66
233.407	16.26
233.625	25.28
233.844	35.61
234.063	24.24
234.281	20.35
234.5	14.53
234.719	11.31
234.937	14.82
235.156	-0.52
235.374	-15.94
235.593	-9.11
235.811	-22.58
236.03	-42.21
236.249	-36.23
236.467	-25.3
236.686	-14.53
236.904	-7.86
237.123	-4.59
237.341	9.77
237.559	18.01
237.778	24.76
237.996	19.49
238.215	19.76
238.433	20.81
238.652	17.01
238.87	14.5
239.088	14.45
239.307	15.04
239.525	13.61
239.743	6.66
239.962	4.98
240.18	9.44
240.398	13.76
240.617	24.76
240.835	13.78
241.053	17.17
241.271	29.68
241.49	23.76
241.708	33.45
241.926	17.85
242.144	-1.02
242.363	-0.33
242.581	2.24
242.799	-13.15
243.017	-5.75
243.235	-18.35
243.453	-9.51
243.672	-6.29
243.89	9.75
244.108	2.78
244.326	3.4
244.544	4.06
244.762	5.5
244.98	5.13
245.198	-0.99
245.416	-9.24
245.634	-0.33
245.852	5.78
246.07	5.72
246.288	-1.94
246.506	-1.64
246.724	18.53
246.942	19.84
247.16	2.94
247.378	-1.68
247.596	3.19
247.814	4.87
248.032	6.58
248.25	-3.64
248.468	7.48
248.685	24.66
248.903	30.25
249.121	31.17
249.339	42.08
249.557	36.51
249.775	27.54
249.992	16.7
250.21	5.8
250.428	-3.7
250.646	-7.08
250.863	-18.9
251.081	-21.72
251.299	-9.72
251.517	-11.12
251.734	7.91
251.952	21.16
252.17	10.99
252.387	35.49
252.605	39.11
252.823	24.66
253.04	13.85
253.258	10.04
253.475	15.52
253.693	22.4
253.911	3.28
254.128	-1.96
254.346	7.41
254.563	5.43
254.781	0.18
254.998	-5.85
255.216	-8.87
255.433	-11.7
255.651	-11.98
255.868	-5.66
256.086	0.34
256.303	-4.61
256.521	-12.63
256.738	-16.45
256.956	-10.78
257.173	-6.72
257.39	-9.3
257.608	-9.6
257.825	-6.36
258.043	3.71
258.26	6.05
258.477	10.94
258.695	6.5
258.912	0.44
259.129	4.19
259.346	8.9
259.564	2.81
259.781	12.22
259.998	4.25
260.216	13.54
260.433	7.58
260.65	10.1
260.867	0.07
261.084	6.94
261.302	-4.07
261.519	-4.15
261.736	-5.31
261.953	6.1
262.17	-3.14
262.387	-6.88
262.604	-22.23
262.822	-15.39
263.039	-13.63
263.256	-10.26
263.473	-15.78
263.69	-17.01
263.907	-14.77
264.124	-11.82
264.341	-16.81
264.558	-8.91
264.775	0.52
264.992	4.28
265.209	16.09
265.426	25.08
265.643	27.31
265.86	22.64
266.077	17.66
266.294	6.45
266.51	6.85
266.727	-11.21
266.944	-63.61
267.161	-66.65
267.378	-70
267.595	-67.11
267.812	-64.3
268.028	-55.1
268.245	-46.37
268.462	-8.4
268.679	-9.06
268.896	-8.82
269.112	-4.76
269.329	-1.84
269.546	-12.38
269.763	-7.58
269.979	-9.48
270.196	-3.74
270.413	1.11
270.629	-1.1
270.846	-3.74
271.063	0.39
271.279	6.41
271.496	-7.01
271.712	-13.39
271.929	-13.13
272.146	-11.3
272.362	-19.53
272.579	-20.86
272.795	-35.6
273.012	-14.75
273.228	-7.77
273.445	-4.44
273.661	-6.56
273.878	3.43
274.094	4.96
274.311	11.47
274.527	11.62
274.744	3.01
274.96	-7.78
275.177	-0.62
275.393	-6.95
275.609	5.25
275.826	8.91
276.042	18.25
276.259	15.94
276.475	18.64
276.691	17.72
276.908	19.79
277.124	14.05
277.34	0.05
277.557	-5.3
277.773	3
277.989	13.38
278.205	10.18
278.422	12.24
278.638	16.34
278.854	17.58
279.07	7.57
279.286	1.4
279.503	-6.8
279.719	-0.03
279.935	-9.45
280.151	-11.8
280.367	-7.78
280.583	-3.85
280.799	7.27
281.016	11.89
281.232	4.93
281.448	3.34
281.664	3.01
281.88	7.46
282.096	13.27
282.312	-4.55
282.528	-29.67
282.744	-23.23
282.96	-5.13
283.176	-4.09
283.392	0.54
283.608	6.83
283.824	6.19
284.04	17.72
284.256	22.11
284.471	14.5
284.687	18.99
284.903	3.76
285.119	-12.13
285.335	-3.12
285.551	4.78
285.767	-0.31
285.982	-3.79
286.198	-14.1
286.414	8.92
286.63	13.56
286.846	13.1
287.061	14.02
287.277	11.49
287.493	14.78
287.709	14.77
287.924	16.63
288.14	30.55
288.356	40.14
288.571	24.33
288.787	35.66
289.003	42.94
289.218	38.54
289.434	33.69
289.65	28.03
289.865	24.59
290.081	25.81
290.296	21.31
290.512	17.33
290.727	22.38
290.943	14.04
291.159	-0.95
291.374	-5.17
291.59	-4.3
291.805	-14.74
292.021	-30.16
292.236	-15.91
292.451	-5.86
292.667	2.46
292.882	1.63
293.098	7.66
293.313	8.67
293.529	19.89
293.744	13.3
293.959	18.17
294.175	21.36
294.39	26.12
294.605	26.1
294.821	27.65
295.036	22.39
295.251	16.15
295.467	1.7
295.682	6.65
295.897	3.3
296.112	-1.64
296.328	-2.74
296.543	-9.43
296.758	-20.07
296.973	-21.7
297.188	-22.81
297.404	-15.39
297.619	-17.4
297.834	-7.55
298.049	-1.1
298.264	12.01
298.479	6.36
298.694	6.28
298.909	-9.21
299.125	-9.91
299.34	-13.92
299.555	-11.93
299.77	-16.18
299.985	-15.19
300.2	-21.74
300.415	-7.57
300.63	-8.25
300.845	-6.92
301.06	-12.75
301.275	-6.72
301.49	3.07
301.704	8.94
301.919	0.98
302.134	-4.34
302.349	-9.99
302.564	-10.78
302.779	-11.26
302.994	-20.59
303.209	-20.21
303.423	0.46
303.638	21.33
303.853	30.1
304.068	43.37
304.283	38.67
304.497	43.93
304.712	44.02
304.927	24.14
305.142	23.29
305.356	25.49
305.571	23.48
305.786	20.81
306	23.16
306.215	15.82
306.43	30.39
306.644	27.37
306.859	22.99
307.074	20.83
307.288	24.68
307.503	18.57
307.717	14.77
307.932	18.48
308.147	12.36
308.361	9.08
308.576	10.82
308.79	3.59
309.005	7.58
309.219	14.44
309.434	6.68
309.648	0.97
309.863	11.19
310.077	10.16
310.292	14.06
310.506	22.11
310.72	12.85
310.935	13.19
311.149	21.41
311.364	24.67
311.578	16.24
311.792	13.46
312.007	6.59
312.221	11.01
312.435	12.5
312.649	9.75
312.864	-11.12
313.078	3.86
313.292	14.01
313.507	20.06
313.721	22.58
313.935	37.07
314.149	33.46
314.363	33.37
314.578	36.29
314.792	31.25
315.006	20.86
315.22	22.84
315.434	16.03
315.648	11.43
315.862	13.45
316.077	12.93
316.291	20.31
316.505	28.28
316.719	21.59
316.933	21.64
317.147	21.13
317.361	25.55
317.575	31.13
317.789	19.23
318.003	15.73
318.217	15.49
318.431	12.62
318.645	12.94
318.859	6.73
319.073	-0.08
319.287	9.22
319.5	12.82
319.714	13.1
319.928	12.28
320.142	13.18
320.356	27.65
320.57	29.67
320.784	19.05
320.997	20.94
321.211	22.41
321.425	15.55
321.639	20.88
321.853	8.93
322.066	9.73
322.28	16.87
322.494	16.89
322.707	15.18
322.921	27.87
323.135	34.67
323.349	36.02
323.562	37.71
323.776	35.31
323.989	30.7
324.203	34.87
324.417	25.91
324.63	11.43
324.844	-0.69
325.057	-2.35
325.271	-13.99
325.485	-14.24
325.698	-18.94
325.912	-12.04
326.125	-9.53
326.339	5.35
326.552	7.81
326.766	19.29
326.979	21.5
327.193	22.13
327.406	27.47
327.619	16.43
327.833	13.52
328.046	11.25
328.26	8.11
328.473	17.03
328.686	13.52
328.9	1.73
329.113	12.68
329.326	20.66
329.54	19.08
329.753	19.41
329.966	14.52
330.179	22.94
330.393	26.01
330.606	27.78
330.819	26.11
331.032	25.29
331.246	27.18
331.459	24.96
331.672	17.32
331.885	12.58
332.098	11.55
332.311	-12.85
332.525	0.54
332.738	1.09
332.951	-5.19
333.164	-12.35
333.377	-15.99
333.59	-20.28
333.803	-2.65
334.016	-33.87
334.229	-40.37
334.442	-18.08
334.655	-5.35
334.868	7.92
335.081	13.12
335.294	7.63
335.507	19.12
335.72	13.49
335.933	5.05
336.146	-2.18
336.359	-9.1
336.572	-14.44
336.785	-4.21
336.997	-5.43
337.21	1.94
337.423	-1.95
337.636	5.58
337.849	5.9
338.062	13.86
338.274	6.84
338.487	4.92
338.7	5.43
338.913	6.18
339.125	1.06
339.338	8.88
339.551	7.19
339.763	5.2
339.976	7.27
340.189	1.55
340.402	1.99
340.614	6.99
340.827	-5.79
341.039	-3.01
341.252	5.82
341.465	-3.26
341.677	-7.41
341.89	2.15
342.102	-0.3
342.315	11.42
342.527	3.69
342.74	1.72
342.952	6.21
343.165	25.42
343.377	20.78
343.59	24.67
343.802	28.68
344.015	32.27
344.227	22.45
344.44	19.94
344.652	10.29
344.864	5.18
345.077	-4.77
345.289	-13.19
345.502	-16.88
345.714	-26.3
345.926	-23.79
346.139	-21.56
346.351	-41.21
346.563	-28.04
346.775	-33.11
346.988	-28.81
347.2	-10.17
347.412	-2.44
347.624	-2.69
347.837	16.35
348.049	13.99
348.261	18.28
348.473	18.37
348.685	20.41
348.897	23.74
349.11	26.32
349.322	16.9
349.534	19.74
349.746	18.22
349.958	19.18
350.17	23.35
350.382	12.92
350.594	18.01
350.806	21.36
351.018	27.14
351.23	26.71
351.442	25.59
351.654	22.48
351.866	27.05
352.078	24.01
352.29	26.49
352.502	15.26
352.714	14.73
352.926	12.43
353.138	6.37
353.35	-2.71
353.561	-4.22
353.773	-7.47
353.985	-6.23
354.197	-10.4
354.409	-9.61
354.621	-1.09
354.832	-5.02
355.044	-0.15
355.256	-4.26
355.468	-10.56
355.679	-4.3
355.891	-6.67
356.103	-9.56
356.314	3.12
356.526	-3.63
356.738	-7.28
356.949	-0.78
357.161	-10.19
357.373	-8.32
357.584	-2.03
357.796	-10.13
358.008	-0.96
358.219	12.66
358.431	13.2
358.642	19.46
358.854	20.25
359.065	17.08
359.277	12.84
359.488	10.97
359.7	13.47
359.911	8.87
360.123	14.78
360.334	14.77
360.546	6.86
360.757	12.28
360.969	15.28
361.18	-2.25
361.391	10.17
361.603	9.93
361.814	10.9
362.025	14.27
362.237	14.52
362.448	18.2
362.659	23.88
362.871	13.37
363.082	9.03
363.293	9.82
363.504	12.79
363.716	17.33
363.927	13.16
364.138	23.09
364.349	29.39
364.56	32.83
364.772	31.48
364.983	23.62
365.194	23.01
365.405	16.14
365.616	2.16
365.827	-0.35
366.038	6.38
366.25	11.49
366.461	21.76
366.672	20.79
366.883	33.79
367.094	38.08
367.305	36.94
367.516	30.6
367.727	23.32
367.938	24.03
368.149	19.57
368.36	11.7
368.571	7.41
368.781	4.32
368.992	6.75
369.203	14.44
369.414	5.3
369.625	8.75
369.836	7.1
370.047	5.49
370.258	-7.83
370.468	-16.98
370.679	-28.07
370.89	-11.14
371.101	-15.96
371.312	-16.16
371.522	-11.31
371.733	-1.24
371.944	0.56
372.155	-1.62
372.365	-12.03
372.576	-15.8
372.787	-21.06
372.997	-30.29
373.208	-23.17
373.419	-18.83
373.629	-8.82
373.84	-9.6
374.05	-0.85
374.261	6.15
374.472	13.13
374.682	6.41
374.893	-2.44
375.103	1.5
375.314	2.83
375.524	-1.27
375.735	-6.96
375.945	-11.65
376.156	-5.85
376.366	-3.42
376.577	-5.88
376.787	-5.54
376.997	-1.47
377.208	0.47
377.418	6.3
377.629	4.55
377.839	13.82
378.049	19.86
378.26	22.1
378.47	23.13
378.68	20.97
378.89	19.17
379.101	15.84
379.311	6.36
379.521	6.48
379.732	-4.83
379.942	-4.96
380.152	4.31
380.362	5.43
380.572	13.85
380.783	15.01
380.993	13.5
381.203	20.73
381.413	20.87
381.623	19.24
381.833	18.1
382.043	5.64
382.253	6.24
382.463	5.06
382.674	6.1
382.884	1.05
383.094	1
383.304	1.65
383.514	9.48
383.724	7.21
383.934	5.07
384.144	3.81
384.353	2.37
384.563	-0.61
384.773	0.38
384.983	-0.8
385.193	5.3
385.403	6.5
385.613	5.3
385.823	8.37
386.033	9.84
386.242	8.36
386.452	7.57
386.662	5.66
386.872	2.45
387.082	2.48
387.291	1.86
387.501	1.76
387.711	3.32
387.921	3.47
388.13	3.12
388.34	3.56
388.55	4.6
388.759	4.71
388.969	3.17
389.179	4.91
389.388	6.26
389.598	6.27
389.807	8.07
390.017	9.46
390.227	8.36
390.436	7.52
390.646	6.11
390.855	3.64
391.065	1.92
391.274	0.52
391.484	0.7
391.693	0.47
391.903	2.36
392.112	2.01
392.322	4.03
392.531	5.07
392.74	4.86
392.95	4.12
393.159	5.52
393.369	4.87
393.578	5.59
393.787	5.34
393.997	6.58
394.206	6.12
394.415	5.88
394.625	4.05
394.834	3.76
395.043	3.12
395.252	3.41
395.462	2.39
395.671	3.04
395.88	3.09
396.089	3.87
396.298	4.57
396.508	4.57
396.717	3.78
396.926	3.62
397.135	3.12
397.344	2.94
397.553	3.03
397.762	2.63
397.971	2.33
398.181	2.75
398.39	2.78
398.599	3.64
398.808	3.83
399.017	4.17
399.226	4.31
399.435	4.67
399.644	4.4
399.853	4.42
400.062	4
400.27	4.21
400.479	3.95
400.688	3.88
400.897	4.2
401.106	4.55
401.315	4.64
401.524	4.97
401.733	4.95
401.941	4.85
402.15	4.75
402.359	4.48
402.568	4.39
402.777	4.28
402.985	4.04
403.194	3.93
403.403	3.83
403.612	3.93
403.82	3.93
404.029	3.86
404.238	3.92
404.446	3.95
404.655	3.9
404.864	3.94
405.072	3.93
405.281	3.78
405.489	3.85
405.698	3.79
405.906	3.7
406.115	3.79
406.324	3.83
406.532	3.87
406.741	3.96
406.949	3.89
407.158	3.94
407.366	4
407.574	4.04
407.783	4.02
407.991	3.91
408.2	3.83
408.408	3.85
408.617	3.84
408.825	3.81
409.033	3.64
409.242	3.63
409.45	3.68
409.658	3.69
409.867	3.65
410.075	3.57
410.283	3.56
410.491	3.58
410.7	3.64
410.908	3.66
411.116	3.66
411.324	3.67
411.533	3.67
411.741	3.64
411.949	3.68
412.157	3.6
412.365	3.63
412.573	3.66
412.781	3.62
412.99	3.69
413.198	3.72
413.406	3.67
413.614	3.7
413.822	3.66
414.03	3.58
414.238	3.64
414.446	3.58
414.654	3.57
414.862	3.53
415.07	3.57
415.278	3.49
415.486	3.57
415.694	3.48
415.902	3.41
416.109	3.46
416.317	3.48
416.525	3.44
416.733	3.5
416.941	3.45
417.149	3.53
417.357	3.62
417.564	3.54
417.772	3.52
417.98	3.41
418.188	3.31
418.395	3.29
418.603	3.13
418.811	3.04
419.019	3.02
419.226	3.1
419.434	3.12
419.642	3.13
419.849	3.15
420.057	3.28
420.265	3.38
420.472	3.31
420.68	3.24
420.887	3.28
421.095	3.32
421.302	3.29
421.51	3.24
421.717	3.15
421.925	3.12
422.132	3.08
422.34	3.04
422.547	3.02
422.755	3.02
422.962	2.96
423.17	3
423.377	3.08
423.585	3.11
423.792	3.03
423.999	3.03
424.207	2.95
424.414	3.08
424.621	3.2
424.829	3.14
425.036	3.17
425.243	3.32
425.451	3.33
425.658	3.49
425.865	3.3
426.072	3.23
426.28	3.31
426.487	3.25
426.694	3.18
426.901	3.14
427.108	3.07
427.315	3.15
427.523	3.05
427.73	3.04
427.937	3.08
428.144	3.08
428.351	3.13
428.558	3.07
428.765	3.06
428.972	3.1
429.179	3.03
429.386	3.08
429.593	3.07
429.8	3.19
430.007	3.23
430.214	3.29
430.421	3.33
430.628	3.27
430.835	3.24
431.042	3.26
431.249	3.18
431.456	3.24
431.662	3.22
431.869	3.24
432.076	3.34
432.283	3.25
432.49	3.26
432.697	3.26
432.903	3.28
433.11	3.26
433.317	3.31
433.524	3.25
433.73	3.41
433.937	3.33
434.144	3.41
434.35	3.36
434.557	3.42
434.764	3.3
434.97	3.37
435.177	3.35
435.384	3.52
435.59	3.45
435.797	3.45
436.003	3.4
436.21	3.42
436.416	3.39
436.623	3.47
436.829	3.46
437.036	3.5
437.242	3.51
437.449	3.62
437.655	3.65
437.862	3.66
438.068	3.68
438.275	3.6
438.481	3.66
438.687	3.7
438.894	3.62
439.1	3.64
439.307	3.7
439.513	3.61
439.719	3.69
439.926	3.66
440.132	3.65
440.338	3.74
440.544	3.78
440.751	3.76
440.957	3.74
441.163	3.71
441.369	3.7
441.575	3.74
441.782	3.68
441.988	3.69
442.194	3.74
442.4	3.82
442.606	3.86
442.812	3.89
443.018	3.88
443.224	3.93
443.431	3.92
443.637	3.85
443.843	3.91
444.049	3.87
444.255	3.84
444.461	3.85
444.667	3.87
444.873	3.86
445.079	3.9
445.284	3.82
445.49	3.84
445.696	3.89
445.902	3.98
446.108	4
446.314	4.04
446.52	4.07
446.726	4.15
446.931	4.15
447.137	4.14
447.343	4.08
447.549	4.04
447.755	4.03
447.96	4.04
448.166	4.03
448.372	4.06
448.578	4.11
448.783	4.1
448.989	4.18
449.195	4.24
449.4	4.21
449.606	4.26
449.812	4.3
450.017	4.3
450.223	4.27
450.428	4.24
450.634	4.21
450.84	4.23
451.045	4.18
451.251	4.23
451.456	4.17
451.662	4.21
451.867	4.22
452.073	4.2
452.278	4.23
452.483	4.18
452.689	4.1
452.894	4.09
453.1	4.06
453.305	4.07
453.51	4.06
453.716	4.03
453.921	4.06
454.127	4.09
454.332	4.12
454.537	4.22
454.742	4.22
454.948	4.25
455.153	4.28
455.358	4.31
455.563	4.3
455.769	4.27
455.974	4.25
456.179	4.22
456.384	4.23
456.589	4.23
456.795	4.19
457	4.24
457.205	4.3
457.41	4.29
457.615	4.38
457.82	4.44
458.025	4.44
458.23	4.47
458.435	4.4
458.64	4.4
458.845	4.39
459.05	4.42
459.255	4.37
459.46	4.38
459.665	4.48
459.87	4.52
460.075	4.54
460.28	4.56
460.485	4.52
460.69	4.48
460.895	4.51
461.099	4.46
461.304	4.45
461.509	4.38
461.714	4.44
461.919	4.41
462.123	4.46
462.328	4.46
462.533	4.45
462.738	4.48
462.942	4.57
463.147	4.53
463.352	4.59
463.556	4.67
463.761	4.67
463.966	4.69
464.17	4.7
464.375	4.69
464.58	4.69
464.784	4.71
464.989	4.67
465.193	4.73
465.398	4.76
465.602	4.75
465.807	4.77
466.011	4.85
466.216	4.83
466.42	4.84
466.625	4.82
466.829	4.82
467.034	4.91
467.238	4.93
467.443	4.92
467.647	4.93
467.851	4.9
468.056	4.88
468.26	4.86
468.464	4.85
468.669	4.85
468.873	4.85
469.077	4.9
469.282	4.95
469.486	4.98
469.69	5.01
469.894	5.03
470.099	5.1
470.303	5.11
470.507	5.13
470.711	5.13
470.915	5.19
471.119	5.19
471.324	5.14
471.528	5.1
471.732	5.13
471.936	5.13
472.14	5.18
472.344	5.19
472.548	5.25
472.752	5.33
472.956	5.41
473.16	5.39
473.364	5.35
473.568	5.33
473.772	5.39
473.976	5.39
474.18	5.36
474.384	5.33
474.588	5.39
474.792	5.42
474.995	5.46
475.199	5.43
475.403	5.42
475.607	5.49
475.811	5.5
476.015	5.51
476.218	5.56
476.422	5.58
476.626	5.57
476.83	5.57
477.033	5.58
477.237	5.61
477.441	5.66
477.644	5.68
477.848	5.7
478.052	5.78
478.255	5.83
478.459	5.84
478.663	5.83
478.866	5.81
479.07	5.85
479.273	5.79
479.477	5.82
479.681	5.83
479.884	5.8
480.088	5.86
480.291	5.86
480.495	5.87
480.698	5.87
480.901	5.86
481.105	5.85
481.308	5.89
481.512	5.86
481.715	5.87
481.919	5.84
482.122	5.93
482.325	5.94
482.529	6.03
482.732	6.04
482.935	6.07
483.138	6.12
483.342	6.16
483.545	6.12
483.748	6.13
483.952	6.13
484.155	6.13
484.358	6.11
484.561	6.12
484.764	6.12
484.967	6.15
485.171	6.11
485.374	6.1
485.577	6.15
485.78	6.18
485.983	6.17
486.186	6.15
486.389	6.14
486.592	6.18
486.795	6.16
486.998	6.13
487.201	6.14
487.404	6.19
487.607	6.19
487.81	6.23
488.013	6.22
488.216	6.28
488.419	6.26
488.622	6.23
488.825	6.22
489.028	6.2
489.231	6.21
489.433	6.23
489.636	6.19
489.839	6.2
490.042	6.2
490.245	6.2
490.447	6.21
490.65	6.23
490.853	6.24
491.056	6.23
491.258	6.26
491.461	6.25
491.664	6.23
491.866	6.28
492.069	6.26
492.272	6.21
492.474	6.24
492.677	6.24
492.879	6.27
493.082	6.29
493.285	6.31
493.487	6.32
493.69	6.34
493.892	6.34
494.095	6.29
494.297	6.35
494.5	6.38
494.702	6.35
494.905	6.36
495.107	6.36
495.309	6.34
495.512	6.39
495.714	6.36
495.917	6.34
496.119	6.37
496.321	6.36
496.524	6.37
496.726	6.41
496.928	6.44
497.13	6.48
497.333	6.51
497.535	6.51
497.737	6.51
497.939	6.57
498.142	6.56
498.344	6.53
498.546	6.56
498.748	6.56
498.95	6.54
499.152	6.53
499.355	6.49
499.557	6.52
499.759	6.59
499.961	6.57
500.163	6.57
500.365	6.61
500.567	6.66
500.769	6.7
500.971	6.7
501.173	6.67
501.375	6.65
501.577	6.67
501.779	6.7
501.981	6.69
502.183	6.69
502.385	6.7
502.587	6.71
502.788	6.72
502.99	6.74
503.192	6.74
503.394	6.77
503.596	6.79
503.798	6.85
503.999	6.87
504.201	6.91
504.403	6.9
504.605	6.91
504.806	6.92
505.008	6.94
505.21	6.89
505.411	6.94
505.613	6.94
505.815	6.97
506.016	7
506.218	6.97
506.42	7.01
506.621	7.05
506.823	7.03
507.024	7.05
507.226	7.03
507.427	7.05
507.629	7.08
507.83	7.07
508.032	7.09
508.233	7.12
508.435	7.12
508.636	7.17
508.838	7.18
509.039	7.23
509.24	7.24
509.442	7.23
509.643	7.2
509.845	7.23
510.046	7.23
510.247	7.28
510.448	7.29
510.65	7.34
510.851	7.34
511.052	7.39
511.254	7.39
511.455	7.4
511.656	7.34
511.857	7.38
512.058	7.39
512.26	7.45
512.461	7.47
512.662	7.46
512.863	7.48
513.064	7.48
513.265	7.48
513.466	7.52
513.667	7.48
513.868	7.47
514.069	7.52
514.27	7.55
514.471	7.6
514.672	7.6
514.873	7.57
515.074	7.62
515.275	7.61
515.476	7.62
515.677	7.62
515.878	7.64
516.079	7.68
516.28	7.65
516.481	7.61
516.682	7.64
516.882	7.63
517.083	7.66
517.284	7.64
517.485	7.65
517.686	7.7
517.886	7.75
518.087	7.77
518.288	7.77
518.488	7.78
518.689	7.81
518.89	7.85
519.091	7.88
519.291	7.89
519.492	7.89
519.692	7.96
519.893	7.97
520.094	8
520.294	7.94
520.495	7.94
520.695	7.94
520.896	7.94
521.096	7.92
521.297	7.92
521.497	7.93
521.698	7.96
521.898	7.97
522.099	7.98
522.299	8.02
522.499	8.01
522.7	8.03
522.9	8.02
523.101	8.04
523.301	8.04
523.501	8.05
523.702	8.04
523.902	8.07
524.102	8.08
524.302	8.11
524.503	8.12
524.703	8.16
524.903	8.21
525.103	8.21
525.304	8.21
525.504	8.23
525.704	8.2
525.904	8.22
526.104	8.25
526.304	8.24
526.504	8.25
526.705	8.26
526.905	8.28
527.105	8.32
527.305	8.27
527.505	8.27
527.705	8.29
527.905	8.3
528.105	8.31
528.305	8.29
528.505	8.27
528.705	8.32
528.905	8.3
529.105	8.31
529.304	8.32
529.504	8.34
529.704	8.36
529.904	8.43
530.104	8.4
530.304	8.46
530.503	8.47
530.703	8.51
530.903	8.52
531.103	8.52
531.303	8.54
531.502	8.56
531.702	8.55
531.902	8.55
532.101	8.55
532.301	8.56
532.501	8.57
532.7	8.56
532.9	8.58
533.1	8.58
533.299	8.62
533.499	8.67
533.698	8.7
533.898	8.72
534.097	8.73
534.297	8.75
534.496	8.75
534.696	8.73
534.895	8.75
535.095	8.74
535.294	8.75
535.494	8.78
535.693	8.81
535.892	8.89
536.092	8.91
536.291	8.9
536.491	8.91
536.69	8.92
536.889	8.91
537.088	8.93
537.288	8.93
537.487	8.97
537.686	9
537.886	9.02
538.085	9.09
538.284	9.13
538.483	9.15
538.682	9.18
538.882	9.2
539.081	9.23
539.28	9.24
539.479	9.26
539.678	9.29
539.877	9.31
540.076	9.33
540.275	9.37
540.474	9.38
540.673	9.42
540.872	9.43
541.071	9.44
541.27	9.49
541.469	9.52
541.668	9.56
541.867	9.59
542.066	9.63
542.265	9.66
542.464	9.69
542.663	9.75
542.862	9.77
543.06	9.8
543.259	9.83
543.458	9.87
543.657	9.91
543.856	9.97
544.054	9.96
544.253	9.98
544.452	9.96
544.651	9.99
544.849	10.01
545.048	10.04
545.247	10.02
545.445	10.06
545.644	10.12
545.843	10.2
546.041	10.21
546.24	10.27
546.438	10.35
546.637	10.42
546.836	10.49
547.034	10.55
547.233	10.61
547.431	10.67
547.63	10.74
547.828	10.74
548.027	10.78
548.225	10.81
548.423	10.85
548.622	10.89
548.82	10.97
549.019	10.98
549.217	11.09
549.415	11.15
549.614	11.2
549.812	11.23
550.01	11.28
550.209	11.35
550.407	11.42
550.605	11.48
550.803	11.54
551.002	11.63
551.2	11.72
551.398	11.8
551.596	11.86
551.794	11.91
551.993	11.97
552.191	12.09
552.389	12.14
552.587	12.19
552.785	12.28
552.983	12.32
553.181	12.4
553.379	12.48
553.577	12.55
553.775	12.6
553.973	12.7
554.171	12.71
554.369	12.8
554.567	12.89
554.765	12.9
554.963	12.92
555.161	13.01
555.359	13.09
555.557	13.19
555.755	13.26
555.952	13.35
556.15	13.47
556.348	13.59
556.546	13.7
556.744	13.77
556.941	13.87
557.139	14.04
557.337	14.12
557.535	14.27
557.732	14.37
557.93	14.45
558.128	14.54
558.325	14.64
558.523	14.67
558.721	14.8
558.918	14.86
559.116	14.9
559.313	14.99
559.511	15.1
559.708	15.16
559.906	15.26
560.104	15.35
560.301	15.45
560.498	15.6
560.696	15.7
560.893	15.83
561.091	15.97
561.288	16.1
561.486	16.2
561.683	16.31
561.88	16.4
562.078	16.51
562.275	16.59
562.473	16.68
562.67	16.76
562.867	16.81
563.064	16.92
563.262	17.07
563.459	17.18
563.656	17.31
563.853	17.47
564.051	17.57
564.248	17.71
564.445	17.78
564.642	17.86
564.839	18.03
565.036	18.13
565.234	18.17
565.431	18.28
565.628	18.4
565.825	18.51
566.022	18.62
566.219	18.64
566.416	18.75
566.613	18.88
566.81	19
567.007	19.09
567.204	19.2
567.401	19.32
567.598	19.39
567.795	19.42
567.991	19.51
568.188	19.53
568.385	19.65
568.582	19.77
568.779	19.84
568.976	19.99
569.172	20.12
569.369	20.16
569.566	20.27
569.763	20.39
569.96	20.46
570.156	20.5
570.353	20.49
570.55	20.55
570.746	20.67
570.943	20.79
571.14	20.76
571.336	20.84
571.533	20.98
571.729	21.09
571.926	21.11
572.123	21.16
572.319	21.15
572.516	21.22
572.712	21.21
572.909	21.25
573.105	21.33
573.302	21.39
573.498	21.41
573.695	21.49
573.891	21.56
574.087	21.62
574.284	21.62
574.48	21.58
574.677	21.64
574.873	21.74
575.069	21.77
575.266	21.8
575.462	21.78
575.658	21.85
575.854	21.91
576.051	21.94
576.247	21.88
576.443	21.9
576.639	21.92
576.835	21.95
577.032	21.95
577.228	21.94
577.424	21.97
577.62	21.98
577.816	21.94
578.012	21.98
578.208	22.03
578.404	22.05
578.6	22.1
578.796	22.1
578.993	22.15
579.189	22.16
579.384	22.1
579.58	22.14
579.776	22.06
579.972	22.07
580.168	22.03
580.364	22
580.56	22.03
580.756	22.06
580.952	22.03
581.148	22.06
581.343	22.01
581.539	22.01
581.735	22.01
581.931	22.03
582.127	22.01
582.322	21.97
582.518	21.96
582.714	21.97
582.909	21.96
583.105	21.94
583.301	21.88
583.496	21.87
583.692	21.88
583.888	21.91
584.083	21.89
584.279	21.91
584.474	21.88
584.67	21.94
584.866	21.97
585.061	21.98
585.257	21.95
585.452	21.97
585.648	21.98
585.843	22.03
586.039	22
586.234	21.93
586.429	21.9
586.625	21.89
586.82	21.87
587.015	21.83
587.211	21.87
587.406	21.93
587.601	22
587.797	22.06
587.992	22.09
588.187	22.12
588.383	22.15
588.578	22.13
588.773	22.1
588.968	22.15
589.163	22.15
589.359	22.12
589.554	22.18
589.749	22.23
589.944	22.29
590.139	22.35
590.334	22.32
590.529	22.39
590.724	22.49
590.919	22.53
591.114	22.58
591.309	22.62
591.504	22.65
591.699	22.7
591.894	22.76
592.089	22.8
592.284	22.79
592.479	22.87
592.674	22.92
592.869	22.97
593.064	23.08
593.259	23.08
593.454	23.09
593.648	23.2
593.843	23.25
594.038	23.3
594.233	23.38
594.428	23.43
594.622	23.5
594.817	23.62
595.012	23.67
595.206	23.71
595.401	23.76
595.596	23.82
595.79	23.9
595.985	24.05
596.18	24.11
596.374	24.23
596.569	24.33
596.763	24.44
596.958	24.51
597.153	24.58
597.347	24.57
597.542	24.71
597.736	24.77
597.931	24.85
598.125	24.93
598.319	25.04
598.514	25.13
598.708	25.24
598.903	25.23
599.097	25.3
599.291	25.34
599.486	25.36
599.68	25.4
599.874	25.47
600.069	25.52
600.263	25.59
600.457	25.69
600.651	25.8
600.846	25.85
601.04	25.85
601.234	25.9
601.428	25.91
601.622	25.96
601.817	25.96
602.011	25.97
602.205	26.06
602.399	26.11
602.593	26.11
602.787	26.19
602.981	26.22
603.175	26.2
603.369	26.17
603.563	26.18
603.757	26.17
603.951	26.17
604.145	26.11
604.339	26.1
604.533	26.13
604.727	26.16
604.921	26.07
605.115	26.1
605.309	26.07
605.502	26.09
605.696	26.05
605.89	26.02
606.084	26
606.278	26.01
606.471	25.9
606.665	25.83
606.859	25.71
607.053	25.66
607.246	25.59
607.44	25.47
607.634	25.41
607.827	25.39
608.021	25.39
608.214	25.39
608.408	25.3
608.602	25.27
608.795	25.21
608.989	25.13
609.182	25.07
609.376	24.98
609.569	24.93
609.763	24.91
609.956	24.78
610.15	24.77
610.343	24.75
610.537	24.65
610.73	24.64
610.923	24.55
611.117	24.45
611.31	24.41
611.504	24.33
611.697	24.24
611.89	24.19
612.083	24.07
612.277	23.93
612.47	23.89
612.663	23.83
612.856	23.69
613.05	23.61
613.243	23.57
613.436	23.49
613.629	23.48
613.822	23.39
614.015	23.32
614.209	23.33
614.402	23.25
614.595	23.13
614.788	23.01
614.981	22.95
615.174	22.87
615.367	22.78
615.56	22.67
615.753	22.61
615.946	22.62
616.139	22.64
616.332	22.62
616.525	22.56
616.718	22.51
616.911	22.46
617.103	22.41
617.296	22.36
617.489	22.29
617.682	22.22
617.875	22.17
618.067	22.13
618.26	22.02
618.453	21.95
618.646	21.83
618.838	21.77
619.031	21.69
619.224	21.69
619.417	21.65
619.609	21.68
619.802	21.68
619.994	21.61
620.187	21.58
620.38	21.56
620.572	21.53
620.765	21.48
620.957	21.42
621.15	21.37
621.342	21.36
621.535	21.33
621.727	21.31
621.92	21.25
622.112	21.28
622.305	21.28
622.497	21.21
622.69	21.2
622.882	21.17
623.074	21.13
623.267	21.11
623.459	21.03
623.651	21.01
623.844	21.02
624.036	21.03
624.228	21
624.42	20.96
624.613	20.95
624.805	20.97
624.997	20.98
625.189	20.96
625.381	20.92
625.574	20.91
625.766	20.87
625.958	20.85
626.15	20.82
626.342	20.75
626.534	20.74
626.726	20.73
626.918	20.68
627.11	20.71
627.302	20.64
627.494	20.61
627.686	20.6
627.878	20.57
628.07	20.54
628.262	20.52
628.454	20.44
628.646	20.39
628.838	20.3
629.029	20.18
629.221	20.12
629.413	20.05
629.605	19.98
629.797	19.97
629.989	19.96
630.18	19.93
630.372	19.97
630.564	19.92
630.755	19.9
630.947	19.85
631.139	19.77
631.33	19.77
631.522	19.77
631.714	19.74
631.905	19.68
632.097	19.66
632.289	19.67
632.48	19.64
632.672	19.57
632.863	19.5
633.055	19.43
633.246	19.45
633.438	19.44
633.629	19.42
633.821	19.48
634.012	19.48
634.203	19.49
634.395	19.51
634.586	19.51
634.777	19.46
634.969	19.43
635.16	19.34
635.351	19.34
635.543	19.32
635.734	19.29
635.925	19.29
636.117	19.29
636.308	19.27
636.499	19.28
636.69	19.33
636.881	19.34
637.073	19.33
637.264	19.29
637.455	19.26
637.646	19.26
637.837	19.26
638.028	19.21
638.219	19.21
638.41	19.15
638.601	19.12
638.792	19.12
638.983	19.08
639.174	19.05
639.365	18.98
639.556	18.92
639.747	18.91
639.938	18.95
640.129	18.95
640.32	18.94
640.511	18.93
640.701	18.97
640.892	18.94
641.083	18.94
641.274	18.9
641.465	18.88
641.655	18.9
641.846	18.85
642.037	18.84
642.228	18.83
642.418	18.83
642.609	18.75
642.8	18.69
642.99	18.69
643.181	18.7
643.372	18.63
643.562	18.64
643.753	18.62
643.943	18.66
644.134	18.67
644.324	18.64
644.515	18.59
644.705	18.6
644.896	18.51
645.086	18.48
645.277	18.48
645.467	18.41
645.658	18.37
645.848	18.37
646.038	18.34
646.229	18.38
646.419	18.37
646.61	18.29
646.8	18.26
646.99	18.28
647.18	18.24
647.371	18.18
647.561	18.15
647.751	18.11
647.941	18.06
648.132	18.11
648.322	18.07
648.512	18.02
648.702	18.07
648.892	18.04
649.082	17.99
649.272	18.01
649.462	17.96
649.653	17.94
649.843	17.91
650.033	17.85
650.223	17.85
650.413	17.89
650.603	17.88
650.793	17.79
650.983	17.76
651.172	17.74
651.362	17.68
651.552	17.64
651.742	17.5
651.932	17.43
652.122	17.41
652.312	17.29
652.502	17.25
652.691	17.18
652.881	17.1
653.071	17.07
653.261	16.93
653.45	16.87
653.64	16.82
653.83	16.66
654.019	16.48
654.209	16.32
654.399	16.23
654.588	16.17
654.778	16.03
654.968	15.92
655.157	15.79
655.347	15.72
655.536	15.57
655.726	15.45
655.915	15.34
656.105	15.2
656.294	15.03
656.484	14.94
656.673	14.81
656.863	14.67
657.052	14.48
657.241	14.32
657.431	14.14
657.62	13.95
657.809	13.81
657.999	13.66
658.188	13.5
658.377	13.35
658.567	13.19
658.756	13.05
658.945	12.89
659.134	12.7
659.324	12.5
659.513	12.36
659.702	12.15
659.891	11.93
660.08	11.77
660.269	11.63
660.458	11.49
660.648	11.38
660.837	11.2
661.026	11.1
661.215	11.01
661.404	10.88
661.593	10.74
661.782	10.63
661.971	10.47
662.16	10.32
662.349	10.12
662.538	9.99
662.726	9.78
662.915	9.67
663.104	9.46
663.293	9.34
663.482	9.19
663.671	9.11
663.86	8.99
664.048	8.93
664.237	8.82
664.426	8.77
664.615	8.67
664.803	8.6
664.992	8.56
665.181	8.48
665.369	8.39
665.558	8.29
665.747	8.28
665.935	8.27
666.124	8.23
666.312	8.1
666.501	8.01
666.69	7.95
666.878	7.95
667.067	7.86
667.255	7.81
667.444	7.76
667.632	7.72
667.82	7.67
668.009	7.63
668.197	7.51
668.386	7.44
668.574	7.4
668.762	7.36
668.951	7.37
669.139	7.37
669.327	7.35
669.516	7.32
669.704	7.35
669.892	7.29
670.08	7.29
670.269	7.3
670.457	7.34
670.645	7.38
670.833	7.44
671.021	7.41
671.21	7.43
671.398	7.41
671.586	7.36
671.774	7.3
671.962	7.31
672.15	7.32
672.338	7.35
672.526	7.41
672.714	7.44
672.902	7.49
673.09	7.54
673.278	7.52
673.466	7.61
673.654	7.59
673.842	7.6
674.03	7.66
674.218	7.7
674.405	7.79
674.593	7.82
674.781	7.82
674.969	7.88
675.157	7.95
675.344	8
675.532	8.1
675.72	8.15
675.908	8.28
676.095	8.37
676.283	8.43
676.471	8.46
676.658	8.6
676.846	8.65
677.033	8.71
677.221	8.71
677.409	8.76
677.596	8.86
677.784	8.94
677.971	8.97
678.159	9.08
678.346	9.14
678.534	9.31
678.721	9.37
678.909	9.41
679.096	9.48
679.283	9.57
679.471	9.61
679.658	9.69
679.846	9.72
680.033	9.82
680.22	9.95
680.408	10.13
680.595	10.23
680.782	10.31
680.969	10.43
681.157	10.58
681.344	10.7
681.531	10.77
681.718	10.79
681.905	10.87
682.093	11.01
682.28	11.21
682.467	11.26
682.654	11.38
682.841	11.62
683.028	11.91
683.215	12.09
683.402	12.28
683.589	12.45
683.776	12.73
683.963	12.92
684.15	13.13
684.337	13.27
684.524	13.55
684.711	13.8
684.898	14.03
685.085	14.24
685.271	14.54
685.458	14.83
685.645	15.08
685.832	15.39
686.019	15.68
686.205	15.98
686.392	16.33
686.579	16.64
686.766	16.96
686.952	17.42
687.139	17.72
687.326	18.18
687.512	18.51
687.699	18.9
687.886	19.32
688.072	19.76
688.259	20.15
688.445	20.62
688.632	21.1
688.818	21.62
689.005	22.25
689.191	22.84
689.378	23.26
689.564	23.76
689.751	24.39
689.937	24.88
690.124	25.45
690.31	25.78
690.496	26.28
690.683	26.96
690.869	27.56
691.055	28.07
691.242	28.59
691.428	29.19
691.614	30
691.8	30.72
691.987	31.37
692.173	32.06
692.359	32.76
692.545	33.47
692.731	34.24
692.918	34.83
693.104	35.35
693.29	35.98
693.476	36.56
693.662	37.28
693.848	37.88
694.034	38.49
694.22	39.13
694.406	39.89
694.592	40.57
694.778	41.27
694.964	41.9
695.15	42.63
695.336	43.29
695.522	44.04
695.708	44.68
695.894	45.36
696.08	45.94
696.265	46.6
696.451	47.36
696.637	47.94
696.823	48.51
697.009	49.12
697.194	49.78
697.38	50.43
697.566	50.99
697.751	51.54
697.937	52.13
698.123	52.74
698.308	53.35
698.494	53.73
698.68	54.34
698.865	55
699.051	55.36
699.236	55.95
699.422	56.55
699.607	57.01
699.793	57.64
699.978	57.95
700.164	58.32
700.349	58.82
700.535	59.22
700.72	59.44
700.906	59.82
701.091	60.22
701.276	60.53
701.462	61.01
701.647	61.46
701.832	61.87
702.018	62.44
702.203	62.78
702.388	63.05
702.573	63.68
702.759	64
702.944	64.34
703.129	64.7
703.314	65.08
703.499	65.59
703.684	66.16
703.87	66.4
704.055	66.75
704.24	67.03
704.425	67.41
704.61	67.59
704.795	67.79
704.98	67.92
705.165	68.34
705.35	68.45
705.535	68.99
705.72	69.1
705.905	69.33
706.09	69.56
706.275	69.71
706.459	70.02
706.644	70.34
706.829	70.39
707.014	70.5
707.199	70.58
707.384	70.93
707.568	71.07
707.753	71.1
707.938	71.35
708.123	71.29
708.307	71.76
708.492	72.11
708.677	72.43
708.861	72.83
709.046	72.92
709.231	73.02
709.415	73.42
709.6	73.32
709.784	73.49
709.969	73.63
710.153	73.78
710.338	74.14
710.522	74.36
710.707	74.23
710.891	74.58
711.076	74.71
711.26	74.65
711.445	74.6
711.629	74.93
711.813	74.92
711.998	75.07
712.182	75.27
712.366	75.6
712.551	75.74
712.735	76.06
712.919	75.99
713.103	76.25
713.288	76.62
713.472	76.66
713.656	76.57
713.84	76.54
714.024	76.59
714.208	76.52
714.393	76.59
714.577	76.83
714.761	76.98
714.945	76.99
715.129	77.26
715.313	77.43
715.497	77.67
715.681	77.89
715.865	78.13
716.049	78.21
716.233	78.41
716.417	78.57
716.601	78.75
716.785	78.81
716.968	78.95
717.152	78.68
717.336	78.75
717.52	78.88
717.704	78.92
717.888	78.84
718.071	78.89
718.255	78.9
718.439	78.93
718.622	79.02
718.806	78.99
718.99	79.13
719.174	79.16
719.357	79.27
719.541	79.4
719.724	79.53
719.908	79.42
720.092	79.66
720.275	79.94
720.459	79.86
720.642	80
720.826	79.94
721.009	79.86
721.193	79.92
721.376	79.72
721.559	79.55
721.743	79.82
721.926	79.61
722.11	79.68
722.293	79.64
722.476	79.5
722.66	79.65
722.843	79.65
723.026	79.63
723.21	79.74
723.393	79.95
723.576	80.12
723.759	80.72
723.942	80.8
724.126	80.63
724.309	80.75
724.492	80.95
724.675	80.78
724.858	81.31
725.041	81.12
725.224	81.19
725.407	81.3
725.59	81.46
725.774	81.67
725.957	81.81
726.14	81.63
726.322	81.66
726.505	81.88
726.688	82.15
726.871	82.06
727.054	81.97
727.237	81.64
727.42	81.71
727.603	81.74
727.786	81.88
727.968	82.19
728.151	82.31
728.334	82.52
728.517	82.97
728.699	83.25
728.882	83.45
729.065	83.44
729.248	82.94
729.43	83.01
729.613	83.19
729.796	83.34
729.978	83.31
730.161	83.42
730.343	83.36
730.526	83.83
730.708	84.23
730.891	83.89
731.073	84.01
731.256	84.21
731.438	84.66
731.621	85.18
731.803	85.3
731.986	85.2
732.168	85.41
732.35	85.49
732.533	85.5
732.715	85.55
732.898	85.39
733.08	85.57
733.262	85.63
733.444	85.73
733.627	85.64
733.809	85.59
733.991	85.35
734.173	85.03
734.355	85.22
734.538	85.3
734.72	85.65
734.902	85.47
735.084	85.58
735.266	85.86
735.448	86.35
735.63	85.94
735.812	85.98
735.994	85.92
736.176	86.22
736.358	86.32
736.54	86.05
736.722	85.92
736.904	86.4
737.086	86.48
737.268	86.44
737.45	86.68
737.632	86.45
737.814	86.57
737.995	86.67
738.177	86.85
738.359	87.05
738.541	86.79
738.723	86.96
738.904	86.81
739.086	86.71
739.268	87.31
739.449	87.09
739.631	87.01
739.813	87.09
739.994	87.21
740.176	87.94
740.358	87.83
740.539	86.91
740.721	86.62
740.902	86.4
741.084	86.66
741.265	86.51
741.447	86.05
741.628	86.16
741.81	86.6
741.991	86.83
742.172	86.6
742.354	86.79
742.535	86.58
742.717	86.96
742.898	87.43
743.079	87.57
743.261	87.63
743.442	88.26
743.623	87.8
743.804	87.85
743.986	87.5
744.167	87.28
744.348	87.15
744.529	86.6
744.71	86.47
744.891	86.77
745.073	86.94
745.254	86.99
745.435	86.63
745.616	86.43
745.797	86.48
745.978	86.62
746.159	86.63
746.34	86.96
746.521	87.09
746.702	87.07
746.883	87.43
747.064	87.51
747.245	87.87
747.426	88.23
747.606	87.61
747.787	88.03
747.968	88.89
748.149	89.05
748.33	89.58
748.51	88.59
748.691	87.95
748.872	87.8
749.053	87.13
749.233	86.93
749.414	86.53
749.595	86.26
749.775	86.56
749.956	86.59
750.137	86.8
750.317	86.68
750.498	86.74
750.678	86.58
750.859	86.79
751.04	86.68
751.22	86.16
751.4	86.33
751.581	86.63
751.761	86.26
751.942	86.36
752.122	86.15
752.303	86.14
752.483	87.1
752.663	87.78
752.844	87.4
753.024	87.8
753.204	87.81
753.385	86.98
753.565	87.3
753.745	86.06
753.925	85.24
754.106	85.78
754.286	85.5
754.466	85.78
754.646	86.14
754.826	85.88
755.006	85.88
755.187	86.17
755.367	85.85
755.547	86.22
755.727	86.04
755.907	86.13
756.087	86.71
756.267	87.5
756.447	86.83
756.627	87.24
756.807	87.07
756.987	86.86
757.167	86.89
757.346	86.15
757.526	86.16
757.706	86.27
757.886	86.2
758.066	85.24
758.246	85.19
758.425	85.78
758.605	85.6
758.785	85.87
758.965	85.03
759.144	84.76
759.324	85.11
759.504	85.33
759.683	84.72
759.863	84.88
760.043	84.41
760.222	84.92
760.402	85.46
760.581	85.52
760.761	84.83
760.94	84.42
761.12	84.62
761.299	84.18
761.479	85.05
761.658	84.25
761.838	84.89
762.017	85.69
762.197	86.58
762.376	87.31
762.555	88.7
762.735	87.8
762.914	87.77
763.093	86.7
763.273	86.04
763.452	85.55
763.631	84.08
763.81	83.38
763.99	83.54
764.169	83.35
764.348	83.46
764.527	83.59
764.706	83.77
764.885	85.41
765.064	85.25
765.243	84.97
765.423	85.42
765.602	85.3
765.781	85.35
765.96	85.22
766.139	83.74
766.318	84.38
766.497	85.14
766.676	85.68
766.854	85.74
767.033	84.91
767.212	84.38
767.391	84.85
767.57	83.98
767.749	83.65
767.928	82.54
768.106	82.84
768.285	83.47
768.464	84.32
768.643	84.32
768.821	84.64
769	84.65
769.179	83.83
769.357	83.61
769.536	82.79
769.715	82.22
769.893	81.88
770.072	80.96
770.25	81.16
770.429	82.68
770.607	83.18
770.786	84.53
770.964	84.13
771.143	83.58
771.321	84.01
771.5	83.44
771.678	82.36
771.857	81.01
772.035	80.51
772.213	80.7
772.392	81.87
772.57	81.99
772.748	82.28
772.927	82.99
773.105	83.9
773.283	82.58
773.461	82.46
773.64	80.74
773.818	79.96
773.996	79.43
774.174	79.72
774.352	79.61
774.531	80.05
774.709	81.03
774.887	81.78
775.065	81.82
775.243	82.71
775.421	81.56
775.599	80.98
775.777	82.52
775.955	81
776.133	80.61
776.311	80.24
776.489	79.31
776.667	79.5
776.844	79.37
777.022	77.54
777.2	78.11
777.378	78.24
777.556	79.44
777.734	79.68
777.911	79.58
778.089	79.13
778.267	79.43
778.445	79.02
778.622	78.56
778.8	78.8
778.978	78.84
779.155	78.45
779.333	78.93
779.511	79.78
779.688	78.88
779.866	79.84
780.043	78.71
780.221	78.27
780.398	79.59
780.576	78.77
780.753	77.65
780.931	78.72
781.108	79.32
781.286	78.92
781.463	78.45
781.64	77
781.818	78.55
781.995	80.02
782.172	79.56
782.35	78.85
782.527	79.94
782.704	80.5
782.882	82.11
783.059	80.07
783.236	78.4
783.413	79.43
783.59	78.01
783.768	76.96
783.945	77.73
784.122	76.32
784.299	76.83
784.476	77.52
784.653	77.1
784.83	77.22
785.007	78.01
785.184	77.03
785.361	77.44
785.538	79.01
785.715	79.02
785.892	77.29
786.069	77.28
786.246	76.15
786.423	77
786.6	77.05
786.776	76.46
786.953	76.22
787.13	77.78
787.307	78.94
787.484	80.02
787.66	79
787.837	80.8
788.014	80.3
788.191	80.23
788.367	79.28
788.544	79.29
788.721	79.2
788.897	79.45
789.074	77.11
789.25	77.36
789.427	77.22
789.603	79.05
789.78	79.6
789.956	79.37
790.133	78.43
790.309	76.93
790.486	78.75
790.662	78.85
790.839	78.85
791.015	77.28
791.192	77.71
791.368	80.61
791.544	82.72
791.721	79.17
791.897	80.55
792.073	79.36
792.249	80.61
792.426	80.3
792.602	78.22
792.778	77.43
792.954	78.95
793.13	78.19
793.307	76.57
793.483	76.57
793.659	76.86
793.835	76.38
794.011	77.64
794.187	74.6
794.363	74.78
794.539	75.64
794.715	72.21
794.891	68.58
795.067	69.34
795.243	67.02
795.419	71.04
795.595	68.25
795.771	70.06
795.947	70.84
796.122	73.5
796.298	73.18
796.474	76.05
796.65	75.57
796.826	79.86
797.001	78.93
797.177	78.75
797.353	80.47
797.529	81.21
797.704	79.95
797.88	78.33
798.056	77.34
798.231	77.17
798.407	79.65
798.582	80.24
798.758	78.5
798.934	78.99
799.109	78
799.285	76.67
799.46	76.92
799.636	76.37
799.811	75.3
799.986	77.33
800.162	75.31
800.337	74.79
800.513	74.53
800.688	74.27
800.863	73.62
801.039	70.22
801.214	67.16
801.389	66.3
801.565	69.97
801.74	69.95
801.915	69.48
802.09	68.89
802.265	71.96
802.441	73.72
802.616	75.19
802.791	75.27
802.966	74.41
803.141	74.22
803.316	76.89
803.491	70.21
803.666	70.6
803.841	69.54
804.016	64.98
804.191	65.84
804.366	65.68
804.541	64.57
804.716	70.11
804.891	72.48
805.066	75.37
805.241	78.24
805.416	79.09
805.591	79.7
805.765	78.88
805.94	80.52
806.115	75.58
806.29	76.86
806.464	72.56
806.639	71.49
806.814	69.76
806.989	68.36
807.163	68.36
807.338	68.72
807.512	61.87
807.687	65.63
807.862	63.09
808.036	59.21
808.211	62.22
808.385	57.94
808.56	61.78
808.734	64.8
808.909	63.97
809.083	66.04
809.258	74.69
809.432	70.33
809.606	71.87
809.781	66.66
809.955	69.36
810.13	68.26
810.304	66.22
810.478	63.19
810.652	67.95
810.827	69.85
811.001	72.01
811.175	66.47
811.349	64.1
811.524	66.64
811.698	65.99
811.872	64.3
812.046	62.82
812.22	63.2
812.394	65.59
812.568	71.32
812.742	68.06
812.916	65.79
813.09	62.83
813.264	60.91
813.438	66.17
813.612	63.21
813.786	62.67
813.96	63.86
814.134	67.22
814.308	66.23
814.482	71.5
814.656	65.81
814.83	68.13
815.003	69.66
815.177	71.75
815.351	71.56
815.525	72.81
815.698	68.14
815.872	70.4
816.046	69.99
816.219	70.59
816.393	66.09
816.567	63.89
816.74	69.55
816.914	71.98
817.088	65.5
817.261	67.94
817.435	63.06
817.608	64.73
817.782	67.26
817.955	58.6
818.129	57.54
818.302	61.45
818.475	56.85
818.649	58.13
818.822	64.64
818.996	59.8
819.169	65.8
819.342	63.5
819.516	63.23
819.689	64.65
819.862	60.31
820.035	54.84
820.209	55.02
820.382	49.01
820.555	52.32
820.728	45.88
820.901	48.74
821.075	50.7
821.248	51.17
821.421	52.99
821.594	55.53
821.767	53.99
821.94	59.22
822.113	59.07
822.286	60.28
822.459	67.64
822.632	70.75
822.805	69.45
822.978	63.92
823.151	65.34
823.324	57.21
823.496	52.64
823.669	50.33
823.842	49.82
824.015	46.56
824.188	55.72
824.361	46.83
824.533	50.95
824.706	60.69
824.879	55.75
825.051	58.85
825.224	62.02
825.397	57.18
825.569	59.96
825.742	60.11
825.915	59.82
826.087	56.14
826.26	53.97
826.432	57.38
826.605	53.49
826.777	50.46
826.95	50.49
827.122	53.32
827.295	60.98
827.467	55.98
827.64	41.72
827.812	41.97
827.984	48.68
828.157	49.29
828.329	44.92
828.501	35.88
828.674	36.58
828.846	49.87
829.018	50.33
829.19	47.34
829.363	50.66
829.535	50.42
829.707	53.7
829.879	55.91
830.051	55.53
830.223	53
830.395	54.06
830.568	62.34
830.74	58.18
830.912	59.08
831.084	56.8
831.256	54.81
831.428	53.69
831.6	54.53
831.772	44.1
831.943	53.15
832.115	56.08
832.287	53.24
832.459	54.54
832.631	58.42
832.803	58.63
832.975	57.32
833.146	46.82
833.318	46.59
833.49	63.33
833.662	55.85
833.833	62.39
834.005	62.83
834.177	61.76
834.348	61.13
834.52	55.71
834.692	51.49
834.863	50.42
835.035	43.03
835.206	31.77
835.378	30.87
835.549	42.5
835.721	43.7
835.892	35.38
836.064	44.45
836.235	49.9
836.407	52.2
836.578	57.19
836.749	55.08
836.921	53.72
837.092	66.54
837.264	59.7
837.435	45.79
837.606	51.64
837.777	36.65
837.949	31.09
838.12	27.71
838.291	33.08
838.462	42.18
838.633	50.87
838.805	44.78
838.976	50.82
839.147	51.15
839.318	52.03
839.489	41.36
839.66	41.4
839.831	33.92
840.002	30.51
840.173	36.16
840.344	39.06
840.515	43.14
840.686	49.55
840.857	41.9
841.028	50.99
841.199	54.2
841.369	48.28
841.54	45.7
841.711	50.83
841.882	46.64
842.053	45.19
842.223	31.29
842.394	38.85
842.565	47.26
842.736	45.18
842.906	39.33
843.077	42.26
843.248	44.43
843.418	47.54
843.589	56.53
843.759	55.07
843.93	59.37
844.101	63.99
844.271	64.57
844.442	60.29
844.612	63.9
844.783	43.46
844.953	43.15
845.123	47.3
845.294	42.32
845.464	42.5
845.635	31.1
845.805	35.63
845.975	44.28
846.146	36.41
846.316	44.58
846.486	45.95
846.656	59.31
846.827	78.09
846.997	87.93
847.167	79.27
847.337	89.28
847.507	81.17
847.677	83.92
847.848	76.12
848.018	71.04
848.188	50.66
848.358	63.47
848.528	45.04
848.698	33.03
848.868	26.68
849.038	16.91
849.208	34.14
849.378	38.11
849.548	39.5
849.718	43.99
849.887	28.07
850.057	16.25
850.227	31.11
850.397	13.22
850.567	18.84
850.737	15.12
850.906	8.19
851.076	11.76
851.246	41.53
851.415	44.63
851.585	41.9
851.755	42.19
851.924	53.92
852.094	62.78
852.264	68.85
852.433	61.45
852.603	65.31
852.772	60.75
852.942	54.47
853.111	44.8
853.281	44.97
853.45	37.42
853.62	30.27
853.789	33.56
853.959	37.16
854.128	22.63
854.297	20.12
854.467	25.28
854.636	45.57
854.805	53.84
854.975	46.14
855.144	45.35
855.313	65.82
855.482	61.18
855.652	56.76
855.821	61.23
855.99	65.7
856.159	61.78
856.328	55.97
856.497	48.47
856.667	48.99
856.836	40.59
857.005	30.37
857.174	28.77
857.343	26.53
857.512	24.53
857.681	11.93
857.85	12.7
858.019	30.03
858.188	33.86
858.356	20.31
858.525	24.97
858.694	32.26
858.863	43.57
859.032	42.72
859.201	19.55
859.369	25.15
859.538	29.46
859.707	37.71
859.876	42.9
860.044	34.84
860.213	24.23
860.382	33.07
860.55	44.59
860.719	46.59
860.888	40.34
861.056	35.43
861.225	60.97
861.393	58.07
861.562	64.67
861.73	48.63
861.899	47.09
862.067	38.88
862.236	36.51
862.404	29.54
862.572	37.29
862.741	33.53
862.909	34.54
863.078	32.11
863.246	45.99
863.414	49.68
863.582	47.22
863.751	49.05
863.919	55.69
864.087	46.41
864.255	35.88
864.424	35.17
864.592	41.22
864.76	44.81
864.928	45.59
865.096	37.29
865.264	45.52
865.432	49.07
865.6	36.83
865.768	32.09
865.936	23.96
866.104	16.39
866.272	29.6
866.44	4.07
866.608	19.01
866.776	44.43
866.944	21.65
867.112	-0.07
867.28	-32.08
867.448	-1.83
867.615	12.92
867.783	-16.51
867.951	-52.14
868.119	-1.16
868.286	1.85
868.454	20.66
868.622	12.36
868.789	43.94
868.957	64.35
869.125	72.47
869.292	66.12
869.46	75.87
869.627	85.54
869.795	65.64
869.963	48.58
870.13	47.69
870.298	24.51
870.465	16.18
870.632	11.23
870.8	17.06
870.967	18.11
871.135	15.65
871.302	13.02
871.469	5.75
871.637	0.92
871.804	19.03
871.971	18.77
872.139	26.38
872.306	17.35
872.473	4.11
872.64	29.17
872.807	25.5
872.975	34.38
873.142	16.15
873.309	2.09
873.476	51.69
873.643	108.76
873.81	65.73
873.977	44.71
874.144	3.62
874.311	19.88
874.478	6.31
874.645	13.28
874.812	25.71
874.979	13.24
875.146	-6.09
875.313	-32.02
875.48	-5.12
875.647	-78.69
875.813	-95.75
875.98	-103.03
876.147	-28.6
876.314	-12.98
876.481	-19.71
876.647	1.9
876.814	30.02
876.981	25.61
877.147	23.16
877.314	4.71
877.481	28.02
877.647	37.95
877.814	26.96
877.98	28.8
878.147	42.85
878.314	46.92
878.48	72.23
878.647	68.53
878.813	53.61
878.979	64.05
879.146	43.3
879.312	27.54
879.479	17.67
879.645	-12.92
879.811	-22.66
879.978	8.04
880.144	-7.25
880.31	-3.26
880.477	5.48
880.643	63.82
880.809	115.37
880.975	41.82
881.142	19.58
881.308	25.81
881.474	63.41
881.64	16.87
881.806	16.26
881.972	28.83
882.138	36.81
882.304	19.3
882.47	20.49
882.636	-51.25
882.802	-98.67
882.968	-188.93
883.134	-416.26
883.3	-101.3
883.466	-32.33
883.632	-45.03
883.798	-7.28
883.964	10.72
884.129	38.57
884.295	43.98
884.461	0.41
884.627	-33.97
884.793	6.43
884.958	-24.15
885.124	-31.02
885.29	-24.88
885.455	-18.65
885.621	0.41
885.787	2.43
885.952	-13.51
886.118	-7.75
886.283	13.82
886.449	-19.28
886.614	-21.19
886.78	1.61
886.945	1.51
887.111	16.23
887.276	27.11
887.442	22.65
887.607	47.02
887.773	25
887.938	5.41
888.103	25.75
888.269	17.99
888.434	15.89
888.599	22.8
888.764	16.5
888.93	24.23
889.095	3.4
889.26	16.06
889.425	14.79
889.59	5.66
889.756	-15.29
889.921	-21.15
890.086	-31.28
890.251	-20.45
890.416	-84.62
890.581	-67.44
890.746	-99.91
890.911	-155.18
891.076	-198.27
891.241	-243.23
891.406	-84.99
891.571	-81.97
891.736	-80.27
891.901	-19.57
892.065	1.46
892.23	9.34
892.395	-4.33
892.56	-14.25
892.725	-1.32
892.889	-6.53
893.054	-75.73
893.219	-119.44
893.384	-210.2
893.548	-495
893.713	896.04
893.878	486.41
