Data from Ofra_PS_T2_1A_4HS13_Reflection_1.txt Node
Date: Wed Jul 21 18:06:11 EDT 2021
User: Adam
Spectrometer: FLMT01687
Trigger mode: 0
Integration Time (sec): 1.100000E0
Scans to average: 2
Electric dark correction enabled: true
Nonlinearity correction enabled: false
Boxcar width: 2
XAxis mode: Wavelengths
Number of Pixels in Spectrum: 3648
>>>>>Begin Spectral Data<<<<<
179.494	466
179.716	539.76
179.937	501.92
180.158	542.87
180.38	929.69
180.601	415.75
180.823	168.67
181.044	110.66
181.265	98.9
181.486	19.17
181.708	49.77
181.929	-43.88
182.15	102.11
182.372	166.39
182.593	81.71
182.814	52.24
183.035	87.74
183.257	89.33
183.478	3.94
183.699	21.37
183.92	-18.21
184.141	-20.89
184.363	-110.59
184.584	-34.08
184.805	13.6
185.026	51.6
185.247	58.88
185.468	42.17
185.689	45.63
185.91	13.95
186.132	5.56
186.353	-6.07
186.574	57.26
186.795	36.25
187.016	-1.25
187.237	-15.65
187.458	-38.6
187.679	-66.33
187.9	-38.97
188.121	-30.82
188.342	-31.96
188.563	11.41
188.784	39.16
189.005	42.49
189.226	93
189.447	64.78
189.667	-130.83
189.888	-386.95
190.109	-1631.82
190.33	-982.9
190.551	-1462.39
190.772	-283.17
190.993	-210.38
191.214	-172.16
191.434	-94.13
191.655	-47.06
191.876	-107.55
192.097	-135.23
192.318	-152.97
192.538	-224.19
192.759	-107.78
192.98	-3.59
193.201	5.15
193.421	15.93
193.642	37.59
193.863	44.77
194.083	19.15
194.304	8.58
194.525	10.2
194.745	-19.77
194.966	-44.44
195.187	-69.06
195.407	-75.76
195.628	-123.56
195.848	-113.51
196.069	-128.62
196.29	-69.91
196.51	-78.03
196.731	-79.01
196.951	-93.48
197.172	-114
197.392	-146.47
197.613	-157.12
197.833	-175.61
198.054	-161.24
198.274	-92.14
198.495	-93.21
198.715	-62.48
198.936	-91.22
199.156	-45.33
199.377	-148.99
199.597	-114.99
199.817	-114.56
200.038	-43.87
200.258	-131.06
200.479	-47.79
200.699	-103.8
200.919	-32.8
201.14	-51.56
201.36	-51.73
201.58	-12.52
201.801	23.49
202.021	-10.41
202.241	-20.02
202.461	-23.88
202.682	-136.27
202.902	-224.93
203.122	-129.55
203.342	-91.63
203.563	-49.76
203.783	-8.6
204.003	-43.5
204.223	-44.08
204.443	10.69
204.663	3.32
204.884	26.39
205.104	61.23
205.324	54.05
205.544	24.76
205.764	44.64
205.984	33.39
206.204	32.03
206.424	14.91
206.644	-16.28
206.864	-7.61
207.084	-75.15
207.304	-58.01
207.525	-175.16
207.745	-74.2
207.964	-56.67
208.184	-88.83
208.404	-117.85
208.624	-99.2
208.844	-112.49
209.064	-421.54
209.284	-391.58
209.504	-212.66
209.724	-52.28
209.944	-19.88
210.164	17.45
210.384	32.11
210.604	31.52
210.823	-24.26
211.043	-53.67
211.263	-27.04
211.483	-36.54
211.703	-91.06
211.922	-42.03
212.142	24.94
212.362	22.36
212.582	17.53
212.801	32.04
213.021	-17.07
213.241	-54.94
213.461	-74.15
213.68	-98.05
213.9	-77.07
214.12	-30.06
214.339	-73.14
214.559	-68.44
214.779	-20.2
214.998	-17.69
215.218	-92.03
215.438	-61.91
215.657	-57.62
215.877	-70.13
216.096	-28.84
216.316	1.77
216.535	-0.66
216.755	-4.97
216.974	-43.47
217.194	-111.16
217.413	-98.13
217.633	-87.86
217.852	-187.62
218.072	-92.01
218.291	-41.13
218.511	-3.28
218.73	-32.26
218.95	-17.63
219.169	-25.98
219.389	-76.39
219.608	-65.6
219.827	-69.21
220.047	-65.29
220.266	-45.43
220.485	-34.11
220.705	-32.15
220.924	-16.61
221.143	8.66
221.363	-10.33
221.582	2.24
221.801	0.03
222.021	7.14
222.24	-60.27
222.459	-41.22
222.678	-58.86
222.897	-109.57
223.117	-164.99
223.336	-109.1
223.555	-48.39
223.774	-5.64
223.993	7.62
224.213	80.86
224.432	58.59
224.651	64.23
224.87	30.76
225.089	42.32
225.308	25.09
225.527	39.27
225.746	25.51
225.965	16.87
226.184	-6.09
226.404	6.97
226.623	-23.31
226.842	-3.69
227.061	31.19
227.28	28.85
227.499	10.61
227.718	27.03
227.936	14.35
228.155	16.34
228.374	12.71
228.593	26.27
228.812	30.34
229.031	16.33
229.25	-31.36
229.469	-24.78
229.688	-40.53
229.907	-23.5
230.125	-7.34
230.344	-1.61
230.563	-3.46
230.782	28.99
231.001	-31.58
231.22	-37.52
231.438	-7.75
231.657	-9.18
231.876	-34.69
232.095	8.14
232.313	11.19
232.532	-18.46
232.751	-18.85
232.969	-39.87
233.188	-110.6
233.407	-34.83
233.625	-25.32
233.844	-51.19
234.063	-23.31
234.281	2.46
234.5	-11.87
234.719	2.68
234.937	22.84
235.156	20.38
235.374	28.39
235.593	24.23
235.811	-4.06
236.03	-6.23
236.249	-32.56
236.467	-27.8
236.686	-1.82
236.904	17.54
237.123	-12.09
237.341	-8.18
237.559	-13.74
237.778	-40.6
237.996	-66.76
238.215	-23.84
238.433	-6.15
238.652	-4.77
238.87	-16.35
239.088	4.56
239.307	5.81
239.525	-13.83
239.743	-48.37
239.962	-24.78
240.18	-59.13
240.398	-100.34
240.617	-87.66
240.835	-51.31
241.053	-47.71
241.271	22.66
241.49	34.41
241.708	10.62
241.926	-17.65
242.144	-6.28
242.363	-78.54
242.581	-99.71
242.799	-47.84
243.017	-14
243.235	-27.01
243.453	-13.28
243.672	-8.24
243.89	-7.75
244.108	-31.55
244.326	-8.36
244.544	-17.64
244.762	-24.53
244.98	-17.71
245.198	9.38
245.416	-26.5
245.634	-18.94
245.852	-24.68
246.07	-48.51
246.288	-73.42
246.506	-105.37
246.724	-64.03
246.942	-52.68
247.16	-27.8
247.378	-12.64
247.596	11.71
247.814	-13.19
248.032	-35.34
248.25	-47.97
248.468	-26.62
248.685	-27.54
248.903	3.29
249.121	15.71
249.339	-5.35
249.557	-32.06
249.775	-16.99
249.992	-76.26
250.21	-79.28
250.428	-61.57
250.646	-86.27
250.863	-103.42
251.081	-69.62
251.299	-64.76
251.517	-38.19
251.734	-6.6
251.952	-11.27
252.17	-12.31
252.387	-3.23
252.605	-14.21
252.823	-18.47
253.04	-10.01
253.258	5.49
253.475	-2.19
253.693	25.35
253.911	35.22
254.128	50.25
254.346	45.47
254.563	18.76
254.781	-11.22
254.998	-43.03
255.216	-63.62
255.433	-34.35
255.651	6.76
255.868	27.87
256.086	51.69
256.303	32.94
256.521	6.22
256.738	-19.01
256.956	-39.24
257.173	-68.16
257.39	-65.31
257.608	-75.73
257.825	-12.24
258.043	7
258.26	18.4
258.477	54.95
258.695	47.82
258.912	-1.58
259.129	12.58
259.346	-15.45
259.564	-50
259.781	-60.82
259.998	-3.72
260.216	19.09
260.433	44.37
260.65	42.51
260.867	49.36
261.084	2.37
261.302	-33.32
261.519	-27.23
261.736	-64.48
261.953	-88.2
262.17	-46.32
262.387	-92.57
262.604	-117.89
262.822	-102.57
263.039	-62.38
263.256	-78.65
263.473	-18.41
263.69	-0.38
263.907	25.04
264.124	32.2
264.341	27.45
264.558	21.8
264.775	20.17
264.992	22.81
265.209	10
265.426	33.42
265.643	32.63
265.86	49.69
266.077	30.53
266.294	27.33
266.51	-31.23
266.727	-31.63
266.944	-36.89
267.161	-19.4
267.378	-19.42
267.595	16.08
267.812	-22.93
268.028	-55.59
268.245	-63.06
268.462	-63.25
268.679	-71.81
268.896	-0.49
269.112	18.39
269.329	12.86
269.546	20.78
269.763	11.25
269.979	-14.29
270.196	-24.52
270.413	-46.85
270.629	-78.08
270.846	-72.15
271.063	-59.43
271.279	-70.96
271.496	-62.4
271.712	-15.28
271.929	-8.3
272.146	-39.62
272.362	-25.32
272.579	-5.2
272.795	8.17
273.012	4.8
273.228	-0.19
273.445	-21.62
273.661	-35.74
273.878	-86.77
274.094	-66.29
274.311	-64.24
274.527	1.19
274.744	-2.06
274.96	7.19
275.177	14.56
275.393	33.73
275.609	19.41
275.826	40.05
276.042	33.78
276.259	4.74
276.475	21.28
276.691	24.4
276.908	3
277.124	18.91
277.34	28.82
277.557	5.18
277.773	-6.45
277.989	-7.73
278.205	-15.44
278.422	3.16
278.638	6.28
278.854	28.98
279.07	31.63
279.286	22.48
279.503	-4.31
279.719	-24.75
279.935	-62.98
280.151	-73.61
280.367	-53.14
280.583	-87.65
280.799	-64.39
281.016	-102.82
281.232	-50.47
281.448	-50.37
281.664	-3.58
281.88	-34.29
282.096	15.18
282.312	17.66
282.528	21.49
282.744	25.58
282.96	47.68
283.176	30.53
283.392	26.65
283.608	19.95
283.824	10.68
284.04	7.27
284.256	7.49
284.471	-9.1
284.687	-22.56
284.903	-12.29
285.119	31.21
285.335	8.47
285.551	21.16
285.767	11.59
285.982	-5.44
286.198	-74.23
286.414	-9.06
286.63	-4.63
286.846	21.52
287.061	-5.12
287.277	32.93
287.493	-9.36
287.709	1.72
287.924	-16.84
288.14	27.54
288.356	24.74
288.571	52.95
288.787	28.19
289.003	25.64
289.218	0.02
289.434	-50.39
289.65	-43.03
289.865	-49.69
290.081	-19.2
290.296	-21.22
290.512	14.04
290.727	-25.13
290.943	-6.37
291.159	-32.6
291.374	-27.6
291.59	-55.5
291.805	-35.5
292.021	-32.17
292.236	-17.68
292.451	-2.77
292.667	9.23
292.882	19.62
293.098	11.86
293.313	1.43
293.529	-18.16
293.744	-39.43
293.959	-54.15
294.175	-52.32
294.39	-26.08
294.605	-4.73
294.821	24.8
295.036	34.53
295.251	40.95
295.467	14.08
295.682	-8.14
295.897	-62.03
296.112	-80.2
296.328	-69.04
296.543	-75.5
296.758	-56.91
296.973	-23.03
297.188	33.97
297.404	5.2
297.619	-2.32
297.834	-27.24
298.049	-49.9
298.264	-102.57
298.479	-29.31
298.694	-20.32
298.909	18.13
299.125	26.47
299.34	36.71
299.555	-9.08
299.77	1.77
299.985	-55.08
300.2	-101.62
300.415	-122.99
300.63	-80.36
300.845	-68.04
301.06	-65.77
301.275	-28.53
301.49	-8.21
301.704	-11
301.919	-30.69
302.134	-32.09
302.349	-42.9
302.564	-110.92
302.779	-117.3
302.994	-124.53
303.209	-77.52
303.423	-24.8
303.638	38.18
303.853	-0.55
304.068	16.71
304.283	17.06
304.497	5.12
304.712	-3.02
304.927	3.81
305.142	2.5
305.356	1.26
305.571	-2.08
305.786	-19.09
306	-24.01
306.215	-23.48
306.43	-33.71
306.644	-8.84
306.859	43.96
307.074	32.66
307.288	-8.78
307.503	-4.04
307.717	-22.94
307.932	-44.15
308.147	-40.98
308.361	-31.58
308.576	-33.82
308.79	-77.52
309.005	-51.49
309.219	-48.89
309.434	-44
309.648	-44.67
309.863	-14.92
310.077	-18.64
310.292	-5.92
310.506	-3.6
310.72	4.43
310.935	-4.63
311.149	-9.73
311.364	3.75
311.578	19.79
311.792	15.61
312.007	35.06
312.221	21.57
312.435	19.28
312.649	2.88
312.864	27.07
313.078	31.21
313.292	101.24
313.507	83.74
313.721	123.81
313.935	46.89
314.149	36.07
314.363	27.94
314.578	31.86
314.792	27.26
315.006	22.48
315.22	36.58
315.434	31.86
315.648	30.45
315.862	24.96
316.077	26.16
316.291	-5.28
316.505	-6.5
316.719	-31.15
316.933	-65.94
317.147	-58.43
317.361	-93.49
317.575	-110.42
317.789	-148.27
318.003	-173.82
318.217	-141.82
318.431	-43.32
318.645	-5.2
318.859	7.45
319.073	23.73
319.287	6.2
319.5	-17.72
319.714	-51
319.928	-68.12
320.142	-85.81
320.356	-34.65
320.57	-19.19
320.784	-42.23
320.997	-51.7
321.211	-52.59
321.425	-103.29
321.639	-120.27
321.853	-43.42
322.066	-10.99
322.28	-8.99
322.494	-6.85
322.707	1.09
322.921	-17.61
323.135	-18.69
323.349	-4.25
323.562	-16.17
323.776	-27.04
323.989	-34.48
324.203	-80.02
324.417	-88.06
324.63	-98.78
324.844	-86.02
325.057	-70.73
325.271	-38.95
325.485	-17.75
325.698	9.98
325.912	27.81
326.125	1.94
326.339	14.25
326.552	0.23
326.766	-7.98
326.979	0.61
327.193	46.86
327.406	18.55
327.619	13.13
327.833	31.24
328.046	3.11
328.26	-41.57
328.473	-9.71
328.686	-28.65
328.9	-37.54
329.113	-23.58
329.326	-54.59
329.54	-48.05
329.753	-55.97
329.966	-85.83
330.179	-65.23
330.393	-24.15
330.606	-25.59
330.819	-13.24
331.032	3.65
331.246	4.88
331.459	23.31
331.672	22.27
331.885	21.15
332.098	1.85
332.311	-10.81
332.525	-49.2
332.738	-31.06
332.951	-6.72
333.164	13.72
333.377	18.93
333.59	42.36
333.803	26.5
334.016	19.26
334.229	7.54
334.442	14.41
334.655	-1.67
334.868	10.72
335.081	1.93
335.294	3.3
335.507	-8.18
335.72	-7.85
335.933	-18.75
336.146	-28.31
336.359	-30.59
336.572	-56.71
336.785	-79.73
336.997	-70.76
337.21	-44.89
337.423	-52.44
337.636	-49.91
337.849	-23.19
338.062	-32.06
338.274	-25.55
338.487	-26.44
338.7	-15.27
338.913	-55.71
339.125	-69.63
339.338	-133.7
339.551	-92.7
339.763	-53.43
339.976	-34.1
340.189	-17.94
340.402	10.28
340.614	2.79
340.827	-16.76
341.039	-17.87
341.252	-18.89
341.465	-7.5
341.677	-14.29
341.89	-43.39
342.102	-9.7
342.315	-15.31
342.527	-50.71
342.74	-56.13
342.952	-22.01
343.165	-49.66
343.377	-13.93
343.59	-20.52
343.802	2.22
344.015	4.33
344.227	15.72
344.44	10.24
344.652	25.79
344.864	9.53
345.077	29.22
345.289	23.96
345.502	15.72
345.714	6.89
345.926	13.36
346.139	-7.2
346.351	-1.91
346.563	8.39
346.775	16.44
346.988	-3.71
347.2	-14.83
347.412	-54.29
347.624	-82.23
347.837	-101.16
348.049	-58.68
348.261	-14.11
348.473	-9.66
348.685	-14.04
348.897	-10.1
349.11	-36.12
349.322	-67.76
349.534	-32.33
349.746	-9.82
349.958	-4.19
350.17	19
350.382	14.4
350.594	-6.73
350.806	-7
351.018	-7.67
351.23	-28.01
351.442	-62.39
351.654	-58.34
351.866	-42.42
352.078	-30.7
352.29	-4.22
352.502	18.65
352.714	32.56
352.926	21.12
353.138	31.21
353.35	17.79
353.561	21.3
353.773	4.13
353.985	-0.81
354.197	-28.15
354.409	-28.52
354.621	-32.7
354.832	-21.91
355.044	-17.16
355.256	-14.05
355.468	2.84
355.679	-10.86
355.891	-6.64
356.103	-30.7
356.314	-18.44
356.526	-31.33
356.738	-15.86
356.949	-42.25
357.161	-12.94
357.373	-17.53
357.584	-18.14
357.796	-14.35
358.008	-6.89
358.219	9.49
358.431	15.39
358.642	14.39
358.854	19.75
359.065	12.85
359.277	-20.09
359.488	-31.31
359.7	-45.8
359.911	-69.88
360.123	-47.74
360.334	-58.17
360.546	-84.64
360.757	-81.6
360.969	-50.98
361.18	-41.82
361.391	-17.51
361.603	-10.75
361.814	-1.44
362.025	-19.02
362.237	-39.18
362.448	-11.43
362.659	9.94
362.871	8.81
363.082	20.26
363.293	29.27
363.504	7.27
363.716	-18.63
363.927	-21.44
364.138	-53.54
364.349	-51.29
364.56	-52.22
364.772	-42.5
364.983	-17.33
365.194	-11.45
365.405	-2.56
365.616	11.14
365.827	15.85
366.038	-16.1
366.25	-24.05
366.461	-58.58
366.672	-34.46
366.883	-28.13
367.094	-11.77
367.305	-12.08
367.516	-6.23
367.727	-33.23
367.938	-32.83
368.149	-35.04
368.36	-13.86
368.571	-2.32
368.781	-8.48
368.992	-31.04
369.203	-42.55
369.414	-72.69
369.625	-85.15
369.836	-77.42
370.047	-82.82
370.258	-73.52
370.468	-64.59
370.679	-76.64
370.89	-80.07
371.101	-69.31
371.312	-65.78
371.522	-61.9
371.733	-47.4
371.944	-33.46
372.155	-5.85
372.365	-14.99
372.576	-19.17
372.787	-20.5
372.997	-38.94
373.208	-31.88
373.419	-5.75
373.629	-31.35
373.84	-22.42
374.05	-24.05
374.261	-35.63
374.472	-51.65
374.682	-10.2
374.893	-6.79
375.103	31.04
375.314	16.12
375.524	11.89
375.735	11.6
375.945	9.56
376.156	-16.18
376.366	-10.29
376.577	-6.49
376.787	-8.11
376.997	-6.77
377.208	-14.54
377.418	-22.88
377.629	-14.88
377.839	-16.75
378.049	-12.63
378.26	11.68
378.47	26.96
378.68	16.83
378.89	13.26
379.101	6.43
379.311	-22.51
379.521	-50.72
379.732	-44.16
379.942	-33.89
380.152	-46.32
380.362	-19.69
380.572	-22.43
380.783	-8.51
380.993	2.23
381.203	13.31
381.413	21.81
381.623	22.6
381.833	14.06
382.043	-1.24
382.253	-16.46
382.463	-15.32
382.674	-15.35
382.884	-30.46
383.094	-23.09
383.304	-4.39
383.514	0.1
383.724	5.67
383.934	14.2
384.144	2.12
384.353	-13.46
384.563	-27.81
384.773	-21.87
384.983	-40.39
385.193	-20.84
385.403	-12.05
385.613	-2.42
385.823	-16.17
386.033	-3.61
386.242	-12.95
386.452	-13.14
386.662	-23.12
386.872	-4.77
387.082	-7.78
387.291	-12.25
387.501	-14.56
387.711	-7.88
387.921	-17.82
388.13	-17.23
388.34	-5.3
388.55	-13.21
388.759	-14.81
388.969	-8.9
389.179	-11.18
389.388	-12.28
389.598	-1.43
389.807	-7.22
390.017	-11.61
390.227	-8.92
390.436	-11.63
390.646	-11.81
390.855	-5.49
391.065	-5.78
391.274	-7.63
391.484	-8.9
391.693	-7.23
391.903	-8.03
392.112	-1.06
392.322	2.32
392.531	7.01
392.74	8.21
392.95	6.65
393.159	1.02
393.369	0.12
393.578	-2.27
393.787	-5.89
393.997	-4.48
394.206	-3.2
394.415	-3.26
394.625	-3.26
394.834	-3.35
395.043	-1.91
395.252	-0.66
395.462	1.41
395.671	2.87
395.88	3.3
396.089	3.26
396.298	1.55
396.508	0.48
396.717	-0.78
396.926	-0.15
397.135	-0.87
397.344	-0.66
397.553	0.06
397.762	1.85
397.971	2.02
398.181	2.08
398.39	2.08
398.599	1.76
398.808	1.87
399.017	2.33
399.226	3.66
399.435	4.79
399.644	4.84
399.853	3.84
400.062	3.74
400.27	2.87
400.479	2.16
400.688	1.56
400.897	1.91
401.106	1.8
401.315	1.63
401.524	1.7
401.733	2.41
401.941	2.56
402.15	2.85
402.359	2.83
402.568	3.25
402.777	3.32
402.985	3.06
403.194	2.73
403.403	2.74
403.612	2.34
403.82	1.99
404.029	2.16
404.238	2.05
404.446	2.26
404.655	2.05
404.864	2.11
405.072	1.98
405.281	2.27
405.489	2.1
405.698	2.21
405.906	2.19
406.115	2.12
406.324	1.91
406.532	2.15
406.741	2.42
406.949	2.44
407.158	2.47
407.366	2.59
407.574	2.41
407.783	2.32
407.991	2.17
408.2	2.3
408.408	2.29
408.617	2.26
408.825	2.06
409.033	2.11
409.242	2.17
409.45	2.24
409.658	2.13
409.867	2.38
410.075	2.27
410.283	2.12
410.491	1.94
410.7	1.9
410.908	1.89
411.116	2.17
411.324	2.25
411.533	2.22
411.741	2.5
411.949	2.49
412.157	2.21
412.365	2.18
412.573	2.27
412.781	2.3
412.99	2.14
413.198	2.38
413.406	2.44
413.614	2.54
413.822	2.38
414.03	2.27
414.238	2.13
414.446	2.09
414.654	1.81
414.862	1.86
415.07	2.12
415.278	2.32
415.486	2.15
415.694	2.31
415.902	2.2
416.109	2.01
416.317	1.85
416.525	1.71
416.733	1.76
416.941	1.92
417.149	1.83
417.357	1.87
417.564	2.26
417.772	2.44
417.98	2.42
418.188	2.49
418.395	2.54
418.603	2.57
418.811	2.1
419.019	2.04
419.226	2.25
419.434	2.46
419.642	2.15
419.849	2.47
420.057	2.42
420.265	2.28
420.472	1.82
420.68	1.83
420.887	1.51
421.095	1.57
421.302	1.6
421.51	1.89
421.717	2.04
421.925	2.32
422.132	2.18
422.34	1.96
422.547	2.04
422.755	1.87
422.962	1.75
423.17	1.81
423.377	2.02
423.585	1.87
423.792	1.81
423.999	1.85
424.207	1.89
424.414	1.92
424.621	1.94
424.829	2.06
425.036	1.99
425.243	1.96
425.451	1.8
425.658	1.61
425.865	1.72
426.072	1.82
426.28	2
426.487	2.02
426.694	2.11
426.901	1.91
427.108	1.76
427.315	1.6
427.523	1.96
427.73	1.95
427.937	1.94
428.144	1.92
428.351	1.88
428.558	1.77
428.765	1.65
428.972	1.63
429.179	1.79
429.386	2.11
429.593	1.82
429.8	1.76
430.007	1.87
430.214	1.82
430.421	1.43
430.628	1.37
430.835	1.38
431.042	1.62
431.249	1.65
431.456	1.7
431.662	1.85
431.869	2
432.076	1.91
432.283	2.1
432.49	2.06
432.697	2.07
432.903	1.87
433.11	1.71
433.317	1.61
433.524	1.86
433.73	1.74
433.937	2.06
434.144	2.11
434.35	2.05
434.557	1.73
434.764	1.79
434.97	1.71
435.177	1.85
435.384	1.8
435.59	1.98
435.797	2.18
436.003	2.14
436.21	2.02
436.416	2.18
436.623	2.3
436.829	2.32
437.036	2.46
437.242	2.44
437.449	2.18
437.655	2.08
437.862	2.02
438.068	1.84
438.275	2.03
438.481	2.38
438.687	2.38
438.894	2.35
439.1	2.43
439.307	2.5
439.513	2.26
439.719	2.21
439.926	2.3
440.132	2.17
440.338	1.93
440.544	2.1
440.751	2.15
440.957	2.09
441.163	2.12
441.369	2.26
441.575	2
441.782	2.01
441.988	1.95
442.194	1.92
442.4	1.88
442.606	2.25
442.812	2.36
443.018	2.47
443.224	2.57
443.431	2.57
443.637	2.31
443.843	2.15
444.049	2.11
444.255	1.97
444.461	2.03
444.667	2.02
444.873	2.15
445.079	2.17
445.284	2.36
445.49	2.12
445.696	2.05
445.902	1.86
446.108	1.79
446.314	1.72
446.52	1.79
446.726	1.98
446.931	2.12
447.137	2.12
447.343	2.07
447.549	2.04
447.755	1.89
447.96	1.89
448.166	1.83
448.372	1.81
448.578	1.85
448.783	1.85
448.989	1.89
449.195	2.16
449.4	2.15
449.606	2.15
449.812	2.12
450.017	2.09
450.223	1.86
450.428	1.87
450.634	2.04
450.84	2.23
451.045	2.18
451.251	2.08
451.456	2.3
451.662	2.33
451.867	2.36
452.073	2.33
452.278	2.58
452.483	2.67
452.689	2.48
452.894	2.47
453.1	2.55
453.305	2.46
453.51	2.26
453.716	2.18
453.921	2.15
454.127	2.02
454.332	1.96
454.537	1.91
454.742	2.04
454.948	2.02
455.153	2.08
455.358	2.17
455.563	2.39
455.769	2.49
455.974	2.47
456.179	2.39
456.384	2.33
456.589	2.14
456.795	1.9
457	1.85
457.205	2.05
457.41	2.04
457.615	2.03
457.82	2.08
458.025	2.08
458.23	1.9
458.435	1.9
458.64	1.79
458.845	1.97
459.05	2
459.255	2.06
459.46	2.09
459.665	2.16
459.87	2.08
460.075	1.99
460.28	1.97
460.485	2.03
460.69	2.09
460.895	1.94
461.099	1.98
461.304	2.12
461.509	2.14
461.714	2.02
461.919	2.24
462.123	2.2
462.328	2.19
462.533	2.02
462.738	2.14
462.942	2.01
463.147	2.08
463.352	2.07
463.556	2.23
463.761	2.26
463.966	2.33
464.17	2.25
464.375	2.13
464.58	2.08
464.784	2.02
464.989	1.94
465.193	1.98
465.398	2.02
465.602	2.16
465.807	2.12
466.011	2.21
466.216	2.31
466.42	2.41
466.625	2.31
466.829	2.4
467.034	2.46
467.238	2.51
467.443	2.39
467.647	2.26
467.851	2.26
468.056	2.23
468.26	2.17
468.464	2.2
468.669	2.36
468.873	2.48
469.077	2.42
469.282	2.43
469.486	2.44
469.69	2.44
469.894	2.28
470.099	2.38
470.303	2.48
470.507	2.39
470.711	2.23
470.915	2.28
471.119	2.18
471.324	2.05
471.528	2.15
471.732	2.23
471.936	2.13
472.14	2.21
472.344	2.27
472.548	2.29
472.752	2.44
472.956	2.71
473.16	2.69
473.364	2.57
473.568	2.58
473.772	2.55
473.976	2.44
474.18	2.38
474.384	2.47
474.588	2.38
474.792	2.24
474.995	2.24
475.199	2.34
475.403	2.41
475.607	2.45
475.811	2.48
476.015	2.57
476.218	2.59
476.422	2.45
476.626	2.5
476.83	2.6
477.033	2.47
477.237	2.39
477.441	2.51
477.644	2.54
477.848	2.5
478.052	2.47
478.255	2.49
478.459	2.48
478.663	2.54
478.866	2.56
479.07	2.64
479.273	2.77
479.477	2.76
479.681	2.72
479.884	2.65
480.088	2.6
480.291	2.55
480.495	2.52
480.698	2.54
480.901	2.67
481.105	2.75
481.308	2.69
481.512	2.72
481.715	2.78
481.919	2.76
482.122	2.72
482.325	2.8
482.529	2.85
482.732	2.79
482.935	2.72
483.138	2.69
483.342	2.7
483.545	2.76
483.748	2.77
483.952	2.89
484.155	3
484.358	3.02
484.561	3.01
484.764	2.96
484.967	3
485.171	3.09
485.374	3.02
485.577	3.05
485.78	3.12
485.983	3.04
486.186	2.83
486.389	2.82
486.592	2.79
486.795	2.76
486.998	2.72
487.201	2.87
487.404	2.92
487.607	3.02
487.81	3.04
488.013	3.08
488.216	3.03
488.419	3.02
488.622	2.93
488.825	2.87
489.028	2.81
489.231	2.8
489.433	2.76
489.636	2.7
489.839	2.7
490.042	2.68
490.245	2.64
490.447	2.67
490.65	2.73
490.853	2.76
491.056	2.83
491.258	2.89
491.461	2.9
491.664	2.92
491.866	2.87
492.069	2.93
492.272	2.83
492.474	2.87
492.677	2.89
492.879	2.96
493.082	3
493.285	3.15
493.487	3.12
493.69	3.02
493.892	2.91
494.095	2.8
494.297	2.72
494.5	2.71
494.702	2.75
494.905	2.9
495.107	2.9
495.309	2.92
495.512	2.95
495.714	3.02
495.917	3
496.119	3.01
496.321	3.09
496.524	3.15
496.726	3.14
496.928	3.16
497.13	3.14
497.333	3.08
497.535	3.04
497.737	3.04
497.939	2.98
498.142	3.09
498.344	3.06
498.546	2.99
498.748	3.04
498.95	3.16
499.152	3.08
499.355	3.15
499.557	3.27
499.759	3.34
499.961	3.28
500.163	3.32
500.365	3.27
500.567	3.36
500.769	3.25
500.971	3.27
501.173	3.21
501.375	3.25
501.577	3.13
501.779	3.13
501.981	3.12
502.183	3.16
502.385	3.18
502.587	3.11
502.788	3.2
502.99	3.21
503.192	3.23
503.394	3.19
503.596	3.24
503.798	3.23
503.999	3.29
504.201	3.27
504.403	3.3
504.605	3.39
504.806	3.36
505.008	3.33
505.21	3.4
505.411	3.38
505.613	3.33
505.815	3.33
506.016	3.36
506.218	3.41
506.42	3.42
506.621	3.43
506.823	3.45
507.024	3.38
507.226	3.28
507.427	3.26
507.629	3.33
507.83	3.37
508.032	3.4
508.233	3.51
508.435	3.59
508.636	3.62
508.838	3.56
509.039	3.57
509.24	3.53
509.442	3.55
509.643	3.43
509.845	3.43
510.046	3.5
510.247	3.52
510.448	3.5
510.65	3.59
510.851	3.74
511.052	3.7
511.254	3.66
511.455	3.76
511.656	3.77
511.857	3.76
512.058	3.75
512.26	3.8
512.461	3.73
512.662	3.82
512.863	3.7
513.064	3.73
513.265	3.73
513.466	3.77
513.667	3.73
513.868	3.78
514.069	3.85
514.27	3.92
514.471	3.87
514.672	3.88
514.873	3.86
515.074	3.89
515.275	3.8
515.476	3.81
515.677	3.77
515.878	3.91
516.079	3.85
516.28	3.9
516.481	3.95
516.682	4.01
516.882	3.92
517.083	3.9
517.284	3.87
517.485	3.84
517.686	3.81
517.886	3.79
518.087	3.87
518.288	3.96
518.488	3.93
518.689	4
518.89	3.98
519.091	4
519.291	3.95
519.492	4
519.692	3.98
519.893	4.08
520.094	4.03
520.294	4.05
520.495	4.03
520.695	4.05
520.896	4.04
521.096	4.08
521.297	4.1
521.497	4.1
521.698	4.05
521.898	4.01
522.099	4.02
522.299	4.07
522.499	4.11
522.7	4.18
522.9	4.15
523.101	4.21
523.301	4.15
523.501	4.16
523.702	4.17
523.902	4.32
524.102	4.36
524.302	4.39
524.503	4.45
524.703	4.45
524.903	4.44
525.103	4.32
525.304	4.4
525.504	4.41
525.704	4.45
525.904	4.44
526.104	4.49
526.304	4.42
526.504	4.41
526.705	4.38
526.905	4.43
527.105	4.45
527.305	4.47
527.505	4.44
527.705	4.43
527.905	4.39
528.105	4.37
528.305	4.35
528.505	4.4
528.705	4.52
528.905	4.47
529.105	4.49
529.304	4.55
529.504	4.63
529.704	4.52
529.904	4.59
530.104	4.63
530.304	4.69
530.503	4.61
530.703	4.58
530.903	4.55
531.103	4.57
531.303	4.51
531.502	4.54
531.702	4.69
531.902	4.75
532.101	4.73
532.301	4.78
532.501	4.74
532.7	4.7
532.9	4.73
533.1	4.72
533.299	4.72
533.499	4.8
533.698	4.75
533.898	4.68
534.097	4.73
534.297	4.76
534.496	4.74
534.696	4.83
534.895	4.96
535.095	5.01
535.294	5.02
535.494	4.95
535.693	4.93
535.892	4.89
536.092	4.81
536.291	4.75
536.491	4.87
536.69	4.94
536.889	4.9
537.088	4.91
537.288	5.02
537.487	5.06
537.686	4.99
537.886	5.08
538.085	5.14
538.284	5.22
538.483	5.2
538.682	5.31
538.882	5.31
539.081	5.37
539.28	5.26
539.479	5.26
539.678	5.23
539.877	5.34
540.076	5.35
540.275	5.38
540.474	5.46
540.673	5.5
540.872	5.43
541.071	5.49
541.27	5.52
541.469	5.55
541.668	5.55
541.867	5.6
542.066	5.63
542.265	5.68
542.464	5.63
542.663	5.7
542.862	5.8
543.06	5.82
543.259	5.81
543.458	5.87
543.657	5.91
543.856	5.9
544.054	5.91
544.253	5.92
544.452	5.93
544.651	5.93
544.849	5.91
545.048	5.95
545.247	6.01
545.445	6.11
545.644	6.19
545.843	6.19
546.041	6.21
546.24	6.32
546.438	6.41
546.637	6.4
546.836	6.56
547.034	6.6
547.233	6.62
547.431	6.57
547.63	6.61
547.828	6.6
548.027	6.64
548.225	6.61
548.423	6.61
548.622	6.73
548.82	6.74
549.019	6.78
549.217	6.91
549.415	6.99
549.614	6.97
549.812	6.96
550.01	6.96
550.209	6.97
550.407	7.03
550.605	7.03
550.803	7.15
551.002	7.23
551.2	7.29
551.398	7.36
551.596	7.5
551.794	7.53
551.993	7.63
552.191	7.69
552.389	7.77
552.587	7.83
552.785	7.88
552.983	7.88
553.181	7.99
553.379	8.05
553.577	8.11
553.775	8.23
553.973	8.35
554.171	8.39
554.369	8.38
554.567	8.4
554.765	8.4
554.963	8.44
555.161	8.4
555.359	8.52
555.557	8.65
555.755	8.76
555.952	8.93
556.15	9.04
556.348	9.07
556.546	9.12
556.744	9.12
556.941	9.1
557.139	9.21
557.337	9.29
557.535	9.27
557.732	9.36
557.93	9.49
558.128	9.55
558.325	9.59
558.523	9.69
558.721	9.89
558.918	9.88
559.116	9.95
559.313	10.02
559.511	10.25
559.708	10.22
559.906	10.34
560.104	10.39
560.301	10.47
560.498	10.45
560.696	10.51
560.893	10.57
561.091	10.69
561.288	10.81
561.486	10.81
561.683	10.91
561.88	10.98
562.078	11.07
562.275	11.09
562.473	11.27
562.67	11.41
562.867	11.5
563.064	11.56
563.262	11.66
563.459	11.75
563.656	11.83
563.853	11.85
564.051	11.98
564.248	12.07
564.445	12.08
564.642	12.13
564.839	12.31
565.036	12.44
565.234	12.62
565.431	12.73
565.628	12.84
565.825	12.93
566.022	12.97
566.219	12.95
566.416	13.11
566.613	13.12
566.81	13.14
567.007	13.1
567.204	13.13
567.401	13.05
567.598	13.09
567.795	13.13
567.991	13.22
568.188	13.36
568.385	13.52
568.582	13.6
568.779	13.73
568.976	13.83
569.172	13.92
569.369	13.85
569.566	13.97
569.763	14.03
569.96	14.02
570.156	14.01
570.353	14.04
570.55	14.07
570.746	14.03
570.943	14.11
571.14	14.13
571.336	14.26
571.533	14.26
571.729	14.29
571.926	14.36
572.123	14.42
572.319	14.43
572.516	14.41
572.712	14.5
572.909	14.47
573.105	14.51
573.302	14.56
573.498	14.65
573.695	14.62
573.891	14.7
574.087	14.73
574.284	14.75
574.48	14.71
574.677	14.81
574.873	14.75
575.069	14.75
575.266	14.71
575.462	14.72
575.658	14.75
575.854	14.81
576.051	14.86
576.247	14.82
576.443	14.79
576.639	14.73
576.835	14.67
577.032	14.62
577.228	14.78
577.424	14.85
577.62	14.84
577.816	14.93
578.012	14.92
578.208	14.86
578.404	14.88
578.6	14.89
578.796	14.84
578.993	14.86
579.189	14.85
579.384	14.79
579.58	14.71
579.776	14.67
579.972	14.59
580.168	14.46
580.364	14.48
580.56	14.51
580.756	14.51
580.952	14.51
581.148	14.6
581.343	14.63
581.539	14.67
581.735	14.66
581.931	14.64
582.127	14.64
582.322	14.51
582.518	14.45
582.714	14.46
582.909	14.5
583.105	14.4
583.301	14.41
583.496	14.42
583.692	14.33
583.888	14.24
584.083	14.35
584.279	14.35
584.474	14.28
584.67	14.33
584.866	14.36
585.061	14.21
585.257	14.28
585.452	14.35
585.648	14.3
585.843	14.29
586.039	14.32
586.234	14.26
586.429	14.2
586.625	14.32
586.82	14.27
587.015	14.24
587.211	14.13
587.406	14.08
587.601	13.94
587.797	13.92
587.992	13.89
588.187	14.04
588.383	14.06
588.578	14.09
588.773	14.15
588.968	14.18
589.163	14.18
589.359	14.12
589.554	14.13
589.749	14.13
589.944	14.16
590.139	14.11
590.334	14.23
590.529	14.21
590.724	14.23
590.919	14.3
591.114	14.35
591.309	14.4
591.504	14.44
591.699	14.42
591.894	14.48
592.089	14.46
592.284	14.44
592.479	14.55
592.674	14.54
592.869	14.51
593.064	14.6
593.259	14.71
593.454	14.71
593.648	14.81
593.843	14.84
594.038	14.88
594.233	14.81
594.428	14.81
594.622	14.85
594.817	15.04
595.012	15.08
595.206	15.13
595.401	15.22
595.596	15.28
595.79	15.25
595.985	15.4
596.18	15.52
596.374	15.6
596.569	15.63
596.763	15.66
596.958	15.6
597.153	15.72
597.347	15.74
597.542	15.88
597.736	15.87
597.931	15.97
598.125	15.94
598.319	16.05
598.514	16.07
598.708	16.26
598.903	16.26
599.097	16.35
599.291	16.39
599.486	16.38
599.68	16.31
599.874	16.4
600.069	16.42
600.263	16.37
600.457	16.48
600.651	16.54
600.846	16.52
601.04	16.51
601.234	16.6
601.428	16.67
601.622	16.71
601.817	16.78
602.011	16.86
602.205	16.92
602.399	16.87
602.593	16.88
602.787	16.89
602.981	16.92
603.175	16.91
603.369	16.87
603.563	16.85
603.757	16.9
603.951	16.83
604.145	16.82
604.339	16.91
604.533	16.83
604.727	16.78
604.921	16.77
605.115	16.77
605.309	16.81
605.502	16.77
605.696	16.7
605.89	16.73
606.084	16.62
606.278	16.39
606.471	16.37
606.665	16.37
606.859	16.22
607.053	16.25
607.246	16.26
607.44	16.19
607.634	16.07
607.827	16.08
608.021	15.93
608.214	15.9
608.408	15.88
608.602	15.84
608.795	15.79
608.989	15.75
609.182	15.71
609.376	15.75
609.569	15.76
609.763	15.69
609.956	15.63
610.15	15.49
610.343	15.42
610.537	15.29
610.73	15.3
610.923	15.3
611.117	15.29
611.31	15.16
611.504	15.11
611.697	14.9
611.89	14.85
612.083	14.84
612.277	14.78
612.47	14.7
612.663	14.79
612.856	14.68
613.05	14.57
613.243	14.47
613.436	14.39
613.629	14.22
613.822	14.13
614.015	14.04
614.209	13.97
614.402	13.98
614.595	13.97
614.788	13.96
614.981	13.83
615.174	13.74
615.367	13.64
615.56	13.57
615.753	13.45
615.946	13.36
616.139	13.38
616.332	13.46
616.525	13.42
616.718	13.5
616.911	13.57
617.103	13.56
617.296	13.44
617.489	13.43
617.682	13.29
617.875	13.25
618.067	13.11
618.26	12.99
618.453	12.95
618.646	12.98
618.838	12.95
619.031	13.03
619.224	13.12
619.417	13.08
619.609	13.04
619.802	13.05
619.994	12.98
620.187	12.9
620.38	12.76
620.572	12.73
620.765	12.69
620.957	12.64
621.15	12.54
621.342	12.51
621.535	12.52
621.727	12.53
621.92	12.45
622.112	12.43
622.305	12.54
622.497	12.39
622.69	12.28
622.882	12.33
623.074	12.4
623.267	12.33
623.459	12.28
623.651	12.24
623.844	12.28
624.036	12.26
624.228	12.2
624.42	12.21
624.613	12.32
624.805	12.15
624.997	12.11
625.189	12.05
625.381	12.11
625.574	12.03
625.766	12.03
625.958	12.03
626.15	12.08
626.342	12.01
626.534	11.93
626.726	11.9
626.918	11.89
627.11	11.81
627.302	11.79
627.494	11.78
627.686	11.78
627.878	11.67
628.07	11.69
628.262	11.7
628.454	11.73
628.646	11.71
628.838	11.77
629.029	11.72
629.221	11.67
629.413	11.55
629.605	11.47
629.797	11.41
629.989	11.39
630.18	11.34
630.372	11.38
630.564	11.42
630.755	11.4
630.947	11.46
631.139	11.32
631.33	11.22
631.522	11.29
631.714	11.28
631.905	11.23
632.097	11.28
632.289	11.33
632.48	11.21
632.672	11.15
632.863	11.04
633.055	11.06
633.246	11
633.438	10.93
633.629	10.89
633.821	10.89
634.012	10.85
634.203	10.78
634.395	10.8
634.586	10.86
634.777	10.77
634.969	10.79
635.16	10.81
635.351	10.73
635.543	10.63
635.734	10.66
635.925	10.62
636.117	10.63
636.308	10.73
636.499	10.73
636.69	10.67
636.881	10.62
637.073	10.69
637.264	10.6
637.455	10.62
637.646	10.75
637.837	10.79
638.028	10.7
638.219	10.75
638.41	10.63
638.601	10.5
638.792	10.51
638.983	10.38
639.174	10.28
639.365	10.3
639.556	10.32
639.747	10.25
639.938	10.38
640.129	10.42
640.32	10.42
640.511	10.46
640.701	10.52
640.892	10.39
641.083	10.44
641.274	10.47
641.465	10.36
641.655	10.28
641.846	10.32
642.037	10.22
642.228	10.12
642.418	10.23
642.609	10.19
642.8	10.23
642.99	10.16
643.181	10.27
643.372	10.22
643.562	10.19
643.753	10.09
643.943	10.15
644.134	10.01
644.324	9.99
644.515	10.02
644.705	10.16
644.896	10.17
645.086	10.22
645.277	10.11
645.467	10.06
645.658	9.89
645.848	9.88
646.038	9.86
646.229	9.89
646.419	9.83
646.61	9.86
646.8	9.76
646.99	9.73
647.18	9.73
647.371	9.79
647.561	9.71
647.751	9.81
647.941	9.72
648.132	9.74
648.322	9.69
648.512	9.79
648.702	9.76
648.892	9.83
649.082	9.79
649.272	9.71
649.462	9.58
649.653	9.46
649.843	9.42
650.033	9.49
650.223	9.47
650.413	9.41
650.603	9.49
650.793	9.45
650.983	9.37
651.172	9.34
651.362	9.39
651.552	9.23
651.742	9.24
651.932	9.22
652.122	9.24
652.312	9.26
652.502	9.26
652.691	9.22
652.881	9.1
653.071	9.1
653.261	8.88
653.45	8.83
653.64	8.82
653.83	8.72
654.019	8.62
654.209	8.66
654.399	8.64
654.588	8.44
654.778	8.35
654.968	8.21
655.157	8.2
655.347	8.11
655.536	8.07
655.726	8
655.915	8
656.105	7.87
656.294	7.74
656.484	7.62
656.673	7.53
656.863	7.43
657.052	7.35
657.241	7.23
657.431	7.05
657.62	7.03
657.809	6.79
657.999	6.67
658.188	6.58
658.377	6.47
658.567	6.42
658.756	6.39
658.945	6.24
659.134	6.11
659.324	6.06
659.513	5.88
659.702	5.69
659.891	5.63
660.08	5.5
660.269	5.51
660.458	5.4
660.648	5.36
660.837	5.22
661.026	5.18
661.215	4.99
661.404	4.89
661.593	4.85
661.782	4.74
661.971	4.72
662.16	4.62
662.349	4.53
662.538	4.44
662.726	4.38
662.915	4.27
663.104	4.24
663.293	4.24
663.482	4.31
663.671	4.32
663.86	4.21
664.048	4.13
664.237	4.15
664.426	3.94
664.615	3.89
664.803	3.82
664.992	3.7
665.181	3.55
665.369	3.55
665.558	3.47
665.747	3.45
665.935	3.58
666.124	3.57
666.312	3.53
666.501	3.55
666.69	3.54
666.878	3.43
667.067	3.35
667.255	3.47
667.444	3.67
667.632	3.72
667.82	3.8
668.009	3.81
668.197	3.69
668.386	3.56
668.574	3.62
668.762	3.49
668.951	3.4
669.139	3.37
669.327	3.17
669.516	3.21
669.704	3.22
669.892	3.46
670.08	3.52
670.269	3.44
670.457	3.21
670.645	3.13
670.833	3.11
671.021	3.1
671.21	3.2
671.398	3.45
671.586	3.56
671.774	3.43
671.962	3.45
672.15	3.49
672.338	3.33
672.526	3.33
672.714	3.25
672.902	3.23
673.09	3.31
673.278	3.67
673.466	3.75
673.654	4
673.842	4.01
674.03	4.07
674.218	3.81
674.405	3.83
674.593	3.65
674.781	3.76
674.969	3.72
675.157	3.78
675.344	3.79
675.532	3.93
675.72	4.05
675.908	4.11
676.095	4.07
676.283	4.03
676.471	4.12
676.658	4.07
676.846	4.12
677.033	4.2
677.221	4.37
677.409	4.2
677.596	4.22
677.784	4.23
677.971	4.27
678.159	4.2
678.346	4.38
678.534	4.46
678.721	4.59
678.909	4.64
679.096	4.69
679.283	4.88
679.471	4.99
679.658	4.98
679.846	5.1
680.033	5.31
680.22	5.31
680.408	5.24
680.595	5.32
680.782	5.21
680.969	5.21
681.157	5.19
681.344	5.25
681.531	5.2
681.718	5.25
681.905	5.35
682.093	5.46
682.28	5.69
682.467	5.98
682.654	6.14
682.841	6.22
683.028	6.36
683.215	6.37
683.402	6.32
683.589	6.48
683.776	6.56
683.963	6.56
684.15	6.68
684.337	6.95
684.524	7.07
684.711	7.37
684.898	7.42
685.085	7.63
685.271	7.69
685.458	7.86
685.645	7.91
685.832	8.25
686.019	8.4
686.205	8.61
686.392	8.79
686.579	9.04
686.766	9.32
686.952	9.48
687.139	9.83
687.326	10.02
687.512	10.18
687.699	10.38
687.886	10.58
688.072	10.67
688.259	11.06
688.445	11.43
688.632	11.56
688.818	12.17
689.005	12.53
689.191	12.81
689.378	13.33
689.564	13.94
689.751	14.2
689.937	14.63
690.124	15.14
690.31	15.31
690.496	15.73
690.683	16.28
690.869	16.8
691.055	17.19
691.242	17.84
691.428	18.21
691.614	18.79
691.8	19.36
691.987	19.98
692.173	20.6
692.359	21.53
692.545	22.04
692.731	22.55
692.918	23.26
693.104	23.78
693.29	24.26
693.476	24.94
693.662	25.69
693.848	26.27
694.034	26.87
694.22	27.32
694.406	28.11
694.592	28.75
694.778	29.37
694.964	29.93
695.15	30.83
695.336	31.3
695.522	32.28
695.708	33.02
695.894	33.92
696.08	34.69
696.265	35.38
696.451	35.97
696.637	36.92
696.823	37.66
697.009	38.28
697.194	39.01
697.38	39.6
697.566	40.03
697.751	40.68
697.937	41.42
698.123	42.27
698.308	42.99
698.494	43.84
698.68	44.36
698.865	44.84
699.051	45.23
699.236	45.72
699.422	46.34
699.607	46.98
699.793	47.69
699.978	48.33
700.164	48.86
700.349	49.43
700.535	50.24
700.72	50.78
700.906	51.77
701.091	52.27
701.276	52.69
701.462	53.31
701.647	54.4
701.832	54.68
702.018	55.43
702.203	56.12
702.388	56.32
702.573	56.5
702.759	57.52
702.944	57.99
703.129	58.54
703.314	59.34
703.499	59.66
703.684	59.68
703.87	60.8
704.055	61.67
704.24	62.49
704.425	63.29
704.61	63.93
704.795	63.85
704.98	64.18
705.165	64.26
705.35	64.7
705.535	65.29
705.72	65.8
705.905	66.2
706.09	66.62
706.275	66.84
706.459	66.8
706.644	67.18
706.829	67.44
707.014	67.72
707.199	68.31
707.384	68.59
707.568	68.78
707.753	69.46
707.938	69.97
708.123	69.85
708.307	70.4
708.492	70.83
708.677	70.56
708.861	70.84
709.046	71.28
709.231	71.76
709.415	72.05
709.6	72.24
709.784	72.46
709.969	72.83
710.153	72.91
710.338	73.1
710.522	73.72
710.707	74.36
710.891	74.69
711.076	74.83
711.26	74.9
711.445	74.99
711.629	74.72
711.813	74.88
711.998	75.33
712.182	75.49
712.366	76.03
712.551	76.93
712.735	77.08
712.919	76.91
713.103	77.6
713.288	77.35
713.472	76.84
713.656	77.13
713.84	77.53
714.024	77.41
714.208	77.36
714.393	78.03
714.577	78.16
714.761	78.23
714.945	78.36
715.129	78.85
715.313	78.69
715.497	78.96
715.681	79.6
715.865	79.86
716.049	80.09
716.233	79.82
716.417	79.71
716.601	79.51
716.785	79.49
716.968	79.8
717.152	80.35
717.336	80.47
717.52	80.62
717.704	81
717.888	81.36
718.071	81.38
718.255	81.58
718.439	81.23
718.622	80.92
718.806	80.69
718.99	80.56
719.174	80.66
719.357	81.23
719.541	81.35
719.724	81.33
719.908	82.35
720.092	82.89
720.275	83.15
720.459	83.68
720.642	83.31
720.826	82.33
721.009	81.6
721.193	81.01
721.376	80.87
721.559	81.27
721.743	81.76
721.926	82.33
722.11	82.59
722.293	82.06
722.476	82.17
722.66	82.3
722.843	82.34
723.026	82.39
723.21	83.47
723.393	84.24
723.576	83.86
723.759	83.88
723.942	84.34
724.126	83.61
724.309	83.57
724.492	84.28
724.675	83.99
724.858	84.04
725.041	84.53
725.224	84.47
725.407	84.45
725.59	84.6
725.774	84.38
725.957	83.92
726.14	83.4
726.322	83.13
726.505	83.4
726.688	84.08
726.871	84.51
727.054	84.79
727.237	84.82
727.42	85.16
727.603	84.65
727.786	84.77
727.968	85.01
728.151	84.77
728.334	84.21
728.517	84.44
728.699	85.11
728.882	85.23
729.065	86.08
729.248	87.01
729.43	87.04
729.613	87.24
729.796	87.49
729.978	87.23
730.161	86.87
730.343	86.81
730.526	86.89
730.708	86.37
730.891	86.85
731.073	86.79
731.256	86.49
731.438	86.15
731.621	87.52
731.803	87.15
731.986	87.35
732.168	87.87
732.35	88.17
732.533	87.24
732.715	87.55
732.898	88.12
733.08	87.96
733.262	88.52
733.444	88.53
733.627	88.47
733.809	88.7
733.991	89.78
734.173	88.87
734.355	88.93
734.538	89.61
734.72	88.84
734.902	88.54
735.084	88.79
735.266	89.12
735.448	88.67
735.63	88.61
735.812	88.44
735.994	89.9
736.176	90.52
736.358	90.46
736.54	91.45
736.722	90.92
736.904	89.35
737.086	88.18
737.268	89.11
737.45	89.47
737.632	88.91
737.814	88.83
737.995	89.71
738.177	89.42
738.359	88.33
738.541	89.51
738.723	90.03
738.904	90.15
739.086	89.85
739.268	89.8
739.449	90.22
739.631	90.31
739.813	90.7
739.994	90.69
740.176	91.17
740.358	90.65
740.539	91.7
740.721	91.18
740.902	91.89
741.084	91.71
741.265	91.32
741.447	90.89
741.628	91.03
741.81	90.23
741.991	90.52
742.172	91.74
742.354	92.09
742.535	91.8
742.717	91.87
742.898	92.4
743.079	92.41
743.261	92.11
743.442	91.55
743.623	92.14
743.804	92.73
743.986	93.94
744.167	92.16
744.348	92.35
744.529	92.41
744.71	90.4
744.891	88.84
745.073	90.21
745.254	90.08
745.435	89.33
745.616	89.2
745.797	89.11
745.978	88.62
746.159	89.72
746.34	88.86
746.521	90.91
746.702	90.07
746.883	90.13
747.064	88.48
747.245	89.87
747.426	88.8
747.606	89.71
747.787	90.3
747.968	91.16
748.149	92
748.33	92.32
748.51	91.98
748.691	90.14
748.872	90.93
749.053	88.95
749.233	87.71
749.414	87.77
749.595	88.11
749.775	86.8
749.956	88.03
750.137	88.98
750.317	90.04
750.498	91.48
750.678	91.52
750.859	92.02
751.04	91.93
751.22	89.63
751.4	89.2
751.581	88.76
751.761	87.97
751.942	88.01
752.122	88.66
752.303	87.75
752.483	88.14
752.663	87.2
752.844	85.65
753.024	87.23
753.204	88.75
753.385	88.9
753.565	89.25
753.745	90.34
753.925	89.03
754.106	87.74
754.286	86.77
754.466	86.6
754.646	86.75
754.826	86.35
755.006	85.85
755.187	87.47
755.367	87.62
755.547	88.03
755.727	88.58
755.907	89.24
756.087	89.87
756.267	89.27
756.447	88.83
756.627	87.19
756.807	88.36
756.987	86.87
757.167	87.53
757.346	88.04
757.526	88.78
757.706	89.04
757.886	90.25
758.066	91.67
758.246	92.42
758.425	91.72
758.605	88.85
758.785	88.5
758.965	87.61
759.144	85.02
759.324	85.96
759.504	87.76
759.683	87.69
759.863	85.93
760.043	85.57
760.222	85.39
760.402	84.2
760.581	83.29
760.761	84.87
760.94	84.69
761.12	86.27
761.299	87.12
761.479	87.19
761.658	84.74
761.838	86.24
762.017	85
762.197	85.61
762.376	86.69
762.555	88.36
762.735	89.43
762.914	87.68
763.093	87.94
763.273	86.54
763.452	86.54
763.631	85.53
763.81	85.77
763.99	84.52
764.169	85.13
764.348	83.15
764.527	83.16
764.706	85.4
764.885	86.93
765.064	85.82
765.243	88.29
765.423	88.65
765.602	87.57
765.781	83.73
765.96	82.39
766.139	79.97
766.318	79.65
766.497	79.79
766.676	81.81
766.854	84.58
767.033	86.3
767.212	85.42
767.391	84.96
767.57	85.64
767.749	85.72
767.928	85.97
768.106	85.58
768.285	85.38
768.464	85.1
768.643	82.64
768.821	83.49
769	85.16
769.179	84.96
769.357	83.58
769.536	85.07
769.715	83.78
769.893	83.79
770.072	83.65
770.25	84.14
770.429	84.4
770.607	84.15
770.786	82.97
770.964	84.26
771.143	83.77
771.321	83.52
771.5	85.51
771.678	83.53
771.857	81.51
772.035	82.73
772.213	82.59
772.392	78.57
772.57	81.16
772.748	82.31
772.927	81.05
773.105	79.63
773.283	82.01
773.461	82.02
773.64	81.29
773.818	80.94
773.996	84.56
774.174	83.63
774.352	82.02
774.531	80.66
774.709	84.59
774.887	83.13
775.065	83.1
775.243	83.87
775.421	85.56
775.599	84.94
775.777	81.71
775.955	80.31
776.133	78.28
776.311	78.37
776.489	73.31
776.667	74.89
776.844	76.91
777.022	78.21
777.2	76.86
777.378	78.31
777.556	78.76
777.734	81
777.911	81.21
778.089	81.12
778.267	82.36
778.445	80.2
778.622	77.46
778.8	77.21
778.978	77.46
779.155	76.46
779.333	77.7
779.511	76.35
779.688	77.96
779.866	74.7
780.043	71.62
780.221	72.85
780.398	70.5
780.576	69.36
780.753	72.94
780.931	73.19
781.108	69.6
781.286	73.13
781.463	69.96
781.64	67.35
781.818	69.52
781.995	73.15
782.172	73.15
782.35	76.92
782.527	82.04
782.704	83.21
782.882	83.39
783.059	83.23
783.236	82.08
783.413	81.56
783.59	78.91
783.768	76.49
783.945	77.99
784.122	76.82
784.299	76.54
784.476	78.84
784.653	77.57
784.83	73.46
785.007	72.35
785.184	71.28
785.361	70.15
785.538	74.75
785.715	79.35
785.892	80.45
786.069	80.76
786.246	82.7
786.423	79.89
786.6	76.27
786.776	79.71
786.953	77.68
787.13	78.82
787.307	79.13
787.484	80.93
787.66	77.35
787.837	79.22
788.014	74.82
788.191	71.71
788.367	68.72
788.544	72.47
788.721	72.5
788.897	74.45
789.074	77.02
789.25	76.17
789.427	74.73
789.603	72.67
789.78	73.41
789.956	72.05
790.133	69.71
790.309	68.41
790.486	74.25
790.662	72.12
790.839	72.72
791.015	75.23
791.192	73.56
791.368	74.63
791.544	71.56
791.721	73.51
791.897	72.42
792.073	73.52
792.249	61.26
792.426	67.51
792.602	66.86
792.778	69.54
792.954	67.34
793.13	69.43
793.307	61.64
793.483	56.87
793.659	59.08
793.835	62.69
794.011	62.9
794.187	66.37
794.363	66.22
794.539	68.96
794.715	63.18
794.891	63.9
795.067	63.86
795.243	68.57
795.419	61.98
795.595	61.53
795.771	67.46
795.947	67.23
796.122	63.74
796.298	69.72
796.474	74.8
796.65	70.23
796.826	71.86
797.001	75.24
797.177	67.82
797.353	67.13
797.529	71.41
797.704	69.87
797.88	63.22
798.056	62.72
798.231	63.94
798.407	66.01
798.582	67.86
798.758	78.47
798.934	84.09
799.109	79.73
799.285	71.63
799.46	75.28
799.636	69.55
799.811	68.42
799.986	72.31
800.162	80.69
800.337	79.03
800.513	74.21
800.688	69.7
800.863	76.45
801.039	64.98
801.214	63.67
801.389	68.77
801.565	67.71
801.74	51.31
801.915	62.36
802.09	62.44
802.265	69.86
802.441	65.87
802.616	71.75
802.791	72.14
802.966	70.96
803.141	66.71
803.316	68.04
803.491	73.97
803.666	73.99
803.841	70.98
804.016	66.07
804.191	71.08
804.366	64.18
804.541	57.39
804.716	60.13
804.891	58.78
805.066	58.45
805.241	55.25
805.416	54.52
805.591	46.82
805.765	53.19
805.94	58.99
806.115	62.4
806.29	59.66
806.464	64.65
806.639	59.24
806.814	48.63
806.989	46.07
807.163	53.35
807.338	53.49
807.512	50.93
807.687	43.28
807.862	50.76
808.036	51.38
808.211	60.06
808.385	68.19
808.56	86.44
808.734	96.26
808.909	89.43
809.083	79.5
809.258	76.86
809.432	71.66
809.606	49.41
809.781	53.16
809.955	59.92
810.13	65.83
810.304	61.84
810.478	63.49
810.652	72.76
810.827	68.6
811.001	59.85
811.175	57.51
811.349	59.72
811.524	50.5
811.698	35.52
811.872	34.5
812.046	47.26
812.22	57.97
812.394	54.84
812.568	64.19
812.742	67.35
812.916	54.77
813.09	43.33
813.264	43.74
813.438	57.55
813.612	56.64
813.786	52.19
813.96	61.55
814.134	60.67
814.308	66.56
814.482	67.13
814.656	65.56
814.83	68.43
815.003	71.8
815.177	52.11
815.351	48.83
815.525	51.36
815.698	43.64
815.872	38.49
816.046	34.39
816.219	35.91
816.393	51.55
816.567	54.38
816.74	57.25
816.914	68.39
817.088	75.48
817.261	62.56
817.435	50.57
817.608	52.63
817.782	33.89
817.955	29.76
818.129	31.6
818.302	45.36
818.475	57.63
818.649	62.36
818.822	60.23
818.996	75.52
819.169	65.16
819.342	47.66
819.516	58.09
819.689	54.06
819.862	37.78
820.035	37.8
820.209	39.19
820.382	35.43
820.555	42.93
820.728	36.31
820.901	32.5
821.075	28.45
821.248	41.24
821.421	30.96
821.594	41.95
821.767	62.89
821.94	84.94
822.113	48.14
822.286	48.89
822.459	56.05
822.632	45.58
822.805	24.47
822.978	38.47
823.151	28.27
823.324	15.68
823.496	-2.34
823.669	-7.72
823.842	-2.04
824.015	-6.47
824.188	-18
824.361	-3.61
824.533	-2.56
824.706	2.29
824.879	17.31
825.051	37.3
825.224	37.57
825.397	33.15
825.569	26.6
825.742	31.11
825.915	32.33
826.087	31.7
826.26	29
826.432	37.83
826.605	38.58
826.777	26.54
826.95	35.92
827.122	35.46
827.295	39.47
827.467	36.37
827.64	9.68
827.812	-11.56
827.984	-6.2
828.157	-26.74
828.329	-82.02
828.501	-36.9
828.674	-9.19
828.846	-20.93
829.018	25.58
829.19	22.38
829.363	43.92
829.535	50.65
829.707	60.13
829.879	13.03
830.051	23.74
830.223	-1.11
830.395	-30.44
830.568	-38.42
830.74	-16.95
830.912	12.05
831.084	-0.92
831.256	13.79
831.428	12.3
831.6	-11.45
831.772	-44.56
831.943	-43.04
832.115	-22.83
832.287	1.15
832.459	11.64
832.631	23.99
832.803	43.72
832.975	48.94
833.146	16.13
833.318	22.23
833.49	47.97
833.662	47.15
833.833	29.33
834.005	51.31
834.177	56.92
834.348	30.48
834.52	2.93
834.692	-24.98
834.863	-53.41
835.035	-45.73
835.206	-74.61
835.378	-40.27
835.549	-37.26
835.721	-20.59
835.892	-13.71
836.064	-14.43
836.235	-25.21
836.407	20.84
836.578	-12.54
836.749	-13.66
836.921	-39.82
837.092	-52.07
837.264	-71.09
837.435	-68.37
837.606	-13.32
837.777	34.29
837.949	48.04
838.12	48.07
838.291	53.16
838.462	29.48
838.633	4.2
838.805	11.74
838.976	13.19
839.147	-37.76
839.318	-68.02
839.489	-132.97
839.66	-122.46
839.831	-78.12
840.002	-55.85
840.173	-60.85
840.344	36.8
840.515	54.26
840.686	29.52
840.857	23.26
841.028	46.56
841.199	-1.13
841.369	-43.12
841.54	-39.27
841.711	0.27
841.882	16.68
842.053	-12.29
842.223	-26.63
842.394	-17.26
842.565	-26.12
842.736	-7.62
842.906	2.2
843.077	14.95
843.248	39.76
843.418	37.86
843.589	21.46
843.759	107.94
843.93	145.89
844.101	67.86
844.271	70.86
844.442	82.65
844.612	66.79
844.783	25.54
844.953	-9.29
845.123	-46.53
845.294	-82.38
845.464	-298.96
845.635	-86.38
845.805	-9.26
845.975	12.75
846.146	-37.41
846.316	-30.14
846.486	-5.62
846.656	6.82
846.827	-6.96
846.997	-7.14
847.167	8.88
847.337	-22.71
847.507	-46.13
847.677	-15.01
847.848	49.02
848.018	49.06
848.188	57.46
848.358	37.68
848.528	15.66
848.698	-34.72
848.868	-126.55
849.038	-227.42
849.208	-74.13
849.378	-39.6
849.548	-32.88
849.718	-15.2
849.887	10.26
850.057	-8.61
850.227	-55.86
850.397	-86.89
850.567	-219.74
850.737	-559.35
850.906	-1746.88
851.076	-986.33
851.246	-411.26
851.415	-56.35
851.585	-48.67
851.755	-96.86
851.924	-38.56
852.094	-105.68
852.264	-202.32
852.433	-1257.21
852.603	-189.98
852.772	-134.98
852.942	-59.92
853.111	-71.08
853.281	-18.91
853.45	2.97
853.62	-103.12
853.789	-93.89
853.959	-60.59
854.128	-72.07
854.297	-113.54
854.467	-134.35
854.636	-164.5
854.805	-81.71
854.975	-101.84
855.144	-95.21
855.313	256.29
855.482	41.97
855.652	-85.39
855.821	-109.74
855.99	-19.29
856.159	-6.53
856.328	5.14
856.497	-8.54
856.667	8.86
856.836	23.02
857.005	-24.32
857.174	-51.2
857.343	-75.92
857.512	-52.83
857.681	-147.86
857.85	-150.44
858.019	-72.81
858.188	-41.75
858.356	-81.8
858.525	-114.21
858.694	-92.02
858.863	-194.68
859.032	-169.12
859.201	-209.42
859.369	-101.66
859.538	-91.81
859.707	-88.08
859.876	-91.28
860.044	-111.78
860.213	-31.42
860.382	-45.5
860.55	-21.95
860.719	-11.67
860.888	23.66
861.056	-9.72
861.225	-12.33
861.393	8.21
861.562	-0.37
861.73	-112.99
861.899	-284.03
862.067	-2760.34
862.236	-154.15
862.404	-313.69
862.572	-149.9
862.741	-79.53
862.909	-44.72
863.078	-164.3
863.246	-107.16
863.414	-88.8
863.582	-43.87
863.751	-84.19
863.919	-90.25
864.087	-63.8
864.255	-122.59
864.424	-551.99
864.592	-126.01
864.76	-170.2
864.928	-292.4
865.096	-186.15
865.264	-120.35
865.432	-1485.23
865.6	-176.75
865.768	-115.79
865.936	-95.22
866.104	-126.84
866.272	-156.41
866.44	-304.53
866.608	620.92
866.776	294.14
866.944	2894.19
867.112	-626.48
867.28	-263.39
867.448	-121.49
867.615	-72.03
867.783	-32.18
867.951	-36.65
868.119	-13.67
868.286	-18.47
868.454	-117.95
868.622	-134.49
868.789	-156.58
868.957	-2675
869.125	-2698.68
869.292	-140.66
869.46	-178.91
869.627	-3.4
869.795	-20.79
869.963	10.83
870.13	36.71
870.298	45.39
870.465	-12.81
870.632	-42.64
870.8	-46
870.967	-142.27
871.135	-232.78
871.302	-214.72
871.469	-184.4
871.637	-205.87
871.804	-81.52
871.971	-107.21
872.139	-414.19
872.306	-85.77
872.473	-83.57
872.64	-378.33
872.807	-101.14
872.975	38.49
873.142	-89.27
873.309	1150
873.476	89.09
873.643	135.28
873.81	82.66
873.977	77.82
874.144	63
874.311	-95.18
874.478	-153.98
874.645	-184.69
874.812	-109.55
874.979	-40.5
875.146	-48.61
875.313	-47.75
875.48	28.79
875.647	-6.65
875.813	-53.13
875.98	-29.79
876.147	-67.76
876.314	-154.17
876.481	1373.14
876.647	-1425.28
876.814	453.63
876.981	-22.88
877.147	-23.15
877.314	36.79
877.481	56.88
877.647	42.52
877.814	15.72
877.98	-15.51
878.147	34.43
878.314	62.2
878.48	-4.83
878.647	11.92
878.813	73.4
878.979	35.38
879.146	-36.21
879.312	-20.51
879.479	-74.17
879.645	-223.3
879.811	-379.34
879.978	-675.19
880.144	-197.89
880.31	-94.93
880.477	-299.85
880.643	-358.98
880.809	-119.13
880.975	-86.78
881.142	-861.36
881.308	-79
881.474	9.76
881.64	-37.77
881.806	-87.59
881.972	15.54
882.138	-32.32
882.304	-64.7
882.47	-209.15
882.636	-830.74
882.802	-359.08
882.968	-90.76
883.134	-53.64
883.3	-42.08
883.466	6.11
883.632	47.26
883.798	8.02
883.964	-32.67
884.129	-20.26
884.295	0.52
884.461	-69.57
884.627	-71.59
884.793	-85.89
884.958	-62.3
885.124	-165.98
885.29	-226.74
885.455	-397.33
885.621	-98.01
885.787	-129.43
885.952	-56.47
886.118	-49.63
886.283	-23.4
886.449	-111.27
886.614	-156.34
886.78	-289.42
886.945	1558.2
887.111	-783.53
887.276	-546.88
887.442	-894.09
887.607	-428.54
887.773	-253.98
887.938	-289.69
888.103	-366.72
888.269	-217.62
888.434	-322.43
888.599	-187.56
888.764	-46.19
888.93	5.05
889.095	-33.76
889.26	-63.68
889.425	4.42
889.59	2.28
889.756	-9.02
889.921	9.24
890.086	39.13
890.251	4.25
890.416	-97.37
890.581	-1383.06
890.746	128.39
890.911	186.94
891.076	103.1
891.241	-221.27
891.406	97.5
891.571	-16.94
891.736	-184.17
891.901	-501.33
892.065	550
892.23	194.06
892.395	241.78
892.56	376.16
892.725	-355.86
892.889	-503.66
893.054	-109.62
893.219	-33.83
893.384	-11.33
893.548	-73.82
893.713	-107.94
893.878	-66.12
