Data from Ofra_1a_PS_OCX4_Reflection_1.txt Node
Date: Tue Jul 20 10:38:58 EDT 2021
User: Adam
Spectrometer: FLMT01687
Trigger mode: 0
Integration Time (sec): 1.004000E0
Scans to average: 2
Electric dark correction enabled: true
Nonlinearity correction enabled: false
Boxcar width: 2
XAxis mode: Wavelengths
Number of Pixels in Spectrum: 3648
>>>>>Begin Spectral Data<<<<<
179.494	-225.38
179.716	-229.01
179.937	581.94
180.158	-672.61
180.38	108.34
180.601	13.09
180.823	-36.59
181.044	-109.09
181.265	45.82
181.486	35.77
181.708	-91.84
181.929	9600
182.15	-130.32
182.372	-94.58
182.593	-60.17
182.814	191.51
183.035	84.32
183.257	89.38
183.478	60.16
183.699	37.34
183.92	7.19
184.141	-11.3
184.363	-6.57
184.584	-69.01
184.805	-15.63
185.026	23.07
185.247	12.52
185.468	-9.19
185.689	42.01
185.91	20.61
186.132	24.5
186.353	16.97
186.574	13.56
186.795	11.05
187.016	26.31
187.237	-7.63
187.458	-19.6
187.679	-4.75
187.9	2.74
188.121	1.7
188.342	34.46
188.563	52.55
188.784	39.74
189.005	33.18
189.226	18.29
189.447	9.19
189.667	1.14
189.888	-2.24
190.109	-17.4
190.33	16.47
190.551	19.35
190.772	24.61
190.993	3.4
191.214	-25.62
191.434	-89.25
191.655	-176.34
191.876	-109.79
192.097	-38.9
192.318	37.28
192.538	18
192.759	22.79
192.98	32.52
193.201	29.01
193.421	12.79
193.642	18.19
193.863	30.85
194.083	34.37
194.304	11.89
194.525	-3.8
194.745	18.09
194.966	15.06
195.187	12.89
195.407	21.13
195.628	21.46
195.848	1
196.069	-7.82
196.29	7.88
196.51	-2.43
196.731	-7.61
196.951	2.75
197.172	1.23
197.392	-24.74
197.613	6.71
197.833	20.71
198.054	26.13
198.274	34.2
198.495	45.31
198.715	45.83
198.936	56.76
199.156	63.46
199.377	58.34
199.597	40.35
199.817	34.69
200.038	-23.71
200.258	-9.41
200.479	21.81
200.699	32.09
200.919	34
201.14	51.6
201.36	54.9
201.58	34.27
201.801	33.22
202.021	43.26
202.241	38.65
202.461	19.94
202.682	29.53
202.902	39.62
203.122	31.19
203.342	33.61
203.563	30.97
203.783	-2.02
204.003	-11.42
204.223	0.98
204.443	12.68
204.663	6.1
204.884	53.81
205.104	56.19
205.324	73.18
205.544	29.88
205.764	45.98
205.984	31.61
206.204	27.09
206.424	-1.12
206.644	8.42
206.864	-19.71
207.084	-3.44
207.304	-5.63
207.525	7.56
207.745	33.06
207.964	36.52
208.184	46.66
208.404	37.52
208.624	37.77
208.844	26.55
209.064	45.98
209.284	34.46
209.504	26.05
209.724	22.62
209.944	3.32
210.164	-8.2
210.384	-12.76
210.604	-47.64
210.823	-62.38
211.043	-46.7
211.263	-126.58
211.483	-79.9
211.703	-32.22
211.922	-37.99
212.142	-34.82
212.362	3.68
212.582	3.1
212.801	-4.77
213.021	12.94
213.241	28.71
213.461	13.55
213.68	27.61
213.9	12.86
214.12	-1.65
214.339	-11.04
214.559	8.86
214.779	3.22
214.998	24.74
215.218	40.72
215.438	39.07
215.657	6.68
215.877	-11.93
216.096	10.08
216.316	0.68
216.535	-3.93
216.755	16.87
216.974	19.48
217.194	-14.01
217.413	-9.54
217.633	-14.56
217.852	-14.71
218.072	0.61
218.291	5.39
218.511	1.73
218.73	5.13
218.95	-6.57
219.169	-17.91
219.389	-3.75
219.608	-4.71
219.827	-1.26
220.047	10.19
220.266	-7.45
220.485	-24.53
220.705	-26.72
220.924	1.2
221.143	25.92
221.363	40.69
221.582	56.61
221.801	72.79
222.021	58.29
222.24	44.44
222.459	50.62
222.678	44.18
222.897	35.47
223.117	27.98
223.336	30.1
223.555	17.84
223.774	14.98
223.993	12.25
224.213	38.34
224.432	34.66
224.651	25.15
224.87	24.9
225.089	29.3
225.308	1.8
225.527	-5.24
225.746	-1.08
225.965	3.07
226.184	-17.51
226.404	-0.2
226.623	16.18
226.842	12.74
227.061	16.19
227.28	31.91
227.499	34.29
227.718	30.7
227.936	39.38
228.155	28.24
228.374	28.12
228.593	21.24
228.812	22.32
229.031	21.35
229.25	8.43
229.469	16.73
229.688	27.17
229.907	29.59
230.125	25.04
230.344	41.06
230.563	35.14
230.782	30.78
231.001	27.42
231.22	29.3
231.438	31.51
231.657	32.28
231.876	27.83
232.095	26.01
232.313	14.36
232.532	-5.41
232.751	-28.26
232.969	-25.53
233.188	-31.39
233.407	-16.08
233.625	3.33
233.844	12.94
234.063	9.41
234.281	15.29
234.5	18.61
234.719	8.22
234.937	-6.42
235.156	5.64
235.374	-0.94
235.593	-10.42
235.811	4.84
236.03	9.48
236.249	3.62
236.467	8.68
236.686	10.41
236.904	12.39
237.123	11.86
237.341	7.71
237.559	-4.89
237.778	22.47
237.996	-12.82
238.215	-43.33
238.433	-85.82
238.652	4.66
238.87	-23.42
239.088	-1.5
239.307	9.7
239.525	33.95
239.743	18.8
239.962	7.69
240.18	10.46
240.398	6.26
240.617	2.34
240.835	-15.8
241.053	8.23
241.271	11.93
241.49	35.76
241.708	17.61
241.926	7.09
242.144	-5.78
242.363	-18.35
242.581	-70.53
242.799	-74.22
243.017	-35.38
243.235	-13.9
243.453	-27.61
243.672	-10.91
243.89	4.54
244.108	11.99
244.326	22.13
244.544	37.26
244.762	32.28
244.98	38.93
245.198	49.72
245.416	29.93
245.634	24.21
245.852	3.87
246.07	15.17
246.288	-8.06
246.506	-3.08
246.724	-7.78
246.942	8.95
247.16	6.49
247.378	4.38
247.596	45.16
247.814	30.24
248.032	37.83
248.25	33.75
248.468	42.46
248.685	25.24
248.903	24.53
249.121	24.21
249.339	18.22
249.557	12.66
249.775	18.28
249.992	34.58
250.21	27.44
250.428	37.5
250.646	35.03
250.863	24.35
251.081	26.57
251.299	29.66
251.517	22.18
251.734	15.53
251.952	27.61
252.17	17.37
252.387	2.58
252.605	0.19
252.823	-10.67
253.04	13.24
253.258	11.61
253.475	16.9
253.693	12.68
253.911	23.58
254.128	-5.89
254.346	0.36
254.563	17.72
254.781	8.13
254.998	2.02
255.216	-7.55
255.433	-26.1
255.651	-25.81
255.868	-25.75
256.086	-11.38
256.303	11.46
256.521	22.18
256.738	18.18
256.956	31.89
257.173	16.2
257.39	7.97
257.608	1.56
257.825	9.36
258.043	-2.91
258.26	0.69
258.477	6.55
258.695	12.92
258.912	-4.52
259.129	7.93
259.346	6.14
259.564	-7.12
259.781	-6.89
259.998	13.62
260.216	20.56
260.433	11.44
260.65	10
260.867	1.73
261.084	2.55
261.302	-3.94
261.519	18.83
261.736	25.05
261.953	34.63
262.17	44.74
262.387	35.97
262.604	47.36
262.822	49.8
263.039	50.61
263.256	41.56
263.473	42.19
263.69	38.16
263.907	41.97
264.124	39.6
264.341	41.42
264.558	50.57
264.775	43
264.992	34.27
265.209	15.49
265.426	-0.55
265.643	-4.96
265.86	-20.77
266.077	-15.05
266.294	28.49
266.51	45.65
266.727	44.55
266.944	48.02
267.161	47.79
267.378	40.26
267.595	16.08
267.812	11.93
268.028	-3.54
268.245	-5.75
268.462	-4.91
268.679	19.4
268.896	26.27
269.112	32.75
269.329	26.11
269.546	40.2
269.763	48.26
269.979	36.04
270.196	29.85
270.413	34.73
270.629	19.9
270.846	0.19
271.063	2.98
271.279	14.36
271.496	4.91
271.712	19.85
271.929	24.92
272.146	37.17
272.362	35.11
272.579	21.84
272.795	-0.19
273.012	-2.2
273.228	9.13
273.445	8.38
273.661	10.4
273.878	6.37
274.094	-4.29
274.311	-14.96
274.527	-33.16
274.744	-12.9
274.96	0.17
275.177	3.99
275.393	18.93
275.609	32.05
275.826	22.91
276.042	32.36
276.259	39.4
276.475	13.71
276.691	-6.51
276.908	2.54
277.124	0.18
277.34	0.42
277.557	-2.44
277.773	-9.07
277.989	-11.43
278.205	2.27
278.422	2.99
278.638	19.09
278.854	31.96
279.07	33.53
279.286	19.93
279.503	18.38
279.719	9.83
279.935	-2.65
280.151	-8.66
280.367	4.81
280.583	-9.98
280.799	-4.54
281.016	-22.89
281.232	-12.5
281.448	-20.65
281.664	-1.33
281.88	15.58
282.096	36.59
282.312	28.91
282.528	16.38
282.744	13.85
282.96	-6.95
283.176	-39.84
283.392	-49.82
283.608	-3.1
283.824	3.37
284.04	-6.1
284.256	9.97
284.471	16.72
284.687	5.36
284.903	7.06
285.119	15.84
285.335	35.31
285.551	42.22
285.767	46.92
285.982	48.48
286.198	33.51
286.414	-15.73
286.63	-29.56
286.846	1.69
287.061	18.73
287.277	22.36
287.493	30.12
287.709	34.92
287.924	38.79
288.14	35.33
288.356	49.68
288.571	49.19
288.787	33.38
289.003	26.08
289.218	9.13
289.434	-9.88
289.65	-4.96
289.865	5.8
290.081	3.98
290.296	8.93
290.512	23.26
290.727	10.11
290.943	10.93
291.159	7.81
291.374	-12.07
291.59	-11.41
291.805	-12.66
292.021	-12.18
292.236	-1.67
292.451	18.3
292.667	15.49
292.882	31.18
293.098	33.39
293.313	23.17
293.529	28.86
293.744	17.82
293.959	11.61
294.175	19.17
294.39	16.6
294.605	21.45
294.821	16.4
295.036	19.27
295.251	23.63
295.467	25.7
295.682	27.45
295.897	30.03
296.112	27.83
296.328	29.77
296.543	24.1
296.758	14.55
296.973	12.79
297.188	10.66
297.404	-21.36
297.619	-26.68
297.834	-49.82
298.049	-13.54
298.264	-6.88
298.479	-14.6
298.694	8.67
298.909	15.81
299.125	-4.25
299.34	-3.44
299.555	11.91
299.77	21.96
299.985	16.77
300.2	25.29
300.415	26.18
300.63	22.14
300.845	0.45
301.06	-1.9
301.275	-2
301.49	-5.9
301.704	-6.32
301.919	-2.85
302.134	12.32
302.349	7.68
302.564	10.29
302.779	9.05
302.994	24.63
303.209	32.81
303.423	34.97
303.638	46.75
303.853	32.72
304.068	14.77
304.283	-2.9
304.497	-12.22
304.712	-9.81
304.927	7.78
305.142	19.89
305.356	33.05
305.571	33.57
305.786	32.12
306	39.56
306.215	40.23
306.43	36.42
306.644	30.2
306.859	21.24
307.074	18.81
307.288	17.61
307.503	21.55
307.717	26.98
307.932	38.86
308.147	33.2
308.361	22.44
308.576	11.54
308.79	21.88
309.005	10.64
309.219	16.03
309.434	13.69
309.648	1
309.863	-14.94
310.077	-13.68
310.292	8.15
310.506	18.09
310.72	31.55
310.935	35.25
311.149	35.2
311.364	22.62
311.578	22.05
311.792	29.22
312.007	30.43
312.221	23.07
312.435	7.71
312.649	27.18
312.864	20.54
313.078	27.19
313.292	35.05
313.507	53
313.721	35.08
313.935	40.07
314.149	35.38
314.363	28.75
314.578	34.35
314.792	13.87
315.006	10.87
315.22	17.67
315.434	20.07
315.648	0.36
315.862	24.91
316.077	13.79
316.291	3.7
316.505	-11.16
316.719	0.84
316.933	-6.89
317.147	-4.91
317.361	5.54
317.575	21.3
317.789	23.97
318.003	23.09
318.217	43.91
318.431	29
318.645	16.97
318.859	17.92
319.073	34.09
319.287	21.9
319.5	31.91
319.714	19.2
319.928	17.19
320.142	-3.18
320.356	-2.03
320.57	-34.95
320.784	-8.17
320.997	-24.26
321.211	-0.7
321.425	-3.13
321.639	31.21
321.853	35.13
322.066	24.68
322.28	22.09
322.494	20.69
322.707	13.16
322.921	2.16
323.135	22.64
323.349	9.52
323.562	18.43
323.776	20.15
323.989	25.37
324.203	10.74
324.417	20.14
324.63	20.1
324.844	17.57
325.057	6.82
325.271	20.64
325.485	17.72
325.698	11.75
325.912	24.06
326.125	16.84
326.339	19.25
326.552	14.22
326.766	-5
326.979	-13.44
327.193	6.19
327.406	-0.38
327.619	7.74
327.833	11.73
328.046	14.82
328.26	2.11
328.473	0.95
328.686	2.67
328.9	19.67
329.113	11.91
329.326	8.5
329.54	13.04
329.753	20.23
329.966	10.37
330.179	20.2
330.393	28.82
330.606	25.16
330.819	11.04
331.032	24.46
331.246	15.4
331.459	28.73
331.672	28.28
331.885	39.51
332.098	36.44
332.311	37.24
332.525	27.04
332.738	36.02
332.951	28
333.164	33.25
333.377	32.59
333.59	13.38
333.803	17.96
334.016	25.77
334.229	6.39
334.442	-4.39
334.655	9.64
334.868	-5.69
335.081	-5.71
335.294	-12.38
335.507	10.36
335.72	9.41
335.933	17.9
336.146	10.34
336.359	28.45
336.572	14.1
336.785	2.39
336.997	-6.51
337.21	-2.4
337.423	-31.34
337.636	-21.33
337.849	0.96
338.062	-1.98
338.274	17.81
338.487	13.9
338.7	8.1
338.913	14.24
339.125	26.57
339.338	14.56
339.551	22.13
339.763	15.93
339.976	12.33
340.189	5.58
340.402	8.24
340.614	15.03
340.827	34.06
341.039	38.69
341.252	36.55
341.465	25.5
341.677	22.44
341.89	6.73
342.102	6.25
342.315	-5.47
342.527	-5.7
342.74	-7.4
342.952	-3.68
343.165	-11.49
343.377	-1.6
343.59	-3.7
343.802	-21.76
344.015	-4.64
344.227	-7.56
344.44	-12.14
344.652	-7.57
344.864	17.35
345.077	7.77
345.289	18.06
345.502	31.37
345.714	35.18
345.926	27.37
346.139	28.19
346.351	22.6
346.563	29.85
346.775	32.1
346.988	41.63
347.2	36.2
347.412	33.49
347.624	16.89
347.837	18.12
348.049	3.87
348.261	-4.89
348.473	-9.59
348.685	-3.28
348.897	-19.2
349.11	-18.31
349.322	-9.57
349.534	-0.16
349.746	5.12
349.958	1.53
350.17	-0.78
350.382	9.42
350.594	6.11
350.806	16.51
351.018	20.65
351.23	28.04
351.442	31.99
351.654	18.38
351.866	6.23
352.078	21.52
352.29	11.46
352.502	4.35
352.714	26.56
352.926	22.96
353.138	16.74
353.35	20.78
353.561	28.16
353.773	21.03
353.985	20.86
354.197	16.98
354.409	23.33
354.621	8.25
354.832	8.04
355.044	-1.63
355.256	4.4
355.468	-4.53
355.679	13.57
355.891	21.59
356.103	22.39
356.314	3.64
356.526	-10.49
356.738	-19.57
356.949	-28.86
357.161	-6.17
357.373	16.22
357.584	32.17
357.796	33.37
358.008	38.43
358.219	23.79
358.431	7.25
358.642	-0.54
358.854	-1.18
359.065	-19.37
359.277	-7.79
359.488	-8.98
359.7	-17.18
359.911	-29.66
360.123	-7.04
360.334	-25.18
360.546	-8.06
360.757	9.75
360.969	21.33
361.18	24.75
361.391	36.01
361.603	31.86
361.814	35.39
362.025	41.09
362.237	32.58
362.448	31.4
362.659	27.18
362.871	13.04
363.082	1.08
363.293	-11.73
363.504	-24.33
363.716	-16.11
363.927	5.34
364.138	-24.2
364.349	-17.35
364.56	-14.92
364.772	-3.74
364.983	-14.17
365.194	17.22
365.405	26.22
365.616	31.56
365.827	21.24
366.038	36.23
366.25	28.49
366.461	25.44
366.672	30.41
366.883	24.27
367.094	20.92
367.305	12.13
367.516	5.75
367.727	-4.92
367.938	10.62
368.149	1.06
368.36	1.3
368.571	-0.19
368.781	-12.95
368.992	-21.54
369.203	-13.52
369.414	-7.84
369.625	-7.2
369.836	11.88
370.047	15.63
370.258	13.74
370.468	11.32
370.679	16.85
370.89	1.32
371.101	9.23
371.312	1.46
371.522	-2.73
371.733	-0.14
371.944	-2.17
372.155	-4.11
372.365	18.09
372.576	22.66
372.787	16.95
372.997	23.15
373.208	5.59
373.419	-10.71
373.629	-9.63
373.84	-7.74
374.05	-12.6
374.261	-0.32
374.472	14.61
374.682	14.39
374.893	16.87
375.103	27.46
375.314	28.42
375.524	30.34
375.735	45.96
375.945	37.03
376.156	35.4
376.366	42.26
376.577	29.98
376.787	15.54
376.997	26.66
377.208	22.62
377.418	19
377.629	23.16
377.839	24.61
378.049	16.49
378.26	6.72
378.47	-8.02
378.68	-6.56
378.89	1.99
379.101	11.19
379.311	23.24
379.521	26.51
379.732	25.72
379.942	21.34
380.152	13.75
380.362	12.47
380.572	24.25
380.783	24.8
380.993	18.44
381.203	13.21
381.413	11.51
381.623	-0.18
381.833	1.63
382.043	-3.17
382.253	5.88
382.463	15.77
382.674	17.56
382.884	24.2
383.094	19.98
383.304	21.68
383.514	18.15
383.724	15.65
383.934	-0.58
384.144	7.98
384.353	5.84
384.563	3.99
384.773	6.18
384.983	8.14
385.193	2.87
385.403	3.61
385.613	1.42
385.823	0.96
386.033	-1.35
386.242	-1.88
386.452	-12.74
386.662	-10.18
386.872	-1.66
387.082	4.1
387.291	4.58
387.501	9.91
387.711	10.06
387.921	2.36
388.13	4.16
388.34	2.73
388.55	3.21
388.759	-4.62
388.969	-1.58
389.179	-2.24
389.388	-1.92
389.598	-4.39
389.807	-0.14
390.017	-0.44
390.227	-1.62
390.436	0.36
390.646	1.91
390.855	2.77
391.065	1.65
391.274	3.01
391.484	2.2
391.693	-1.54
391.903	-1.69
392.112	-1.73
392.322	-3.77
392.531	-3.39
392.74	-0.86
392.95	0.16
393.159	-0.11
393.369	1.55
393.578	1.35
393.787	3.06
393.997	2.41
394.206	1.56
394.415	2
394.625	1.4
394.834	0.11
395.043	0.91
395.252	3.76
395.462	3.29
395.671	3.28
395.88	5.06
396.089	4.94
396.298	3.18
396.508	2.81
396.717	3.17
396.926	1.83
397.135	2.47
397.344	2.41
397.553	2.4
397.762	3.14
397.971	2.72
398.181	1.45
398.39	1.57
398.599	1.76
398.808	1.78
399.017	2.85
399.226	3.76
399.435	3.84
399.644	3.97
399.853	3.74
400.062	3.21
400.27	2.58
400.479	2.77
400.688	2.68
400.897	2.72
401.106	2.45
401.315	2.45
401.524	2.52
401.733	2.11
401.941	2.1
402.15	2.16
402.359	2.41
402.568	2.23
402.777	2.68
402.985	2.43
403.194	2.49
403.403	2.64
403.612	2.62
403.82	2.36
404.029	2.54
404.238	2.6
404.446	2.56
404.655	2.65
404.864	2.79
405.072	2.7
405.281	2.63
405.489	2.61
405.698	2.65
405.906	2.82
406.115	2.81
406.324	2.89
406.532	2.76
406.741	2.65
406.949	2.48
407.158	2.54
407.366	2.29
407.574	2.36
407.783	2.39
407.991	2.35
408.2	2.38
408.408	2.6
408.617	2.54
408.825	2.42
409.033	2.44
409.242	2.41
409.45	2.34
409.658	2.32
409.867	2.4
410.075	2.41
410.283	2.27
410.491	2.17
410.7	2.18
410.908	2.27
411.116	2.34
411.324	2.51
411.533	2.48
411.741	2.42
411.949	2.32
412.157	2.06
412.365	1.94
412.573	2
412.781	2.04
412.99	2.04
413.198	2.14
413.406	2.27
413.614	2.39
413.822	2.51
414.03	2.55
414.238	2.67
414.446	2.63
414.654	2.53
414.862	2.39
415.07	2.28
415.278	2.28
415.486	2.13
415.694	2.28
415.902	2.31
416.109	2.33
416.317	2.29
416.525	2.36
416.733	2.2
416.941	2.19
417.149	2.17
417.357	2.2
417.564	2.25
417.772	2.42
417.98	2.5
418.188	2.49
418.395	2.27
418.603	2.11
418.811	1.92
419.019	1.83
419.226	1.96
419.434	2.09
419.642	2.21
419.849	2.13
420.057	2.11
420.265	2.05
420.472	2.09
420.68	2.13
420.887	2.32
421.095	2.38
421.302	2.4
421.51	2.27
421.717	2.28
421.925	2.2
422.132	2.24
422.34	1.95
422.547	1.9
422.755	1.99
422.962	2.11
423.17	1.94
423.377	2.13
423.585	2.35
423.792	2.16
423.999	2
424.207	1.92
424.414	1.99
424.621	1.86
424.829	1.86
425.036	1.87
425.243	2.09
425.451	2.06
425.658	2.12
425.865	2.08
426.072	2.14
426.28	2.12
426.487	2.1
426.694	2.05
426.901	2.19
427.108	2.09
427.315	1.97
427.523	1.87
427.73	1.85
427.937	1.71
428.144	1.8
428.351	1.79
428.558	1.85
428.765	1.97
428.972	2
429.179	1.75
429.386	1.92
429.593	1.84
429.8	1.81
430.007	1.86
430.214	2.03
430.421	2
430.628	2.05
430.835	1.99
431.042	1.9
431.249	1.95
431.456	1.88
431.662	1.98
431.869	2.03
432.076	2.07
432.283	2.09
432.49	2.04
432.697	2
432.903	1.93
433.11	2.09
433.317	2.07
433.524	2.09
433.73	2.03
433.937	2.14
434.144	1.92
434.35	1.95
434.557	2.06
434.764	2.17
434.97	2
435.177	2.21
435.384	2.22
435.59	2.21
435.797	2.21
436.003	2.39
436.21	2.24
436.416	2.25
436.623	2.34
436.829	2.3
437.036	2.22
437.242	2.26
437.449	2.22
437.655	2.15
437.862	2.15
438.068	2.09
438.275	2.28
438.481	2.29
438.687	2.22
438.894	2.37
439.1	2.36
439.307	2.32
439.513	2.34
439.719	2.48
439.926	2.41
440.132	2.53
440.338	2.48
440.544	2.43
440.751	2.32
440.957	2.36
441.163	2.34
441.369	2.3
441.575	2.28
441.782	2.36
441.988	2.35
442.194	2.33
442.4	2.34
442.606	2.5
442.812	2.48
443.018	2.39
443.224	2.44
443.431	2.45
443.637	2.39
443.843	2.4
444.049	2.51
444.255	2.55
444.461	2.47
444.667	2.43
444.873	2.45
445.079	2.36
445.284	2.38
445.49	2.44
445.696	2.43
445.902	2.34
446.108	2.41
446.314	2.4
446.52	2.43
446.726	2.5
446.931	2.53
447.137	2.55
447.343	2.56
447.549	2.59
447.755	2.64
447.96	2.72
448.166	2.78
448.372	2.78
448.578	2.69
448.783	2.6
448.989	2.6
449.195	2.46
449.4	2.48
449.606	2.48
449.812	2.42
450.017	2.39
450.223	2.45
450.428	2.36
450.634	2.4
450.84	2.46
451.045	2.52
451.251	2.55
451.456	2.66
451.662	2.68
451.867	2.73
452.073	2.75
452.278	2.78
452.483	2.7
452.689	2.74
452.894	2.77
453.1	2.67
453.305	2.67
453.51	2.73
453.716	2.73
453.921	2.7
454.127	2.73
454.332	2.69
454.537	2.61
454.742	2.54
454.948	2.49
455.153	2.48
455.358	2.47
455.563	2.58
455.769	2.59
455.974	2.61
456.179	2.6
456.384	2.54
456.589	2.41
456.795	2.47
457	2.44
457.205	2.45
457.41	2.49
457.615	2.5
457.82	2.52
458.025	2.52
458.23	2.55
458.435	2.57
458.64	2.65
458.845	2.6
459.05	2.7
459.255	2.71
459.46	2.67
459.665	2.63
459.87	2.61
460.075	2.64
460.28	2.72
460.485	2.76
460.69	2.73
460.895	2.84
461.099	2.7
461.304	2.56
461.509	2.57
461.714	2.69
461.919	2.59
462.123	2.61
462.328	2.54
462.533	2.5
462.738	2.36
462.942	2.36
463.147	2.43
463.352	2.5
463.556	2.52
463.761	2.59
463.966	2.55
464.17	2.58
464.375	2.72
464.58	2.68
464.784	2.69
464.989	2.75
465.193	2.71
465.398	2.64
465.602	2.75
465.807	2.86
466.011	2.87
466.216	2.87
466.42	2.93
466.625	2.98
466.829	2.86
467.034	2.97
467.238	3.07
467.443	3.04
467.647	2.94
467.851	2.99
468.056	2.94
468.26	2.89
468.464	2.94
468.669	3.02
468.873	3.04
469.077	3.03
469.282	3.05
469.486	3.04
469.69	3.09
469.894	3.09
470.099	3.08
470.303	3.06
470.507	3.09
470.711	3.05
470.915	3.09
471.119	3.16
471.324	3.17
471.528	3.15
471.732	3.12
471.936	3.12
472.14	3.09
472.344	3.23
472.548	3.3
472.752	3.25
472.956	3.28
473.16	3.36
473.364	3.26
473.568	3.17
473.772	3.23
473.976	3.24
474.18	3.12
474.384	3.06
474.588	3.11
474.792	3.08
474.995	3.06
475.199	3.12
475.403	3.21
475.607	3.18
475.811	3.29
476.015	3.26
476.218	3.2
476.422	3.23
476.626	3.29
476.83	3.31
477.033	3.39
477.237	3.45
477.441	3.32
477.644	3.29
477.848	3.29
478.052	3.29
478.255	3.32
478.459	3.4
478.663	3.49
478.866	3.53
479.07	3.51
479.273	3.59
479.477	3.69
479.681	3.66
479.884	3.67
480.088	3.71
480.291	3.66
480.495	3.63
480.698	3.64
480.901	3.67
481.105	3.7
481.308	3.71
481.512	3.75
481.715	3.84
481.919	3.88
482.122	3.88
482.325	3.97
482.529	3.92
482.732	3.82
482.935	3.78
483.138	3.73
483.342	3.64
483.545	3.76
483.748	3.84
483.952	3.89
484.155	4.01
484.358	4.05
484.561	4.02
484.764	4.03
484.967	3.97
485.171	3.97
485.374	3.94
485.577	3.87
485.78	3.86
485.983	3.84
486.186	3.82
486.389	3.9
486.592	3.93
486.795	3.94
486.998	3.97
487.201	4.03
487.404	4.15
487.607	4.27
487.81	4.27
488.013	4.38
488.216	4.36
488.419	4.21
488.622	4.19
488.825	4.24
489.028	4.21
489.231	4.32
489.433	4.45
489.636	4.49
489.839	4.56
490.042	4.64
490.245	4.62
490.447	4.6
490.65	4.66
490.853	4.69
491.056	4.73
491.258	4.78
491.461	4.84
491.664	4.86
491.866	4.92
492.069	5.05
492.272	5.1
492.474	5.15
492.677	5.25
492.879	5.27
493.082	5.29
493.285	5.43
493.487	5.55
493.69	5.55
493.892	5.63
494.095	5.65
494.297	5.67
494.5	5.7
494.702	5.85
494.905	5.95
495.107	6.02
495.309	6.08
495.512	6.13
495.714	6.19
495.917	6.28
496.119	6.43
496.321	6.46
496.524	6.59
496.726	6.64
496.928	6.68
497.13	6.64
497.333	6.75
497.535	6.83
497.737	6.91
497.939	6.97
498.142	7.1
498.344	7.18
498.546	7.24
498.748	7.33
498.95	7.39
499.152	7.52
499.355	7.49
499.557	7.51
499.759	7.54
499.961	7.67
500.163	7.7
500.365	7.83
500.567	7.89
500.769	7.94
500.971	8
501.173	7.92
501.375	7.99
501.577	8.05
501.779	8.04
501.981	8.04
502.183	8.12
502.385	8.17
502.587	8.18
502.788	8.25
502.99	8.25
503.192	8.33
503.394	8.28
503.596	8.29
503.798	8.24
503.999	8.27
504.201	8.29
504.403	8.3
504.605	8.37
504.806	8.44
505.008	8.44
505.21	8.38
505.411	8.37
505.613	8.27
505.815	8.24
506.016	8.19
506.218	8.17
506.42	8.15
506.621	8.21
506.823	8.2
507.024	8.17
507.226	8.15
507.427	8.13
507.629	8.06
507.83	8.06
508.032	8.07
508.233	8.08
508.435	8.06
508.636	8.01
508.838	7.95
509.039	7.86
509.24	7.79
509.442	7.77
509.643	7.79
509.845	7.79
510.046	7.84
510.247	7.88
510.448	7.88
510.65	7.84
510.851	7.83
511.052	7.76
511.254	7.78
511.455	7.71
511.656	7.66
511.857	7.62
512.058	7.61
512.26	7.51
512.461	7.5
512.662	7.52
512.863	7.46
513.064	7.48
513.265	7.46
513.466	7.49
513.667	7.49
513.868	7.45
514.069	7.39
514.27	7.44
514.471	7.33
514.672	7.34
514.873	7.37
515.074	7.44
515.275	7.35
515.476	7.45
515.677	7.47
515.878	7.52
516.079	7.48
516.28	7.55
516.481	7.53
516.682	7.48
516.882	7.44
517.083	7.41
517.284	7.42
517.485	7.39
517.686	7.36
517.886	7.37
518.087	7.38
518.288	7.3
518.488	7.32
518.689	7.35
518.89	7.34
519.091	7.38
519.291	7.39
519.492	7.41
519.692	7.38
519.893	7.4
520.094	7.36
520.294	7.37
520.495	7.27
520.695	7.26
520.896	7.26
521.096	7.29
521.297	7.3
521.497	7.3
521.698	7.35
521.898	7.36
522.099	7.36
522.299	7.4
522.499	7.46
522.7	7.47
522.9	7.45
523.101	7.4
523.301	7.35
523.501	7.32
523.702	7.33
523.902	7.3
524.102	7.39
524.302	7.44
524.503	7.43
524.703	7.39
524.903	7.41
525.103	7.33
525.304	7.31
525.504	7.43
525.704	7.45
525.904	7.44
526.104	7.48
526.304	7.5
526.504	7.42
526.705	7.41
526.905	7.44
527.105	7.45
527.305	7.43
527.505	7.43
527.705	7.44
527.905	7.51
528.105	7.49
528.305	7.55
528.505	7.57
528.705	7.65
528.905	7.6
529.105	7.64
529.304	7.62
529.504	7.7
529.704	7.64
529.904	7.67
530.104	7.68
530.304	7.7
530.503	7.68
530.703	7.7
530.903	7.7
531.103	7.81
531.303	7.84
531.502	7.85
531.702	7.88
531.902	7.93
532.101	7.86
532.301	7.89
532.501	7.9
532.7	7.97
532.9	8.04
533.1	8.04
533.299	8.01
533.499	8.05
533.698	8.03
533.898	8.03
534.097	8.06
534.297	8.06
534.496	8.07
534.696	8.12
534.895	8.19
535.095	8.29
535.294	8.32
535.494	8.32
535.693	8.32
535.892	8.27
536.092	8.28
536.291	8.34
536.491	8.36
536.69	8.35
536.889	8.36
537.088	8.37
537.288	8.31
537.487	8.42
537.686	8.41
537.886	8.46
538.085	8.46
538.284	8.57
538.483	8.53
538.682	8.58
538.882	8.59
539.081	8.64
539.28	8.64
539.479	8.65
539.678	8.71
539.877	8.79
540.076	8.79
540.275	8.83
540.474	8.87
540.673	8.94
540.872	8.91
541.071	8.92
541.27	8.95
541.469	8.97
541.668	8.95
541.867	9
542.066	9.04
542.265	9.09
542.464	9.13
542.663	9.17
542.862	9.16
543.06	9.22
543.259	9.29
543.458	9.32
543.657	9.36
543.856	9.45
544.054	9.53
544.253	9.53
544.452	9.64
544.651	9.67
544.849	9.68
545.048	9.68
545.247	9.77
545.445	9.75
545.644	9.84
545.843	9.88
546.041	9.92
546.24	9.9
546.438	9.95
546.637	10.01
546.836	10.09
547.034	10.14
547.233	10.28
547.431	10.34
547.63	10.36
547.828	10.35
548.027	10.42
548.225	10.42
548.423	10.42
548.622	10.48
548.82	10.51
549.019	10.53
549.217	10.58
549.415	10.67
549.614	10.81
549.812	10.96
550.01	11
550.209	11.14
550.407	11.19
550.605	11.13
550.803	11.14
551.002	11.23
551.2	11.2
551.398	11.3
551.596	11.47
551.794	11.6
551.993	11.64
552.191	11.72
552.389	11.83
552.587	11.89
552.785	11.88
552.983	12.01
553.181	12.07
553.379	12.12
553.577	12.18
553.775	12.34
553.973	12.4
554.171	12.56
554.369	12.64
554.567	12.78
554.765	12.81
554.963	12.87
555.161	12.91
555.359	12.93
555.557	12.91
555.755	13.05
555.952	13.19
556.15	13.29
556.348	13.44
556.546	13.62
556.744	13.65
556.941	13.65
557.139	13.72
557.337	13.75
557.535	13.77
557.732	13.87
557.93	14.01
558.128	14.11
558.325	14.26
558.523	14.41
558.721	14.51
558.918	14.66
559.116	14.8
559.313	14.92
559.511	15.03
559.708	15.21
559.906	15.32
560.104	15.36
560.301	15.4
560.498	15.52
560.696	15.63
560.893	15.7
561.091	15.9
561.288	16.08
561.486	16.09
561.683	16.14
561.88	16.3
562.078	16.33
562.275	16.45
562.473	16.54
562.67	16.67
562.867	16.75
563.064	16.91
563.262	16.94
563.459	17.1
563.656	17.13
563.853	17.2
564.051	17.28
564.248	17.35
564.445	17.51
564.642	17.68
564.839	17.86
565.036	17.93
565.234	18.07
565.431	18.18
565.628	18.21
565.825	18.25
566.022	18.4
566.219	18.49
566.416	18.52
566.613	18.72
566.81	18.84
567.007	18.96
567.204	19.12
567.401	19.24
567.598	19.3
567.795	19.29
567.991	19.3
568.188	19.33
568.385	19.36
568.582	19.44
568.779	19.65
568.976	19.77
569.172	19.88
569.369	20.05
569.566	20.11
569.763	20.06
569.96	20.16
570.156	20.2
570.353	20.24
570.55	20.4
570.746	20.6
570.943	20.67
571.14	20.76
571.336	20.79
571.533	20.78
571.729	20.82
571.926	20.91
572.123	20.99
572.319	21.11
572.516	21.19
572.712	21.27
572.909	21.23
573.105	21.33
573.302	21.4
573.498	21.38
573.695	21.44
573.891	21.49
574.087	21.37
574.284	21.41
574.48	21.47
574.677	21.5
574.873	21.56
575.069	21.72
575.266	21.77
575.462	21.83
575.658	21.9
575.854	22
576.051	22
576.247	21.91
576.443	21.98
576.639	21.96
576.835	21.98
577.032	22.03
577.228	22.18
577.424	22.09
577.62	22
577.816	22.04
578.012	22.07
578.208	22.13
578.404	22.18
578.6	22.33
578.796	22.31
578.993	22.31
579.189	22.3
579.384	22.36
579.58	22.42
579.776	22.44
579.972	22.43
580.168	22.42
580.364	22.5
580.56	22.38
580.756	22.41
580.952	22.43
581.148	22.43
581.343	22.36
581.539	22.39
581.735	22.37
581.931	22.32
582.127	22.3
582.322	22.34
582.518	22.24
582.714	22.24
582.909	22.34
583.105	22.24
583.301	22.21
583.496	22.32
583.692	22.17
583.888	22.01
584.083	22.1
584.279	21.97
584.474	21.84
584.67	21.92
584.866	21.98
585.061	21.92
585.257	21.98
585.452	22.02
585.648	21.94
585.843	21.94
586.039	21.96
586.234	22.01
586.429	22.05
586.625	22.09
586.82	22.09
587.015	22.11
587.211	22.1
587.406	22.08
587.601	22.12
587.797	22.15
587.992	22.07
588.187	22.03
588.383	22.1
588.578	22.14
588.773	22.19
588.968	22.32
589.163	22.44
589.359	22.39
589.554	22.28
589.749	22.33
589.944	22.26
590.139	22.23
590.334	22.38
590.529	22.52
590.724	22.52
590.919	22.61
591.114	22.7
591.309	22.63
591.504	22.68
591.699	22.71
591.894	22.65
592.089	22.63
592.284	22.69
592.479	22.7
592.674	22.75
592.869	22.8
593.064	22.82
593.259	22.81
593.454	22.83
593.648	22.9
593.843	22.94
594.038	23.02
594.233	23.17
594.428	23.31
594.622	23.35
594.817	23.48
595.012	23.5
595.206	23.58
595.401	23.59
595.596	23.64
595.79	23.7
595.985	23.83
596.18	23.87
596.374	24.02
596.569	24.08
596.763	24.19
596.958	24.26
597.153	24.34
597.347	24.35
597.542	24.44
597.736	24.49
597.931	24.65
598.125	24.77
598.319	24.83
598.514	24.98
598.708	25.1
598.903	25.11
599.097	25.19
599.291	25.27
599.486	25.26
599.68	25.32
599.874	25.33
600.069	25.35
600.263	25.5
600.457	25.56
600.651	25.59
600.846	25.67
601.04	25.7
601.234	25.68
601.428	25.75
601.622	25.83
601.817	25.83
602.011	25.9
602.205	25.92
602.399	25.8
602.593	25.81
602.787	25.8
602.981	25.79
603.175	25.8
603.369	25.88
603.563	25.94
603.757	25.98
603.951	25.9
604.145	25.87
604.339	26.01
604.533	25.95
604.727	25.95
604.921	26.07
605.115	26.07
605.309	25.93
605.502	25.92
605.696	25.91
605.89	25.88
606.084	25.81
606.278	25.74
606.471	25.62
606.665	25.57
606.859	25.51
607.053	25.5
607.246	25.51
607.44	25.5
607.634	25.4
607.827	25.26
608.021	25.19
608.214	25.06
608.408	25
608.602	24.94
608.795	24.91
608.989	24.87
609.182	24.9
609.376	24.87
609.569	24.89
609.763	24.86
609.956	24.85
610.15	24.73
610.343	24.62
610.537	24.49
610.73	24.29
610.923	24.13
611.117	24.03
611.31	23.86
611.504	23.85
611.697	23.93
611.89	23.79
612.083	23.62
612.277	23.64
612.47	23.42
612.663	23.22
612.856	23.17
613.05	23.29
613.243	23.21
613.436	23.17
613.629	23.11
613.822	23.03
614.015	22.86
614.209	22.74
614.402	22.66
614.595	22.62
614.788	22.58
614.981	22.39
615.174	22.38
615.367	22.26
615.56	22.13
615.753	22.11
615.946	22.16
616.139	22.11
616.332	22.19
616.525	22.16
616.718	22.15
616.911	22.03
617.103	21.98
617.296	21.86
617.489	21.79
617.682	21.66
617.875	21.64
618.067	21.51
618.26	21.49
618.453	21.51
618.646	21.48
618.838	21.44
619.031	21.44
619.224	21.45
619.417	21.45
619.609	21.44
619.802	21.4
619.994	21.44
620.187	21.3
620.38	21.18
620.572	21.19
620.765	21.21
620.957	21.09
621.15	21.04
621.342	21.1
621.535	20.91
621.727	20.87
621.92	20.87
622.112	20.84
622.305	20.77
622.497	20.85
622.69	20.76
622.882	20.74
623.074	20.84
623.267	20.79
623.459	20.7
623.651	20.76
623.844	20.76
624.036	20.79
624.228	20.74
624.42	20.68
624.613	20.61
624.805	20.51
624.997	20.36
625.189	20.37
625.381	20.34
625.574	20.27
625.766	20.22
625.958	20.23
626.15	20.23
626.342	20.21
626.534	20.16
626.726	20.19
626.918	20.08
627.11	20.02
627.302	20.05
627.494	20.13
627.686	20.14
627.878	20.12
628.07	20.09
628.262	20.08
628.454	19.93
628.646	19.72
628.838	19.81
629.029	19.7
629.221	19.57
629.413	19.61
629.605	19.65
629.797	19.6
629.989	19.6
630.18	19.64
630.372	19.62
630.564	19.63
630.755	19.53
630.947	19.59
631.139	19.55
631.33	19.45
631.522	19.41
631.714	19.33
631.905	19.25
632.097	19.16
632.289	19.21
632.48	19.14
632.672	19.23
632.863	19.15
633.055	19.12
633.246	19.07
633.438	19.13
633.629	19.1
633.821	19.07
634.012	19.14
634.203	19.12
634.395	19.07
634.586	19.06
634.777	19.07
634.969	18.97
635.16	18.94
635.351	18.91
635.543	18.83
635.734	18.82
635.925	18.85
636.117	18.86
636.308	18.82
636.499	18.8
636.69	18.84
636.881	18.84
637.073	18.84
637.264	18.9
637.455	18.94
637.646	18.9
637.837	18.86
638.028	18.8
638.219	18.78
638.41	18.77
638.601	18.74
638.792	18.78
638.983	18.81
639.174	18.69
639.365	18.63
639.556	18.56
639.747	18.51
639.938	18.48
640.129	18.52
640.32	18.51
640.511	18.57
640.701	18.62
640.892	18.56
641.083	18.51
641.274	18.42
641.465	18.38
641.655	18.36
641.846	18.33
642.037	18.3
642.228	18.29
642.418	18.21
642.609	18.17
642.8	18.24
642.99	18.31
643.181	18.33
643.372	18.29
643.562	18.24
643.753	18.12
643.943	17.97
644.134	17.84
644.324	17.86
644.515	17.83
644.705	17.81
644.896	17.86
645.086	17.94
645.277	17.9
645.467	17.89
645.658	17.8
645.848	17.81
646.038	17.74
646.229	17.73
646.419	17.61
646.61	17.7
646.8	17.64
646.99	17.63
647.18	17.6
647.371	17.63
647.561	17.58
647.751	17.53
647.941	17.56
648.132	17.47
648.322	17.37
648.512	17.38
648.702	17.46
648.892	17.44
649.082	17.54
649.272	17.58
649.462	17.61
649.653	17.44
649.843	17.36
650.033	17.31
650.223	17.31
650.413	17.29
650.603	17.32
650.793	17.28
650.983	17.19
651.172	17.15
651.362	17.07
651.552	16.96
651.742	16.99
651.932	16.96
652.122	16.94
652.312	16.78
652.502	16.67
652.691	16.54
652.881	16.48
653.071	16.34
653.261	16.18
653.45	16.17
653.64	16.03
653.83	15.93
654.019	15.81
654.209	15.82
654.399	15.66
654.588	15.55
654.778	15.33
654.968	15.22
655.157	15
655.347	14.82
655.536	14.56
655.726	14.31
655.915	14.17
656.105	13.98
656.294	13.79
656.484	13.77
656.673	13.71
656.863	13.55
657.052	13.41
657.241	13.34
657.431	13.14
657.62	13.1
657.809	12.81
657.999	12.67
658.188	12.49
658.377	12.27
658.567	11.95
658.756	11.92
658.945	11.81
659.134	11.64
659.324	11.47
659.513	11.33
659.702	11.1
659.891	10.89
660.08	10.72
660.269	10.56
660.458	10.41
660.648	10.22
660.837	10.08
661.026	9.82
661.215	9.69
661.404	9.47
661.593	9.38
661.782	9.19
661.971	9
662.16	8.89
662.349	8.69
662.538	8.53
662.726	8.41
662.915	8.42
663.104	8.14
663.293	8.2
663.482	7.93
663.671	7.72
663.86	7.57
664.048	7.64
664.237	7.4
664.426	7.44
664.615	7.33
664.803	7.19
664.992	7
665.181	6.89
665.369	6.69
665.558	6.66
665.747	6.65
665.935	6.56
666.124	6.51
666.312	6.48
666.501	6.39
666.69	6.37
666.878	6.3
667.067	6.16
667.255	6.11
667.444	6.09
667.632	6.01
667.82	5.94
668.009	5.92
668.197	5.94
668.386	5.78
668.574	5.65
668.762	5.66
668.951	5.64
669.139	5.58
669.327	5.61
669.516	5.57
669.704	5.45
669.892	5.38
670.08	5.3
670.269	5.31
670.457	5.38
670.645	5.33
670.833	5.43
671.021	5.5
671.21	5.41
671.398	5.33
671.586	5.36
671.774	5.36
671.962	5.32
672.15	5.46
672.338	5.56
672.526	5.68
672.714	5.64
672.902	5.65
673.09	5.65
673.278	5.62
673.466	5.65
673.654	5.63
673.842	5.71
674.03	5.73
674.218	5.85
674.405	5.87
674.593	5.99
674.781	5.97
674.969	6.06
675.157	6.06
675.344	5.95
675.532	5.95
675.72	6
675.908	5.95
676.095	5.95
676.283	6.12
676.471	6.21
676.658	6.29
676.846	6.34
677.033	6.37
677.221	6.49
677.409	6.52
677.596	6.55
677.784	6.74
677.971	6.79
678.159	6.82
678.346	6.92
678.534	7.01
678.721	7.04
678.909	7.19
679.096	7.3
679.283	7.33
679.471	7.46
679.658	7.56
679.846	7.58
680.033	7.71
680.22	7.93
680.408	8.02
680.595	8.08
680.782	8.26
680.969	8.43
681.157	8.47
681.344	8.51
681.531	8.64
681.718	8.73
681.905	8.79
682.093	8.99
682.28	9.24
682.467	9.35
682.654	9.54
682.841	9.76
683.028	9.77
683.215	9.94
683.402	10.17
683.589	10.26
683.776	10.39
683.963	10.74
684.15	10.98
684.337	11.26
684.524	11.58
684.711	11.87
684.898	11.98
685.085	12.19
685.271	12.45
685.458	12.78
685.645	12.94
685.832	13.39
686.019	13.69
686.205	14
686.392	14.42
686.579	14.89
686.766	15.29
686.952	15.79
687.139	16.26
687.326	16.69
687.512	17.04
687.699	17.53
687.886	17.82
688.072	18.2
688.259	18.58
688.445	19.13
688.632	19.56
688.818	20.24
689.005	20.73
689.191	21.25
689.378	21.89
689.564	22.51
689.751	23.14
689.937	23.95
690.124	24.81
690.31	25.19
690.496	25.72
690.683	26.34
690.869	26.9
691.055	27.52
691.242	28.37
691.428	29.12
691.614	29.89
691.8	30.51
691.987	31.21
692.173	32.06
692.359	32.89
692.545	33.62
692.731	34.6
692.918	35.11
693.104	35.93
693.29	36.57
693.476	37.31
693.662	37.97
693.848	38.97
694.034	39.35
694.22	40.31
694.406	40.91
694.592	41.62
694.778	42.32
694.964	43.3
695.15	43.89
695.336	44.77
695.522	45.35
695.708	46.19
695.894	46.86
696.08	47.46
696.265	48.27
696.451	49.28
696.637	49.9
696.823	50.64
697.009	51.57
697.194	52.17
697.38	52.63
697.566	53.1
697.751	53.88
697.937	54.6
698.123	55.07
698.308	55.81
698.494	57.01
698.68	57.63
698.865	58.14
699.051	58.92
699.236	59.46
699.422	59.67
699.607	60.25
699.793	61.17
699.978	61.64
700.164	62.19
700.349	62.93
700.535	63.29
700.72	63.51
700.906	64.09
701.091	64.66
701.276	65.03
701.462	65.51
701.647	65.81
701.832	66.39
702.018	66.88
702.203	67.33
702.388	67.69
702.573	68.23
702.759	68.72
702.944	69.06
703.129	69.28
703.314	69.64
703.499	70.15
703.684	70.48
703.87	70.87
704.055	71.11
704.24	71.87
704.425	72.12
704.61	72.22
704.795	72.99
704.98	73.38
705.165	73.4
705.35	73.72
705.535	74.31
705.72	73.99
705.905	74.35
706.09	75.07
706.275	75.46
706.459	75.71
706.644	75.83
706.829	76.26
707.014	76.32
707.199	76.61
707.384	76.78
707.568	77.42
707.753	77.84
707.938	78.36
708.123	78.24
708.307	78.5
708.492	78.9
708.677	79.1
708.861	79.02
709.046	79.14
709.231	79.25
709.415	79.17
709.6	79.19
709.784	79.51
709.969	80.23
710.153	80.32
710.338	80.73
710.522	80.95
710.707	81.13
710.891	80.94
711.076	81.03
711.26	80.95
711.445	81.18
711.629	81.11
711.813	81.38
711.998	81.9
712.182	82.08
712.366	82.63
712.551	82.78
712.735	82.95
712.919	83.36
713.103	84
713.288	83.81
713.472	84.27
713.656	84.09
713.84	83.89
714.024	83.67
714.208	83.32
714.393	83.1
714.577	83.56
714.761	83.7
714.945	83.57
715.129	84.21
715.313	84.44
715.497	84.45
715.681	84.08
715.865	84.18
716.049	84.2
716.233	83.96
716.417	83.69
716.601	83.98
716.785	84.25
716.968	83.89
717.152	84.29
717.336	84.91
717.52	85.45
717.704	85.68
717.888	86.01
718.071	86.06
718.255	86.11
718.439	85.6
718.622	85.73
718.806	85.7
718.99	85.34
719.174	85.28
719.357	85.82
719.541	85.74
719.724	85.91
719.908	86.32
720.092	86.2
720.275	86.14
720.459	86.39
720.642	86.57
720.826	86.73
721.009	86.8
721.193	86.39
721.376	86.03
721.559	85.34
721.743	86.02
721.926	86.39
722.11	87.35
722.293	88.25
722.476	89.15
722.66	88.98
722.843	88.58
723.026	88.33
723.21	87.73
723.393	87.9
723.576	87.4
723.759	88
723.942	87.82
724.126	87.99
724.309	87.77
724.492	87.89
724.675	87.71
724.858	88.47
725.041	88.48
725.224	88.61
725.407	88.73
725.59	88.84
725.774	88.25
725.957	88.88
726.14	89.1
726.322	89.04
726.505	89.32
726.688	89.68
726.871	89.19
727.054	89.39
727.237	89.56
727.42	89.74
727.603	89.63
727.786	89.57
727.968	88.82
728.151	88.62
728.334	88.25
728.517	88.85
728.699	88.96
728.882	89.45
729.065	89.72
729.248	90.07
729.43	89.81
729.613	89.99
729.796	90.6
729.978	90.72
730.161	90.73
730.343	90.47
730.526	90.58
730.708	90.21
730.891	90.69
731.073	90.37
731.256	90.55
731.438	90.93
731.621	90.71
731.803	90.03
731.986	90.38
732.168	90.61
732.35	90.51
732.533	90.53
732.715	90.62
732.898	90.54
733.08	90.29
733.262	90.06
733.444	90.83
733.627	91.25
733.809	91.45
733.991	91.5
734.173	91.39
734.355	91.13
734.538	91.45
734.72	91.02
734.902	91.45
735.084	91.96
735.266	91.76
735.448	91.57
735.63	92.48
735.812	92.3
735.994	92.06
736.176	92.19
736.358	92.19
736.54	92.29
736.722	92.34
736.904	92.6
737.086	92.28
737.268	93
737.45	93.15
737.632	93.38
737.814	93.57
737.995	93.84
738.177	92.54
738.359	92.09
738.541	91.84
738.723	91.62
738.904	91.9
739.086	92.59
739.268	92.1
739.449	92.08
739.631	92.12
739.813	91.56
739.994	90.95
740.176	92.14
740.358	92.05
740.539	92.21
740.721	92.81
740.902	93.88
741.084	94.1
741.265	94.37
741.447	95.17
741.628	95.13
741.81	94.99
741.991	94.75
742.172	94.47
742.354	92.94
742.535	93.22
742.717	91.81
742.898	91.35
743.079	91.83
743.261	93.34
743.442	92.09
743.623	93.02
743.804	93.02
743.986	93.08
744.167	91.63
744.348	92.33
744.529	91.63
744.71	91.39
744.891	90.88
745.073	91.84
745.254	91.57
745.435	92.22
745.616	92.25
745.797	92.34
745.978	92.36
746.159	92.42
746.34	93.14
746.521	93.57
746.702	93.62
746.883	93.29
747.064	93.88
747.245	93.46
747.426	91.85
747.606	91.81
747.787	92.25
747.968	91.79
748.149	91.61
748.33	92.37
748.51	91.31
748.691	90.67
748.872	91.9
749.053	91.94
749.233	92.48
749.414	94.3
749.595	94.16
749.775	92.44
749.956	92.25
750.137	91.81
750.317	89.84
750.498	89.45
750.678	90.09
750.859	90.24
751.04	91.15
751.22	91.24
751.4	91.54
751.581	91.85
751.761	92.88
751.942	91.76
752.122	92.51
752.303	92.69
752.483	93.28
752.663	92.72
752.844	94.37
753.024	94.62
753.204	95.05
753.385	94.22
753.565	93.36
753.745	91.45
753.925	91.28
754.106	91.48
754.286	90.52
754.466	91.05
754.646	91.06
754.826	92.65
755.006	92.51
755.187	94.46
755.367	93.38
755.547	93.11
755.727	91.38
755.907	90.87
756.087	89.35
756.267	89.47
756.447	90.49
756.627	90.72
756.807	91.81
756.987	91.28
757.167	92.37
757.346	91.83
757.526	92.7
757.706	90.93
757.886	92.19
758.066	91.55
758.246	90.99
758.425	89.34
758.605	90.34
758.785	89.89
758.965	90.9
759.144	90.82
759.324	94.04
759.504	93.76
759.683	93.39
759.863	92.86
760.043	92.87
760.222	90.69
760.402	89.74
760.581	89.85
760.761	90.08
760.94	89.96
761.12	90.33
761.299	91.78
761.479	92.27
761.658	91.59
761.838	92.42
762.017	91.74
762.197	90.12
762.376	89.03
762.555	89.68
762.735	90.68
762.914	90.15
763.093	90.62
763.273	90.82
763.452	88.86
763.631	85.89
763.81	86.96
763.99	85.39
764.169	85.92
764.348	88.58
764.527	90.74
764.706	88.98
764.885	91.42
765.064	92.7
765.243	92.07
765.423	92.2
765.602	92.53
765.781	90.93
765.96	90.15
766.139	88.54
766.318	89.41
766.497	89.83
766.676	89.22
766.854	86.78
767.033	88.02
767.212	87.6
767.391	88.28
767.57	92.42
767.749	94.47
767.928	94.65
768.106	92.67
768.285	92.13
768.464	90.15
768.643	88.87
768.821	87.98
769	88.48
769.179	89.82
769.357	89.67
769.536	91.26
769.715	91.34
769.893	92.32
770.072	90.27
770.25	89.61
770.429	88.46
770.607	87.97
770.786	87.34
770.964	89.39
771.143	90.88
771.321	90.79
771.5	91.43
771.678	93
771.857	91.33
772.035	89.76
772.213	89.36
772.392	87.14
772.57	84.02
772.748	83.2
772.927	83.4
773.105	84.52
773.283	87.8
773.461	91.38
773.64	93.26
773.818	95.31
773.996	95.88
774.174	92.83
774.352	91.02
774.531	89.79
774.709	87.8
774.887	85.73
775.065	89.68
775.243	89.61
775.421	89.87
775.599	90.49
775.777	90.37
775.955	87.25
776.133	88.1
776.311	87.68
776.489	87.43
776.667	88.3
776.844	87.4
777.022	87.63
777.2	87.9
777.378	86.63
777.556	88.79
777.734	91.28
777.911	90.73
778.089	91.7
778.267	91.36
778.445	91.56
778.622	92.22
778.8	88.9
778.978	87.33
779.155	90.85
779.333	90.81
779.511	89.41
779.688	91.42
779.866	94.07
780.043	92.24
780.221	90.2
780.398	90.83
780.576	89.76
780.753	86.19
780.931	85.86
781.108	87.4
781.286	86.53
781.463	84.99
781.64	89.06
781.818	89.14
781.995	88.1
782.172	88.52
782.35	91.05
782.527	87.07
782.704	86.82
782.882	84.88
783.059	82.66
783.236	81.98
783.413	83.49
783.59	83.94
783.768	85.51
783.945	84.06
784.122	84.24
784.299	85.52
784.476	82.32
784.653	81.55
784.83	84.03
785.007	84.69
785.184	83.34
785.361	86.65
785.538	84.86
785.715	86.13
785.892	84.18
786.069	82.38
786.246	81.28
786.423	83.39
786.6	82.89
786.776	84.48
786.953	83.78
787.13	83.1
787.307	83.28
787.484	81.03
787.66	82.35
787.837	83.61
788.014	82.21
788.191	79.69
788.367	77.61
788.544	75.96
788.721	76.45
788.897	76.1
789.074	78.73
789.25	83.92
789.427	85.15
789.603	82.33
789.78	82.87
789.956	80.15
790.133	77.95
790.309	75.27
790.486	77.66
790.662	80.46
790.839	83.06
791.015	83.05
791.192	86.8
791.368	84.83
791.544	85.52
791.721	84.32
791.897	83.61
792.073	82.59
792.249	85.04
792.426	83.13
792.602	85.59
792.778	86.17
792.954	85.22
793.13	84.29
793.307	84.84
793.483	80.19
793.659	84.22
793.835	83.65
794.011	86.79
794.187	86.95
794.363	86.16
794.539	83.04
794.715	84.26
794.891	81.02
795.067	79.02
795.243	83.32
795.419	83.47
795.595	85.33
795.771	84.1
795.947	82.83
796.122	81.8
796.298	80.88
796.474	83.27
796.65	87.42
796.826	86.55
797.001	83.89
797.177	79.44
797.353	74.16
797.529	70.92
797.704	75.46
797.88	74.03
798.056	78.11
798.231	77.27
798.407	80.14
798.582	75.55
798.758	83
798.934	87
799.109	89.21
799.285	87.86
799.46	86.82
799.636	82.08
799.811	79.21
799.986	74.12
800.162	68.16
800.337	77.82
800.513	81.81
800.688	78.33
800.863	87.48
801.039	94.74
801.214	79.81
801.389	76.38
801.565	78.64
801.74	74.72
801.915	74.01
802.09	74.92
802.265	72.02
802.441	72.43
802.616	74.55
802.791	74.45
802.966	78.11
803.141	82.99
803.316	81.77
803.491	80.3
803.666	84.1
803.841	86.85
804.016	82.42
804.191	82.55
804.366	82.26
804.541	79.03
804.716	75.44
804.891	78.11
805.066	80.05
805.241	82.87
805.416	87.04
805.591	91.38
805.765	101.45
805.94	103.48
806.115	101.09
806.29	97.03
806.464	94.28
806.639	86.48
806.814	87.56
806.989	89.03
807.163	92.59
807.338	90.14
807.512	96.16
807.687	96.14
807.862	93.54
808.036	96.83
808.211	97.05
808.385	94.12
808.56	89.32
808.734	79.55
808.909	75.71
809.083	79.78
809.258	83.39
809.432	79.98
809.606	91.98
809.781	91.32
809.955	89.95
810.13	82.39
810.304	85.76
810.478	83.12
810.652	74.32
810.827	71.61
811.001	69.6
811.175	71.59
811.349	73.6
811.524	80.34
811.698	84.54
811.872	92.28
812.046	85.52
812.22	86.97
812.394	86.27
812.568	82.07
812.742	70.9
812.916	82.13
813.09	77.86
813.264	74.49
813.438	75.55
813.612	78.67
813.786	72.98
813.96	78.49
814.134	75.53
814.308	74.87
814.482	76.47
814.656	73.13
814.83	71.06
815.003	77.33
815.177	79.17
815.351	92.18
815.525	105.92
815.698	97.93
815.872	89.49
816.046	87.85
816.219	81.85
816.393	66.24
816.567	67.28
816.74	72.59
816.914	70.95
817.088	73.17
817.261	77.97
817.435	83.61
817.608	85.41
817.782	78.07
817.955	74.99
818.129	87.58
818.302	86.27
818.475	83.81
818.649	82.68
818.822	78.32
818.996	72.46
819.169	76.75
819.342	76.29
819.516	85.6
819.689	81.55
819.862	73.36
820.035	77.19
820.209	80.84
820.382	73.25
820.555	78.51
820.728	86.63
820.901	72.37
821.075	78.93
821.248	73.73
821.421	68.41
821.594	63.58
821.767	73.29
821.94	56.27
822.113	67.87
822.286	66.84
822.459	73.59
822.632	67.65
822.805	72.83
822.978	61.99
823.151	53.22
823.324	48.98
823.496	44.61
823.669	56.21
823.842	74.02
824.015	87.92
824.188	92.34
824.361	92.65
824.533	77.89
824.706	73.84
824.879	70.46
825.051	69.49
825.224	63.2
825.397	69.26
825.569	65.45
825.742	59.69
825.915	55.07
826.087	54.97
826.26	44.67
826.432	42.94
826.605	39.2
826.777	45.29
826.95	52.48
827.122	52.74
827.295	68.51
827.467	80.14
827.64	72.24
827.812	60.26
827.984	85.22
828.157	67.44
828.329	78.66
828.501	70.19
828.674	81.86
828.846	80.11
829.018	67.68
829.19	67.47
829.363	69.31
829.535	60.15
829.707	57.51
829.879	61.67
830.051	55.9
830.223	66
830.395	69.97
830.568	74.42
830.74	78.26
830.912	77.43
831.084	70.65
831.256	68.58
831.428	64.63
831.6	71.49
831.772	62.79
831.943	60.38
832.115	68.99
832.287	61.43
832.459	49.99
832.631	53.19
832.803	55.73
832.975	58.76
833.146	59.27
833.318	67.24
833.49	75.37
833.662	100.46
833.833	90.22
834.005	87.72
834.177	86.12
834.348	82.96
834.52	74.5
834.692	65.61
834.863	63.04
835.035	65.43
835.206	71.79
835.378	71.33
835.549	79.23
835.721	74.21
835.892	71.52
836.064	63.86
836.235	61.01
836.407	65.39
836.578	65.67
836.749	50.42
836.921	54.61
837.092	49.29
837.264	44.81
837.435	44.91
837.606	60.81
837.777	57.95
837.949	69.11
838.12	73.45
838.291	85.54
838.462	82
838.633	88.72
838.805	84.26
838.976	81.75
839.147	75.94
839.318	84.75
839.489	76.71
839.66	77.19
839.831	76.73
840.002	77.41
840.173	82.52
840.344	70.94
840.515	59.76
840.686	69.33
840.857	60.44
841.028	54.76
841.199	71.62
841.369	80.35
841.54	66.65
841.711	91.13
841.882	108.04
842.053	91.07
842.223	84.49
842.394	62.79
842.565	47.49
842.736	44.53
842.906	29.63
843.077	41.06
843.248	61.09
843.418	63.12
843.589	49.72
843.759	63.9
843.93	73.1
844.101	62.46
844.271	69.36
844.442	65.59
844.612	72.08
844.783	59.02
844.953	65.03
845.123	58.44
845.294	65.61
845.464	52.26
845.635	51.92
845.805	74.57
845.975	69.63
846.146	46.07
846.316	60.35
846.486	51.78
846.656	49.88
846.827	54.71
846.997	83.35
847.167	76.23
847.337	71.7
847.507	67.27
847.677	75.07
847.848	65.41
848.018	85.94
848.188	87.46
848.358	85.91
848.528	83.69
848.698	76.55
848.868	47.05
849.038	51.54
849.208	47.81
849.378	42.6
849.548	30.74
849.718	53.86
849.887	44.33
850.057	45.82
850.227	78.18
850.397	80.74
850.567	35.13
850.737	70.35
850.906	81.11
851.076	43.1
851.246	45.05
851.415	37.88
851.585	21.93
851.755	51.98
851.924	73.11
852.094	74.62
852.264	98.12
852.433	87.41
852.603	85.54
852.772	100.64
852.942	116.1
853.111	108.61
853.281	108.11
853.45	82.61
853.62	73.67
853.789	43.79
853.959	52.27
854.128	50.21
854.297	68.23
854.467	64.06
854.636	60.71
854.805	53.6
854.975	44.02
855.144	54.08
855.313	79.85
855.482	69.87
855.652	66.33
855.821	61.29
855.99	18.9
856.159	21.22
856.328	60.32
856.497	75.68
856.667	70.18
856.836	87.33
857.005	91.9
857.174	83.21
857.343	69.67
857.512	73.67
857.681	58.67
857.85	36.1
858.019	-14.87
858.188	-21.48
858.356	-1.49
858.525	33.55
858.694	50.79
858.863	55
859.032	64.47
859.201	66.54
859.369	41.53
859.538	23.24
859.707	16.56
859.876	37.07
860.044	62.39
860.213	65.36
860.382	79.52
860.55	75.86
860.719	52.66
860.888	29.91
861.056	13.22
861.225	-2.71
861.393	12.09
861.562	28.37
861.73	31.95
861.899	28.24
862.067	47.74
862.236	38.61
862.404	35.58
862.572	52.73
862.741	63.26
862.909	31.74
863.078	41.96
863.246	26.91
863.414	14.18
863.582	25.67
863.751	33.9
863.919	14.47
864.087	16.61
864.255	31.63
864.424	10.15
864.592	10.19
864.76	40.75
864.928	61.74
865.096	48.62
865.264	46.21
865.432	79.14
865.6	75.27
865.768	92.52
865.936	105.73
866.104	89.18
866.272	41.23
866.44	34.71
866.608	19.16
866.776	25.69
866.944	66.99
867.112	62.74
867.28	49.23
867.448	54.07
867.615	48.18
867.783	23.98
867.951	35.42
868.119	57.5
868.286	60.67
868.454	48.9
868.622	57.41
868.789	42.64
868.957	29.08
869.125	41.97
869.292	46.17
869.46	37.52
869.627	58.23
869.795	51.95
869.963	37.94
870.13	22.39
870.298	32.5
870.465	39.77
870.632	33.45
870.8	45.74
870.967	48.92
871.135	68.07
871.302	25.45
871.469	49.39
871.637	47.95
871.804	42.99
871.971	42.43
872.139	69.98
872.306	43.46
872.473	33.6
872.64	17.18
872.807	-49.97
872.975	-219.13
873.142	-27.26
873.309	1.42
873.476	47.09
873.643	74.36
873.81	57.09
873.977	61.97
874.144	57.83
874.311	35.28
874.478	45.33
874.645	92.48
874.812	96.61
874.979	108.95
875.146	117.73
875.313	100.41
875.48	142.97
875.647	128.64
875.813	116.84
875.98	70.93
876.147	78.21
876.314	35.15
876.481	60.1
876.647	40.07
876.814	53.79
876.981	62.74
877.147	29.9
877.314	31.99
877.481	43.51
877.647	42.62
877.814	41.02
877.98	74.65
878.147	93.31
878.314	116.97
878.48	161.35
878.647	122.84
878.813	108.86
878.979	103.57
879.146	95.22
879.312	91.95
879.479	97.69
879.645	108.19
879.811	118.59
879.978	88.87
880.144	77.38
880.31	62.88
880.477	56.79
880.643	35.65
880.809	48.31
880.975	28.56
881.142	75.78
881.308	148.59
881.474	48.82
881.64	19.04
881.806	38.5
881.972	-15.78
882.138	10.12
882.304	5.57
882.47	37.04
882.636	25.55
882.802	50.18
882.968	97.3
883.134	73.64
883.3	46.8
883.466	73.65
883.632	68.95
883.798	36.91
883.964	28.4
884.129	408.73
884.295	65.17
884.461	94.05
884.627	51.86
884.793	38.52
884.958	30.11
885.124	39.22
885.29	16.95
885.455	16.77
885.621	58.79
885.787	26.16
885.952	24.77
886.118	46.19
886.283	44.83
886.449	23.46
886.614	22.37
886.78	13.98
886.945	-19.33
887.111	-7.33
887.276	4.33
887.442	8.86
887.607	47.73
887.773	51.63
887.938	63.43
888.103	54.8
888.269	63.27
888.434	47.68
888.599	40.13
888.764	49.69
888.93	56.17
889.095	47.36
889.26	57.31
889.425	54.56
889.59	51.56
889.756	24.6
889.921	26.74
890.086	19.28
890.251	64.17
890.416	9.67
890.581	-35.7
890.746	-19.06
890.911	-1.09
891.076	-2.42
891.241	18.53
891.406	24.49
891.571	19.99
891.736	30.41
891.901	46.03
892.065	25.51
892.23	25.1
892.395	24.88
892.56	23.52
892.725	-53.19
892.889	17.37
893.054	42.37
893.219	17.9
893.384	6.97
893.548	37.89
893.713	-26.25
893.878	-40.15
