Data from Ofra_1a_PS_1GT37_Reflection_1.txt Node
Date: Tue Jul 20 10:44:33 EDT 2021
User: Adam
Spectrometer: FLMT01687
Trigger mode: 0
Integration Time (sec): 1.004000E0
Scans to average: 2
Electric dark correction enabled: true
Nonlinearity correction enabled: false
Boxcar width: 2
XAxis mode: Wavelengths
Number of Pixels in Spectrum: 3648
>>>>>Begin Spectral Data<<<<<
179.494	498.98
179.716	583.21
179.937	-1061.87
180.158	1701.27
180.38	-50.11
180.601	-1.99
180.823	-64.13
181.044	-102.98
181.265	-199.28
181.486	194.35
181.708	114.63
181.929	-2354.55
182.15	7.76
182.372	534.48
182.593	372.42
182.814	-137.35
183.035	-9.17
183.257	42.18
183.478	46.57
183.699	12.82
183.92	-15.21
184.141	-2.97
184.363	-3.41
184.584	-11.35
184.805	28.18
185.026	37.95
185.247	16.54
185.468	-24.16
185.689	-18.03
185.91	-29.97
186.132	4.11
186.353	14.78
186.574	28.46
186.795	32.55
187.016	30.39
187.237	8.92
187.458	19.77
187.679	9.99
187.9	14.32
188.121	-0.48
188.342	13.27
188.563	8.33
188.784	38.79
189.005	37.65
189.226	42.14
189.447	27.13
189.667	19.12
189.888	4.81
190.109	17.29
190.33	35.66
190.551	47.82
190.772	63.09
190.993	45.06
191.214	18
191.434	-7.86
191.655	11.83
191.876	-7.44
192.097	15.12
192.318	19.02
192.538	-5.55
192.759	-12.19
192.98	4.76
193.201	18.06
193.421	8.93
193.642	27
193.863	50.29
194.083	58.78
194.304	56.63
194.525	58.36
194.745	23.8
194.966	4.1
195.187	0.1
195.407	-25.61
195.628	-20.29
195.848	-14.88
196.069	-39.95
196.29	-51.08
196.51	-36.74
196.731	-25.83
196.951	-35.09
197.172	-27.19
197.392	-7.32
197.613	9.36
197.833	-2.81
198.054	0.86
198.274	22.56
198.495	18.86
198.715	0.9
198.936	16.9
199.156	13.59
199.377	-12.91
199.597	-4.46
199.817	-3.95
200.038	-28.68
200.258	13.25
200.479	45.48
200.699	53.19
200.919	68.65
201.14	67.86
201.36	59.94
201.58	36.23
201.801	14.29
202.021	5.31
202.241	-1.41
202.461	-20.06
202.682	0.67
202.902	27.16
203.122	34.95
203.342	39.3
203.563	29.06
203.783	1.48
204.003	-24.33
204.223	-16.94
204.443	0.62
204.663	31.04
204.884	87.54
205.104	101.47
205.324	141.31
205.544	86.79
205.764	77.41
205.984	57.46
206.204	72.5
206.424	25.65
206.644	16.73
206.864	-36.05
207.084	-8.05
207.304	-29.86
207.525	-15.71
207.745	13.38
207.964	42.15
208.184	40.15
208.404	33.69
208.624	46.45
208.844	25.64
209.064	10.88
209.284	2.95
209.504	22.43
209.724	8.79
209.944	20.7
210.164	18.97
210.384	48.55
210.604	30.69
210.823	25.02
211.043	40.97
211.263	25.91
211.483	20.63
211.703	-2.66
211.922	4.19
212.142	26.38
212.362	41.56
212.582	18.75
212.801	13.01
213.021	3.39
213.241	-17.34
213.461	-18.79
213.68	5.44
213.9	2.97
214.12	10
214.339	6.51
214.559	-0.5
214.779	-16.93
214.998	-6.85
215.218	-16.93
215.438	-3.97
215.657	-6.12
215.877	-13.25
216.096	6.82
216.316	22.51
216.535	17.4
216.755	22
216.974	33.45
217.194	16.05
217.413	-9.63
217.633	-29.43
217.852	-10.32
218.072	-14.94
218.291	-14.08
218.511	-1.62
218.73	17.86
218.95	-2.12
219.169	23.45
219.389	35.39
219.608	33.65
219.827	23.97
220.047	36.33
220.266	11.32
220.485	-13.31
220.705	-19.04
220.924	-45.13
221.143	-15.21
221.363	15
221.582	36.43
221.801	53.86
222.021	53.31
222.24	37.01
222.459	39.49
222.678	20.36
222.897	-1.06
223.117	-4.19
223.336	9.16
223.555	13.28
223.774	53.99
223.993	66.82
224.213	85.09
224.432	71.59
224.651	36.61
224.87	19.29
225.089	10.54
225.308	7.14
225.527	-10.56
225.746	3.57
225.965	2.37
226.184	-4.73
226.404	-11.94
226.623	18.29
226.842	8.93
227.061	11.02
227.28	33.13
227.499	35.48
227.718	26.77
227.936	34.4
228.155	24.19
228.374	11.62
228.593	19.86
228.812	9.57
229.031	15.33
229.25	11.11
229.469	22.53
229.688	14.73
229.907	17.43
230.125	21.63
230.344	36.65
230.563	31.83
230.782	35.87
231.001	56.95
231.22	45.15
231.438	49
231.657	48.18
231.876	56.69
232.095	52.77
232.313	40.43
232.532	30.89
232.751	17.8
232.969	4.99
233.188	-2.79
233.407	12.83
233.625	16.04
233.844	21.61
234.063	14.21
234.281	12.93
234.5	12.24
234.719	-0.22
234.937	-12.3
235.156	-6.16
235.374	-3.63
235.593	3.74
235.811	27.53
236.03	27.09
236.249	27.69
236.467	23.19
236.686	12.49
236.904	11.15
237.123	14.67
237.341	17.31
237.559	18.08
237.778	28.25
237.996	3.67
238.215	-44.8
238.433	-84.13
238.652	-14.63
238.87	-24.11
239.088	-9.43
239.307	7.39
239.525	7.7
239.743	-17.65
239.962	-35.84
240.18	-13.02
240.398	-13.58
240.617	-6.42
240.835	4.19
241.053	24.4
241.271	12.88
241.49	23.88
241.708	8.49
241.926	8.88
242.144	8.57
242.363	-3.95
242.581	-45.97
242.799	-58.96
243.017	-19.78
243.235	-17.51
243.453	-16.02
243.672	-2.76
243.89	17.07
244.108	13.94
244.326	19.99
244.544	37.07
244.762	35.26
244.98	33.01
245.198	35.26
245.416	42.72
245.634	22.1
245.852	3.09
246.07	23.54
246.288	20.82
246.506	22.38
246.724	21.22
246.942	33.66
247.16	16.17
247.378	5.05
247.596	9.82
247.814	-10.11
248.032	-15
248.25	29.3
248.468	34.94
248.685	32.9
248.903	27.7
249.121	30.71
249.339	25.81
249.557	28.09
249.775	41.67
249.992	56.82
250.21	61.12
250.428	56.92
250.646	50.57
250.863	30.1
251.081	36.72
251.299	31.18
251.517	35.67
251.734	28.37
251.952	29.73
252.17	26.41
252.387	25.16
252.605	25.68
252.823	4.58
253.04	30.86
253.258	26.66
253.475	34.32
253.693	19.34
253.911	37.15
254.128	14.74
254.346	20.74
254.563	21.72
254.781	25.43
254.998	17.05
255.216	4.32
255.433	-21.78
255.651	-16.39
255.868	-13.29
256.086	1.34
256.303	28.83
256.521	51.52
256.738	36.46
256.956	33.79
257.173	30.61
257.39	14.92
257.608	3.53
257.825	10.9
258.043	15.87
258.26	5.29
258.477	2.59
258.695	6.19
258.912	-0.07
259.129	-11.78
259.346	0.92
259.564	19.53
259.781	7.35
259.998	31.33
260.216	38.4
260.433	23.41
260.65	26.18
260.867	33.89
261.084	19.78
261.302	5.47
261.519	24.57
261.736	20.44
261.953	14.26
262.17	24.13
262.387	35.03
262.604	35.46
262.822	27.19
263.039	20.86
263.256	14.65
263.473	6.41
263.69	4.42
263.907	6.27
264.124	18.73
264.341	24.36
264.558	20.75
264.775	28.42
264.992	34.72
265.209	24.77
265.426	31.56
265.643	48.27
265.86	43.85
266.077	33.96
266.294	30.49
266.51	38.51
266.727	17.62
266.944	28.49
267.161	32.2
267.378	43.97
267.595	28.27
267.812	40.1
268.028	42.2
268.245	31.16
268.462	22.9
268.679	32.59
268.896	41.01
269.112	33.72
269.329	25.22
269.546	29.39
269.763	36.89
269.979	28.83
270.196	30.11
270.413	37.78
270.629	32.39
270.846	28.99
271.063	23.61
271.279	30.89
271.496	23.43
271.712	17.02
271.929	20.78
272.146	33.11
272.362	32.15
272.579	33.26
272.795	37.24
273.012	45.17
273.228	31.96
273.445	27.73
273.661	27.31
273.878	14.63
274.094	3.6
274.311	1.1
274.527	-13.82
274.744	0.13
274.96	18.37
275.177	19.56
275.393	35.98
275.609	50.01
275.826	41.72
276.042	31.72
276.259	31.23
276.475	18.66
276.691	-8.97
276.908	3.32
277.124	28.75
277.34	31
277.557	22.68
277.773	31.02
277.989	17.05
278.205	-7.09
278.422	-21.86
278.638	-13.09
278.854	-1.96
279.07	10.15
279.286	21.45
279.503	38.86
279.719	36.92
279.935	33.88
280.151	21.08
280.367	15.5
280.583	1.2
280.799	-6.43
281.016	-37.63
281.232	-21.39
281.448	-15.42
281.664	-3.72
281.88	11.99
282.096	26.75
282.312	18.06
282.528	9.7
282.744	-0.07
282.96	-27.68
283.176	-41.74
283.392	-55.76
283.608	-24.04
283.824	-23.03
284.04	-21.14
284.256	-19.35
284.471	13.78
284.687	19.25
284.903	23.53
285.119	47.22
285.335	58.57
285.551	44.67
285.767	46.28
285.982	62.83
286.198	26.07
286.414	13.96
286.63	8.4
286.846	-8.61
287.061	2.76
287.277	-7.39
287.493	-7.02
287.709	22.75
287.924	24.18
288.14	28.72
288.356	32.84
288.571	36.79
288.787	10.18
289.003	23.41
289.218	3.57
289.434	6.51
289.65	11.45
289.865	22.43
290.081	17.77
290.296	23.32
290.512	18.45
290.727	5.93
290.943	4.82
291.159	-3.83
291.374	-24.83
291.59	-15.38
291.805	-16.35
292.021	-0.59
292.236	-8.78
292.451	6.09
292.667	8.73
292.882	30.95
293.098	17.47
293.313	34.37
293.529	28.62
293.744	25.05
293.959	1.74
294.175	13.4
294.39	-8.57
294.605	24.78
294.821	28.93
295.036	40.58
295.251	43.06
295.467	48.53
295.682	33.59
295.897	25.58
296.112	10.45
296.328	17.78
296.543	8.62
296.758	14.1
296.973	15.04
297.188	16.41
297.404	-18.06
297.619	-19.42
297.834	-50.29
298.049	-30.13
298.264	-23.39
298.479	-40.73
298.694	-4.99
298.909	-4.43
299.125	-5.04
299.34	-5.59
299.555	8.32
299.77	26.67
299.985	32.99
300.2	34.65
300.415	31.74
300.63	28.1
300.845	8.96
301.06	5.06
301.275	-0.57
301.49	14.6
301.704	29.35
301.919	17.21
302.134	22.81
302.349	19.75
302.564	18.58
302.779	-11.25
302.994	14.42
303.209	10.41
303.423	12.15
303.638	18.81
303.853	6.62
304.068	-22.82
304.283	-7.35
304.497	-17.81
304.712	-17.3
304.927	17.86
305.142	37.86
305.356	22.58
305.571	24.18
305.786	14.78
306	-2.62
306.215	-12.97
306.43	-7.91
306.644	-13.7
306.859	-5.83
307.074	14.5
307.288	7.08
307.503	12.96
307.717	5.88
307.932	14.84
308.147	6.13
308.361	14.11
308.576	8.76
308.79	32.67
309.005	22.4
309.219	26.51
309.434	30.9
309.648	30.03
309.863	19.65
310.077	19.99
310.292	16.9
310.506	-0.08
310.72	2.09
310.935	21.51
311.149	11.93
311.364	9.05
311.578	30.35
311.792	33.01
312.007	4.49
312.221	-9.34
312.435	-5.09
312.649	-11.69
312.864	-18.6
313.078	-25.38
313.292	-16.4
313.507	-11.77
313.721	-13.31
313.935	1.78
314.149	13.77
314.363	28.49
314.578	35.54
314.792	42.55
315.006	18.81
315.22	31.56
315.434	24.18
315.648	3.34
315.862	1.45
316.077	-7.13
316.291	-11.52
316.505	-36.63
316.719	-17.6
316.933	-11.62
317.147	-0.07
317.361	-0.61
317.575	5.34
317.789	14.54
318.003	13.82
318.217	28.64
318.431	23.77
318.645	21.84
318.859	16.05
319.073	20.75
319.287	13.64
319.5	17
319.714	15.73
319.928	7.02
320.142	-2.17
320.356	-2.82
320.57	-30.65
320.784	-23.07
320.997	-28.77
321.211	-5.66
321.425	-15.75
321.639	16.22
321.853	28.31
322.066	25.04
322.28	13.22
322.494	13.48
322.707	12.13
322.921	-2.53
323.135	5.31
323.349	8.75
323.562	17.78
323.776	16.63
323.989	25.98
324.203	10.19
324.417	8.97
324.63	8.26
324.844	-4.54
325.057	-12.27
325.271	10.74
325.485	3.41
325.698	6.23
325.912	15.87
326.125	17.23
326.339	19.47
326.552	29.4
326.766	13.03
326.979	24.78
327.193	16.86
327.406	7.1
327.619	7.84
327.833	9.68
328.046	15.05
328.26	12.18
328.473	18.85
328.686	11.82
328.9	18.85
329.113	7.03
329.326	7.67
329.54	0.64
329.753	12.45
329.966	20.09
330.179	23.24
330.393	23.46
330.606	15.59
330.819	14.26
331.032	0.85
331.246	3.16
331.459	13.87
331.672	27.54
331.885	22.61
332.098	43.65
332.311	24.26
332.525	21.58
332.738	26.38
332.951	21.14
333.164	11.95
333.377	17.81
333.59	13.63
333.803	16.54
334.016	19.03
334.229	18.47
334.442	24.81
334.655	14.69
334.868	-9.13
335.081	-16.91
335.294	-20.6
335.507	-29.61
335.72	-18.88
335.933	-3.45
336.146	9.19
336.359	10.78
336.572	19.26
336.785	19.77
336.997	19.2
337.21	30.47
337.423	22.69
337.636	27.9
337.849	22.52
338.062	19.49
338.274	22.8
338.487	11.72
338.7	3.01
338.913	2.31
339.125	-4.48
339.338	-25.79
339.551	-25.64
339.763	-27.66
339.976	-30.3
340.189	-26.97
340.402	-7.24
340.614	11.46
340.827	17.89
341.039	33.19
341.252	28.91
341.465	10.14
341.677	18.58
341.89	14.54
342.102	12.43
342.315	12.95
342.527	33.16
342.74	19.99
342.952	18.52
343.165	12.33
343.377	27.38
343.59	34.01
343.802	35.4
344.015	41.95
344.227	41.32
344.44	25.43
344.652	25.65
344.864	28.65
345.077	35.15
345.289	33.32
345.502	44.73
345.714	33.62
345.926	26.04
346.139	9.82
346.351	22.33
346.563	20.25
346.775	31.81
346.988	53.82
347.2	50.38
347.412	51.53
347.624	45.68
347.837	43.54
348.049	20.9
348.261	16.25
348.473	-1.71
348.685	-18.26
348.897	-48.98
349.11	-33.02
349.322	-17.44
349.534	-5.42
349.746	4.74
349.958	10.79
350.17	5.41
350.382	-0.28
350.594	-3.3
350.806	11.2
351.018	17.47
351.23	35.21
351.442	39.21
351.654	42.55
351.866	29.93
352.078	39.74
352.29	22.18
352.502	7.87
352.714	-12.03
352.926	1.4
353.138	-3.83
353.35	-8.43
353.561	-7.03
353.773	-4.98
353.985	8.89
354.197	8.61
354.409	10.2
354.621	15.42
354.832	16.78
355.044	-11.83
355.256	-18.42
355.468	-28.27
355.679	-4.27
355.891	7.02
356.103	6.23
356.314	6.45
356.526	5.92
356.738	-16.75
356.949	-24.4
357.161	8
357.373	7.52
357.584	21.25
357.796	26.84
358.008	31.36
358.219	16.74
358.431	14.84
358.642	13.79
358.854	22.41
359.065	10.24
359.277	13.76
359.488	13.54
359.7	7.92
359.911	-5.21
360.123	2.25
360.334	-7.72
360.546	-6.13
360.757	-2.33
360.969	7.55
361.18	11.57
361.391	24.68
361.603	24.32
361.814	33.37
362.025	26.49
362.237	13.03
362.448	12.75
362.659	4.08
362.871	-7.37
363.082	-11.29
363.293	-2.6
363.504	-32.25
363.716	-0.3
363.927	5.72
364.138	-16.77
364.349	-23.87
364.56	-22.36
364.772	-14.69
364.983	-3
365.194	23.73
365.405	42.58
365.616	52.44
365.827	31.65
366.038	17.2
366.25	14.19
366.461	10.4
366.672	9.08
366.883	15.12
367.094	11.66
367.305	6.31
367.516	15.82
367.727	6.28
367.938	2.59
368.149	4.01
368.36	3.18
368.571	-25.07
368.781	-13.03
368.992	-7.42
369.203	1.46
369.414	-3.98
369.625	3.24
369.836	16.04
370.047	18.53
370.258	20.91
370.468	18.17
370.679	18.74
370.89	6.87
371.101	8.61
371.312	1.26
371.522	5.7
371.733	1.61
371.944	-5.7
372.155	-1.17
372.365	6.44
372.576	6.83
372.787	20.74
372.997	19.7
373.208	10.4
373.419	-2.66
373.629	-4.6
373.84	-7.95
374.05	-5.87
374.261	-10.87
374.472	-1.59
374.682	-5.37
374.893	-20.57
375.103	-6.13
375.314	-5.55
375.524	-4.74
375.735	15.6
375.945	16.49
376.156	3.63
376.366	7.74
376.577	10.57
376.787	7.39
376.997	13.55
377.208	21.71
377.418	17.15
377.629	18.68
377.839	16.85
378.049	19.56
378.26	11.23
378.47	21.43
378.68	16.19
378.89	16.53
379.101	18.15
379.311	22.24
379.521	17.19
379.732	22.22
379.942	21.4
380.152	12.4
380.362	12.75
380.572	22.08
380.783	18.64
380.993	8.4
381.203	5.6
381.413	9.18
381.623	4.46
381.833	3.58
382.043	6.51
382.253	10.3
382.463	14.86
382.674	17.43
382.884	20.05
383.094	20.76
383.304	21.03
383.514	17.96
383.724	10.85
383.934	7.96
384.144	14.36
384.353	12.93
384.563	11.78
384.773	12.1
384.983	8.1
385.193	-2.5
385.403	-4.01
385.613	-2.3
385.823	-3.5
386.033	0.18
386.242	1.99
386.452	7.64
386.662	1.75
386.872	9.15
387.082	4.6
387.291	3.8
387.501	6.66
387.711	10.15
387.921	3.75
388.13	10.62
388.34	10.84
388.55	6.96
388.759	3.86
388.969	4.61
389.179	3.04
389.388	3.42
389.598	3.48
389.807	0.64
390.017	-2
390.227	-5.29
390.436	-0.65
390.646	-2.27
390.855	3.48
391.065	5.93
391.274	5.03
391.484	1.58
391.693	1.34
391.903	-1.06
392.112	-0.99
392.322	1.08
392.531	1.99
392.74	2.42
392.95	2.37
393.159	1.92
393.369	0.62
393.578	-0.94
393.787	0.23
393.997	1.36
394.206	0.19
394.415	1.25
394.625	0.83
394.834	-0.78
395.043	-1.32
395.252	1.55
395.462	1.58
395.671	2.91
395.88	4.07
396.089	3.9
396.298	3.31
396.508	3.97
396.717	3.53
396.926	2.96
397.135	3.08
397.344	2.04
397.553	1.14
397.762	2.12
397.971	1.61
398.181	1.72
398.39	2.2
398.599	2.5
398.808	2.24
399.017	3.12
399.226	3.42
399.435	3.37
399.644	3.62
399.853	3.3
400.062	3.01
400.27	2.53
400.479	2.71
400.688	2.76
400.897	2.81
401.106	3.02
401.315	2.97
401.524	3.14
401.733	2.85
401.941	2.65
402.15	2.43
402.359	2.5
402.568	2.22
402.777	2.31
402.985	2.18
403.194	2.28
403.403	2.32
403.612	2.28
403.82	1.99
404.029	2.21
404.238	2.29
404.446	2.32
404.655	2.38
404.864	2.57
405.072	2.8
405.281	2.51
405.489	2.51
405.698	2.45
405.906	2.56
406.115	2.23
406.324	2.52
406.532	2.64
406.741	2.76
406.949	2.79
407.158	2.9
407.366	2.69
407.574	2.71
407.783	2.53
407.991	2.44
408.2	2.45
408.408	2.59
408.617	2.32
408.825	2.25
409.033	2.23
409.242	2.23
409.45	2.19
409.658	2.28
409.867	2.34
410.075	2.41
410.283	2.38
410.491	2.23
410.7	2.1
410.908	2.23
411.116	2.15
411.324	2.12
411.533	2.19
411.741	2.31
411.949	2.22
412.157	2.19
412.365	2.18
412.573	2.23
412.781	2.14
412.99	2.14
413.198	2.26
413.406	2.25
413.614	2.25
413.822	2.28
414.03	2.28
414.238	2.23
414.446	2.32
414.654	2.19
414.862	2.23
415.07	2.24
415.278	2.28
415.486	2.24
415.694	2.42
415.902	2.47
416.109	2.39
416.317	2.25
416.525	2.18
416.733	2.07
416.941	2.02
417.149	1.96
417.357	1.96
417.564	2.04
417.772	2.14
417.98	2.12
418.188	2.23
418.395	2.1
418.603	1.95
418.811	1.74
419.019	1.74
419.226	1.79
419.434	1.97
419.642	2.01
419.849	2.07
420.057	2.05
420.265	1.87
420.472	1.79
420.68	1.8
420.887	1.75
421.095	1.92
421.302	2.05
421.51	2.03
421.717	2.04
421.925	2.15
422.132	2.06
422.34	1.82
422.547	1.7
422.755	1.91
422.962	1.94
423.17	1.67
423.377	1.87
423.585	1.98
423.792	1.75
423.999	1.68
424.207	1.71
424.414	1.74
424.621	1.79
424.829	1.93
425.036	2.02
425.243	2.12
425.451	2.12
425.658	2.14
425.865	2.16
426.072	2.11
426.28	2.2
426.487	2.1
426.694	1.99
426.901	1.83
427.108	1.9
427.315	1.76
427.523	1.75
427.73	1.8
427.937	1.66
428.144	1.57
428.351	1.68
428.558	1.9
428.765	1.93
428.972	2.11
429.179	2.03
429.386	2.04
429.593	1.78
429.8	1.78
430.007	1.8
430.214	1.93
430.421	1.95
430.628	2.02
430.835	2.11
431.042	1.91
431.249	1.81
431.456	1.82
431.662	1.94
431.869	1.93
432.076	2.11
432.283	2.21
432.49	2.23
432.697	2.13
432.903	2.05
433.11	2.14
433.317	2.07
433.524	1.97
433.73	1.99
433.937	2.17
434.144	2
434.35	2.01
434.557	2.08
434.764	2.15
434.97	1.9
435.177	2.03
435.384	2.07
435.59	2.08
435.797	2.02
436.003	2.18
436.21	2.04
436.416	2.13
436.623	2.12
436.829	2.19
437.036	2.04
437.242	2.14
437.449	2.11
437.655	2.22
437.862	2.18
438.068	2.27
438.275	2.22
438.481	2.21
438.687	2.02
438.894	2.13
439.1	2.11
439.307	2.25
439.513	2.19
439.719	2.29
439.926	2.24
440.132	2.29
440.338	2.24
440.544	2.27
440.751	2.23
440.957	2.28
441.163	2.22
441.369	2.2
441.575	2.17
441.782	2.28
441.988	2.27
442.194	2.31
442.4	2.35
442.606	2.5
442.812	2.46
443.018	2.41
443.224	2.55
443.431	2.53
443.637	2.36
443.843	2.42
444.049	2.49
444.255	2.35
444.461	2.29
444.667	2.46
444.873	2.37
445.079	2.38
445.284	2.45
445.49	2.52
445.696	2.43
445.902	2.45
446.108	2.39
446.314	2.38
446.52	2.51
446.726	2.55
446.931	2.55
447.137	2.52
447.343	2.61
447.549	2.44
447.755	2.44
447.96	2.44
448.166	2.54
448.372	2.46
448.578	2.47
448.783	2.45
448.989	2.55
449.195	2.52
449.4	2.51
449.606	2.46
449.812	2.45
450.017	2.37
450.223	2.37
450.428	2.35
450.634	2.37
450.84	2.44
451.045	2.46
451.251	2.51
451.456	2.55
451.662	2.59
451.867	2.63
452.073	2.61
452.278	2.53
452.483	2.49
452.689	2.51
452.894	2.57
453.1	2.59
453.305	2.62
453.51	2.68
453.716	2.63
453.921	2.61
454.127	2.57
454.332	2.58
454.537	2.5
454.742	2.51
454.948	2.4
455.153	2.46
455.358	2.4
455.563	2.58
455.769	2.62
455.974	2.65
456.179	2.63
456.384	2.58
456.589	2.4
456.795	2.4
457	2.35
457.205	2.25
457.41	2.31
457.615	2.3
457.82	2.39
458.025	2.41
458.23	2.43
458.435	2.44
458.64	2.54
458.845	2.5
459.05	2.54
459.255	2.63
459.46	2.63
459.665	2.58
459.87	2.5
460.075	2.55
460.28	2.53
460.485	2.66
460.69	2.74
460.895	2.9
461.099	2.75
461.304	2.7
461.509	2.58
461.714	2.58
461.919	2.46
462.123	2.59
462.328	2.57
462.533	2.58
462.738	2.45
462.942	2.43
463.147	2.37
463.352	2.41
463.556	2.47
463.761	2.5
463.966	2.51
464.17	2.58
464.375	2.68
464.58	2.61
464.784	2.72
464.989	2.71
465.193	2.68
465.398	2.62
465.602	2.78
465.807	2.73
466.011	2.77
466.216	2.73
466.42	2.79
466.625	2.79
466.829	2.78
467.034	2.86
467.238	2.98
467.443	2.95
467.647	2.83
467.851	2.89
468.056	2.84
468.26	2.82
468.464	2.85
468.669	3.01
468.873	2.99
469.077	2.98
469.282	3.02
469.486	3.01
469.69	2.94
469.894	2.96
470.099	2.95
470.303	2.88
470.507	2.9
470.711	2.88
470.915	2.93
471.119	2.95
471.324	3.02
471.528	3.09
471.732	3.15
471.936	3.2
472.14	3.19
472.344	3.23
472.548	3.2
472.752	3.12
472.956	3.1
473.16	3.13
473.364	3.11
473.568	3.04
473.772	3.08
473.976	3.12
474.18	3.18
474.384	3.11
474.588	3.19
474.792	3.24
474.995	3.22
475.199	3.16
475.403	3.19
475.607	3.23
475.811	3.2
476.015	3.15
476.218	3.15
476.422	3.22
476.626	3.19
476.83	3.25
477.033	3.37
477.237	3.39
477.441	3.37
477.644	3.42
477.848	3.44
478.052	3.34
478.255	3.41
478.459	3.39
478.663	3.42
478.866	3.4
479.07	3.45
479.273	3.43
479.477	3.47
479.681	3.47
479.884	3.5
480.088	3.54
480.291	3.55
480.495	3.56
480.698	3.54
480.901	3.56
481.105	3.54
481.308	3.58
481.512	3.61
481.715	3.72
481.919	3.77
482.122	3.76
482.325	3.82
482.529	3.79
482.732	3.74
482.935	3.68
483.138	3.69
483.342	3.63
483.545	3.74
483.748	3.84
483.952	3.92
484.155	4.06
484.358	4.07
484.561	3.99
484.764	3.86
484.967	3.77
485.171	3.76
485.374	3.71
485.577	3.7
485.78	3.78
485.983	3.74
486.186	3.63
486.389	3.71
486.592	3.74
486.795	3.72
486.998	3.75
487.201	3.8
487.404	3.88
487.607	3.91
487.81	3.93
488.013	3.97
488.216	3.93
488.419	3.81
488.622	3.76
488.825	3.79
489.028	3.82
489.231	3.87
489.433	3.9
489.636	3.94
489.839	3.9
490.042	3.87
490.245	3.86
490.447	3.87
490.65	3.88
490.853	3.92
491.056	3.9
491.258	3.97
491.461	3.95
491.664	3.9
491.866	3.88
492.069	3.93
492.272	3.84
492.474	3.88
492.677	3.91
492.879	3.96
493.082	4
493.285	4.12
493.487	4.15
493.69	4.16
493.892	4.12
494.095	4.13
494.297	4.11
494.5	4.08
494.702	4.13
494.905	4.14
495.107	4.15
495.309	4.18
495.512	4.18
495.714	4.19
495.917	4.3
496.119	4.3
496.321	4.23
496.524	4.19
496.726	4.17
496.928	4.11
497.13	4.1
497.333	4.13
497.535	4.23
497.737	4.23
497.939	4.2
498.142	4.14
498.344	4.18
498.546	4.16
498.748	4.21
498.95	4.27
499.152	4.35
499.355	4.34
499.557	4.37
499.759	4.46
499.961	4.47
500.163	4.48
500.365	4.53
500.567	4.55
500.769	4.48
500.971	4.52
501.173	4.47
501.375	4.49
501.577	4.47
501.779	4.44
501.981	4.42
502.183	4.54
502.385	4.58
502.587	4.63
502.788	4.73
502.99	4.73
503.192	4.74
503.394	4.73
503.596	4.69
503.798	4.6
503.999	4.62
504.201	4.62
504.403	4.62
504.605	4.71
504.806	4.78
505.008	4.83
505.21	4.86
505.411	4.88
505.613	4.83
505.815	4.89
506.016	4.96
506.218	5
506.42	5.03
506.621	5.13
506.823	5.11
507.024	5.07
507.226	5.02
507.427	5.08
507.629	5.07
507.83	5.06
508.032	5.01
508.233	5.1
508.435	5.04
508.636	5.11
508.838	5.12
509.039	5.19
509.24	5.16
509.442	5.22
509.643	5.18
509.845	5.25
510.046	5.33
510.247	5.37
510.448	5.36
510.65	5.47
510.851	5.51
511.052	5.49
511.254	5.53
511.455	5.57
511.656	5.51
511.857	5.46
512.058	5.48
512.26	5.4
512.461	5.42
512.662	5.49
512.863	5.43
513.064	5.42
513.265	5.49
513.466	5.53
513.667	5.54
513.868	5.58
514.069	5.6
514.27	5.64
514.471	5.59
514.672	5.65
514.873	5.61
515.074	5.68
515.275	5.61
515.476	5.67
515.677	5.65
515.878	5.78
516.079	5.76
516.28	5.84
516.481	5.88
516.682	5.82
516.882	5.81
517.083	5.83
517.284	5.83
517.485	5.79
517.686	5.88
517.886	5.89
518.087	5.9
518.288	5.92
518.488	5.88
518.689	5.87
518.89	5.86
519.091	5.93
519.291	5.87
519.492	5.96
519.692	5.96
519.893	6.05
520.094	5.97
520.294	6.08
520.495	6.07
520.695	6.09
520.896	6.07
521.096	6.09
521.297	6.11
521.497	6.13
521.698	6.1
521.898	6.09
522.099	6.12
522.299	6.12
522.499	6.13
522.7	6.21
522.9	6.23
523.101	6.23
523.301	6.21
523.501	6.22
523.702	6.24
523.902	6.26
524.102	6.36
524.302	6.44
524.503	6.42
524.703	6.4
524.903	6.42
525.103	6.36
525.304	6.33
525.504	6.42
525.704	6.44
525.904	6.4
526.104	6.42
526.304	6.46
526.504	6.42
526.705	6.42
526.905	6.48
527.105	6.48
527.305	6.47
527.505	6.44
527.705	6.44
527.905	6.46
528.105	6.52
528.305	6.52
528.505	6.51
528.705	6.62
528.905	6.65
529.105	6.64
529.304	6.62
529.504	6.68
529.704	6.61
529.904	6.62
530.104	6.62
530.304	6.68
530.503	6.71
530.703	6.75
530.903	6.72
531.103	6.76
531.303	6.77
531.502	6.81
531.702	6.86
531.902	6.95
532.101	6.88
532.301	6.92
532.501	6.99
532.7	7
532.9	7.05
533.1	7.14
533.299	7.15
533.499	7.07
533.698	7.06
533.898	7.02
534.097	7.01
534.297	7.02
534.496	7.06
534.696	7.11
534.895	7.13
535.095	7.18
535.294	7.2
535.494	7.2
535.693	7.21
535.892	7.23
536.092	7.19
536.291	7.22
536.491	7.25
536.69	7.26
536.889	7.23
537.088	7.28
537.288	7.26
537.487	7.3
537.686	7.29
537.886	7.35
538.085	7.37
538.284	7.45
538.483	7.45
538.682	7.47
538.882	7.5
539.081	7.56
539.28	7.57
539.479	7.6
539.678	7.66
539.877	7.65
540.076	7.67
540.275	7.7
540.474	7.7
540.673	7.74
540.872	7.73
541.071	7.74
541.27	7.76
541.469	7.8
541.668	7.79
541.867	7.87
542.066	7.9
542.265	7.93
542.464	7.93
542.663	7.98
542.862	8.06
543.06	8.15
543.259	8.18
543.458	8.2
543.657	8.23
543.856	8.24
544.054	8.19
544.253	8.21
544.452	8.29
544.651	8.3
544.849	8.31
545.048	8.39
545.247	8.47
545.445	8.51
545.644	8.61
545.843	8.7
546.041	8.73
546.24	8.7
546.438	8.79
546.637	8.78
546.836	8.8
547.034	8.88
547.233	9
547.431	9.06
547.63	9.13
547.828	9.15
548.027	9.19
548.225	9.23
548.423	9.21
548.622	9.27
548.82	9.33
549.019	9.32
549.217	9.38
549.415	9.45
549.614	9.57
549.812	9.59
550.01	9.72
550.209	9.82
550.407	9.84
550.605	9.8
550.803	9.9
551.002	9.99
551.2	9.94
551.398	10.08
551.596	10.13
551.794	10.24
551.993	10.24
552.191	10.33
552.389	10.32
552.587	10.48
552.785	10.48
552.983	10.63
553.181	10.73
553.379	10.82
553.577	10.84
553.775	10.96
553.973	10.95
554.171	11.07
554.369	11.22
554.567	11.29
554.765	11.34
554.963	11.42
555.161	11.47
555.359	11.49
555.557	11.56
555.755	11.62
555.952	11.75
556.15	11.83
556.348	11.9
556.546	12.05
556.744	12.1
556.941	12.11
557.139	12.17
557.337	12.3
557.535	12.31
557.732	12.43
557.93	12.57
558.128	12.66
558.325	12.7
558.523	12.79
558.721	12.93
558.918	13.05
559.116	13.17
559.313	13.31
559.511	13.41
559.708	13.45
559.906	13.48
560.104	13.55
560.301	13.62
560.498	13.82
560.696	13.88
560.893	14
561.091	14.03
561.288	14.18
561.486	14.14
561.683	14.28
561.88	14.41
562.078	14.58
562.275	14.68
562.473	14.81
562.67	14.84
562.867	14.9
563.064	14.93
563.262	14.98
563.459	15.15
563.656	15.35
563.853	15.52
564.051	15.7
564.248	15.83
564.445	15.85
564.642	15.91
564.839	15.96
565.036	16.04
565.234	16.11
565.431	16.2
565.628	16.25
565.825	16.35
566.022	16.45
566.219	16.52
566.416	16.6
566.613	16.74
566.81	16.8
567.007	16.79
567.204	16.85
567.401	16.9
567.598	16.91
567.795	16.98
567.991	17.09
568.188	17.18
568.385	17.27
568.582	17.37
568.779	17.44
568.976	17.44
569.172	17.51
569.369	17.58
569.566	17.63
569.763	17.6
569.96	17.72
570.156	17.78
570.353	17.86
570.55	17.97
570.746	18.06
570.943	18.12
571.14	18.15
571.336	18.09
571.533	18.08
571.729	18.18
571.926	18.27
572.123	18.36
572.319	18.44
572.516	18.52
572.712	18.59
572.909	18.56
573.105	18.56
573.302	18.58
573.498	18.47
573.695	18.49
573.891	18.49
574.087	18.47
574.284	18.52
574.48	18.64
574.677	18.68
574.873	18.78
575.069	18.96
575.266	18.95
575.462	19.02
575.658	19.03
575.854	19.01
576.051	18.9
576.247	18.85
576.443	18.8
576.639	18.75
576.835	18.71
577.032	18.62
577.228	18.69
577.424	18.7
577.62	18.72
577.816	18.77
578.012	18.84
578.208	18.86
578.404	18.86
578.6	18.92
578.796	18.86
578.993	18.88
579.189	18.97
579.384	18.96
579.58	18.93
579.776	18.97
579.972	19.02
580.168	18.97
580.364	18.96
580.56	18.9
580.756	18.89
580.952	18.76
581.148	18.75
581.343	18.77
581.539	18.8
581.735	18.87
581.931	18.83
582.127	18.74
582.322	18.7
582.518	18.63
582.714	18.55
582.909	18.62
583.105	18.69
583.301	18.71
583.496	18.71
583.692	18.65
583.888	18.65
584.083	18.64
584.279	18.62
584.474	18.64
584.67	18.67
584.866	18.58
585.061	18.57
585.257	18.59
585.452	18.6
585.648	18.56
585.843	18.62
586.039	18.57
586.234	18.53
586.429	18.55
586.625	18.67
586.82	18.64
587.015	18.68
587.211	18.69
587.406	18.64
587.601	18.6
587.797	18.69
587.992	18.66
588.187	18.62
588.383	18.7
588.578	18.71
588.773	18.65
588.968	18.7
589.163	18.75
589.359	18.74
589.554	18.65
589.749	18.69
589.944	18.7
590.139	18.69
590.334	18.76
590.529	18.87
590.724	18.92
590.919	18.97
591.114	19.02
591.309	18.95
591.504	18.91
591.699	19
591.894	18.94
592.089	18.89
592.284	18.91
592.479	19.01
592.674	19.03
592.869	19.11
593.064	19.27
593.259	19.4
593.454	19.37
593.648	19.38
593.843	19.46
594.038	19.55
594.233	19.59
594.428	19.7
594.622	19.82
594.817	19.88
595.012	19.83
595.206	19.81
595.401	19.86
595.596	19.84
595.79	19.88
595.985	19.95
596.18	20.07
596.374	20.16
596.569	20.31
596.763	20.4
596.958	20.52
597.153	20.54
597.347	20.54
597.542	20.51
597.736	20.5
597.931	20.58
598.125	20.66
598.319	20.83
598.514	20.92
598.708	21.03
598.903	21.06
599.097	21.13
599.291	21.06
599.486	21.13
599.68	21.18
599.874	21.2
600.069	21.28
600.263	21.33
600.457	21.41
600.651	21.41
600.846	21.44
601.04	21.43
601.234	21.44
601.428	21.44
601.622	21.47
601.817	21.49
602.011	21.57
602.205	21.62
602.399	21.61
602.593	21.7
602.787	21.64
602.981	21.68
603.175	21.81
603.369	21.76
603.563	21.76
603.757	21.81
603.951	21.8
604.145	21.7
604.339	21.74
604.533	21.72
604.727	21.67
604.921	21.63
605.115	21.58
605.309	21.56
605.502	21.62
605.696	21.64
605.89	21.6
606.084	21.59
606.278	21.58
606.471	21.41
606.665	21.37
606.859	21.43
607.053	21.38
607.246	21.31
607.44	21.27
607.634	21.25
607.827	21.06
608.021	20.99
608.214	20.95
608.408	20.84
608.602	20.69
608.795	20.76
608.989	20.72
609.182	20.68
609.376	20.74
609.569	20.84
609.763	20.71
609.956	20.76
610.15	20.57
610.343	20.49
610.537	20.3
610.73	20.12
610.923	19.99
611.117	20.05
611.31	19.92
611.504	19.94
611.697	19.97
611.89	19.86
612.083	19.7
612.277	19.72
612.47	19.56
612.663	19.54
612.856	19.51
613.05	19.59
613.243	19.47
613.436	19.49
613.629	19.35
613.822	19.19
614.015	19.06
614.209	19.03
614.402	18.93
614.595	18.92
614.788	18.95
614.981	18.85
615.174	18.73
615.367	18.57
615.56	18.45
615.753	18.44
615.946	18.45
616.139	18.38
616.332	18.48
616.525	18.51
616.718	18.48
616.911	18.43
617.103	18.39
617.296	18.27
617.489	18.11
617.682	18.03
617.875	17.96
618.067	17.88
618.26	17.83
618.453	17.84
618.646	17.82
618.838	17.78
619.031	17.83
619.224	17.82
619.417	17.84
619.609	17.82
619.802	17.74
619.994	17.72
620.187	17.69
620.38	17.61
620.572	17.52
620.765	17.54
620.957	17.45
621.15	17.37
621.342	17.39
621.535	17.36
621.727	17.32
621.92	17.27
622.112	17.36
622.305	17.32
622.497	17.31
622.69	17.31
622.882	17.39
623.074	17.39
623.267	17.3
623.459	17.27
623.651	17.24
623.844	17.2
624.036	17.16
624.228	17.22
624.42	17.23
624.613	17.14
624.805	17.07
624.997	16.96
625.189	16.89
625.381	16.82
625.574	16.73
625.766	16.72
625.958	16.77
626.15	16.77
626.342	16.76
626.534	16.81
626.726	16.86
626.918	16.81
627.11	16.74
627.302	16.74
627.494	16.76
627.686	16.7
627.878	16.67
628.07	16.74
628.262	16.79
628.454	16.7
628.646	16.6
628.838	16.6
629.029	16.51
629.221	16.38
629.413	16.39
629.605	16.41
629.797	16.37
629.989	16.31
630.18	16.39
630.372	16.33
630.564	16.25
630.755	16.09
630.947	16.01
631.139	15.86
631.33	15.82
631.522	15.8
631.714	15.86
631.905	15.91
632.097	15.85
632.289	15.83
632.48	15.77
632.672	15.73
632.863	15.6
633.055	15.55
633.246	15.53
633.438	15.51
633.629	15.47
633.821	15.55
634.012	15.52
634.203	15.46
634.395	15.5
634.586	15.45
634.777	15.41
634.969	15.48
635.16	15.4
635.351	15.32
635.543	15.32
635.734	15.32
635.925	15.29
636.117	15.4
636.308	15.46
636.499	15.43
636.69	15.43
636.881	15.35
637.073	15.28
637.264	15.21
637.455	15.21
637.646	15.15
637.837	15.2
638.028	15.12
638.219	15.19
638.41	15.24
638.601	15.21
638.792	15.12
638.983	15.13
639.174	15.02
639.365	14.96
639.556	14.88
639.747	14.79
639.938	14.85
640.129	14.79
640.32	14.68
640.511	14.71
640.701	14.72
640.892	14.59
641.083	14.57
641.274	14.54
641.465	14.48
641.655	14.48
641.846	14.45
642.037	14.44
642.228	14.38
642.418	14.29
642.609	14.26
642.8	14.25
642.99	14.21
643.181	14.22
643.372	14.22
643.562	14.19
643.753	14.09
643.943	13.94
644.134	13.83
644.324	13.87
644.515	13.92
644.705	13.86
644.896	13.99
645.086	13.98
645.277	13.9
645.467	13.73
645.658	13.74
645.848	13.68
646.038	13.72
646.229	13.74
646.419	13.74
646.61	13.72
646.8	13.68
646.99	13.62
647.18	13.51
647.371	13.47
647.561	13.47
647.751	13.42
647.941	13.4
648.132	13.39
648.322	13.34
648.512	13.37
648.702	13.41
648.892	13.42
649.082	13.51
649.272	13.52
649.462	13.47
649.653	13.4
649.843	13.33
650.033	13.24
650.223	13.23
650.413	13.16
650.603	13.21
650.793	13.13
650.983	13.05
651.172	13.02
651.362	12.96
651.552	12.86
651.742	12.93
651.932	12.95
652.122	13
652.312	13
652.502	12.98
652.691	12.94
652.881	12.88
653.071	12.78
653.261	12.69
653.45	12.63
653.64	12.5
653.83	12.5
654.019	12.39
654.209	12.33
654.399	12.25
654.588	12.24
654.778	12.06
654.968	12.06
655.157	11.97
655.347	11.86
655.536	11.71
655.726	11.55
655.915	11.35
656.105	11.25
656.294	11.12
656.484	11.02
656.673	11.02
656.863	11.01
657.052	10.87
657.241	10.79
657.431	10.77
657.62	10.63
657.809	10.4
657.999	10.29
658.188	10.12
658.377	9.87
658.567	9.76
658.756	9.59
658.945	9.5
659.134	9.45
659.324	9.43
659.513	9.25
659.702	9.2
659.891	9.08
660.08	8.89
660.269	8.67
660.458	8.58
660.648	8.45
660.837	8.26
661.026	8.15
661.215	8.09
661.404	8.03
661.593	7.95
661.782	7.87
661.971	7.71
662.16	7.62
662.349	7.38
662.538	7.3
662.726	7.27
662.915	7.29
663.104	7.18
663.293	7.16
663.482	7.03
663.671	6.88
663.86	6.72
664.048	6.72
664.237	6.74
664.426	6.67
664.615	6.57
664.803	6.57
664.992	6.44
665.181	6.34
665.369	6.24
665.558	6.24
665.747	6.2
665.935	6.18
666.124	6.18
666.312	6.19
666.501	6.14
666.69	6.16
666.878	6.13
667.067	5.96
667.255	5.88
667.444	5.91
667.632	5.9
667.82	5.88
668.009	5.95
668.197	5.97
668.386	5.91
668.574	5.86
668.762	5.77
668.951	5.74
669.139	5.69
669.327	5.65
669.516	5.6
669.704	5.57
669.892	5.58
670.08	5.66
670.269	5.73
670.457	5.7
670.645	5.72
670.833	5.79
671.021	5.93
671.21	5.96
671.398	6.01
671.586	6.09
671.774	6.1
671.962	5.95
672.15	6.02
672.338	6.09
672.526	6.17
672.714	6.14
672.902	6.31
673.09	6.37
673.278	6.55
673.466	6.63
673.654	6.7
673.842	6.77
674.03	6.77
674.218	6.71
674.405	6.7
674.593	6.82
674.781	6.77
674.969	6.89
675.157	6.94
675.344	7.01
675.532	7.04
675.72	7.19
675.908	7.09
676.095	7.1
676.283	7.34
676.471	7.37
676.658	7.41
676.846	7.58
677.033	7.66
677.221	7.54
677.409	7.65
677.596	7.75
677.784	7.75
677.971	7.72
678.159	7.8
678.346	7.83
678.534	7.86
678.721	7.98
678.909	8.28
679.096	8.32
679.283	8.42
679.471	8.54
679.658	8.72
679.846	8.7
680.033	9.02
680.22	9.17
680.408	9.14
680.595	9.21
680.782	9.27
680.969	9.41
681.157	9.42
681.344	9.54
681.531	9.65
681.718	9.85
681.905	9.73
682.093	9.98
682.28	10.14
682.467	10.21
682.654	10.31
682.841	10.6
683.028	10.66
683.215	10.78
683.402	10.98
683.589	11.23
683.776	11.26
683.963	11.39
684.15	11.73
684.337	12.02
684.524	12.15
684.711	12.51
684.898	12.7
685.085	12.86
685.271	13.06
685.458	13.21
685.645	13.31
685.832	13.59
686.019	13.86
686.205	14.12
686.392	14.57
686.579	14.86
686.766	15.23
686.952	15.64
687.139	15.89
687.326	16.22
687.512	16.56
687.699	16.97
687.886	17.21
688.072	17.63
688.259	18.07
688.445	18.63
688.632	19.04
688.818	19.53
689.005	19.96
689.191	20.3
689.378	20.46
689.564	20.8
689.751	21.35
689.937	22.03
690.124	22.58
690.31	23.11
690.496	23.79
690.683	24.16
690.869	24.51
691.055	24.94
691.242	25.59
691.428	25.95
691.614	26.6
691.8	27.15
691.987	27.96
692.173	28.83
692.359	29.67
692.545	30.25
692.731	31.03
692.918	31.49
693.104	31.8
693.29	32.27
693.476	33
693.662	33.58
693.848	34.32
694.034	35.08
694.22	35.66
694.406	36.23
694.592	36.8
694.778	37.4
694.964	38.2
695.15	39.01
695.336	39.51
695.522	40.28
695.708	41.06
695.894	41.85
696.08	42.64
696.265	43.37
696.451	44.01
696.637	44.59
696.823	44.87
697.009	45.43
697.194	46.13
697.38	46.87
697.566	47.41
697.751	48.6
697.937	49.45
698.123	50.22
698.308	50.74
698.494	51.67
698.68	51.74
698.865	52.2
699.051	52.6
699.236	53.23
699.422	53.65
699.607	54.4
699.793	55.1
699.978	55.65
700.164	56.01
700.349	56.78
700.535	57.09
700.72	57.39
700.906	58.07
701.091	58.87
701.276	59.15
701.462	60.08
701.647	60.79
701.832	61.34
702.018	61.87
702.203	62.41
702.388	62.8
702.573	63.29
702.759	63.89
702.944	64.18
703.129	64.56
703.314	64.87
703.499	65.11
703.684	65.57
703.87	66.11
704.055	66.54
704.24	66.93
704.425	67.49
704.61	67.69
704.795	68.01
704.98	68.51
705.165	68.97
705.35	69.48
705.535	70.21
705.72	70.78
705.905	71.11
706.09	71.83
706.275	72.08
706.459	72.43
706.644	72.37
706.829	72.71
707.014	72.97
707.199	73.45
707.384	73.42
707.568	73.92
707.753	74.53
707.938	74.94
708.123	75.23
708.307	75.55
708.492	76.16
708.677	76.26
708.861	76.04
709.046	75.88
709.231	75.97
709.415	76.05
709.6	76.12
709.784	76.71
709.969	77.41
710.153	77.96
710.338	78.57
710.522	79.05
710.707	79.13
710.891	79.04
711.076	79.13
711.26	79.12
711.445	79.01
711.629	79.29
711.813	79.87
711.998	80.4
712.182	80.41
712.366	81.21
712.551	81.75
712.735	81.68
712.919	82.27
713.103	82.78
713.288	82.57
713.472	82.4
713.656	82.57
713.84	82.23
714.024	82.19
714.208	82.55
714.393	82.96
714.577	83.36
714.761	83.71
714.945	83.73
715.129	83.65
715.313	83.65
715.497	83.77
715.681	83.69
715.865	84.04
716.049	84.5
716.233	84.25
716.417	84.33
716.601	84.79
716.785	85.4
716.968	85.26
717.152	86.2
717.336	86.5
717.52	86.62
717.704	86.78
717.888	87.27
718.071	86.72
718.255	87.17
718.439	87.07
718.622	86.91
718.806	86.75
718.99	87.12
719.174	86.87
719.357	86.94
719.541	86.96
719.724	87.32
719.908	87.25
720.092	87.18
720.275	87.31
720.459	87.52
720.642	87.46
720.826	88.11
721.009	88.58
721.193	88.56
721.376	88.8
721.559	89.18
721.743	89.5
721.926	89.63
722.11	90.21
722.293	90.98
722.476	90.51
722.66	90.62
722.843	91.16
723.026	91.14
723.21	90.11
723.393	91.17
723.576	91.06
723.759	90.77
723.942	91.4
724.126	91.83
724.309	91.92
724.492	91.55
724.675	91.78
724.858	91.33
725.041	91.77
725.224	91.86
725.407	92.05
725.59	91.84
725.774	91.99
725.957	92.12
726.14	91.77
726.322	92.46
726.505	92.61
726.688	93.19
726.871	92.55
727.054	92.95
727.237	92.76
727.42	92.43
727.603	91.76
727.786	92.52
727.968	92.34
728.151	92.35
728.334	93.01
728.517	93.39
728.699	93.29
728.882	93.42
729.065	93.35
729.248	93.34
729.43	93.1
729.613	93.3
729.796	93.71
729.978	94.31
730.161	94.66
730.343	94.98
730.526	94.9
730.708	95.14
730.891	95.21
731.073	95.11
731.256	95.52
731.438	96.49
731.621	96.6
731.803	96.42
731.986	96.67
732.168	97.45
732.35	97.1
732.533	96.3
732.715	96.36
732.898	96.38
733.08	95.96
733.262	95.88
733.444	97.54
733.627	97.76
733.809	98.35
733.991	98.28
734.173	97.87
734.355	97.13
734.538	97.54
734.72	97.04
734.902	97.3
735.084	97.91
735.266	98.5
735.448	98.72
735.63	99.4
735.812	98.95
735.994	98.47
736.176	98.11
736.358	97.7
736.54	97.95
736.722	97.61
736.904	98.09
737.086	97.4
737.268	98.44
737.45	98.21
737.632	98.97
737.814	99.57
737.995	100.32
738.177	99.59
738.359	98.95
738.541	98.8
738.723	98.17
738.904	98.18
739.086	99.11
739.268	99.12
739.449	99.11
739.631	99.51
739.813	98.42
739.994	97.35
740.176	97.85
740.358	98.32
740.539	98.11
740.721	99.46
740.902	100.22
741.084	100.75
741.265	100.76
741.447	101.04
741.628	101.61
741.81	101.59
741.991	101.89
742.172	101.08
742.354	100.69
742.535	99.7
742.717	98.5
742.898	97.95
743.079	99.18
743.261	99.77
743.442	98.96
743.623	99.52
743.804	99.39
743.986	98.71
744.167	98.75
744.348	98.7
744.529	98.91
744.71	99.08
744.891	98.94
745.073	98.81
745.254	99.52
745.435	99.59
745.616	99.18
745.797	98.85
745.978	98.71
746.159	98.54
746.34	99.42
746.521	99.51
746.702	100.72
746.883	101.2
747.064	100.8
747.245	101.02
747.426	101.77
747.606	101.92
747.787	102.05
747.968	103.01
748.149	101.14
748.33	99.21
748.51	97.89
748.691	97.06
748.872	97.89
749.053	98.19
749.233	98.78
749.414	100.68
749.595	101.31
749.775	100.4
749.956	100.18
750.137	100.97
750.317	99
750.498	99.43
750.678	98.45
750.859	99.91
751.04	99.13
751.22	99.77
751.4	99.28
751.581	100.97
751.761	100.18
751.942	101.36
752.122	100.83
752.303	100.72
752.483	99.33
752.663	100.38
752.844	100.25
753.024	101.11
753.204	100.44
753.385	101.34
753.565	99.73
753.745	98.28
753.925	98.03
754.106	98.84
754.286	98.04
754.466	97.95
754.646	99.35
754.826	99.97
755.006	98.43
755.187	99.27
755.367	98.63
755.547	97.66
755.727	97.3
755.907	97.76
756.087	97.14
756.267	97.38
756.447	98.22
756.627	98.7
756.807	100.11
756.987	99.96
757.167	100.76
757.346	99.12
757.526	99.46
757.706	99.45
757.886	99.11
758.066	99.57
758.246	100.31
758.425	98.05
758.605	96.91
758.785	97.11
758.965	96.59
759.144	96.15
759.324	98.32
759.504	99.25
759.683	98.46
759.863	98.92
760.043	99.16
760.222	98.04
760.402	97.08
760.581	98.36
760.761	97.93
760.94	99.38
761.12	99.11
761.299	100.41
761.479	100.7
761.658	100.76
761.838	98.71
762.017	99.19
762.197	95.2
762.376	94.32
762.555	94.46
762.735	93.84
762.914	93.57
763.093	95.9
763.273	96.36
763.452	94.64
763.631	96.92
763.81	96.76
763.99	96.21
764.169	95.24
764.348	95.63
764.527	95.18
764.706	93.48
764.885	94.38
765.064	95.94
765.243	96.12
765.423	95.71
765.602	97.53
765.781	95.95
765.96	95.08
766.139	94.45
766.318	96.12
766.497	95.8
766.676	95.01
766.854	96.2
767.033	97.85
767.212	97.1
767.391	96.95
767.57	101.33
767.749	99.35
767.928	99.37
768.106	96.96
768.285	96.77
768.464	95.13
768.643	94.8
768.821	93.99
769	95.27
769.179	94.74
769.357	93.79
769.536	93.85
769.715	92.3
769.893	91.39
770.072	90.39
770.25	89.21
770.429	89.91
770.607	91.68
770.786	91.21
770.964	93.93
771.143	96.73
771.321	94.21
771.5	94.58
771.678	95.53
771.857	93.71
772.035	93.29
772.213	94.21
772.392	91.74
772.57	91
772.748	90.98
772.927	91
773.105	93.75
773.283	96.42
773.461	97.97
773.64	97.99
773.818	97.71
773.996	96.27
774.174	94.93
774.352	93.49
774.531	93.81
774.709	94.22
774.887	91.15
775.065	90.46
775.243	90.82
775.421	90.42
775.599	90.18
775.777	92.12
775.955	91.8
776.133	92.32
776.311	91.95
776.489	91.43
776.667	92.03
776.844	90.55
777.022	90.3
777.2	90.37
777.378	89.78
777.556	92.08
777.734	96.16
777.911	97.54
778.089	100.14
778.267	99.48
778.445	99.03
778.622	97.25
778.8	95.19
778.978	93.62
779.155	95.52
779.333	95.72
779.511	95.99
779.688	96.78
779.866	95.63
780.043	95.3
780.221	94.5
780.398	93.13
780.576	95.44
780.753	96.09
780.931	96.16
781.108	96.57
781.286	98.69
781.463	93.74
781.64	92.99
781.818	91.28
781.995	90.13
782.172	89.89
782.35	92.9
782.527	94.66
782.704	94.31
782.882	90.52
783.059	91.01
783.236	91.47
783.413	89.52
783.59	90.25
783.768	92.58
783.945	89.5
784.122	88.28
784.299	89.51
784.476	86.43
784.653	87
784.83	87.42
785.007	86.34
785.184	84.19
785.361	87.13
785.538	86.27
785.715	88.69
785.892	88.17
786.069	87.71
786.246	86.79
786.423	85.76
786.6	85.01
786.776	85.41
786.953	85.39
787.13	85.87
787.307	86.06
787.484	81.28
787.66	84.23
787.837	85.91
788.014	85.96
788.191	85.83
788.367	87.73
788.544	82.91
788.721	82.18
788.897	80.81
789.074	81
789.25	83.51
789.427	86.86
789.603	86.49
789.78	86.49
789.956	88.94
790.133	88.45
790.309	87.8
790.486	86.76
790.662	86.28
790.839	83.43
791.015	83.69
791.192	84.6
791.368	86.97
791.544	89.55
791.721	91.26
791.897	91.61
792.073	87.5
792.249	83.27
792.426	79.9
792.602	79.65
792.778	79.36
792.954	81.89
793.13	88.13
793.307	90.31
793.483	88.29
793.659	87.05
793.835	88.66
794.011	89.92
794.187	93.28
794.363	91.67
794.539	93.63
794.715	90.74
794.891	88.85
795.067	83.96
795.243	83.05
795.419	83.45
795.595	86.97
795.771	86.99
795.947	87.59
796.122	89
796.298	80.42
796.474	81.87
796.65	80.05
796.826	79.58
797.001	83.54
797.177	85.7
797.353	83.11
797.529	82.45
797.704	84.48
797.88	77
798.056	82.03
798.231	76.85
798.407	79.1
798.582	76.74
798.758	86.65
798.934	87.28
799.109	92.29
799.285	88.61
799.46	88.02
799.636	84.75
799.811	84.19
799.986	79.77
800.162	75.33
800.337	76.87
800.513	76.28
800.688	69.89
800.863	78.49
801.039	86.01
801.214	86.15
801.389	84.43
801.565	86.34
801.74	82.65
801.915	82.25
802.09	81.32
802.265	82.11
802.441	83.95
802.616	82.3
802.791	78.67
802.966	77.27
803.141	72.7
803.316	74.51
803.491	73.93
803.666	77.42
803.841	76.51
804.016	79.98
804.191	79.11
804.366	80.91
804.541	84.26
804.716	90.24
804.891	88.35
805.066	92.34
805.241	91.67
805.416	89.93
805.591	90.7
805.765	99.81
805.94	93.45
806.115	90.85
806.29	87.77
806.464	80.83
806.639	74.75
806.814	74.38
806.989	79.05
807.163	83.33
807.338	85.04
807.512	84.5
807.687	85.63
807.862	85.99
808.036	88.09
808.211	93.61
808.385	92.23
808.56	84.02
808.734	66.38
808.909	62.97
809.083	61.16
809.258	68.79
809.432	72.57
809.606	96.86
809.781	95.49
809.955	95.48
810.13	89.83
810.304	88.61
810.478	83.94
810.652	82.93
810.827	76.82
811.001	76.26
811.175	78.2
811.349	75.8
811.524	75.08
811.698	74.95
811.872	81.08
812.046	80.72
812.22	82.04
812.394	83.94
812.568	88.64
812.742	75.17
812.916	84.99
813.09	85.4
813.264	76.7
813.438	75.99
813.612	78.92
813.786	69.25
813.96	75.04
814.134	76.41
814.308	75.99
814.482	78.1
814.656	75.5
814.83	68.91
815.003	79.82
815.177	79.22
815.351	95.25
815.525	101.74
815.698	97.24
815.872	78.94
816.046	76.54
816.219	65.78
816.393	65.22
816.567	64.72
816.74	76.09
816.914	74.78
817.088	80.14
817.261	76.24
817.435	84.09
817.608	79.28
817.782	82.32
817.955	79
818.129	78.08
818.302	72.51
818.475	88.56
818.649	85.54
818.822	82.23
818.996	92.63
819.169	102.04
819.342	94.59
819.516	100.82
819.689	94.44
819.862	82.23
820.035	79.14
820.209	66.95
820.382	57.56
820.555	57.2
820.728	74.45
820.901	68.99
821.075	75.11
821.248	87.76
821.421	87.66
821.594	80.42
821.767	89.48
821.94	90.37
822.113	88.95
822.286	93.74
822.459	84.65
822.632	81.94
822.805	81.43
822.978	70.52
823.151	67.01
823.324	62.09
823.496	46.48
823.669	46.7
823.842	66.82
824.015	63.73
824.188	73.63
824.361	77.38
824.533	72.04
824.706	67.42
824.879	70.16
825.051	69.67
825.224	64.57
825.397	69.32
825.569	57.48
825.742	59.76
825.915	55.15
826.087	59.15
826.26	54.76
826.432	64.62
826.605	60.6
826.777	68.42
826.95	65.84
827.122	59.61
827.295	70.35
827.467	75.38
827.64	64.18
827.812	76.6
827.984	89.64
828.157	69.51
828.329	66.76
828.501	67.09
828.674	69.8
828.846	69.73
829.018	69.67
829.19	64.13
829.363	55.16
829.535	63.73
829.707	63.34
829.879	55.47
830.051	61.07
830.223	67.9
830.395	50.66
830.568	59.21
830.74	64.67
830.912	63.26
831.084	70.16
831.256	73.14
831.428	67.97
831.6	61.5
831.772	56.58
831.943	56.99
832.115	65.71
832.287	75.93
832.459	80.73
832.631	90.95
832.803	83.08
832.975	84.96
833.146	70.59
833.318	68.07
833.49	71.93
833.662	93.65
833.833	76.35
834.005	82.38
834.177	91.19
834.348	85.1
834.52	64.18
834.692	66.41
834.863	61.79
835.035	55.41
835.206	53.24
835.378	59.34
835.549	64.06
835.721	64.9
835.892	57.56
836.064	55.88
836.235	61.5
836.407	56.38
836.578	48.2
836.749	44.54
836.921	45.29
837.092	23.87
837.264	16.97
837.435	15.46
837.606	48.62
837.777	44.24
837.949	58.88
838.12	70.49
838.291	76.96
838.462	70.54
838.633	74.94
838.805	78.07
838.976	71.58
839.147	85.52
839.318	84.5
839.489	68.52
839.66	73.54
839.831	73.95
840.002	61.71
840.173	55.67
840.344	72.69
840.515	60.99
840.686	58.93
840.857	57.48
841.028	53.07
841.199	46.05
841.369	37.01
841.54	26.6
841.711	34.2
841.882	60.1
842.053	43.33
842.223	59.35
842.394	54.54
842.565	36.71
842.736	39.32
842.906	51.55
843.077	54.66
843.248	74.59
843.418	74.77
843.589	74.22
843.759	64.76
843.93	67.97
844.101	61.07
844.271	81.98
844.442	76.54
844.612	89.26
844.783	69.41
844.953	54.99
845.123	36.79
845.294	35.47
845.464	7.35
845.635	9.07
845.805	12.73
845.975	42.63
846.146	35.8
846.316	46.2
846.486	59.93
846.656	51.16
846.827	57.55
846.997	66.41
847.167	56.83
847.337	47.08
847.507	56.92
847.677	53.56
847.848	62.21
848.018	69.01
848.188	66.11
848.358	44.83
848.528	41.46
848.698	7.79
848.868	15.36
849.038	22.87
849.208	41.09
849.378	51.59
849.548	62.75
849.718	59.2
849.887	65.4
850.057	36.19
850.227	64.76
850.397	84.7
850.567	67.43
850.737	75.01
850.906	86.61
851.076	49.26
851.246	50.51
851.415	77.16
851.585	68.15
851.755	73.16
851.924	91
852.094	77.7
852.264	71.15
852.433	61.35
852.603	34.55
852.772	24.01
852.942	53.16
853.111	32.75
853.281	34.58
853.45	43.33
853.62	34.1
853.789	6.47
853.959	34.76
854.128	43.19
854.297	49.42
854.467	51.25
854.636	49.07
854.805	42.8
854.975	44.53
855.144	44.06
855.313	41.71
855.482	40.78
855.652	32.56
855.821	29.93
855.99	22.43
856.159	17.92
856.328	48.51
856.497	61.93
856.667	53.33
856.836	64.76
857.005	73.36
857.174	77.07
857.343	70.97
857.512	80.58
857.681	86.07
857.85	76.81
858.019	61.79
858.188	19.11
858.356	42.42
858.525	41.9
858.694	69.93
858.863	54.51
859.032	71.93
859.201	68.08
859.369	89.16
859.538	63.32
859.707	86.84
859.876	76.2
860.044	52.96
860.213	52.51
860.382	37.22
860.55	22.93
860.719	37.03
860.888	69.38
861.056	41.2
861.225	23.24
861.393	57.36
861.562	38.6
861.73	34.59
861.899	19.18
862.067	33.83
862.236	-2.82
862.404	3.99
862.572	-17
862.741	8.43
862.909	-0.15
863.078	43.13
863.246	18.29
863.414	28.73
863.582	39.99
863.751	44.8
863.919	26.2
864.087	46.75
864.255	49.82
864.424	22.1
864.592	45.76
864.76	48.84
864.928	33.72
865.096	45.45
865.264	38.24
865.432	23.11
865.6	20.15
865.768	37
865.936	35.62
866.104	50.02
866.272	24.87
866.44	10.45
866.608	18.43
866.776	12.35
866.944	46.92
867.112	63.66
867.28	58.72
867.448	54.84
867.615	48.1
867.783	21
867.951	0.6
868.119	-11.81
868.286	-26.56
868.454	-22.72
868.622	-6.56
868.789	4.2
868.957	18.92
869.125	33.97
869.292	25.66
869.46	16.68
869.627	26.79
869.795	9.28
869.963	28.31
870.13	32.26
870.298	52.9
870.465	57.18
870.632	68.23
870.8	24.69
870.967	46.96
871.135	72.58
871.302	52.59
871.469	51.07
871.637	69.92
871.804	65.92
871.971	47.25
872.139	49.85
872.306	51.2
872.473	41.83
872.64	-3.45
872.807	-67.91
872.975	-167.58
873.142	-51.2
873.309	-1.92
873.476	52.77
873.643	94.56
873.81	70.32
873.977	65.4
874.144	98.43
874.311	83.24
874.478	50.57
874.645	51.46
874.812	96.46
874.979	80.76
875.146	30.4
875.313	50.24
875.48	64.17
875.647	33.83
875.813	11.5
875.98	30.94
876.147	1.87
876.314	-1.33
876.481	37.62
876.647	49.6
876.814	44.71
876.981	64.42
877.147	73.68
877.314	63.55
877.481	66.83
877.647	88.25
877.814	79.14
877.98	88
878.147	134.3
878.314	137.02
878.48	119.3
878.647	108.06
878.813	109.05
878.979	52.71
879.146	52.82
879.312	93.04
879.479	58.76
879.645	36.13
879.811	11.58
879.978	38.63
880.144	18.24
880.31	23.93
880.477	53.41
880.643	67
880.809	21.43
880.975	5.95
881.142	4.65
881.308	318.84
881.474	656.32
881.64	-34.43
881.806	10.62
881.972	-21.29
882.138	51.35
882.304	129.54
882.47	125.66
882.636	88.71
882.802	106.37
882.968	133.23
883.134	56.06
883.3	51.89
883.466	97.37
883.632	143.96
883.798	54.54
883.964	61.61
884.129	18.78
884.295	60.46
884.461	-32.26
884.627	36.21
884.793	36.37
884.958	35.54
885.124	21.03
885.29	28.94
885.455	28.36
885.621	59.14
885.787	56.79
885.952	38.99
886.118	53.96
886.283	58.24
886.449	61.41
886.614	63.12
886.78	75.23
886.945	104.95
887.111	71.63
887.276	70.79
887.442	59.2
887.607	50.3
887.773	51.11
887.938	53.98
888.103	37.58
888.269	57.62
888.434	62.16
888.599	33.46
888.764	51.41
888.93	69.92
889.095	67.06
889.26	47.86
889.425	74.03
889.59	81.22
889.756	63.86
889.921	22.18
890.086	68.01
890.251	86.71
890.416	21.46
890.581	-16.91
890.746	22.59
890.911	21.19
891.076	9.29
891.241	10.73
891.406	24.01
891.571	4.11
891.736	74.48
891.901	89.54
892.065	81.21
892.23	91.43
892.395	88.01
892.56	64.52
892.725	69.78
892.889	129.67
893.054	46.84
893.219	80.98
893.384	86.44
893.548	87.92
893.713	112.19
893.878	155.76
