Data from Ofra_PS_T2_1A_8HS23_Reflection_2.txt Node
Date: Wed Jul 21 18:16:07 EDT 2021
User: Adam
Spectrometer: FLMT01687
Trigger mode: 0
Integration Time (sec): 1.100000E0
Scans to average: 2
Electric dark correction enabled: true
Nonlinearity correction enabled: false
Boxcar width: 2
XAxis mode: Wavelengths
Number of Pixels in Spectrum: 3648
>>>>>Begin Spectral Data<<<<<
179.494	565.2
179.716	646.59
179.937	577.32
180.158	547.12
180.38	741.56
180.601	188.12
180.823	43.35
181.044	-111.61
181.265	-100.37
181.486	51.07
181.708	68.24
181.929	217.35
182.15	-293.66
182.372	8.61
182.593	-25.61
182.814	-14.72
183.035	-26.87
183.257	-15.89
183.478	-86.49
183.699	-50.61
183.92	-70.75
184.141	17.66
184.363	-0.69
184.584	15.15
184.805	32.8
185.026	80.48
185.247	45.94
185.468	11.69
185.689	23.3
185.91	18
186.132	-5.1
186.353	2.64
186.574	52.95
186.795	45.91
187.016	20.96
187.237	8.83
187.458	-14.04
187.679	-49.88
187.9	-36.3
188.121	-19.32
188.342	-5.88
188.563	43.95
188.784	117.84
189.005	119.67
189.226	129.21
189.447	91.29
189.667	2.18
189.888	-331.77
190.109	-1233.12
190.33	-662.9
190.551	-1145.58
190.772	-293.1
190.993	-217.3
191.214	-179.15
191.434	-96.27
191.655	0.18
191.876	27.44
192.097	-33.3
192.318	-91.91
192.538	-139.44
192.759	-120.63
192.98	-68.15
193.201	-24.24
193.421	-1.78
193.642	12.04
193.863	3.38
194.083	-28.77
194.304	-20.89
194.525	-20.64
194.745	-56.72
194.966	-78.31
195.187	-55.26
195.407	-90.87
195.628	-170.38
195.848	-147.38
196.069	-105.47
196.29	-70.98
196.51	-87.26
196.731	-66.88
196.951	-90.8
197.172	-131.11
197.392	-145.98
197.613	-118.83
197.833	-122.68
198.054	-112.43
198.274	-56.15
198.495	-93.37
198.715	-65.38
198.936	-81.48
199.156	-53.25
199.377	-127.24
199.597	-96.55
199.817	-110.64
200.038	-53.47
200.258	-126.16
200.479	-55.29
200.699	-42.67
200.919	-6.38
201.14	-26.85
201.36	-11.91
201.58	19.44
201.801	46.06
202.021	14.15
202.241	9.93
202.461	8.58
202.682	-83.25
202.902	-156.58
203.122	-77.04
203.342	-43.74
203.563	-11.03
203.783	22.09
204.003	-13.46
204.223	-20.31
204.443	17.49
204.663	-7.34
204.884	-20.93
205.104	10.01
205.324	33.32
205.544	28.35
205.764	43.82
205.984	54.57
206.204	65.5
206.424	46.39
206.644	11.37
206.864	-2.77
207.084	-49.63
207.304	-60.85
207.525	-152.34
207.745	-45.87
207.964	15.02
208.184	-12.01
208.404	-36.62
208.624	-40.07
208.844	-53.08
209.064	-257.49
209.284	-277.85
209.504	-165.2
209.724	-53.14
209.944	-24.84
210.164	-1.65
210.384	6.43
210.604	4.42
210.823	-37.24
211.043	-43.2
211.263	-38.66
211.483	-27.26
211.703	-64.29
211.922	-48.81
212.142	-1.28
212.362	12.81
212.582	-11.02
212.801	-6.13
213.021	-17
213.241	-42.04
213.461	-68.34
213.68	-75.71
213.9	-41.7
214.12	-5.27
214.339	-67.84
214.559	-55.59
214.779	-11.01
214.998	-22.77
215.218	-80.35
215.438	-34.49
215.657	-37.29
215.877	-42.36
216.096	-5.84
216.316	16.75
216.535	4.8
216.755	16.26
216.974	-33.74
217.194	-119.66
217.413	-112.69
217.633	-122.73
217.852	-248.46
218.072	-124.98
218.291	-52.88
218.511	-21.44
218.73	-35.8
218.95	-23.46
219.169	-23.38
219.389	-79.38
219.608	-56.33
219.827	-43.23
220.047	-17.37
220.266	4.37
220.485	29.9
220.705	36.68
220.924	24.68
221.143	34.9
221.363	12.11
221.582	2.47
221.801	7
222.021	19.12
222.24	-32.89
222.459	62.22
222.678	41.43
222.897	-9.26
223.117	-43.19
223.336	4.03
223.555	-16.69
223.774	48.99
223.993	45.1
224.213	78.35
224.432	38.07
224.651	42.45
224.87	8.21
225.089	17.45
225.308	23.22
225.527	40.36
225.746	41.63
225.965	35.84
226.184	28.82
226.404	26.33
226.623	6.79
226.842	14.45
227.061	39.89
227.28	41.69
227.499	30.95
227.718	35.05
227.936	13.02
228.155	9.16
228.374	3.82
228.593	9.9
228.812	-5.78
229.031	-2.82
229.25	-46.42
229.469	-69.2
229.688	-69.89
229.907	-22.73
230.125	-7.72
230.344	5.64
230.563	29.19
230.782	42.06
231.001	-28.09
231.22	-19.95
231.438	15.23
231.657	25.3
231.876	2.4
232.095	47.07
232.313	43.03
232.532	21.45
232.751	-15.34
232.969	5.81
233.188	-39.82
233.407	27.03
233.625	33.62
233.844	19.41
234.063	11.56
234.281	32.95
234.5	25.32
234.719	1.61
234.937	14.78
235.156	30.19
235.374	17.35
235.593	-6.25
235.811	7.6
236.03	7.15
236.249	-42.14
236.467	-42.21
236.686	-1.26
236.904	3.71
237.123	-25.3
237.341	-17.21
237.559	-8.48
237.778	-23.18
237.996	-51.03
238.215	10.98
238.433	10.96
238.652	11.18
238.87	-25.46
239.088	-14.05
239.307	-35.68
239.525	-35.02
239.743	-48.73
239.962	-15.13
240.18	-18.38
240.398	-20.16
240.617	-18.7
240.835	16.49
241.053	26.45
241.271	72.21
241.49	52.76
241.708	60.16
241.926	31.39
242.144	17.64
242.363	-30.26
242.581	-49.88
242.799	-32.33
243.017	-0.5
243.235	-14.7
243.453	-9.61
243.672	-5.19
243.89	-14.72
244.108	-36.98
244.326	-23.32
244.544	-13.79
244.762	-15.01
244.98	-5.45
245.198	14.43
245.416	21.7
245.634	4.69
245.852	5.4
246.07	-18.92
246.288	-24.34
246.506	-77.11
246.724	-45.11
246.942	-33.22
247.16	5.19
247.378	12.12
247.596	34.71
247.814	33.39
248.032	-0.34
248.25	-5.97
248.468	-1.81
248.685	16.4
248.903	28.11
249.121	30.63
249.339	19.16
249.557	12.86
249.775	9.89
249.992	-44.42
250.21	-31.04
250.428	-22.04
250.646	-47.77
250.863	-84.94
251.081	-50.45
251.299	-40.37
251.517	-33.6
251.734	-4.01
251.952	2.67
252.17	1.42
252.387	11.94
252.605	1.71
252.823	-2.26
253.04	20
253.258	30.23
253.475	21.91
253.693	43.65
253.911	44.52
254.128	48.28
254.346	39.32
254.563	21.02
254.781	-1.98
254.998	-21.66
255.216	-37.34
255.433	-19.57
255.651	-0.14
255.868	24.24
256.086	43.01
256.303	25.42
256.521	35.39
256.738	9.01
256.956	-24.83
257.173	-23.96
257.39	-25.34
257.608	-72.8
257.825	19.45
258.043	57.24
258.26	46.32
258.477	73.45
258.695	85.14
258.912	25.94
259.129	26.81
259.346	-3.47
259.564	-39.91
259.781	-67.64
259.998	-30.6
260.216	-22.15
260.433	11.28
260.65	7.94
260.867	31.16
261.084	-0.11
261.302	-20.49
261.519	-18.14
261.736	-30.89
261.953	-59.79
262.17	-14.84
262.387	-50.58
262.604	-60.65
262.822	-57.62
263.039	-38.56
263.256	-75.71
263.473	-11.6
263.69	-14.75
263.907	22.77
264.124	37.41
264.341	38.19
264.558	21.7
264.775	28.41
264.992	11.29
265.209	7.01
265.426	35.4
265.643	35.24
265.86	51.61
266.077	50.93
266.294	36.03
266.51	-15.25
266.727	-25.99
266.944	-28
267.161	-18.92
267.378	0.35
267.595	30.38
267.812	33.39
268.028	10.06
268.245	13.58
268.462	-13.46
268.679	-36.67
268.896	4.23
269.112	6.53
269.329	3.32
269.546	10.45
269.763	16.44
269.979	3.67
270.196	-6.9
270.413	-25.31
270.629	-40.43
270.846	-37.83
271.063	-28.61
271.279	-35.5
271.496	-39.02
271.712	-10.11
271.929	5.27
272.146	-21.43
272.362	-5.05
272.579	35.57
272.795	30.61
273.012	11.59
273.228	24.11
273.445	-5.53
273.661	-44.67
273.878	-63.46
274.094	-58.71
274.311	-95.92
274.527	-27.86
274.744	-17.03
274.96	-32.92
275.177	-18.08
275.393	-2.22
275.609	-1.77
275.826	16.75
276.042	30.24
276.259	6.77
276.475	17.34
276.691	13.62
276.908	-18.06
277.124	-1.29
277.34	15.54
277.557	13.06
277.773	-1.19
277.989	1.43
278.205	-11.27
278.422	4.41
278.638	3.56
278.854	26.64
279.07	42.82
279.286	34.74
279.503	-5.32
279.719	-26.95
279.935	-28.07
280.151	-52.49
280.367	-27.11
280.583	-27.76
280.799	-11.6
281.016	-47.89
281.232	-9.58
281.448	-5.24
281.664	24.15
281.88	2.8
282.096	20.57
282.312	30.38
282.528	35.37
282.744	12.77
282.96	31.1
283.176	13.66
283.392	6.7
283.608	-2.54
283.824	2.84
284.04	8.2
284.256	24.02
284.471	9.71
284.687	7.62
284.903	7.3
285.119	18.23
285.335	-0.97
285.551	18.02
285.767	10.83
285.982	11.85
286.198	-20.33
286.414	15.87
286.63	14.4
286.846	30.71
287.061	7.42
287.277	31.56
287.493	7.44
287.709	12.89
287.924	-8.27
288.14	24.48
288.356	20.03
288.571	29.8
288.787	8.44
289.003	18.86
289.218	0.96
289.434	-37.31
289.65	-20.9
289.865	-31.9
290.081	-25.99
290.296	-22.23
290.512	1.52
290.727	-32.67
290.943	-18.58
291.159	-28.64
291.374	-25.52
291.59	-48.84
291.805	-30.88
292.021	-25.17
292.236	-21.58
292.451	-4.75
292.667	12.82
292.882	22.38
293.098	16.24
293.313	-4.76
293.529	-25.08
293.744	-30.66
293.959	-37.48
294.175	-19.45
294.39	21.04
294.605	36.02
294.821	46.01
295.036	54.59
295.251	56.99
295.467	15.47
295.682	-13.64
295.897	-45.09
296.112	-73.51
296.328	-70.01
296.543	-63.74
296.758	-42.54
296.973	-9.09
297.188	27.76
297.404	4.42
297.619	-7.75
297.834	-26.46
298.049	-58.6
298.264	-71.83
298.479	-15.42
298.694	-1.87
298.909	21.69
299.125	29.88
299.34	34.73
299.555	6.57
299.77	3.19
299.985	-45.39
300.2	-90.28
300.415	-105.85
300.63	-65.54
300.845	-56.34
301.06	-42.93
301.275	3.5
301.49	3.45
301.704	-12.24
301.919	-29.26
302.134	-40.15
302.349	-56.51
302.564	-91.21
302.779	-102.14
302.994	-59.01
303.209	-13.12
303.423	37.11
303.638	51.96
303.853	13.59
304.068	9.36
304.283	4.55
304.497	-5.9
304.712	-17.04
304.927	-8.08
305.142	-23.05
305.356	-9.83
305.571	-13.68
305.786	-19.7
306	-43.34
306.215	-37.61
306.43	-70.43
306.644	-94.03
306.859	-55.73
307.074	-7.04
307.288	-24.36
307.503	-32.3
307.717	-11.11
307.932	-18.01
308.147	-30.75
308.361	-11.11
308.576	-6.19
308.79	-55.98
309.005	-41.38
309.219	-17.51
309.434	-25.72
309.648	-18.12
309.863	14.71
310.077	11.89
310.292	6.4
310.506	18.58
310.72	18.56
310.935	25.62
311.149	27.45
311.364	38.38
311.578	38.88
311.792	34.93
312.007	33.64
312.221	9.6
312.435	3.12
312.649	-14.2
312.864	3.38
313.078	16.15
313.292	96.38
313.507	89.97
313.721	183.79
313.935	76.45
314.149	51.47
314.363	25.8
314.578	21.41
314.792	4.24
315.006	-5.11
315.22	14.09
315.434	15.85
315.648	23.53
315.862	24.29
316.077	23.21
316.291	15.83
316.505	10.3
316.719	-1.46
316.933	-1.8
317.147	-2.04
317.361	-63.8
317.575	-69.07
317.789	-92.66
318.003	-178.28
318.217	-162.93
318.431	-65.92
318.645	-16.39
318.859	-0.08
319.073	23.32
319.287	19.64
319.5	-1.86
319.714	-47.3
319.928	-70.1
320.142	-92.85
320.356	-29.23
320.57	14.43
320.784	6.68
320.997	-40.35
321.211	-19.02
321.425	-76.96
321.639	-101.8
321.853	-45.44
322.066	-16.53
322.28	-33.87
322.494	-21.44
322.707	-11.4
322.921	-17.03
323.135	-14.24
323.349	2.39
323.562	-14.43
323.776	-22.64
323.989	-27.66
324.203	-28.24
324.417	-28.11
324.63	-49.41
324.844	-43.33
325.057	-44.28
325.271	-35
325.485	-7.38
325.698	22.26
325.912	28.29
326.125	10.59
326.339	10.22
326.552	-12.01
326.766	-22.18
326.979	-7.84
327.193	35.5
327.406	22.94
327.619	12.16
327.833	24.76
328.046	-11.19
328.26	-52.4
328.473	-35.98
328.686	-51.22
328.9	-51.36
329.113	-11.91
329.326	-37.87
329.54	-20.04
329.753	-34.21
329.966	-50.34
330.179	-69.22
330.393	-26.24
330.606	-13.24
330.819	8.72
331.032	21.86
331.246	27.96
331.459	49.85
331.672	33.5
331.885	16.7
332.098	-7.22
332.311	-23.87
332.525	-70.65
332.738	-71.67
332.951	-33.47
333.164	-6.58
333.377	2.14
333.59	16.98
333.803	31.78
334.016	27.36
334.229	31.26
334.442	39.93
334.655	53.78
334.868	50.03
335.081	43.85
335.294	30.42
335.507	23.75
335.72	15.3
335.933	7.6
336.146	-12.46
336.359	-19.91
336.572	-54.61
336.785	-89.92
336.997	-77.42
337.21	-32.02
337.423	-25.54
337.636	-14.33
337.849	10.94
338.062	-2.93
338.274	-5.34
338.487	-21.31
338.7	-21.64
338.913	-59.22
339.125	-74.73
339.338	-115.33
339.551	-96.84
339.763	-55.01
339.976	-18.67
340.189	15.28
340.402	11.68
340.614	14.43
340.827	10.79
341.039	8.57
341.252	-2.72
341.465	12
341.677	5.95
341.89	-26.33
342.102	-15.03
342.315	-31.7
342.527	-50.87
342.74	-34.82
342.952	-13.03
343.165	-25.77
343.377	-0.85
343.59	-11.55
343.802	-4.46
344.015	-12.69
344.227	6.5
344.44	9.5
344.652	26.59
344.864	13.1
345.077	38.76
345.289	32.82
345.502	25.46
345.714	4.11
345.926	17.7
346.139	4.66
346.351	-0.07
346.563	11.18
346.775	21.23
346.988	8.65
347.2	-0.87
347.412	-28.28
347.624	-37.76
347.837	-54.21
348.049	-36.25
348.261	8.1
348.473	4.57
348.685	1.25
348.897	4.98
349.11	-15.16
349.322	-42.77
349.534	-19.85
349.746	-24.42
349.958	-20.57
350.17	-7.65
350.382	-11.68
350.594	-16.73
350.806	-12.92
351.018	-4.19
351.23	-33.19
351.442	-53.32
351.654	-45.34
351.866	-16.81
352.078	-12.03
352.29	18
352.502	22.29
352.714	23.25
352.926	3.33
353.138	8.89
353.35	-1.03
353.561	0.99
353.773	-15.17
353.985	-4.9
354.197	-15.86
354.409	-12.66
354.621	-13.33
354.832	0.43
355.044	-3.11
355.256	-1.31
355.468	8.41
355.679	-2.85
355.891	-8.33
356.103	-24.5
356.314	-18.09
356.526	-29.27
356.738	-22.13
356.949	-27.53
357.161	-0.98
357.373	-5.72
357.584	-7.59
357.796	7.81
358.008	5.12
358.219	20.48
358.431	20.56
358.642	34.69
358.854	22.33
359.065	14.96
359.277	-23.61
359.488	-32.09
359.7	-60.44
359.911	-60.02
360.123	-35.87
360.334	-41.93
360.546	-51.76
360.757	-51.07
360.969	-45.23
361.18	-32.19
361.391	-12.05
361.603	-14.64
361.814	-12.39
362.025	-11.41
362.237	-17.13
362.448	-5.73
362.659	4.1
362.871	0.89
363.082	-4.49
363.293	-10.24
363.504	-18.05
363.716	-36.57
363.927	-23.33
364.138	-35.5
364.349	-47.18
364.56	-40.58
364.772	-32.86
364.983	-13.49
365.194	4.38
365.405	22.62
365.616	38.85
365.827	39.43
366.038	12.76
366.25	-12.12
366.461	-48.09
366.672	-40.55
366.883	-17.75
367.094	-12.38
367.305	-15.3
367.516	-9.78
367.727	-30.04
367.938	-40.92
368.149	-43.39
368.36	-19.72
368.571	-14.36
368.781	-24.91
368.992	-24.81
369.203	-29.42
369.414	-44.6
369.625	-53.53
369.836	-40.04
370.047	-65.74
370.258	-52.93
370.468	-54.27
370.679	-58.83
370.89	-51.7
371.101	-40.33
371.312	-43.09
371.522	-44.11
371.733	-29.81
371.944	-28.19
372.155	-18.07
372.365	-27.89
372.576	-23.6
372.787	-27.48
372.997	-46.01
373.208	-41.69
373.419	-11.77
373.629	-43.73
373.84	-44.98
374.05	-51.81
374.261	-37.77
374.472	-52.46
374.682	8
374.893	14.43
375.103	39.98
375.314	34.16
375.524	29.86
375.735	27.62
375.945	29.16
376.156	11.61
376.366	8.08
376.577	15.82
376.787	-1.57
376.997	3.84
377.208	1.79
377.418	-7.49
377.629	-2.07
377.839	1.69
378.049	-2.42
378.26	8.68
378.47	18.27
378.68	6.91
378.89	5.52
379.101	2.97
379.311	-18.23
379.521	-42.21
379.732	-33.85
379.942	-41.44
380.152	-55.43
380.362	-25.01
380.572	-18.51
380.783	-20.72
380.993	-8.24
381.203	3.84
381.413	8.2
381.623	4.94
381.833	12.63
382.043	2.56
382.253	-6.42
382.463	-12.98
382.674	-19.64
382.884	-35.37
383.094	-35.01
383.304	-26.92
383.514	-19.63
383.724	-6.56
383.934	-5.45
384.144	-12.77
384.353	-17.7
384.563	-13.28
384.773	-13.73
384.983	-13.42
385.193	0.2
385.403	-0.73
385.613	-11.8
385.823	-21.8
386.033	-19.9
386.242	-22.15
386.452	-23.85
386.662	-20.99
386.872	-4.88
387.082	-2.82
387.291	-4.87
387.501	-2.94
387.711	1.35
387.921	-9.55
388.13	-10.47
388.34	-2.51
388.55	-7.48
388.759	-11.77
388.969	-5.95
389.179	-9.92
389.388	-14.19
389.598	-5
389.807	-9.03
390.017	-13.55
390.227	-8.48
390.436	-10.25
390.646	-9.43
390.855	-6.26
391.065	-3.4
391.274	-5.17
391.484	-6.53
391.693	-5.25
391.903	-3.55
392.112	0.1
392.322	2.42
392.531	6.54
392.74	6.81
392.95	2.88
393.159	1.73
393.369	1.34
393.578	-0.03
393.787	-2.26
393.997	-0.76
394.206	-2.87
394.415	-2.73
394.625	-2.3
394.834	-2.72
395.043	-0.85
395.252	1.24
395.462	2.81
395.671	4.64
395.88	5.79
396.089	6.52
396.298	4.55
396.508	4.46
396.717	2.98
396.926	3.18
397.135	2.12
397.344	2.62
397.553	2.26
397.762	3.51
397.971	2.72
398.181	2.83
398.39	2.52
398.599	2.7
398.808	2.59
399.017	3.64
399.226	4.5
399.435	5.69
399.644	5.64
399.853	4.79
400.062	4.29
400.27	4.12
400.479	3.6
400.688	2.91
400.897	3.25
401.106	3.42
401.315	3.37
401.524	3.38
401.733	4.11
401.941	4.73
402.15	5.03
402.359	4.67
402.568	5.09
402.777	5.1
402.985	4.74
403.194	4.2
403.403	4.28
403.612	3.75
403.82	3.54
404.029	3.71
404.238	3.71
404.446	3.96
404.655	3.95
404.864	3.99
405.072	3.73
405.281	4.05
405.489	3.86
405.698	3.9
405.906	3.8
406.115	3.77
406.324	3.52
406.532	3.58
406.741	3.79
406.949	3.81
407.158	3.84
407.366	3.98
407.574	4.01
407.783	3.86
407.991	3.77
408.2	3.9
408.408	3.88
408.617	3.73
408.825	3.7
409.033	3.79
409.242	3.81
409.45	3.66
409.658	3.57
409.867	3.55
410.075	3.49
410.283	3.17
410.491	3.2
410.7	3.28
410.908	3.31
411.116	3.46
411.324	3.65
411.533	3.62
411.741	3.72
411.949	3.66
412.157	3.34
412.365	3.28
412.573	3.31
412.781	3.27
412.99	3.27
413.198	3.56
413.406	3.66
413.614	3.77
413.822	3.61
414.03	3.55
414.238	3.36
414.446	3.38
414.654	3.06
414.862	3.28
415.07	3.37
415.278	3.57
415.486	3.22
415.694	3.4
415.902	3.15
416.109	2.92
416.317	2.88
416.525	2.86
416.733	2.86
416.941	2.96
417.149	3.1
417.357	2.97
417.564	3.23
417.772	3.38
417.98	3.37
418.188	3.4
418.395	3.47
418.603	3.6
418.811	3.3
419.019	3.27
419.226	3.39
419.434	3.53
419.642	3.33
419.849	3.44
420.057	3.46
420.265	3.37
420.472	3.13
420.68	3.09
420.887	3.02
421.095	2.97
421.302	2.94
421.51	3.08
421.717	3.15
421.925	3.19
422.132	3
422.34	2.75
422.547	2.77
422.755	2.64
422.962	2.6
423.17	2.72
423.377	2.95
423.585	2.95
423.792	2.86
423.999	2.87
424.207	2.85
424.414	2.98
424.621	2.91
424.829	2.98
425.036	3.05
425.243	3.07
425.451	2.65
425.658	2.48
425.865	2.7
426.072	2.72
426.28	2.98
426.487	3.14
426.694	3.24
426.901	2.99
427.108	2.99
427.315	2.83
427.523	3.09
427.73	3.05
427.937	3.19
428.144	3.02
428.351	2.83
428.558	2.96
428.765	2.88
428.972	2.7
429.179	2.89
429.386	3.2
429.593	2.86
429.8	2.93
430.007	3.21
430.214	3.32
430.421	3.21
430.628	3.18
430.835	3.01
431.042	3.08
431.249	3.02
431.456	3.06
431.662	3.19
431.869	3.48
432.076	3.41
432.283	3.54
432.49	3.47
432.697	3.5
432.903	3.3
433.11	3.27
433.317	3.21
433.524	3.41
433.73	3.39
433.937	3.58
434.144	3.38
434.35	3.37
434.557	3.17
434.764	3.18
434.97	3.1
435.177	3.42
435.384	3.4
435.59	3.51
435.797	3.73
436.003	3.81
436.21	3.77
436.416	3.88
436.623	3.92
436.829	3.94
437.036	4.05
437.242	4.02
437.449	3.88
437.655	4.02
437.862	3.94
438.068	3.92
438.275	4.06
438.481	4.27
438.687	4.17
438.894	4.07
439.1	4.04
439.307	4.14
439.513	4.05
439.719	4.04
439.926	4.25
440.132	4.3
440.338	4.14
440.544	4.26
440.751	4.24
440.957	4.21
441.163	4.1
441.369	4.26
441.575	4.03
441.782	4.06
441.988	3.98
442.194	4.14
442.4	4.09
442.606	4.38
442.812	4.49
443.018	4.59
443.224	4.57
443.431	4.61
443.637	4.42
443.843	4.36
444.049	4.35
444.255	4.3
444.461	4.4
444.667	4.34
444.873	4.46
445.079	4.48
445.284	4.58
445.49	4.28
445.696	4.29
445.902	4.23
446.108	4.17
446.314	4.04
446.52	4.15
446.726	4.36
446.931	4.33
447.137	4.44
447.343	4.55
447.549	4.54
447.755	4.4
447.96	4.53
448.166	4.38
448.372	4.36
448.578	4.42
448.783	4.5
448.989	4.55
449.195	4.73
449.4	4.73
449.606	4.73
449.812	4.7
450.017	4.7
450.223	4.66
450.428	4.57
450.634	4.73
450.84	4.86
451.045	4.78
451.251	4.66
451.456	4.97
451.662	5.01
451.867	4.98
452.073	4.95
452.278	5.1
452.483	5.16
452.689	4.98
452.894	5
453.1	5
453.305	4.93
453.51	4.75
453.716	4.75
453.921	4.72
454.127	4.69
454.332	4.7
454.537	4.72
454.742	4.79
454.948	4.75
455.153	4.86
455.358	4.92
455.563	4.96
455.769	5.05
455.974	5.08
456.179	4.94
456.384	4.92
456.589	4.94
456.795	4.74
457	4.76
457.205	5.06
457.41	5.03
457.615	4.96
457.82	5.09
458.025	5.02
458.23	4.78
458.435	4.86
458.64	4.84
458.845	4.88
459.05	4.91
459.255	5
459.46	5.05
459.665	5.05
459.87	5.15
460.075	5.16
460.28	5.19
460.485	5.13
460.69	5.13
460.895	4.94
461.099	4.94
461.304	5.01
461.509	5.04
461.714	4.99
461.919	5.14
462.123	5.03
462.328	5.06
462.533	5.01
462.738	5.15
462.942	5.16
463.147	5.29
463.352	5.23
463.556	5.32
463.761	5.29
463.966	5.29
464.17	5.32
464.375	5.22
464.58	5.15
464.784	5.13
464.989	5.03
465.193	5.03
465.398	5.15
465.602	5.34
465.807	5.31
466.011	5.37
466.216	5.45
466.42	5.42
466.625	5.43
466.829	5.61
467.034	5.75
467.238	5.92
467.443	5.93
467.647	5.74
467.851	5.69
468.056	5.7
468.26	5.53
468.464	5.52
468.669	5.67
468.873	5.8
469.077	5.71
469.282	5.86
469.486	6.02
469.69	6
469.894	5.91
470.099	6
470.303	6.08
470.507	5.94
470.711	5.86
470.915	5.86
471.119	5.82
471.324	5.67
471.528	5.78
471.732	5.92
471.936	5.95
472.14	6.02
472.344	6.01
472.548	6.02
472.752	6.15
472.956	6.31
473.16	6.25
473.364	6.2
473.568	6.15
473.772	6.09
473.976	6.03
474.18	6.05
474.384	6.19
474.588	6.16
474.792	6.07
474.995	6.06
475.199	6.16
475.403	6.22
475.607	6.37
475.811	6.46
476.015	6.49
476.218	6.58
476.422	6.51
476.626	6.59
476.83	6.7
477.033	6.68
477.237	6.58
477.441	6.63
477.644	6.59
477.848	6.53
478.052	6.52
478.255	6.5
478.459	6.56
478.663	6.65
478.866	6.66
479.07	6.82
479.273	6.96
479.477	7.01
479.681	6.97
479.884	6.97
480.088	6.84
480.291	6.77
480.495	6.78
480.698	6.72
480.901	6.77
481.105	6.92
481.308	6.96
481.512	6.88
481.715	7.01
481.919	7.03
482.122	7.04
482.325	6.98
482.529	7.07
482.732	6.99
482.935	6.96
483.138	6.79
483.342	6.92
483.545	6.99
483.748	7.08
483.952	7.12
484.155	7.3
484.358	7.29
484.561	7.22
484.764	7.15
484.967	7.21
485.171	7.3
485.374	7.27
485.577	7.36
485.78	7.35
485.983	7.35
486.186	7.19
486.389	7.21
486.592	7.17
486.795	7.25
486.998	7.26
487.201	7.34
487.404	7.41
487.607	7.51
487.81	7.52
488.013	7.55
488.216	7.49
488.419	7.48
488.622	7.38
488.825	7.35
489.028	7.3
489.231	7.29
489.433	7.22
489.636	7.12
489.839	7.11
490.042	7.02
490.245	7.07
490.447	7.12
490.65	7.2
490.853	7.24
491.056	7.36
491.258	7.39
491.461	7.42
491.664	7.51
491.866	7.39
492.069	7.46
492.272	7.37
492.474	7.37
492.677	7.37
492.879	7.56
493.082	7.6
493.285	7.75
493.487	7.73
493.69	7.63
493.892	7.5
494.095	7.39
494.297	7.33
494.5	7.35
494.702	7.35
494.905	7.39
495.107	7.38
495.309	7.36
495.512	7.38
495.714	7.48
495.917	7.5
496.119	7.48
496.321	7.5
496.524	7.55
496.726	7.55
496.928	7.6
497.13	7.63
497.333	7.63
497.535	7.58
497.737	7.6
497.939	7.58
498.142	7.66
498.344	7.65
498.546	7.62
498.748	7.63
498.95	7.75
499.152	7.73
499.355	7.84
499.557	7.95
499.759	8
499.961	7.88
500.163	7.91
500.365	7.88
500.567	7.98
500.769	7.88
500.971	7.95
501.173	7.91
501.375	7.95
501.577	7.84
501.779	7.85
501.981	7.85
502.183	7.87
502.385	7.8
502.587	7.77
502.788	7.89
502.99	7.99
503.192	8.07
503.394	8.06
503.596	8.16
503.798	8.23
503.999	8.22
504.201	8.19
504.403	8.32
504.605	8.27
504.806	8.14
505.008	8.12
505.21	8.14
505.411	8.12
505.613	8.16
505.815	8.23
506.016	8.24
506.218	8.34
506.42	8.29
506.621	8.35
506.823	8.39
507.024	8.32
507.226	8.26
507.427	8.32
507.629	8.31
507.83	8.31
508.032	8.4
508.233	8.47
508.435	8.52
508.636	8.58
508.838	8.59
509.039	8.6
509.24	8.63
509.442	8.62
509.643	8.55
509.845	8.54
510.046	8.59
510.247	8.57
510.448	8.59
510.65	8.69
510.851	8.75
511.052	8.8
511.254	8.84
511.455	8.95
511.656	8.96
511.857	9.03
512.058	9.02
512.26	8.96
512.461	8.97
512.662	8.98
512.863	8.88
513.064	8.89
513.265	8.94
513.466	8.9
513.667	8.85
513.868	8.93
514.069	9.01
514.27	9.07
514.471	9.05
514.672	9.1
514.873	9.09
515.074	9.12
515.275	9.05
515.476	9.11
515.677	9.13
515.878	9.24
516.079	9.16
516.28	9.23
516.481	9.32
516.682	9.32
516.882	9.22
517.083	9.23
517.284	9.13
517.485	9.11
517.686	9.13
517.886	9.14
518.087	9.19
518.288	9.32
518.488	9.28
518.689	9.25
518.89	9.28
519.091	9.35
519.291	9.29
519.492	9.37
519.692	9.46
519.893	9.53
520.094	9.42
520.294	9.38
520.495	9.31
520.695	9.33
520.896	9.27
521.096	9.31
521.297	9.4
521.497	9.39
521.698	9.29
521.898	9.3
522.099	9.27
522.299	9.33
522.499	9.39
522.7	9.45
522.9	9.47
523.101	9.59
523.301	9.58
523.501	9.59
523.702	9.66
523.902	9.68
524.102	9.71
524.302	9.68
524.503	9.74
524.703	9.75
524.903	9.77
525.103	9.65
525.304	9.73
525.504	9.73
525.704	9.76
525.904	9.73
526.104	9.75
526.304	9.72
526.504	9.75
526.705	9.77
526.905	9.86
527.105	9.89
527.305	9.9
527.505	9.82
527.705	9.83
527.905	9.84
528.105	9.91
528.305	9.88
528.505	9.94
528.705	9.97
528.905	9.91
529.105	9.91
529.304	9.95
529.504	10.03
529.704	9.91
529.904	9.93
530.104	9.93
530.304	9.98
530.503	9.93
530.703	9.95
530.903	9.97
531.103	10
531.303	10
531.502	10.03
531.702	10.14
531.902	10.16
532.101	10.11
532.301	10.08
532.501	10.09
532.7	10.04
532.9	10.07
533.1	10.11
533.299	10.17
533.499	10.17
533.698	10.21
533.898	10.2
534.097	10.21
534.297	10.26
534.496	10.3
534.696	10.31
534.895	10.41
535.095	10.56
535.294	10.5
535.494	10.5
535.693	10.54
535.892	10.5
536.092	10.36
536.291	10.4
536.491	10.46
536.69	10.48
536.889	10.41
537.088	10.51
537.288	10.56
537.487	10.6
537.686	10.58
537.886	10.69
538.085	10.73
538.284	10.85
538.483	10.87
538.682	10.96
538.882	10.96
539.081	11.02
539.28	10.89
539.479	10.84
539.678	10.81
539.877	10.89
540.076	10.86
540.275	10.91
540.474	10.99
540.673	11.04
540.872	11
541.071	11.04
541.27	11.09
541.469	11.06
541.668	11.09
541.867	11.16
542.066	11.18
542.265	11.22
542.464	11.26
542.663	11.26
542.862	11.33
543.06	11.35
543.259	11.42
543.458	11.47
543.657	11.55
543.856	11.56
544.054	11.58
544.253	11.52
544.452	11.57
544.651	11.62
544.849	11.59
545.048	11.65
545.247	11.74
545.445	11.75
545.644	11.79
545.843	11.8
546.041	11.83
546.24	11.92
546.438	12.05
546.637	12.1
546.836	12.29
547.034	12.37
547.233	12.38
547.431	12.35
547.63	12.38
547.828	12.34
548.027	12.38
548.225	12.38
548.423	12.4
548.622	12.44
548.82	12.47
549.019	12.51
549.217	12.61
549.415	12.7
549.614	12.77
549.812	12.83
550.01	12.82
550.209	12.83
550.407	12.91
550.605	12.94
550.803	13.04
551.002	13.14
551.2	13.25
551.398	13.32
551.596	13.45
551.794	13.52
551.993	13.65
552.191	13.74
552.389	13.89
552.587	14
552.785	14.04
552.983	14.09
553.181	14.11
553.379	14.06
553.577	14.05
553.775	14.17
553.973	14.22
554.171	14.34
554.369	14.4
554.567	14.48
554.765	14.52
554.963	14.57
555.161	14.59
555.359	14.68
555.557	14.81
555.755	14.87
555.952	14.98
556.15	15.08
556.348	15.18
556.546	15.22
556.744	15.23
556.941	15.27
557.139	15.37
557.337	15.39
557.535	15.48
557.732	15.6
557.93	15.84
558.128	15.9
558.325	16.05
558.523	16.02
558.721	16.14
558.918	16.13
559.116	16.22
559.313	16.27
559.511	16.5
559.708	16.57
559.906	16.55
560.104	16.64
560.301	16.78
560.498	16.83
560.696	16.9
560.893	17.08
561.091	17.14
561.288	17.21
561.486	17.25
561.683	17.32
561.88	17.35
562.078	17.49
562.275	17.53
562.473	17.64
562.67	17.76
562.867	17.91
563.064	17.99
563.262	18.07
563.459	18.13
563.656	18.33
563.853	18.36
564.051	18.39
564.248	18.64
564.445	18.82
564.642	18.83
564.839	19.05
565.036	19.25
565.234	19.42
565.431	19.47
565.628	19.6
565.825	19.69
566.022	19.84
566.219	19.8
566.416	19.93
566.613	20.04
566.81	20.05
567.007	19.99
567.204	20
567.401	20.04
567.598	20.06
567.795	20.22
567.991	20.34
568.188	20.55
568.385	20.72
568.582	20.74
568.779	20.74
568.976	20.87
569.172	20.93
569.369	20.91
569.566	21.03
569.763	21.15
569.96	21.07
570.156	21.03
570.353	21.04
570.55	21.14
570.746	21.19
570.943	21.36
571.14	21.48
571.336	21.67
571.533	21.78
571.729	21.7
571.926	21.76
572.123	21.78
572.319	21.76
572.516	21.71
572.712	21.88
572.909	21.82
573.105	21.91
573.302	22.02
573.498	22.09
573.695	22.06
573.891	22.12
574.087	22.1
574.284	22.09
574.48	22.1
574.677	22.29
574.873	22.42
575.069	22.4
575.266	22.47
575.462	22.43
575.658	22.34
575.854	22.45
576.051	22.49
576.247	22.44
576.443	22.49
576.639	22.43
576.835	22.25
577.032	22.27
577.228	22.36
577.424	22.38
577.62	22.46
577.816	22.6
578.012	22.64
578.208	22.56
578.404	22.58
578.6	22.69
578.796	22.61
578.993	22.62
579.189	22.6
579.384	22.54
579.58	22.48
579.776	22.4
579.972	22.37
580.168	22.41
580.364	22.53
580.56	22.45
580.756	22.49
580.952	22.46
581.148	22.42
581.343	22.39
581.539	22.48
581.735	22.59
581.931	22.7
582.127	22.77
582.322	22.76
582.518	22.78
582.714	22.74
582.909	22.7
583.105	22.62
583.301	22.62
583.496	22.53
583.692	22.48
583.888	22.39
584.083	22.48
584.279	22.53
584.474	22.54
584.67	22.58
584.866	22.64
585.061	22.45
585.257	22.45
585.452	22.44
585.648	22.39
585.843	22.44
586.039	22.45
586.234	22.46
586.429	22.41
586.625	22.63
586.82	22.6
587.015	22.76
587.211	22.65
587.406	22.7
587.601	22.58
587.797	22.51
587.992	22.48
588.187	22.63
588.383	22.59
588.578	22.59
588.773	22.65
588.968	22.73
589.163	22.75
589.359	22.82
589.554	22.82
589.749	22.89
589.944	22.9
590.139	22.89
590.334	23.03
590.529	23.05
590.724	23.08
590.919	23.14
591.114	23.11
591.309	23.06
591.504	23.17
591.699	23.15
591.894	23.19
592.089	23.32
592.284	23.36
592.479	23.33
592.674	23.33
592.869	23.35
593.064	23.38
593.259	23.54
593.454	23.7
593.648	23.86
593.843	23.88
594.038	23.96
594.233	23.9
594.428	23.87
594.622	23.95
594.817	24.19
595.012	24.24
595.206	24.36
595.401	24.42
595.596	24.43
595.79	24.37
595.985	24.51
596.18	24.56
596.374	24.71
596.569	24.77
596.763	24.8
596.958	24.83
597.153	24.92
597.347	24.92
597.542	25.05
597.736	25.07
597.931	25.04
598.125	25.13
598.319	25.31
598.514	25.29
598.708	25.39
598.903	25.44
599.097	25.43
599.291	25.4
599.486	25.46
599.68	25.54
599.874	25.68
600.069	25.68
600.263	25.74
600.457	25.81
600.651	25.78
600.846	25.78
601.04	25.86
601.234	25.89
601.428	25.99
601.622	26.06
601.817	26.08
602.011	26.12
602.205	26.12
602.399	26.04
602.593	26.12
602.787	26.17
602.981	26.13
603.175	26.18
603.369	26.16
603.563	26.16
603.757	26.24
603.951	26.33
604.145	26.31
604.339	26.4
604.533	26.33
604.727	26.24
604.921	26.17
605.115	26.18
605.309	26.23
605.502	26.23
605.696	26.21
605.89	26.19
606.084	26.22
606.278	26.16
606.471	26.1
606.665	26.11
606.859	26.07
607.053	25.91
607.246	25.85
607.44	25.86
607.634	25.69
607.827	25.74
608.021	25.74
608.214	25.67
608.408	25.62
608.602	25.68
608.795	25.49
608.989	25.43
609.182	25.33
609.376	25.26
609.569	25.14
609.763	25.08
609.956	25.03
610.15	25
610.343	24.93
610.537	24.87
610.73	24.83
610.923	24.81
611.117	24.7
611.31	24.71
611.504	24.67
611.697	24.67
611.89	24.56
612.083	24.58
612.277	24.5
612.47	24.39
612.663	24.3
612.856	24.28
613.05	24.12
613.243	24
613.436	23.91
613.629	23.84
613.822	23.67
614.015	23.64
614.209	23.48
614.402	23.54
614.595	23.51
614.788	23.48
614.981	23.42
615.174	23.38
615.367	23.17
615.56	23
615.753	22.94
615.946	22.84
616.139	22.89
616.332	23.01
616.525	23.04
616.718	23.07
616.911	23.03
617.103	22.99
617.296	22.95
617.489	22.9
617.682	22.83
617.875	22.88
618.067	22.82
618.26	22.69
618.453	22.69
618.646	22.67
618.838	22.66
619.031	22.77
619.224	22.79
619.417	22.76
619.609	22.71
619.802	22.63
619.994	22.53
620.187	22.45
620.38	22.48
620.572	22.43
620.765	22.51
620.957	22.32
621.15	22.22
621.342	22.06
621.535	22.07
621.727	21.99
621.92	21.99
622.112	22.04
622.305	22.18
622.497	22.11
622.69	22.01
622.882	22.02
623.074	22.02
623.267	21.85
623.459	21.82
623.651	21.77
623.844	21.8
624.036	21.79
624.228	21.81
624.42	21.76
624.613	21.89
624.805	21.86
624.997	21.82
625.189	21.75
625.381	21.83
625.574	21.72
625.766	21.62
625.958	21.55
626.15	21.63
626.342	21.5
626.534	21.45
626.726	21.44
626.918	21.51
627.11	21.46
627.302	21.48
627.494	21.44
627.686	21.5
627.878	21.37
628.07	21.32
628.262	21.22
628.454	21.2
628.646	21.16
628.838	21.22
629.029	21.18
629.221	21.28
629.413	21.24
629.605	21.15
629.797	21
629.989	21.05
630.18	20.93
630.372	20.92
630.564	20.92
630.755	21.12
630.947	21.06
631.139	20.96
631.33	20.82
631.522	20.86
631.714	20.75
631.905	20.68
632.097	20.68
632.289	20.7
632.48	20.69
632.672	20.52
632.863	20.35
633.055	20.36
633.246	20.36
633.438	20.22
633.629	20.28
633.821	20.4
634.012	20.35
634.203	20.32
634.395	20.39
634.586	20.41
634.777	20.3
634.969	20.33
635.16	20.36
635.351	20.24
635.543	20.24
635.734	20.42
635.925	20.34
636.117	20.35
636.308	20.43
636.499	20.3
636.69	20.1
636.881	20.05
637.073	20.06
637.264	19.93
637.455	19.92
637.646	20.04
637.837	20.15
638.028	20.05
638.219	20.14
638.41	20.14
638.601	20.08
638.792	20.07
638.983	20.07
639.174	20.07
639.365	20.08
639.556	20.02
639.747	19.96
639.938	20
640.129	19.92
640.32	19.93
640.511	20
640.701	20.09
640.892	20.02
641.083	20.1
641.274	20.12
641.465	20.07
641.655	19.92
641.846	19.93
642.037	19.82
642.228	19.76
642.418	19.81
642.609	19.87
642.8	19.83
642.99	19.79
643.181	19.76
643.372	19.69
643.562	19.65
643.753	19.55
643.943	19.54
644.134	19.42
644.324	19.37
644.515	19.38
644.705	19.48
644.896	19.44
645.086	19.54
645.277	19.46
645.467	19.46
645.658	19.45
645.848	19.51
646.038	19.44
646.229	19.45
646.419	19.33
646.61	19.25
646.8	19.15
646.99	19.15
647.18	19.09
647.371	19.14
647.561	19.21
647.751	19.28
647.941	19.21
648.132	19.21
648.322	19.21
648.512	19.17
648.702	19.12
648.892	19.21
649.082	19.19
649.272	19
649.462	18.93
649.653	18.84
649.843	18.74
650.033	18.82
650.223	18.81
650.413	18.75
650.603	18.8
650.793	18.78
650.983	18.62
651.172	18.62
651.362	18.55
651.552	18.47
651.742	18.42
651.932	18.37
652.122	18.34
652.312	18.37
652.502	18.32
652.691	18.25
652.881	18.17
653.071	18.12
653.261	18
653.45	17.84
653.64	17.79
653.83	17.66
654.019	17.5
654.209	17.4
654.399	17.37
654.588	17.24
654.778	17.27
654.968	17.25
655.157	17.13
655.347	17.05
655.536	16.92
655.726	16.8
655.915	16.63
656.105	16.51
656.294	16.42
656.484	16.3
656.673	16.1
656.863	15.99
657.052	15.84
657.241	15.61
657.431	15.41
657.62	15.26
657.809	14.97
657.999	14.84
658.188	14.72
658.377	14.54
658.567	14.45
658.756	14.39
658.945	14.21
659.134	13.97
659.324	13.85
659.513	13.71
659.702	13.51
659.891	13.35
660.08	13.3
660.269	13.19
660.458	13
660.648	12.94
660.837	12.76
661.026	12.7
661.215	12.52
661.404	12.3
661.593	12.17
661.782	11.97
661.971	11.74
662.16	11.66
662.349	11.62
662.538	11.37
662.726	11.31
662.915	11.2
663.104	10.98
663.293	10.83
663.482	10.86
663.671	10.84
663.86	10.7
664.048	10.55
664.237	10.51
664.426	10.27
664.615	10.19
664.803	10.14
664.992	10.09
665.181	9.93
665.369	9.91
665.558	9.71
665.747	9.64
665.935	9.69
666.124	9.7
666.312	9.68
666.501	9.62
666.69	9.48
666.878	9.34
667.067	9.19
667.255	9.2
667.444	9.41
667.632	9.5
667.82	9.62
668.009	9.57
668.197	9.34
668.386	9.19
668.574	9.16
668.762	8.97
668.951	8.9
669.139	8.96
669.327	8.87
669.516	8.98
669.704	8.99
669.892	9.2
670.08	9.24
670.269	9.08
670.457	8.91
670.645	8.75
670.833	8.76
671.021	8.76
671.21	8.89
671.398	8.98
671.586	9.09
671.774	8.87
671.962	8.83
672.15	8.9
672.338	8.74
672.526	8.82
672.714	8.85
672.902	8.94
673.09	8.96
673.278	9.3
673.466	9.45
673.654	9.72
673.842	9.67
674.03	9.72
674.218	9.44
674.405	9.42
674.593	9.19
674.781	9.41
674.969	9.48
675.157	9.66
675.344	9.65
675.532	9.85
675.72	9.88
675.908	9.97
676.095	9.98
676.283	10.1
676.471	10.21
676.658	10.11
676.846	10.12
677.033	10.26
677.221	10.26
677.409	10.21
677.596	10.38
677.784	10.39
677.971	10.43
678.159	10.54
678.346	10.67
678.534	10.75
678.721	11.01
678.909	10.99
679.096	10.97
679.283	11.01
679.471	11.16
679.658	11.19
679.846	11.44
680.033	11.68
680.22	11.89
680.408	12.01
680.595	12.12
680.782	12.14
680.969	12.26
681.157	12.39
681.344	12.44
681.531	12.54
681.718	12.54
681.905	12.7
682.093	12.81
682.28	13.04
682.467	13.26
682.654	13.69
682.841	13.73
683.028	13.95
683.215	14.17
683.402	14.25
683.589	14.42
683.776	14.8
683.963	14.84
684.15	14.92
684.337	15.22
684.524	15.36
684.711	15.52
684.898	15.68
685.085	15.9
685.271	16.36
685.458	16.58
685.645	16.81
685.832	17.19
686.019	17.66
686.205	17.67
686.392	18.02
686.579	18.33
686.766	18.79
686.952	19.02
687.139	19.53
687.326	19.79
687.512	19.99
687.699	20.25
687.886	20.45
688.072	20.66
688.259	21.16
688.445	21.78
688.632	21.95
688.818	22.78
689.005	23.22
689.191	23.68
689.378	24.19
689.564	25
689.751	25.25
689.937	25.7
690.124	26.02
690.31	26.36
690.496	26.69
690.683	27.19
690.869	27.63
691.055	28.26
691.242	28.95
691.428	29.5
691.614	29.99
691.8	30.93
691.987	31.69
692.173	32.39
692.359	32.93
692.545	33.52
692.731	33.71
692.918	34.26
693.104	34.57
693.29	35.23
693.476	36.06
693.662	36.83
693.848	37.29
694.034	37.86
694.22	38.31
694.406	38.89
694.592	39.46
694.778	39.71
694.964	40.36
695.15	41.02
695.336	41.32
695.522	41.96
695.708	42.69
695.894	43.22
696.08	43.85
696.265	44.5
696.451	44.96
696.637	45.73
696.823	46.28
697.009	46.58
697.194	46.87
697.38	47.22
697.566	47.48
697.751	47.96
697.937	48.84
698.123	49.39
698.308	50.09
698.494	50.79
698.68	51.19
698.865	51.35
699.051	51.9
699.236	52.31
699.422	52.51
699.607	52.78
699.793	53.26
699.978	53.68
700.164	53.88
700.349	54.61
700.535	55.11
700.72	55.49
700.906	56.02
701.091	56.64
701.276	56.66
701.462	57.57
701.647	58.26
701.832	58.39
702.018	58.46
702.203	58.88
702.388	58.74
702.573	58.91
702.759	59.57
702.944	60.17
703.129	60.36
703.314	60.62
703.499	60.72
703.684	60.59
703.87	61.06
704.055	61.94
704.24	62.37
704.425	62.89
704.61	63.75
704.795	63.72
704.98	63.57
705.165	63.8
705.35	63.96
705.535	63.78
705.72	64.18
705.905	64.74
706.09	65.02
706.275	65.09
706.459	65.37
706.644	65.4
706.829	65.14
707.014	65.21
707.199	65.82
707.384	65.87
707.568	65.97
707.753	66.58
707.938	67
708.123	66.75
708.307	67.1
708.492	67.39
708.677	67.48
708.861	67.33
709.046	67.45
709.231	67.87
709.415	68.29
709.6	68.36
709.784	68.58
709.969	68.97
710.153	68.75
710.338	68.74
710.522	68.82
710.707	69.34
710.891	69.28
711.076	69.16
711.26	68.85
711.445	68.81
711.629	68.69
711.813	68.9
711.998	69.53
712.182	69.6
712.366	70.41
712.551	70.99
712.735	71.11
712.919	71.06
713.103	71.76
713.288	71.24
713.472	70.63
713.656	71.04
713.84	71.07
714.024	71.18
714.208	71.4
714.393	71.84
714.577	71.68
714.761	71.91
714.945	71.88
715.129	71.8
715.313	71.97
715.497	71.97
715.681	72.1
715.865	72.02
716.049	72.46
716.233	72.29
716.417	72.7
716.601	72.4
716.785	72.42
716.968	72.3
717.152	72.54
717.336	72.69
717.52	72.71
717.704	72.9
717.888	73.25
718.071	73.21
718.255	73.04
718.439	73.45
718.622	73.58
718.806	73.65
718.99	73.18
719.174	73.09
719.357	73.22
719.541	73.42
719.724	73.25
719.908	74.03
720.092	74.88
720.275	75.15
720.459	74.83
720.642	74.41
720.826	74.4
721.009	73.79
721.193	73.31
721.376	74.1
721.559	74.82
721.743	75.07
721.926	74.98
722.11	74.73
722.293	73.61
722.476	73.36
722.66	73.13
722.843	73.58
723.026	73.72
723.21	74.11
723.393	74.45
723.576	74.59
723.759	73.99
723.942	74.21
724.126	74.39
724.309	74.21
724.492	74.24
724.675	74.68
724.858	74.94
725.041	75.05
725.224	75.02
725.407	75.07
725.59	75.03
725.774	74.84
725.957	74.54
726.14	74.16
726.322	74.11
726.505	74.19
726.688	74.72
726.871	74.87
727.054	75.59
727.237	75.69
727.42	75.96
727.603	75.9
727.786	76.21
727.968	76.35
728.151	76.78
728.334	76.75
728.517	76.69
728.699	77.36
728.882	77.1
729.065	76.72
729.248	77.28
729.43	77.59
729.613	77.91
729.796	78.67
729.978	78.58
730.161	77.77
730.343	77.7
730.526	78
730.708	77.39
730.891	77.91
731.073	77.85
731.256	77.44
731.438	76.97
731.621	77.62
731.803	77.61
731.986	78.39
732.168	78.63
732.35	78.61
732.533	78.3
732.715	78.44
732.898	78.34
733.08	78.5
733.262	78.74
733.444	78.15
733.627	78.08
733.809	78.38
733.991	79.06
734.173	79.21
734.355	79.68
734.538	80.1
734.72	79.74
734.902	79.69
735.084	79.39
735.266	79.75
735.448	80.08
735.63	80.5
735.812	80.21
735.994	81.16
736.176	81.83
736.358	81.42
736.54	81.83
736.722	81.34
736.904	80.6
737.086	79.83
737.268	80.06
737.45	80.14
737.632	80.82
737.814	80.29
737.995	80.07
738.177	79.75
738.359	78.72
738.541	78.65
738.723	79.32
738.904	79.96
739.086	80.53
739.268	81.81
739.449	82
739.631	81.32
739.813	81.72
739.994	81.58
740.176	81.84
740.358	82.13
740.539	83.42
740.721	83.19
740.902	84.56
741.084	83.75
741.265	83.73
741.447	84.17
741.628	84.18
741.81	82.98
741.991	83.3
742.172	84.21
742.354	83.8
742.535	84.39
742.717	84.94
742.898	85.56
743.079	86.21
743.261	86.07
743.442	85.04
743.623	85.45
743.804	84.65
743.986	84.04
744.167	82.69
744.348	83.07
744.529	82.52
744.71	82.07
744.891	80.37
745.073	80.56
745.254	79.84
745.435	79.15
745.616	79.01
745.797	79.53
745.978	79.51
746.159	79.55
746.34	78.94
746.521	80.36
746.702	79.9
746.883	80.61
747.064	80.98
747.245	81.52
747.426	80.55
747.606	81.79
747.787	81.83
747.968	81.61
748.149	82.26
748.33	83.17
748.51	82.72
748.691	82.05
748.872	83.46
749.053	83.07
749.233	81.8
749.414	81.16
749.595	80.95
749.775	79.89
749.956	80.14
750.137	79.99
750.317	80.57
750.498	82.96
750.678	82.55
750.859	82.77
751.04	84.29
751.22	83.73
751.4	81.79
751.581	81.31
751.761	80.07
751.942	80.54
752.122	80.9
752.303	80.38
752.483	80.58
752.663	80.95
752.844	78.57
753.024	79.52
753.204	80.9
753.385	81.04
753.565	80.91
753.745	81.85
753.925	81.32
754.106	79.88
754.286	80.01
754.466	79.34
754.646	80.17
754.826	79.52
755.006	78.92
755.187	79.81
755.367	81.17
755.547	80.77
755.727	81.36
755.907	82.86
756.087	83.13
756.267	81.6
756.447	81.04
756.627	80.57
756.807	80.36
756.987	78.84
757.167	79.27
757.346	80.05
757.526	78.54
757.706	79.15
757.886	80.04
758.066	80.99
758.246	82.68
758.425	83.64
758.605	82.82
758.785	81.81
758.965	81.84
759.144	78.63
759.324	78.71
759.504	79.04
759.683	79.87
759.863	78.51
760.043	79.12
760.222	79.34
760.402	78.81
760.581	78.61
760.761	79.68
760.94	78.67
761.12	79.26
761.299	79.77
761.479	79.67
761.658	78.68
761.838	79.1
762.017	79.22
762.197	79.27
762.376	79.42
762.555	80.72
762.735	81.73
762.914	80.94
763.093	80.8
763.273	79.55
763.452	78.14
763.631	78.17
763.81	78.18
763.99	76.91
764.169	77.59
764.348	77.03
764.527	76.12
764.706	77.2
764.885	78.99
765.064	77.55
765.243	78.32
765.423	79.2
765.602	78.29
765.781	77.55
765.96	78.41
766.139	78.27
766.318	78.55
766.497	78.2
766.676	78.35
766.854	79.8
767.033	81.37
767.212	80.85
767.391	81.77
767.57	81.91
767.749	81.57
767.928	81.93
768.106	81.22
768.285	78.23
768.464	78.08
768.643	77.4
768.821	74.85
769	75.44
769.179	76.53
769.357	74.21
769.536	73.56
769.715	74.41
769.893	74.6
770.072	73.42
770.25	76.52
770.429	76.92
770.607	76.33
770.786	74.81
770.964	76.83
771.143	74.79
771.321	76.14
771.5	76.35
771.678	75.76
771.857	75.22
772.035	74.89
772.213	74.11
772.392	72.73
772.57	75.12
772.748	75.74
772.927	75.84
773.105	73.98
773.283	75.25
773.461	74.97
773.64	75.23
773.818	76
773.996	77.94
774.174	77.42
774.352	75.64
774.531	72.64
774.709	75.96
774.887	73.71
775.065	73.85
775.243	74.29
775.421	75.15
775.599	73.2
775.777	72.03
775.955	70.77
776.133	69.61
776.311	70.9
776.489	68.82
776.667	71.09
776.844	71.92
777.022	72.62
777.2	70.76
777.378	69.63
777.556	69.28
777.734	72.17
777.911	72.88
778.089	72.72
778.267	73.07
778.445	71.95
778.622	69.77
778.8	68.09
778.978	70.62
779.155	71.56
779.333	74.53
779.511	74.6
779.688	77.69
779.866	73.79
780.043	71.42
780.221	70.35
780.398	69.79
780.576	69.67
780.753	71.43
780.931	71.59
781.108	69.66
781.286	70.07
781.463	67.94
781.64	65.46
781.818	69.83
781.995	70.51
782.172	72.12
782.35	72.22
782.527	77.92
782.704	74.61
782.882	74.51
783.059	72.58
783.236	72.86
783.413	71.31
783.59	70.09
783.768	67.56
783.945	70.14
784.122	72.08
784.299	71.81
784.476	71.65
784.653	74.11
784.83	68.77
785.007	64.38
785.184	64.8
785.361	65.35
785.538	67.3
785.715	66.96
785.892	69.21
786.069	71.3
786.246	73.52
786.423	72.99
786.6	76.6
786.776	77.31
786.953	73.31
787.13	75.37
787.307	72.99
787.484	70.92
787.66	69.82
787.837	69.09
788.014	66.63
788.191	66.76
788.367	66.93
788.544	66.99
788.721	68.48
788.897	66.49
789.074	70.38
789.25	71.27
789.427	72.6
789.603	72.72
789.78	74.45
789.956	71.3
790.133	69.29
790.309	69.03
790.486	71.08
790.662	70.58
790.839	70.9
791.015	73.52
791.192	69.79
791.368	72.44
791.544	72.58
791.721	70.21
791.897	70.21
792.073	69.51
792.249	61.16
792.426	63.87
792.602	67.65
792.778	66.17
792.954	66.86
793.13	68.71
793.307	59.46
793.483	52.27
793.659	53.08
793.835	57.01
794.011	55.7
794.187	57.03
794.363	60.39
794.539	60.65
794.715	57.05
794.891	57.98
795.067	58.69
795.243	59.86
795.419	60.23
795.595	56.28
795.771	55.01
795.947	59.75
796.122	56.78
796.298	56.87
796.474	62.18
796.65	63.98
796.826	62.14
797.001	66.84
797.177	64.71
797.353	69.07
797.529	70.76
797.704	70.43
797.88	67.52
798.056	64.97
798.231	56.62
798.407	58.92
798.582	58.99
798.758	64.8
798.934	73.32
799.109	78.55
799.285	69.73
799.46	70.68
799.636	68.59
799.811	62.75
799.986	61.54
800.162	69.93
800.337	69.35
800.513	61.69
800.688	64.5
800.863	72.58
801.039	66.5
801.214	65.09
801.389	71.87
801.565	63.89
801.74	50.64
801.915	53.9
802.09	63.46
802.265	67.71
802.441	70.17
802.616	75.72
802.791	76.9
802.966	66.92
803.141	63.64
803.316	62.46
803.491	64.7
803.666	67.92
803.841	68.36
804.016	63.59
804.191	64.77
804.366	55.61
804.541	52.56
804.716	52.49
804.891	50.39
805.066	51.44
805.241	60.37
805.416	55.43
805.591	51.38
805.765	59.25
805.94	64.72
806.115	56.73
806.29	53.33
806.464	60.49
806.639	50.71
806.814	41.79
806.989	41.23
807.163	55.42
807.338	50.92
807.512	51.86
807.687	45.01
807.862	55.43
808.036	50.35
808.211	54.09
808.385	59.71
808.56	72.09
808.734	68.69
808.909	65.34
809.083	54.13
809.258	60.83
809.432	57.54
809.606	52.06
809.781	52.54
809.955	64.45
810.13	62.32
810.304	59.33
810.478	53.28
810.652	61.58
810.827	60.07
811.001	52.47
811.175	49.01
811.349	48.88
811.524	40.3
811.698	31.01
811.872	37.03
812.046	44.55
812.22	55.75
812.394	52.72
812.568	61.94
812.742	64.36
812.916	63.34
813.09	56.58
813.264	57.01
813.438	56.34
813.612	50.39
813.786	48.7
813.96	54.61
814.134	60.03
814.308	64.59
814.482	69.34
814.656	66.22
814.83	66.22
815.003	62.78
815.177	50.37
815.351	42.83
815.525	44.51
815.698	39.75
815.872	37.14
816.046	37.02
816.219	43.58
816.393	57.56
816.567	65.44
816.74	65.92
816.914	75.57
817.088	83.36
817.261	67.68
817.435	53.78
817.608	58.08
817.782	35.23
817.955	33.54
818.129	33.91
818.302	41.93
818.475	49.86
818.649	66.85
818.822	55.57
818.996	75.88
819.169	82.35
819.342	66.99
819.516	62.34
819.689	62.81
819.862	52.52
820.035	42.47
820.209	39.89
820.382	37.07
820.555	42.67
820.728	25.53
820.901	27.85
821.075	33.93
821.248	32.15
821.421	24.18
821.594	40.67
821.767	58.11
821.94	61.87
822.113	51.03
822.286	46.96
822.459	52.27
822.632	34.86
822.805	24.52
822.978	35.71
823.151	36.25
823.324	28.33
823.496	10.31
823.669	13.77
823.842	16.16
824.015	2.55
824.188	-5.92
824.361	16.91
824.533	18.02
824.706	25.15
824.879	29.03
825.051	44.99
825.224	36.04
825.397	30.51
825.569	10.84
825.742	33.27
825.915	35.55
826.087	45.44
826.26	36.75
826.432	46.83
826.605	34.69
826.777	24.15
826.95	33
827.122	32.03
827.295	23.34
827.467	34.87
827.64	29.39
827.812	12.7
827.984	24.32
828.157	23.05
828.329	-6.7
828.501	4.19
828.674	42.75
828.846	33.11
829.018	61.46
829.19	51.95
829.363	61.81
829.535	42.94
829.707	48.38
829.879	25.23
830.051	32.39
830.223	10.56
830.395	-2.05
830.568	-14.99
830.74	-30.18
830.912	4.16
831.084	3.14
831.256	4.62
831.428	0.85
831.6	0.51
831.772	-45.98
831.943	-59.98
832.115	-35.86
832.287	-16.52
832.459	6.06
832.631	24.2
832.803	52.64
832.975	76.02
833.146	69.64
833.318	58.91
833.49	72.23
833.662	35.95
833.833	-1.93
834.005	6.21
834.177	19.42
834.348	3.98
834.52	2.56
834.692	-3.96
834.863	-19.92
835.035	-10.47
835.206	-30.23
835.378	5.14
835.549	36.92
835.721	43.24
835.892	22.2
836.064	19.32
836.235	-6.37
836.407	-23.98
836.578	-69.41
836.749	-92.89
836.921	-146.61
837.092	-103.13
837.264	-94.13
837.435	-75.55
837.606	-24.48
837.777	14.63
837.949	24.55
838.12	31.57
838.291	35.84
838.462	21.31
838.633	-8.43
838.805	-7.72
838.976	-0.37
839.147	-69.9
839.318	-63.92
839.489	-85.54
839.66	-78.24
839.831	-32.47
840.002	-12.35
840.173	-32.56
840.344	34.21
840.515	12.01
840.686	-108.92
840.857	-66.89
841.028	-22.98
841.199	-28.52
841.369	-43.66
841.54	-32.2
841.711	-14.02
841.882	-0.14
842.053	-28.4
842.223	-23.72
842.394	-14.16
842.565	-0.36
842.736	17.92
842.906	24.65
843.077	28.24
843.248	45.08
843.418	43.79
843.589	-32.68
843.759	4.65
843.93	39.6
844.101	32.9
844.271	27.05
844.442	42.65
844.612	46.34
844.783	17.76
844.953	-10.5
845.123	-20.22
845.294	10.02
845.464	-114.18
845.635	-1.03
845.805	56.31
845.975	47.03
846.146	-1.95
846.316	-17.64
846.486	17.43
846.656	30.79
846.827	22.24
846.997	26.28
847.167	60.5
847.337	17.85
847.507	-33.22
847.677	-23.28
847.848	30.59
848.018	25.01
848.188	19.97
848.358	21.86
848.528	-2.96
848.698	-32.66
848.868	-109.45
849.038	-171.74
849.208	-57.8
849.378	19.83
849.548	-13.83
849.718	7.09
849.887	22.08
850.057	10.12
850.227	-35.8
850.397	-37.59
850.567	-118.76
850.737	-300.65
850.906	-1119.38
851.076	-809.77
851.246	-387.17
851.415	-28.45
851.585	-7.53
851.755	-25.03
851.924	40.47
852.094	36.47
852.264	-23.56
852.433	-529.33
852.603	-80.57
852.772	-60.92
852.942	-27.74
853.111	-13.36
853.281	24.77
853.45	50.42
853.62	-21.21
853.789	-43.71
853.959	-89.03
854.128	-113.69
854.297	-122.27
854.467	-122.92
854.636	-135.14
854.805	-50.7
854.975	-56.25
855.144	-53.84
855.313	38.81
855.482	-29.56
855.652	-37.5
855.821	-3.05
855.99	23.64
856.159	9.62
856.328	-5.44
856.497	-22.75
856.667	-22.27
856.836	-31.33
857.005	-59.04
857.174	-84.46
857.343	-106.95
857.512	-71.15
857.681	-100.84
857.85	-85.6
858.019	-19.92
858.188	-20.33
858.356	-55.62
858.525	-105.96
858.694	-79.48
858.863	-211.38
859.032	-137.8
859.201	-68.97
859.369	46.3
859.538	45
859.707	24.69
859.876	49.27
860.044	-23.65
860.213	20.19
860.382	-1.19
860.55	24.89
860.719	23.53
860.888	35.76
861.056	-2.85
861.225	0.96
861.393	3.42
861.562	13.46
861.73	-61.82
861.899	-200.26
862.067	-1918.97
862.236	-98.46
862.404	-272.77
862.572	-164.1
862.741	-57.44
862.909	-79.8
863.078	-161.04
863.246	-77.86
863.414	-75.11
863.582	-86.48
863.751	-71.69
863.919	-86.19
864.087	-33.71
864.255	-18.61
864.424	-280.28
864.592	-25.26
864.76	-51.42
864.928	-159.6
865.096	-79.78
865.264	-8.49
865.432	-1176.14
865.6	-5.25
865.768	-71.21
865.936	-100.41
866.104	-117.26
866.272	-44.53
866.44	-250.98
866.608	612.23
866.776	346.19
866.944	3038.37
867.112	-610.81
867.28	-206.87
867.448	-73.34
867.615	-15.32
867.783	7.27
867.951	-13.35
868.119	-1.63
868.286	-3.94
868.454	-70.92
868.622	-94.15
868.789	-32.14
868.957	-417.86
869.125	-1843.42
869.292	-124.94
869.46	-169.22
869.627	-31.86
869.795	-63
869.963	-16.45
870.13	1.15
870.298	20.53
870.465	-25.55
870.632	-15.97
870.8	16.52
870.967	-30.83
871.135	-118.79
871.302	-148.45
871.469	-164.27
871.637	-365.66
871.804	-158.44
871.971	-182.31
872.139	-512.79
872.306	-73.27
872.473	-83.05
872.64	-393.35
872.807	-235.23
872.975	-36.81
873.142	-356.18
873.309	2185.14
873.476	-4.2
873.643	108.79
873.81	72.94
873.977	107.39
874.144	51.73
874.311	-86.47
874.478	-118.22
874.645	-127.94
874.812	-113.27
874.979	-55.47
875.146	-31.07
875.313	-58.65
875.48	15.02
875.647	-7.66
875.813	-22.55
875.98	-16.02
876.147	-39.69
876.314	-102.61
876.481	735.12
876.647	-871.35
876.814	227.72
876.981	79.04
877.147	1.81
877.314	15.46
877.481	41.43
877.647	-4.12
877.814	-37.63
877.98	-98.5
878.147	-70.6
878.314	-20.2
878.48	-15.96
878.647	7.56
878.813	55.56
878.979	62.76
879.146	26.82
879.312	17.99
879.479	-28.16
879.645	-105
879.811	-251.26
879.978	-669.85
880.144	-163.06
880.31	-97.58
880.477	-325.08
880.643	-353.35
880.809	-144.29
880.975	-112.64
881.142	-631.36
881.308	-24.9
881.474	-40.89
881.64	-31.75
881.806	-96.4
881.972	-13.64
882.138	-51.57
882.304	-59.22
882.47	-250.27
882.636	-896.31
882.802	-355.89
882.968	-120.42
883.134	-38.37
883.3	6.24
883.466	45.76
883.632	90.52
883.798	77.72
883.964	62.09
884.129	40.09
884.295	22.13
884.461	-67.19
884.627	-99.48
884.793	-131.39
884.958	-87.81
885.124	-181.24
885.29	-259.73
885.455	-471.12
885.621	-97.08
885.787	-143.83
885.952	-49.86
886.118	-44.36
886.283	-47.74
886.449	-120.76
886.614	-103.66
886.78	-200.19
886.945	1163.11
887.111	-519.36
887.276	-525.85
887.442	-945
887.607	-350.24
887.773	-228.82
887.938	-182.9
888.103	-151.86
888.269	-59.19
888.434	-222.97
888.599	-55.09
888.764	50.68
888.93	38.55
889.095	25.69
889.26	-20.96
889.425	29.49
889.59	22.17
889.756	-15.8
889.921	-14.16
890.086	76.66
890.251	19.61
890.416	-118.42
890.581	-1018.55
890.746	125.89
890.911	302.87
891.076	105.73
891.241	-128.73
891.406	79.87
891.571	-24.53
891.736	-211.24
891.901	-455.31
892.065	479.67
892.23	175.33
892.395	212.23
892.56	332.51
892.725	-333.98
892.889	-1247.56
893.054	-135.8
893.219	-50.09
893.384	-21.37
893.548	-99.13
893.713	-107.18
893.878	-86.21
