Data from Ofra_PS_T2_1A_6EV18_Reflection_1.txt Node
Date: Wed Jul 21 18:09:37 EDT 2021
User: Adam
Spectrometer: FLMT01687
Trigger mode: 0
Integration Time (sec): 1.100000E0
Scans to average: 2
Electric dark correction enabled: true
Nonlinearity correction enabled: false
Boxcar width: 2
XAxis mode: Wavelengths
Number of Pixels in Spectrum: 3648
>>>>>Begin Spectral Data<<<<<
179.494	542
179.716	639.06
179.937	596.47
180.158	601.62
180.38	1022.19
180.601	282.04
180.823	72.25
181.044	-66.59
181.265	110.66
181.486	68.5
181.708	167.78
181.929	852.04
182.15	-380.99
182.372	113.34
182.593	100.17
182.814	69.1
183.035	71.91
183.257	52.18
183.478	-33.94
183.699	-56.66
183.92	-80.19
184.141	-64.1
184.363	-118.06
184.584	-84.08
184.805	-38.55
185.026	-8.82
185.247	11.78
185.468	-7.83
185.689	21.86
185.91	28.52
186.132	39.94
186.353	17.75
186.574	77.58
186.795	51.68
187.016	22.7
187.237	-16.59
187.458	-39.96
187.679	-67.16
187.9	-49.63
188.121	-39.81
188.342	-1.69
188.563	44.32
188.784	98.96
189.005	106.02
189.226	152.69
189.447	118.77
189.667	88.59
189.888	-202.71
190.109	-1001.95
190.33	-602.26
190.551	-1176.55
190.772	-317.55
190.993	-204.18
191.214	-215.61
191.434	-152.82
191.655	-36.87
191.876	-62.43
192.097	-118.62
192.318	-105.23
192.538	-184.9
192.759	-192.22
192.98	-51.22
193.201	-1.75
193.421	20.83
193.642	43.51
193.863	69.35
194.083	38
194.304	7.74
194.525	-5.12
194.745	-22.81
194.966	-45.74
195.187	-50.78
195.407	-62.82
195.628	-128.14
195.848	-152.86
196.069	-154.76
196.29	-115.08
196.51	-106.17
196.731	-98.35
196.951	-69.12
197.172	-80.01
197.392	-115.53
197.613	-139.86
197.833	-118.15
198.054	-125.1
198.274	-78.09
198.495	-91.33
198.715	-48.36
198.936	-64.57
199.156	-56.09
199.377	-147.98
199.597	-123.59
199.817	-148.16
200.038	-91.02
200.258	-142.32
200.479	-49.93
200.699	-53.62
200.919	21.97
201.14	15.88
201.36	-9.03
201.58	9.34
201.801	40.57
202.021	0.92
202.241	-12.87
202.461	4.6
202.682	-79.94
202.902	-125.33
203.122	-53.71
203.342	-34.62
203.563	-2.65
203.783	33.05
204.003	11.14
204.223	17.86
204.443	46.06
204.663	12.99
204.884	19.92
205.104	44.22
205.324	57.42
205.544	71.22
205.764	85.61
205.984	82.93
206.204	79.45
206.424	73.57
206.644	39.83
206.864	44.85
207.084	-5.42
207.304	-33.64
207.525	-216.72
207.745	-141.37
207.964	-100.19
208.184	-91.42
208.404	-113.86
208.624	-105.48
208.844	-80.07
209.064	-313.94
209.284	-403.5
209.504	-185.83
209.724	-51.73
209.944	-26.68
210.164	-0.26
210.384	23.02
210.604	10.32
210.823	-34.54
211.043	-39.06
211.263	-37.73
211.483	-44.69
211.703	-83.96
211.922	-60.54
212.142	-11.44
212.362	13.22
212.582	10.09
212.801	4.29
213.021	-19.92
213.241	-28.87
213.461	-60.79
213.68	-67.63
213.9	-23.29
214.12	5.36
214.339	-77
214.559	-56.05
214.779	-18.94
214.998	-45.36
215.218	-104.6
215.438	-29.64
215.657	-33.87
215.877	-20.46
216.096	30.16
216.316	50.97
216.535	33.24
216.755	34.76
216.974	-19.67
217.194	-90.61
217.413	-113.34
217.633	-131.14
217.852	-270.73
218.072	-124.28
218.291	-65.77
218.511	-15.16
218.73	-30.21
218.95	-10.84
219.169	-12.79
219.389	-56.69
219.608	-50.94
219.827	-32.84
220.047	-19.92
220.266	-13.24
220.485	-12.07
220.705	4.34
220.924	-25.97
221.143	10.98
221.363	-6.04
221.582	25.67
221.801	30.88
222.021	49.9
222.24	-1.33
222.459	74.27
222.678	-10.27
222.897	-61.31
223.117	-118.65
223.336	-76.03
223.555	-53.89
223.774	29.16
223.993	45.23
224.213	84.68
224.432	62.44
224.651	57.94
224.87	-1.74
225.089	15.44
225.308	17.32
225.527	35.65
225.746	20.09
225.965	27.4
226.184	10.02
226.404	21.98
226.623	-7.68
226.842	11.8
227.061	29.95
227.28	32.91
227.499	20.61
227.718	38.19
227.936	16.01
228.155	25.74
228.374	-0.47
228.593	8.94
228.812	-6.8
229.031	3.31
229.25	-57.64
229.469	-55.89
229.688	-54.16
229.907	-14.89
230.125	-17.1
230.344	4.68
230.563	23.63
230.782	30.21
231.001	-50.74
231.22	-32.23
231.438	-9.82
231.657	-11.69
231.876	-38.88
232.095	16.87
232.313	7.91
232.532	-16.03
232.751	-48.71
232.969	-49.5
233.188	-157.35
233.407	-61.8
233.625	-29.92
233.844	-48.9
234.063	-11.72
234.281	18.82
234.5	4.2
234.719	7.72
234.937	32.46
235.156	14.34
235.374	-1.79
235.593	-2.08
235.811	-17.4
236.03	-30.39
236.249	-65.93
236.467	-53.14
236.686	-7.26
236.904	4.6
237.123	-11.65
237.341	-0.32
237.559	-0.82
237.778	-17.75
237.996	-48.72
238.215	-7.86
238.433	-2.79
238.652	-4.63
238.87	-41.58
239.088	-11.99
239.307	-28.17
239.525	-29.85
239.743	-50.83
239.962	-31.08
240.18	-66.76
240.398	-100.15
240.617	-101.42
240.835	-66.59
241.053	-53.53
241.271	16.23
241.49	24.11
241.708	-2.54
241.926	-38.96
242.144	-21.16
242.363	-60.28
242.581	-56.33
242.799	-20.33
243.017	15.21
243.235	-3.78
243.453	-19.63
243.672	-21.31
243.89	-15.28
244.108	-21.3
244.326	12.4
244.544	19.98
244.762	18.53
244.98	29.9
245.198	23.63
245.416	-30.17
245.634	-27.35
245.852	-26.68
246.07	-39.97
246.288	-58.83
246.506	-84.52
246.724	-66.37
246.942	-77.51
247.16	-36.93
247.378	-28.72
247.596	10.39
247.814	-2.46
248.032	-19.07
248.25	-37.23
248.468	-15.5
248.685	4.98
248.903	24.09
249.121	34.4
249.339	17.66
249.557	15.32
249.775	-4.15
249.992	-73.09
250.21	-73.07
250.428	-44.27
250.646	-77.29
250.863	-86.14
251.081	-36.61
251.299	-20.95
251.517	-26.19
251.734	-11.72
251.952	-10.28
252.17	-12.03
252.387	-12.03
252.605	-21.78
252.823	-8.33
253.04	1.17
253.258	22.17
253.475	20.87
253.693	30.35
253.911	17.03
254.128	17.81
254.346	15.18
254.563	4.01
254.781	-14.42
254.998	-39.93
255.216	-50.09
255.433	-48.18
255.651	-12.63
255.868	10.56
256.086	44.47
256.303	16.3
256.521	18.16
256.738	-4.24
256.956	-32.5
257.173	-62.67
257.39	-45.33
257.608	-69.87
257.825	-5.04
258.043	50.36
258.26	58.98
258.477	85.55
258.695	68.04
258.912	0.42
259.129	-5.59
259.346	-38.75
259.564	-122.34
259.781	-128.12
259.998	-43.34
260.216	-20.01
260.433	12.15
260.65	45.7
260.867	46.84
261.084	-3.22
261.302	-24.22
261.519	-37.38
261.736	-66.6
261.953	-57.16
262.17	-3.5
262.387	-43.55
262.604	-65.73
262.822	-74.35
263.039	-79.23
263.256	-131.01
263.473	-62.12
263.69	-39.03
263.907	8.16
264.124	6.55
264.341	18.84
264.558	-5.51
264.775	8.49
264.992	2.2
265.209	18.56
265.426	25.8
265.643	37.21
265.86	42.93
266.077	45.42
266.294	30.37
266.51	-7.86
266.727	-17.2
266.944	-18.15
267.161	-32.7
267.378	-35.95
267.595	-7.25
267.812	-38.17
268.028	-63.87
268.245	-32.63
268.462	-39.28
268.679	-48.36
268.896	11.72
269.112	0.3
269.329	-16.73
269.546	-6.84
269.763	-9.06
269.979	-36.4
270.196	-22.36
270.413	-49.08
270.629	-74.77
270.846	-83.08
271.063	-81.03
271.279	-98.76
271.496	-71.45
271.712	-15.96
271.929	11
272.146	23.65
272.362	56.95
272.579	66.35
272.795	49.89
273.012	58.66
273.228	42.75
273.445	11.26
273.661	-18.38
273.878	-63.09
274.094	-71.52
274.311	-94.08
274.527	-27.99
274.744	-11.45
274.96	-4.01
275.177	2.94
275.393	12.23
275.609	-2.45
275.826	12.52
276.042	-0.2
276.259	-9.45
276.475	9.56
276.691	6.98
276.908	-16.91
277.124	-1.24
277.34	-10.76
277.557	-18.14
277.773	-14.41
277.989	-21.96
278.205	-17.14
278.422	10.28
278.638	16.84
278.854	35.95
279.07	43.47
279.286	27.45
279.503	-0.47
279.719	-24.6
279.935	-46.63
280.151	-74.18
280.367	-32.69
280.583	-56.75
280.799	-36.79
281.016	-51.04
281.232	-6.68
281.448	-24.68
281.664	-0.2
281.88	-34.37
282.096	-14.56
282.312	-0.04
282.528	18.69
282.744	19.3
282.96	24.1
283.176	17.91
283.392	17.78
283.608	1.28
283.824	-2.93
284.04	7.22
284.256	17.83
284.471	2.63
284.687	7.68
284.903	18.54
285.119	31.15
285.335	-2.32
285.551	-5.55
285.767	-15.51
285.982	-24.54
286.198	-62.62
286.414	-7.31
286.63	13.96
286.846	35.12
287.061	11.43
287.277	32.19
287.493	1.85
287.709	2.29
287.924	-23.41
288.14	13.56
288.356	12.32
288.571	32.89
288.787	2.18
289.003	10.65
289.218	-5.06
289.434	-38.03
289.65	-39.11
289.865	-27.75
290.081	-25.46
290.296	-11.42
290.512	11.13
290.727	-15.05
290.943	-28.72
291.159	-34.24
291.374	-50.91
291.59	-72.6
291.805	-45.49
292.021	-35.22
292.236	-23.07
292.451	13.67
292.667	20.52
292.882	24.03
293.098	34.89
293.313	27.36
293.529	-9.6
293.744	-29.17
293.959	-32.5
294.175	-37.97
294.39	-1.3
294.605	16
294.821	44.07
295.036	47.52
295.251	59.83
295.467	14.63
295.682	-2.63
295.897	-56.71
296.112	-65.28
296.328	-75.14
296.543	-67.71
296.758	-49.73
296.973	-3.75
297.188	28.08
297.404	12.81
297.619	12.92
297.834	-13.21
298.049	-39.73
298.264	-84.03
298.479	-18.83
298.694	-12.62
298.909	3.76
299.125	8.84
299.34	25.57
299.555	-5.11
299.77	15.26
299.985	-21.43
300.2	-62.72
300.415	-79.5
300.63	-54.32
300.845	-79.41
301.06	-67
301.275	-22.84
301.49	-8.27
301.704	-11.86
301.919	-17.02
302.134	-28.97
302.349	-41.19
302.564	-100.35
302.779	-121.09
302.994	-96.94
303.209	-53.63
303.423	-35.96
303.638	30.18
303.853	-2.92
304.068	-3.37
304.283	9.4
304.497	14.1
304.712	0.82
304.927	15.85
305.142	13.05
305.356	7.1
305.571	1.27
305.786	-13.99
306	-23.5
306.215	-30.66
306.43	-42.7
306.644	-53.06
306.859	6.09
307.074	5.4
307.288	-15.91
307.503	-32.47
307.717	-28.7
307.932	-35.16
308.147	-47.52
308.361	-21.34
308.576	-22.98
308.79	-66.12
309.005	-70.15
309.219	-38.76
309.434	-52.87
309.648	-44.36
309.863	-7.73
310.077	-5.67
310.292	-12.65
310.506	-19.73
310.72	-7.95
310.935	-5.65
311.149	-6.87
311.364	3.57
311.578	24.54
311.792	17.41
312.007	30.74
312.221	21.4
312.435	22.42
312.649	6.64
312.864	31.58
313.078	19.84
313.292	92.35
313.507	64.65
313.721	92.74
313.935	42.35
314.149	37.16
314.363	11.74
314.578	16.75
314.792	13.73
315.006	3.72
315.22	15.51
315.434	11.2
315.648	21.38
315.862	18.25
316.077	23.11
316.291	2.62
316.505	11.35
316.719	-19.56
316.933	-26.66
317.147	-37.58
317.361	-85.46
317.575	-106.8
317.789	-123.13
318.003	-162.87
318.217	-140.28
318.431	-29.03
318.645	20.52
318.859	24.41
319.073	43.07
319.287	40.44
319.5	10.3
319.714	-31.38
319.928	-55.66
320.142	-87.61
320.356	-48.35
320.57	-36.7
320.784	-48.55
320.997	-57.26
321.211	-42.65
321.425	-83.63
321.639	-78.85
321.853	-19.67
322.066	2.94
322.28	1.12
322.494	14.08
322.707	15
322.921	1.72
323.135	-11.82
323.349	-10.72
323.562	-29.66
323.776	-47.72
323.989	-61.78
324.203	-79.89
324.417	-79.8
324.63	-67.31
324.844	-64.48
325.057	-47.77
325.271	-26.02
325.485	1.41
325.698	11.14
325.912	25.91
326.125	-8.31
326.339	-9.56
326.552	-35.57
326.766	-30.72
326.979	-14.35
327.193	35.4
327.406	32.34
327.619	29.68
327.833	39.18
328.046	18.66
328.26	-23.03
328.473	-15.03
328.686	-51.37
328.9	-61.3
329.113	-40.86
329.326	-43.5
329.54	-8.74
329.753	-20.01
329.966	-45.6
330.179	-32.96
330.393	-8.03
330.606	-14.4
330.819	10.5
331.032	34.13
331.246	29.39
331.459	48.16
331.672	34.44
331.885	24.38
332.098	1.65
332.311	-15.82
332.525	-70.11
332.738	-46.1
332.951	-20.09
333.164	1.2
333.377	22.53
333.59	40.78
333.803	37.81
334.016	34.57
334.229	46.34
334.442	43.69
334.655	54.92
334.868	56.68
335.081	49.43
335.294	14.32
335.507	-2.96
335.72	-10.41
335.933	-25.98
336.146	-35.03
336.359	-17.44
336.572	-24.85
336.785	-49.86
336.997	-34.05
337.21	-6.34
337.423	-5.43
337.636	-8.47
337.849	11.33
338.062	0.72
338.274	-2.31
338.487	-31.38
338.7	-18.76
338.913	-68.54
339.125	-83.5
339.338	-149.18
339.551	-107.49
339.763	-66.29
339.976	-16.04
340.189	7.16
340.402	20.66
340.614	14.14
340.827	-5.78
341.039	-28.67
341.252	-27.58
341.465	-13.67
341.677	-19.7
341.89	-42.2
342.102	-14.62
342.315	-24.53
342.527	-56.92
342.74	-55.99
342.952	-27.67
343.165	-31.13
343.377	-6.54
343.59	-0.31
343.802	23.44
344.015	42.73
344.227	51.43
344.44	35.47
344.652	38.55
344.864	18.21
345.077	24.65
345.289	29.81
345.502	34.03
345.714	24.09
345.926	32.63
346.139	6.02
346.351	0.95
346.563	11.62
346.775	18.19
346.988	2.47
347.2	0.13
347.412	-37.55
347.624	-71.25
347.837	-95.15
348.049	-49.25
348.261	-14.18
348.473	-1.15
348.685	5.56
348.897	12.54
349.11	-19.22
349.322	-31.63
349.534	-15.88
349.746	-23.47
349.958	-14.49
350.17	-7.58
350.382	12.61
350.594	8.47
350.806	17.56
351.018	16.05
351.23	20.95
351.442	-33.32
351.654	-38.79
351.866	-15.96
352.078	2.34
352.29	0.15
352.502	13.78
352.714	27.01
352.926	9.23
353.138	4.08
353.35	-1.6
353.561	3.15
353.773	-18.97
353.985	-6.99
354.197	-27.25
354.409	-28.57
354.621	-27.85
354.832	-15.67
355.044	-25.53
355.256	-18.1
355.468	-1.25
355.679	-14.95
355.891	-7.26
356.103	-13.58
356.314	3.46
356.526	-10.91
356.738	3.22
356.949	-7.99
357.161	1.04
357.373	-24.19
357.584	-27.27
357.796	-18.26
358.008	-21.15
358.219	-1.51
358.431	2.54
358.642	3.67
358.854	2.09
359.065	-4.78
359.277	-37.7
359.488	-35.56
359.7	-58.85
359.911	-72.2
360.123	-51.69
360.334	-62.48
360.546	-83.49
360.757	-64.55
360.969	-47.51
361.18	-32.54
361.391	-9.09
361.603	-5.42
361.814	5.66
362.025	4.61
362.237	-10.77
362.448	-5.67
362.659	15.21
362.871	9.03
363.082	9.95
363.293	18.49
363.504	10.56
363.716	-23.14
363.927	-17.24
364.138	-42.52
364.349	-62.02
364.56	-62.44
364.772	-44.91
364.983	-35.54
365.194	-24.2
365.405	-4.96
365.616	25.17
365.827	24.2
366.038	3.26
366.25	-19.71
366.461	-51.7
366.672	-41.52
366.883	-17.4
367.094	0.11
367.305	-1.96
367.516	-0.25
367.727	-33.14
367.938	-54.19
368.149	-41.58
368.36	-19.67
368.571	-17.56
368.781	-29.32
368.992	-32.14
369.203	-68.91
369.414	-91.85
369.625	-87.36
369.836	-83.79
370.047	-91.3
370.258	-57.84
370.468	-45.14
370.679	-63.37
370.89	-48.16
371.101	-29.78
371.312	-40.35
371.522	-39.86
371.733	-23.18
371.944	-10.74
372.155	-1.49
372.365	-2.87
372.576	-5.94
372.787	-8.53
372.997	-33.74
373.208	-36.27
373.419	-6.08
373.629	-23.07
373.84	-21.03
374.05	-27.33
374.261	-29.1
374.472	-47.54
374.682	-12.26
374.893	-9.74
375.103	31.5
375.314	19.18
375.524	7.28
375.735	2.75
375.945	2.57
376.156	-23.6
376.366	-4.37
376.577	-0.93
376.787	-10.24
376.997	-1.28
377.208	-2.56
377.418	-18.27
377.629	-8.65
377.839	-6.54
378.049	-13.28
378.26	9.18
378.47	19.18
378.68	11.34
378.89	7.38
379.101	8.93
379.311	-30.9
379.521	-65.1
379.732	-59.84
379.942	-65.74
380.152	-79.67
380.362	-33.08
380.572	-21.36
380.783	-7.23
380.993	19.13
381.203	32.64
381.413	34.16
381.623	40.89
381.833	29.41
382.043	15.23
382.253	6.24
382.463	3.22
382.674	-11.17
382.884	-24.68
383.094	-23.03
383.304	-21.96
383.514	-19.95
383.724	-8.33
383.934	-10.26
384.144	-23.88
384.353	-27.32
384.563	-22.97
384.773	-20.23
384.983	-27.04
385.193	-6.39
385.403	-3.39
385.613	-6.46
385.823	-18.56
386.033	-7.7
386.242	-15.16
386.452	-14.16
386.662	-25.33
386.872	-10.12
387.082	-14.95
387.291	-20.52
387.501	-23.85
387.711	-11.2
387.921	-19.11
388.13	-17.44
388.34	-2.95
388.55	-4.25
388.759	-6.26
388.969	-0.51
389.179	-2.63
389.388	-7.55
389.598	-1.92
389.807	-8.78
390.017	-13.67
390.227	-8.89
390.436	-10.31
390.646	-11.04
390.855	-6.28
391.065	-6.41
391.274	-11.04
391.484	-11.24
391.693	-10.96
391.903	-10.63
392.112	-3.27
392.322	1.68
392.531	3.69
392.74	2.35
392.95	0.27
393.159	-2.6
393.369	-4.61
393.578	-5.02
393.787	-3.95
393.997	-2.28
394.206	-3.89
394.415	-2.01
394.625	-2.73
394.834	-3.65
395.043	-3.06
395.252	0.18
395.462	0.99
395.671	2.76
395.88	3.27
396.089	4.63
396.298	3.07
396.508	1.69
396.717	0.5
396.926	1.21
397.135	0.85
397.344	0.18
397.553	1.04
397.762	2.63
397.971	2.38
398.181	2.47
398.39	2.02
398.599	1.7
398.808	1.45
399.017	2.23
399.226	3.28
399.435	4.49
399.644	4.88
399.853	4.24
400.062	3.73
400.27	2.96
400.479	2.52
400.688	1.6
400.897	1.69
401.106	1.61
401.315	1.38
401.524	1.77
401.733	2.54
401.941	2.95
402.15	2.94
402.359	2.66
402.568	2.83
402.777	2.86
402.985	2.87
403.194	3.03
403.403	3.13
403.612	2.58
403.82	2.24
404.029	2.25
404.238	2.08
404.446	2.39
404.655	2.32
404.864	2.22
405.072	1.87
405.281	1.9
405.489	1.64
405.698	1.7
405.906	1.83
406.115	1.9
406.324	1.97
406.532	2.24
406.741	2.51
406.949	2.51
407.158	2.43
407.366	2.45
407.574	2.26
407.783	2.04
407.991	1.92
408.2	2.02
408.408	1.95
408.617	1.92
408.825	1.86
409.033	1.98
409.242	2.12
409.45	2.19
409.658	2.04
409.867	2.19
410.075	2
410.283	1.87
410.491	1.83
410.7	1.76
410.908	1.74
411.116	2.09
411.324	1.94
411.533	1.82
411.741	2.13
411.949	2.07
412.157	1.77
412.365	1.9
412.573	2.02
412.781	1.97
412.99	1.95
413.198	2.17
413.406	2.17
413.614	2.13
413.822	1.95
414.03	1.86
414.238	1.64
414.446	1.76
414.654	1.55
414.862	1.7
415.07	1.88
415.278	2.11
415.486	1.81
415.694	2.01
415.902	1.85
416.109	1.72
416.317	1.67
416.525	1.56
416.733	1.52
416.941	1.66
417.149	1.59
417.357	1.49
417.564	1.85
417.772	2.12
417.98	2.1
418.188	2.08
418.395	2.19
418.603	2.32
418.811	1.74
419.019	1.61
419.226	1.83
419.434	1.87
419.642	1.54
419.849	1.93
420.057	1.99
420.265	1.97
420.472	1.71
420.68	1.89
420.887	1.73
421.095	1.79
421.302	1.77
421.51	1.94
421.717	1.98
421.925	2.03
422.132	1.93
422.34	1.68
422.547	1.76
422.755	1.6
422.962	1.56
423.17	1.56
423.377	1.76
423.585	1.74
423.792	1.69
423.999	1.74
424.207	1.56
424.414	1.6
424.621	1.44
424.829	1.47
425.036	1.48
425.243	1.77
425.451	1.56
425.658	1.49
425.865	1.53
426.072	1.52
426.28	1.67
426.487	1.7
426.694	1.9
426.901	1.85
427.108	1.82
427.315	1.58
427.523	1.88
427.73	1.84
427.937	1.79
428.144	1.69
428.351	1.61
428.558	1.63
428.765	1.58
428.972	1.59
429.179	1.84
429.386	2.15
429.593	1.85
429.8	1.65
430.007	1.64
430.214	1.65
430.421	1.39
430.628	1.3
430.835	1.34
431.042	1.51
431.249	1.47
431.456	1.5
431.662	1.71
431.869	1.84
432.076	1.79
432.283	1.85
432.49	1.89
432.697	1.88
432.903	1.72
433.11	1.65
433.317	1.69
433.524	1.84
433.73	1.72
433.937	1.91
434.144	1.84
434.35	1.76
434.557	1.55
434.764	1.59
434.97	1.48
435.177	1.69
435.384	1.58
435.59	1.71
435.797	1.9
436.003	2.05
436.21	1.94
436.416	2.14
436.623	2.06
436.829	2.11
437.036	2.06
437.242	2.12
437.449	1.92
437.655	1.9
437.862	1.83
438.068	1.82
438.275	1.87
438.481	2.05
438.687	2.1
438.894	2.07
439.1	2.1
439.307	2.27
439.513	2.25
439.719	2.26
439.926	2.35
440.132	2.27
440.338	2.05
440.544	2.17
440.751	2.11
440.957	2.11
441.163	2.11
441.369	2.27
441.575	2.02
441.782	2.03
441.988	1.95
442.194	1.97
442.4	1.86
442.606	2.14
442.812	2.2
443.018	2.21
443.224	2.29
443.431	2.42
443.637	2.15
443.843	2.12
444.049	2.13
444.255	2.03
444.461	1.97
444.667	2.01
444.873	2.16
445.079	2.05
445.284	2.12
445.49	1.87
445.696	1.74
445.902	1.61
446.108	1.72
446.314	1.67
446.52	1.84
446.726	2.15
446.931	2.22
447.137	2.29
447.343	2.3
447.549	2.27
447.755	2.04
447.96	2.04
448.166	1.9
448.372	1.92
448.578	1.91
448.783	2.05
448.989	2.17
449.195	2.33
449.4	2.33
449.606	2.32
449.812	2.25
450.017	2.16
450.223	2.04
450.428	1.93
450.634	2.09
450.84	2.2
451.045	2.12
451.251	2.1
451.456	2.38
451.662	2.42
451.867	2.45
452.073	2.48
452.278	2.58
452.483	2.63
452.689	2.46
452.894	2.36
453.1	2.35
453.305	2.34
453.51	2.26
453.716	2.24
453.921	2.28
454.127	2.19
454.332	2.11
454.537	2.02
454.742	2.08
454.948	2.04
455.153	2.15
455.358	2.22
455.563	2.31
455.769	2.38
455.974	2.36
456.179	2.24
456.384	2.22
456.589	2.22
456.795	2.04
457	2.05
457.205	2.31
457.41	2.29
457.615	2.18
457.82	2.27
458.025	2.28
458.23	2.11
458.435	2.19
458.64	2.15
458.845	2.24
459.05	2.26
459.255	2.25
459.46	2.26
459.665	2.35
459.87	2.35
460.075	2.26
460.28	2.27
460.485	2.26
460.69	2.26
460.895	2.09
461.099	2.09
461.304	2.26
461.509	2.28
461.714	2.18
461.919	2.34
462.123	2.32
462.328	2.31
462.533	2.24
462.738	2.31
462.942	2.24
463.147	2.25
463.352	2.18
463.556	2.2
463.761	2.25
463.966	2.19
464.17	2.3
464.375	2.21
464.58	2.21
464.784	2.16
464.989	2.15
465.193	2.1
465.398	2.16
465.602	2.2
465.807	2.16
466.011	2.26
466.216	2.28
466.42	2.31
466.625	2.41
466.829	2.5
467.034	2.55
467.238	2.77
467.443	2.73
467.647	2.57
467.851	2.6
468.056	2.61
468.26	2.44
468.464	2.52
468.669	2.65
468.873	2.84
469.077	2.79
469.282	2.89
469.486	2.92
469.69	2.94
469.894	2.7
470.099	2.74
470.303	2.78
470.507	2.63
470.711	2.55
470.915	2.65
471.119	2.57
471.324	2.53
471.528	2.59
471.732	2.65
471.936	2.52
472.14	2.64
472.344	2.66
472.548	2.68
472.752	2.79
472.956	3.03
473.16	3.03
473.364	2.93
473.568	2.94
473.772	2.92
473.976	2.8
474.18	2.7
474.384	2.8
474.588	2.8
474.792	2.66
474.995	2.72
475.199	2.86
475.403	2.85
475.607	2.89
475.811	2.92
476.015	2.92
476.218	2.95
476.422	2.87
476.626	2.94
476.83	3.03
477.033	3
477.237	2.92
477.441	3.03
477.644	2.97
477.848	2.88
478.052	2.89
478.255	2.93
478.459	2.91
478.663	3.05
478.866	3.18
479.07	3.13
479.273	3.22
479.477	3.25
479.681	3.17
479.884	3.07
480.088	3.08
480.291	3.01
480.495	3.01
480.698	3
480.901	3.07
481.105	3.24
481.308	3.18
481.512	3.18
481.715	3.26
481.919	3.3
482.122	3.27
482.325	3.29
482.529	3.3
482.732	3.25
482.935	3.12
483.138	3
483.342	3.09
483.545	3.18
483.748	3.27
483.952	3.42
484.155	3.58
484.358	3.6
484.561	3.53
484.764	3.44
484.967	3.44
485.171	3.47
485.374	3.38
485.577	3.43
485.78	3.46
485.983	3.44
486.186	3.27
486.389	3.24
486.592	3.22
486.795	3.3
486.998	3.29
487.201	3.4
487.404	3.51
487.607	3.58
487.81	3.53
488.013	3.6
488.216	3.64
488.419	3.66
488.622	3.61
488.825	3.58
489.028	3.51
489.231	3.42
489.433	3.33
489.636	3.28
489.839	3.28
490.042	3.22
490.245	3.21
490.447	3.29
490.65	3.34
490.853	3.34
491.056	3.41
491.258	3.47
491.461	3.49
491.664	3.49
491.866	3.45
492.069	3.57
492.272	3.5
492.474	3.52
492.677	3.56
492.879	3.65
493.082	3.63
493.285	3.78
493.487	3.72
493.69	3.67
493.892	3.57
494.095	3.51
494.297	3.47
494.5	3.53
494.702	3.54
494.905	3.64
495.107	3.63
495.309	3.6
495.512	3.63
495.714	3.73
495.917	3.76
496.119	3.74
496.321	3.76
496.524	3.78
496.726	3.72
496.928	3.77
497.13	3.79
497.333	3.84
497.535	3.85
497.737	3.9
497.939	3.84
498.142	3.92
498.344	3.87
498.546	3.78
498.748	3.83
498.95	3.99
499.152	3.95
499.355	4.02
499.557	4.14
499.759	4.19
499.961	4.08
500.163	4.14
500.365	4.16
500.567	4.24
500.769	4.13
500.971	4.18
501.173	4.11
501.375	4.13
501.577	4.02
501.779	4.03
501.981	4.05
502.183	4.1
502.385	4.03
502.587	3.99
502.788	4.05
502.99	4.11
503.192	4.14
503.394	4.23
503.596	4.32
503.798	4.37
503.999	4.37
504.201	4.35
504.403	4.33
504.605	4.38
504.806	4.35
505.008	4.31
505.21	4.44
505.411	4.46
505.613	4.47
505.815	4.48
506.016	4.58
506.218	4.58
506.42	4.59
506.621	4.62
506.823	4.66
507.024	4.6
507.226	4.65
507.427	4.67
507.629	4.69
507.83	4.69
508.032	4.7
508.233	4.73
508.435	4.75
508.636	4.8
508.838	4.79
509.039	4.8
509.24	4.81
509.442	4.89
509.643	4.83
509.845	4.89
510.046	4.99
510.247	4.99
510.448	4.96
510.65	5.03
510.851	5.13
511.052	5.1
511.254	5.03
511.455	5.09
511.656	5.15
511.857	5.17
512.058	5.15
512.26	5.19
512.461	5.22
512.662	5.25
512.863	5.16
513.064	5.17
513.265	5.24
513.466	5.22
513.667	5.19
513.868	5.27
514.069	5.34
514.27	5.4
514.471	5.34
514.672	5.36
514.873	5.31
515.074	5.33
515.275	5.22
515.476	5.26
515.677	5.23
515.878	5.37
516.079	5.34
516.28	5.38
516.481	5.51
516.682	5.57
516.882	5.45
517.083	5.48
517.284	5.45
517.485	5.39
517.686	5.32
517.886	5.38
518.087	5.38
518.288	5.43
518.488	5.44
518.689	5.49
518.89	5.42
519.091	5.48
519.291	5.46
519.492	5.48
519.692	5.52
519.893	5.62
520.094	5.58
520.294	5.59
520.495	5.54
520.695	5.55
520.896	5.55
521.096	5.59
521.297	5.59
521.497	5.63
521.698	5.58
521.898	5.55
522.099	5.52
522.299	5.62
522.499	5.58
522.7	5.62
522.9	5.57
523.101	5.63
523.301	5.58
523.501	5.6
523.702	5.59
523.902	5.68
524.102	5.71
524.302	5.71
524.503	5.76
524.703	5.82
524.903	5.87
525.103	5.75
525.304	5.8
525.504	5.85
525.704	5.88
525.904	5.86
526.104	5.91
526.304	5.9
526.504	5.9
526.705	5.85
526.905	5.9
527.105	5.93
527.305	5.93
527.505	5.85
527.705	5.85
527.905	5.84
528.105	5.83
528.305	5.81
528.505	5.85
528.705	5.92
528.905	5.83
529.105	5.84
529.304	5.95
529.504	6.02
529.704	5.96
529.904	6.02
530.104	6.02
530.304	6.08
530.503	6
530.703	5.96
530.903	5.92
531.103	5.96
531.303	5.8
531.502	5.87
531.702	6.04
531.902	6.09
532.101	6.06
532.301	6.15
532.501	6.14
532.7	6.08
532.9	6.12
533.1	6.15
533.299	6.2
533.499	6.23
533.698	6.19
533.898	6.18
534.097	6.2
534.297	6.27
534.496	6.25
534.696	6.31
534.895	6.41
535.095	6.47
535.294	6.34
535.494	6.32
535.693	6.35
535.892	6.37
536.092	6.27
536.291	6.3
536.491	6.4
536.69	6.41
536.889	6.31
537.088	6.35
537.288	6.41
537.487	6.44
537.686	6.45
537.886	6.56
538.085	6.61
538.284	6.72
538.483	6.68
538.682	6.73
538.882	6.73
539.081	6.82
539.28	6.67
539.479	6.7
539.678	6.7
539.877	6.76
540.076	6.7
540.275	6.77
540.474	6.87
540.673	6.9
540.872	6.88
541.071	6.93
541.27	6.93
541.469	7
541.668	7.03
541.867	7.03
542.066	7.1
542.265	7.18
542.464	7.1
542.663	7.06
542.862	7.17
543.06	7.21
543.259	7.25
543.458	7.32
543.657	7.41
543.856	7.47
544.054	7.41
544.253	7.36
544.452	7.34
544.651	7.42
544.849	7.36
545.048	7.47
545.247	7.56
545.445	7.62
545.644	7.61
545.843	7.61
546.041	7.62
546.24	7.72
546.438	7.83
546.637	7.87
546.836	8.01
547.034	8.04
547.233	8.03
547.431	7.95
547.63	7.95
547.828	7.96
548.027	8.04
548.225	8.06
548.423	8.09
548.622	8.21
548.82	8.19
549.019	8.22
549.217	8.33
549.415	8.43
549.614	8.46
549.812	8.5
550.01	8.55
550.209	8.56
550.407	8.64
550.605	8.65
550.803	8.79
551.002	8.86
551.2	8.88
551.398	8.94
551.596	9.05
551.794	9.11
551.993	9.15
552.191	9.21
552.389	9.36
552.587	9.45
552.785	9.52
552.983	9.6
553.181	9.75
553.379	9.71
553.577	9.74
553.775	9.82
553.973	9.89
554.171	9.95
554.369	10.01
554.567	10.03
554.765	10.08
554.963	10.18
555.161	10.18
555.359	10.24
555.557	10.41
555.755	10.46
555.952	10.48
556.15	10.56
556.348	10.68
556.546	10.74
556.744	10.8
556.941	10.87
557.139	11.01
557.337	11.04
557.535	11.01
557.732	11.12
557.93	11.25
558.128	11.31
558.325	11.48
558.523	11.62
558.721	11.72
558.918	11.75
559.116	11.83
559.313	11.83
559.511	11.96
559.708	11.96
559.906	11.98
560.104	12.05
560.301	12.23
560.498	12.26
560.696	12.37
560.893	12.53
561.091	12.56
561.288	12.62
561.486	12.7
561.683	12.85
561.88	12.97
562.078	13.1
562.275	13.1
562.473	13.24
562.67	13.37
562.867	13.39
563.064	13.52
563.262	13.63
563.459	13.69
563.656	13.78
563.853	13.87
564.051	13.95
564.248	14.05
564.445	14.17
564.642	14.17
564.839	14.34
565.036	14.43
565.234	14.64
565.431	14.7
565.628	14.82
565.825	14.93
566.022	15.03
566.219	15.02
566.416	15.16
566.613	15.16
566.81	15.24
567.007	15.26
567.204	15.31
567.401	15.32
567.598	15.44
567.795	15.46
567.991	15.53
568.188	15.65
568.385	15.76
568.582	15.85
568.779	15.95
568.976	16.1
569.172	16.22
569.369	16.23
569.566	16.3
569.763	16.38
569.96	16.39
570.156	16.35
570.353	16.42
570.55	16.5
570.746	16.51
570.943	16.61
571.14	16.63
571.336	16.7
571.533	16.71
571.729	16.71
571.926	16.76
572.123	16.96
572.319	17.08
572.516	17.07
572.712	17.21
572.909	17.19
573.105	17.19
573.302	17.14
573.498	17.3
573.695	17.21
573.891	17.26
574.087	17.27
574.284	17.28
574.48	17.14
574.677	17.23
574.873	17.26
575.069	17.28
575.266	17.36
575.462	17.43
575.658	17.47
575.854	17.56
576.051	17.63
576.247	17.6
576.443	17.62
576.639	17.67
576.835	17.52
577.032	17.49
577.228	17.58
577.424	17.65
577.62	17.58
577.816	17.77
578.012	17.77
578.208	17.7
578.404	17.69
578.6	17.77
578.796	17.72
578.993	17.78
579.189	17.81
579.384	17.74
579.58	17.62
579.776	17.65
579.972	17.58
580.168	17.5
580.364	17.55
580.56	17.6
580.756	17.5
580.952	17.47
581.148	17.46
581.343	17.48
581.539	17.57
581.735	17.61
581.931	17.69
582.127	17.83
582.322	17.79
582.518	17.77
582.714	17.7
582.909	17.67
583.105	17.58
583.301	17.57
583.496	17.57
583.692	17.5
583.888	17.52
584.083	17.49
584.279	17.5
584.474	17.39
584.67	17.52
584.866	17.5
585.061	17.41
585.257	17.47
585.452	17.54
585.648	17.45
585.843	17.43
586.039	17.55
586.234	17.43
586.429	17.37
586.625	17.53
586.82	17.48
587.015	17.5
587.211	17.5
587.406	17.58
587.601	17.48
587.797	17.5
587.992	17.43
588.187	17.5
588.383	17.42
588.578	17.34
588.773	17.42
588.968	17.46
589.163	17.44
589.359	17.43
589.554	17.56
589.749	17.54
589.944	17.55
590.139	17.59
590.334	17.68
590.529	17.66
590.724	17.63
590.919	17.69
591.114	17.67
591.309	17.74
591.504	17.81
591.699	17.81
591.894	17.85
592.089	17.91
592.284	17.9
592.479	17.99
592.674	18.08
592.869	18.19
593.064	18.27
593.259	18.41
593.454	18.37
593.648	18.4
593.843	18.33
594.038	18.34
594.233	18.37
594.428	18.41
594.622	18.47
594.817	18.72
595.012	18.76
595.206	18.69
595.401	18.78
595.596	18.77
595.79	18.76
595.985	18.9
596.18	19.05
596.374	19.18
596.569	19.28
596.763	19.2
596.958	19.24
597.153	19.37
597.347	19.35
597.542	19.52
597.736	19.63
597.931	19.7
598.125	19.7
598.319	19.93
598.514	19.93
598.708	20.03
598.903	19.99
599.097	20
599.291	19.93
599.486	19.96
599.68	19.95
599.874	20.07
600.069	20.08
600.263	20.11
600.457	20.19
600.651	20.31
600.846	20.41
601.04	20.44
601.234	20.48
601.428	20.44
601.622	20.51
601.817	20.47
602.011	20.64
602.205	20.69
602.399	20.72
602.593	20.73
602.787	20.74
602.981	20.67
603.175	20.72
603.369	20.69
603.563	20.69
603.757	20.81
603.951	20.82
604.145	20.74
604.339	20.8
604.533	20.67
604.727	20.55
604.921	20.56
605.115	20.57
605.309	20.65
605.502	20.67
605.696	20.65
605.89	20.59
606.084	20.5
606.278	20.38
606.471	20.32
606.665	20.26
606.859	20.12
607.053	20.08
607.246	20.07
607.44	20.1
607.634	20.05
607.827	20.11
608.021	20.01
608.214	19.88
608.408	19.8
608.602	19.76
608.795	19.65
608.989	19.67
609.182	19.67
609.376	19.53
609.569	19.43
609.763	19.36
609.956	19.27
610.15	19.19
610.343	19.2
610.537	19.15
610.73	19.16
610.923	19.09
611.117	19
611.31	18.98
611.504	18.9
611.697	18.75
611.89	18.8
612.083	18.72
612.277	18.62
612.47	18.58
612.663	18.54
612.856	18.36
613.05	18.27
613.243	18.19
613.436	18.07
613.629	17.93
613.822	17.88
614.015	17.84
614.209	17.69
614.402	17.77
614.595	17.84
614.788	17.77
614.981	17.63
615.174	17.58
615.367	17.45
615.56	17.33
615.753	17.33
615.946	17.32
616.139	17.36
616.332	17.39
616.525	17.34
616.718	17.37
616.911	17.45
617.103	17.37
617.296	17.26
617.489	17.17
617.682	17.03
617.875	16.95
618.067	16.86
618.26	16.78
618.453	16.86
618.646	16.81
618.838	16.74
619.031	16.83
619.224	16.85
619.417	16.76
619.609	16.86
619.802	16.82
619.994	16.82
620.187	16.79
620.38	16.81
620.572	16.66
620.765	16.63
620.957	16.46
621.15	16.35
621.342	16.26
621.535	16.26
621.727	16.09
621.92	16.01
622.112	15.94
622.305	15.94
622.497	15.87
622.69	15.97
622.882	16.02
623.074	16.13
623.267	16.08
623.459	16.08
623.651	16.02
623.844	16
624.036	15.96
624.228	15.9
624.42	15.88
624.613	16
624.805	15.92
624.997	15.86
625.189	15.86
625.381	15.88
625.574	15.72
625.766	15.69
625.958	15.65
626.15	15.66
626.342	15.67
626.534	15.72
626.726	15.77
626.918	15.75
627.11	15.62
627.302	15.53
627.494	15.45
627.686	15.49
627.878	15.42
628.07	15.5
628.262	15.43
628.454	15.49
628.646	15.36
628.838	15.4
629.029	15.27
629.221	15.35
629.413	15.18
629.605	15.12
629.797	15.06
629.989	15.13
630.18	15.09
630.372	15.11
630.564	15.13
630.755	15.14
630.947	15.21
631.139	15.06
631.33	14.96
631.522	15
631.714	14.98
631.905	14.77
632.097	14.73
632.289	14.76
632.48	14.73
632.672	14.63
632.863	14.53
633.055	14.59
633.246	14.6
633.438	14.48
633.629	14.46
633.821	14.6
634.012	14.55
634.203	14.4
634.395	14.47
634.586	14.54
634.777	14.42
634.969	14.38
635.16	14.51
635.351	14.4
635.543	14.38
635.734	14.48
635.925	14.53
636.117	14.52
636.308	14.53
636.499	14.42
636.69	14.26
636.881	14.17
637.073	14.2
637.264	14.15
637.455	14.2
637.646	14.27
637.837	14.35
638.028	14.24
638.219	14.33
638.41	14.28
638.601	14.25
638.792	14.26
638.983	14.19
639.174	14.04
639.365	14.11
639.556	14.09
639.747	14.02
639.938	14.07
640.129	14.1
640.32	14.01
640.511	14.06
640.701	14.13
640.892	14.09
641.083	14.11
641.274	14.11
641.465	14.04
641.655	13.86
641.846	13.91
642.037	13.86
642.228	13.81
642.418	13.85
642.609	13.87
642.8	13.83
642.99	13.8
643.181	13.89
643.372	13.91
643.562	13.86
643.753	13.76
643.943	13.62
644.134	13.48
644.324	13.33
644.515	13.28
644.705	13.34
644.896	13.43
645.086	13.44
645.277	13.4
645.467	13.54
645.658	13.46
645.848	13.46
646.038	13.44
646.229	13.43
646.419	13.28
646.61	13.32
646.8	13.26
646.99	13.26
647.18	13.19
647.371	13.06
647.561	12.98
647.751	12.99
647.941	12.93
648.132	12.96
648.322	13.07
648.512	13.11
648.702	13.1
648.892	13.07
649.082	13.05
649.272	12.87
649.462	12.73
649.653	12.69
649.843	12.63
650.033	12.74
650.223	12.86
650.413	12.83
650.603	12.82
650.793	12.9
650.983	12.68
651.172	12.61
651.362	12.64
651.552	12.48
651.742	12.39
651.932	12.38
652.122	12.4
652.312	12.45
652.502	12.49
652.691	12.48
652.881	12.39
653.071	12.33
653.261	12.14
653.45	11.98
653.64	11.9
653.83	11.85
654.019	11.75
654.209	11.71
654.399	11.7
654.588	11.62
654.778	11.57
654.968	11.4
655.157	11.34
655.347	11.24
655.536	11.09
655.726	11
655.915	10.86
656.105	10.74
656.294	10.71
656.484	10.55
656.673	10.36
656.863	10.38
657.052	10.31
657.241	10.09
657.431	9.9
657.62	9.86
657.809	9.56
657.999	9.41
658.188	9.29
658.377	9.23
658.567	9.09
658.756	9.01
658.945	8.82
659.134	8.67
659.324	8.58
659.513	8.44
659.702	8.3
659.891	8.28
660.08	8.18
660.269	8.1
660.458	7.94
660.648	7.85
660.837	7.65
661.026	7.52
661.215	7.39
661.404	7.28
661.593	7.27
661.782	7.11
661.971	7.06
662.16	6.9
662.349	6.85
662.538	6.72
662.726	6.74
662.915	6.59
663.104	6.44
663.293	6.39
663.482	6.32
663.671	6.18
663.86	6.08
664.048	6.1
664.237	6.02
664.426	5.85
664.615	5.76
664.803	5.75
664.992	5.61
665.181	5.47
665.369	5.37
665.558	5.33
665.747	5.29
665.935	5.33
666.124	5.37
666.312	5.45
666.501	5.37
666.69	5.25
666.878	5.2
667.067	5.06
667.255	5.1
667.444	5.41
667.632	5.49
667.82	5.57
668.009	5.55
668.197	5.45
668.386	5.28
668.574	5.42
668.762	5.26
668.951	5.26
669.139	5.3
669.327	5.12
669.516	5.06
669.704	5.11
669.892	5.28
670.08	5.21
670.269	5.22
670.457	5.05
670.645	4.9
670.833	4.94
671.021	5.01
671.21	5.17
671.398	5.46
671.586	5.52
671.774	5.37
671.962	5.4
672.15	5.3
672.338	5.1
672.526	5.23
672.714	5.12
672.902	5.11
673.09	5.28
673.278	5.5
673.466	5.56
673.654	5.77
673.842	5.8
674.03	5.78
674.218	5.64
674.405	5.6
674.593	5.55
674.781	5.68
674.969	5.66
675.157	5.82
675.344	5.97
675.532	6.13
675.72	6.21
675.908	6.34
676.095	6.28
676.283	6.29
676.471	6.38
676.658	6.42
676.846	6.47
677.033	6.64
677.221	6.81
677.409	6.76
677.596	6.79
677.784	6.84
677.971	6.86
678.159	6.8
678.346	6.86
678.534	6.96
678.721	7.06
678.909	7.03
679.096	7.17
679.283	7.46
679.471	7.68
679.658	7.8
679.846	7.98
680.033	8.13
680.22	8.02
680.408	7.92
680.595	7.9
680.782	7.89
680.969	7.9
681.157	7.98
681.344	8.07
681.531	8.21
681.718	8.2
681.905	8.36
682.093	8.68
682.28	8.88
682.467	9.24
682.654	9.56
682.841	9.63
683.028	9.62
683.215	9.68
683.402	9.53
683.589	9.72
683.776	9.87
683.963	10.01
684.15	10.31
684.337	10.57
684.524	10.69
684.711	10.99
684.898	11.04
685.085	11.11
685.271	11.41
685.458	11.57
685.645	11.73
685.832	12.16
686.019	12.4
686.205	12.5
686.392	12.81
686.579	13.11
686.766	13.42
686.952	13.67
687.139	14.11
687.326	14.42
687.512	14.65
687.699	14.9
687.886	15.24
688.072	15.39
688.259	15.79
688.445	16.29
688.632	16.56
688.818	17.2
689.005	17.69
689.191	18.09
689.378	18.67
689.564	19.3
689.751	19.65
689.937	20.05
690.124	20.56
690.31	20.71
690.496	21.21
690.683	21.69
690.869	22.26
691.055	22.79
691.242	23.72
691.428	24.28
691.614	24.79
691.8	25.6
691.987	26.1
692.173	26.7
692.359	27.3
692.545	28.05
692.731	28.47
692.918	29.46
693.104	29.74
693.29	30.4
693.476	31.12
693.662	31.75
693.848	32.07
694.034	32.9
694.22	33.38
694.406	34
694.592	34.79
694.778	35.44
694.964	35.94
695.15	36.98
695.336	37.62
695.522	38.56
695.708	39.25
695.894	40.16
696.08	40.61
696.265	41.26
696.451	41.49
696.637	42.32
696.823	42.73
697.009	43.31
697.194	44
697.38	44.73
697.566	45.2
697.751	45.9
697.937	46.46
698.123	47.05
698.308	47.7
698.494	48.4
698.68	48.78
698.865	49.73
699.051	50
699.236	50.38
699.422	50.8
699.607	51.55
699.793	51.71
699.978	52.22
700.164	52.59
700.349	53.44
700.535	53.92
700.72	54.38
700.906	55.25
701.091	56.04
701.276	56.23
701.462	57.27
701.647	58.12
701.832	58.65
702.018	58.89
702.203	59.31
702.388	58.92
702.573	59.3
702.759	59.82
702.944	60.19
703.129	60.67
703.314	61.24
703.499	61.42
703.684	61.34
703.87	62.4
704.055	63.19
704.24	63.76
704.425	64.38
704.61	65.02
704.795	64.82
704.98	64.94
705.165	65.02
705.35	65.39
705.535	65.68
705.72	66.17
705.905	66.81
706.09	67.57
706.275	67.58
706.459	67.64
706.644	67.98
706.829	67.92
707.014	67.73
707.199	68.54
707.384	69.01
707.568	69.42
707.753	70.08
707.938	70.69
708.123	70.56
708.307	70.84
708.492	70.66
708.677	70.39
708.861	70.26
709.046	70.26
709.231	70.78
709.415	71.29
709.6	71.37
709.784	71.63
709.969	72.08
710.153	71.96
710.338	72.23
710.522	72.51
710.707	72.98
710.891	73.1
711.076	73.35
711.26	73.02
711.445	73.4
711.629	73.53
711.813	73.81
711.998	74.11
712.182	74.54
712.366	74.97
712.551	75.75
712.735	75.74
712.919	75.35
713.103	75.67
713.288	75.42
713.472	74.82
713.656	75.4
713.84	75.85
714.024	75.7
714.208	75.83
714.393	76.21
714.577	76.51
714.761	76.46
714.945	76.98
715.129	76.99
715.313	77.15
715.497	76.65
715.681	77.2
715.865	76.88
716.049	77.16
716.233	77.06
716.417	77.38
716.601	77.44
716.785	77.72
716.968	77.88
717.152	78.4
717.336	78.53
717.52	78.19
717.704	78.48
717.888	78.99
718.071	79.17
718.255	79.12
718.439	79.33
718.622	79.41
718.806	79.44
718.99	78.7
719.174	78.99
719.357	79.53
719.541	79.64
719.724	79.34
719.908	80.58
720.092	80.74
720.275	80.71
720.459	80.29
720.642	80.22
720.826	79.8
721.009	79.51
721.193	79.22
721.376	79.64
721.559	80.1
721.743	79.86
721.926	80.16
722.11	80.18
722.293	79.64
722.476	79.39
722.66	79.39
722.843	79.39
723.026	79.11
723.21	80.13
723.393	80.73
723.576	80.86
723.759	80.39
723.942	81.21
724.126	80.93
724.309	80.41
724.492	80.56
724.675	81.09
724.858	81.3
725.041	82
725.224	82.37
725.407	82.92
725.59	83.17
725.774	82.68
725.957	81.87
726.14	81.95
726.322	81.54
726.505	81.34
726.688	82.65
726.871	82.54
727.054	82.76
727.237	82.71
727.42	83.22
727.603	82.53
727.786	83.17
727.968	83.44
728.151	83.77
728.334	83.79
728.517	83.93
728.699	84.38
728.882	83.4
729.065	83.67
729.248	83.94
729.43	84.09
729.613	84.46
729.796	85.53
729.978	85.52
730.161	85.35
730.343	85.15
730.526	85.41
730.708	84.68
730.891	84.35
731.073	84.27
731.256	83.84
731.438	83.56
731.621	84.63
731.803	84.98
731.986	85.19
732.168	85.4
732.35	85.42
732.533	84.95
732.715	85.01
732.898	86.11
733.08	85.9
733.262	86.18
733.444	85.76
733.627	85.85
733.809	85.5
733.991	86.48
734.173	85.67
734.355	86.1
734.538	86.76
734.72	86.05
734.902	85.98
735.084	86.28
735.266	86.32
735.448	86.1
735.63	86.48
735.812	86.24
735.994	87
736.176	87.07
736.358	87.27
736.54	88.02
736.722	88.23
736.904	87.58
737.086	88.25
737.268	88.69
737.45	88.62
737.632	88.4
737.814	88.34
737.995	88.45
738.177	88.68
738.359	87.49
738.541	88.7
738.723	89.04
738.904	89.38
739.086	88.75
739.268	89.1
739.449	88.83
739.631	88.75
739.813	88.4
739.994	88.65
740.176	88.49
740.358	87.95
740.539	89.62
740.721	90.14
740.902	90.63
741.084	91.13
741.265	91.4
741.447	90.62
741.628	90.57
741.81	89.31
741.991	90.16
742.172	90.95
742.354	91.5
742.535	91.06
742.717	92.03
742.898	91.69
743.079	91.7
743.261	90.29
743.442	89.23
743.623	89.35
743.804	89.47
743.986	89.78
744.167	89.79
744.348	90.4
744.529	90.44
744.71	89.48
744.891	88.3
745.073	87.97
745.254	87.54
745.435	87.62
745.616	87.38
745.797	88.4
745.978	88.89
746.159	89.84
746.34	88.56
746.521	90.43
746.702	88.9
746.883	88.49
747.064	88.18
747.245	88.03
747.426	86.82
747.606	87.76
747.787	89.59
747.968	89.4
748.149	90.52
748.33	91.23
748.51	91.09
748.691	89.36
748.872	90.57
749.053	91.11
749.233	90.51
749.414	89.87
749.595	89.37
749.775	87.47
749.956	85.64
750.137	86.07
750.317	86.97
750.498	88.65
750.678	89.63
750.859	91.72
751.04	90.82
751.22	90.68
751.4	88.52
751.581	87.46
751.761	87.31
751.942	88
752.122	87.1
752.303	87.13
752.483	87.73
752.663	85.76
752.844	84.65
753.024	85.48
753.204	87.52
753.385	87.15
753.565	88.65
753.745	89.15
753.925	87.82
754.106	86.77
754.286	87.64
754.466	87.25
754.646	87.34
754.826	87.94
755.006	86.1
755.187	86.3
755.367	86.99
755.547	86.53
755.727	86.65
755.907	88.79
756.087	89.45
756.267	88
756.447	88.06
756.627	86.17
756.807	85.93
756.987	84.17
757.167	85.05
757.346	85.94
757.526	86.66
757.706	88.2
757.886	88.9
758.066	90.16
758.246	90.91
758.425	91.4
758.605	89.7
758.785	89.43
758.965	87.74
759.144	85.83
759.324	86.1
759.504	86.01
759.683	86.1
759.863	84.65
760.043	84.43
760.222	84.48
760.402	84.23
760.581	83.2
760.761	85.84
760.94	85.13
761.12	85.92
761.299	86.34
761.479	86.92
761.658	85.31
761.838	86.11
762.017	86.81
762.197	86.9
762.376	86.55
762.555	85.92
762.735	86.84
762.914	84.59
763.093	83.28
763.273	82.98
763.452	83.26
763.631	81.15
763.81	81.79
763.99	82.73
764.169	83.21
764.348	82.58
764.527	83.87
764.706	84.97
764.885	86.45
765.064	85.31
765.243	86.21
765.423	87.33
765.602	86.82
765.781	83.72
765.96	83.72
766.139	82.78
766.318	81.72
766.497	79.56
766.676	81.2
766.854	82.39
767.033	83.98
767.212	83.63
767.391	85.68
767.57	86.12
767.749	85.82
767.928	85.92
768.106	84.53
768.285	82.46
768.464	81.4
768.643	80.04
768.821	80.12
769	83.15
769.179	83.25
769.357	82.09
769.536	82.17
769.715	80.93
769.893	80.6
770.072	80.84
770.25	82.24
770.429	85.16
770.607	85.18
770.786	83.63
770.964	85.93
771.143	86.1
771.321	86.73
771.5	87.9
771.678	87.03
771.857	84.39
772.035	84.2
772.213	82.13
772.392	78.93
772.57	80.97
772.748	81.68
772.927	80.61
773.105	80.12
773.283	82.5
773.461	81.46
773.64	82.27
773.818	83.4
773.996	84.7
774.174	82.45
774.352	81.29
774.531	77.85
774.709	78.01
774.887	75.55
775.065	76.18
775.243	78.49
775.421	80.33
775.599	81.98
775.777	80.37
775.955	77.75
776.133	74.01
776.311	73.48
776.489	70.23
776.667	72.33
776.844	75.5
777.022	75.34
777.2	75.89
777.378	75.15
777.556	74.67
777.734	77
777.911	81.24
778.089	79.89
778.267	82.3
778.445	81.06
778.622	76.93
778.8	75.73
778.978	79.25
779.155	75.8
779.333	76.91
779.511	77.42
779.688	77.93
779.866	70.61
780.043	70.48
780.221	69.05
780.398	67.35
780.576	66.57
780.753	72.16
780.931	72.99
781.108	73.83
781.286	77.19
781.463	74.23
781.64	69.68
781.818	70.95
781.995	71.89
782.172	70.34
782.35	73.88
782.527	79.65
782.704	78.92
782.882	80.82
783.059	81.56
783.236	81.44
783.413	79.71
783.59	78.96
783.768	76.09
783.945	79.22
784.122	76.83
784.299	76.88
784.476	75.29
784.653	72.5
784.83	68
785.007	67.26
785.184	68.86
785.361	70.14
785.538	75.18
785.715	79.78
785.892	82.02
786.069	82.5
786.246	84.4
786.423	83.3
786.6	77.6
786.776	79.08
786.953	75.98
787.13	76.23
787.307	78.02
787.484	81.98
787.66	79.03
787.837	77.44
788.014	75.64
788.191	71.67
788.367	68.29
788.544	69.98
788.721	71.42
788.897	74.79
789.074	78.4
789.25	76.59
789.427	77.51
789.603	76.3
789.78	75.97
789.956	70.85
790.133	69.27
790.309	68.32
790.486	71.49
790.662	65.88
790.839	67.13
791.015	69.55
791.192	66.69
791.368	67.08
791.544	70.54
791.721	71.79
791.897	71.13
792.073	70.09
792.249	65.3
792.426	65.56
792.602	68.45
792.778	70.38
792.954	71.46
793.13	72.71
793.307	65.22
793.483	56.25
793.659	53.36
793.835	57.61
794.011	53.79
794.187	57.45
794.363	60.31
794.539	68.03
794.715	62.28
794.891	66.93
795.067	67.41
795.243	74.32
795.419	66.55
795.595	68.35
795.771	66.23
795.947	65.24
796.122	60.5
796.298	67.88
796.474	68.93
796.65	69.46
796.826	70.41
797.001	70.58
797.177	61.22
797.353	62.65
797.529	67.24
797.704	65.54
797.88	62.37
798.056	62.7
798.231	62
798.407	62.02
798.582	63.4
798.758	71.93
798.934	77.98
799.109	73.56
799.285	69.75
799.46	73.51
799.636	70.99
799.811	69.54
799.986	75.49
800.162	77.5
800.337	77.79
800.513	69.07
800.688	67.96
800.863	74.16
801.039	64.21
801.214	58.34
801.389	68.81
801.565	67.69
801.74	51.23
801.915	65.6
802.09	64.81
802.265	68.2
802.441	69.1
802.616	74.36
802.791	73.7
802.966	79.1
803.141	71.29
803.316	69.9
803.491	75.32
803.666	78.72
803.841	70.64
804.016	70.34
804.191	69.67
804.366	64.28
804.541	53.91
804.716	55.75
804.891	53.28
805.066	58.81
805.241	53.22
805.416	49.05
805.591	54.45
805.765	56.48
805.94	53.64
806.115	56.18
806.29	55.58
806.464	53.13
806.639	48.7
806.814	44.1
806.989	39.21
807.163	53.32
807.338	51.34
807.512	53.03
807.687	38.37
807.862	50.81
808.036	47.97
808.211	53.27
808.385	56.9
808.56	74.15
808.734	75.93
808.909	70.9
809.083	64.34
809.258	72.8
809.432	68.05
809.606	54.14
809.781	54.74
809.955	61.97
810.13	64.04
810.304	65.85
810.478	63.55
810.652	65.26
810.827	64.56
811.001	59.1
811.175	55.1
811.349	58.46
811.524	53.64
811.698	41.61
811.872	41.32
812.046	52.77
812.22	56.69
812.394	57.18
812.568	64.33
812.742	63.24
812.916	51.32
813.09	51.2
813.264	51.26
813.438	56.9
813.612	55.71
813.786	56.43
813.96	60.41
814.134	62.33
814.308	64.45
814.482	66.19
814.656	63.36
814.83	65.12
815.003	66.02
815.177	50.64
815.351	45.25
815.525	42.84
815.698	33.56
815.872	23.57
816.046	23.48
816.219	28.68
816.393	45.06
816.567	58.05
816.74	65.27
816.914	67.09
817.088	68.43
817.261	54.29
817.435	35.22
817.608	44.88
817.782	45.26
817.955	52
818.129	45.03
818.302	53.71
818.475	53.74
818.649	57.15
818.822	43.44
818.996	70.07
819.169	77.84
819.342	70.72
819.516	74.02
819.689	80.83
819.862	66.43
820.035	53.26
820.209	48.48
820.382	50.18
820.555	48.33
820.728	33.47
820.901	32.96
821.075	34.17
821.248	38.24
821.421	30.35
821.594	39.12
821.767	61.8
821.94	75.46
822.113	46.21
822.286	54.43
822.459	66.75
822.632	50.98
822.805	26.54
822.978	30.29
823.151	22.1
823.324	8.87
823.496	-4.88
823.669	4.14
823.842	16.06
824.015	8.94
824.188	-8.87
824.361	12.46
824.533	13.81
824.706	19.53
824.879	21.25
825.051	47.32
825.224	43.04
825.397	40.03
825.569	25.03
825.742	48.69
825.915	43.15
826.087	52.25
826.26	44.08
826.432	49.15
826.605	39.52
826.777	36.23
826.95	29.71
827.122	16.37
827.295	15.59
827.467	18.78
827.64	-4.85
827.812	-5.82
827.984	6.72
828.157	-7.68
828.329	-48.25
828.501	-40.19
828.674	-19.72
828.846	-38.44
829.018	0.15
829.19	-6.14
829.363	28.67
829.535	24.27
829.707	43.4
829.879	15.19
830.051	16.58
830.223	-9.35
830.395	-33.97
830.568	-42.42
830.74	-36.87
830.912	3.3
831.084	-17.15
831.256	-11.78
831.428	-10.98
831.6	-32.23
831.772	-76
831.943	-68.96
832.115	-27.98
832.287	-4.7
832.459	22.04
832.631	32.96
832.803	65.04
832.975	70.36
833.146	48.87
833.318	37.24
833.49	40.79
833.662	15.06
833.833	-0.4
834.005	16.65
834.177	44.94
834.348	62.22
834.52	53.45
834.692	59.7
834.863	32.63
835.035	-14.78
835.206	-77.04
835.378	-60.1
835.549	-78
835.721	-55.59
835.892	-43.09
836.064	-26.98
836.235	-38.49
836.407	-11.14
836.578	-38.77
836.749	-44.56
836.921	-74.75
837.092	-87.76
837.264	-68.03
837.435	-64.48
837.606	-25.49
837.777	7.89
837.949	36.37
838.12	36.3
838.291	44.37
838.462	32.23
838.633	8.66
838.805	9.2
838.976	17.49
839.147	-35.29
839.318	-33.51
839.489	-79.94
839.66	-97.37
839.831	-65.28
840.002	-41.64
840.173	-70.03
840.344	-4.23
840.515	21.89
840.686	-112.44
840.857	-37.16
841.028	-48.62
841.199	-51.93
841.369	-65.94
841.54	-20.96
841.711	-9.38
841.882	23.41
842.053	34.05
842.223	31.12
842.394	25.68
842.565	19.64
842.736	15.09
842.906	-7.25
843.077	4.38
843.248	21.91
843.418	14.97
843.589	-19.94
843.759	77.65
843.93	56.03
844.101	22.39
844.271	37.99
844.442	52.11
844.612	45.08
844.783	20.37
844.953	-36.86
845.123	-62.84
845.294	-77.41
845.464	-247.31
845.635	-121.62
845.805	4.58
845.975	-0.05
846.146	-35.41
846.316	-30.21
846.486	-5.31
846.656	28.1
846.827	25.03
846.997	25.18
847.167	49.12
847.337	33.4
847.507	8.59
847.677	3.3
847.848	54.48
848.018	40.42
848.188	44
848.358	9.15
848.528	-5.6
848.698	-60.93
848.868	-151.93
849.038	-280.57
849.208	-103.42
849.378	-65.15
849.548	-24.8
849.718	-4.06
849.887	6.93
850.057	-14.59
850.227	-30.12
850.397	-75.92
850.567	-209.92
850.737	-431.96
850.906	-1140.63
851.076	-682.42
851.246	-226.44
851.415	-17.01
851.585	-33.12
851.755	-62.9
851.924	-37.51
852.094	-50.14
852.264	-120.24
852.433	-923.56
852.603	-167.2
852.772	-197.78
852.942	-138.57
853.111	-98.31
853.281	-12.7
853.45	6.86
853.62	-47.45
853.789	-64.99
853.959	-37.31
854.128	-68.43
854.297	-97.5
854.467	-93.96
854.636	-29.82
854.805	-8.42
854.975	-55.66
855.144	-65.07
855.313	159.09
855.482	-241.24
855.652	-200.88
855.821	-107.41
855.99	24.13
856.159	15.54
856.328	15.94
856.497	-9.66
856.667	-6.92
856.836	-34.36
857.005	-59.24
857.174	-98.11
857.343	-105.49
857.512	-112.07
857.681	-145.71
857.85	-194.61
858.019	-103.92
858.188	-82.8
858.356	-84.92
858.525	-149.35
858.694	-123.57
858.863	-196.76
859.032	-185.38
859.201	-211.93
859.369	-107.27
859.538	-77.98
859.707	-84.08
859.876	-29.27
860.044	-52.41
860.213	9.12
860.382	-1.9
860.55	19.75
860.719	28.88
860.888	30.46
861.056	-15.78
861.225	-31.12
861.393	0.27
861.562	-34.49
861.73	-106.74
861.899	-275.13
862.067	-1977.59
862.236	-109.6
862.404	-202.45
862.572	-98.5
862.741	14.35
862.909	-17.32
863.078	-157.79
863.246	-115.18
863.414	-80.38
863.582	-49.14
863.751	-40.22
863.919	-12.63
864.087	24.77
864.255	-1.45
864.424	-365.94
864.592	-58.2
864.76	-118.67
864.928	-245.2
865.096	-101.43
865.264	-30.05
865.432	-1255.68
865.6	-52.75
865.768	-112.73
865.936	-130.88
866.104	-159.13
866.272	-152.03
866.44	-339.17
866.608	579.08
866.776	314.03
866.944	3356.98
867.112	-560.81
867.28	-211.91
867.448	-90.21
867.615	-34.78
867.783	-13.74
867.951	-35.39
868.119	-27.17
868.286	-42.74
868.454	-150.87
868.622	-156.92
868.789	-213.35
868.957	-4825
869.125	-2914.47
869.292	-197.67
869.46	-189.53
869.627	-14.81
869.795	3.74
869.963	8.53
870.13	23.13
870.298	36.99
870.465	-27.91
870.632	-71.47
870.8	-35.76
870.967	-112.75
871.135	-182.6
871.302	-173.06
871.469	-176
871.637	-271.35
871.804	-100.84
871.971	-140.61
872.139	-356.05
872.306	4.36
872.473	-26.77
872.64	-171.46
872.807	-28.41
872.975	31.94
873.142	-294.73
873.309	1687.84
873.476	39.65
873.643	101.88
873.81	95.69
873.977	121.6
874.144	85.32
874.311	-51.65
874.478	-134.32
874.645	-170.85
874.812	-81.35
874.979	-50.58
875.146	-74.08
875.313	-74.05
875.48	-24.27
875.647	-42.52
875.813	-73.02
875.98	-39.14
876.147	-57.62
876.314	-120.34
876.481	1044.21
876.647	-1170.22
876.814	376.42
876.981	-27.88
877.147	-12.48
877.314	13.11
877.481	22.6
877.647	18.81
877.814	-19.81
877.98	-62.44
878.147	-5.94
878.314	16.17
878.48	-43.29
878.647	-29.5
878.813	33.63
878.979	23.5
879.146	-15.33
879.312	-11.24
879.479	-74.83
879.645	-193.51
879.811	-384.38
879.978	-879.77
880.144	-277.39
880.31	-119.89
880.477	-353.95
880.643	-384.68
880.809	-132.03
880.975	-60.33
881.142	-562.27
881.308	-29.39
881.474	-6.85
881.64	-43.2
881.806	-108.7
881.972	-31.82
882.138	-60.81
882.304	-113.4
882.47	-220.56
882.636	-848.77
882.802	-246.66
882.968	1.32
883.134	28.16
883.3	32.64
883.466	47.64
883.632	88.79
883.798	11.32
883.964	-20.91
884.129	-42.6
884.295	-9.91
884.461	-106.59
884.627	-119.81
884.793	-118.39
884.958	-27.36
885.124	-101.5
885.29	-158.09
885.455	-199.76
885.621	-23.25
885.787	-143.57
885.952	-107.99
886.118	-97.98
886.283	-95.54
886.449	-206.53
886.614	-226.7
886.78	-502.12
886.945	2145.08
887.111	-739.02
887.276	-598.58
887.442	-1017.73
887.607	-348.35
887.773	-190.29
887.938	-184.99
888.103	-194.27
888.269	-58.89
888.434	-201.35
888.599	-104.62
888.764	-52.25
888.93	-8.89
889.095	-36.85
889.26	-64.84
889.425	-23.81
889.59	-11.04
889.756	-74.02
889.921	-4.06
890.086	49.38
890.251	31.92
890.416	-102.4
890.581	-1244.35
890.746	321.61
890.911	510.51
891.076	197.46
891.241	-280.22
891.406	69.48
891.571	70.97
891.736	-148.85
891.901	-268.58
892.065	458.79
892.23	124
892.395	212.04
892.56	286.27
892.725	-358.98
892.889	-1193.9
893.054	-253.79
893.219	-89.13
893.384	-28.56
893.548	-86.47
893.713	-97.25
893.878	-46.03
