Data from Ofra_PS_T2_1A_1GT42_Reflection_1.txt Node
Date: Wed Jul 21 17:48:41 EDT 2021
User: Adam
Spectrometer: FLMT01687
Trigger mode: 0
Integration Time (sec): 1.100000E0
Scans to average: 2
Electric dark correction enabled: true
Nonlinearity correction enabled: false
Boxcar width: 2
XAxis mode: Wavelengths
Number of Pixels in Spectrum: 3648
>>>>>Begin Spectral Data<<<<<
179.494	597.2
179.716	668.71
179.937	666.63
180.158	695.37
180.38	1157.19
180.601	474.31
180.823	183.5
181.044	81.28
181.265	150.37
181.486	120.78
181.708	104.73
181.929	643.88
182.15	11.97
182.372	186.32
182.593	170.21
182.814	50.52
183.035	74
183.257	53.92
183.478	-15.43
183.699	57.53
183.92	36.94
184.141	63.97
184.363	10.44
184.584	59.4
184.805	33.83
185.026	56.72
185.247	51.33
185.468	16.61
185.689	11.42
185.91	16.6
186.132	-4.18
186.353	-12.28
186.574	58.85
186.795	34.09
187.016	-18.91
187.237	-3.41
187.458	-9.43
187.679	-6.45
187.9	40.57
188.121	51.11
188.342	96.01
188.563	111.41
188.784	146.83
189.005	101.18
189.226	134.44
189.447	91.45
189.667	-233.25
189.888	-424.38
190.109	-1282.47
190.33	-623.55
190.551	-1187.17
190.772	-166.46
190.993	-191.29
191.214	-161.24
191.434	-142.3
191.655	-45.71
191.876	-115.72
192.097	-122.81
192.318	-182.07
192.538	-270.23
192.759	-188.84
192.98	-73.14
193.201	-23.3
193.421	-3.36
193.642	15.85
193.863	20.42
194.083	-12.91
194.304	-32.29
194.525	-26.68
194.745	-45.88
194.966	-88.73
195.187	-86.97
195.407	-79.5
195.628	-152.95
195.848	-151
196.069	-104.9
196.29	-54.36
196.51	-80.14
196.731	-59.57
196.951	-57.8
197.172	-74.51
197.392	-120.28
197.613	-121.35
197.833	-163.26
198.054	-138.47
198.274	-108.02
198.495	-112.82
198.715	-66.22
198.936	-68.15
199.156	-69.44
199.377	-138.12
199.597	-124.94
199.817	-159.55
200.038	-106.99
200.258	-139.54
200.479	-59.18
200.699	-29.77
200.919	33.96
201.14	2.37
201.36	-48.73
201.58	-5.02
201.801	27.25
202.021	-2.31
202.241	-0.84
202.461	3.82
202.682	-95.56
202.902	-192.35
203.122	-142.83
203.342	-111.27
203.563	-59.33
203.783	-10.1
204.003	-40.88
204.223	-55.7
204.443	3.67
204.663	-10.16
204.884	6.61
205.104	54.65
205.324	98.47
205.544	82.95
205.764	77.63
205.984	63.09
206.204	48.15
206.424	32.72
206.644	-1.65
206.864	13.16
207.084	-43.69
207.304	-38.65
207.525	-234.53
207.745	-169.51
207.964	-109.09
208.184	-124.79
208.404	-175.44
208.624	-152.16
208.844	-119.29
209.064	-428
209.284	-380.96
209.504	-114.35
209.724	13.92
209.944	12.2
210.164	46.69
210.384	41.26
210.604	28.22
210.823	-22.52
211.043	-49.96
211.263	-42.27
211.483	-38.63
211.703	-105.52
211.922	-86.66
212.142	-21.92
212.362	-9.4
212.582	-11.7
212.801	14.39
213.021	-4.1
213.241	-10.45
213.461	-62.78
213.68	-80.75
213.9	-50.09
214.12	-35.03
214.339	-94.94
214.559	-64.65
214.779	-24.5
214.998	-50.3
215.218	-91.83
215.438	-48.45
215.657	-50.79
215.877	-47.3
216.096	6.36
216.316	29.14
216.535	30.66
216.755	41.58
216.974	-11.83
217.194	-81.46
217.413	-116.04
217.633	-136.43
217.852	-277.06
218.072	-132.92
218.291	-60.77
218.511	-0.24
218.73	-16.82
218.95	-3.69
219.169	-4.81
219.389	-60.56
219.608	-61.61
219.827	-55.32
220.047	-61.87
220.266	-29.57
220.485	-11.48
220.705	-3.32
220.924	-28.1
221.143	16.84
221.363	-4.87
221.582	5.59
221.801	23.57
222.021	41.54
222.24	-13.48
222.459	55.16
222.678	-3.18
222.897	-104.98
223.117	-135.52
223.336	-104.03
223.555	-71.83
223.774	-27.49
223.993	2.32
224.213	42.8
224.432	26.34
224.651	49.65
224.87	36.02
225.089	46.39
225.308	37.82
225.527	47.4
225.746	40.58
225.965	35.15
226.184	21.3
226.404	38.06
226.623	6.28
226.842	0.14
227.061	26.81
227.28	27.2
227.499	7.43
227.718	33.03
227.936	21.54
228.155	37.62
228.374	20.94
228.593	25.87
228.812	17.41
229.031	16.26
229.25	-50.41
229.469	-43.48
229.688	-30.41
229.907	2.25
230.125	23.71
230.344	16.99
230.563	34.29
230.782	32.77
231.001	-38.98
231.22	-42.96
231.438	18.2
231.657	0.91
231.876	-7.81
232.095	34.96
232.313	42.91
232.532	4.16
232.751	-33.21
232.969	-51.59
233.188	-140.82
233.407	-61.8
233.625	-29.02
233.844	-48.37
234.063	-26.01
234.281	-12.73
234.5	-32.72
234.719	-40.51
234.937	-8.84
235.156	3.22
235.374	-1.79
235.593	-29.77
235.811	-33.56
236.03	-50.21
236.249	-113.08
236.467	-71.71
236.686	-7.26
236.904	11.19
237.123	-10.02
237.341	-10.28
237.559	-6.03
237.778	-34.93
237.996	-80.75
238.215	-21.61
238.433	-18.54
238.652	-25.73
238.87	-36.9
239.088	-10.36
239.307	-21.65
239.525	-25.46
239.743	-62.99
239.962	-35.22
240.18	-57.75
240.398	-82.16
240.617	-57.05
240.835	-32.44
241.053	-20.64
241.271	35.83
241.49	38.25
241.708	19.53
241.926	23.43
242.144	3.57
242.363	-79.78
242.581	-110.87
242.799	-59.02
243.017	-28.71
243.235	-44.64
243.453	-12.4
243.672	-7.59
243.89	-16.5
244.108	-36.59
244.326	-18.75
244.544	-37.17
244.762	-42.06
244.98	-50.5
245.198	-29.93
245.416	-63.01
245.634	-52.36
245.852	-61.96
246.07	-74.83
246.288	-75.97
246.506	-97.65
246.724	-54.57
246.942	-52.78
247.16	1.73
247.378	3.3
247.596	30.61
247.814	16.27
248.032	8.92
248.25	0.41
248.468	4.96
248.685	20.65
248.903	50.16
249.121	51.37
249.339	9.86
249.557	6.74
249.775	7.36
249.992	-55.58
250.21	-57.6
250.428	-24.53
250.646	-56.95
250.863	-80.01
251.081	-64.55
251.299	-45.25
251.517	-31.82
251.734	-16.98
251.952	-19.88
252.17	-10.87
252.387	-6.38
252.605	-25.07
252.823	-18.37
253.04	5.07
253.258	20.84
253.475	3.08
253.693	28.12
253.911	36.23
254.128	36.94
254.346	48.62
254.563	30.08
254.781	11.01
254.998	-12.03
255.216	-25.2
255.433	-46.28
255.651	-4.24
255.868	3.11
256.086	51.38
256.303	36.77
256.521	39.08
256.738	15.64
256.956	2.8
257.173	-44.17
257.39	-52.44
257.608	-89.01
257.825	-56.44
258.043	-40.36
258.26	-8.08
258.477	29.31
258.695	28.64
258.912	-17.1
259.129	1.58
259.346	-40.34
259.564	-80.35
259.781	-104.76
259.998	-17.49
260.216	13.5
260.433	64.48
260.65	52.77
260.867	61.94
261.084	23.34
261.302	-23.54
261.519	-53.8
261.736	-65.69
261.953	-78.52
262.17	-27.98
262.387	-29.4
262.604	-71.16
262.822	-90.33
263.039	-60.4
263.256	-111.8
263.473	-100.14
263.69	-59.87
263.907	2.14
264.124	19.7
264.341	13.86
264.558	14.44
264.775	42.06
264.992	23.76
265.209	10.28
265.426	48.07
265.643	57.99
265.86	58.37
266.077	68.54
266.294	52.39
266.51	-24.28
266.727	-58.54
266.944	-62.71
267.161	-74.67
267.378	-62.12
267.595	-16.48
267.812	-23
268.028	-51.45
268.245	-15.82
268.462	-52.02
268.679	-50.93
268.896	5.85
269.112	13.99
269.329	2.45
269.546	20.88
269.763	12.13
269.979	-7.76
270.196	-10.94
270.413	-37.26
270.629	-66.33
270.846	-74.47
271.063	-68.73
271.279	-79.83
271.496	-72.1
271.712	-19.43
271.929	-5.68
272.146	-16.81
272.362	7.59
272.579	37.15
272.795	27.07
273.012	28.12
273.228	35.96
273.445	3.26
273.661	-18.09
273.878	-48.99
274.094	-59.8
274.311	-87.77
274.527	-40.13
274.744	-50.25
274.96	-53.75
275.177	-27.77
275.393	-9.83
275.609	-4.88
275.826	36.98
276.042	44.35
276.259	35.09
276.475	40.09
276.691	36.62
276.908	1.38
277.124	3.63
277.34	12.17
277.557	-4.99
277.773	-15.36
277.989	-11.33
278.205	-16.32
278.422	-1.67
278.638	5.36
278.854	14.71
279.07	8.36
279.286	8.48
279.503	-38.68
279.719	-55.76
279.935	-74.82
280.151	-85.93
280.367	-56.35
280.583	-79.15
280.799	-70.95
281.016	-91.75
281.232	-45.15
281.448	-49.69
281.664	-6.05
281.88	-29.75
282.096	-11.08
282.312	-2.3
282.528	17.71
282.744	5.89
282.96	14.53
283.176	18.24
283.392	4.23
283.608	-20.38
283.824	-20.09
284.04	-4.46
284.256	-0.55
284.471	-7.83
284.687	-15.45
284.903	12.1
285.119	42.43
285.335	17.56
285.551	46.33
285.767	33.39
285.982	-7.33
286.198	-73.34
286.414	-5.29
286.63	-0.03
286.846	35.84
287.061	24.66
287.277	64.52
287.493	32.89
287.709	52.93
287.924	31.04
288.14	74.48
288.356	62.26
288.571	86.25
288.787	47.8
289.003	46.94
289.218	14.92
289.434	-30.27
289.65	-44.54
289.865	-43.04
290.081	-8.51
290.296	9.63
290.512	20.67
290.727	-17.78
290.943	-24.57
291.159	-46.86
291.374	-48.57
291.59	-74.62
291.805	-41.91
292.021	-24.33
292.236	-24.79
292.451	-12.79
292.667	11.6
292.882	25.15
293.098	20.43
293.313	11.11
293.529	-23.37
293.744	-44.21
293.959	-57.61
294.175	-59.58
294.39	-16.27
294.605	5.8
294.821	35.23
295.036	33.55
295.251	46.63
295.467	9.89
295.682	-3
295.897	-70.2
296.112	-68.59
296.328	-69.94
296.543	-78.44
296.758	-58.63
296.973	-13.71
297.188	17.23
297.404	-12.2
297.619	-27.7
297.834	-40.49
298.049	-55.81
298.264	-85.3
298.479	-12.66
298.694	3.3
298.909	20.95
299.125	12.95
299.34	26.04
299.555	-10.19
299.77	-0.42
299.985	-51.04
300.2	-93.18
300.415	-119.13
300.63	-57.72
300.845	-66.13
301.06	-62.52
301.275	-21.95
301.49	-2.72
301.704	-31.32
301.919	-47.74
302.134	-57.21
302.349	-54.32
302.564	-131.82
302.779	-167.67
302.994	-114.34
303.209	-57.33
303.423	-22.84
303.638	51.61
303.853	22.91
304.068	12.2
304.283	17.17
304.497	0.7
304.712	-9.19
304.927	-2.06
305.142	-24.52
305.356	-24.81
305.571	-19.29
305.786	-27.45
306	-29.9
306.215	-6.25
306.43	-21.37
306.644	7.35
306.859	30.96
307.074	8.86
307.288	-17.23
307.503	-23.02
307.717	-49.02
307.932	-56.98
308.147	-61.36
308.361	-27.3
308.576	-39.49
308.79	-69.04
309.005	-45.78
309.219	-22.82
309.434	-36.26
309.648	-30.01
309.863	-12.3
310.077	-14.65
310.292	-14.09
310.506	-16.96
310.72	2.47
310.935	27.92
311.149	19.93
311.364	36.43
311.578	54.85
311.792	43.91
312.007	42.78
312.221	21.14
312.435	17.58
312.649	1.61
312.864	47.27
313.078	43.79
313.292	126.72
313.507	116.47
313.721	133.45
313.935	49.81
314.149	28.15
314.363	9.7
314.578	10.01
314.792	4.28
315.006	-11.83
315.22	9.62
315.434	13.76
315.648	18.41
315.862	19.41
316.077	29.42
316.291	-4.73
316.505	-7.31
316.719	-19.23
316.933	-28.05
317.147	-40.3
317.361	-54.8
317.575	-85.54
317.789	-119.49
318.003	-179.68
318.217	-137.29
318.431	-65.34
318.645	-7.98
318.859	-13.02
319.073	21.68
319.287	15.87
319.5	-2.12
319.714	-45.78
319.928	-56.57
320.142	-106.26
320.356	-58.23
320.57	-29.68
320.784	-51.04
320.997	-35.81
321.211	-19.22
321.425	-83.9
321.639	-98.56
321.853	-20.3
322.066	-15.95
322.28	-22.33
322.494	4.13
322.707	16.23
322.921	-12.08
323.135	-12.61
323.349	5.57
323.562	-31.34
323.776	-49.81
323.989	-41.3
324.203	-59.87
324.417	-72.5
324.63	-87.57
324.844	-89.89
325.057	-92.15
325.271	-59.18
325.485	-15.79
325.698	27.74
325.912	45.87
326.125	22.12
326.339	23.74
326.552	7.71
326.766	-5.5
326.979	0.74
327.193	35.1
327.406	6.55
327.619	1.14
327.833	17.4
328.046	-15
328.26	-34.26
328.473	-6.73
328.686	-42.95
328.9	-54.77
329.113	-23.85
329.326	-55.17
329.54	-23.4
329.753	-21.96
329.966	-50.82
330.179	-47.37
330.393	-27.15
330.606	-29.46
330.819	-7.52
331.032	17.9
331.246	20.82
331.459	53.9
331.672	33.41
331.885	29.55
332.098	-4.13
332.311	-24.19
332.525	-87.06
332.738	-37.45
332.951	-7.01
333.164	27.53
333.377	48.09
333.59	50.84
333.803	44.24
334.016	25.32
334.229	10.67
334.442	8.52
334.655	35.03
334.868	33.87
335.081	22.8
335.294	9.78
335.507	0.55
335.72	-31.18
335.933	-48.35
336.146	-51.59
336.359	-42.26
336.572	-72.03
336.785	-71.63
336.997	-53.03
337.21	-30.11
337.423	-42.56
337.636	-34.14
337.849	-21.41
338.062	-32.5
338.274	-33.15
338.487	-34.2
338.7	-37.48
338.913	-85.11
339.125	-109.81
339.338	-160.49
339.551	-123.04
339.763	-66.52
339.976	-26.28
340.189	-1.03
340.402	10.79
340.614	-2.1
340.827	-17.77
341.039	-36.21
341.252	-36.38
341.465	-11.32
341.677	-11.07
341.89	-43.46
342.102	8.14
342.315	-10.32
342.527	-60.7
342.74	-56.6
342.952	-16.47
343.165	-36.7
343.377	2.61
343.59	14.71
343.802	38.95
344.015	44.21
344.227	62.4
344.44	32.49
344.652	26.95
344.864	-4.16
345.077	15.26
345.289	7.49
345.502	19.48
345.714	12.82
345.926	31.19
346.139	10.48
346.351	16.72
346.563	22.73
346.775	25.63
346.988	4.96
347.2	1.08
347.412	-34.19
347.624	-72.89
347.837	-85.46
348.049	-66.84
348.261	-19.1
348.473	-4.88
348.685	-3.89
348.897	-5.09
349.11	-24.36
349.322	-69.22
349.534	-55.13
349.746	-42.74
349.958	-30.73
350.17	-30.43
350.382	-10.76
350.594	-24.65
350.806	-21.48
351.018	-24.32
351.23	-39.17
351.442	-77.53
351.654	-82.38
351.866	-59.69
352.078	-48.17
352.29	-18.68
352.502	4.53
352.714	14.45
352.926	-1.93
353.138	-4
353.35	-3.91
353.561	-12.31
353.773	-26.92
353.985	-15.73
354.197	-30.51
354.409	-40.6
354.621	-48.61
354.832	-39.94
355.044	-49.71
355.256	-31.62
355.468	-13.52
355.679	-14.06
355.891	-3.35
356.103	-22.09
356.314	-29.24
356.526	-40.82
356.738	-26.76
356.949	-48.6
357.161	-20.65
357.373	-18.07
357.584	-23.83
357.796	0.53
358.008	3.17
358.219	31.34
358.431	30.18
358.642	35.01
358.854	18.01
359.065	5.99
359.277	-32.24
359.488	-36.4
359.7	-48.35
359.911	-58.64
360.123	-30.37
360.334	-39.26
360.546	-49.26
360.757	-51.76
360.969	-31.62
361.18	-37.22
361.391	-11.79
361.603	-22.31
361.814	-24.27
362.025	-28
362.237	-19.63
362.448	-12.17
362.659	18.81
362.871	20.97
363.082	17.79
363.293	7.47
363.504	-9.74
363.716	-39.49
363.927	-52.54
364.138	-79.57
364.349	-97.15
364.56	-90.71
364.772	-86.87
364.983	-48.26
365.194	-41.34
365.405	-14.05
365.616	13.46
365.827	18.28
366.038	-1.12
366.25	-5.23
366.461	-49.86
366.672	-35.71
366.883	-10.21
367.094	-0.28
367.305	-9.33
367.516	5.89
367.727	-20.42
367.938	-35.99
368.149	-47.32
368.36	-25.45
368.571	-20.29
368.781	-38.21
368.992	-50.04
369.203	-60.54
369.414	-90.8
369.625	-96.68
369.836	-72.4
370.047	-88.12
370.258	-69.44
370.468	-63.9
370.679	-81.28
370.89	-83.33
371.101	-60.9
371.312	-64.98
371.522	-64.6
371.733	-53.61
371.944	-39.8
372.155	-34.17
372.365	-50.75
372.576	-54.05
372.787	-45.52
372.997	-75.95
373.208	-77.74
373.419	-41.73
373.629	-60.06
373.84	-64.64
374.05	-65.66
374.261	-42.62
374.472	-69.39
374.682	-11.05
374.893	-13.22
375.103	22.99
375.314	14.41
375.524	21.13
375.735	13.07
375.945	24.14
376.156	-5.62
376.366	-6.89
376.577	-5.16
376.787	-20.24
376.997	-15.63
377.208	-9.61
377.418	-24.43
377.629	-12.55
377.839	-9.8
378.049	-19.14
378.26	-0.58
378.47	16.54
378.68	-0.9
378.89	1.42
379.101	-1.38
379.311	-31.03
379.521	-60.51
379.732	-47.69
379.942	-45.9
380.152	-60.18
380.362	-35.95
380.572	-19.91
380.783	-4.72
380.993	2.31
381.203	17.06
381.413	27.27
381.623	18.32
381.833	13.6
382.043	-6.39
382.253	-17.02
382.463	-13.13
382.674	-20.81
382.884	-49.66
383.094	-37.84
383.304	-29.01
383.514	-26.77
383.724	-11.59
383.934	-3.05
384.144	-13.35
384.353	-17.58
384.563	-23.69
384.773	-20.86
384.983	-32.07
385.193	-7.7
385.403	-9.46
385.613	-14.13
385.823	-29.32
386.033	-13.64
386.242	-29.1
386.452	-27.81
386.662	-30.71
386.872	-11.41
387.082	-15.46
387.291	-17.77
387.501	-8.79
387.711	2.04
387.921	-15.59
388.13	-15.74
388.34	0.51
388.55	-13.54
388.759	-16.87
388.969	-6.54
389.179	-9.16
389.388	-17.66
389.598	-4.93
389.807	-12.25
390.017	-16.53
390.227	-15.13
390.436	-14.82
390.646	-16.53
390.855	-10.18
391.065	-11.62
391.274	-13.98
391.484	-14.36
391.693	-9.55
391.903	-9.4
392.112	-3.62
392.322	3.29
392.531	7.89
392.74	5.31
392.95	2.56
393.159	0.31
393.369	-2.8
393.578	-4.35
393.787	-4.48
393.997	-2.15
394.206	-3.97
394.415	-3.87
394.625	-4.09
394.834	-5.58
395.043	-5.15
395.252	-1.76
395.462	0.62
395.671	2.97
395.88	3.66
396.089	4.56
396.298	1.56
396.508	1.48
396.717	-0.07
396.926	0.73
397.135	-0.25
397.344	0.54
397.553	1.03
397.762	3.13
397.971	2.89
398.181	3.44
398.39	2.84
398.599	2.39
398.808	1.35
399.017	2.07
399.226	3.26
399.435	4.65
399.644	4.53
399.853	3.63
400.062	3
400.27	1.9
400.479	1.09
400.688	0.6
400.897	1.21
401.106	1.6
401.315	1.71
401.524	1.98
401.733	2.49
401.941	2.57
402.15	2.88
402.359	2.71
402.568	3.12
402.777	3.11
402.985	3.08
403.194	2.64
403.403	2.92
403.612	2.46
403.82	2.36
404.029	2.54
404.238	2.46
404.446	2.66
404.655	2.47
404.864	2.41
405.072	2.06
405.281	2.61
405.489	2.04
405.698	2.2
405.906	2.16
406.115	2.28
406.324	1.93
406.532	2.36
406.741	2.61
406.949	2.71
407.158	2.72
407.366	2.64
407.574	2.57
407.783	2.54
407.991	2.4
408.2	2.5
408.408	2.54
408.617	2.43
408.825	2.31
409.033	2.37
409.242	2.43
409.45	2.43
409.658	2.37
409.867	2.49
410.075	2.34
410.283	2.16
410.491	2.21
410.7	2.19
410.908	2.22
411.116	2.64
411.324	2.66
411.533	2.55
411.741	2.83
411.949	2.79
412.157	2.44
412.365	2.55
412.573	2.58
412.781	2.5
412.99	2.33
413.198	2.57
413.406	2.47
413.614	2.53
413.822	2.26
414.03	2.27
414.238	1.99
414.446	2.11
414.654	1.87
414.862	2.07
415.07	2.21
415.278	2.41
415.486	2.15
415.694	2.24
415.902	2.1
416.109	1.93
416.317	1.89
416.525	1.79
416.733	1.89
416.941	2.12
417.149	2.02
417.357	1.99
417.564	2.29
417.772	2.42
417.98	2.3
418.188	2.4
418.395	2.43
418.603	2.56
418.811	2.11
419.019	2.07
419.226	2.26
419.434	2.53
419.642	2.15
419.849	2.52
420.057	2.56
420.265	2.41
420.472	1.92
420.68	2
420.887	1.77
421.095	1.89
421.302	1.88
421.51	2.13
421.717	2.22
421.925	2.41
422.132	2.12
422.34	1.97
422.547	2.01
422.755	1.88
422.962	1.67
423.17	1.64
423.377	1.73
423.585	1.68
423.792	1.63
423.999	1.75
424.207	1.75
424.414	2
424.621	1.94
424.829	1.92
425.036	1.9
425.243	2.01
425.451	1.65
425.658	1.37
425.865	1.61
426.072	1.62
426.28	1.8
426.487	1.79
426.694	2.12
426.901	2.02
427.108	1.95
427.315	1.83
427.523	2.17
427.73	1.97
427.937	1.93
428.144	1.93
428.351	1.93
428.558	1.93
428.765	1.97
428.972	1.98
429.179	2.11
429.386	2.28
429.593	2.06
429.8	1.99
430.007	2.04
430.214	2.16
430.421	1.95
430.628	1.91
430.835	1.86
431.042	2.07
431.249	1.92
431.456	2.04
431.662	2.19
431.869	2.42
432.076	2.42
432.283	2.63
432.49	2.57
432.697	2.56
432.903	2.4
433.11	2.25
433.317	2.22
433.524	2.48
433.73	2.52
433.937	2.74
434.144	2.61
434.35	2.55
434.557	2.37
434.764	2.31
434.97	2.22
435.177	2.42
435.384	2.28
435.59	2.42
435.797	2.68
436.003	2.76
436.21	2.73
436.416	2.9
436.623	2.79
436.829	2.8
437.036	2.83
437.242	2.88
437.449	2.83
437.655	2.83
437.862	2.68
438.068	2.61
438.275	2.77
438.481	2.98
438.687	3
438.894	3.02
439.1	3.08
439.307	3.19
439.513	3.06
439.719	3.11
439.926	3.33
440.132	3.37
440.338	3.14
440.544	3.26
440.751	3.13
440.957	3.11
441.163	2.98
441.369	3.13
441.575	2.93
441.782	3.07
441.988	2.94
442.194	2.95
442.4	2.89
442.606	3.19
442.812	3.17
443.018	3.25
443.224	3.39
443.431	3.55
443.637	3.33
443.843	3.32
444.049	3.31
444.255	3.35
444.461	3.31
444.667	3.3
444.873	3.45
445.079	3.47
445.284	3.49
445.49	3.3
445.696	3.23
445.902	3.05
446.108	3.08
446.314	3
446.52	3.1
446.726	3.33
446.931	3.33
447.137	3.31
447.343	3.32
447.549	3.23
447.755	3.1
447.96	3.22
448.166	3.2
448.372	3.18
448.578	3.24
448.783	3.28
448.989	3.37
449.195	3.56
449.4	3.58
449.606	3.57
449.812	3.44
450.017	3.46
450.223	3.34
450.428	3.27
450.634	3.54
450.84	3.75
451.045	3.67
451.251	3.62
451.456	3.94
451.662	3.93
451.867	4.01
452.073	4.04
452.278	4.14
452.483	4.16
452.689	3.99
452.894	3.96
453.1	4
453.305	3.88
453.51	3.7
453.716	3.72
453.921	3.74
454.127	3.69
454.332	3.73
454.537	3.74
454.742	3.75
454.948	3.67
455.153	3.77
455.358	3.89
455.563	4.07
455.769	4.24
455.974	4.25
456.179	4.06
456.384	4.06
456.589	3.97
456.795	3.7
457	3.7
457.205	3.97
457.41	3.87
457.615	3.86
457.82	4.06
458.025	4.11
458.23	3.95
458.435	4.07
458.64	3.93
458.845	4.02
459.05	4
459.255	4.06
459.46	4.05
459.665	4.21
459.87	4.2
460.075	4.15
460.28	4.17
460.485	4.31
460.69	4.3
460.895	4.13
461.099	4.15
461.304	4.23
461.509	4.14
461.714	4.07
461.919	4.27
462.123	4.18
462.328	4.28
462.533	4.16
462.738	4.32
462.942	4.18
463.147	4.33
463.352	4.27
463.556	4.35
463.761	4.36
463.966	4.45
464.17	4.43
464.375	4.41
464.58	4.36
464.784	4.31
464.989	4.25
465.193	4.31
465.398	4.29
465.602	4.45
465.807	4.47
466.011	4.52
466.216	4.54
466.42	4.62
466.625	4.65
466.829	4.7
467.034	4.78
467.238	4.96
467.443	4.85
467.647	4.69
467.851	4.76
468.056	4.88
468.26	4.74
468.464	4.83
468.669	5.05
468.873	5.15
469.077	5.03
469.282	5.16
469.486	5.27
469.69	5.2
469.894	5.05
470.099	5.13
470.303	5.19
470.507	4.98
470.711	4.93
470.915	4.94
471.119	4.82
471.324	4.73
471.528	4.83
471.732	4.91
471.936	4.93
472.14	5.1
472.344	5.09
472.548	5.22
472.752	5.38
472.956	5.64
473.16	5.56
473.364	5.5
473.568	5.46
473.772	5.44
473.976	5.22
474.18	5.16
474.384	5.27
474.588	5.2
474.792	5.08
474.995	5.22
475.199	5.35
475.403	5.41
475.607	5.45
475.811	5.44
476.015	5.4
476.218	5.44
476.422	5.33
476.626	5.45
476.83	5.54
477.033	5.5
477.237	5.41
477.441	5.51
477.644	5.42
477.848	5.45
478.052	5.4
478.255	5.4
478.459	5.34
478.663	5.45
478.866	5.4
479.07	5.47
479.273	5.69
479.477	5.77
479.681	5.75
479.884	5.75
480.088	5.6
480.291	5.48
480.495	5.43
480.698	5.43
480.901	5.5
481.105	5.76
481.308	5.76
481.512	5.73
481.715	5.76
481.919	5.76
482.122	5.72
482.325	5.73
482.529	5.76
482.732	5.79
482.935	5.74
483.138	5.61
483.342	5.7
483.545	5.81
483.748	5.82
483.952	5.88
484.155	6.07
484.358	6.01
484.561	5.91
484.764	5.86
484.967	5.95
485.171	5.98
485.374	5.95
485.577	6.03
485.78	6.09
485.983	6.12
486.186	5.98
486.389	5.97
486.592	5.98
486.795	5.97
486.998	5.85
487.201	5.97
487.404	6.07
487.607	6.18
487.81	6.17
488.013	6.21
488.216	6.14
488.419	6.09
488.622	5.97
488.825	5.94
489.028	5.89
489.231	5.84
489.433	5.75
489.636	5.72
489.839	5.75
490.042	5.68
490.245	5.7
490.447	5.8
490.65	5.79
490.853	5.79
491.056	5.87
491.258	5.92
491.461	5.92
491.664	6.01
491.866	5.94
492.069	6.07
492.272	5.98
492.474	6.02
492.677	6.06
492.879	6.15
493.082	6.15
493.285	6.36
493.487	6.29
493.69	6.15
493.892	6.03
494.095	5.93
494.297	5.82
494.5	5.84
494.702	5.94
494.905	6.05
495.107	6.06
495.309	6.08
495.512	6.1
495.714	6.07
495.917	6.09
496.119	6.08
496.321	6.11
496.524	6.13
496.726	6.16
496.928	6.22
497.13	6.16
497.333	6.12
497.535	6.14
497.737	6.11
497.939	6.06
498.142	6.16
498.344	6.11
498.546	5.99
498.748	6.07
498.95	6.14
499.152	6.12
499.355	6.18
499.557	6.29
499.759	6.29
499.961	6.21
500.163	6.25
500.365	6.26
500.567	6.4
500.769	6.32
500.971	6.37
501.173	6.28
501.375	6.33
501.577	6.11
501.779	6.06
501.981	5.99
502.183	6.03
502.385	5.95
502.587	5.95
502.788	6.05
502.99	6.13
503.192	6.18
503.394	6.2
503.596	6.3
503.798	6.33
503.999	6.37
504.201	6.37
504.403	6.43
504.605	6.4
504.806	6.29
505.008	6.18
505.21	6.21
505.411	6.21
505.613	6.21
505.815	6.27
506.016	6.4
506.218	6.5
506.42	6.45
506.621	6.54
506.823	6.59
507.024	6.52
507.226	6.42
507.427	6.38
507.629	6.4
507.83	6.4
508.032	6.4
508.233	6.5
508.435	6.57
508.636	6.62
508.838	6.54
509.039	6.59
509.24	6.55
509.442	6.57
509.643	6.4
509.845	6.5
510.046	6.56
510.247	6.57
510.448	6.59
510.65	6.73
510.851	6.85
511.052	6.83
511.254	6.79
511.455	6.92
511.656	7.01
511.857	7
512.058	7.02
512.26	7.07
512.461	6.97
512.662	6.96
512.863	6.83
513.064	6.81
513.265	6.83
513.466	6.81
513.667	6.77
513.868	6.8
514.069	6.92
514.27	6.95
514.471	6.93
514.672	6.96
514.873	6.98
515.074	6.91
515.275	6.77
515.476	6.76
515.677	6.72
515.878	6.8
516.079	6.74
516.28	6.83
516.481	7.01
516.682	7.03
516.882	6.93
517.083	6.95
517.284	6.88
517.485	6.77
517.686	6.74
517.886	6.74
518.087	6.81
518.288	6.86
518.488	6.78
518.689	6.84
518.89	6.79
519.091	6.77
519.291	6.76
519.492	6.86
519.692	6.81
519.893	6.92
520.094	6.9
520.294	6.87
520.495	6.81
520.695	6.87
520.896	6.8
521.096	6.84
521.297	6.9
521.497	6.9
521.698	6.77
521.898	6.8
522.099	6.77
522.299	6.81
522.499	6.88
522.7	6.97
522.9	6.93
523.101	6.96
523.301	6.95
523.501	6.9
523.702	6.86
523.902	6.97
524.102	7.01
524.302	6.96
524.503	7.01
524.703	7.02
524.903	7.05
525.103	7
525.304	7.06
525.504	7.08
525.704	7.14
525.904	7.06
526.104	7.06
526.304	7.03
526.504	7.07
526.705	7.03
526.905	7.14
527.105	7.15
527.305	7.14
527.505	7.03
527.705	6.98
527.905	6.94
528.105	6.9
528.305	6.84
528.505	6.88
528.705	6.98
528.905	6.91
529.105	6.93
529.304	7.01
529.504	7.13
529.704	7.03
529.904	7.05
530.104	7.07
530.304	7.14
530.503	7.02
530.703	7
530.903	7
531.103	7.03
531.303	6.94
531.502	7
531.702	7.13
531.902	7.16
532.101	7.08
532.301	7.13
532.501	7.11
532.7	7.05
532.9	7.06
533.1	7.08
533.299	7.03
533.499	7.01
533.698	7
533.898	6.97
534.097	7
534.297	7.09
534.496	7.06
534.696	7.08
534.895	7.25
535.095	7.3
535.294	7.22
535.494	7.19
535.693	7.18
535.892	7.12
536.092	7.03
536.291	7.05
536.491	7.18
536.69	7.25
536.889	7.17
537.088	7.17
537.288	7.22
537.487	7.18
537.686	7.18
537.886	7.2
538.085	7.28
538.284	7.37
538.483	7.36
538.682	7.43
538.882	7.46
539.081	7.5
539.28	7.39
539.479	7.45
539.678	7.4
539.877	7.5
540.076	7.51
540.275	7.54
540.474	7.61
540.673	7.66
540.872	7.6
541.071	7.6
541.27	7.63
541.469	7.65
541.668	7.6
541.867	7.62
542.066	7.66
542.265	7.71
542.464	7.62
542.663	7.64
542.862	7.78
543.06	7.79
543.259	7.79
543.458	7.92
543.657	7.98
543.856	7.98
544.054	7.96
544.253	7.93
544.452	7.86
544.651	7.91
544.849	7.83
545.048	7.9
545.247	7.93
545.445	8.01
545.644	8
545.843	8.01
546.041	8.04
546.24	8.16
546.438	8.26
546.637	8.27
546.836	8.42
547.034	8.47
547.233	8.44
547.431	8.39
547.63	8.37
547.828	8.37
548.027	8.36
548.225	8.41
548.423	8.45
548.622	8.55
548.82	8.49
549.019	8.49
549.217	8.59
549.415	8.63
549.614	8.73
549.812	8.75
550.01	8.8
550.209	8.79
550.407	8.8
550.605	8.77
550.803	8.89
551.002	8.97
551.2	9.03
551.398	9.13
551.596	9.27
551.794	9.38
551.993	9.4
552.191	9.42
552.389	9.53
552.587	9.55
552.785	9.53
552.983	9.6
553.181	9.69
553.379	9.68
553.577	9.7
553.775	9.85
553.973	9.94
554.171	9.99
554.369	10.04
554.567	10.09
554.765	10.09
554.963	10.18
555.161	10.18
555.359	10.23
555.557	10.36
555.755	10.46
555.952	10.52
556.15	10.57
556.348	10.68
556.546	10.77
556.744	10.77
556.941	10.83
557.139	10.89
557.337	10.91
557.535	10.87
557.732	10.96
557.93	11.1
558.128	11.22
558.325	11.32
558.523	11.33
558.721	11.41
558.918	11.37
559.116	11.43
559.313	11.39
559.511	11.63
559.708	11.68
559.906	11.72
560.104	11.77
560.301	11.92
560.498	11.9
560.696	11.92
560.893	12.04
561.091	12.12
561.288	12.24
561.486	12.33
561.683	12.44
561.88	12.53
562.078	12.6
562.275	12.59
562.473	12.69
562.67	12.79
562.867	12.88
563.064	13.01
563.262	13.06
563.459	13.1
563.656	13.23
563.853	13.24
564.051	13.25
564.248	13.38
564.445	13.46
564.642	13.53
564.839	13.61
565.036	13.75
565.234	13.95
565.431	14
565.628	14.07
565.825	14.21
566.022	14.27
566.219	14.28
566.416	14.27
566.613	14.33
566.81	14.37
567.007	14.34
567.204	14.29
567.401	14.42
567.598	14.41
567.795	14.41
567.991	14.48
568.188	14.6
568.385	14.64
568.582	14.69
568.779	14.87
568.976	14.98
569.172	15.08
569.369	15.07
569.566	15.16
569.763	15.19
569.96	15.14
570.156	15.07
570.353	15.16
570.55	15.2
570.746	15.17
570.943	15.2
571.14	15.24
571.336	15.25
571.533	15.24
571.729	15.24
571.926	15.35
572.123	15.49
572.319	15.5
572.516	15.57
572.712	15.68
572.909	15.68
573.105	15.76
573.302	15.88
573.498	15.97
573.695	15.89
573.891	15.94
574.087	15.93
574.284	15.85
574.48	15.78
574.677	15.89
574.873	15.87
575.069	15.9
575.266	15.95
575.462	15.9
575.658	15.92
575.854	16.17
576.051	16.1
576.247	16.11
576.443	16.19
576.639	16.19
576.835	15.94
577.032	15.95
577.228	16.07
577.424	16.1
577.62	16.01
577.816	16.1
578.012	16.09
578.208	16.01
578.404	16.01
578.6	16.15
578.796	16.18
578.993	16.16
579.189	16.12
579.384	16.04
579.58	15.87
579.776	15.85
579.972	15.85
580.168	15.83
580.364	15.88
580.56	15.96
580.756	15.93
580.952	15.89
581.148	15.94
581.343	15.97
581.539	15.95
581.735	15.97
581.931	16.02
582.127	16.07
582.322	15.98
582.518	16.05
582.714	16.07
582.909	15.98
583.105	15.92
583.301	15.92
583.496	15.92
583.692	15.82
583.888	15.87
584.083	15.92
584.279	15.9
584.474	15.91
584.67	15.98
584.866	16.01
585.061	15.78
585.257	15.93
585.452	15.9
585.648	15.81
585.843	15.8
586.039	16.01
586.234	15.91
586.429	15.81
586.625	15.87
586.82	15.79
587.015	15.79
587.211	15.71
587.406	15.82
587.601	15.77
587.797	15.8
587.992	15.71
588.187	15.87
588.383	15.78
588.578	15.76
588.773	15.85
588.968	15.97
589.163	15.96
589.359	15.97
589.554	16
589.749	15.96
589.944	15.98
590.139	15.9
590.334	16
590.529	16.03
590.724	16.06
590.919	16.1
591.114	16.17
591.309	16.23
591.504	16.35
591.699	16.33
591.894	16.43
592.089	16.44
592.284	16.41
592.479	16.53
592.674	16.58
592.869	16.52
593.064	16.68
593.259	16.82
593.454	16.86
593.648	16.94
593.843	16.9
594.038	16.9
594.233	16.82
594.428	16.75
594.622	16.82
594.817	17.02
595.012	17.04
595.206	17.11
595.401	17.18
595.596	17.22
595.79	17.24
595.985	17.34
596.18	17.44
596.374	17.54
596.569	17.59
596.763	17.61
596.958	17.67
597.153	17.77
597.347	17.8
597.542	17.91
597.736	17.96
597.931	17.98
598.125	17.96
598.319	18.04
598.514	17.98
598.708	18.11
598.903	18.14
599.097	18.24
599.291	18.23
599.486	18.27
599.68	18.24
599.874	18.33
600.069	18.29
600.263	18.31
600.457	18.45
600.651	18.52
600.846	18.54
601.04	18.63
601.234	18.67
601.428	18.71
601.622	18.72
601.817	18.76
602.011	18.78
602.205	18.83
602.399	18.75
602.593	18.71
602.787	18.76
602.981	18.78
603.175	18.82
603.369	18.88
603.563	19.02
603.757	19.04
603.951	19.03
604.145	19.06
604.339	19.09
604.533	18.9
604.727	18.81
604.921	18.8
605.115	18.74
605.309	18.82
605.502	18.94
605.696	18.92
605.89	18.94
606.084	18.87
606.278	18.76
606.471	18.66
606.665	18.65
606.859	18.48
607.053	18.47
607.246	18.43
607.44	18.43
607.634	18.34
607.827	18.42
608.021	18.42
608.214	18.4
608.408	18.32
608.602	18.31
608.795	18.18
608.989	18.13
609.182	18.02
609.376	18.05
609.569	17.98
609.763	17.92
609.956	17.79
610.15	17.7
610.343	17.63
610.537	17.59
610.73	17.63
610.923	17.68
611.117	17.7
611.31	17.59
611.504	17.56
611.697	17.51
611.89	17.41
612.083	17.39
612.277	17.45
612.47	17.39
612.663	17.29
612.856	17.18
613.05	17.03
613.243	16.9
613.436	16.69
613.629	16.61
613.822	16.65
614.015	16.6
614.209	16.44
614.402	16.61
614.595	16.59
614.788	16.53
614.981	16.39
615.174	16.32
615.367	16.17
615.56	16.04
615.753	15.92
615.946	15.86
616.139	15.98
616.332	16.11
616.525	16.14
616.718	16.2
616.911	16.28
617.103	16.24
617.296	16.13
617.489	16.15
617.682	16.01
617.875	16
618.067	15.86
618.26	15.73
618.453	15.66
618.646	15.77
618.838	15.79
619.031	15.92
619.224	15.93
619.417	15.87
619.609	15.81
619.802	15.74
619.994	15.65
620.187	15.67
620.38	15.63
620.572	15.45
620.765	15.47
620.957	15.39
621.15	15.2
621.342	15.16
621.535	15.28
621.727	15.15
621.92	15.09
622.112	15.11
622.305	15.25
622.497	15.16
622.69	15.14
622.882	15.12
623.074	15.17
623.267	15.01
623.459	14.95
623.651	14.96
623.844	15.09
624.036	15.05
624.228	14.99
624.42	14.99
624.613	15.11
624.805	15.01
624.997	15
625.189	15.1
625.381	15.06
625.574	14.94
625.766	14.77
625.958	14.76
626.15	14.78
626.342	14.78
626.534	14.72
626.726	14.79
626.918	14.79
627.11	14.63
627.302	14.69
627.494	14.65
627.686	14.62
627.878	14.55
628.07	14.56
628.262	14.45
628.454	14.47
628.646	14.47
628.838	14.52
629.029	14.4
629.221	14.49
629.413	14.44
629.605	14.33
629.797	14.3
629.989	14.37
630.18	14.3
630.372	14.24
630.564	14.26
630.755	14.22
630.947	14.23
631.139	14.07
631.33	14.06
631.522	14.16
631.714	14.15
631.905	14.11
632.097	14.11
632.289	14.09
632.48	13.96
632.672	13.85
632.863	13.74
633.055	13.79
633.246	13.77
633.438	13.71
633.629	13.75
633.821	13.79
634.012	13.71
634.203	13.64
634.395	13.7
634.586	13.69
634.777	13.61
634.969	13.66
635.16	13.74
635.351	13.62
635.543	13.63
635.734	13.62
635.925	13.59
636.117	13.62
636.308	13.63
636.499	13.54
636.69	13.54
636.881	13.48
637.073	13.57
637.264	13.55
637.455	13.55
637.646	13.63
637.837	13.66
638.028	13.52
638.219	13.61
638.41	13.55
638.601	13.41
638.792	13.42
638.983	13.33
639.174	13.22
639.365	13.31
639.556	13.32
639.747	13.28
639.938	13.38
640.129	13.33
640.32	13.16
640.511	13.22
640.701	13.24
640.892	13.15
641.083	13.26
641.274	13.32
641.465	13.13
641.655	13.05
641.846	13.09
642.037	12.89
642.228	12.84
642.418	12.98
642.609	12.97
642.8	12.97
642.99	12.96
643.181	13.06
643.372	13.08
643.562	13.04
643.753	12.84
643.943	12.86
644.134	12.65
644.324	12.54
644.515	12.6
644.705	12.69
644.896	12.69
645.086	12.77
645.277	12.72
645.467	12.69
645.658	12.65
645.848	12.64
646.038	12.66
646.229	12.65
646.419	12.54
646.61	12.57
646.8	12.55
646.99	12.45
647.18	12.37
647.371	12.4
647.561	12.32
647.751	12.26
647.941	12.2
648.132	12.27
648.322	12.28
648.512	12.38
648.702	12.45
648.892	12.55
649.082	12.56
649.272	12.44
649.462	12.35
649.653	12.29
649.843	12.24
650.033	12.23
650.223	12.28
650.413	12.25
650.603	12.27
650.793	12.24
650.983	12.18
651.172	12.04
651.362	11.96
651.552	11.87
651.742	11.82
651.932	11.86
652.122	11.94
652.312	12.06
652.502	12.02
652.691	12.03
652.881	11.96
653.071	11.84
653.261	11.67
653.45	11.56
653.64	11.54
653.83	11.44
654.019	11.45
654.209	11.4
654.399	11.45
654.588	11.39
654.778	11.29
654.968	11.18
655.157	11.16
655.347	11.02
655.536	10.88
655.726	10.81
655.915	10.73
656.105	10.65
656.294	10.57
656.484	10.41
656.673	10.37
656.863	10.35
657.052	10.16
657.241	10
657.431	9.82
657.62	9.66
657.809	9.43
657.999	9.36
658.188	9.25
658.377	9.22
658.567	9.14
658.756	9.08
658.945	8.99
659.134	8.94
659.324	8.9
659.513	8.86
659.702	8.7
659.891	8.68
660.08	8.57
660.269	8.52
660.458	8.39
660.648	8.32
660.837	8.14
661.026	8.2
661.215	8.1
661.404	7.96
661.593	7.94
661.782	7.82
661.971	7.69
662.16	7.59
662.349	7.57
662.538	7.43
662.726	7.51
662.915	7.41
663.104	7.37
663.293	7.41
663.482	7.56
663.671	7.43
663.86	7.28
664.048	7.24
664.237	7.2
664.426	6.95
664.615	6.91
664.803	6.98
664.992	6.94
665.181	6.75
665.369	6.7
665.558	6.66
665.747	6.66
665.935	6.71
666.124	6.83
666.312	6.96
666.501	6.96
666.69	6.9
666.878	6.82
667.067	6.76
667.255	6.87
667.444	7.21
667.632	7.23
667.82	7.39
668.009	7.4
668.197	7.27
668.386	7.02
668.574	7.16
668.762	7.05
668.951	6.99
669.139	6.98
669.327	6.9
669.516	6.96
669.704	6.93
669.892	7.17
670.08	7.25
670.269	7.2
670.457	7.07
670.645	7.06
670.833	7.02
671.021	6.97
671.21	7.18
671.398	7.34
671.586	7.38
671.774	7.31
671.962	7.36
672.15	7.34
672.338	7.25
672.526	7.32
672.714	7.26
672.902	7.33
673.09	7.48
673.278	7.72
673.466	7.76
673.654	7.98
673.842	8.07
674.03	8.08
674.218	7.9
674.405	8.04
674.593	7.9
674.781	7.98
674.969	7.99
675.157	8.17
675.344	8.15
675.532	8.36
675.72	8.5
675.908	8.66
676.095	8.62
676.283	8.68
676.471	8.93
676.658	8.84
676.846	8.75
677.033	8.98
677.221	9.06
677.409	8.77
677.596	8.87
677.784	8.97
677.971	8.89
678.159	8.94
678.346	9.12
678.534	9.24
678.721	9.41
678.909	9.47
679.096	9.44
679.283	9.57
679.471	9.7
679.658	9.73
679.846	9.93
680.033	10.21
680.22	10.3
680.408	10.19
680.595	10.27
680.782	10.19
680.969	10.32
681.157	10.32
681.344	10.29
681.531	10.27
681.718	10.3
681.905	10.29
682.093	10.4
682.28	10.74
682.467	10.98
682.654	11.15
682.841	11.25
683.028	11.6
683.215	11.7
683.402	11.64
683.589	11.78
683.776	11.88
683.963	11.69
684.15	11.83
684.337	12.04
684.524	12.22
684.711	12.49
684.898	12.61
685.085	12.76
685.271	13.03
685.458	13.16
685.645	13.2
685.832	13.52
686.019	13.62
686.205	13.66
686.392	13.83
686.579	14.09
686.766	14.34
686.952	14.7
687.139	15.3
687.326	15.62
687.512	15.79
687.699	16.08
687.886	16.15
688.072	16.18
688.259	16.48
688.445	16.86
688.632	17.08
688.818	17.7
689.005	18.05
689.191	18.4
689.378	19.03
689.564	19.45
689.751	19.76
689.937	20.19
690.124	20.72
690.31	20.68
690.496	21.1
690.683	21.62
690.869	21.89
691.055	22.21
691.242	23.03
691.428	23.68
691.614	24.17
691.8	25.01
691.987	25.66
692.173	26.22
692.359	26.85
692.545	27.49
692.731	27.89
692.918	28.56
693.104	28.99
693.29	29.52
693.476	30.09
693.662	30.6
693.848	31.03
694.034	31.76
694.22	32.34
694.406	32.98
694.592	33.74
694.778	34.36
694.964	34.94
695.15	35.58
695.336	36.15
695.522	37.02
695.708	37.58
695.894	38.12
696.08	38.6
696.265	39.17
696.451	39.3
696.637	40.21
696.823	40.81
697.009	41.45
697.194	41.74
697.38	42.62
697.566	42.93
697.751	43.45
697.937	44.01
698.123	44.83
698.308	45.23
698.494	45.89
698.68	46.55
698.865	47.08
699.051	47.64
699.236	48.18
699.422	48.74
699.607	49.17
699.793	49.64
699.978	50.08
700.164	50.43
700.349	50.98
700.535	51.44
700.72	51.92
700.906	52.56
701.091	53.3
701.276	53.59
701.462	54.32
701.647	54.92
701.832	55.44
702.018	55.74
702.203	56.27
702.388	56.34
702.573	56.53
702.759	57.24
702.944	57.77
703.129	57.99
703.314	58.44
703.499	59.06
703.684	59
703.87	59.75
704.055	60.6
704.24	61.03
704.425	61.42
704.61	61.9
704.795	61.88
704.98	61.98
705.165	62.11
705.35	62.46
705.535	62.69
705.72	62.91
705.905	63.24
706.09	63.86
706.275	64.05
706.459	64.15
706.644	64.52
706.829	64.87
707.014	65.02
707.199	65.31
707.384	65.91
707.568	66.07
707.753	66.83
707.938	67.23
708.123	67.38
708.307	67.31
708.492	67.47
708.677	67.01
708.861	66.89
709.046	66.87
709.231	67.22
709.415	67.7
709.6	67.71
709.784	67.96
709.969	68.43
710.153	68.53
710.338	68.56
710.522	68.94
710.707	69.33
710.891	69.53
711.076	69.87
711.26	69.9
711.445	70.09
711.629	70.33
711.813	70.51
711.998	70.72
712.182	70.7
712.366	71.41
712.551	72.06
712.735	72.04
712.919	71.81
713.103	72.24
713.288	71.37
713.472	70.97
713.656	71.58
713.84	71.88
714.024	71.91
714.208	72.26
714.393	72.46
714.577	72.46
714.761	72.69
714.945	72.95
715.129	73.09
715.313	73.07
715.497	72.83
715.681	73.39
715.865	73.29
716.049	73.51
716.233	73.56
716.417	74.25
716.601	73.83
716.785	74.03
716.968	74.2
717.152	74.63
717.336	74.7
717.52	74.78
717.704	75.18
717.888	75.34
718.071	75.43
718.255	75.25
718.439	75.2
718.622	75.22
718.806	75.62
718.99	74.98
719.174	75.09
719.357	75.24
719.541	75.23
719.724	75.1
719.908	76.51
720.092	76.82
720.275	77.11
720.459	77.5
720.642	77.23
720.826	76.34
721.009	76.01
721.193	75.46
721.376	75.25
721.559	75.75
721.743	76.17
721.926	76.41
722.11	77.04
722.293	76.76
722.476	76.17
722.66	76.03
722.843	75.75
723.026	75.8
723.21	76.09
723.393	77.14
723.576	77.32
723.759	77.05
723.942	76.73
724.126	76.59
724.309	76.12
724.492	75.91
724.675	75.9
724.858	76.8
725.041	77.26
725.224	77.2
725.407	77.27
725.59	78.16
725.774	77.37
725.957	76.61
726.14	76.72
726.322	77.18
726.505	76.44
726.688	76.99
726.871	76.8
727.054	77.12
727.237	76.5
727.42	77.18
727.603	77.03
727.786	78.05
727.968	78.23
728.151	78.58
728.334	78.23
728.517	78.23
728.699	78.45
728.882	78.03
729.065	78.49
729.248	79.23
729.43	79.35
729.613	80.02
729.796	80.57
729.978	79.84
730.161	79.46
730.343	79.28
730.526	79.16
730.708	78.23
730.891	78.61
731.073	78.47
731.256	78.41
731.438	77.87
731.621	78.97
731.803	78.92
731.986	79.29
732.168	79.44
732.35	79.47
732.533	78.78
732.715	79.23
732.898	79.19
733.08	79.46
733.262	79.85
733.444	80.24
733.627	79.71
733.809	80.16
733.991	81.18
734.173	80.18
734.355	80.2
734.538	80.92
734.72	80.04
734.902	79.59
735.084	80.68
735.266	80.73
735.448	81.09
735.63	81.85
735.812	81.8
735.994	82.72
736.176	83.51
736.358	82.86
736.54	83.38
736.722	82.79
736.904	81.42
737.086	80.85
737.268	82.09
737.45	81.89
737.632	82.16
737.814	81.51
737.995	81.82
738.177	81.3
738.359	80.23
738.541	80.43
738.723	81.52
738.904	81.42
739.086	81.04
739.268	81.62
739.449	82.35
739.631	81.97
739.813	82.31
739.994	82.85
740.176	83.68
740.358	82.93
740.539	84.51
740.721	84.88
740.902	85.18
741.084	84.47
741.265	84.34
741.447	84.11
741.628	84.34
741.81	83.35
741.991	84.43
742.172	86.19
742.354	85.75
742.535	84.51
742.717	85.24
742.898	85.12
743.079	85.24
743.261	85.11
743.442	85.48
743.623	86.46
743.804	87.04
743.986	86.41
744.167	85.17
744.348	84.59
744.529	84.17
744.71	82.49
744.891	81.9
745.073	82.17
745.254	82.02
745.435	80.98
745.616	80.53
745.797	80.19
745.978	79.94
746.159	80.65
746.34	79.57
746.521	82.35
746.702	82.03
746.883	82.69
747.064	82.06
747.245	83.22
747.426	80.59
747.606	80.31
747.787	81.04
747.968	81.44
748.149	82.72
748.33	83.86
748.51	84.17
748.691	83.25
748.872	84.56
749.053	82.39
749.233	81.9
749.414	82.09
749.595	81.79
749.775	79.93
749.956	80.05
750.137	80.47
750.317	81.72
750.498	84.24
750.678	85.07
750.859	86.12
751.04	85.83
751.22	84.81
751.4	83.33
751.581	81.91
751.761	83.14
751.942	84.46
752.122	84.25
752.303	83.44
752.483	83.84
752.663	82.4
752.844	81.55
753.024	81.62
753.204	82.04
753.385	81.35
753.565	81.77
753.745	82.53
753.925	82.62
754.106	82
754.286	82.56
754.466	81.41
754.646	80.41
754.826	79.51
755.006	79.58
755.187	81.17
755.367	82.02
755.547	81.94
755.727	84.7
755.907	85.02
756.087	85.63
756.267	85.17
756.447	85.82
756.627	81.7
756.807	82.64
756.987	81.21
757.167	81.35
757.346	80.08
757.526	81.4
757.706	81.23
757.886	81.84
758.066	82.6
758.246	84.98
758.425	85.13
758.605	84.05
758.785	84.54
758.965	84.88
759.144	82.29
759.324	82.69
759.504	83.05
759.683	81.94
759.863	80.04
760.043	78.78
760.222	79.51
760.402	78.13
760.581	78.3
760.761	81.14
760.94	82.11
761.12	82.91
761.299	84.31
761.479	84.32
761.658	82.3
761.838	81.85
762.017	80.64
762.197	81.2
762.376	80.17
762.555	81.69
762.735	83.03
762.914	81.23
763.093	81
763.273	81.27
763.452	79.74
763.631	78.64
763.81	78.67
763.99	78.81
764.169	79.36
764.348	77.92
764.527	78.45
764.706	81.5
764.885	82.62
765.064	80.91
765.243	82.66
765.423	83.24
765.602	80.85
765.781	77.35
765.96	76.64
766.139	74.7
766.318	75.89
766.497	75.67
766.676	76.68
766.854	79.25
767.033	79.87
767.212	77.67
767.391	78.31
767.57	80.57
767.749	80.63
767.928	82.97
768.106	82.78
768.285	81.09
768.464	79.55
768.643	78.98
768.821	76.59
769	78.66
769.179	79.06
769.357	77.48
769.536	74.96
769.715	76.12
769.893	75.93
770.072	74.95
770.25	76.36
770.429	79.5
770.607	79.25
770.786	77.82
770.964	79.85
771.143	77.61
771.321	78.17
771.5	77.52
771.678	76.99
771.857	75.47
772.035	77.6
772.213	75.91
772.392	74.98
772.57	76.99
772.748	78.74
772.927	77.16
773.105	76.64
773.283	78.44
773.461	77.85
773.64	78.78
773.818	80.1
773.996	80.63
774.174	79.46
774.352	77.28
774.531	72.73
774.709	75.18
774.887	74.84
775.065	72.67
775.243	72.45
775.421	75.55
775.599	74.95
775.777	71.88
775.955	73.12
776.133	72.9
776.311	73.25
776.489	69.46
776.667	72.15
776.844	74.17
777.022	73.71
777.2	72.85
777.378	74.95
777.556	75.35
777.734	77.23
777.911	79.74
778.089	78.06
778.267	78.19
778.445	75
778.622	70.93
778.8	69.65
778.978	72.32
779.155	69.2
779.333	71.25
779.511	73.44
779.688	75.11
779.866	71.28
780.043	70.43
780.221	70.79
780.398	67.4
780.576	66
780.753	68.57
780.931	70.4
781.108	69.1
781.286	71.12
781.463	68.66
781.64	65.2
781.818	66.85
781.995	68.7
782.172	67.9
782.35	70.27
782.527	75.82
782.704	73.13
782.882	74.86
783.059	73.33
783.236	74.98
783.413	72.94
783.59	75.06
783.768	70.73
783.945	75.58
784.122	74.05
784.299	75.15
784.476	72.45
784.653	72.33
784.83	68.59
785.007	63.05
785.184	61.3
785.361	60.95
785.538	67.97
785.715	67.72
785.892	70.68
786.069	72.42
786.246	75.93
786.423	70.31
786.6	71.72
786.776	76.85
786.953	75.82
787.13	76.1
787.307	76.02
787.484	75.2
787.66	71.27
787.837	71.07
788.014	66.86
788.191	67.46
788.367	63.13
788.544	66.31
788.721	63.82
788.897	66.66
789.074	67.88
789.25	71.61
789.427	68.06
789.603	69.85
789.78	72.78
789.956	70.92
790.133	69.3
790.309	73.75
790.486	78.05
790.662	72.11
790.839	71.53
791.015	74.22
791.192	68.06
791.368	66.34
791.544	66.7
791.721	68.55
791.897	63.87
792.073	63.55
792.249	55.44
792.426	58.26
792.602	60.08
792.778	62.79
792.954	63.33
793.13	64.03
793.307	58.02
793.483	48.15
793.659	48.08
793.835	50.49
794.011	53.84
794.187	52.65
794.363	55.48
794.539	59.32
794.715	55.31
794.891	54.24
795.067	59.64
795.243	68.96
795.419	64.92
795.595	65.53
795.771	66.68
795.947	64.77
796.122	57.23
796.298	63.04
796.474	68.59
796.65	68.76
796.826	64.06
797.001	61.79
797.177	54.86
797.353	55.02
797.529	59.23
797.704	64.46
797.88	65.77
798.056	64.04
798.231	58.88
798.407	57.63
798.582	57.49
798.758	62.41
798.934	71.43
799.109	73.14
799.285	67.16
799.46	69.44
799.636	67.21
799.811	58.71
799.986	62.18
800.162	64.34
800.337	62.99
800.513	58.44
800.688	58.81
800.863	63.88
801.039	58.45
801.214	51.93
801.389	58.05
801.565	57.4
801.74	44.05
801.915	55.62
802.09	65.94
802.265	68.61
802.441	66.25
802.616	71.15
802.791	65.91
802.966	64.02
803.141	61.6
803.316	60.81
803.491	64.23
803.666	71.26
803.841	65.19
804.016	56.76
804.191	63.52
804.366	57.97
804.541	53.21
804.716	51.62
804.891	51.18
805.066	60.18
805.241	58.81
805.416	57.58
805.591	58.68
805.765	64.06
805.94	55.52
806.115	54.47
806.29	47.26
806.464	49.53
806.639	42.82
806.814	33.59
806.989	28.64
807.163	47.41
807.338	46.93
807.512	50.41
807.687	44.8
807.862	63.55
808.036	60.74
808.211	61.42
808.385	70.25
808.56	84.23
808.734	77.16
808.909	61.38
809.083	55.74
809.258	54.34
809.432	59.6
809.606	42.18
809.781	44.14
809.955	51.7
810.13	48.47
810.304	38.75
810.478	42.68
810.652	49.19
810.827	49.54
811.001	44.52
811.175	40.44
811.349	41.03
811.524	34.36
811.698	27.34
811.872	27.47
812.046	41.27
812.22	56.36
812.394	57.71
812.568	62.53
812.742	65.37
812.916	59.1
813.09	42.77
813.264	39.61
813.438	49.82
813.612	50.19
813.786	43.8
813.96	53.21
814.134	57.43
814.308	54.07
814.482	54.64
814.656	52.98
814.83	60.16
815.003	69.15
815.177	63.33
815.351	59.04
815.525	61.28
815.698	56.31
815.872	39.5
816.046	26.65
816.219	31.47
816.393	43.45
816.567	44
816.74	45.24
816.914	63.39
817.088	75.96
817.261	64.09
817.435	57.39
817.608	57.08
817.782	44.1
817.955	29.72
818.129	32.71
818.302	35.99
818.475	55.51
818.649	51.55
818.822	39.61
818.996	54.67
819.169	54.14
819.342	26.06
819.516	51.86
819.689	68.69
819.862	52.86
820.035	49.7
820.209	51.33
820.382	30.51
820.555	35.27
820.728	28.68
820.901	24.49
821.075	23.58
821.248	35.93
821.421	8.48
821.594	10.46
821.767	36.11
821.94	64.94
822.113	39.45
822.286	43.49
822.459	53.23
822.632	41.76
822.805	8.46
822.978	19.2
823.151	13.06
823.324	-3.34
823.496	-30.74
823.669	-22.36
823.842	-16.55
824.015	-30.03
824.188	-42.81
824.361	-15.12
824.533	-19.34
824.706	-2.01
824.879	9.72
825.051	43.43
825.224	36.48
825.397	35.13
825.569	13.72
825.742	36.47
825.915	40.17
826.087	48.69
826.26	49.22
826.432	53.84
826.605	58.94
826.777	38.02
826.95	31.31
827.122	19.15
827.295	26.09
827.467	5.17
827.64	-27.9
827.812	-33.27
827.984	-29.63
828.157	-52.38
828.329	-87.22
828.501	-68.54
828.674	-23.62
828.846	-41.97
829.018	-0.21
829.19	11.85
829.363	55.2
829.535	57.68
829.707	60.42
829.879	27
830.051	5.76
830.223	-41.31
830.395	-85.19
830.568	-76.74
830.74	-84.35
830.912	-26.29
831.084	-24
831.256	-26.22
831.428	-27.78
831.6	-32.43
831.772	-84.32
831.943	-83.32
832.115	-40.29
832.287	-15.15
832.459	-3.68
832.631	27.83
832.803	48.26
832.975	62.18
833.146	56.29
833.318	62.54
833.49	66.31
833.662	42.11
833.833	6.6
834.005	1.23
834.177	-1.66
834.348	-6.04
834.52	-32.13
834.692	-28.38
834.863	-55.9
835.035	-37.54
835.206	-94.55
835.378	-42.59
835.549	-36.58
835.721	3.48
835.892	-3.87
836.064	-2.61
836.235	14.32
836.407	26.57
836.578	-51.99
836.749	-55.32
836.921	-96.39
837.092	-129.71
837.264	-118.06
837.435	-103.63
837.606	-44.72
837.777	6.12
837.949	23.05
838.12	26.05
838.291	46.49
838.462	22.52
838.633	-10.8
838.805	-3.58
838.976	13.6
839.147	-57.17
839.318	-46.95
839.489	-94
839.66	-90.72
839.831	-33.79
840.002	-24.48
840.173	-49.3
840.344	-3.93
840.515	-26.66
840.686	-286.56
840.857	-178.47
841.028	-124.01
841.199	-65.89
841.369	-99.2
841.54	-38.24
841.711	-21.24
841.882	-2.77
842.053	-35.82
842.223	-22.46
842.394	-14.09
842.565	-1.48
842.736	-6.14
842.906	4.12
843.077	21.17
843.248	28.44
843.418	13.3
843.589	-30.25
843.759	26.73
843.93	42.92
844.101	17.61
844.271	19.39
844.442	48.08
844.612	43.93
844.783	7.23
844.953	-47.75
845.123	-75.93
845.294	-108.15
845.464	-395.07
845.635	-275.4
845.805	-55.1
845.975	-23.94
846.146	-53.4
846.316	-30.88
846.486	9.01
846.656	23.73
846.827	17.36
846.997	6.17
847.167	29.98
847.337	7.47
847.507	-33.12
847.677	-10.92
847.848	53.34
848.018	30.55
848.188	39.49
848.358	20.67
848.528	3.74
848.698	-42.44
848.868	-108.48
849.038	-310.19
849.208	-113.15
849.378	-72.08
849.548	-67.21
849.718	-28.17
849.887	22.59
850.057	-9.14
850.227	-36.25
850.397	-54.79
850.567	-139.19
850.737	-343.26
850.906	-1020.63
851.076	-872.27
851.246	-330.1
851.415	-55.56
851.585	-51.43
851.755	-97.69
851.924	-41.23
852.094	-83.81
852.264	-211.84
852.433	-1370.67
852.603	-242.2
852.772	-163.99
852.942	-73.61
853.111	-61.04
853.281	-18.33
853.45	30.52
853.62	-46.69
853.789	-67.53
853.959	-18.42
854.128	-0.55
854.297	-85.17
854.467	-107.6
854.636	-71.1
854.805	-26.13
854.975	-82.13
855.144	-104.52
855.313	52.1
855.482	-328.83
855.652	-252.64
855.821	-182.41
855.99	4.78
856.159	10.19
856.328	15.27
856.497	9.84
856.667	15.24
856.836	9.31
857.005	-22.39
857.174	-27.58
857.343	-40.92
857.512	18.92
857.681	-61.18
857.85	-137.9
858.019	-86.55
858.188	-72.56
858.356	-106.21
858.525	-175.88
858.694	-118.82
858.863	-257.52
859.032	-225.87
859.201	-246.61
859.369	-114.16
859.538	-100.32
859.707	-69.31
859.876	-74.95
860.044	-94.16
860.213	-27.29
860.382	-44
860.55	-53.12
860.719	-12.89
860.888	-3.04
861.056	-51.31
861.225	-52.57
861.393	3.86
861.562	3.46
861.73	-78.61
861.899	-111.78
862.067	-932.76
862.236	-59.83
862.404	-224.06
862.572	-120.7
862.741	-53.72
862.909	-52.19
863.078	-203
863.246	-154.99
863.414	-141.73
863.582	-83.18
863.751	-122.28
863.919	-85.27
864.087	-9.13
864.255	-58.42
864.424	-465.14
864.592	-72.95
864.76	-125.22
864.928	-614.8
865.096	-253.34
865.264	-182.88
865.432	-2769.32
865.6	-345.25
865.768	-176.08
865.936	-170.75
866.104	-179.84
866.272	-236.41
866.44	-434.84
866.608	748.64
866.776	339.37
866.944	3050
867.112	-516.31
867.28	-268.26
867.448	-102.4
867.615	-28.06
867.783	-14.31
867.951	-36.47
868.119	30.66
868.286	12.44
868.454	-131.56
868.622	-163.37
868.789	-66.73
868.957	-2446.43
869.125	-2361.84
869.292	-181.45
869.46	-281.41
869.627	-72.04
869.795	-91
869.963	-58.11
870.13	-18.89
870.298	9.88
870.465	-129.71
870.632	-109.15
870.8	-75.47
870.967	-163.29
871.135	-230.33
871.302	-189.59
871.469	-227.77
871.637	-291.64
871.804	-147.56
871.971	-209.98
872.139	-506.74
872.306	-69.16
872.473	-104.91
872.64	-453.43
872.807	-231.98
872.975	-55.87
873.142	-431.09
873.309	3212.16
873.476	-53.26
873.643	27.77
873.81	0.46
873.977	86.9
874.144	85.99
874.311	3.41
874.478	-84.49
874.645	-152.16
874.812	-109.18
874.979	-81.22
875.146	-103.76
875.313	-136.99
875.48	-13.62
875.647	-38.43
875.813	-83.71
875.98	-46.65
876.147	-73.77
876.314	-152.09
876.481	1197.93
876.647	-1450
876.814	587.82
876.981	-22.12
877.147	-49.66
877.314	-0.97
877.481	18.21
877.647	13.76
877.814	-58.29
877.98	-99.76
878.147	-38.2
878.314	25.83
878.48	-33.47
878.647	-2.11
878.813	60.39
878.979	52.63
879.146	5.04
879.312	9.32
879.479	-59.39
879.645	-206.91
879.811	-419.4
879.978	-888.93
880.144	-275.7
880.31	-142.82
880.477	-362.16
880.643	-453.35
880.809	-265.86
880.975	-175
881.142	-1096.82
881.308	-204.59
881.474	-107.98
881.64	-104.95
881.806	-231.21
881.972	-72.12
882.138	-10.71
882.304	2.45
882.47	-195.89
882.636	-691.39
882.802	-220.86
882.968	-72.75
883.134	-41.3
883.3	-45.22
883.466	20.43
883.632	46.74
883.798	-10.68
883.964	-49.14
884.129	-2.32
884.295	-22.88
884.461	-69.7
884.627	-48.15
884.793	-67.43
884.958	-62.42
885.124	-121.61
885.29	-204.82
885.455	-431.31
885.621	-107.36
885.787	-119.67
885.952	-77.77
886.118	-95.03
886.283	-60.85
886.449	-169.41
886.614	-207.41
886.78	-406.35
886.945	1417.21
887.111	-815.32
887.276	-571.31
887.442	-941.36
887.607	-338.44
887.773	-260.99
887.938	-164.62
888.103	-244.43
888.269	-160.09
888.434	-318.11
888.599	-123.1
888.764	-20.61
888.93	21.42
889.095	22.49
889.26	-49.94
889.425	-34.5
889.59	-51
889.756	-137.23
889.921	-119.75
890.086	-35.8
890.251	3.74
890.416	-153.2
890.581	-1365.32
890.746	184.46
890.911	267.83
891.076	176.03
891.241	-354.1
891.406	48.33
891.571	-7.23
891.736	-359.4
891.901	-682.74
892.065	1025.82
892.23	220.32
892.395	310.67
892.56	417.2
892.725	-647.27
892.889	-1801.22
893.054	-284.07
893.219	-118.82
893.384	-68.05
893.548	-118.78
893.713	-119.24
893.878	-79.67
