Data from Ofra_PS_T2_2A_4HS13_Reflection_1.txt Node
Date: Wed Jul 21 17:12:23 EDT 2021
User: Adam
Spectrometer: FLMT01687
Trigger mode: 0
Integration Time (sec): 1.100000E0
Scans to average: 2
Electric dark correction enabled: true
Nonlinearity correction enabled: false
Boxcar width: 2
XAxis mode: Wavelengths
Number of Pixels in Spectrum: 3648
>>>>>Begin Spectral Data<<<<<
179.494	725.6
179.716	740.71
179.937	692.94
180.158	635.75
180.38	944.37
180.601	271.27
180.823	101.02
181.044	-38.86
181.265	202.21
181.486	90.62
181.708	123.79
181.929	928.57
182.15	-408.45
182.372	117.91
182.593	78.75
182.814	56.97
183.035	64.35
183.257	28.45
183.478	-103.83
183.699	-32.01
183.92	-40.35
184.141	-20.44
184.363	-79.42
184.584	-4.48
184.805	-28.23
185.026	7.22
185.247	36.74
185.468	31.88
185.689	10.53
185.91	31.13
186.132	25.46
186.353	-7.41
186.574	13.05
186.795	33.71
187.016	-13.54
187.237	-27.66
187.458	-14.11
187.679	11.83
187.9	22.17
188.121	30.12
188.342	32.16
188.563	39.19
188.784	47.62
189.005	32.13
189.226	67.19
189.447	58.15
189.667	-184.47
189.888	-354.19
190.109	-1128.57
190.33	-640
190.551	-1084.96
190.772	-205.33
190.993	-185.2
191.214	-147.82
191.434	-122.87
191.655	-13.13
191.876	-57.9
192.097	-91.61
192.318	-118.44
192.538	-181.82
192.759	-165.49
192.98	-80.63
193.201	-45.27
193.421	-33.6
193.642	-12.24
193.863	-15.09
194.083	-28.61
194.304	-39.77
194.525	-30.24
194.745	-35.64
194.966	-36.87
195.187	-43.24
195.407	-46.67
195.628	-128.8
195.848	-154.55
196.069	-156.25
196.29	-95.58
196.51	-105.01
196.731	-101.8
196.951	-94.15
197.172	-86.8
197.392	-126.31
197.613	-130.23
197.833	-125.31
198.054	-122.57
198.274	-105.75
198.495	-122.7
198.715	-56.03
198.936	-81.25
199.156	-70.64
199.377	-156.13
199.597	-135.97
199.817	-179.4
200.038	-93.73
200.258	-141.72
200.479	-56.97
200.699	-72.97
200.919	-21.52
201.14	-64.67
201.36	-89.99
201.58	-5.91
201.801	36.52
202.021	3.48
202.241	5.08
202.461	3.73
202.682	-133.02
202.902	-229.26
203.122	-129.5
203.342	-116.23
203.563	-65.38
203.783	-13.29
204.003	-56.15
204.223	-59.06
204.443	25.56
204.663	10.87
204.884	15.34
205.104	67.2
205.324	88.53
205.544	76.45
205.764	72.63
205.984	59.39
206.204	47.01
206.424	28.83
206.644	-40.32
206.864	2.99
207.084	-55.49
207.304	-55.43
207.525	-236.88
207.745	-98.87
207.964	-72.56
208.184	-63.51
208.404	-90.66
208.624	-87.07
208.844	-84.38
209.064	-393.09
209.284	-410.88
209.504	-267.17
209.724	-78.55
209.944	-44.08
210.164	-5.44
210.384	15.04
210.604	36.52
210.823	-20.03
211.043	-32.85
211.263	-15.31
211.483	-32.69
211.703	-87.68
211.922	-41.98
212.142	22.89
212.362	33.27
212.582	7.43
212.801	19.09
213.021	-12.12
213.241	-38.08
213.461	-83.57
213.68	-98.86
213.9	-67.73
214.12	-39.79
214.339	-104.05
214.559	-70.61
214.779	-5.93
214.998	-25.5
215.218	-65.25
215.438	-16.72
215.657	-14.88
215.877	-23.95
216.096	16.39
216.316	30.12
216.535	14.14
216.755	-2.65
216.974	-103.48
217.194	-152.97
217.413	-137.5
217.633	-164.72
217.852	-224.95
218.072	-96.43
218.291	-48.82
218.511	-14.43
218.73	-19.26
218.95	-16.65
219.169	-12.87
219.389	-52.31
219.608	-49.08
219.827	-46.34
220.047	-46.9
220.266	-30.63
220.485	-34.28
220.705	-19.64
220.924	-28
221.143	12.45
221.363	-14.64
221.582	5.84
221.801	-8.08
222.021	12.19
222.24	-27.51
222.459	81.24
222.678	48.45
222.897	16.3
223.117	-33.56
223.336	-39.24
223.555	-46.17
223.774	-9.86
223.993	25.96
224.213	89.75
224.432	56.83
224.651	62.42
224.87	22.26
225.089	43.04
225.308	17.23
225.527	40.34
225.746	38.28
225.965	40.73
226.184	-5.81
226.404	13.43
226.623	-12.56
226.842	-1.97
227.061	25.1
227.28	30.86
227.499	22.08
227.718	33.4
227.936	10.24
228.155	0.07
228.374	-8.45
228.593	1.75
228.812	-13.01
229.031	-3.9
229.25	-34.49
229.469	-43.08
229.688	-31.76
229.907	0.76
230.125	14.6
230.344	15.45
230.563	36.33
230.782	43.13
231.001	-15.33
231.22	-16.72
231.438	2.08
231.657	0.82
231.876	-16.6
232.095	33.52
232.313	35.06
232.532	29.25
232.751	-4.55
232.969	1.59
233.188	-61.44
233.407	-0.23
233.625	3.7
233.844	-6.25
234.063	7.47
234.281	28.44
234.5	-2.15
234.719	16.71
234.937	41.36
235.156	35.12
235.374	23.31
235.593	30.42
235.811	2.01
236.03	-0.67
236.249	-64.48
236.467	-62.86
236.686	-27.02
236.904	-12.98
237.123	-51.2
237.341	-29.69
237.559	-28.41
237.778	-50.42
237.996	-79.64
238.215	-11.39
238.433	6.06
238.652	7.38
238.87	2.02
239.088	11.66
239.307	-11.3
239.525	-16.8
239.743	-42.69
239.962	-42.84
240.18	-72
240.398	-95.94
240.617	-130.18
240.835	-96.5
241.053	-79.98
241.271	-41.81
241.49	-20.81
241.708	-25.7
241.926	-66.11
242.144	-49.35
242.363	-75.05
242.581	-72.73
242.799	-33.99
243.017	3.88
243.235	-18.68
243.453	-21.62
243.672	-24.91
243.89	-25.11
244.108	-46.81
244.326	-21.73
244.544	-5.89
244.762	-11.76
244.98	-21.1
245.198	-1.18
245.416	-37.48
245.634	-29.74
245.852	-23.2
246.07	-2.28
246.288	-3.27
246.506	2.29
246.724	-5.95
246.942	-27.31
247.16	-11.19
247.378	10.97
247.596	18.83
247.814	17.93
248.032	10.37
248.25	5.94
248.468	-8.71
248.685	-2.02
248.903	28.41
249.121	13.47
249.339	-12.08
249.557	-18.07
249.775	-11.29
249.992	-80.55
250.21	-59.46
250.428	-35.34
250.646	-65.89
250.863	-96.61
251.081	-59.93
251.299	-57.4
251.517	-54.73
251.734	-26.72
251.952	-5.9
252.17	-15.29
252.387	-11.26
252.605	-29.52
252.823	-37.09
253.04	-28.71
253.258	-6.9
253.475	-11.93
253.693	34.91
253.911	34.54
254.128	31.33
254.346	14.6
254.563	-0.49
254.781	-41.42
254.998	-52.04
255.216	-60.7
255.433	-39.76
255.651	-14.17
255.868	7.55
256.086	37.66
256.303	23.54
256.521	14.07
256.738	0.06
256.956	-24.67
257.173	-59.88
257.39	-59.02
257.608	-80.86
257.825	11.45
258.043	28.4
258.26	55.16
258.477	88.09
258.695	82.38
258.912	-2.69
259.129	15.3
259.346	-22.37
259.564	-79.74
259.781	-90.48
259.998	-26.22
260.216	-15.76
260.433	34.02
260.65	34.5
260.867	46.23
261.084	21.53
261.302	5.22
261.519	-32.48
261.736	-39.36
261.953	-50.54
262.17	-16.39
262.387	-36.74
262.604	-94.31
262.822	-110.93
263.039	-89.17
263.256	-144.7
263.473	-101.12
263.69	-39.75
263.907	12.25
264.124	8.77
264.341	18.4
264.558	16.65
264.775	25.93
264.992	7.39
265.209	9.86
265.426	18.6
265.643	14.12
265.86	13.27
266.077	16.21
266.294	-5.19
266.51	-46.83
266.727	-65.91
266.944	-51.63
267.161	-58.03
267.378	-68.73
267.595	-29.21
267.812	-34.06
268.028	-52.81
268.245	-30.43
268.462	-24.38
268.679	-15.11
268.896	25.12
269.112	17.13
269.329	12.42
269.546	21.58
269.763	-2.29
269.979	-28.39
270.196	-16.14
270.413	-49.97
270.629	-82.05
270.846	-81.13
271.063	-77.03
271.279	-104.28
271.496	-100
271.712	-52.42
271.929	-25.67
272.146	-42.5
272.362	-28.55
272.579	24.79
272.795	31.25
273.012	17.4
273.228	32.45
273.445	24.1
273.661	-4.27
273.878	-48.29
274.094	-31.09
274.311	-53.36
274.527	0.26
274.744	-14.97
274.96	-7.49
275.177	-4.4
275.393	18.74
275.609	6.96
275.826	42.3
276.042	33.98
276.259	10.27
276.475	16.84
276.691	25.23
276.908	2.55
277.124	18.93
277.34	28.04
277.557	15.31
277.773	-13.7
277.989	-11.42
278.205	-28.91
278.422	-15.03
278.638	-7.8
278.854	18.05
279.07	18.21
279.286	22.13
279.503	-18.6
279.719	-30.86
279.935	-51.41
280.151	-83.85
280.367	-59.18
280.583	-70.21
280.799	-33.73
281.016	-70
281.232	-19.74
281.448	-18.33
281.664	20.69
281.88	-27.44
282.096	6.62
282.312	22.67
282.528	36.32
282.744	25.88
282.96	22.12
283.176	13.13
283.392	8.88
283.608	-3.88
283.824	-2.44
284.04	7.73
284.256	6.82
284.471	-12.72
284.687	-16.8
284.903	-15.29
285.119	13.27
285.335	-9.26
285.551	2.6
285.767	0.48
285.982	0.88
286.198	-44.24
286.414	22.91
286.63	15.04
286.846	37.22
287.061	20.03
287.277	51.76
287.493	23.44
287.709	44.52
287.924	26.28
288.14	70.47
288.356	60.24
288.571	76.03
288.787	46.11
289.003	37.05
289.218	5.53
289.434	-36.56
289.65	-42.28
289.865	-42.73
290.081	-12.52
290.296	-1.22
290.512	23.41
290.727	-19.64
290.943	-21.2
291.159	-30.55
291.374	-45.21
291.59	-63.35
291.805	-38.89
292.021	-17.94
292.236	-24.7
292.451	-6.48
292.667	-5.76
292.882	6.11
293.098	-24.16
293.313	-47.99
293.529	-72.24
293.744	-93.19
293.959	-86.97
294.175	-64.3
294.39	-18.12
294.605	8.7
294.821	35.28
295.036	31.2
295.251	33.35
295.467	18.4
295.682	-9.41
295.897	-43.55
296.112	-52.61
296.328	-49.24
296.543	-95.71
296.758	-66.02
296.973	-28.86
297.188	7.7
297.404	-15.45
297.619	-21.91
297.834	-43.47
298.049	-62.6
298.264	-90.06
298.479	-21.01
298.694	-3.27
298.909	14.63
299.125	18.13
299.34	30.96
299.555	-8.53
299.77	1.23
299.985	-34.19
300.2	-82.79
300.415	-99.41
300.63	-55.74
300.845	-69.33
301.06	-60.67
301.275	-26.17
301.49	-13.9
301.704	-30.92
301.919	-46.8
302.134	-57.65
302.349	-68.78
302.564	-128.15
302.779	-182.89
302.994	-187.93
303.209	-137.68
303.423	-79.98
303.638	-7.21
303.853	-20.18
304.068	-11.43
304.283	7.5
304.497	-1.84
304.712	-1.3
304.927	13.74
305.142	6.79
305.356	4.85
305.571	10.42
305.786	-5.43
306	-26.12
306.215	-30.1
306.43	-49.84
306.644	-59.43
306.859	-10.34
307.074	11.7
307.288	-0.59
307.503	-10.13
307.717	-32.59
307.932	-45.18
308.147	-55.14
308.361	-32.09
308.576	-41.55
308.79	-73.31
309.005	-62.24
309.219	-55.53
309.434	-78.79
309.648	-67.08
309.863	-25.43
310.077	-36.76
310.292	-30.59
310.506	-27.59
310.72	-4.06
310.935	7.76
311.149	12.86
311.364	26.39
311.578	35.26
311.792	19.89
312.007	10.48
312.221	-4.92
312.435	-7.85
312.649	-17.08
312.864	6.4
313.078	13.63
313.292	74.61
313.507	54.51
313.721	108.82
313.935	43.75
314.149	36.49
314.363	19.81
314.578	27.97
314.792	14.36
315.006	-3.55
315.22	7.55
315.434	11.27
315.648	16.03
315.862	15.71
316.077	24.39
316.291	-1.16
316.505	2.5
316.719	-31.09
316.933	-29.3
317.147	-24.66
317.361	-54.41
317.575	-73.31
317.789	-87.1
318.003	-146.24
318.217	-94.7
318.431	6.89
318.645	21.98
318.859	14.12
319.073	43.92
319.287	19.18
319.5	-20.76
319.714	-59.17
319.928	-78.8
320.142	-107.85
320.356	-48.22
320.57	-8.23
320.784	-13.89
320.997	-6.02
321.211	-15.72
321.425	-67
321.639	-105.52
321.853	-41.09
322.066	-30.38
322.28	-35.87
322.494	-30.34
322.707	1.65
322.921	-12.69
323.135	-12.22
323.349	6.97
323.562	-12.32
323.776	-31.85
323.989	-29.17
324.203	-62.95
324.417	-87.21
324.63	-89.35
324.844	-88.19
325.057	-75.72
325.271	-30.19
325.485	13.66
325.698	30.38
325.912	43.66
326.125	11.05
326.339	8.22
326.552	-25.15
326.766	-32.38
326.979	-18.71
327.193	24.23
327.406	13.73
327.619	12.86
327.833	35.48
328.046	2.99
328.26	-30.49
328.473	-10.48
328.686	-41.12
328.9	-47.92
329.113	-24.75
329.326	-37.42
329.54	-30.38
329.753	-20.86
329.966	-59.67
330.179	-73.35
330.393	-42.26
330.606	-20.02
330.819	3.22
331.032	31.17
331.246	38.6
331.459	64.4
331.672	49.04
331.885	35.76
332.098	0.51
332.311	-3.55
332.525	-63.36
332.738	-66.8
332.951	-49.2
333.164	-13.63
333.377	-12.97
333.59	8.85
333.803	17.1
334.016	22.12
334.229	28.22
334.442	37.37
334.655	61.87
334.868	56.16
335.081	43.25
335.294	20.4
335.507	22.35
335.72	1.85
335.933	-0.46
336.146	-22.57
336.359	-22.75
336.572	-55.46
336.785	-84.93
336.997	-82.99
337.21	-43.94
337.423	-40.56
337.636	-28.25
337.849	-2.12
338.062	5.73
338.274	-8.88
338.487	-17.58
338.7	-14.83
338.913	-58.81
339.125	-96.55
339.338	-125.53
339.551	-117.25
339.763	-86.28
339.976	-54.34
340.189	-22.9
340.402	-13.42
340.614	-17.74
340.827	-28.88
341.039	-38.38
341.252	-49.78
341.465	-30.84
341.677	-23.4
341.89	-53.64
342.102	-23.05
342.315	-32.29
342.527	-52.32
342.74	-55.28
342.952	-24.78
343.165	-26.48
343.377	2.84
343.59	-7.89
343.802	13.22
344.015	22.17
344.227	21.99
344.44	12.15
344.652	18.13
344.864	6.18
345.077	17.69
345.289	13.63
345.502	13.32
345.714	9.16
345.926	16.47
346.139	5.82
346.351	14.44
346.563	26.98
346.775	45.19
346.988	35.61
347.2	31.98
347.412	-8.9
347.624	-41.06
347.837	-88.5
348.049	-79.56
348.261	-49.56
348.473	-40
348.685	-39.46
348.897	-28.93
349.11	-38.83
349.322	-58.26
349.534	-31.6
349.746	-19.85
349.958	-17.27
350.17	-9.98
350.382	16.85
350.594	17.57
350.806	10.26
351.018	10.15
351.23	7.53
351.442	-51.42
351.654	-61.52
351.866	-41.36
352.078	-38.05
352.29	-14.71
352.502	3.77
352.714	14.26
352.926	9.17
353.138	4.02
353.35	-18.46
353.561	-30.09
353.773	-49.78
353.985	-44.84
354.197	-60.93
354.409	-58.16
354.621	-48.25
354.832	-31.25
355.044	-31.67
355.256	-26.86
355.468	-12.23
355.679	-24.75
355.891	-18.48
356.103	-33.98
356.314	-9.33
356.526	-15.71
356.738	4.39
356.949	-5.58
357.161	11.97
357.373	-2.04
357.584	-17.95
357.796	-9.77
358.008	-8.59
358.219	1.53
358.431	-4.54
358.642	22.22
358.854	14.98
359.065	-1.53
359.277	-34.55
359.488	-34.8
359.7	-77.47
359.911	-78.71
360.123	-55.96
360.334	-55.86
360.546	-79.54
360.757	-65.02
360.969	-62.33
361.18	-46.46
361.391	-18.83
361.603	-30.3
361.814	-19.03
362.025	-12.81
362.237	-18.35
362.448	-17.39
362.659	10.4
362.871	4.99
363.082	3.61
363.293	3.58
363.504	-5.03
363.716	-33.96
363.927	-46.95
364.138	-63.14
364.349	-81.97
364.56	-81.1
364.772	-55.81
364.983	-27.29
365.194	-29.69
365.405	-16.58
365.616	10.45
365.827	13.81
366.038	-4.65
366.25	-3.36
366.461	-25.05
366.672	-22.99
366.883	-5.79
367.094	2.38
367.305	-4.19
367.516	6.75
367.727	-23.36
367.938	-37.4
368.149	-48.13
368.36	-26.75
368.571	-25.16
368.781	-31.73
368.992	-41.03
369.203	-40.7
369.414	-66.88
369.625	-75.61
369.836	-52.51
370.047	-67.27
370.258	-56.6
370.468	-51.02
370.679	-64.78
370.89	-57.58
371.101	-33.67
371.312	-41.98
371.522	-35.43
371.733	-21.75
371.944	-18.44
372.155	-18.76
372.365	-19.5
372.576	-17.84
372.787	-21.96
372.997	-35.52
373.208	-40.12
373.419	-13.2
373.629	-35.57
373.84	-18.23
374.05	-34.37
374.261	-11.44
374.472	-34.97
374.682	1.12
374.893	-1.69
375.103	40.59
375.314	22.93
375.524	19.7
375.735	15.9
375.945	15.24
376.156	-14.61
376.366	-0.19
376.577	12.94
376.787	11.77
376.997	24.71
377.208	25.45
377.418	3.06
377.629	13.4
377.839	0.62
378.049	-9.73
378.26	2.21
378.47	20.02
378.68	-0.76
378.89	-5.82
379.101	2.17
379.311	-31.81
379.521	-60.73
379.732	-44.29
379.942	-28.1
380.152	-53.2
380.362	-15.3
380.572	-17.64
380.783	-11.99
380.993	-7.49
381.203	11.73
381.413	18.57
381.623	29.8
381.833	25.3
382.043	14.13
382.253	-6.12
382.463	-9.48
382.674	-21.96
382.884	-45.19
383.094	-33.74
383.304	-20.59
383.514	-17.41
383.724	-3.14
383.934	0.03
384.144	-9.71
384.353	-14.99
384.563	-19.87
384.773	-21.7
384.983	-26.01
385.193	-14.45
385.403	-12.65
385.613	-11.89
385.823	-20.8
386.033	-13.17
386.242	-17.59
386.452	-17.68
386.662	-19.84
386.872	-2.78
387.082	-5.12
387.291	-5.33
387.501	-5.85
387.711	-0.93
387.921	-14.57
388.13	-10.8
388.34	-3.27
388.55	-10.09
388.759	-12.65
388.969	-4.94
389.179	-10.23
389.388	-15.67
389.598	-7.3
389.807	-11.74
390.017	-18.24
390.227	-12.52
390.436	-11.67
390.646	-7.62
390.855	-3.66
391.065	-1.44
391.274	-2.2
391.484	-3.31
391.693	-2.13
391.903	0.23
392.112	5.62
392.322	7.88
392.531	10.41
392.74	8.93
392.95	3.18
393.159	1
393.369	1.79
393.578	1.73
393.787	-1.07
393.997	1.6
394.206	0.17
394.415	-1.19
394.625	-1.97
394.834	-1.9
395.043	-1.55
395.252	0.13
395.462	1.84
395.671	3.93
395.88	5.14
396.089	6.59
396.298	5.09
396.508	4.05
396.717	3.19
396.926	3.33
397.135	2.09
397.344	2.62
397.553	3.71
397.762	5.61
397.971	5.94
398.181	6.87
398.39	6.36
398.599	5.83
398.808	5.23
399.017	5.64
399.226	6.24
399.435	7.94
399.644	8.09
399.853	6.92
400.062	6.19
400.27	5.42
400.479	4.39
400.688	3.72
400.897	4.44
401.106	4.79
401.315	4.83
401.524	5.23
401.733	6.08
401.941	6.37
402.15	6.66
402.359	6.56
402.568	6.74
402.777	6.77
402.985	6.53
403.194	6.16
403.403	6.19
403.612	5.56
403.82	5.32
404.029	5.61
404.238	5.53
404.446	5.73
404.655	5.82
404.864	5.72
405.072	5.32
405.281	5.37
405.489	5.17
405.698	5.21
405.906	5.22
406.115	5.22
406.324	5.19
406.532	5.26
406.741	5.5
406.949	5.53
407.158	5.59
407.366	5.74
407.574	5.74
407.783	5.69
407.991	5.5
408.2	5.59
408.408	5.53
408.617	5.45
408.825	5.35
409.033	5.42
409.242	5.4
409.45	5.54
409.658	5.4
409.867	5.43
410.075	5.35
410.283	5.11
410.491	4.89
410.7	4.93
410.908	4.87
411.116	5.21
411.324	5.3
411.533	5.24
411.741	5.44
411.949	5.42
412.157	5.12
412.365	5.1
412.573	5.18
412.781	5.13
412.99	5.09
413.198	5.15
413.406	5.16
413.614	5.16
413.822	4.89
414.03	4.84
414.238	4.73
414.446	4.71
414.654	4.51
414.862	4.76
415.07	4.75
415.278	4.9
415.486	4.7
415.694	4.89
415.902	4.68
416.109	4.57
416.317	4.53
416.525	4.49
416.733	4.36
416.941	4.61
417.149	4.67
417.357	4.61
417.564	4.69
417.772	5.01
417.98	4.84
418.188	4.81
418.395	4.91
418.603	5.18
418.811	4.75
419.019	4.75
419.226	4.93
419.434	4.85
419.642	4.5
419.849	4.72
420.057	4.58
420.265	4.56
420.472	4.32
420.68	4.44
420.887	4.14
421.095	4.39
421.302	4.3
421.51	4.7
421.717	4.83
421.925	5.01
422.132	4.81
422.34	4.6
422.547	4.51
422.755	4.29
422.962	4.11
423.17	4.02
423.377	4.11
423.585	3.86
423.792	3.77
423.999	3.83
424.207	3.8
424.414	4.06
424.621	4.15
424.829	4.2
425.036	4.26
425.243	4.46
425.451	4.13
425.658	3.96
425.865	4.16
426.072	4.06
426.28	4.3
426.487	4.36
426.694	4.63
426.901	4.5
427.108	4.64
427.315	4.3
427.523	4.46
427.73	4.22
427.937	4.18
428.144	4.02
428.351	4.14
428.558	4.33
428.765	4.35
428.972	4.34
429.179	4.52
429.386	4.62
429.593	4.28
429.8	4.25
430.007	4.45
430.214	4.44
430.421	4.26
430.628	4.17
430.835	4.09
431.042	4.11
431.249	4.23
431.456	4.17
431.662	4.36
431.869	4.63
432.076	4.62
432.283	4.69
432.49	4.8
432.697	4.74
432.903	4.44
433.11	4.35
433.317	4.28
433.524	4.47
433.73	4.38
433.937	4.79
434.144	4.73
434.35	4.69
434.557	4.42
434.764	4.42
434.97	4.24
435.177	4.39
435.384	4.23
435.59	4.47
435.797	4.73
436.003	4.81
436.21	4.82
436.416	5.07
436.623	5.03
436.829	5.08
437.036	5.16
437.242	5.11
437.449	5.02
437.655	4.99
437.862	4.94
438.068	4.84
438.275	4.89
438.481	5.11
438.687	5.15
438.894	5.1
439.1	5.12
439.307	5.29
439.513	5.11
439.719	4.97
439.926	5.06
440.132	4.99
440.338	4.75
440.544	4.91
440.751	4.99
440.957	5.02
441.163	4.99
441.369	5.16
441.575	5
441.782	4.94
441.988	4.76
442.194	4.88
442.4	4.78
442.606	5.01
442.812	5.13
443.018	5.35
443.224	5.33
443.431	5.49
443.637	5.26
443.843	5.17
444.049	5.09
444.255	5.09
444.461	5.09
444.667	5.07
444.873	5.19
445.079	5.24
445.284	5.33
445.49	5.04
445.696	4.97
445.902	4.85
446.108	4.72
446.314	4.6
446.52	4.69
446.726	4.92
446.931	4.98
447.137	5.12
447.343	5.15
447.549	5.14
447.755	5.01
447.96	5.07
448.166	4.96
448.372	4.96
448.578	5
448.783	5.12
448.989	5.18
449.195	5.27
449.4	5.3
449.606	5.32
449.812	5.17
450.017	5.17
450.223	5.1
450.428	5.01
450.634	5.16
450.84	5.34
451.045	5.23
451.251	5.22
451.456	5.45
451.662	5.42
451.867	5.37
452.073	5.4
452.278	5.5
452.483	5.52
452.689	5.39
452.894	5.4
453.1	5.35
453.305	5.26
453.51	5.2
453.716	5.23
453.921	5.16
454.127	5.17
454.332	5.15
454.537	5.02
454.742	4.95
454.948	4.99
455.153	4.98
455.358	5.05
455.563	5.19
455.769	5.4
455.974	5.36
456.179	5.32
456.384	5.26
456.589	5.15
456.795	4.95
457	4.93
457.205	5.17
457.41	5.13
457.615	5.12
457.82	5.11
458.025	5.16
458.23	4.99
458.435	4.97
458.64	4.91
458.845	5.06
459.05	4.96
459.255	4.96
459.46	5.08
459.665	5.09
459.87	5.11
460.075	5.22
460.28	5.28
460.485	5.32
460.69	5.39
460.895	5.2
461.099	5.11
461.304	5.22
461.509	5.24
461.714	5.15
461.919	5.34
462.123	5.33
462.328	5.29
462.533	5.15
462.738	5.21
462.942	5.01
463.147	5.03
463.352	5.04
463.556	5.17
463.761	5.21
463.966	5.34
464.17	5.34
464.375	5.2
464.58	5.1
464.784	5.11
464.989	4.99
465.193	5
465.398	4.96
465.602	5.08
465.807	4.95
466.011	5.04
466.216	5.09
466.42	5.24
466.625	5.28
466.829	5.44
467.034	5.51
467.238	5.75
467.443	5.65
467.647	5.47
467.851	5.39
468.056	5.44
468.26	5.2
468.464	5.24
468.669	5.32
468.873	5.5
469.077	5.43
469.282	5.49
469.486	5.47
469.69	5.53
469.894	5.34
470.099	5.41
470.303	5.51
470.507	5.47
470.711	5.34
470.915	5.39
471.119	5.23
471.324	5.18
471.528	5.24
471.732	5.38
471.936	5.36
472.14	5.48
472.344	5.46
472.548	5.46
472.752	5.59
472.956	5.79
473.16	5.73
473.364	5.62
473.568	5.62
473.772	5.58
473.976	5.46
474.18	5.5
474.384	5.57
474.588	5.53
474.792	5.4
474.995	5.48
475.199	5.63
475.403	5.66
475.607	5.73
475.811	5.74
476.015	5.7
476.218	5.64
476.422	5.63
476.626	5.72
476.83	5.83
477.033	5.79
477.237	5.65
477.441	5.68
477.644	5.69
477.848	5.64
478.052	5.66
478.255	5.72
478.459	5.73
478.663	5.8
478.866	5.87
479.07	5.87
479.273	6.09
479.477	6.14
479.681	6.06
479.884	5.95
480.088	5.91
480.291	5.74
480.495	5.73
480.698	5.76
480.901	5.84
481.105	5.94
481.308	5.95
481.512	5.93
481.715	5.97
481.919	5.98
482.122	5.95
482.325	6
482.529	6.02
482.732	6
482.935	5.96
483.138	5.94
483.342	6.06
483.545	6.13
483.748	6.14
483.952	6.15
484.155	6.3
484.358	6.24
484.561	6.19
484.764	6.15
484.967	6.25
485.171	6.33
485.374	6.28
485.577	6.34
485.78	6.39
485.983	6.39
486.186	6.14
486.389	6.14
486.592	6.11
486.795	6.14
486.998	6.08
487.201	6.21
487.404	6.23
487.607	6.3
487.81	6.3
488.013	6.31
488.216	6.3
488.419	6.32
488.622	6.21
488.825	6.13
489.028	6.13
489.231	6.07
489.433	5.96
489.636	5.92
489.839	5.94
490.042	5.89
490.245	5.91
490.447	6.03
490.65	6.06
490.853	6.05
491.056	6.12
491.258	6.17
491.461	6.19
491.664	6.3
491.866	6.3
492.069	6.39
492.272	6.34
492.474	6.35
492.677	6.36
492.879	6.43
493.082	6.44
493.285	6.57
493.487	6.52
493.69	6.45
493.892	6.37
494.095	6.3
494.297	6.26
494.5	6.35
494.702	6.35
494.905	6.43
495.107	6.45
495.309	6.46
495.512	6.46
495.714	6.52
495.917	6.5
496.119	6.45
496.321	6.46
496.524	6.47
496.726	6.47
496.928	6.53
497.13	6.55
497.333	6.55
497.535	6.51
497.737	6.52
497.939	6.53
498.142	6.61
498.344	6.59
498.546	6.54
498.748	6.58
498.95	6.7
499.152	6.66
499.355	6.69
499.557	6.83
499.759	6.89
499.961	6.78
500.163	6.85
500.365	6.85
500.567	6.86
500.769	6.75
500.971	6.74
501.173	6.69
501.375	6.72
501.577	6.66
501.779	6.72
501.981	6.76
502.183	6.78
502.385	6.73
502.587	6.67
502.788	6.7
502.99	6.74
503.192	6.8
503.394	6.82
503.596	6.86
503.798	6.96
503.999	7
504.201	6.95
504.403	7
504.605	7.06
504.806	6.99
505.008	6.93
505.21	7.02
505.411	7.03
505.613	7.02
505.815	7.05
506.016	7.06
506.218	7.15
506.42	7.17
506.621	7.22
506.823	7.23
507.024	7.23
507.226	7.11
507.427	7.1
507.629	7.17
507.83	7.22
508.032	7.22
508.233	7.36
508.435	7.4
508.636	7.44
508.838	7.39
509.039	7.42
509.24	7.39
509.442	7.42
509.643	7.3
509.845	7.33
510.046	7.43
510.247	7.44
510.448	7.47
510.65	7.52
510.851	7.58
511.052	7.59
511.254	7.58
511.455	7.65
511.656	7.69
511.857	7.79
512.058	7.79
512.26	7.81
512.461	7.78
512.662	7.89
512.863	7.76
513.064	7.76
513.265	7.75
513.466	7.86
513.667	7.8
513.868	7.89
514.069	8
514.27	8.12
514.471	8.12
514.672	8.1
514.873	8.08
515.074	8.04
515.275	7.93
515.476	7.84
515.677	7.9
515.878	8.04
516.079	8.02
516.28	8.1
516.481	8.29
516.682	8.36
516.882	8.28
517.083	8.31
517.284	8.27
517.485	8.18
517.686	8.13
517.886	8.15
518.087	8.24
518.288	8.34
518.488	8.36
518.689	8.37
518.89	8.37
519.091	8.39
519.291	8.42
519.492	8.51
519.692	8.57
519.893	8.68
520.094	8.64
520.294	8.56
520.495	8.53
520.695	8.56
520.896	8.53
521.096	8.58
521.297	8.66
521.497	8.65
521.698	8.62
521.898	8.63
522.099	8.61
522.299	8.71
522.499	8.76
522.7	8.79
522.9	8.76
523.101	8.85
523.301	8.79
523.501	8.77
523.702	8.81
523.902	8.89
524.102	8.89
524.302	8.91
524.503	9
524.703	9
524.903	9.01
525.103	8.99
525.304	9.09
525.504	9.12
525.704	9.13
525.904	9.1
526.104	9.05
526.304	9.08
526.504	9.09
526.705	9.16
526.905	9.31
527.105	9.39
527.305	9.29
527.505	9.24
527.705	9.18
527.905	9.11
528.105	9.16
528.305	9.18
528.505	9.28
528.705	9.41
528.905	9.4
529.105	9.4
529.304	9.47
529.504	9.54
529.704	9.47
529.904	9.51
530.104	9.49
530.304	9.57
530.503	9.47
530.703	9.43
530.903	9.48
531.103	9.58
531.303	9.56
531.502	9.62
531.702	9.76
531.902	9.79
532.101	9.74
532.301	9.74
532.501	9.78
532.7	9.75
532.9	9.75
533.1	9.82
533.299	9.87
533.499	9.91
533.698	9.9
533.898	9.93
534.097	9.94
534.297	9.99
534.496	9.97
534.696	10.06
534.895	10.18
535.095	10.24
535.294	10.22
535.494	10.2
535.693	10.24
535.892	10.19
536.092	10.18
536.291	10.15
536.491	10.24
536.69	10.25
536.889	10.21
537.088	10.18
537.288	10.3
537.487	10.37
537.686	10.43
537.886	10.53
538.085	10.63
538.284	10.67
538.483	10.64
538.682	10.63
538.882	10.66
539.081	10.71
539.28	10.65
539.479	10.64
539.678	10.67
539.877	10.8
540.076	10.86
540.275	10.94
540.474	11.11
540.673	11.17
540.872	11.06
541.071	11.11
541.27	11.16
541.469	11.19
541.668	11.17
541.867	11.26
542.066	11.26
542.265	11.31
542.464	11.28
542.663	11.36
542.862	11.49
543.06	11.6
543.259	11.65
543.458	11.73
543.657	11.78
543.856	11.77
544.054	11.71
544.253	11.67
544.452	11.66
544.651	11.75
544.849	11.73
545.048	11.78
545.247	11.87
545.445	11.98
545.644	12.02
545.843	12.06
546.041	12.2
546.24	12.29
546.438	12.37
546.637	12.39
546.836	12.57
547.034	12.63
547.233	12.66
547.431	12.63
547.63	12.73
547.828	12.72
548.027	12.74
548.225	12.79
548.423	12.83
548.622	12.9
548.82	12.92
549.019	12.96
549.217	13.05
549.415	13.18
549.614	13.23
549.812	13.29
550.01	13.33
550.209	13.38
550.407	13.4
550.605	13.39
550.803	13.5
551.002	13.6
551.2	13.65
551.398	13.73
551.596	13.93
551.794	14.02
551.993	14.06
552.191	14.14
552.389	14.26
552.587	14.23
552.785	14.32
552.983	14.4
553.181	14.5
553.379	14.59
553.577	14.66
553.775	14.68
553.973	14.77
554.171	14.9
554.369	14.91
554.567	14.94
554.765	15.05
554.963	15.11
555.161	15.05
555.359	15.12
555.557	15.28
555.755	15.31
555.952	15.46
556.15	15.56
556.348	15.65
556.546	15.7
556.744	15.84
556.941	15.85
557.139	15.99
557.337	16.05
557.535	16.12
557.732	16.2
557.93	16.35
558.128	16.41
558.325	16.55
558.523	16.6
558.721	16.74
558.918	16.79
559.116	16.88
559.313	16.89
559.511	17.16
559.708	17.13
559.906	17.2
560.104	17.27
560.301	17.42
560.498	17.41
560.696	17.55
560.893	17.66
561.091	17.82
561.288	17.85
561.486	17.92
561.683	18.03
561.88	18.15
562.078	18.16
562.275	18.19
562.473	18.26
562.67	18.46
562.867	18.57
563.064	18.69
563.262	18.82
563.459	18.95
563.656	19
563.853	18.97
564.051	19.11
564.248	19.27
564.445	19.39
564.642	19.37
564.839	19.65
565.036	19.89
565.234	20.04
565.431	20.07
565.628	20.23
565.825	20.29
566.022	20.21
566.219	20.28
566.416	20.43
566.613	20.52
566.81	20.61
567.007	20.67
567.204	20.68
567.401	20.74
567.598	20.79
567.795	20.83
567.991	20.88
568.188	21.02
568.385	21.19
568.582	21.32
568.779	21.38
568.976	21.51
569.172	21.6
569.369	21.48
569.566	21.53
569.763	21.61
569.96	21.61
570.156	21.68
570.353	21.74
570.55	21.79
570.746	21.82
570.943	21.87
571.14	21.86
571.336	21.96
571.533	22.06
571.729	22.07
571.926	22.14
572.123	22.25
572.319	22.32
572.516	22.3
572.712	22.37
572.909	22.41
573.105	22.48
573.302	22.49
573.498	22.58
573.695	22.59
573.891	22.67
574.087	22.63
574.284	22.67
574.48	22.57
574.677	22.67
574.873	22.62
575.069	22.66
575.266	22.68
575.462	22.74
575.658	22.76
575.854	22.91
576.051	22.96
576.247	22.92
576.443	22.92
576.639	22.9
576.835	22.77
577.032	22.71
577.228	22.9
577.424	22.88
577.62	22.82
577.816	22.93
578.012	23.01
578.208	22.85
578.404	22.87
578.6	22.83
578.796	22.8
578.993	22.77
579.189	22.8
579.384	22.72
579.58	22.7
579.776	22.73
579.972	22.61
580.168	22.5
580.364	22.57
580.56	22.66
580.756	22.6
580.952	22.64
581.148	22.71
581.343	22.74
581.539	22.8
581.735	22.78
581.931	22.81
582.127	22.82
582.322	22.79
582.518	22.73
582.714	22.73
582.909	22.68
583.105	22.67
583.301	22.62
583.496	22.63
583.692	22.51
583.888	22.44
584.083	22.43
584.279	22.49
584.474	22.45
584.67	22.61
584.866	22.69
585.061	22.55
585.257	22.53
585.452	22.51
585.648	22.46
585.843	22.5
586.039	22.61
586.234	22.58
586.429	22.49
586.625	22.56
586.82	22.4
587.015	22.42
587.211	22.37
587.406	22.48
587.601	22.39
587.797	22.48
587.992	22.46
588.187	22.55
588.383	22.49
588.578	22.51
588.773	22.53
588.968	22.5
589.163	22.47
589.359	22.41
589.554	22.41
589.749	22.43
589.944	22.48
590.139	22.45
590.334	22.55
590.529	22.55
590.724	22.55
590.919	22.7
591.114	22.72
591.309	22.78
591.504	22.89
591.699	22.94
591.894	22.9
592.089	22.85
592.284	22.88
592.479	22.9
592.674	22.84
592.869	22.89
593.064	23.06
593.259	23.25
593.454	23.33
593.648	23.44
593.843	23.43
594.038	23.45
594.233	23.33
594.428	23.33
594.622	23.41
594.817	23.48
595.012	23.57
595.206	23.61
595.401	23.64
595.596	23.66
595.79	23.77
595.985	23.8
596.18	23.96
596.374	24.06
596.569	24.15
596.763	24.06
596.958	24.17
597.153	24.14
597.347	24.09
597.542	24.18
597.736	24.28
597.931	24.29
598.125	24.34
598.319	24.55
598.514	24.5
598.708	24.55
598.903	24.55
599.097	24.59
599.291	24.52
599.486	24.56
599.68	24.64
599.874	24.77
600.069	24.74
600.263	24.84
600.457	24.9
600.651	24.97
600.846	24.96
601.04	25.03
601.234	25.01
601.428	25.03
601.622	25.03
601.817	24.96
602.011	25.01
602.205	25.08
602.399	25.07
602.593	25.03
602.787	25.15
602.981	25.12
603.175	25.08
603.369	25.03
603.563	25.08
603.757	25.1
603.951	25.1
604.145	25.04
604.339	25.16
604.533	24.92
604.727	24.84
604.921	24.8
605.115	24.74
605.309	24.68
605.502	24.77
605.696	24.68
605.89	24.68
606.084	24.69
606.278	24.66
606.471	24.57
606.665	24.49
606.859	24.34
607.053	24.35
607.246	24.2
607.44	24.19
607.634	24.12
607.827	24.18
608.021	24.09
608.214	24.07
608.408	23.98
608.602	24.02
608.795	23.87
608.989	23.83
609.182	23.7
609.376	23.73
609.569	23.59
609.763	23.52
609.956	23.39
610.15	23.34
610.343	23.27
610.537	23.19
610.73	23.22
610.923	23.06
611.117	23.09
611.31	23
611.504	22.92
611.697	22.78
611.89	22.79
612.083	22.69
612.277	22.63
612.47	22.58
612.663	22.53
612.856	22.48
613.05	22.3
613.243	22.22
613.436	22.16
613.629	22.06
613.822	21.89
614.015	21.92
614.209	21.75
614.402	21.74
614.595	21.67
614.788	21.61
614.981	21.47
615.174	21.35
615.367	21.26
615.56	21.16
615.753	21.21
615.946	21.17
616.139	21.22
616.332	21.26
616.525	21.34
616.718	21.37
616.911	21.37
617.103	21.41
617.296	21.28
617.489	21.15
617.682	21.03
617.875	20.97
618.067	20.85
618.26	20.83
618.453	20.83
618.646	20.78
618.838	20.76
619.031	20.9
619.224	20.92
619.417	20.84
619.609	20.85
619.802	20.8
619.994	20.67
620.187	20.65
620.38	20.65
620.572	20.56
620.765	20.61
620.957	20.5
621.15	20.33
621.342	20.24
621.535	20.34
621.727	20.19
621.92	20.18
622.112	20.23
622.305	20.32
622.497	20.16
622.69	20.16
622.882	20.16
623.074	20.23
623.267	20.13
623.459	20.07
623.651	20.01
623.844	20.03
624.036	20
624.228	20.06
624.42	20.16
624.613	20.22
624.805	20.13
624.997	20.05
625.189	19.96
625.381	19.88
625.574	19.83
625.766	19.76
625.958	19.79
626.15	19.83
626.342	19.86
626.534	19.83
626.726	19.84
626.918	19.83
627.11	19.74
627.302	19.69
627.494	19.69
627.686	19.73
627.878	19.58
628.07	19.61
628.262	19.54
628.454	19.54
628.646	19.47
628.838	19.51
629.029	19.46
629.221	19.56
629.413	19.45
629.605	19.38
629.797	19.34
629.989	19.3
630.18	19.21
630.372	19.21
630.564	19.19
630.755	19.24
630.947	19.29
631.139	19.17
631.33	19.07
631.522	19.22
631.714	19.16
631.905	19.11
632.097	19.09
632.289	19.11
632.48	18.97
632.672	18.86
632.863	18.65
633.055	18.66
633.246	18.66
633.438	18.52
633.629	18.6
633.821	18.67
634.012	18.65
634.203	18.58
634.395	18.8
634.586	18.8
634.777	18.77
634.969	18.82
635.16	18.9
635.351	18.71
635.543	18.6
635.734	18.71
635.925	18.63
636.117	18.65
636.308	18.66
636.499	18.63
636.69	18.45
636.881	18.44
637.073	18.48
637.264	18.5
637.455	18.61
637.646	18.74
637.837	18.7
638.028	18.53
638.219	18.58
638.41	18.41
638.601	18.34
638.792	18.37
638.983	18.33
639.174	18.28
639.365	18.37
639.556	18.31
639.747	18.3
639.938	18.42
640.129	18.31
640.32	18.23
640.511	18.22
640.701	18.28
640.892	18.16
641.083	18.23
641.274	18.29
641.465	18.21
641.655	18.08
641.846	18.09
642.037	17.91
642.228	17.76
642.418	17.85
642.609	17.88
642.8	17.87
642.99	17.93
643.181	17.99
643.372	17.98
643.562	17.9
643.753	17.8
643.943	17.72
644.134	17.61
644.324	17.49
644.515	17.48
644.705	17.53
644.896	17.61
645.086	17.69
645.277	17.63
645.467	17.71
645.658	17.57
645.848	17.53
646.038	17.46
646.229	17.44
646.419	17.29
646.61	17.33
646.8	17.25
646.99	17.21
647.18	17.14
647.371	17.11
647.561	17.07
647.751	17.17
647.941	17.08
648.132	17.15
648.322	17.18
648.512	17.22
648.702	17.16
648.892	17.18
649.082	17.05
649.272	16.9
649.462	16.7
649.653	16.54
649.843	16.49
650.033	16.54
650.223	16.54
650.413	16.51
650.603	16.54
650.793	16.55
650.983	16.45
651.172	16.3
651.362	16.29
651.552	16.18
651.742	16.04
651.932	16.01
652.122	16.12
652.312	16.1
652.502	16.1
652.691	16.09
652.881	16.03
653.071	15.88
653.261	15.68
653.45	15.47
653.64	15.45
653.83	15.3
654.019	15.22
654.209	15.22
654.399	15.22
654.588	15.03
654.778	14.89
654.968	14.76
655.157	14.63
655.347	14.49
655.536	14.34
655.726	14.26
655.915	14.05
656.105	14.01
656.294	13.91
656.484	13.78
656.673	13.64
656.863	13.63
657.052	13.43
657.241	13.24
657.431	13.02
657.62	12.96
657.809	12.59
657.999	12.43
658.188	12.25
658.377	12.11
658.567	11.93
658.756	11.98
658.945	11.82
659.134	11.68
659.324	11.61
659.513	11.46
659.702	11.21
659.891	11.12
660.08	11.01
660.269	10.9
660.458	10.7
660.648	10.59
660.837	10.42
661.026	10.36
661.215	10.23
661.404	10.11
661.593	10.07
661.782	9.92
661.971	9.8
662.16	9.64
662.349	9.58
662.538	9.31
662.726	9.34
662.915	9.16
663.104	9.03
663.293	8.99
663.482	9.13
663.671	9.02
663.86	8.9
664.048	8.85
664.237	8.73
664.426	8.43
664.615	8.41
664.803	8.37
664.992	8.36
665.181	8.24
665.369	8.22
665.558	8.06
665.747	8.03
665.935	7.97
666.124	8.02
666.312	8.07
666.501	7.99
666.69	7.83
666.878	7.77
667.067	7.59
667.255	7.54
667.444	7.77
667.632	7.88
667.82	7.93
668.009	7.94
668.197	7.96
668.386	7.79
668.574	7.95
668.762	7.83
668.951	7.83
669.139	7.88
669.327	7.76
669.516	7.69
669.704	7.72
669.892	7.85
670.08	7.77
670.269	7.73
670.457	7.57
670.645	7.46
670.833	7.57
671.021	7.54
671.21	7.66
671.398	7.99
671.586	7.97
671.774	7.75
671.962	7.83
672.15	7.79
672.338	7.48
672.526	7.64
672.714	7.55
672.902	7.55
673.09	7.74
673.278	7.96
673.466	8.05
673.654	8.33
673.842	8.34
674.03	8.26
674.218	8.2
674.405	8.19
674.593	8.1
674.781	8.23
674.969	8.33
675.157	8.51
675.344	8.63
675.532	8.7
675.72	8.69
675.908	8.75
676.095	8.53
676.283	8.63
676.471	8.82
676.658	8.83
676.846	8.77
677.033	9.02
677.221	8.93
677.409	8.81
677.596	8.88
677.784	9.04
677.971	9.02
678.159	9.18
678.346	9.29
678.534	9.44
678.721	9.56
678.909	9.61
679.096	9.76
679.283	10.08
679.471	10.13
679.658	10.18
679.846	10.43
680.033	10.54
680.22	10.44
680.408	10.57
680.595	10.64
680.782	10.61
680.969	10.62
681.157	10.72
681.344	10.77
681.531	10.71
681.718	10.84
681.905	11.09
682.093	11.33
682.28	11.55
682.467	11.93
682.654	12.04
682.841	12.04
683.028	12.27
683.215	12.39
683.402	12.35
683.589	12.59
683.776	12.88
683.963	12.75
684.15	12.91
684.337	13.26
684.524	13.47
684.711	13.69
684.898	13.85
685.085	14.21
685.271	14.54
685.458	14.8
685.645	14.98
685.832	15.44
686.019	15.72
686.205	15.78
686.392	15.96
686.579	16.28
686.766	16.74
686.952	16.99
687.139	17.59
687.326	17.84
687.512	18.14
687.699	18.29
687.886	18.61
688.072	18.84
688.259	19.43
688.445	19.99
688.632	20.31
688.818	20.91
689.005	21.27
689.191	21.48
689.378	22.09
689.564	22.74
689.751	23.07
689.937	23.47
690.124	24.18
690.31	24.37
690.496	24.66
690.683	25.19
690.869	25.81
691.055	26.34
691.242	27.15
691.428	27.85
691.614	28.52
691.8	29.27
691.987	29.95
692.173	30.48
692.359	31.08
692.545	31.8
692.731	32.24
692.918	32.88
693.104	33.43
693.29	34.25
693.476	34.71
693.662	35.46
693.848	35.86
694.034	36.35
694.22	36.73
694.406	37.27
694.592	37.9
694.778	38.57
694.964	39.22
695.15	40.21
695.336	40.95
695.522	41.58
695.708	42.2
695.894	42.87
696.08	43.37
696.265	43.85
696.451	44.56
696.637	45.24
696.823	45.82
697.009	46.25
697.194	46.8
697.38	47.19
697.566	47.84
697.751	48.46
697.937	49.18
698.123	49.69
698.308	50.4
698.494	50.94
698.68	51.41
698.865	51.99
699.051	52.78
699.236	53.24
699.422	53.69
699.607	54.12
699.793	54.44
699.978	54.72
700.164	54.99
700.349	55.92
700.535	56.4
700.72	57.04
700.906	57.95
701.091	58.27
701.276	58.09
701.462	59.04
701.647	59.65
701.832	59.96
702.018	60.86
702.203	61.46
702.388	61.36
702.573	61.54
702.759	62.17
702.944	62.4
703.129	62.72
703.314	62.99
703.499	63.31
703.684	63.34
703.87	64.3
704.055	65.31
704.24	65.8
704.425	66.62
704.61	66.96
704.795	66.75
704.98	66.5
705.165	66.64
705.35	66.76
705.535	67.28
705.72	67.68
705.905	68.21
706.09	69.15
706.275	69.21
706.459	69.16
706.644	69.35
706.829	69.6
707.014	69.42
707.199	69.65
707.384	70.02
707.568	70.35
707.753	70.69
707.938	70.99
708.123	71.25
708.307	71.38
708.492	71.52
708.677	71.84
708.861	72.34
709.046	72.37
709.231	73.11
709.415	73.51
709.6	73.25
709.784	73.09
709.969	73.45
710.153	73.25
710.338	73.15
710.522	73.45
710.707	74.25
710.891	74.2
711.076	74.52
711.26	74.62
711.445	74.76
711.629	74.21
711.813	74.8
711.998	74.96
712.182	74.92
712.366	75.62
712.551	76.7
712.735	76.6
712.919	76.54
713.103	77.12
713.288	76.72
713.472	76.34
713.656	76.96
713.84	77.63
714.024	77.92
714.208	77.78
714.393	78.07
714.577	78.29
714.761	78.22
714.945	78.3
715.129	78.6
715.313	78.4
715.497	78.03
715.681	78.23
715.865	77.95
716.049	78.12
716.233	78.06
716.417	78.18
716.601	78.05
716.785	77.94
716.968	78.09
717.152	78.49
717.336	78.85
717.52	78.7
717.704	79.33
717.888	79.77
718.071	79.97
718.255	79.84
718.439	80.42
718.622	80.47
718.806	80.38
718.99	80.03
719.174	80.35
719.357	80.23
719.541	80.35
719.724	80.45
719.908	81.34
720.092	81.24
720.275	81.35
720.459	81.41
720.642	81.23
720.826	80.97
721.009	81.03
721.193	80.64
721.376	81.05
721.559	81.66
721.743	81.68
721.926	82.21
722.11	82.61
722.293	81.94
722.476	82.08
722.66	81.83
722.843	81.49
723.026	81.09
723.21	81.97
723.393	82.26
723.576	82.67
723.759	82.48
723.942	83.32
724.126	83
724.309	82.68
724.492	82.88
724.675	82.78
724.858	82.75
725.041	83.35
725.224	82.92
725.407	83.03
725.59	83.56
725.774	83.55
725.957	82.58
726.14	82.39
726.322	82.56
726.505	82.49
726.688	83.3
726.871	83.76
727.054	84.87
727.237	84.65
727.42	84.94
727.603	84.39
727.786	84.23
727.968	84.23
728.151	84.5
728.334	84.2
728.517	84.44
728.699	85.25
728.882	84.82
729.065	85.15
729.248	85.81
729.43	86.19
729.613	86.34
729.796	86.97
729.978	86.14
730.161	85.7
730.343	85.14
730.526	85.49
730.708	85.17
730.891	85.77
731.073	85.85
731.256	85.48
731.438	85.11
731.621	85.72
731.803	85.87
731.986	86.31
732.168	86.52
732.35	86.56
732.533	86.15
732.715	85.86
732.898	86.6
733.08	86.6
733.262	87.47
733.444	87.5
733.627	87.71
733.809	87.32
733.991	88.54
734.173	87.59
734.355	87.43
734.538	87.78
734.72	87.21
734.902	86.43
735.084	86.84
735.266	87.04
735.448	87.58
735.63	87.71
735.812	87.99
735.994	89.06
736.176	89.59
736.358	89.55
736.54	91.01
736.722	91.01
736.904	89.56
737.086	89.49
737.268	89.71
737.45	89.1
737.632	89.05
737.814	89.02
737.995	88.98
738.177	88.65
738.359	87.9
738.541	88.4
738.723	89.42
738.904	89.9
739.086	89.95
739.268	90.73
739.449	90.78
739.631	89.88
739.813	89.87
739.994	90.26
740.176	90.63
740.358	90.36
740.539	91.39
740.721	91.23
740.902	91.94
741.084	91.42
741.265	91.71
741.447	91.33
741.628	91.81
741.81	90.44
741.991	90.83
742.172	91.43
742.354	92.19
742.535	91.43
742.717	91.87
742.898	92.23
743.079	92.03
743.261	91.38
743.442	90.83
743.623	91.87
743.804	91.08
743.986	91.19
744.167	89.8
744.348	90.51
744.529	89.35
744.71	88.87
744.891	88.51
745.073	88.71
745.254	88.08
745.435	88.1
745.616	87.63
745.797	87.77
745.978	88.06
746.159	89.13
746.34	88.62
746.521	90.56
746.702	89.52
746.883	89.54
747.064	88.53
747.245	88.7
747.426	87.88
747.606	88.02
747.787	89
747.968	90.04
748.149	90.44
748.33	90.19
748.51	90.44
748.691	89.34
748.872	89.22
749.053	88.93
749.233	88.48
749.414	88.36
749.595	88.5
749.775	86.97
749.956	86.76
750.137	86.52
750.317	87.37
750.498	88.51
750.678	90.22
750.859	90.53
751.04	91.56
751.22	89.57
751.4	87.38
751.581	85.21
751.761	85.23
751.942	85.25
752.122	85.8
752.303	86.24
752.483	87.15
752.663	86.06
752.844	84.71
753.024	86.72
753.204	88.9
753.385	88.73
753.565	88.88
753.745	90.22
753.925	88.83
754.106	87.4
754.286	88.24
754.466	88.78
754.646	88.55
754.826	88.11
755.006	86.55
755.187	86.66
755.367	87.16
755.547	86.15
755.727	86.92
755.907	88.16
756.087	88
756.267	86.02
756.447	86.8
756.627	84.39
756.807	85.3
756.987	85.58
757.167	87.16
757.346	86.98
757.526	88.18
757.706	88.31
757.886	87.9
758.066	88.49
758.246	90.82
758.425	90.94
758.605	89.73
758.785	89.87
758.965	88.83
759.144	85.35
759.324	86.04
759.504	86.71
759.683	86.1
759.863	85.17
760.043	84.79
760.222	83.68
760.402	82.37
760.581	81.95
760.761	84.16
760.94	84.08
761.12	84.84
761.299	85.95
761.479	85.83
761.658	84.31
761.838	84.78
762.017	84.58
762.197	84.73
762.376	85.21
762.555	87.02
762.735	87.42
762.914	86.22
763.093	86.1
763.273	85.5
763.452	84.01
763.631	84.75
763.81	85.27
763.99	84.77
764.169	85.48
764.348	83
764.527	81.29
764.706	83.43
764.885	84.59
765.064	82.53
765.243	84.98
765.423	86.13
765.602	84.8
765.781	81.88
765.96	81.62
766.139	79.45
766.318	80.35
766.497	79
766.676	80.74
766.854	83.93
767.033	84.53
767.212	83.82
767.391	84.13
767.57	84.35
767.749	83.14
767.928	82.02
768.106	80.3
768.285	78.58
768.464	78.63
768.643	77.73
768.821	80.68
769	82.46
769.179	83.13
769.357	81.21
769.536	82.21
769.715	82.03
769.893	85.59
770.072	85.54
770.25	88.37
770.429	87.95
770.607	87.09
770.786	83.97
770.964	85.55
771.143	83.42
771.321	84.78
771.5	84.97
771.678	83.27
771.857	82.23
772.035	82.59
772.213	80.22
772.392	77.92
772.57	81.05
772.748	81.04
772.927	80.12
773.105	79.31
773.283	81.71
773.461	79.98
773.64	81.14
773.818	80.25
773.996	82.02
774.174	80.43
774.352	78.09
774.531	74.58
774.709	77.49
774.887	76.39
775.065	76.6
775.243	77.41
775.421	78.98
775.599	80.59
775.777	78.33
775.955	76.65
776.133	76.22
776.311	77.69
776.489	73.16
776.667	74.56
776.844	75.7
777.022	75
777.2	74.69
777.378	75.76
777.556	77.89
777.734	79.89
777.911	82.96
778.089	80.81
778.267	81.02
778.445	78.18
778.622	77.6
778.8	75.7
778.978	78.63
779.155	75.22
779.333	76.92
779.511	75.28
779.688	76.67
779.866	70.07
780.043	72.26
780.221	73.71
780.398	74.09
780.576	75.48
780.753	80.23
780.931	79.57
781.108	79.81
781.286	79.73
781.463	77.25
781.64	74.44
781.818	77.47
781.995	75.99
782.172	77.15
782.35	76.66
782.527	81.62
782.704	79.1
782.882	78.51
783.059	76.4
783.236	78.3
783.413	76.61
783.59	77.24
783.768	73.72
783.945	76.4
784.122	73.77
784.299	73.3
784.476	70.65
784.653	71
784.83	68.35
785.007	65.62
785.184	64.93
785.361	65.72
785.538	72.22
785.715	76.61
785.892	79.55
786.069	82.63
786.246	84.79
786.423	80.19
786.6	75.28
786.776	76.43
786.953	72.9
787.13	75.49
787.307	75.23
787.484	77.16
787.66	74.5
787.837	75.33
788.014	70.23
788.191	69.38
788.367	67.31
788.544	71.31
788.721	70.21
788.897	71.81
789.074	74.68
789.25	73.19
789.427	69.53
789.603	70.21
789.78	72.79
789.956	70.32
790.133	69.97
790.309	71.94
790.486	74.36
790.662	73.61
790.839	73.42
791.015	76.51
791.192	75.82
791.368	76.08
791.544	70.96
791.721	70.17
791.897	70.93
792.073	68.57
792.249	61.98
792.426	69.23
792.602	74.26
792.778	72.08
792.954	70.24
793.13	71.67
793.307	63.09
793.483	53.05
793.659	54.12
793.835	62.39
794.011	64.93
794.187	64.88
794.363	68.21
794.539	71
794.715	61.94
794.891	62.1
795.067	64
795.243	67.59
795.419	61.89
795.595	62.83
795.771	61.8
795.947	66.08
796.122	63.18
796.298	66.98
796.474	66.63
796.65	68.07
796.826	63.71
797.001	62.69
797.177	60.2
797.353	64.93
797.529	63.55
797.704	64
797.88	65.59
798.056	61.63
798.231	57.6
798.407	63.82
798.582	63.7
798.758	73.51
798.934	84.66
799.109	81.77
799.285	76.69
799.46	80.98
799.636	74.43
799.811	64.59
799.986	72.9
800.162	76.21
800.337	75.88
800.513	72.36
800.688	75.91
800.863	82.09
801.039	71.91
801.214	64.38
801.389	66.76
801.565	69.48
801.74	52.45
801.915	65.95
802.09	70.12
802.265	73.51
802.441	64.68
802.616	70.67
802.791	63.07
802.966	60.91
803.141	58.98
803.316	61.84
803.491	66.82
803.666	69.96
803.841	73.62
804.016	70.12
804.191	75.91
804.366	68.68
804.541	64.71
804.716	60.84
804.891	55.48
805.066	52.8
805.241	51.55
805.416	49.97
805.591	47.7
805.765	55.15
805.94	58.69
806.115	58.36
806.29	51.28
806.464	53.29
806.639	47.27
806.814	38.85
806.989	35.44
807.163	49.93
807.338	53.43
807.512	54.39
807.687	41.18
807.862	52.98
808.036	55.67
808.211	55.07
808.385	65.29
808.56	83.02
808.734	96.54
808.909	86.64
809.083	83.16
809.258	79.88
809.432	75.33
809.606	51.88
809.781	58.95
809.955	66.88
810.13	64.23
810.304	59.79
810.478	55.71
810.652	53.21
810.827	50.19
811.001	44.89
811.175	40.48
811.349	46.76
811.524	41.17
811.698	31.83
811.872	36.56
812.046	47.68
812.22	53.58
812.394	58.74
812.568	67.8
812.742	71.45
812.916	72.12
813.09	63.4
813.264	59.6
813.438	54.12
813.612	49.92
813.786	46.3
813.96	61.64
814.134	65.08
814.308	78.94
814.482	86.42
814.656	81.37
814.83	78.61
815.003	78.33
815.177	62
815.351	48.76
815.525	52.1
815.698	36.92
815.872	26.11
816.046	19
816.219	30.88
816.393	39.13
816.567	50.39
816.74	54.52
816.914	68.41
817.088	72.61
817.261	64.52
817.435	50.73
817.608	53.91
817.782	47.66
817.955	34.81
818.129	28.1
818.302	37.58
818.475	55.46
818.649	56.99
818.822	47.32
818.996	69.38
819.169	78.02
819.342	61.73
819.516	69.75
819.689	81.76
819.862	69.34
820.035	59.22
820.209	52.23
820.382	49.78
820.555	53.43
820.728	44.54
820.901	37.4
821.075	42.18
821.248	45.33
821.421	41.71
821.594	41.44
821.767	74.91
821.94	84.35
822.113	56.82
822.286	49.56
822.459	68.08
822.632	52.59
822.805	46.4
822.978	51.4
823.151	55.15
823.324	35.07
823.496	14.88
823.669	1.09
823.842	8.76
824.015	-14.48
824.188	-29.29
824.361	-22.14
824.533	-15
824.706	-17.81
824.879	2.79
825.051	24.99
825.224	23.41
825.397	18.31
825.569	23.81
825.742	32.54
825.915	32.88
826.087	51.22
826.26	47.72
826.432	47.09
826.605	48.59
826.777	40.91
826.95	33.1
827.122	20.06
827.295	26.02
827.467	20.67
827.64	-9.05
827.812	-7.95
827.984	6.81
828.157	-6.58
828.329	-31.33
828.501	-2.51
828.674	16.47
828.846	10.66
829.018	24.9
829.19	15.42
829.363	36.66
829.535	33.13
829.707	47.83
829.879	26.91
830.051	30.68
830.223	6.53
830.395	-21.54
830.568	-49.35
830.74	-40.65
830.912	-3.82
831.084	-27.71
831.256	-25.97
831.428	-26.18
831.6	-39.71
831.772	-77.6
831.943	-80.34
832.115	-48.79
832.287	-9.46
832.459	8.52
832.631	21.52
832.803	49.76
832.975	68.01
833.146	37.83
833.318	27.59
833.49	36.69
833.662	16.98
833.833	6.33
834.005	9.33
834.177	13.25
834.348	2.97
834.52	10.1
834.692	13.62
834.863	1.14
835.035	16.64
835.206	-5.84
835.378	3.99
835.549	-7.38
835.721	5.94
835.892	-16.15
836.064	-6.87
836.235	-14.52
836.407	-3.79
836.578	-34.21
836.749	-0.25
836.921	-18.95
837.092	-50.74
837.264	-52.21
837.435	-53.15
837.606	-26.29
837.777	6.2
837.949	32.58
838.12	32.42
838.291	39.27
838.462	32.97
838.633	-0.98
838.805	-4.73
838.976	-14.29
839.147	-62.55
839.318	-88.27
839.489	-133.94
839.66	-134.31
839.831	-56.7
840.002	-39.95
840.173	-38.12
840.344	24.6
840.515	0.17
840.686	-191.96
840.857	-160.23
841.028	-137.18
841.199	-123.14
841.369	-127.83
841.54	-108.36
841.711	-61.47
841.882	-49.82
842.053	-37.15
842.223	-36.74
842.394	-7.06
842.565	12.32
842.736	19.25
842.906	26.97
843.077	46.18
843.248	94.16
843.418	70.99
843.589	52.48
843.759	79.56
843.93	62.06
844.101	4.12
844.271	2.58
844.442	23.64
844.612	34.99
844.783	9.88
844.953	-15.99
845.123	-5.65
845.294	-50.62
845.464	-240.6
845.635	-44.39
845.805	54.67
845.975	46.07
846.146	25.87
846.316	11.39
846.486	21.73
846.656	39.17
846.827	29.89
846.997	23.92
847.167	22.47
847.337	-5.16
847.507	-56.21
847.677	-49.26
847.848	20.08
848.018	33.16
848.188	32.36
848.358	19.81
848.528	-5.33
848.698	-62.78
848.868	-167.86
849.038	-268.91
849.208	-111.16
849.378	-26.83
849.548	-13.61
849.718	5.78
849.887	36.84
850.057	16
850.227	-25.73
850.397	-59.47
850.567	-161.3
850.737	-424.78
850.906	-1318.75
851.076	-885.16
851.246	-323.04
851.415	1.57
851.585	-22.34
851.755	-63.08
851.924	-49.67
852.094	-91.37
852.264	-232.74
852.433	-1545.19
852.603	-291.58
852.772	-289.42
852.942	-130.68
853.111	-118.07
853.281	-34.66
853.45	-23.91
853.62	-69.04
853.789	-67.35
853.959	-36.45
854.128	-46.84
854.297	-46.85
854.467	-53.25
854.636	-85.69
854.805	-25.64
854.975	-84.56
855.144	-189.59
855.313	-167.13
855.482	-314.6
855.652	-285.92
855.821	-153.2
855.99	-19.6
856.159	-2.35
856.328	3.85
856.497	-10.31
856.667	7.39
856.836	3.78
857.005	-14.41
857.174	-48.74
857.343	-69.69
857.512	-57.88
857.681	-62.33
857.85	-133.39
858.019	-78.21
858.188	-56.49
858.356	-82.77
858.525	-145.64
858.694	-106.21
858.863	-164.51
859.032	-139.97
859.201	-213.82
859.369	-140.56
859.538	-131.28
859.707	-110.15
859.876	-114.86
860.044	-121.71
860.213	-16.02
860.382	-22.68
860.55	-14.76
860.719	22.11
860.888	41.3
861.056	1.72
861.225	-16.13
861.393	36.63
861.562	27.06
861.73	-51.95
861.899	-167.54
862.067	-793.1
862.236	-69.43
862.404	-153.6
862.572	-73
862.741	31.81
862.909	-5.33
863.078	-133.9
863.246	-131.54
863.414	-121.2
863.582	-115.83
863.751	-100.88
863.919	-85.47
864.087	-19.97
864.255	-15.93
864.424	-323.51
864.592	-61.55
864.76	-60.04
864.928	-227.2
865.096	-181.21
865.264	-155.8
865.432	-1879.55
865.6	-229
865.768	-167.69
865.936	-162.72
866.104	-195.55
866.272	-274.38
866.44	-512.2
866.608	744.57
866.776	345.5
866.944	2537.21
867.112	-510.59
867.28	-198.09
867.448	-54.19
867.615	-2.53
867.783	9.22
867.951	8.72
868.119	62.65
868.286	21.95
868.454	-101.49
868.622	-95.7
868.789	-78.57
868.957	-3400
869.125	-2136.84
869.292	-75.68
869.46	-268.75
869.627	-46.24
869.795	-47.26
869.963	-25.07
870.13	-19.02
870.298	12.43
870.465	-111.22
870.632	-103.95
870.8	-62.29
870.967	-100.46
871.135	-159.79
871.302	-89.16
871.469	-100.66
871.637	-148.04
871.804	-103.38
871.971	-167.59
872.139	-486.51
872.306	-69.41
872.473	-116.49
872.64	-527.47
872.807	-138.96
872.975	2.44
873.142	-259.27
873.309	2364.86
873.476	29.85
873.643	51.19
873.81	-22.94
873.977	56.37
874.144	69.42
874.311	-47.06
874.478	-98.98
874.645	-160.21
874.812	-123.93
874.979	-30.07
875.146	-39.05
875.313	-55.45
875.48	65.02
875.647	27.89
875.813	-26.5
875.98	-16.94
876.147	-40.81
876.314	-121.91
876.481	1273.55
876.647	-1508.99
876.814	596.37
876.981	-104.62
877.147	-60.76
877.314	12.35
877.481	39.35
877.647	38.58
877.814	-22.02
877.98	-79.69
878.147	-17.88
878.314	24.97
878.48	-38.13
878.647	28.34
878.813	81.32
878.979	60.54
879.146	12.99
879.312	25.5
879.479	-54.65
879.645	-173.4
879.811	-337.54
879.978	-931.3
880.144	-265.17
880.31	-140.25
880.477	-352.58
880.643	-440.14
880.809	-130.44
880.975	-113.32
881.142	-852.73
881.308	-101.17
881.474	-40
881.64	-100.58
881.806	-207.19
881.972	-78.43
882.138	-146.56
882.304	-217.58
882.47	-308.49
882.636	-916.39
882.802	-236.62
882.968	-26.86
883.134	-23.26
883.3	-25.17
883.466	13.34
883.632	47.08
883.798	-1.61
883.964	-4.71
884.129	24.22
884.295	51.12
884.461	-64.62
884.627	-94.66
884.793	-99.11
884.958	-77.75
885.124	-215.98
885.29	-271.52
885.455	-411.65
885.621	-190.42
885.787	-254.24
885.952	-74.96
886.118	-95.95
886.283	-100.33
886.449	-154.41
886.614	-94.11
886.78	-246.54
886.945	1134.43
887.111	-625.43
887.276	-619.89
887.442	-1422.73
887.607	-531.6
887.773	-302.55
887.938	-204.18
888.103	-251.39
888.269	-114.46
888.434	-301.08
888.599	-105.69
888.764	-0.98
888.93	19.31
889.095	2.76
889.26	-59.12
889.425	-44.2
889.59	-32.12
889.756	-58.21
889.921	-38.16
890.086	45.84
890.251	45.43
890.416	-84.9
890.581	-970.97
890.746	193.57
890.911	488.54
891.076	224.81
891.241	-601.49
891.406	-62.71
891.571	-131.28
891.736	-430.28
891.901	-620.35
892.065	734.07
892.23	189.46
892.395	246.97
892.56	299.71
892.725	-446.88
892.889	-1321.95
893.054	-128.39
893.219	-55.48
893.384	-39.76
893.548	-106.06
893.713	-127.94
893.878	-98.6
