Data from Ofra_2a_PS_2GT31_Reflection_1.txt Node
Date: Tue Jul 20 09:41:20 EDT 2021
User: Adam
Spectrometer: FLMT01687
Trigger mode: 0
Integration Time (sec): 9.450000E-1
Scans to average: 3
Electric dark correction enabled: true
Nonlinearity correction enabled: false
Boxcar width: 3
XAxis mode: Wavelengths
Number of Pixels in Spectrum: 3648
>>>>>Begin Spectral Data<<<<<
179.494	604.14
179.716	362.24
179.937	390.66
180.158	1823.83
180.38	-1224.71
180.601	-195.26
180.823	-44.45
181.044	-122.01
181.265	-56.1
181.486	65.13
181.708	1316.3
181.929	382.21
182.15	1192.61
182.372	-52.98
182.593	-35.87
182.814	41.17
183.035	-131.51
183.257	-38.13
183.478	-26.76
183.699	-36.19
183.92	-3.04
184.141	3.14
184.363	0.56
184.584	1.9
184.805	5.96
185.026	-24.88
185.247	-2.59
185.468	-11.99
185.689	-14.39
185.91	-23.87
186.132	-11.99
186.353	-28.54
186.574	-10.1
186.795	-29.66
187.016	-17.86
187.237	-10.31
187.458	-15.79
187.679	-33.83
187.9	-17.65
188.121	1.52
188.342	20.94
188.563	25.08
188.784	17.79
189.005	40.2
189.226	31.51
189.447	32.41
189.667	17.07
189.888	23.58
190.109	17.33
190.33	14.76
190.551	-4.86
190.772	4.99
190.993	15.87
191.214	20.79
191.434	12.24
191.655	16.26
191.876	23.72
192.097	28.9
192.318	31.33
192.538	20.55
192.759	18.17
192.98	10.36
193.201	20.59
193.421	18.69
193.642	15.83
193.863	1.66
194.083	-6.56
194.304	-10.5
194.525	18.34
194.745	-15.38
194.966	-13.48
195.187	-0.13
195.407	2.31
195.628	9.85
195.848	9.19
196.069	9.8
196.29	3.13
196.51	-1.72
196.731	-1.1
196.951	3.12
197.172	7.92
197.392	18.21
197.613	8.48
197.833	9.83
198.054	10.05
198.274	-15.35
198.495	-19.93
198.715	-35.23
198.936	-53.66
199.156	-47.72
199.377	-18.34
199.597	-14.55
199.817	-0.16
200.038	0.85
200.258	4.99
200.479	16.37
200.699	23.34
200.919	-7.09
201.14	-6.59
201.36	6.67
201.58	18.81
201.801	18.12
202.021	12.02
202.241	2.37
202.461	20.8
202.682	27.95
202.902	21.97
203.122	16.68
203.342	36.93
203.563	39.83
203.783	48.32
204.003	48.59
204.223	48.68
204.443	45.42
204.663	43.12
204.884	24.28
205.104	11.7
205.324	15.05
205.544	14.68
205.764	-9.89
205.984	-5.67
206.204	-8.33
206.424	14.45
206.644	14.67
206.864	5.32
207.084	19.12
207.304	28.59
207.525	28.4
207.745	41.9
207.964	28.74
208.184	35.34
208.404	42.64
208.624	8.7
208.844	-7.63
209.064	-1.45
209.284	-2.29
209.504	4.26
209.724	-24.2
209.944	-40.48
210.164	-7.03
210.384	0.12
210.604	-23.17
210.823	-35.32
211.043	-69.64
211.263	-34.21
211.483	-21.98
211.703	-23.11
211.922	-17.7
212.142	-5.94
212.362	-3.03
212.582	22.83
212.801	7.09
213.021	3.8
213.241	-1.2
213.461	1.45
213.68	5.44
213.9	0.1
214.12	-14.56
214.339	-15.95
214.559	-4.61
214.779	-9.02
214.998	-4.6
215.218	-3.48
215.438	7.8
215.657	10.47
215.877	13.46
216.096	9.65
216.316	10.6
216.535	1.11
216.755	-20.74
216.974	-26.62
217.194	-28.37
217.413	-8.58
217.633	-16.09
217.852	-16.68
218.072	-21.34
218.291	11.64
218.511	11.11
218.73	9.27
218.95	-3.93
219.169	-2.63
219.389	-1.89
219.608	9.96
219.827	-7.02
220.047	-3.01
220.266	1.29
220.485	1.9
220.705	-5.71
220.924	-2.95
221.143	-8.77
221.363	-7.31
221.582	-17.28
221.801	-15.9
222.021	-8.61
222.24	-3.72
222.459	-9.35
222.678	-15.34
222.897	-14.18
223.117	-6.84
223.336	-2.98
223.555	-4.48
223.774	4.09
223.993	16.76
224.213	14.7
224.432	32.32
224.651	43.42
224.87	31.74
225.089	45.4
225.308	39.45
225.527	32
225.746	32.8
225.965	25.06
226.184	8.95
226.404	4.89
226.623	-0.8
226.842	0.6
227.061	6.74
227.28	15.73
227.499	22.77
227.718	24.92
227.936	28.21
228.155	20.94
228.374	16.09
228.593	7.61
228.812	2.47
229.031	-15.21
229.25	1.33
229.469	3.34
229.688	12.14
229.907	6.67
230.125	16.46
230.344	15.28
230.563	28.49
230.782	14.58
231.001	19.74
231.22	7.05
231.438	19.81
231.657	24.32
231.876	28.07
232.095	28.27
232.313	34.23
232.532	24.44
232.751	39.1
232.969	38.32
233.188	31.57
233.407	31.8
233.625	19.64
233.844	16.87
234.063	10.2
234.281	4.52
234.5	2.13
234.719	-1.05
234.937	-2.55
235.156	0.24
235.374	-9.63
235.593	-4.09
235.811	-5.07
236.03	3.7
236.249	9.13
236.467	15.53
236.686	21.73
236.904	23.02
237.123	29.36
237.341	25.24
237.559	17.16
237.778	23.63
237.996	21.57
238.215	18.29
238.433	27.17
238.652	22.12
238.87	13.95
239.088	9.79
239.307	8.6
239.525	-0.68
239.743	-7.35
239.962	-14.95
240.18	-8.29
240.398	4.14
240.617	22.2
240.835	27.96
241.053	41.07
241.271	41.56
241.49	32.75
241.708	36.14
241.926	17.69
242.144	15.82
242.363	4.18
242.581	7.76
242.799	9.01
243.017	17.76
243.235	-3.2
243.453	7.06
243.672	2.92
243.89	8.83
244.108	11.84
244.326	6.56
244.544	4.3
244.762	16.95
244.98	20.54
245.198	7
245.416	12.94
245.634	10.25
245.852	24.88
246.07	26.1
246.288	26.76
246.506	29.29
246.724	39.01
246.942	27.55
247.16	23.37
247.378	6.01
247.596	1.95
247.814	-5.18
248.032	-12.45
248.25	-16.68
248.468	-9.36
248.685	-6.68
248.903	-11.93
249.121	0.61
249.339	7.27
249.557	20.41
249.775	17.05
249.992	9.41
250.21	4.6
250.428	21.69
250.646	15.7
250.863	17.66
251.081	4.6
251.299	20.8
251.517	26.24
251.734	18.82
251.952	5.37
252.17	-8.45
252.387	-9.56
252.605	-0.23
252.823	-26.95
253.04	-3.07
253.258	13.47
253.475	16.97
253.693	19.33
253.911	22.91
254.128	16.06
254.346	18.85
254.563	-1.4
254.781	-10.33
254.998	-9.38
255.216	-0.01
255.433	-0.01
255.651	-5.27
255.868	-2.53
256.086	0.91
256.303	17.88
256.521	11.85
256.738	3.89
256.956	-2.88
257.173	10.96
257.39	12.74
257.608	14.73
257.825	-5.38
258.043	5.14
258.26	-2.45
258.477	2.97
258.695	-4.93
258.912	1.77
259.129	-0.74
259.346	16.26
259.564	15.31
259.781	27.77
259.998	30.23
260.216	44.04
260.433	35.93
260.65	47.47
260.867	28.6
261.084	35.45
261.302	27.93
261.519	18.42
261.736	-5.95
261.953	-4.36
262.17	-15.25
262.387	1.23
262.604	-22.09
262.822	-13.19
263.039	-2.04
263.256	1.77
263.473	-4.49
263.69	-1.95
263.907	-2.53
264.124	0.4
264.341	-5.77
264.558	-4.74
264.775	6.89
264.992	13.8
265.209	19.85
265.426	16.07
265.643	19.45
265.86	25.21
266.077	26.31
266.294	22.34
266.51	27.42
266.727	22.6
266.944	27.31
267.161	25.6
267.378	11.95
267.595	-0.58
267.812	3.69
268.028	-3.34
268.245	3.9
268.462	0.72
268.679	-4.52
268.896	-3.46
269.112	11.66
269.329	10.48
269.546	3.87
269.763	6.44
269.979	6.35
270.196	9.29
270.413	10.44
270.629	4.58
270.846	7.84
271.063	6.52
271.279	1.18
271.496	-12.3
271.712	-11.1
271.929	-8.09
272.146	-7.57
272.362	-32.85
272.579	-29.48
272.795	-40.47
273.012	-20.75
273.228	-26.34
273.445	-20.21
273.661	-20.08
273.878	-2.5
274.094	3.62
274.311	13
274.527	11.99
274.744	15.81
274.96	9.22
275.177	13.1
275.393	12.09
275.609	14.37
275.826	15.36
276.042	35.59
276.259	34.55
276.475	32.1
276.691	37.18
276.908	34.82
277.124	34.3
277.34	29.46
277.557	21.01
277.773	21.65
277.989	24.58
278.205	4.68
278.422	8.94
278.638	17.56
278.854	28.09
279.07	12.37
279.286	7.73
279.503	0.44
279.719	19.59
279.935	11.35
280.151	13.53
280.367	-2.4
280.583	6.96
280.799	6.09
281.016	17.71
281.232	9.97
281.448	0.58
281.664	-20.66
281.88	-6.72
282.096	-11.5
282.312	-16.91
282.528	-27.16
282.744	-31.29
282.96	-13.57
283.176	-0.09
283.392	1.42
283.608	12.47
283.824	18.09
284.04	24.85
284.256	35.1
284.471	34.3
284.687	27.75
284.903	29.97
285.119	12.86
285.335	14.91
285.551	13.9
285.767	10.74
285.982	5.37
286.198	2.75
286.414	9.02
286.63	22.87
286.846	21.49
287.061	16.75
287.277	21.57
287.493	26.29
287.709	26.11
287.924	23.69
288.14	20.46
288.356	31.52
288.571	26.56
288.787	18.68
289.003	17.5
289.218	18.41
289.434	13.97
289.65	12.78
289.865	13.09
290.081	18.49
290.296	21.12
290.512	29.34
290.727	38.99
290.943	32.27
291.159	30.73
291.374	24.01
291.59	14.26
291.805	9.21
292.021	-4.04
292.236	-6.88
292.451	5.91
292.667	9.23
292.882	6.7
293.098	17.4
293.313	14.58
293.529	24.08
293.744	26.74
293.959	24.58
294.175	30.19
294.39	34.9
294.605	26.13
294.821	30.55
295.036	21.39
295.251	13.43
295.467	7.01
295.682	10.84
295.897	13.23
296.112	20.24
296.328	23.14
296.543	16.45
296.758	13.32
296.973	20.72
297.188	18.96
297.404	21.9
297.619	20.76
297.834	31.63
298.049	39.86
298.264	38.76
298.479	27.54
298.694	35.99
298.909	28.04
299.125	24.81
299.34	7.5
299.555	7.27
299.77	9.14
299.985	9.49
300.2	1.06
300.415	7.3
300.63	4.57
300.845	17.2
301.06	14.02
301.275	12.2
301.49	20
301.704	17.24
301.919	11.93
302.134	11.37
302.349	-0.15
302.564	0.95
302.779	5.61
302.994	4.16
303.209	10.82
303.423	20.22
303.638	26.84
303.853	36.03
304.068	34.75
304.283	31.76
304.497	24.13
304.712	25.42
304.927	16.98
305.142	11.85
305.356	5.1
305.571	16.68
305.786	13.96
306	15.42
306.215	6.98
306.43	19.7
306.644	25.05
306.859	27.27
307.074	9.73
307.288	2.98
307.503	6.86
307.717	3.51
307.932	-1.04
308.147	-0.79
308.361	-9.11
308.576	0.52
308.79	2.89
309.005	3.57
309.219	8.75
309.434	0.2
309.648	-12.38
309.863	0.59
310.077	-11.12
310.292	-3.72
310.506	9.2
310.72	15.21
310.935	22.5
311.149	31.53
311.364	29.09
311.578	31.84
311.792	28.77
312.007	16.38
312.221	12.25
312.435	14.64
312.649	-26.83
312.864	-38.72
313.078	-39.08
313.292	-34.17
313.507	-30.61
313.721	-40.25
313.935	-24.57
314.149	19.35
314.363	23.2
314.578	51.39
314.792	42.5
315.006	44.26
315.22	50.66
315.434	45.47
315.648	37.51
315.862	37.54
316.077	19.29
316.291	17.52
316.505	16.86
316.719	-0.28
316.933	-1.91
317.147	2.56
317.361	4.17
317.575	2.85
317.789	13
318.003	13.59
318.217	18.88
318.431	18.51
318.645	15.85
318.859	6.68
319.073	5.82
319.287	6.94
319.5	3.9
319.714	10.05
319.928	10.97
320.142	7.97
320.356	21.76
320.57	16.64
320.784	18.52
320.997	26.87
321.211	20.1
321.425	14.15
321.639	26.51
321.853	13.62
322.066	13.85
322.28	10.82
322.494	8.31
322.707	5.47
322.921	5.44
323.135	-3.07
323.349	9.31
323.562	12.03
323.776	12.84
323.989	8.27
324.203	10.94
324.417	9.2
324.63	-0.08
324.844	-11.81
325.057	-4.09
325.271	-20.22
325.485	-13.44
325.698	-12.21
325.912	0.97
326.125	12.44
326.339	17.55
326.552	20.35
326.766	32.73
326.979	30.03
327.193	33.34
327.406	28.49
327.619	16.94
327.833	18.6
328.046	8.67
328.26	4.44
328.473	3.16
328.686	-4.8
328.9	-8.44
329.113	0.88
329.326	7.02
329.54	12.53
329.753	18.8
329.966	16.13
330.179	24.89
330.393	28.16
330.606	23.63
330.819	23.64
331.032	20.55
331.246	17.5
331.459	24.68
331.672	16.97
331.885	6.37
332.098	11.1
332.311	-5.84
332.525	1.33
332.738	3.46
332.951	3.3
333.164	3.44
333.377	4.44
333.59	5.7
333.803	15.23
334.016	9.79
334.229	11.18
334.442	9.8
334.655	13.02
334.868	23.91
335.081	34.13
335.294	26.98
335.507	29.64
335.72	16.41
335.933	18.17
336.146	20.97
336.359	17.54
336.572	8.21
336.785	13.26
336.997	2.34
337.21	12.53
337.423	12.23
337.636	15.42
337.849	12.14
338.062	5.83
338.274	6.54
338.487	13.7
338.7	15.72
338.913	6.62
339.125	-2.11
339.338	5.3
339.551	12.21
339.763	10.43
339.976	13.78
340.189	5.4
340.402	5.68
340.614	11.25
340.827	1.04
341.039	3.35
341.252	3.45
341.465	-8.28
341.677	-7.59
341.89	-2.96
342.102	-2.87
342.315	6.59
342.527	-8.46
342.74	-6.37
342.952	4.37
343.165	9.71
343.377	12.02
343.59	12.76
343.802	4.17
344.015	18.42
344.227	8.13
344.44	5.28
344.652	10.31
344.864	7.77
345.077	8.86
345.289	20.4
345.502	13.42
345.714	19.2
345.926	16.85
346.139	10.6
346.351	-7.15
346.563	-5.89
346.775	-12.35
346.988	-11.57
347.2	-6
347.412	0.18
347.624	2.4
347.837	13.62
348.049	12.65
348.261	13.49
348.473	15.18
348.685	19.03
348.897	13.39
349.11	17
349.322	15.96
349.534	13.8
349.746	16.43
349.958	19.66
350.17	10.63
350.382	8.43
350.594	-0.01
350.806	5.95
351.018	9.79
351.23	10.16
351.442	9.22
351.654	16.76
351.866	19.17
352.078	16.3
352.29	20.81
352.502	16.08
352.714	17.73
352.926	18.61
353.138	17.7
353.35	18.88
353.561	18.83
353.773	17.04
353.985	24.56
354.197	16.49
354.409	12.76
354.621	12.78
354.832	4.22
355.044	20.48
355.256	13.53
355.468	6.54
355.679	16.22
355.891	19.45
356.103	17.77
356.314	22.56
356.526	6.2
356.738	-0.14
356.949	-2.1
357.161	-7.33
357.373	-11.84
357.584	-7.06
357.796	-2.48
358.008	1.27
358.219	19.76
358.431	20.82
358.642	26.84
358.854	29.31
359.065	26.59
359.277	21.53
359.488	19.7
359.7	12.61
359.911	17.43
360.123	14.8
360.334	4.76
360.546	-5.1
360.757	6.26
360.969	12.28
361.18	4.52
361.391	-0.69
361.603	-0.93
361.814	9.62
362.025	11.54
362.237	3.94
362.448	5.6
362.659	0.94
362.871	12.08
363.082	10.3
363.293	10.66
363.504	18.08
363.716	17.13
363.927	14.14
364.138	21.1
364.349	16.33
364.56	12.9
364.772	12.41
364.983	6.07
365.194	2.63
365.405	1.03
365.616	-1.57
365.827	-3.41
366.038	18.08
366.25	12.02
366.461	22.79
366.672	26.77
366.883	28.98
367.094	21.73
367.305	24.83
367.516	8.09
367.727	8.9
367.938	3.3
368.149	4.35
368.36	7.58
368.571	8.81
368.781	7
368.992	10.64
369.203	8.36
369.414	8.91
369.625	7.74
369.836	6.26
370.047	7.88
370.258	8.64
370.468	4.02
370.679	7.19
370.89	23.74
371.101	23.67
371.312	18.19
371.522	20.61
371.733	13.51
371.944	20.18
372.155	13.79
372.365	-7.78
372.576	-4.15
372.787	-5.88
372.997	-7.8
373.208	0.12
373.419	-6.9
373.629	10.42
373.84	7.32
374.05	12.43
374.261	15.93
374.472	21.05
374.682	13.06
374.893	9.1
375.103	1.01
375.314	6.6
375.524	-2.39
375.735	-6.77
375.945	-10.83
376.156	0.05
376.366	3.23
376.577	4.48
376.787	-0
376.997	1.56
377.208	4.07
377.418	8.5
377.629	1.21
377.839	8.57
378.049	7.94
378.26	11.56
378.47	17.05
378.68	14.69
378.89	7.74
379.101	3.56
379.311	-5.02
379.521	-1.56
379.732	-12.49
379.942	-17.57
380.152	-10.3
380.362	-1.58
380.572	5.12
380.783	7.1
380.993	0.46
381.203	9.46
381.413	10.39
381.623	10.6
381.833	5.17
382.043	3.34
382.253	7.33
382.463	11.6
382.674	11.7
382.884	7.53
383.094	12.04
383.304	9.82
383.514	16.01
383.724	12.97
383.934	10.33
384.144	12.59
384.353	14.1
384.563	11.06
384.773	16.09
384.983	12
385.193	14.04
385.403	18.58
385.613	15.03
385.823	14.02
386.033	10.19
386.242	9.19
386.452	8.42
386.662	6.8
386.872	1.65
387.082	2.36
387.291	5.59
387.501	7.19
387.711	5.13
387.921	2
388.13	1.61
388.34	1.72
388.55	1.99
388.759	-2.92
388.969	-6.4
389.179	-2.35
389.388	1.58
389.598	0.87
389.807	0.38
390.017	0.73
390.227	3.09
390.436	5.17
390.646	4.47
390.855	3.1
391.065	3.45
391.274	5.21
391.484	6.91
391.693	8.69
391.903	8.77
392.112	7.86
392.322	8.51
392.531	8.81
392.74	7.52
392.95	6.47
393.159	6.6
393.369	6.16
393.578	5.62
393.787	6.08
393.997	6.75
394.206	7.26
394.415	7.05
394.625	5.3
394.834	4.85
395.043	5.28
395.252	5.48
395.462	5.01
395.671	4.92
395.88	4.48
396.089	4.92
396.298	5.74
396.508	5.85
396.717	5.13
396.926	4.77
397.135	4.58
397.344	4.68
397.553	5.15
397.762	5.02
397.971	4.7
398.181	4.69
398.39	5
398.599	5.12
398.808	5.31
399.017	5.17
399.226	5.05
399.435	5.33
399.644	5.4
399.853	5.53
400.062	5.4
400.27	5.32
400.479	5.22
400.688	5.14
400.897	5.2
401.106	5.4
401.315	5.13
401.524	5.23
401.733	5.42
401.941	5.46
402.15	5.41
402.359	5.35
402.568	5.11
402.777	5.11
402.985	5.14
403.194	4.98
403.403	4.72
403.612	4.77
403.82	4.82
404.029	4.77
404.238	4.8
404.446	4.72
404.655	4.69
404.864	4.71
405.072	4.72
405.281	4.58
405.489	4.59
405.698	4.5
405.906	4.42
406.115	4.44
406.324	4.37
406.532	4.35
406.741	4.42
406.949	4.41
407.158	4.47
407.366	4.57
407.574	4.56
407.783	4.61
407.991	4.56
408.2	4.47
408.408	4.46
408.617	4.4
408.825	4.38
409.033	4.28
409.242	4.33
409.45	4.31
409.658	4.28
409.867	4.18
410.075	4.13
410.283	4.02
410.491	4.01
410.7	3.97
410.908	4.08
411.116	4.03
411.324	4.2
411.533	4.15
411.741	4.2
411.949	4.29
412.157	4.38
412.365	4.29
412.573	4.3
412.781	4.26
412.99	4.37
413.198	4.43
413.406	4.37
413.614	4.3
413.822	4.31
414.03	4.24
414.238	4.28
414.446	4.15
414.654	4.02
414.862	3.94
415.07	3.94
415.278	3.83
415.486	3.94
415.694	3.81
415.902	3.89
416.109	3.93
416.317	3.96
416.525	3.96
416.733	4.1
416.941	4.02
417.149	4.11
417.357	4.11
417.564	4.07
417.772	4.07
417.98	4.04
418.188	3.8
418.395	3.81
418.603	3.66
418.811	3.56
419.019	3.65
419.226	3.68
419.434	3.59
419.642	3.76
419.849	3.8
420.057	3.86
420.265	3.87
420.472	3.77
420.68	3.68
420.887	3.78
421.095	3.78
421.302	3.76
421.51	3.76
421.717	3.82
421.925	3.8
422.132	3.77
422.34	3.68
422.547	3.62
422.755	3.58
422.962	3.5
423.17	3.42
423.377	3.53
423.585	3.53
423.792	3.59
423.999	3.53
424.207	3.48
424.414	3.61
424.621	3.64
424.829	3.62
425.036	3.59
425.243	3.69
425.451	3.83
425.658	3.85
425.865	3.72
426.072	3.76
426.28	3.7
426.487	3.71
426.694	3.59
426.901	3.41
427.108	3.43
427.315	3.51
427.523	3.44
427.73	3.49
427.937	3.59
428.144	3.63
428.351	3.72
428.558	3.63
428.765	3.46
428.972	3.48
429.179	3.35
429.386	3.22
429.593	3.15
429.8	3.2
430.007	3.33
430.214	3.41
430.421	3.41
430.628	3.35
430.835	3.41
431.042	3.43
431.249	3.45
431.456	3.45
431.662	3.54
431.869	3.61
432.076	3.73
432.283	3.67
432.49	3.72
432.697	3.68
432.903	3.7
433.11	3.65
433.317	3.67
433.524	3.64
433.73	3.75
433.937	3.71
434.144	3.78
434.35	3.77
434.557	3.74
434.764	3.66
434.97	3.76
435.177	3.74
435.384	3.79
435.59	3.75
435.797	3.81
436.003	3.86
436.21	3.87
436.416	3.86
436.623	3.9
436.829	3.95
437.036	4.02
437.242	3.93
437.449	3.98
437.655	4.05
437.862	4.02
438.068	4.06
438.275	4.03
438.481	4.02
438.687	4.14
438.894	4.12
439.1	4.13
439.307	4.18
439.513	4.15
439.719	4.21
439.926	4.19
440.132	4.14
440.338	4.19
440.544	4.14
440.751	4.14
440.957	4.07
441.163	4.07
441.369	4.09
441.575	4.06
441.782	4.01
441.988	4.07
442.194	4.1
442.4	4.18
442.606	4.23
442.812	4.24
443.018	4.32
443.224	4.38
443.431	4.44
443.637	4.42
443.843	4.47
444.049	4.43
444.255	4.42
444.461	4.45
444.667	4.44
444.873	4.4
445.079	4.43
445.284	4.38
445.49	4.38
445.696	4.41
445.902	4.41
446.108	4.4
446.314	4.43
446.52	4.48
446.726	4.56
446.931	4.57
447.137	4.6
447.343	4.61
447.549	4.62
447.755	4.61
447.96	4.56
448.166	4.56
448.372	4.59
448.578	4.59
448.783	4.6
448.989	4.61
449.195	4.58
449.4	4.62
449.606	4.6
449.812	4.64
450.017	4.65
450.223	4.62
450.428	4.67
450.634	4.74
450.84	4.71
451.045	4.75
451.251	4.73
451.456	4.72
451.662	4.73
451.867	4.7
452.073	4.68
452.278	4.71
452.483	4.65
452.689	4.67
452.894	4.7
453.1	4.68
453.305	4.69
453.51	4.75
453.716	4.72
453.921	4.78
454.127	4.76
454.332	4.73
454.537	4.78
454.742	4.83
454.948	4.78
455.153	4.83
455.358	4.85
455.563	4.86
455.769	4.87
455.974	4.85
456.179	4.79
456.384	4.79
456.589	4.8
456.795	4.74
457	4.73
457.205	4.69
457.41	4.67
457.615	4.76
457.82	4.85
458.025	4.84
458.23	4.87
458.435	4.86
458.64	4.94
458.845	4.91
459.05	4.9
459.255	4.86
459.46	4.87
459.665	4.95
459.87	5
460.075	5.02
460.28	5.14
460.485	5.12
460.69	5.09
460.895	5.11
461.099	5.08
461.304	5.02
461.509	4.98
461.714	4.95
461.919	4.96
462.123	5.03
462.328	5.03
462.533	5.06
462.738	5.13
462.942	5.2
463.147	5.25
463.352	5.33
463.556	5.31
463.761	5.34
463.966	5.36
464.17	5.42
464.375	5.37
464.58	5.35
464.784	5.36
464.989	5.34
465.193	5.39
465.398	5.42
465.602	5.43
465.807	5.46
466.011	5.44
466.216	5.42
466.42	5.48
466.625	5.52
466.829	5.58
467.034	5.59
467.238	5.66
467.443	5.72
467.647	5.75
467.851	5.78
468.056	5.74
468.26	5.64
468.464	5.64
468.669	5.71
468.873	5.7
469.077	5.73
469.282	5.75
469.486	5.78
469.69	5.85
469.894	5.94
470.099	5.94
470.303	5.99
470.507	6.02
470.711	6.01
470.915	6.08
471.119	6.09
471.324	6.06
471.528	6.1
471.732	6.14
471.936	6.18
472.14	6.23
472.344	6.21
472.548	6.3
472.752	6.36
472.956	6.37
473.16	6.36
473.364	6.31
473.568	6.32
473.772	6.38
473.976	6.35
474.18	6.35
474.384	6.38
474.588	6.43
474.792	6.46
474.995	6.46
475.199	6.5
475.403	6.54
475.607	6.54
475.811	6.52
476.015	6.6
476.218	6.65
476.422	6.78
476.626	6.77
476.83	6.78
477.033	6.83
477.237	6.88
477.441	6.84
477.644	6.88
477.848	6.83
478.052	6.84
478.255	6.86
478.459	6.9
478.663	6.9
478.866	6.95
479.07	6.97
479.273	6.99
479.477	7.08
479.681	7.09
479.884	7.08
480.088	7.13
480.291	7.13
480.495	7.16
480.698	7.17
480.901	7.17
481.105	7.25
481.308	7.29
481.512	7.31
481.715	7.35
481.919	7.37
482.122	7.4
482.325	7.43
482.529	7.43
482.732	7.45
482.935	7.43
483.138	7.44
483.342	7.42
483.545	7.42
483.748	7.44
483.952	7.46
484.155	7.49
484.358	7.48
484.561	7.51
484.764	7.53
484.967	7.58
485.171	7.53
485.374	7.54
485.577	7.55
485.78	7.55
485.983	7.51
486.186	7.53
486.389	7.5
486.592	7.54
486.795	7.56
486.998	7.54
487.201	7.58
487.404	7.69
487.607	7.68
487.81	7.69
488.013	7.66
488.216	7.63
488.419	7.63
488.622	7.62
488.825	7.59
489.028	7.57
489.231	7.59
489.433	7.64
489.636	7.63
489.839	7.66
490.042	7.66
490.245	7.68
490.447	7.7
490.65	7.73
490.853	7.72
491.056	7.72
491.258	7.78
491.461	7.78
491.664	7.73
491.866	7.78
492.069	7.77
492.272	7.79
492.474	7.81
492.677	7.77
492.879	7.8
493.082	7.82
493.285	7.82
493.487	7.8
493.69	7.79
493.892	7.84
494.095	7.83
494.297	7.87
494.5	7.94
494.702	7.94
494.905	7.98
495.107	7.98
495.309	7.96
495.512	8.02
495.714	8.03
495.917	8.04
496.119	8.08
496.321	8.11
496.524	8.18
496.726	8.21
496.928	8.25
497.13	8.3
497.333	8.34
497.535	8.32
497.737	8.33
497.939	8.36
498.142	8.39
498.344	8.37
498.546	8.4
498.748	8.38
498.95	8.41
499.152	8.42
499.355	8.42
499.557	8.45
499.759	8.53
499.961	8.52
500.163	8.58
500.365	8.64
500.567	8.69
500.769	8.73
500.971	8.78
501.173	8.78
501.375	8.83
501.577	8.85
501.779	8.88
501.981	8.9
502.183	8.94
502.385	8.95
502.587	8.97
502.788	9.01
502.99	9.04
503.192	9.08
503.394	9.11
503.596	9.15
503.798	9.22
503.999	9.26
504.201	9.29
504.403	9.34
504.605	9.38
504.806	9.44
505.008	9.43
505.21	9.45
505.411	9.53
505.613	9.55
505.815	9.55
506.016	9.59
506.218	9.61
506.42	9.7
506.621	9.71
506.823	9.73
507.024	9.76
507.226	9.84
507.427	9.85
507.629	9.92
507.83	9.92
508.032	10
508.233	10.03
508.435	10.09
508.636	10.1
508.838	10.13
509.039	10.12
509.24	10.18
509.442	10.17
509.643	10.17
509.845	10.18
510.046	10.27
510.247	10.35
510.448	10.41
510.65	10.45
510.851	10.48
511.052	10.55
511.254	10.59
511.455	10.57
511.656	10.56
511.857	10.6
512.058	10.62
512.26	10.64
512.461	10.66
512.662	10.68
512.863	10.75
513.064	10.78
513.265	10.81
513.466	10.85
513.667	10.88
513.868	10.92
514.069	10.95
514.27	10.99
514.471	11.05
514.672	11.1
514.873	11.16
515.074	11.22
515.275	11.22
515.476	11.24
515.677	11.25
515.878	11.28
516.079	11.33
516.28	11.3
516.481	11.34
516.682	11.41
516.882	11.44
517.083	11.47
517.284	11.44
517.485	11.45
517.686	11.51
517.886	11.48
518.087	11.48
518.288	11.48
518.488	11.5
518.689	11.56
518.89	11.6
519.091	11.65
519.291	11.71
519.492	11.72
519.692	11.77
519.893	11.75
520.094	11.78
520.294	11.75
520.495	11.73
520.695	11.75
520.896	11.77
521.096	11.8
521.297	11.83
521.497	11.85
521.698	11.9
521.898	11.94
522.099	11.97
522.299	12.03
522.499	12.01
522.7	12.04
522.9	12.05
523.101	12.07
523.301	12.09
523.501	12.11
523.702	12.1
523.902	12.14
524.102	12.12
524.302	12.15
524.503	12.16
524.703	12.17
524.903	12.19
525.103	12.24
525.304	12.25
525.504	12.33
525.704	12.34
525.904	12.37
526.104	12.41
526.304	12.42
526.504	12.42
526.705	12.44
526.905	12.44
527.105	12.46
527.305	12.45
527.505	12.47
527.705	12.48
527.905	12.5
528.105	12.55
528.305	12.58
528.505	12.64
528.705	12.68
528.905	12.65
529.105	12.69
529.304	12.74
529.504	12.76
529.704	12.77
529.904	12.8
530.104	12.8
530.304	12.85
530.503	12.9
530.703	12.9
530.903	12.93
531.103	12.95
531.303	12.97
531.502	13
531.702	13.01
531.902	13.01
532.101	13.05
532.301	13.08
532.501	13.09
532.7	13.08
532.9	13.13
533.1	13.16
533.299	13.18
533.499	13.16
533.698	13.23
533.898	13.28
534.097	13.31
534.297	13.32
534.496	13.34
534.696	13.36
534.895	13.46
535.095	13.44
535.294	13.46
535.494	13.49
535.693	13.53
535.892	13.55
536.092	13.56
536.291	13.59
536.491	13.63
536.69	13.67
536.889	13.69
537.088	13.76
537.288	13.85
537.487	13.89
537.686	13.9
537.886	13.92
538.085	13.94
538.284	14
538.483	14.03
538.682	14.02
538.882	14.06
539.081	14.1
539.28	14.11
539.479	14.13
539.678	14.21
539.877	14.23
540.076	14.29
540.275	14.37
540.474	14.36
540.673	14.46
540.872	14.57
541.071	14.57
541.27	14.56
541.469	14.59
541.668	14.62
541.867	14.69
542.066	14.71
542.265	14.74
542.464	14.79
542.663	14.9
542.862	14.97
543.06	15
543.259	15.05
543.458	15.07
543.657	15.11
543.856	15.14
544.054	15.19
544.253	15.22
544.452	15.23
544.651	15.3
544.849	15.37
545.048	15.43
545.247	15.47
545.445	15.5
545.644	15.58
545.843	15.66
546.041	15.75
546.24	15.88
546.438	15.96
546.637	16.05
546.836	16.14
547.034	16.19
547.233	16.25
547.431	16.24
547.63	16.28
547.828	16.34
548.027	16.37
548.225	16.45
548.423	16.54
548.622	16.65
548.82	16.76
549.019	16.83
549.217	16.91
549.415	17.01
549.614	17.06
549.812	17.14
550.01	17.21
550.209	17.32
550.407	17.39
550.605	17.47
550.803	17.59
551.002	17.69
551.2	17.81
551.398	17.89
551.596	17.92
551.794	18
551.993	18.06
552.191	18.17
552.389	18.25
552.587	18.29
552.785	18.41
552.983	18.53
553.181	18.61
553.379	18.74
553.577	18.78
553.775	18.85
553.973	18.95
554.171	19.05
554.369	19.11
554.567	19.21
554.765	19.24
554.963	19.34
555.161	19.45
555.359	19.56
555.557	19.6
555.755	19.72
555.952	19.84
556.15	19.99
556.348	20.12
556.546	20.21
556.744	20.34
556.941	20.51
557.139	20.62
557.337	20.68
557.535	20.82
557.732	20.95
557.93	21.1
558.128	21.18
558.325	21.21
558.523	21.28
558.721	21.45
558.918	21.52
559.116	21.57
559.313	21.7
559.511	21.81
559.708	21.97
559.906	22.09
560.104	22.2
560.301	22.31
560.498	22.42
560.696	22.5
560.893	22.64
561.091	22.74
561.288	22.91
561.486	22.99
561.683	23.09
561.88	23.18
562.078	23.29
562.275	23.39
562.473	23.48
562.67	23.58
562.867	23.7
563.064	23.9
563.262	24.08
563.459	24.21
563.656	24.39
563.853	24.52
564.051	24.6
564.248	24.73
564.445	24.78
564.642	24.88
564.839	24.99
565.036	25.06
565.234	25.23
565.431	25.36
565.628	25.48
565.825	25.6
566.022	25.64
566.219	25.68
566.416	25.77
566.613	25.84
566.81	25.92
567.007	25.99
567.204	26.05
567.401	26.16
567.598	26.26
567.795	26.3
567.991	26.35
568.188	26.43
568.385	26.53
568.582	26.65
568.779	26.7
568.976	26.82
569.172	26.94
569.369	27.01
569.566	27.05
569.763	27.12
569.96	27.18
570.156	27.27
570.353	27.3
570.55	27.38
570.746	27.44
570.943	27.58
571.14	27.63
571.336	27.68
571.533	27.76
571.729	27.86
571.926	27.88
572.123	27.96
572.319	27.96
572.516	27.96
572.712	27.99
572.909	28.1
573.105	28.13
573.302	28.15
573.498	28.18
573.695	28.25
573.891	28.29
574.087	28.35
574.284	28.26
574.48	28.3
574.677	28.34
574.873	28.43
575.069	28.5
575.266	28.55
575.462	28.58
575.658	28.68
575.854	28.68
576.051	28.66
576.247	28.61
576.443	28.59
576.639	28.59
576.835	28.59
577.032	28.61
577.228	28.68
577.424	28.77
577.62	28.87
577.816	28.84
578.012	28.85
578.208	28.83
578.404	28.82
578.6	28.82
578.796	28.82
578.993	28.76
579.189	28.78
579.384	28.72
579.58	28.75
579.776	28.73
579.972	28.69
580.168	28.65
580.364	28.61
580.56	28.59
580.756	28.66
580.952	28.69
581.148	28.71
581.343	28.72
581.539	28.7
581.735	28.75
581.931	28.76
582.127	28.77
582.322	28.72
582.518	28.73
582.714	28.71
582.909	28.75
583.105	28.68
583.301	28.7
583.496	28.68
583.692	28.7
583.888	28.64
584.083	28.64
584.279	28.69
584.474	28.72
584.67	28.72
584.866	28.72
585.061	28.75
585.257	28.77
585.452	28.74
585.648	28.65
585.843	28.69
586.039	28.66
586.234	28.66
586.429	28.69
586.625	28.71
586.82	28.71
587.015	28.76
587.211	28.78
587.406	28.84
587.601	28.83
587.797	28.75
587.992	28.72
588.187	28.81
588.383	28.86
588.578	28.87
588.773	28.88
588.968	28.97
589.163	29.04
589.359	29.07
589.554	29.05
589.749	29.05
589.944	29.07
590.139	29.08
590.334	29.06
590.529	29.16
590.724	29.21
590.919	29.28
591.114	29.31
591.309	29.33
591.504	29.4
591.699	29.44
591.894	29.45
592.089	29.51
592.284	29.53
592.479	29.54
592.674	29.61
592.869	29.66
593.064	29.74
593.259	29.78
593.454	29.82
593.648	29.9
593.843	29.98
594.038	30.02
594.233	30.04
594.428	30.13
594.622	30.21
594.817	30.28
595.012	30.34
595.206	30.42
595.401	30.52
595.596	30.63
595.79	30.69
595.985	30.81
596.18	30.91
596.374	31.03
596.569	31.1
596.763	31.22
596.958	31.31
597.153	31.38
597.347	31.42
597.542	31.51
597.736	31.61
597.931	31.7
598.125	31.76
598.319	31.84
598.514	31.89
598.708	31.94
598.903	32.01
599.097	32.02
599.291	32.11
599.486	32.19
599.68	32.25
599.874	32.39
600.069	32.48
600.263	32.51
600.457	32.56
600.651	32.63
600.846	32.66
601.04	32.66
601.234	32.68
601.428	32.69
601.622	32.75
601.817	32.78
602.011	32.78
602.205	32.81
602.399	32.85
602.593	32.83
602.787	32.88
602.981	32.9
603.175	32.92
603.369	32.97
603.563	32.99
603.757	32.96
603.951	32.95
604.145	32.91
604.339	32.94
604.533	32.94
604.727	32.85
604.921	32.81
605.115	32.82
605.309	32.8
605.502	32.83
605.696	32.72
605.89	32.71
606.084	32.72
606.278	32.68
606.471	32.66
606.665	32.61
606.859	32.51
607.053	32.54
607.246	32.49
607.44	32.44
607.634	32.42
607.827	32.36
608.021	32.3
608.214	32.27
608.408	32.18
608.602	32.1
608.795	32.02
608.989	31.96
609.182	31.97
609.376	31.89
609.569	31.81
609.763	31.81
609.956	31.74
610.15	31.69
610.343	31.59
610.537	31.52
610.73	31.55
610.923	31.46
611.117	31.31
611.31	31.25
611.504	31.24
611.697	31.19
611.89	31.05
612.083	30.87
612.277	30.78
612.47	30.74
612.663	30.69
612.856	30.54
613.05	30.45
613.243	30.4
613.436	30.35
613.629	30.36
613.822	30.24
614.015	30.17
614.209	30.13
614.402	30.03
614.595	29.91
614.788	29.85
614.981	29.7
615.174	29.68
615.367	29.58
615.56	29.48
615.753	29.47
615.946	29.44
616.139	29.42
616.332	29.43
616.525	29.42
616.718	29.38
616.911	29.37
617.103	29.27
617.296	29.24
617.489	29.17
617.682	29.1
617.875	28.95
618.067	28.87
618.26	28.8
618.453	28.78
618.646	28.7
618.838	28.66
619.031	28.56
619.224	28.61
619.417	28.55
619.609	28.53
619.802	28.43
619.994	28.38
620.187	28.35
620.38	28.37
620.572	28.3
620.765	28.29
620.957	28.18
621.15	28.18
621.342	28.2
621.535	28.18
621.727	28.12
621.92	28.12
622.112	28.11
622.305	28.12
622.497	28.11
622.69	28.02
622.882	27.97
623.074	27.98
623.267	27.91
623.459	27.86
623.651	27.83
623.844	27.81
624.036	27.81
624.228	27.82
624.42	27.79
624.613	27.75
624.805	27.75
624.997	27.77
625.189	27.78
625.381	27.71
625.574	27.62
625.766	27.58
625.958	27.58
626.15	27.63
626.342	27.55
626.534	27.43
626.726	27.45
626.918	27.4
627.11	27.38
627.302	27.3
627.494	27.24
627.686	27.22
627.878	27.15
628.07	27.11
628.262	27.1
628.454	27.09
628.646	27.09
628.838	27.01
629.029	26.96
629.221	27.02
629.413	26.95
629.605	26.93
629.797	26.87
629.989	26.8
630.18	26.76
630.372	26.82
630.564	26.84
630.755	26.77
630.947	26.72
631.139	26.66
631.33	26.65
631.522	26.6
631.714	26.48
631.905	26.36
632.097	26.44
632.289	26.41
632.48	26.34
632.672	26.29
632.863	26.29
633.055	26.28
633.246	26.32
633.438	26.28
633.629	26.29
633.821	26.35
634.012	26.38
634.203	26.4
634.395	26.43
634.586	26.34
634.777	26.3
634.969	26.24
635.16	26.19
635.351	26.16
635.543	26.14
635.734	26.08
635.925	26.12
636.117	26.11
636.308	26.12
636.499	26.08
636.69	26.08
636.881	26.1
637.073	26.1
637.264	26.1
637.455	26.12
637.646	26.16
637.837	26.17
638.028	26.2
638.219	26.15
638.41	26.16
638.601	26.15
638.792	26.09
638.983	25.98
639.174	25.98
639.365	25.9
639.556	25.87
639.747	25.88
639.938	25.86
640.129	25.84
640.32	25.87
640.511	25.88
640.701	25.83
640.892	25.79
641.083	25.69
641.274	25.56
641.465	25.57
641.655	25.5
641.846	25.48
642.037	25.49
642.228	25.49
642.418	25.48
642.609	25.49
642.8	25.45
642.99	25.43
643.181	25.41
643.372	25.39
643.562	25.33
643.753	25.28
643.943	25.27
644.134	25.26
644.324	25.27
644.515	25.23
644.705	25.21
644.896	25.16
645.086	25.12
645.277	25.19
645.467	25.16
645.658	25.13
645.848	25.08
646.038	25.03
646.229	25.03
646.419	25.01
646.61	24.91
646.8	24.86
646.99	24.77
647.18	24.71
647.371	24.68
647.561	24.64
647.751	24.61
647.941	24.56
648.132	24.59
648.322	24.6
648.512	24.61
648.702	24.55
648.892	24.56
649.082	24.57
649.272	24.51
649.462	24.46
649.653	24.43
649.843	24.34
650.033	24.31
650.223	24.26
650.413	24.21
650.603	24.2
650.793	24.1
650.983	24.08
651.172	24.09
651.362	24.06
651.552	23.95
651.742	23.9
651.932	23.84
652.122	23.84
652.312	23.73
652.502	23.66
652.691	23.61
652.881	23.55
653.071	23.42
653.261	23.36
653.45	23.27
653.64	23.2
653.83	23.04
654.019	22.92
654.209	22.84
654.399	22.76
654.588	22.64
654.778	22.5
654.968	22.29
655.157	22.16
655.347	21.93
655.536	21.76
655.726	21.58
655.915	21.37
656.105	21.19
656.294	21.06
656.484	20.96
656.673	20.88
656.863	20.66
657.052	20.47
657.241	20.29
657.431	20.11
657.62	19.88
657.809	19.62
657.999	19.41
658.188	19.3
658.377	19.2
658.567	19
658.756	18.81
658.945	18.62
659.134	18.39
659.324	18.15
659.513	17.88
659.702	17.57
659.891	17.33
660.08	17.11
660.269	16.9
660.458	16.74
660.648	16.57
660.837	16.39
661.026	16.23
661.215	16.07
661.404	15.89
661.593	15.69
661.782	15.51
661.971	15.32
662.16	15.12
662.349	14.92
662.538	14.74
662.726	14.46
662.915	14.28
663.104	14.06
663.293	13.91
663.482	13.74
663.671	13.61
663.86	13.43
664.048	13.32
664.237	13.19
664.426	13.1
664.615	12.89
664.803	12.73
664.992	12.61
665.181	12.49
665.369	12.39
665.558	12.28
665.747	12.15
665.935	12.09
666.124	12.01
666.312	11.86
666.501	11.74
666.69	11.65
666.878	11.52
667.067	11.45
667.255	11.37
667.444	11.31
667.632	11.25
667.82	11.19
668.009	11.19
668.197	11.18
668.386	11.09
668.574	11
668.762	10.9
668.951	10.85
669.139	10.83
669.327	10.7
669.516	10.69
669.704	10.66
669.892	10.58
670.08	10.57
670.269	10.49
670.457	10.45
670.645	10.46
670.833	10.35
671.021	10.3
671.21	10.41
671.398	10.42
671.586	10.42
671.774	10.39
671.962	10.37
672.15	10.33
672.338	10.4
672.526	10.35
672.714	10.4
672.902	10.45
673.09	10.51
673.278	10.49
673.466	10.68
673.654	10.72
673.842	10.75
674.03	10.78
674.218	10.83
674.405	10.98
674.593	11.11
674.781	11.08
674.969	11.13
675.157	11.22
675.344	11.26
675.532	11.31
675.72	11.3
675.908	11.34
676.095	11.47
676.283	11.45
676.471	11.49
676.658	11.52
676.846	11.66
677.033	11.73
677.221	11.81
677.409	11.85
677.596	12.07
677.784	12.18
677.971	12.28
678.159	12.38
678.346	12.47
678.534	12.58
678.721	12.68
678.909	12.68
679.096	12.76
679.283	12.92
679.471	13.07
679.658	13.21
679.846	13.35
680.033	13.53
680.22	13.63
680.408	13.78
680.595	13.9
680.782	13.94
680.969	14.08
681.157	14.22
681.344	14.4
681.531	14.65
681.718	14.88
681.905	15.12
682.093	15.47
682.28	15.79
682.467	15.97
682.654	16.14
682.841	16.47
683.028	16.7
683.215	16.94
683.402	17.01
683.589	17.21
683.776	17.49
683.963	17.78
684.15	18
684.337	18.34
684.524	18.62
684.711	18.99
684.898	19.27
685.085	19.66
685.271	20.02
685.458	20.44
685.645	20.71
685.832	21.1
686.019	21.51
686.205	21.86
686.392	22.24
686.579	22.73
686.766	23.12
686.952	23.66
687.139	24.12
687.326	24.6
687.512	25.14
687.699	25.65
687.886	25.99
688.072	26.46
688.259	26.91
688.445	27.34
688.632	27.94
688.818	28.5
689.005	29.12
689.191	29.77
689.378	30.25
689.564	30.83
689.751	31.62
689.937	32.09
690.124	32.63
690.31	33.05
690.496	33.66
690.683	34.36
690.869	34.96
691.055	35.57
691.242	36.25
691.428	36.99
691.614	37.85
691.8	38.55
691.987	39.17
692.173	39.93
692.359	40.56
692.545	41.14
692.731	41.76
692.918	42.31
693.104	42.82
693.29	43.54
693.476	44.07
693.662	44.58
693.848	45.21
694.034	45.75
694.22	46.36
694.406	46.97
694.592	47.6
694.778	48.18
694.964	48.85
695.15	49.56
695.336	50.26
695.522	50.85
695.708	51.6
695.894	52.24
696.08	52.79
696.265	53.35
696.451	54.13
696.637	54.66
696.823	55.26
697.009	55.92
697.194	56.34
697.38	57.05
697.566	57.64
697.751	58.02
697.937	58.54
698.123	58.99
698.308	59.24
698.494	59.7
698.68	60.06
698.865	60.62
699.051	61.08
699.236	61.61
699.422	62.05
699.607	62.51
699.793	63.01
699.978	63.45
700.164	63.66
700.349	63.96
700.535	64.27
700.72	64.69
700.906	65.11
701.091	65.43
701.276	65.9
701.462	66.41
701.647	66.67
701.832	67.1
702.018	67.44
702.203	67.65
702.388	67.93
702.573	68.19
702.759	68.47
702.944	68.92
703.129	69.07
703.314	69.27
703.499	69.73
703.684	70.12
703.87	70.31
704.055	70.46
704.24	70.73
704.425	71.15
704.61	71.41
704.795	71.51
704.98	71.78
705.165	71.98
705.35	72.11
705.535	72.43
705.72	72.6
705.905	72.63
706.09	72.8
706.275	72.71
706.459	73.12
706.644	73.46
706.829	73.52
707.014	73.6
707.199	73.82
707.384	74.2
707.568	74.57
707.753	74.7
707.938	74.88
708.123	74.88
708.307	75.29
708.492	75.43
708.677	75.56
708.861	75.66
709.046	75.65
709.231	75.79
709.415	76.05
709.6	75.84
709.784	76.13
709.969	76.29
710.153	76.72
710.338	76.69
710.522	76.71
710.707	76.59
710.891	76.86
711.076	76.92
711.26	76.87
711.445	76.76
711.629	77.25
711.813	77.24
711.998	77.52
712.182	77.75
712.366	78
712.551	78.14
712.735	78.02
712.919	78.08
713.103	78.2
713.288	78.22
713.472	78.15
713.656	77.89
713.84	77.92
714.024	78.31
714.208	78.26
714.393	78.53
714.577	78.78
714.761	78.84
714.945	79.04
715.129	79.1
715.313	78.89
715.497	79.06
715.681	79.29
715.865	79.18
716.049	79.38
716.233	79.91
716.417	80.12
716.601	80.24
716.785	80.15
716.968	79.98
717.152	80.19
717.336	80.27
717.52	80.1
717.704	80.2
717.888	80.5
718.071	80.67
718.255	80.89
718.439	80.87
718.622	81.08
718.806	80.89
718.99	80.74
719.174	80.51
719.357	80.47
719.541	80.42
719.724	80.78
719.908	80.47
720.092	80.71
720.275	80.96
720.459	81.27
720.642	81.27
720.826	81.24
721.009	81.21
721.193	81.18
721.376	81.34
721.559	81.18
721.743	81.29
721.926	81.27
722.11	81.47
722.293	81.05
722.476	81.17
722.66	81.06
722.843	81.52
723.026	81.57
723.21	81.8
723.393	81.72
723.576	81.88
723.759	82.13
723.942	82.34
724.126	82.02
724.309	81.98
724.492	81.75
724.675	81.89
724.858	82.28
725.041	82.29
725.224	82.16
725.407	82.1
725.59	82.01
725.774	82.22
725.957	82.33
726.14	82.28
726.322	82.19
726.505	82.41
726.688	82.75
726.871	83.04
727.054	83.13
727.237	82.87
727.42	83.22
727.603	83.39
727.786	83.66
727.968	83.9
728.151	83.89
728.334	83.78
728.517	84.34
728.699	84.32
728.882	84.64
729.065	84.37
729.248	83.9
729.43	83.91
729.613	84.56
729.796	84.32
729.978	84.45
730.161	84.62
730.343	84.76
730.526	85.08
730.708	85.16
730.891	85.22
731.073	85.15
731.256	84.97
731.438	84.94
731.621	85.33
731.803	85.8
731.986	85.88
732.168	85.61
732.35	86.02
732.533	86.15
732.715	86.1
732.898	85.98
733.08	85.93
733.262	85.97
733.444	86.09
733.627	86.09
733.809	86.48
733.991	86.59
734.173	86.38
734.355	86.91
734.538	87.06
734.72	87.45
734.902	87.33
735.084	87
735.266	87.01
735.448	87.09
735.63	86.61
735.812	86.77
735.994	86.12
736.176	86.56
736.358	86.81
736.54	86.73
736.722	86.64
736.904	86.55
737.086	86.32
737.268	86.9
737.45	86.66
737.632	86.43
737.814	86.58
737.995	86.82
738.177	87.3
738.359	87.71
738.541	87.62
738.723	87.75
738.904	87.75
739.086	87.94
739.268	88.05
739.449	87.69
739.631	87.67
739.813	87.42
739.994	87.63
740.176	87.61
740.358	87.21
740.539	87.16
740.721	86.95
740.902	86.76
741.084	87.25
741.265	87.07
741.447	87.02
741.628	87.47
741.81	87.49
741.991	88.06
742.172	88.03
742.354	88.21
742.535	88.38
742.717	88.44
742.898	88.64
743.079	88.85
743.261	88.55
743.442	88.58
743.623	88.44
743.804	88.29
743.986	88.16
744.167	87.16
744.348	86.99
744.529	86.92
744.71	86.11
744.891	86.01
745.073	86.09
745.254	86.42
745.435	86.65
745.616	86.6
745.797	85.97
745.978	87.33
746.159	86.92
746.34	87.13
746.521	87.3
746.702	87.38
746.883	87.13
747.064	87.71
747.245	87.79
747.426	88.66
747.606	87.96
747.787	87.95
747.968	88.25
748.149	88.77
748.33	89.43
748.51	88.65
748.691	88.28
748.872	88.43
749.053	87.94
749.233	87.51
749.414	87.25
749.595	86.54
749.775	86.48
749.956	85.45
750.137	84.93
750.317	85.26
750.498	85.53
750.678	85.54
750.859	85.63
751.04	85.49
751.22	85.18
751.4	86.08
751.581	85.43
751.761	86.03
751.942	86.04
752.122	86.05
752.303	86.22
752.483	87.92
752.663	88.11
752.844	88.28
753.024	88.13
753.204	87.66
753.385	87.42
753.565	86.45
753.745	85.04
753.925	84.53
754.106	84.71
754.286	84.12
754.466	84.19
754.646	84.1
754.826	84.84
755.006	85.01
755.187	85.25
755.367	85.24
755.547	85.38
755.727	85.15
755.907	86.01
756.087	86.81
756.267	86.88
756.447	87.21
756.627	87.31
756.807	88.12
756.987	89.16
757.167	88.55
757.346	87.23
757.526	87.77
757.706	87.08
757.886	86.38
758.066	85.38
758.246	84.94
758.425	85.07
758.605	85.26
758.785	85
758.965	84.14
759.144	84.83
759.324	84.83
759.504	84.08
759.683	83.69
759.863	83.64
760.043	83.03
760.222	83.14
760.402	83.14
760.581	82.93
760.761	82.74
760.94	82.38
761.12	82.74
761.299	82.55
761.479	83.71
761.658	83.09
761.838	83.87
762.017	84.57
762.197	84.64
762.376	84.09
762.555	85.1
762.735	83.68
762.914	84.26
763.093	83.51
763.273	83.38
763.452	83.2
763.631	82.82
763.81	83
763.99	84.07
764.169	83.95
764.348	84.39
764.527	84.1
764.706	84.66
764.885	85.87
765.064	85.22
765.243	84.17
765.423	84.43
765.602	83.08
765.781	82.76
765.96	82.32
766.139	81.48
766.318	80.81
766.497	81.36
766.676	81.75
766.854	82.24
767.033	82.35
767.212	82.23
767.391	82
767.57	82.74
767.749	82.72
767.928	81.21
768.106	81.42
768.285	81.67
768.464	82.11
768.643	82.61
768.821	82.24
769	82.32
769.179	82.05
769.357	82.19
769.536	82.28
769.715	81.79
769.893	81.54
770.072	81.52
770.25	81.05
770.429	81.97
770.607	82.37
770.786	82.07
770.964	82.29
771.143	81.9
771.321	81.24
771.5	80.52
771.678	80.97
771.857	78.99
772.035	79.05
772.213	78.56
772.392	79.07
772.57	79.63
772.748	79.89
772.927	78.78
773.105	80.65
773.283	80.3
773.461	81.53
773.64	80.52
773.818	80.01
773.996	80.4
774.174	81.07
774.352	80.77
774.531	80.43
774.709	78.74
774.887	79.41
775.065	79.72
775.243	80.68
775.421	80.46
775.599	78.57
775.777	78.55
775.955	79.38
776.133	79.47
776.311	79.36
776.489	78.21
776.667	78.01
776.844	79.87
777.022	80.48
777.2	80.08
777.378	80.36
777.556	80.51
777.734	80.61
777.911	80.53
778.089	79.76
778.267	79.52
778.445	78.29
778.622	77.92
778.8	78.56
778.978	77.91
779.155	76.58
779.333	76.09
779.511	75.82
779.688	76.01
779.866	74.85
780.043	74.6
780.221	76.12
780.398	77.89
780.576	77.77
780.753	77.41
780.931	78.34
781.108	79.37
781.286	78.32
781.463	77.47
781.64	76.51
781.818	77.32
781.995	77.75
782.172	77.43
782.35	77.38
782.527	78.04
782.704	78.09
782.882	80.12
783.059	78.81
783.236	80.36
783.413	81.09
783.59	79.78
783.768	78.66
783.945	79.18
784.122	78.73
784.299	78.91
784.476	76.51
784.653	74.63
784.83	74.71
785.007	74.11
785.184	73.51
785.361	71.35
785.538	72.66
785.715	72.86
785.892	72.42
786.069	71.47
786.246	71.58
786.423	72.06
786.6	71.13
786.776	69.88
786.953	69.51
787.13	72.05
787.307	73.56
787.484	73.43
787.66	71.79
787.837	74.3
788.014	73.57
788.191	73.6
788.367	71.87
788.544	72.92
788.721	74.91
788.897	77.12
789.074	76.11
789.25	77.77
789.427	78.52
789.603	80.72
789.78	80.51
789.956	78.15
790.133	78.21
790.309	76.85
790.486	77.26
790.662	77.92
790.839	77.71
791.015	78.69
791.192	79.29
791.368	78.31
791.544	78.02
791.721	76.18
791.897	76.4
792.073	74.8
792.249	76.05
792.426	77.54
792.602	76.93
792.778	75.89
792.954	76.43
793.13	77.33
793.307	75.88
793.483	73
793.659	71.69
793.835	70.82
794.011	71.92
794.187	70.1
794.363	68.83
794.539	69.6
794.715	68.96
794.891	68.66
795.067	69.64
795.243	70.48
795.419	74.34
795.595	72.13
795.771	73.54
795.947	72.12
796.122	72.63
796.298	71.1
796.474	71.12
796.65	69.76
796.826	72.23
797.001	71.72
797.177	72.8
797.353	73.46
797.529	75.06
797.704	72.68
797.88	70.91
798.056	71.33
798.231	71.44
798.407	73.1
798.582	71.29
798.758	70.08
798.934	71.6
799.109	69.79
799.285	68.46
799.46	68.85
799.636	66.34
799.811	68.17
799.986	68.12
800.162	67.5
800.337	70.48
800.513	71.1
800.688	73.8
800.863	76.96
801.039	73.76
801.214	72.36
801.389	72.82
801.565	75.41
801.74	73.09
801.915	69.92
802.09	67.71
802.265	70.57
802.441	74.81
802.616	75.17
802.791	73.32
802.966	76.74
803.141	74.74
803.316	75.23
803.491	70.88
803.666	65.46
803.841	67.53
804.016	66.12
804.191	63.31
804.366	62.1
804.541	61.18
804.716	61.91
804.891	67.73
805.066	65.29
805.241	63.35
805.416	61.56
805.591	65.63
805.765	67.89
805.94	72.6
806.115	67.32
806.29	67.96
806.464	67.5
806.639	68.11
806.814	64
806.989	61.92
807.163	58.4
807.338	59.21
807.512	56.26
807.687	56.4
807.862	58.56
808.036	58.84
808.211	59.7
808.385	56.66
808.56	53.54
808.734	57.23
808.909	59.3
809.083	56.09
809.258	60.12
809.432	57.99
809.606	59.25
809.781	63.28
809.955	65.12
810.13	66.6
810.304	64.74
810.478	63.3
810.652	68.37
810.827	71.33
811.001	71.38
811.175	65.64
811.349	65.02
811.524	69.01
811.698	67.46
811.872	67.26
812.046	64.26
812.22	66.3
812.394	69.76
812.568	76.42
812.742	72.52
812.916	75.01
813.09	70.91
813.264	72.65
813.438	76.12
813.612	73.88
813.786	66.27
813.96	69.53
814.134	71.02
814.308	67.41
814.482	66.86
814.656	65.21
814.83	67.41
815.003	67.23
815.177	67.93
815.351	67.86
815.525	67.16
815.698	65.86
815.872	60.36
816.046	60.24
816.219	57.1
816.393	46.49
816.567	40.63
816.74	47.95
816.914	50.92
817.088	52.9
817.261	52.94
817.435	51.9
817.608	61.85
817.782	70.64
817.955	68.89
818.129	74.68
818.302	72.65
818.475	75.85
818.649	80.24
818.822	83.56
818.996	80.14
819.169	77.76
819.342	68.87
819.516	71.35
819.689	70.57
819.862	63.47
820.035	58.59
820.209	57.59
820.382	54.83
820.555	56.16
820.728	54.69
820.901	51.78
821.075	58.66
821.248	57.82
821.421	54.73
821.594	56.71
821.767	54.91
821.94	46.66
822.113	44.82
822.286	40.83
822.459	42.66
822.632	44.33
822.805	44.66
822.978	47.98
823.151	55.84
823.324	50.5
823.496	43.97
823.669	44.11
823.842	46.86
824.015	45.32
824.188	46.86
824.361	46.38
824.533	49.63
824.706	64.33
824.879	71.75
825.051	68.81
825.224	69.69
825.397	66.52
825.569	65.83
825.742	67.22
825.915	65.64
826.087	56.32
826.26	52.18
826.432	52.54
826.605	50.14
826.777	50.34
826.95	50.01
827.122	46.93
827.295	53.96
827.467	45.91
827.64	37.25
827.812	38.03
827.984	40.22
828.157	45.29
828.329	44.68
828.501	41.18
828.674	44.33
828.846	48.84
829.018	42.2
829.19	40.26
829.363	38.17
829.535	36.54
829.707	32.11
829.879	36.89
830.051	39.25
830.223	37.53
830.395	32.26
830.568	34
830.74	39.45
830.912	42.58
831.084	42.96
831.256	38.35
831.428	45.11
831.6	42.92
831.772	38.84
831.943	38.45
832.115	41.15
832.287	43.38
832.459	49.15
832.631	55.05
832.803	73.66
832.975	73.2
833.146	65.76
833.318	67.1
833.49	69.2
833.662	67.53
833.833	62.41
834.005	55.92
834.177	59.15
834.348	58.12
834.52	53.28
834.692	45.02
834.863	38.41
835.035	36.26
835.206	28.39
835.378	30.39
835.549	32.35
835.721	42.52
835.892	48.17
836.064	51.1
836.235	57.02
836.407	58.26
836.578	59.15
836.749	68.92
836.921	66.68
837.092	67.41
837.264	67.97
837.435	54.47
837.606	56.01
837.777	44.87
837.949	31.97
838.12	24.41
838.291	26.2
838.462	26.43
838.633	29.4
838.805	24.46
838.976	35.16
839.147	34.24
839.318	29.66
839.489	31.05
839.66	31.92
839.831	23.64
840.002	24.77
840.173	31.33
840.344	39.7
840.515	51.63
840.686	49.01
840.857	43.37
841.028	55.74
841.199	61.06
841.369	37.17
841.54	42.65
841.711	43.31
841.882	46.03
842.053	46.11
842.223	36.12
842.394	33.89
842.565	53.75
842.736	31.54
842.906	19.19
843.077	21.65
843.248	34.48
843.418	34.35
843.589	34.35
843.759	24.48
843.93	47.2
844.101	46.41
844.271	47.16
844.442	38.31
844.612	43.9
844.783	26.94
844.953	24.97
845.123	10.72
845.294	11.96
845.464	18.41
845.635	24.48
845.805	28.9
845.975	32.68
846.146	30.71
846.316	43.61
846.486	48.97
846.656	53.55
846.827	45.36
846.997	55.83
847.167	59.68
847.337	59.68
847.507	54.53
847.677	57.79
847.848	57.6
848.018	55.57
848.188	41.12
848.358	55.49
848.528	61.99
848.698	37.21
848.868	9
849.038	10.68
849.208	30.33
849.378	33.34
849.548	28.12
849.718	19.66
849.887	31.24
850.057	46.42
850.227	30.52
850.397	14.21
850.567	14.54
850.737	8.52
850.906	15.15
851.076	12.26
851.246	22.65
851.415	33.44
851.585	35.8
851.755	40.59
851.924	54.84
852.094	58.29
852.264	58.89
852.433	59
852.603	79.47
852.772	75.74
852.942	57.77
853.111	51.21
853.281	51.65
853.45	54.1
853.62	43.27
853.789	27.17
853.959	33.41
854.128	18.82
854.297	3.33
854.467	-9.23
854.636	-0.93
854.805	26.24
854.975	28.67
855.144	26.84
855.313	45.52
855.482	54.23
855.652	59.27
855.821	54.58
855.99	41.44
856.159	28.23
856.328	27.35
856.497	23.87
856.667	41.44
856.836	34.85
857.005	30.1
857.174	34.87
857.343	32.8
857.512	25.67
857.681	23.59
857.85	-7.79
858.019	9.68
858.188	9
858.356	-2.9
858.525	9.4
858.694	35.42
858.863	40.9
859.032	42.29
859.201	38.89
859.369	52.54
859.538	41.55
859.707	56.81
859.876	48.64
860.044	43.93
860.213	40.36
860.382	36.68
860.55	24.36
860.719	36.93
860.888	24.35
861.056	19.65
861.225	26.98
861.393	46.04
861.562	36.88
861.73	28.91
861.899	20.3
862.067	24.74
862.236	17.01
862.404	14.26
862.572	6.16
862.741	9.63
862.909	14.65
863.078	17.91
863.246	8.66
863.414	1.92
863.582	-8.43
863.751	-2.3
863.919	10.13
864.087	12.69
864.255	25.31
864.424	23.42
864.592	25.24
864.76	43.85
864.928	48.38
865.096	35.42
865.264	37.07
865.432	30.14
865.6	13.91
865.768	11.43
865.936	-9.09
866.104	-26.53
866.272	-20.26
866.44	-56.43
866.608	-92.31
866.776	-31.6
866.944	-37.23
867.112	-43.66
867.28	-76.68
867.448	-45.67
867.615	-21.19
867.783	-23.6
867.951	-40.86
868.119	2.59
868.286	18.51
868.454	32.23
868.622	34.66
868.789	45.66
868.957	63.24
869.125	64.99
869.292	61.04
869.46	63.21
869.627	64.55
869.795	60.2
869.963	50.26
870.13	62.42
870.298	55.04
870.465	8.68
870.632	-17.62
870.8	-13.52
870.967	-3.04
871.135	-2.88
871.302	-7.27
871.469	-3.16
871.637	3.23
871.804	15.37
871.971	10.17
872.139	8.64
872.306	2.56
872.473	-19.34
872.64	-19.39
872.807	-15.12
872.975	1.86
873.142	21.54
873.309	-15.86
873.476	5.32
873.643	68.39
873.81	36.34
873.977	-2.65
874.144	-53.9
874.311	-104.39
874.478	-85.37
874.645	-68.25
874.812	-45.21
874.979	-63.52
875.146	-78.37
875.313	-118.4
875.48	-21.64
875.647	-16.65
875.813	-71.97
875.98	-60.59
876.147	5.87
876.314	4.07
876.481	-12.02
876.647	4.43
876.814	18.05
876.981	14.71
877.147	0.12
877.314	-11.51
877.481	12.72
877.647	44.57
877.814	22
877.98	26.25
878.147	40.59
878.314	30.08
878.48	29.23
878.647	44.65
878.813	18.91
878.979	8
879.146	-9.47
879.312	3.82
879.479	13.09
879.645	-10.34
879.811	-37.8
879.978	-37.67
880.144	-50.19
880.31	-52.37
880.477	-82.8
880.643	-180.97
880.809	-15.41
880.975	-65.34
881.142	-21.13
881.308	-13.96
881.474	12.05
881.64	2.56
881.806	1.87
881.972	-30.36
882.138	4.7
882.304	-77.78
882.47	-40.91
882.636	-75.49
882.802	-111.74
882.968	-128.53
883.134	-243.94
883.3	-101.18
883.466	-4.67
883.632	-40
883.798	-16.41
883.964	9.82
884.129	3.33
884.295	4.56
884.461	-27.18
884.627	-68.82
884.793	10.4
884.958	-0.5
885.124	-60.64
885.29	-36.2
885.455	-10.15
885.621	-12.62
885.787	-17.74
885.952	-47.2
886.118	-32.25
886.283	-2.37
886.449	-19.23
886.614	-35.73
886.78	13.88
886.945	-1.59
887.111	9.04
887.276	-23.9
887.442	-29.78
887.607	-48.92
887.773	-52.98
887.938	-90.55
888.103	-46.69
888.269	-41.35
888.434	-44.73
888.599	-9.69
888.764	14.54
888.93	29.29
889.095	16.29
889.26	49.55
889.425	54.27
889.59	38.57
889.756	3.84
889.921	-3.64
890.086	9.34
890.251	7.23
890.416	-75.85
890.581	-79.99
890.746	-61.65
890.911	-116.82
891.076	-155.43
891.241	-200.4
891.406	-56.81
891.571	-13.42
891.736	-11.9
891.901	7.59
892.065	34.14
892.23	8.96
892.395	-34.36
892.56	-73.69
892.725	-69.44
892.889	-104.94
893.054	-190.81
893.219	-255.97
893.384	-332.45
893.548	-650.83
893.713	884.9
893.878	533.7
