Data from Ofra_1a_PS_2GT41_Reflection_1.txt Node
Date: Tue Jul 20 10:50:47 EDT 2021
User: Adam
Spectrometer: FLMT01687
Trigger mode: 0
Integration Time (sec): 1.004000E0
Scans to average: 2
Electric dark correction enabled: true
Nonlinearity correction enabled: false
Boxcar width: 2
XAxis mode: Wavelengths
Number of Pixels in Spectrum: 3648
>>>>>Begin Spectral Data<<<<<
179.494	-599.49
179.716	-725.19
179.937	1481.27
180.158	-1735.67
180.38	151.57
180.601	74.73
180.823	96.95
181.044	78.84
181.265	97.61
181.486	14.7
181.708	27.17
181.929	-9809.09
182.15	99.72
182.372	-431.03
182.593	63.79
182.814	-254.84
183.035	-77.66
183.257	-20.79
183.478	-49.41
183.699	-48.25
183.92	-38.03
184.141	-48.78
184.363	-43
184.584	-41.81
184.805	6.71
185.026	24.09
185.247	25.9
185.468	15.11
185.689	31.18
185.91	11.66
186.132	31.52
186.353	25.79
186.574	14.5
186.795	25.35
187.016	29.8
187.237	14.94
187.458	3.9
187.679	14.21
187.9	-1.76
188.121	-5.13
188.342	4.25
188.563	12.06
188.784	40.79
189.005	43.36
189.226	38.78
189.447	32.7
189.667	15.57
189.888	-13.69
190.109	-57.41
190.33	-49.89
190.551	-46.09
190.772	-33.43
190.993	-40.57
191.214	-18.89
191.434	-56.65
191.655	-93
191.876	-43.61
192.097	-15.3
192.318	14.02
192.538	-12.59
192.759	-3.97
192.98	22.61
193.201	24.68
193.421	10.79
193.642	33.16
193.863	50.53
194.083	31.7
194.304	35.1
194.525	26.05
194.745	18.77
194.966	17.41
195.187	13.37
195.407	4.17
195.628	19.12
195.848	19.98
196.069	-1.49
196.29	13.03
196.51	11.63
196.731	-7.37
196.951	-25.91
197.172	-19.97
197.392	-38.42
197.613	-10.54
197.833	-8.59
198.054	1.9
198.274	21.76
198.495	8.69
198.715	-17.65
198.936	0.63
199.156	-6.14
199.377	-37.08
199.597	-6.77
199.817	-5.69
200.038	-46.01
200.258	-1.77
200.479	18.11
200.699	-1.08
200.919	-4.81
201.14	10.52
201.36	-6.79
201.58	-25.02
201.801	-11.94
202.021	-16.69
202.241	-7.69
202.461	-5.51
202.682	27.17
202.902	22.62
203.122	35.23
203.342	53.93
203.563	41.88
203.783	37.19
204.003	27.71
204.223	31.94
204.443	8.11
204.663	15.56
204.884	11.26
205.104	13.37
205.324	5.25
205.544	-10.76
205.764	10.14
205.984	-3.62
206.204	2.69
206.424	-14.31
206.644	-3.39
206.864	-52.13
207.084	-41.73
207.304	-35.94
207.525	-7.34
207.745	0.19
207.964	3.04
208.184	31.97
208.404	-1.89
208.624	-5.49
208.844	-18.27
209.064	-20.48
209.284	-33.15
209.504	-28.65
209.724	-17.35
209.944	-19.93
210.164	-0.22
210.384	22.58
210.604	16.37
210.823	-15.14
211.043	23.98
211.263	3.98
211.483	6.78
211.703	-0.28
211.922	-19.36
212.142	-43.15
212.362	-32.12
212.582	-48.59
212.801	-55.53
213.021	-37.48
213.241	-44.4
213.461	-42.07
213.68	-4.78
213.9	-7.46
214.12	-11.74
214.339	0.95
214.559	16.89
214.779	-3.98
214.998	-2.52
215.218	13.2
215.438	18.69
215.657	14.85
215.877	-0.22
216.096	28.05
216.316	23.24
216.535	16.29
216.755	29.96
216.974	25.73
217.194	1.17
217.413	-8.91
217.633	-12.62
217.852	-23.29
218.072	-6.91
218.291	0.88
218.511	18.63
218.73	-2.8
218.95	-35.73
219.169	-42.7
219.389	-37.76
219.608	-39.54
219.827	-0.02
220.047	12.25
220.266	8.49
220.485	-0.03
220.705	-4.83
220.924	-24.52
221.143	2.54
221.363	12.45
221.582	9.34
221.801	16.04
222.021	9.98
222.24	5.09
222.459	17.9
222.678	28.72
222.897	4.86
223.117	20.72
223.336	22.99
223.555	26.97
223.774	24.74
223.993	66.91
224.213	72.97
224.432	62
224.651	37.5
224.87	22.31
225.089	8.77
225.308	2.33
225.527	-3.63
225.746	-6.9
225.965	5.3
226.184	-2.55
226.404	-7.99
226.623	5.26
226.842	3.74
227.061	-1.95
227.28	11.9
227.499	13.62
227.718	10.64
227.936	7.72
228.155	5.27
228.374	-10.91
228.593	-2.63
228.812	3.38
229.031	22
229.25	10.84
229.469	9.17
229.688	-1.93
229.907	-1.47
230.125	-7.02
230.344	6.18
230.563	8.54
230.782	15.3
231.001	8.94
231.22	-0.02
231.438	15.33
231.657	25.61
231.876	25.64
232.095	42.58
232.313	42.52
232.532	19.1
232.751	12.67
232.969	10.7
233.188	-12.61
233.407	-9.73
233.625	15.92
233.844	27.04
234.063	24.86
234.281	29.34
234.5	42.29
234.719	26.65
234.937	14.68
235.156	-0.02
235.374	8.45
235.593	3.17
235.811	28.61
236.03	34.5
236.249	40.33
236.467	29.96
236.686	16.18
236.904	2.2
237.123	-8.67
237.341	-23.14
237.559	-26.82
237.778	5.85
237.996	-16.06
238.215	-56.24
238.433	-78.78
238.652	-33.17
238.87	-43.73
239.088	-19.84
239.307	5.03
239.525	9.28
239.743	5.96
239.962	1.23
240.18	4.14
240.398	15.44
240.617	17.54
240.835	23.82
241.053	14.18
241.271	10.06
241.49	3.28
241.708	6.53
241.926	3.9
242.144	28.41
242.363	40.24
242.581	27.99
242.799	22.7
243.017	21.6
243.235	4.34
243.453	-18.67
243.672	5.99
243.89	14.58
244.108	12.34
244.326	12.56
244.544	31.22
244.762	22.01
244.98	28.12
245.198	37.1
245.416	37.29
245.634	30.64
245.852	39.52
246.07	32.86
246.288	25.15
246.506	21.54
246.724	20.54
246.942	10.66
247.16	17.93
247.378	-5.69
247.596	11.34
247.814	-11.77
248.032	-2.05
248.25	3.81
248.468	36.06
248.685	27.76
248.903	24.65
249.121	23.06
249.339	19.74
249.557	7.32
249.775	18.59
249.992	24.24
250.21	31.37
250.428	44.77
250.646	40.27
250.863	32.45
251.081	30.64
251.299	22.54
251.517	4
251.734	4.17
251.952	-1.1
252.17	-3.17
252.387	-3
252.605	-2.11
252.823	-8.61
253.04	36.59
253.258	27.5
253.475	30.36
253.693	28.81
253.911	23.92
254.128	9.81
254.346	34.5
254.563	45.35
254.781	38.98
254.998	49.17
255.216	24.71
255.433	-21.17
255.651	-32.09
255.868	-32.7
256.086	-34.16
256.303	-18.28
256.521	3.35
256.738	-6.38
256.956	6.11
257.173	16.19
257.39	28.53
257.608	13.42
257.825	18.99
258.043	26.44
258.26	11.92
258.477	10.02
258.695	14.33
258.912	-6.21
259.129	-29.24
259.346	-22.78
259.564	-35.63
259.781	-53.17
259.998	-13.42
260.216	9.38
260.433	4.3
260.65	16.08
260.867	22.86
261.084	22.75
261.302	20.39
261.519	28.68
261.736	24.82
261.953	34.06
262.17	32.54
262.387	22.16
262.604	22.65
262.822	16.34
263.039	19.57
263.256	12.88
263.473	14.74
263.69	10.5
263.907	17.51
264.124	15.71
264.341	20.21
264.558	22.13
264.775	27.4
264.992	19.49
265.209	-10.91
265.426	-33.9
265.643	-50.13
265.86	-84.16
266.077	-83.62
266.294	-37.74
266.51	2.7
266.727	9.32
266.944	20.19
267.161	19.81
267.378	29.38
267.595	17.66
267.812	8.41
268.028	-2.31
268.245	-4.39
268.462	-10.62
268.679	-17.24
268.896	2.63
269.112	-0.53
269.329	-10.54
269.546	5.96
269.763	1.99
269.979	-4.66
270.196	6.89
270.413	8.71
270.629	-8.33
270.846	-6.31
271.063	-3.75
271.279	2.41
271.496	7.14
271.712	15.79
271.929	26.86
272.146	45.7
272.362	32.42
272.579	18.11
272.795	-1.76
273.012	8.11
273.228	3.43
273.445	5.87
273.661	14.18
273.878	15.8
274.094	5.3
274.311	0.57
274.527	-17.22
274.744	-13.15
274.96	-0.18
275.177	-10.66
275.393	3.07
275.609	13.67
275.826	2.9
276.042	-0.45
276.259	-0.3
276.475	-20.91
276.691	-34.08
276.908	-22.04
277.124	-32.73
277.34	-26.9
277.557	-28.47
277.773	-17.66
277.989	-13.64
278.205	-0.21
278.422	-8.83
278.638	-3.83
278.854	-14.57
279.07	-11.75
279.286	-24.06
279.503	-2.62
279.719	2.62
279.935	15.63
280.151	0.58
280.367	10.17
280.583	-0.01
280.799	-4.25
281.016	-39.97
281.232	-11.7
281.448	-12.08
281.664	-5.15
281.88	-0.52
282.096	14.16
282.312	8.3
282.528	2.33
282.744	-3.07
282.96	-20.86
283.176	-57.08
283.392	-91.81
283.608	-62.74
283.824	-96.63
284.04	-129.38
284.256	-48.5
284.471	-31.94
284.687	-19.33
284.903	-8.63
285.119	18.75
285.335	14.88
285.551	26.21
285.767	23.44
285.982	29.81
286.198	-6.22
286.414	-2.32
286.63	-32.32
286.846	-42.05
287.061	-14.14
287.277	-6.05
287.493	4.42
287.709	30.63
287.924	40.02
288.14	42.21
288.356	54.57
288.571	54.79
288.787	36.18
289.003	31.41
289.218	14.38
289.434	5.22
289.65	11.35
289.865	19.43
290.081	23.44
290.296	25.81
290.512	24.54
290.727	11.69
290.943	9.25
291.159	9.31
291.374	-7.13
291.59	-9.47
291.805	-11.69
292.021	-6.53
292.236	-20.57
292.451	-11.66
292.667	-13.39
292.882	7.54
293.098	2.63
293.313	6.34
293.529	15.43
293.744	10.51
293.959	4.34
294.175	7.76
294.39	10.02
294.605	7.7
294.821	16.24
295.036	10.18
295.251	6.4
295.467	-1.9
295.682	0.26
295.897	-16.57
296.112	-27.36
296.328	-10.68
296.543	-24.27
296.758	-31.87
296.973	-23.76
297.188	-11.68
297.404	-28.22
297.619	-31.53
297.834	-34.67
298.049	-6.8
298.264	-12.72
298.479	-14.86
298.694	12.09
298.909	14.9
299.125	5.4
299.34	11.5
299.555	14.25
299.77	35.24
299.985	33.65
300.2	39.99
300.415	35.07
300.63	36.15
300.845	19.23
301.06	13.6
301.275	6.82
301.49	10.99
301.704	0.58
301.919	-1.12
302.134	-7.58
302.349	0.91
302.564	-7.09
302.779	-17.55
302.994	1.11
303.209	18.37
303.423	2.19
303.638	6.47
303.853	7.5
304.068	6.12
304.283	15.54
304.497	42.36
304.712	49.42
304.927	42.76
305.142	46.31
305.356	40.68
305.571	34.27
305.786	16.05
306	28.11
306.215	5.45
306.43	-0.38
306.644	-5.36
306.859	-30.32
307.074	-31.51
307.288	-15.79
307.503	-10.09
307.717	-11.6
307.932	5.56
308.147	-1.22
308.361	-12.07
308.576	-20.97
308.79	-14.76
309.005	-22.9
309.219	-16.77
309.434	16.52
309.648	6.67
309.863	8.79
310.077	15.86
310.292	26.81
310.506	11.11
310.72	15.96
310.935	40.51
311.149	43.34
311.364	41.04
311.578	34.51
311.792	48.14
312.007	10.12
312.221	-18.74
312.435	-7.72
312.649	-0.53
312.864	-9.28
313.078	-2.17
313.292	6.97
313.507	18.94
313.721	12.36
313.935	21.87
314.149	10.75
314.363	36.63
314.578	18.25
314.792	10.71
315.006	-9.71
315.22	18.82
315.434	14.47
315.648	14.19
315.862	20.66
316.077	21.49
316.291	12.13
316.505	-31.96
316.719	-36.72
316.933	-39.49
317.147	-19.13
317.361	-22.55
317.575	-3.35
317.789	-6.36
318.003	2.79
318.217	-12.01
318.431	-8.98
318.645	-14.67
318.859	4.05
319.073	12.2
319.287	8.08
319.5	5.78
319.714	-0.6
319.928	-6.23
320.142	-9.68
320.356	2.16
320.57	1.67
320.784	23.15
320.997	6.94
321.211	19.01
321.425	20.11
321.639	21.59
321.853	22.51
322.066	31.8
322.28	27.22
322.494	31.91
322.707	36.13
322.921	30.65
323.135	39.72
323.349	15.33
323.562	4.85
323.776	-0.49
323.989	5.09
324.203	-6.2
324.417	-6.54
324.63	-13.41
324.844	-15.83
325.057	-25.01
325.271	-14.04
325.485	14.2
325.698	31.84
325.912	30.61
326.125	15.77
326.339	20.82
326.552	17.69
326.766	1.36
326.979	7.9
327.193	17.65
327.406	15.29
327.619	11.85
327.833	27.26
328.046	27.31
328.26	18.97
328.473	18.76
328.686	19.75
328.9	9.31
329.113	-11.32
329.326	6.51
329.54	14.71
329.753	17.15
329.966	16.76
330.179	26.63
330.393	22.11
330.606	6.12
330.819	-8.97
331.032	-12.55
331.246	0.89
331.459	19.29
331.672	17.83
331.885	16.48
332.098	14.56
332.311	1.33
332.525	-8.59
332.738	5.37
332.951	9.59
333.164	21.74
333.377	27.32
333.59	19.52
333.803	18.63
334.016	16.6
334.229	18.21
334.442	13.48
334.655	5.86
334.868	0.4
335.081	-5.59
335.294	-21.48
335.507	-14.27
335.72	-6.99
335.933	-5.01
336.146	-8.57
336.359	8.8
336.572	4.78
336.785	11.38
336.997	-0.72
337.21	23.99
337.423	-13.23
337.636	-11.79
337.849	-16.49
338.062	-5.82
338.274	3.58
338.487	1.95
338.7	-3.58
338.913	1.92
339.125	8.4
339.338	-9.56
339.551	5.07
339.763	9.29
339.976	12.32
340.189	1.34
340.402	21.13
340.614	22.18
340.827	18.12
341.039	16.62
341.252	18.66
341.465	1.07
341.677	5.1
341.89	-1.16
342.102	9.05
342.315	11.4
342.527	21.98
342.74	-2.15
342.952	13.55
343.165	-0.38
343.377	7.69
343.59	6.1
343.802	20.68
344.015	20.01
344.227	25.85
344.44	18.5
344.652	10.99
344.864	12.54
345.077	14.01
345.289	19.21
345.502	25.93
345.714	29.31
345.926	26.81
346.139	-0.59
346.351	-0.77
346.563	-0.76
346.775	2.44
346.988	17.27
347.2	29.06
347.412	28.19
347.624	20.59
347.837	23.15
348.049	18.41
348.261	13.17
348.473	-4.06
348.685	-10.01
348.897	-33.34
349.11	-22.78
349.322	-13.27
349.534	7.12
349.746	13.16
349.958	4.42
350.17	-12.76
350.382	10.8
350.594	4.4
350.806	13.2
351.018	28.25
351.23	30.91
351.442	23.2
351.654	24.91
351.866	20.32
352.078	20.39
352.29	9.93
352.502	8.07
352.714	3.97
352.926	6.5
353.138	20.2
353.35	14.77
353.561	15.49
353.773	8.8
353.985	10.72
354.197	-6.87
354.409	0.32
354.621	-12.17
354.832	-13.97
355.044	-24.52
355.256	-22.76
355.468	-23.88
355.679	-4.36
355.891	0.49
356.103	0.35
356.314	10
356.526	4.07
356.738	-1.83
356.949	3.89
357.161	9.64
357.373	5.17
357.584	12.37
357.796	22.28
358.008	23.12
358.219	23.54
358.431	28.48
358.642	24.31
358.854	19.17
359.065	5.54
359.277	8.34
359.488	4.6
359.7	8.96
359.911	-2.1
360.123	15.48
360.334	14.42
360.546	7.25
360.757	15.18
360.969	24.58
361.18	16.87
361.391	20.48
361.603	37.63
361.814	33.42
362.025	31.74
362.237	32.34
362.448	28.91
362.659	6.41
362.871	-21.07
363.082	-25.86
363.293	-42.97
363.504	-52.38
363.716	-27.63
363.927	14.08
364.138	-0.58
364.349	-1.01
364.56	-11.45
364.772	-1.8
364.983	-15.81
365.194	0.43
365.405	16.1
365.616	21.22
365.827	3.48
366.038	10.72
366.25	10.07
366.461	-1.27
366.672	3.48
366.883	7.19
367.094	0.28
367.305	-14.16
367.516	-10.75
367.727	-26.04
367.938	-9.6
368.149	-12.98
368.36	-9.59
368.571	-33.71
368.781	-16.44
368.992	-32.32
369.203	-25.09
369.414	-13.18
369.625	9.88
369.836	17.23
370.047	18.72
370.258	20.96
370.468	8.69
370.679	7.23
370.89	-11.25
371.101	7.54
371.312	2.48
371.522	8.03
371.733	0.96
371.944	-4.79
372.155	-4.92
372.365	-0.49
372.576	-3.84
372.787	8.53
372.997	29.48
373.208	23.48
373.419	19.23
373.629	8.1
373.84	-2.1
374.05	-14
374.261	-31.94
374.472	-21.17
374.682	-3.95
374.893	-8.06
375.103	-0.47
375.314	9.91
375.524	3.5
375.735	5.95
375.945	7.69
376.156	-1.16
376.366	-2.45
376.577	2.53
376.787	6.09
376.997	11.87
377.208	13.87
377.418	13.81
377.629	13.84
377.839	16.16
378.049	16.01
378.26	7.64
378.47	3.08
378.68	8.33
378.89	1.32
379.101	6.02
379.311	8.31
379.521	1.4
379.732	1.22
379.942	-6.09
380.152	-16.06
380.362	-5.77
380.572	10.33
380.783	17.89
380.993	25.77
381.203	21.84
381.413	28.12
381.623	27.7
381.833	23.77
382.043	18.62
382.253	30.62
382.463	31.19
382.674	25.06
382.884	21.31
383.094	24.36
383.304	20.74
383.514	16.58
383.724	10.16
383.934	-0.83
384.144	-0.08
384.353	-0.92
384.563	-5.33
384.773	6.09
384.983	7.09
385.193	8.84
385.403	5.16
385.613	8.79
385.823	5.3
386.033	12
386.242	1.81
386.452	-0.44
386.662	0.92
386.872	3.65
387.082	0.26
387.291	2.25
387.501	7.16
387.711	4.96
387.921	2.92
388.13	6.42
388.34	7.87
388.55	4.74
388.759	0.26
388.969	1.21
389.179	1.07
389.388	-0.71
389.598	-0.15
389.807	-3.46
390.017	-4.79
390.227	-6.59
390.436	-0.48
390.646	2.06
390.855	5.94
391.065	5.03
391.274	2.98
391.484	-0.58
391.693	-4.15
391.903	-3.68
392.112	-4.19
392.322	-2.03
392.531	-1.6
392.74	0.1
392.95	1.18
393.159	2.81
393.369	3.44
393.578	4.49
393.787	4.3
393.997	5.54
394.206	4.89
394.415	5.52
394.625	4.06
394.834	2.42
395.043	1.62
395.252	3.38
395.462	3.16
395.671	3.95
395.88	6.87
396.089	6.39
396.298	5.82
396.508	6.03
396.717	5.58
396.926	4.06
397.135	4.38
397.344	4.13
397.553	3.4
397.762	4.72
397.971	5.46
398.181	5.58
398.39	5.17
398.599	5.62
398.808	5.04
399.017	5.48
399.226	5.67
399.435	5.85
399.644	6.02
399.853	6.09
400.062	5.41
400.27	4.82
400.479	5.19
400.688	4.95
400.897	4.75
401.106	5.01
401.315	4.9
401.524	4.92
401.733	4.85
401.941	5.3
402.15	5.46
402.359	5.73
402.568	5.63
402.777	5.96
402.985	5.65
403.194	5.24
403.403	5.29
403.612	5.12
403.82	4.65
404.029	4.49
404.238	4.65
404.446	4.66
404.655	4.75
404.864	4.92
405.072	5.06
405.281	5.07
405.489	4.97
405.698	4.86
405.906	4.94
406.115	4.96
406.324	4.86
406.532	4.95
406.741	5.1
406.949	5.08
407.158	5.12
407.366	5.02
407.574	5.06
407.783	5.09
407.991	5.01
408.2	5.08
408.408	5.13
408.617	5.03
408.825	4.83
409.033	4.79
409.242	4.67
409.45	4.69
409.658	4.65
409.867	4.64
410.075	4.66
410.283	4.55
410.491	4.37
410.7	4.23
410.908	4.44
411.116	4.45
411.324	4.46
411.533	4.45
411.741	4.59
411.949	4.43
412.157	4.32
412.365	4.37
412.573	4.43
412.781	4.33
412.99	4.35
413.198	4.51
413.406	4.45
413.614	4.6
413.822	4.71
414.03	4.81
414.238	4.69
414.446	4.79
414.654	4.59
414.862	4.54
415.07	4.3
415.278	4.43
415.486	4.28
415.694	4.41
415.902	4.37
416.109	4.53
416.317	4.46
416.525	4.44
416.733	4.24
416.941	4.29
417.149	4.2
417.357	4.13
417.564	4.13
417.772	4.31
417.98	4.2
418.188	4.05
418.395	3.91
418.603	3.95
418.811	3.88
419.019	3.86
419.226	4.17
419.434	4.23
419.642	4.04
419.849	3.94
420.057	3.98
420.265	3.84
420.472	3.77
420.68	4.09
420.887	4.22
421.095	4.21
421.302	4.18
421.51	4.24
421.717	4.08
421.925	4.04
422.132	4.05
422.34	3.92
422.547	3.83
422.755	3.88
422.962	3.95
423.17	3.81
423.377	3.85
423.585	4.08
423.792	3.96
423.999	3.79
424.207	3.92
424.414	4.12
424.621	4.01
424.829	4.16
425.036	4.26
425.243	4.24
425.451	4.09
425.658	4.06
425.865	4.06
426.072	4.02
426.28	4.06
426.487	4.06
426.694	4.01
426.901	3.88
427.108	3.89
427.315	3.93
427.523	3.77
427.73	3.91
427.937	3.89
428.144	3.92
428.351	3.85
428.558	3.93
428.765	3.89
428.972	3.91
429.179	3.67
429.386	3.67
429.593	3.65
429.8	3.62
430.007	3.72
430.214	3.82
430.421	4
430.628	4.04
430.835	4.09
431.042	4.01
431.249	4.18
431.456	4.1
431.662	4.28
431.869	4.52
432.076	4.51
432.283	4.59
432.49	4.59
432.697	4.49
432.903	4.33
433.11	4.5
433.317	4.37
433.524	4.42
433.73	4.32
433.937	4.4
434.144	4.14
434.35	4.16
434.557	4.05
434.764	4.16
434.97	3.95
435.177	4.16
435.384	4.28
435.59	4.49
435.797	4.6
436.003	4.67
436.21	4.59
436.416	4.6
436.623	4.39
436.829	4.23
437.036	4.31
437.242	4.43
437.449	4.43
437.655	4.57
437.862	4.68
438.068	4.64
438.275	4.62
438.481	4.64
438.687	4.55
438.894	4.65
439.1	4.57
439.307	4.69
439.513	4.66
439.719	4.79
439.926	4.68
440.132	4.83
440.338	4.73
440.544	4.62
440.751	4.49
440.957	4.47
441.163	4.37
441.369	4.38
441.575	4.43
441.782	4.61
441.988	4.76
442.194	4.78
442.4	4.72
442.606	4.9
442.812	4.8
443.018	4.82
443.224	4.9
443.431	4.84
443.637	4.7
443.843	4.76
444.049	4.73
444.255	4.78
444.461	4.86
444.667	4.87
444.873	4.86
445.079	4.9
445.284	4.85
445.49	4.87
445.696	4.88
445.902	4.88
446.108	4.85
446.314	4.86
446.52	4.96
446.726	5.03
446.931	4.88
447.137	4.83
447.343	4.87
447.549	4.83
447.755	4.77
447.96	4.88
448.166	4.92
448.372	4.82
448.578	4.76
448.783	4.85
448.989	4.93
449.195	4.93
449.4	5.03
449.606	5.09
449.812	4.91
450.017	4.85
450.223	4.86
450.428	4.83
450.634	4.8
450.84	4.97
451.045	5.02
451.251	5.08
451.456	5.1
451.662	5.14
451.867	5.12
452.073	5.1
452.278	5
452.483	5.02
452.689	5.18
452.894	5.22
453.1	5.2
453.305	5.26
453.51	5.28
453.716	5.1
453.921	5.14
454.127	5.08
454.332	5.02
454.537	4.9
454.742	4.8
454.948	4.72
455.153	4.81
455.358	4.8
455.563	4.87
455.769	4.94
455.974	4.94
456.179	4.85
456.384	4.85
456.589	4.86
456.795	4.92
457	4.84
457.205	4.85
457.41	4.81
457.615	4.84
457.82	4.83
458.025	4.92
458.23	5.03
458.435	5.14
458.64	5.08
458.845	5.11
459.05	5.13
459.255	5.01
459.46	4.89
459.665	4.91
459.87	4.9
460.075	4.96
460.28	5.06
460.485	5.17
460.69	5.12
460.895	5.17
461.099	5.03
461.304	4.87
461.509	4.86
461.714	5
461.919	4.87
462.123	4.97
462.328	4.99
462.533	4.93
462.738	4.84
462.942	4.92
463.147	4.88
463.352	5.01
463.556	5.12
463.761	5.13
463.966	5.1
464.17	5.2
464.375	5.28
464.58	5.24
464.784	5.21
464.989	5.3
465.193	5.24
465.398	5.19
465.602	5.37
465.807	5.46
466.011	5.44
466.216	5.45
466.42	5.48
466.625	5.47
466.829	5.4
467.034	5.48
467.238	5.56
467.443	5.54
467.647	5.5
467.851	5.65
468.056	5.63
468.26	5.58
468.464	5.57
468.669	5.51
468.873	5.37
469.077	5.38
469.282	5.42
469.486	5.44
469.69	5.5
469.894	5.64
470.099	5.59
470.303	5.58
470.507	5.69
470.711	5.67
470.915	5.65
471.119	5.69
471.324	5.75
471.528	5.71
471.732	5.82
471.936	5.85
472.14	5.92
472.344	5.98
472.548	5.98
472.752	5.88
472.956	5.79
473.16	5.84
473.364	5.76
473.568	5.74
473.772	5.67
473.976	5.81
474.18	5.76
474.384	5.71
474.588	5.74
474.792	5.87
474.995	5.9
475.199	5.86
475.403	5.94
475.607	5.87
475.811	5.83
476.015	5.65
476.218	5.63
476.422	5.58
476.626	5.63
476.83	5.67
477.033	5.85
477.237	5.89
477.441	5.9
477.644	5.91
477.848	5.91
478.052	5.83
478.255	5.83
478.459	5.83
478.663	5.97
478.866	6.03
479.07	5.98
479.273	6.04
479.477	6.1
479.681	6.1
479.884	6.08
480.088	6.17
480.291	6.16
480.495	6.15
480.698	6.06
480.901	6.04
481.105	6.01
481.308	6.01
481.512	6.06
481.715	6.16
481.919	6.27
482.122	6.32
482.325	6.35
482.529	6.39
482.732	6.28
482.935	6.16
483.138	6.11
483.342	6.07
483.545	6.14
483.748	6.26
483.952	6.36
484.155	6.49
484.358	6.52
484.561	6.44
484.764	6.34
484.967	6.28
485.171	6.24
485.374	6.19
485.577	6.22
485.78	6.32
485.983	6.36
486.186	6.33
486.389	6.39
486.592	6.37
486.795	6.36
486.998	6.36
487.201	6.42
487.404	6.55
487.607	6.66
487.81	6.65
488.013	6.75
488.216	6.79
488.419	6.72
488.622	6.67
488.825	6.7
489.028	6.73
489.231	6.74
489.433	6.77
489.636	6.77
489.839	6.85
490.042	6.89
490.245	6.95
490.447	7
490.65	7.14
490.853	7.15
491.056	7.17
491.258	7.24
491.461	7.27
491.664	7.27
491.866	7.29
492.069	7.33
492.272	7.29
492.474	7.38
492.677	7.43
492.879	7.5
493.082	7.6
493.285	7.74
493.487	7.79
493.69	7.88
493.892	7.94
494.095	8.03
494.297	8.06
494.5	8.19
494.702	8.31
494.905	8.37
495.107	8.44
495.309	8.56
495.512	8.64
495.714	8.7
495.917	8.88
496.119	9
496.321	9.02
496.524	9.1
496.726	9.17
496.928	9.22
497.13	9.21
497.333	9.32
497.535	9.39
497.737	9.51
497.939	9.59
498.142	9.69
498.344	9.79
498.546	9.88
498.748	10.03
498.95	10.08
499.152	10.22
499.355	10.22
499.557	10.26
499.759	10.27
499.961	10.32
500.163	10.36
500.365	10.48
500.567	10.5
500.769	10.51
500.971	10.66
501.173	10.69
501.375	10.81
501.577	10.89
501.779	10.94
501.981	10.94
502.183	10.91
502.385	10.9
502.587	10.94
502.788	10.98
502.99	11
503.192	11.06
503.394	11.02
503.596	11.04
503.798	10.93
503.999	10.89
504.201	10.9
504.403	10.91
504.605	10.91
504.806	11
505.008	11.09
505.21	11.07
505.411	11.08
505.613	11.07
505.815	11.1
506.016	11.08
506.218	11.13
506.42	11.07
506.621	11.08
506.823	10.98
507.024	10.82
507.226	10.73
507.427	10.77
507.629	10.7
507.83	10.7
508.032	10.7
508.233	10.67
508.435	10.61
508.636	10.58
508.838	10.53
509.039	10.47
509.24	10.44
509.442	10.41
509.643	10.37
509.845	10.33
510.046	10.41
510.247	10.38
510.448	10.35
510.65	10.32
510.851	10.27
511.052	10.26
511.254	10.23
511.455	10.11
511.656	10.1
511.857	10.08
512.058	10
512.26	9.96
512.461	9.97
512.662	9.91
512.863	9.81
513.064	9.82
513.265	9.78
513.466	9.74
513.667	9.77
513.868	9.77
514.069	9.7
514.27	9.72
514.471	9.67
514.672	9.64
514.873	9.65
515.074	9.64
515.275	9.57
515.476	9.63
515.677	9.62
515.878	9.63
516.079	9.61
516.28	9.68
516.481	9.67
516.682	9.6
516.882	9.57
517.083	9.56
517.284	9.47
517.485	9.39
517.686	9.38
517.886	9.33
518.087	9.31
518.288	9.3
518.488	9.35
518.689	9.34
518.89	9.35
519.091	9.34
519.291	9.33
519.492	9.28
519.692	9.3
519.893	9.32
520.094	9.28
520.294	9.26
520.495	9.21
520.695	9.22
520.896	9.16
521.096	9.22
521.297	9.19
521.497	9.23
521.698	9.2
521.898	9.22
522.099	9.22
522.299	9.26
522.499	9.27
522.7	9.25
522.9	9.24
523.101	9.18
523.301	9.15
523.501	9.15
523.702	9.18
523.902	9.17
524.102	9.24
524.302	9.31
524.503	9.33
524.703	9.3
524.903	9.3
525.103	9.22
525.304	9.17
525.504	9.2
525.704	9.23
525.904	9.24
526.104	9.29
526.304	9.33
526.504	9.29
526.705	9.24
526.905	9.26
527.105	9.25
527.305	9.25
527.505	9.21
527.705	9.22
527.905	9.25
528.105	9.22
528.305	9.17
528.505	9.19
528.705	9.23
528.905	9.21
529.105	9.24
529.304	9.3
529.504	9.36
529.704	9.31
529.904	9.35
530.104	9.37
530.304	9.33
530.503	9.34
530.703	9.35
530.903	9.29
531.103	9.28
531.303	9.29
531.502	9.33
531.702	9.36
531.902	9.46
532.101	9.48
532.301	9.47
532.501	9.52
532.7	9.6
532.9	9.61
533.1	9.6
533.299	9.64
533.499	9.53
533.698	9.47
533.898	9.45
534.097	9.46
534.297	9.48
534.496	9.49
534.696	9.57
534.895	9.49
535.095	9.56
535.294	9.61
535.494	9.69
535.693	9.69
535.892	9.76
536.092	9.72
536.291	9.7
536.491	9.66
536.69	9.7
536.889	9.69
537.088	9.67
537.288	9.69
537.487	9.75
537.686	9.69
537.886	9.75
538.085	9.81
538.284	9.81
538.483	9.78
538.682	9.83
538.882	9.82
539.081	9.86
539.28	9.88
539.479	9.88
539.678	9.9
539.877	9.92
540.076	9.9
540.275	9.93
540.474	9.99
540.673	9.99
540.872	9.98
541.071	10.03
541.27	10.02
541.469	10
541.668	10.02
541.867	10.07
542.066	10.05
542.265	10.14
542.464	10.15
542.663	10.23
542.862	10.33
543.06	10.38
543.259	10.41
543.458	10.46
543.657	10.47
543.856	10.43
544.054	10.42
544.253	10.43
544.452	10.5
544.651	10.57
544.849	10.56
545.048	10.61
545.247	10.63
545.445	10.6
545.644	10.54
545.843	10.6
546.041	10.62
546.24	10.65
546.438	10.7
546.637	10.72
546.836	10.76
547.034	10.83
547.233	10.9
547.431	10.89
547.63	10.93
547.828	10.95
548.027	10.96
548.225	10.9
548.423	10.98
548.622	11.07
548.82	11.1
549.019	11.09
549.217	11.16
549.415	11.17
549.614	11.26
549.812	11.28
550.01	11.38
550.209	11.44
550.407	11.53
550.605	11.45
550.803	11.48
551.002	11.54
551.2	11.58
551.398	11.58
551.596	11.67
551.794	11.76
551.993	11.76
552.191	11.85
552.389	11.87
552.587	11.95
552.785	11.98
552.983	12.09
553.181	12.08
553.379	12.21
553.577	12.26
553.775	12.34
553.973	12.39
554.171	12.5
554.369	12.55
554.567	12.65
554.765	12.68
554.963	12.75
555.161	12.77
555.359	12.76
555.557	12.8
555.755	12.94
555.952	13
556.15	13.13
556.348	13.29
556.546	13.36
556.744	13.35
556.941	13.35
557.139	13.4
557.337	13.49
557.535	13.54
557.732	13.6
557.93	13.74
558.128	13.76
558.325	13.74
558.523	13.86
558.721	13.92
558.918	14.01
559.116	14.17
559.313	14.3
559.511	14.34
559.708	14.47
559.906	14.51
560.104	14.53
560.301	14.65
560.498	14.75
560.696	14.8
560.893	14.87
561.091	14.93
561.288	15.08
561.486	15.15
561.683	15.24
561.88	15.41
562.078	15.54
562.275	15.53
562.473	15.6
562.67	15.59
562.867	15.6
563.064	15.66
563.262	15.7
563.459	15.78
563.656	15.95
563.853	15.99
564.051	16.11
564.248	16.23
564.445	16.31
564.642	16.38
564.839	16.45
565.036	16.58
565.234	16.66
565.431	16.73
565.628	16.77
565.825	16.88
566.022	16.92
566.219	16.94
566.416	16.99
566.613	17.11
566.81	17.11
567.007	17.13
567.204	17.15
567.401	17.18
567.598	17.17
567.795	17.26
567.991	17.31
568.188	17.39
568.385	17.44
568.582	17.54
568.779	17.62
568.976	17.66
569.172	17.84
569.369	17.9
569.566	17.98
569.763	17.96
569.96	18
570.156	18.02
570.353	18.04
570.55	18
570.746	18.06
570.943	18.18
571.14	18.14
571.336	18.15
571.533	18.25
571.729	18.34
571.926	18.33
572.123	18.34
572.319	18.48
572.516	18.56
572.712	18.5
572.909	18.48
573.105	18.64
573.302	18.56
573.498	18.47
573.695	18.54
573.891	18.49
574.087	18.37
574.284	18.43
574.48	18.43
574.677	18.47
574.873	18.61
575.069	18.68
575.266	18.73
575.462	18.73
575.658	18.73
575.854	18.65
576.051	18.7
576.247	18.61
576.443	18.63
576.639	18.6
576.835	18.61
577.032	18.55
577.228	18.54
577.424	18.52
577.62	18.52
577.816	18.45
578.012	18.5
578.208	18.53
578.404	18.52
578.6	18.53
578.796	18.56
578.993	18.55
579.189	18.54
579.384	18.61
579.58	18.59
579.776	18.57
579.972	18.49
580.168	18.51
580.364	18.46
580.56	18.36
580.756	18.28
580.952	18.25
581.148	18.24
581.343	18.27
581.539	18.43
581.735	18.48
581.931	18.51
582.127	18.46
582.322	18.27
582.518	18.13
582.714	18.09
582.909	18.07
583.105	18.06
583.301	18.17
583.496	18.23
583.692	18.17
583.888	18.11
584.083	18.05
584.279	17.99
584.474	17.88
584.67	17.99
584.866	17.99
585.061	17.99
585.257	17.96
585.452	17.94
585.648	17.79
585.843	17.77
586.039	17.81
586.234	17.88
586.429	17.87
586.625	17.98
586.82	18.04
587.015	18.02
587.211	18.04
587.406	18.08
587.601	18.09
587.797	18.02
587.992	17.95
588.187	17.87
588.383	17.91
588.578	17.83
588.773	17.83
588.968	17.96
589.163	17.97
589.359	17.89
589.554	17.86
589.749	17.88
589.944	17.85
590.139	17.85
590.334	18.01
590.529	18.14
590.724	18.25
590.919	18.26
591.114	18.31
591.309	18.25
591.504	18.24
591.699	18.19
591.894	18.17
592.089	18.23
592.284	18.3
592.479	18.37
592.674	18.43
592.869	18.43
593.064	18.44
593.259	18.47
593.454	18.46
593.648	18.46
593.843	18.53
594.038	18.59
594.233	18.57
594.428	18.66
594.622	18.76
594.817	18.92
595.012	18.96
595.206	19.05
595.401	19.04
595.596	19.06
595.79	19.01
595.985	19.09
596.18	19.16
596.374	19.36
596.569	19.4
596.763	19.47
596.958	19.5
597.153	19.48
597.347	19.36
597.542	19.33
597.736	19.36
597.931	19.39
598.125	19.51
598.319	19.6
598.514	19.68
598.708	19.69
598.903	19.76
599.097	19.79
599.291	19.78
599.486	19.86
599.68	19.98
599.874	20.02
600.069	20.06
600.263	20.26
600.457	20.35
600.651	20.39
600.846	20.46
601.04	20.48
601.234	20.43
601.428	20.37
601.622	20.35
601.817	20.33
602.011	20.41
602.205	20.46
602.399	20.5
602.593	20.59
602.787	20.59
602.981	20.5
603.175	20.49
603.369	20.48
603.563	20.44
603.757	20.43
603.951	20.51
604.145	20.54
604.339	20.52
604.533	20.43
604.727	20.46
604.921	20.42
605.115	20.37
605.309	20.3
605.502	20.37
605.696	20.33
605.89	20.37
606.084	20.37
606.278	20.48
606.471	20.41
606.665	20.36
606.859	20.29
607.053	20.18
607.246	20.01
607.44	19.93
607.634	19.9
607.827	19.79
608.021	19.7
608.214	19.69
608.408	19.63
608.602	19.57
608.795	19.56
608.989	19.59
609.182	19.67
609.376	19.65
609.569	19.57
609.763	19.49
609.956	19.4
610.15	19.21
610.343	19.17
610.537	19.23
610.73	19.04
610.923	19.01
611.117	18.87
611.31	18.83
611.504	18.67
611.697	18.73
611.89	18.66
612.083	18.6
612.277	18.53
612.47	18.41
612.663	18.37
612.856	18.28
613.05	18.25
613.243	18.13
613.436	18.17
613.629	18.06
613.822	18.04
614.015	17.92
614.209	17.83
614.402	17.75
614.595	17.74
614.788	17.62
614.981	17.65
615.174	17.6
615.367	17.47
615.56	17.37
615.753	17.4
615.946	17.37
616.139	17.35
616.332	17.35
616.525	17.29
616.718	17.12
616.911	16.97
617.103	16.96
617.296	16.93
617.489	16.78
617.682	16.79
617.875	16.84
618.067	16.77
618.26	16.71
618.453	16.79
618.646	16.74
618.838	16.68
619.031	16.71
619.224	16.65
619.417	16.64
619.609	16.67
619.802	16.6
619.994	16.54
620.187	16.47
620.38	16.41
620.572	16.32
620.765	16.29
620.957	16.19
621.15	16.13
621.342	16.1
621.535	16.06
621.727	16.06
621.92	16.01
622.112	16.08
622.305	16.09
622.497	16.08
622.69	16.07
622.882	16.16
623.074	16.13
623.267	16.09
623.459	16.05
623.651	16.04
623.844	15.99
624.036	15.98
624.228	15.91
624.42	15.94
624.613	15.92
624.805	15.79
624.997	15.7
625.189	15.73
625.381	15.66
625.574	15.66
625.766	15.61
625.958	15.66
626.15	15.64
626.342	15.64
626.534	15.57
626.726	15.6
626.918	15.52
627.11	15.46
627.302	15.44
627.494	15.42
627.686	15.39
627.878	15.4
628.07	15.4
628.262	15.44
628.454	15.33
628.646	15.34
628.838	15.4
629.029	15.26
629.221	15.1
629.413	15.18
629.605	15.13
629.797	15.07
629.989	15.17
630.18	15.26
630.372	15.18
630.564	15.11
630.755	14.92
630.947	14.88
631.139	14.7
631.33	14.69
631.522	14.68
631.714	14.77
631.905	14.72
632.097	14.79
632.289	14.85
632.48	14.87
632.672	14.86
632.863	14.82
633.055	14.75
633.246	14.65
633.438	14.63
633.629	14.59
633.821	14.58
634.012	14.62
634.203	14.58
634.395	14.56
634.586	14.52
634.777	14.5
634.969	14.53
635.16	14.48
635.351	14.36
635.543	14.31
635.734	14.28
635.925	14.2
636.117	14.22
636.308	14.3
636.499	14.27
636.69	14.24
636.881	14.24
637.073	14.22
637.264	14.15
637.455	14.22
637.646	14.23
637.837	14.23
638.028	14.13
638.219	14.16
638.41	14.19
638.601	14.17
638.792	14.08
638.983	14.14
639.174	14.09
639.365	14.02
639.556	13.96
639.747	13.96
639.938	13.99
640.129	13.97
640.32	13.94
640.511	13.89
640.701	13.91
640.892	13.83
641.083	13.79
641.274	13.82
641.465	13.9
641.655	13.88
641.846	13.92
642.037	13.9
642.228	13.78
642.418	13.71
642.609	13.63
642.8	13.51
642.99	13.49
643.181	13.53
643.372	13.46
643.562	13.47
643.753	13.44
643.943	13.37
644.134	13.23
644.324	13.21
644.515	13.13
644.705	13.19
644.896	13.27
645.086	13.32
645.277	13.36
645.467	13.35
645.658	13.25
645.848	13.18
646.038	13.17
646.229	13.15
646.419	13.07
646.61	13.17
646.8	13.14
646.99	13.12
647.18	13.03
647.371	13.14
647.561	13.03
647.751	12.99
647.941	12.97
648.132	13
648.322	12.91
648.512	12.95
648.702	13.07
648.892	13.08
649.082	13.06
649.272	13.06
649.462	13.07
649.653	12.98
649.843	12.93
650.033	12.95
650.223	12.94
650.413	12.86
650.603	12.87
650.793	12.95
650.983	12.88
651.172	12.87
651.362	12.8
651.552	12.74
651.742	12.63
651.932	12.62
652.122	12.66
652.312	12.63
652.502	12.55
652.691	12.52
652.881	12.56
653.071	12.48
653.261	12.44
653.45	12.36
653.64	12.36
653.83	12.26
654.019	12.18
654.209	12.14
654.399	12.09
654.588	11.97
654.778	11.8
654.968	11.72
655.157	11.63
655.347	11.41
655.536	11.24
655.726	11.11
655.915	11.04
656.105	10.92
656.294	10.93
656.484	10.86
656.673	10.8
656.863	10.7
657.052	10.61
657.241	10.6
657.431	10.57
657.62	10.48
657.809	10.35
657.999	10.26
658.188	10.15
658.377	10
658.567	9.9
658.756	9.8
658.945	9.74
659.134	9.59
659.324	9.41
659.513	9.29
659.702	9.19
659.891	9.02
660.08	8.93
660.269	8.89
660.458	8.74
660.648	8.7
660.837	8.64
661.026	8.5
661.215	8.46
661.404	8.51
661.593	8.38
661.782	8.25
661.971	8.09
662.16	8.03
662.349	7.91
662.538	7.82
662.726	7.73
662.915	7.78
663.104	7.59
663.293	7.53
663.482	7.46
663.671	7.44
663.86	7.41
664.048	7.47
664.237	7.42
664.426	7.41
664.615	7.29
664.803	7.17
664.992	7.05
665.181	6.92
665.369	6.73
665.558	6.73
665.747	6.74
665.935	6.81
666.124	6.9
666.312	6.92
666.501	6.93
666.69	6.95
666.878	6.98
667.067	6.88
667.255	6.9
667.444	7.03
667.632	7.12
667.82	6.95
668.009	7
668.197	7.08
668.386	6.92
668.574	6.86
668.762	6.95
668.951	6.93
669.139	6.82
669.327	6.92
669.516	6.95
669.704	6.97
669.892	7.01
670.08	7.07
670.269	6.98
670.457	6.97
670.645	6.9
670.833	7.05
671.021	7.22
671.21	7.27
671.398	7.25
671.586	7.34
671.774	7.3
671.962	7.28
672.15	7.36
672.338	7.52
672.526	7.6
672.714	7.58
672.902	7.61
673.09	7.73
673.278	7.76
673.466	7.87
673.654	7.92
673.842	8.07
674.03	8.12
674.218	8.24
674.405	8.26
674.593	8.38
674.781	8.36
674.969	8.49
675.157	8.54
675.344	8.62
675.532	8.65
675.72	8.74
675.908	8.66
676.095	8.61
676.283	8.72
676.471	8.74
676.658	8.77
676.846	8.82
677.033	8.81
677.221	8.75
677.409	8.78
677.596	8.78
677.784	8.95
677.971	8.92
678.159	9.07
678.346	9.14
678.534	9.33
678.721	9.39
678.909	9.74
679.096	9.83
679.283	9.99
679.471	10.05
679.658	10.14
679.846	10.12
680.033	10.26
680.22	10.48
680.408	10.54
680.595	10.53
680.782	10.61
680.969	10.76
681.157	10.69
681.344	10.73
681.531	10.85
681.718	11.08
681.905	11.13
682.093	11.36
682.28	11.58
682.467	11.76
682.654	11.78
682.841	11.93
683.028	11.9
683.215	12.03
683.402	12.07
683.589	12.25
683.776	12.25
683.963	12.5
684.15	12.61
684.337	12.83
684.524	12.96
684.711	13.21
684.898	13.3
685.085	13.45
685.271	13.72
685.458	13.81
685.645	13.84
685.832	14.22
686.019	14.47
686.205	14.5
686.392	14.87
686.579	15.25
686.766	15.4
686.952	15.55
687.139	15.88
687.326	16.14
687.512	16.39
687.699	16.76
687.886	17.12
688.072	17.42
688.259	17.78
688.445	18.14
688.632	18.31
688.818	18.72
689.005	19.13
689.191	19.47
689.378	19.89
689.564	20.42
689.751	20.8
689.937	21.35
690.124	21.75
690.31	22.16
690.496	22.69
690.683	23.2
690.869	23.62
691.055	24.05
691.242	24.63
691.428	24.89
691.614	25.34
691.8	25.85
691.987	26.64
692.173	27.18
692.359	28.05
692.545	28.84
692.731	29.37
692.918	29.62
693.104	30.07
693.29	30.45
693.476	31.03
693.662	31.64
693.848	32.49
694.034	33.19
694.22	33.88
694.406	34.43
694.592	35.18
694.778	35.92
694.964	36.72
695.15	37.54
695.336	37.98
695.522	38.65
695.708	39.27
695.894	39.76
696.08	40.34
696.265	41.24
696.451	41.92
696.637	42.75
696.823	43.64
697.009	44.15
697.194	44.91
697.38	45.6
697.566	46.09
697.751	46.69
697.937	47.54
698.123	48.14
698.308	48.65
698.494	49.5
698.68	50.18
698.865	50.78
699.051	51.32
699.236	51.82
699.422	52.22
699.607	52.63
699.793	53.39
699.978	54
700.164	54.73
700.349	55.13
700.535	55.69
700.72	56.1
700.906	56.6
701.091	57.49
701.276	58.28
701.462	59.04
701.647	59.58
701.832	60.27
702.018	60.78
702.203	61.43
702.388	61.75
702.573	62.4
702.759	63.09
702.944	63.27
703.129	63.54
703.314	63.91
703.499	64.32
703.684	64.58
703.87	65.2
704.055	65.85
704.24	66.62
704.425	67.02
704.61	67.49
704.795	68.32
704.98	68.71
705.165	69.3
705.35	69.76
705.535	70.25
705.72	70.18
705.905	70.8
706.09	71.36
706.275	71.5
706.459	72.04
706.644	72.4
706.829	72.75
707.014	73.11
707.199	73.91
707.384	74.07
707.568	74.35
707.753	74.75
707.938	75.19
708.123	75.71
708.307	76.19
708.492	77.09
708.677	77.42
708.861	77.36
709.046	77.15
709.231	77.19
709.415	77.26
709.6	77.37
709.784	77.83
709.969	78.73
710.153	79
710.338	79.17
710.522	79.79
710.707	80.04
710.891	80.08
711.076	80.37
711.26	80.95
711.445	80.91
711.629	81.22
711.813	81.4
711.998	82.25
712.182	82.03
712.366	82.81
712.551	82.99
712.735	83.2
712.919	83.43
713.103	84.41
713.288	84.37
713.472	84.64
713.656	84.98
713.84	85.14
714.024	84.97
714.208	84.94
714.393	85.06
714.577	85.01
714.761	85.09
714.945	85.15
715.129	85.61
715.313	85.86
715.497	86.17
715.681	86.13
715.865	86.36
716.049	86.49
716.233	86.39
716.417	86.83
716.601	87.55
716.785	87.73
716.968	87.83
717.152	88.19
717.336	88.53
717.52	88.47
717.704	88.64
717.888	88.78
718.071	88.96
718.255	88.85
718.439	88.85
718.622	89.03
718.806	89.33
718.99	89.41
719.174	89.69
719.357	89.84
719.541	90.26
719.724	90.34
719.908	90.67
720.092	90.33
720.275	90.79
720.459	90.34
720.642	90.29
720.826	90.56
721.009	90.79
721.193	90.24
721.376	90.8
721.559	91.33
721.743	91.4
721.926	91.92
722.11	92.61
722.293	92.83
722.476	92.52
722.66	93.26
722.843	93.64
723.026	93.97
723.21	93.78
723.393	94.59
723.576	94.5
723.759	94.4
723.942	94.1
724.126	94.27
724.309	93.81
724.492	93.33
724.675	93.37
724.858	93.81
725.041	94.1
725.224	94.81
725.407	94.94
725.59	94.57
725.774	94.44
725.957	94.38
726.14	93.85
726.322	94.24
726.505	94.94
726.688	94.9
726.871	94.88
727.054	95.16
727.237	95.11
727.42	95.32
727.603	95.29
727.786	95.83
727.968	96.09
728.151	96.21
728.334	96.17
728.517	96.41
728.699	96.62
728.882	95.99
729.065	95.83
729.248	95.97
729.43	96.53
729.613	96.71
729.796	97.52
729.978	97.83
730.161	98.1
730.343	98.3
730.526	98.29
730.708	98.23
730.891	98.4
731.073	98.23
731.256	98.17
731.438	98.35
731.621	98.4
731.803	98.76
731.986	99.22
732.168	99.71
732.35	99.72
732.533	99.75
732.715	100.13
732.898	100.04
733.08	100.02
733.262	99.97
733.444	100.95
733.627	100.74
733.809	101.49
733.991	101.29
734.173	101.11
734.355	100.21
734.538	100.23
734.72	99.67
734.902	100.04
735.084	99.92
735.266	101.29
735.448	101.1
735.63	101.5
735.812	101.3
735.994	101.68
736.176	101.02
736.358	101.8
736.54	101.63
736.722	101.14
736.904	101.92
737.086	101.82
737.268	101.82
737.45	101.86
737.632	102.99
737.814	102.84
737.995	102.89
738.177	102.93
738.359	102.92
738.541	102.12
738.723	101.97
738.904	101.8
739.086	102.43
739.268	102.47
739.449	102.46
739.631	102.51
739.813	102.74
739.994	101.64
740.176	101.9
740.358	102.48
740.539	102.17
740.721	102.32
740.902	103.26
741.084	103.72
741.265	103.19
741.447	103.81
741.628	103.85
741.81	102.81
741.991	102.32
742.172	102.63
742.354	103.26
742.535	103.79
742.717	103.67
742.898	103.14
743.079	103.77
743.261	103.07
743.442	101.38
743.623	101.77
743.804	101.84
743.986	101.35
744.167	100.43
744.348	100.44
744.529	100.18
744.71	99.96
744.891	99.87
745.073	100.27
745.254	100.9
745.435	100.9
745.616	100.75
745.797	100.92
745.978	101.03
746.159	100.75
746.34	101.15
746.521	102.12
746.702	102.57
746.883	103.19
747.064	103.94
747.245	104.63
747.426	105.27
747.606	104.18
747.787	104.33
747.968	104.09
748.149	103.14
748.33	101.88
748.51	101.35
748.691	100.31
748.872	102.07
749.053	101.92
749.233	102.36
749.414	104.04
749.595	104.71
749.775	102.64
749.956	102.02
750.137	101.89
750.317	99.96
750.498	100.43
750.678	101.09
750.859	101.79
751.04	101.91
751.22	102.56
751.4	101.75
751.581	100.99
751.761	102.31
751.942	102.78
752.122	103.04
752.303	103.47
752.483	103.29
752.663	101.49
752.844	101.6
753.024	101.95
753.204	102.3
753.385	102.42
753.565	103.41
753.745	101.28
753.925	100.91
754.106	100.5
754.286	100.49
754.466	100.77
754.646	100.35
754.826	101.4
755.006	100.71
755.187	101.85
755.367	99.13
755.547	101.16
755.727	99.34
755.907	98.42
756.087	97.24
756.267	97.61
756.447	97.56
756.627	98.95
756.807	101.74
756.987	101.23
757.167	102.01
757.346	101.11
757.526	101.39
757.706	99.3
757.886	99.45
758.066	100.32
758.246	99.86
758.425	96.93
758.605	97.05
758.785	97.52
758.965	97.99
759.144	97.73
759.324	100.71
759.504	101.13
759.683	99.87
759.863	98.65
760.043	99.18
760.222	97.71
760.402	95.72
760.581	97.87
760.761	98.45
760.94	98.99
761.12	99.55
761.299	102.47
761.479	101.69
761.658	101.95
761.838	102.45
762.017	101.95
762.197	99.1
762.376	99.26
762.555	98.7
762.735	98.27
762.914	97.42
763.093	97.87
763.273	97.31
763.452	96.02
763.631	94.59
763.81	94.21
763.99	93.46
764.169	93.44
764.348	93.1
764.527	93.56
764.706	94.69
764.885	96.37
765.064	97.1
765.243	97.65
765.423	98.13
765.602	98
765.781	96.9
765.96	95.95
766.139	96.17
766.318	97.13
766.497	96.7
766.676	97.31
766.854	98.38
767.033	99.71
767.212	100.25
767.391	100.97
767.57	103.92
767.749	103.43
767.928	103.41
768.106	101.71
768.285	100.42
768.464	97.32
768.643	96.11
768.821	94.75
769	93.24
769.179	94.26
769.357	94.2
769.536	94.05
769.715	93.28
769.893	95.38
770.072	93.79
770.25	92.47
770.429	92.84
770.607	95.11
770.786	93.05
770.964	95.01
771.143	95.76
771.321	94.69
771.5	93.34
771.678	94.99
771.857	92.73
772.035	94.47
772.213	96.67
772.392	94.17
772.57	93.26
772.748	93.79
772.927	92.58
773.105	91.69
773.283	93.52
773.461	95.08
773.64	95.69
773.818	96.45
773.996	97.71
774.174	98.56
774.352	94.81
774.531	94.01
774.709	95.09
774.887	93.11
775.065	92.94
775.243	94.58
775.421	96.31
775.599	94.65
775.777	94.19
775.955	93.97
776.133	95.98
776.311	94.61
776.489	93.2
776.667	94.33
776.844	92.94
777.022	91.39
777.2	91.36
777.378	91.44
777.556	91.93
777.734	93.54
777.911	94.24
778.089	95
778.267	96.28
778.445	97.55
778.622	96.26
778.8	92.4
778.978	92.74
779.155	93.92
779.333	91.7
779.511	91.8
779.688	94.51
779.866	95.98
780.043	93.85
780.221	93.99
780.398	93.46
780.576	92.47
780.753	90.23
780.931	92.04
781.108	93.82
781.286	94.98
781.463	96.34
781.64	95.23
781.818	95.84
781.995	95.7
782.172	94.49
782.35	94.16
782.527	93.78
782.704	90.94
782.882	88.39
783.059	89.7
783.236	89.2
783.413	89.13
783.59	90.15
783.768	88.67
783.945	88.29
784.122	86.98
784.299	88.17
784.476	85.21
784.653	84.94
784.83	82.62
785.007	84.43
785.184	82.17
785.361	85.63
785.538	86.49
785.715	88.45
785.892	87.85
786.069	90.58
786.246	89.4
786.423	90.63
786.6	90.67
786.776	90.48
786.953	87.79
787.13	87.63
787.307	84.08
787.484	82.25
787.66	82.14
787.837	82.01
788.014	82.15
788.191	82.75
788.367	83.01
788.544	84.56
788.721	85.38
788.897	85.02
789.074	86.77
789.25	87.4
789.427	87.98
789.603	86.33
789.78	86.4
789.956	84.69
790.133	80.33
790.309	78.81
790.486	81.63
790.662	80.53
790.839	80.85
791.015	83.63
791.192	82.43
791.368	81.02
791.544	80.58
791.721	82.3
791.897	81.2
792.073	82.2
792.249	80.69
792.426	81.36
792.602	82.06
792.778	82.83
792.954	84.1
793.13	85.03
793.307	86.27
793.483	84.01
793.659	84.68
793.835	85.93
794.011	90.63
794.187	88.87
794.363	88.98
794.539	91.98
794.715	88.26
794.891	84.67
795.067	82.82
795.243	85.91
795.419	81.57
795.595	87.84
795.771	86.08
795.947	86.42
796.122	76.08
796.298	76.82
796.474	76.78
796.65	81.25
796.826	84.65
797.001	89.96
797.177	90.88
797.353	82.37
797.529	80
797.704	79.7
797.88	78.22
798.056	76.41
798.231	79.67
798.407	80.58
798.582	79.92
798.758	82.66
798.934	86.66
799.109	85.84
799.285	84.78
799.46	82.46
799.636	82.7
799.811	81.87
799.986	79.27
800.162	74.54
800.337	80.82
800.513	82.55
800.688	78.21
800.863	83.23
801.039	84.12
801.214	80.41
801.389	78.96
801.565	82.08
801.74	77.73
801.915	78.84
802.09	79.11
802.265	79.5
802.441	77.89
802.616	81.34
802.791	80.73
802.966	77.73
803.141	75.02
803.316	76.29
803.491	75.96
803.666	76.79
803.841	78.29
804.016	78.49
804.191	80.07
804.366	79.22
804.541	82.48
804.716	79.51
804.891	80.22
805.066	78.54
805.241	76.18
805.416	77.6
805.591	82.26
805.765	89.49
805.94	87.64
806.115	85.99
806.29	83.43
806.464	77.53
806.639	76.71
806.814	75.32
806.989	77.26
807.163	74.2
807.338	75.21
807.512	69.5
807.687	66.63
807.862	61.34
808.036	68.22
808.211	75.1
808.385	73.12
808.56	72.76
808.734	73.5
808.909	76.21
809.083	70.86
809.258	74.79
809.432	81.07
809.606	83.96
809.781	84.82
809.955	89.2
810.13	79.79
810.304	81.44
810.478	77.04
810.652	70.54
810.827	72.4
811.001	73.48
811.175	76.4
811.349	83.49
811.524	85.63
811.698	77.52
811.872	85.45
812.046	80.81
812.22	73.93
812.394	72.53
812.568	78.5
812.742	68.28
812.916	72.87
813.09	72.13
813.264	69.31
813.438	62.38
813.612	70.03
813.786	67.24
813.96	77.78
814.134	80.93
814.308	87.18
814.482	82.12
814.656	75.44
814.83	63.58
815.003	70.87
815.177	67.48
815.351	70.71
815.525	74.68
815.698	78.54
815.872	61.07
816.046	58.62
816.219	60.5
816.393	60.69
816.567	57.85
816.74	71.04
816.914	81.01
817.088	83.11
817.261	78.62
817.435	84.54
817.608	80.47
817.782	71.06
817.955	77.57
818.129	79.54
818.302	76.49
818.475	75.11
818.649	76.87
818.822	66.65
818.996	73.42
819.169	82.43
819.342	78.34
819.516	79.41
819.689	80.82
819.862	72.62
820.035	72.93
820.209	69.63
820.382	60.77
820.555	53.53
820.728	55.38
820.901	41.41
821.075	52.84
821.248	73.99
821.421	69.53
821.594	66.54
821.767	70.13
821.94	60.41
822.113	54.31
822.286	68.43
822.459	71.43
822.632	74.7
822.805	81.35
822.978	80.98
823.151	62.87
823.324	54.64
823.496	43.29
823.669	53.35
823.842	56.87
824.015	67.09
824.188	76.58
824.361	88.16
824.533	57.88
824.706	52.29
824.879	55.19
825.051	62.41
825.224	66.02
825.397	75.8
825.569	76
825.742	80.36
825.915	75.52
826.087	54.83
826.26	61.91
826.432	65.8
826.605	62.12
826.777	62.46
826.95	76.22
827.122	65.44
827.295	67.28
827.467	67.76
827.64	57.46
827.812	42.21
827.984	59.02
828.157	50.96
828.329	55.71
828.501	49.81
828.674	56.65
828.846	61.74
829.018	54.22
829.19	44.35
829.363	49.85
829.535	59.82
829.707	51.3
829.879	49.38
830.051	51.5
830.223	55.81
830.395	41.58
830.568	47.21
830.74	50.28
830.912	48.53
831.084	52.69
831.256	56.78
831.428	50.05
831.6	54
831.772	60.22
831.943	48.67
832.115	60.17
832.287	62.89
832.459	60.69
832.631	62.43
832.803	72.82
832.975	61.3
833.146	53.46
833.318	56.11
833.49	59.15
833.662	61.58
833.833	64.12
834.005	68.61
834.177	75.15
834.348	72.67
834.52	51.48
834.692	45.67
834.863	39.45
835.035	37.96
835.206	31.7
835.378	52.12
835.549	62.14
835.721	65.61
835.892	60.34
836.064	58.49
836.235	58.53
836.407	57.38
836.578	52.02
836.749	29.04
836.921	32.91
837.092	21.66
837.264	14.57
837.435	16.49
837.606	40.77
837.777	34.47
837.949	38.8
838.12	42.71
838.291	47.65
838.462	54.95
838.633	58.79
838.805	43.69
838.976	35.16
839.147	40.33
839.318	30.63
839.489	33.49
839.66	51.45
839.831	55.63
840.002	48.01
840.173	47.85
840.344	48.83
840.515	34.82
840.686	38.79
840.857	40.86
841.028	34.32
841.199	38.18
841.369	44.34
841.54	45.15
841.711	69
841.882	72.29
842.053	48.08
842.223	54.64
842.394	33.01
842.565	15.87
842.736	23.13
842.906	21.44
843.077	20.51
843.248	41.26
843.418	42.07
843.589	21.98
843.759	46.97
843.93	59.64
844.101	45.09
844.271	73.94
844.442	103.64
844.612	87.92
844.783	91.31
844.953	94.73
845.123	70.12
845.294	59.5
845.464	59.43
845.635	40.32
845.805	51.97
845.975	69.21
846.146	69.23
846.316	62.46
846.486	57.54
846.656	44.8
846.827	57.62
846.997	68.7
847.167	66.46
847.337	58.84
847.507	66.84
847.677	56.02
847.848	58.06
848.018	57.5
848.188	66.34
848.358	39.52
848.528	38.67
848.698	15.54
848.868	14.5
849.038	10.18
849.208	20.47
849.378	36.86
849.548	41.8
849.718	27.06
849.887	19.41
850.057	36.7
850.227	42.68
850.397	65.57
850.567	62.72
850.737	68.75
850.906	37.32
851.076	-2.42
851.246	-22.06
851.415	-12.14
851.585	-15.64
851.755	47.41
851.924	73.92
852.094	73.43
852.264	50.23
852.433	44.5
852.603	-1.06
852.772	2.99
852.942	37.36
853.111	49.83
853.281	41.12
853.45	46.52
853.62	33.23
853.789	-7.07
853.959	1.43
854.128	11.67
854.297	22.66
854.467	36.9
854.636	47.94
854.805	30.78
854.975	23.49
855.144	12.14
855.313	-1.3
855.482	17.87
855.652	17.43
855.821	9.5
855.99	6.99
856.159	1.83
856.328	-0.03
856.497	37.24
856.667	55.63
856.836	63.23
857.005	69.66
857.174	59.93
857.343	43.31
857.512	31.05
857.681	46.85
857.85	28.86
858.019	-10.36
858.188	-37.3
858.356	-27.7
858.525	-18.68
858.694	-24.62
858.863	4.07
859.032	20.02
859.201	14.83
859.369	0.34
859.538	35.57
859.707	24.53
859.876	37.53
860.044	50.58
860.213	49.79
860.382	45.6
860.55	40.33
860.719	50.46
860.888	35.58
861.056	33.52
861.225	-1.72
861.393	-8.52
861.562	-25.63
861.73	-11.04
861.899	-1.46
862.067	10.87
862.236	11.95
862.404	29.97
862.572	21.94
862.741	14.03
862.909	46.31
863.078	65.53
863.246	28.58
863.414	66.01
863.582	68.66
863.751	59.96
863.919	64.96
864.087	64.05
864.255	61.67
864.424	53.08
864.592	49.97
864.76	15.81
864.928	73.94
865.096	38.87
865.264	52.87
865.432	56.9
865.6	121.04
865.768	63.66
865.936	66.2
866.104	55.55
866.272	10.43
866.44	-33.82
866.608	-25.77
866.776	-12.18
866.944	10.28
867.112	12.73
867.28	12.18
867.448	23.37
867.615	18.05
867.783	6.21
867.951	24.22
868.119	62.36
868.286	65.11
868.454	65.28
868.622	55.15
868.789	42.33
868.957	26.15
869.125	46.79
869.292	21.31
869.46	25.65
869.627	42.38
869.795	53.1
869.963	36.82
870.13	38.95
870.298	25.06
870.465	15.38
870.632	-19.36
870.8	-24.53
870.967	-22.04
871.135	-42.82
871.302	-6.39
871.469	23.76
871.637	37.05
871.804	49.26
871.971	40.08
872.139	19.97
872.306	-22.95
872.473	-42.46
872.64	-175.73
872.807	-206.55
872.975	-362.36
873.142	-45.48
873.309	-7.12
873.476	46.02
873.643	116.43
873.81	70.98
873.977	34.79
874.144	12.07
874.311	-38.85
874.478	-91.26
874.645	-85.06
874.812	24.22
874.979	42.44
875.146	55.14
875.313	55.35
875.48	81.19
875.647	7.34
875.813	-25.57
875.98	-53.96
876.147	-155.04
876.314	-119.77
876.481	-61.46
876.647	-0.46
876.814	26.06
876.981	35.18
877.147	29.56
877.314	27.97
877.481	11.39
877.647	22.85
877.814	8.93
877.98	11.48
878.147	41.91
878.314	64.51
878.48	60.25
878.647	91.74
878.813	102.49
878.979	104.61
879.146	113.29
879.312	123.55
879.479	89.29
879.645	66.25
879.811	42.37
879.978	29.24
880.144	11.94
880.31	-3.5
880.477	16.24
880.643	11.95
880.809	-38.36
880.975	7.4
881.142	-16.72
881.308	276.31
881.474	221.2
881.64	61
881.806	-59.66
881.972	9.89
882.138	14.26
882.304	12.23
882.47	-22.35
882.636	22.93
882.802	-0.42
882.968	22.82
883.134	5.31
883.3	31.42
883.466	58.99
883.632	85.98
883.798	73.74
883.964	56.7
884.129	261.57
884.295	51.19
884.461	8.33
884.627	23.39
884.793	28.24
884.958	13.71
885.124	-14.96
885.29	-30.46
885.455	-56.67
885.621	1.13
885.787	-0.97
885.952	-4.09
886.118	9.7
886.283	21.58
886.449	-11.93
886.614	-1.43
886.78	7.27
886.945	30.14
887.111	-26.66
887.276	-26
887.442	-84.19
887.607	-41.6
887.773	-13.58
887.938	4.11
888.103	24.3
888.269	44.17
888.434	54.6
888.599	30.81
888.764	55.86
888.93	50.08
889.095	35.98
889.26	29.77
889.425	36.89
889.59	12.04
889.756	6.62
889.921	18.38
890.086	-20.23
890.251	30.18
890.416	-23.07
890.581	-29.8
890.746	4.61
890.911	24.83
891.076	6.97
891.241	31.27
891.406	35.53
891.571	56.17
891.736	12.94
891.901	77.61
892.065	78.91
892.23	97
892.395	62.38
892.56	23.49
892.725	6.38
892.889	-21.83
893.054	11.93
893.219	-5.28
893.384	48.74
893.548	1.25
893.713	-24.06
893.878	-122.3
