Data from Ofra_2a_PS_8HS21_Reflection_2.txt Node
Date: Tue Jul 20 09:56:02 EDT 2021
User: Adam
Spectrometer: FLMT01687
Trigger mode: 0
Integration Time (sec): 9.450000E-1
Scans to average: 3
Electric dark correction enabled: true
Nonlinearity correction enabled: false
Boxcar width: 3
XAxis mode: Wavelengths
Number of Pixels in Spectrum: 3648
>>>>>Begin Spectral Data<<<<<
179.494	1011.83
179.716	550.88
179.937	625.27
180.158	2552.34
180.38	-1351.74
180.601	-215.8
180.823	-40.68
181.044	63.94
181.265	-66.75
181.486	38.2
181.708	776.09
181.929	138.84
182.15	-17.05
182.372	31.95
182.593	-32.36
182.814	435.63
183.035	251.03
183.257	80.17
183.478	63.29
183.699	82.66
183.92	51.97
184.141	43.65
184.363	15.26
184.584	25.14
184.805	38.95
185.026	29.82
185.247	18.82
185.468	28.5
185.689	26.92
185.91	32.62
186.132	30.25
186.353	14.4
186.574	15.24
186.795	-9.35
187.016	1
187.237	-11.02
187.458	-24.16
187.679	-26.64
187.9	-17.17
188.121	-10.3
188.342	34.38
188.563	20.06
188.784	31.51
189.005	49.21
189.226	29.92
189.447	19.31
189.667	22.55
189.888	15.89
190.109	29.65
190.33	37.9
190.551	29.27
190.772	21.23
190.993	41.29
191.214	34.86
191.434	33.41
191.655	25.21
191.876	20.89
192.097	20.22
192.318	28.33
192.538	19.26
192.759	27.27
192.98	18.42
193.201	34.18
193.421	30.93
193.642	34.72
193.863	40.8
194.083	40.91
194.304	26.58
194.525	52.96
194.745	16.52
194.966	24.74
195.187	30.8
195.407	18.09
195.628	20.72
195.848	20.2
196.069	-1.29
196.29	7.49
196.51	1.64
196.731	9.56
196.951	22.74
197.172	13.25
197.392	13.64
197.613	12.57
197.833	15.8
198.054	5.4
198.274	-20.15
198.495	-29.74
198.715	-43.45
198.936	-51.48
199.156	-12.01
199.377	-6.81
199.597	14.45
199.817	17.73
200.038	22.59
200.258	34.28
200.479	45.71
200.699	41.99
200.919	18.44
201.14	16.05
201.36	32.33
201.58	32.61
201.801	25.87
202.021	24.52
202.241	20.2
202.461	37.93
202.682	49.12
202.902	31.5
203.122	29.18
203.342	30.83
203.563	26.7
203.783	32.48
204.003	21.1
204.223	15.31
204.443	22.51
204.663	30.13
204.884	25.1
205.104	21.17
205.324	25.46
205.544	33.8
205.764	23.97
205.984	26.76
206.204	24.65
206.424	33.48
206.644	40.4
206.864	13.56
207.084	32.91
207.304	32.95
207.525	22.78
207.745	30.01
207.964	31.94
208.184	17.97
208.404	37.15
208.624	15.25
208.844	4.35
209.064	16.47
209.284	11.77
209.504	-5.16
209.724	-22.82
209.944	-21.11
210.164	-9.76
210.384	-2.85
210.604	-18.4
210.823	-29.5
211.043	-20.3
211.263	0.43
211.483	-5.11
211.703	-6.97
211.922	4.36
212.142	14.79
212.362	26.31
212.582	35.69
212.801	38.66
213.021	46.97
213.241	51.69
213.461	43.44
213.68	37.5
213.9	34.54
214.12	30.34
214.339	34.43
214.559	37.08
214.779	38.82
214.998	38.55
215.218	32
215.438	40.94
215.657	35.25
215.877	33.15
216.096	35.1
216.316	34.49
216.535	38.73
216.755	29.56
216.974	19.1
217.194	25.46
217.413	29.24
217.633	14.66
217.852	12.25
218.072	11.13
218.291	46.36
218.511	34.57
218.73	24.78
218.95	11.93
219.169	13.27
219.389	8.41
219.608	19.98
219.827	-1.15
220.047	2.92
220.266	10
220.485	17.89
220.705	20.27
220.924	27.44
221.143	8.72
221.363	11.21
221.582	11.84
221.801	25.21
222.021	14.68
222.24	5
222.459	-8.64
222.678	-9.9
222.897	-14.61
223.117	-7.48
223.336	-15.36
223.555	-23.67
223.774	-0.45
223.993	14.35
224.213	11.05
224.432	19.32
224.651	10.1
224.87	17.99
225.089	17.04
225.308	8.69
225.527	3.49
225.746	22.84
225.965	5.55
226.184	15.68
226.404	-6.51
226.623	14.34
226.842	12.72
227.061	24.72
227.28	24.54
227.499	40.02
227.718	34.45
227.936	32.81
228.155	35.99
228.374	35.68
228.593	23.3
228.812	19.81
229.031	10.97
229.25	19.73
229.469	35.56
229.688	34.05
229.907	39.48
230.125	48.27
230.344	43.27
230.563	52.5
230.782	39.51
231.001	31.54
231.22	36.47
231.438	31.04
231.657	31.23
231.876	36.34
232.095	29.56
232.313	40.7
232.532	41.93
232.751	39.79
232.969	41.29
233.188	50.68
233.407	52.08
233.625	53.61
233.844	53.07
234.063	57.23
234.281	45.49
234.5	42.93
234.719	30.43
234.937	29.14
235.156	20.41
235.374	8.88
235.593	10.96
235.811	14.64
236.03	1.93
236.249	30.57
236.467	25.54
236.686	36.77
236.904	29.71
237.123	17.3
237.341	10.8
237.559	15.2
237.778	3.67
237.996	9
238.215	3.03
238.433	15.77
238.652	17.5
238.87	24.12
239.088	21.24
239.307	24.11
239.525	13.19
239.743	14.14
239.962	7.47
240.18	23.98
240.398	26.27
240.617	32.6
240.835	26.45
241.053	31.79
241.271	27.23
241.49	16.38
241.708	8.95
241.926	-2.07
242.144	-4.9
242.363	-15.61
242.581	-2.98
242.799	-5.18
243.017	9.02
243.235	-1.46
243.453	5.44
243.672	5.2
243.89	21.42
244.108	20.05
244.326	24.5
244.544	30.34
244.762	38.13
244.98	27.02
245.198	10.55
245.416	3.42
245.634	7.02
245.852	20.42
246.07	20.67
246.288	6.11
246.506	15.97
246.724	41.85
246.942	42.88
247.16	35.21
247.378	24.89
247.596	28.8
247.814	26.67
248.032	39.42
248.25	32.16
248.468	34.16
248.685	39.05
248.903	23.8
249.121	16.43
249.339	22.66
249.557	5.87
249.775	-5.47
249.992	-12.79
250.21	-19.96
250.428	-15.33
250.646	-11.38
250.863	-13.02
251.081	-11.37
251.299	10.87
251.517	32.54
251.734	36.38
251.952	48.84
252.17	32.89
252.387	28.93
252.605	27.89
252.823	7.55
253.04	-10.26
253.258	-16.19
253.475	-18.79
253.693	3.48
253.911	6.58
254.128	6.47
254.346	9.08
254.563	9.34
254.781	10.29
254.998	13.5
255.216	11.13
255.433	18.64
255.651	19.18
255.868	19.88
256.086	19.1
256.303	21.79
256.521	7.15
256.738	5.08
256.956	-17.46
257.173	-14.31
257.39	-0.79
257.608	9.91
257.825	4.77
258.043	25.39
258.26	24.28
258.477	29.53
258.695	40.68
258.912	49.04
259.129	39.1
259.346	49.35
259.564	36.47
259.781	41.26
259.998	55.1
260.216	47.08
260.433	33.15
260.65	42.27
260.867	16.85
261.084	26.86
261.302	18.93
261.519	-0.61
261.736	2.97
261.953	14.44
262.17	8.52
262.387	22.49
262.604	13.37
262.822	18.83
263.039	20.34
263.256	9.3
263.473	0.22
263.69	12.37
263.907	16.19
264.124	14.27
264.341	13.69
264.558	18.18
264.775	29.4
264.992	30.89
265.209	28.32
265.426	21.95
265.643	28.73
265.86	27.75
266.077	33.06
266.294	28.31
266.51	27.59
266.727	22.74
266.944	24.86
267.161	25.55
267.378	24.1
267.595	4.85
267.812	5.78
268.028	9.21
268.245	0.42
268.462	6.05
268.679	0.38
268.896	-5.55
269.112	10.21
269.329	17.14
269.546	11.75
269.763	19.7
269.979	19.17
270.196	26.74
270.413	41.69
270.629	35.65
270.846	37.09
271.063	39.84
271.279	35.22
271.496	23.68
271.712	17.61
271.929	13.4
272.146	6.62
272.362	-5.06
272.579	-1.72
272.795	5.34
273.012	18.55
273.228	14.51
273.445	8.14
273.661	14.77
273.878	20.31
274.094	24.08
274.311	20.85
274.527	12.46
274.744	17.88
274.96	23.77
275.177	37.16
275.393	37.13
275.609	39.25
275.826	42.29
276.042	62.72
276.259	54.98
276.475	46.96
276.691	35.15
276.908	31.99
277.124	29.05
277.34	22.29
277.557	20.29
277.773	17.45
277.989	24.47
278.205	12.59
278.422	21.09
278.638	21.14
278.854	26.18
279.07	10.28
279.286	12.75
279.503	14.83
279.719	36.58
279.935	19.69
280.151	22.86
280.367	19.05
280.583	29.26
280.799	34.45
281.016	28.62
281.232	15.65
281.448	10.74
281.664	3.64
281.88	17.09
282.096	21.58
282.312	11.74
282.528	-0.28
282.744	2.78
282.96	19.52
283.176	24.04
283.392	16.66
283.608	14.43
283.824	19.35
284.04	33.92
284.256	36.49
284.471	31.6
284.687	28.89
284.903	29.23
285.119	18.11
285.335	16.14
285.551	17.25
285.767	17.64
285.982	13.22
286.198	21.2
286.414	25.91
286.63	41.18
286.846	37.98
287.061	36.8
287.277	46.39
287.493	64.19
287.709	55.67
287.924	60.21
288.14	57.66
288.356	70.06
288.571	54.25
288.787	53.09
289.003	53.6
289.218	48.23
289.434	37.26
289.65	27.16
289.865	23.31
290.081	35.5
290.296	20.89
290.512	15.2
290.727	20.62
290.943	22.03
291.159	20.03
291.374	23.55
291.59	13.28
291.805	12.9
292.021	1.75
292.236	3.08
292.451	-2.51
292.667	4.94
292.882	-1.45
293.098	-1.81
293.313	-3.3
293.529	3.96
293.744	7.51
293.959	12.41
294.175	1.39
294.39	17.56
294.605	25.9
294.821	30.42
295.036	34.2
295.251	35.45
295.467	30.8
295.682	32.24
295.897	18.7
296.112	17.71
296.328	21.33
296.543	3.23
296.758	-5.59
296.973	7.41
297.188	5.67
297.404	5.8
297.619	2.09
297.834	10.13
298.049	22.23
298.264	24.5
298.479	8.04
298.694	12.34
298.909	7.71
299.125	12.89
299.34	7.75
299.555	12.45
299.77	13.37
299.985	10.76
300.2	12.52
300.415	21.11
300.63	10.88
300.845	10.91
301.06	12.63
301.275	21.25
301.49	31.67
301.704	26.74
301.919	21.7
302.134	24.35
302.349	20.85
302.564	9.84
302.779	-0.41
302.994	-2.89
303.209	8.65
303.423	17.49
303.638	26.13
303.853	31.74
304.068	35.53
304.283	36.9
304.497	29.46
304.712	21.55
304.927	7.61
305.142	9.21
305.356	12.34
305.571	13.34
305.786	17.86
306	29.21
306.215	37.83
306.43	51.33
306.644	53.44
306.859	46.62
307.074	39.62
307.288	35.13
307.503	30.68
307.717	23.13
307.932	23.35
308.147	18.19
308.361	20.54
308.576	30.07
308.79	31.74
309.005	34.02
309.219	48.31
309.434	40.24
309.648	38.83
309.863	42.05
310.077	40.12
310.292	43.27
310.506	49.89
310.72	43.62
310.935	53.67
311.149	51.63
311.364	50.39
311.578	48.63
311.792	40.68
312.007	29.86
312.221	30.54
312.435	29.89
312.649	30.03
312.864	20.04
313.078	34.7
313.292	35.38
313.507	42.11
313.721	41.89
313.935	54.66
314.149	45.28
314.363	49.79
314.578	63.52
314.792	68.95
315.006	63.7
315.22	69.14
315.434	47.89
315.648	51.17
315.862	55.89
316.077	36.14
316.291	34.78
316.505	40.37
316.719	18
316.933	32.38
317.147	27.13
317.361	17.52
317.575	24.57
317.789	23.05
318.003	21.36
318.217	32.04
318.431	27.23
318.645	30.6
318.859	19.55
319.073	15.53
319.287	15.27
319.5	15.38
319.714	11.71
319.928	13.03
320.142	9.64
320.356	31.43
320.57	30.88
320.784	31.32
320.997	28.36
321.211	27.84
321.425	18.03
321.639	16.99
321.853	0.81
322.066	-8.71
322.28	-14.44
322.494	-15.08
322.707	-17
322.921	0.78
323.135	7.37
323.349	12.05
323.562	18.4
323.776	30.31
323.989	30.62
324.203	42.42
324.417	25.39
324.63	11.42
324.844	5.03
325.057	11.58
325.271	-9.87
325.485	-9.9
325.698	-19.21
325.912	-9.28
326.125	5.53
326.339	20.8
326.552	23.39
326.766	39.72
326.979	38.65
327.193	36.93
327.406	39.07
327.619	20.92
327.833	12.93
328.046	-1.39
328.26	-18.97
328.473	-26.34
328.686	-22.92
328.9	-35.44
329.113	-18.49
329.326	-6.37
329.54	-7.82
329.753	-1.53
329.966	9.45
330.179	11.52
330.393	21.6
330.606	29.16
330.819	22.3
331.032	27.57
331.246	29.26
331.459	34.2
331.672	39.11
331.885	31.34
332.098	28.77
332.311	20.74
332.525	22.51
332.738	24.26
332.951	24.56
333.164	22.13
333.377	28.3
333.59	28.15
333.803	32.23
334.016	20.29
334.229	19.21
334.442	21.51
334.655	24.82
334.868	28.85
335.081	28.56
335.294	25.58
335.507	37.14
335.72	30.62
335.933	31.02
336.146	25.39
336.359	21.84
336.572	16.82
336.785	24.18
336.997	27.98
337.21	28.47
337.423	27.62
337.636	26.01
337.849	27.4
338.062	36.38
338.274	25.65
338.487	13.53
338.7	18.31
338.913	7.99
339.125	13.37
339.338	12.83
339.551	7.05
339.763	7.47
339.976	12.37
340.189	12.99
340.402	16.44
340.614	16.91
340.827	8.63
341.039	9.48
341.252	13.28
341.465	6.72
341.677	-10.06
341.89	-8.25
342.102	-8.77
342.315	7.21
342.527	-0.62
342.74	-1.86
342.952	2.83
343.165	21.79
343.377	20.54
343.59	22.15
343.802	24.49
344.015	32.79
344.227	28.44
344.44	25.36
344.652	21.14
344.864	24.26
345.077	22.2
345.289	15.87
345.502	7.63
345.714	9.6
345.926	14.55
346.139	12.32
346.351	-5.54
346.563	3.03
346.775	-4.51
346.988	5.3
347.2	4.66
347.412	9.24
347.624	8.68
347.837	14.37
348.049	11.57
348.261	11.64
348.473	3.3
348.685	11.75
348.897	6.26
349.11	10.3
349.322	12.35
349.534	14.02
349.746	25.87
349.958	37.21
350.17	43.55
350.382	40.65
350.594	39.57
350.806	44.06
351.018	37.89
351.23	32.97
351.442	24.77
351.654	22.89
351.866	29.73
352.078	25.89
352.29	21.82
352.502	21.9
352.714	17.42
352.926	20.97
353.138	16.1
353.35	10.01
353.561	10.4
353.773	11.27
353.985	15.06
354.197	14.43
354.409	20.47
354.621	24.6
354.832	20.95
355.044	24.92
355.256	24.47
355.468	21.86
355.679	29.15
355.891	20.17
356.103	13.78
356.314	11.89
356.526	9.18
356.738	3.22
356.949	4.03
357.161	-3.6
357.373	-0.9
357.584	10.94
357.796	9.92
358.008	14.45
358.219	27.95
358.431	32.03
358.642	34.24
358.854	30.8
359.065	23.82
359.277	30.23
359.488	28.31
359.7	21.14
359.911	9.62
360.123	12.87
360.334	13.32
360.546	6.92
360.757	11.55
360.969	13.85
361.18	9.65
361.391	12.89
361.603	15.07
361.814	17.62
362.025	22.48
362.237	20.43
362.448	19.18
362.659	11.48
362.871	13.62
363.082	14.64
363.293	19.11
363.504	23.96
363.716	19.11
363.927	19.62
364.138	26.78
364.349	34.5
364.56	32.24
364.772	19.99
364.983	15.63
365.194	17.14
365.405	12.03
365.616	4.18
365.827	-0.61
366.038	5.54
366.25	13.3
366.461	10.89
366.672	13.72
366.883	19.11
367.094	21.11
367.305	12.92
367.516	8.74
367.727	9.59
367.938	10.47
368.149	10.59
368.36	5.03
368.571	8.09
368.781	8.53
368.992	6.41
369.203	8.45
369.414	6.59
369.625	8.56
369.836	13.42
370.047	12
370.258	9.53
370.468	3.87
370.679	-3.69
370.89	11.32
371.101	8.77
371.312	3.36
371.522	11.44
371.733	12.39
371.944	17.96
372.155	9.52
372.365	-6.26
372.576	-8.73
372.787	-1.62
372.997	-5.85
373.208	-2.04
373.419	-9.63
373.629	9.67
373.84	4.42
374.05	9.14
374.261	2.49
374.472	3.85
374.682	0.61
374.893	3.22
375.103	0.66
375.314	4.49
375.524	5.3
375.735	11.06
375.945	5.93
376.156	10.28
376.366	9.56
376.577	9.88
376.787	15.24
376.997	13.48
377.208	6.51
377.418	12.08
377.629	11.7
377.839	19.47
378.049	22.38
378.26	22.56
378.47	26.42
378.68	29.17
378.89	23.57
379.101	19.4
379.311	17.86
379.521	12.13
379.732	6.3
379.942	2.53
380.152	8.35
380.362	12.1
380.572	17.62
380.783	15.44
380.993	17.47
381.203	22.74
381.413	30.69
381.623	29.05
381.833	23.92
382.043	20.69
382.253	26.38
382.463	28.35
382.674	28.5
382.884	21.27
383.094	21.05
383.304	22.02
383.514	23.85
383.724	17.42
383.934	15.39
384.144	13.2
384.353	12.46
384.563	7.69
384.773	9.16
384.983	6.45
385.193	7.36
385.403	6.35
385.613	1.56
385.823	-1.4
386.033	-1.26
386.242	-2.92
386.452	-4.92
386.662	-4.29
386.872	-2.81
387.082	-2.89
387.291	0.75
387.501	1.64
387.711	4.09
387.921	7.08
388.13	4.7
388.34	1.96
388.55	7.21
388.759	4.46
388.969	2.1
389.179	3.86
389.388	3.03
389.598	2.97
389.807	3.39
390.017	1.79
390.227	3.42
390.436	3.89
390.646	1.9
390.855	2.08
391.065	2.84
391.274	3.21
391.484	3.09
391.693	3.6
391.903	5.12
392.112	4.94
392.322	5.44
392.531	5.19
392.74	3.42
392.95	3.2
393.159	2.92
393.369	2.62
393.578	2.71
393.787	1.01
393.997	2.57
394.206	3.54
394.415	3.86
394.625	3.09
394.834	2.23
395.043	2.58
395.252	3.61
395.462	2.31
395.671	3.2
395.88	3.49
396.089	3.89
396.298	4.36
396.508	4.14
396.717	3.99
396.926	3.64
397.135	3.02
397.344	2.55
397.553	3.29
397.762	2.56
397.971	3.03
398.181	2.7
398.39	3.32
398.599	3.71
398.808	3.94
399.017	3.52
399.226	4.21
399.435	3.86
399.644	4.03
399.853	3.82
400.062	3.5
400.27	3.38
400.479	3.34
400.688	3.2
400.897	3.34
401.106	3.43
401.315	3.43
401.524	3.54
401.733	3.74
401.941	3.61
402.15	3.54
402.359	3.59
402.568	3.64
402.777	3.56
402.985	3.4
403.194	3.11
403.403	3.03
403.612	3.12
403.82	3.05
404.029	2.92
404.238	2.98
404.446	3.02
404.655	3.06
404.864	3.05
405.072	2.91
405.281	2.69
405.489	2.75
405.698	2.64
405.906	2.64
406.115	2.69
406.324	2.64
406.532	2.79
406.741	2.9
406.949	2.74
407.158	2.91
407.366	2.94
407.574	2.95
407.783	2.97
407.991	2.83
408.2	2.78
408.408	2.85
408.617	2.76
408.825	2.74
409.033	2.65
409.242	2.67
409.45	2.69
409.658	2.75
409.867	2.74
410.075	2.69
410.283	2.63
410.491	2.61
410.7	2.63
410.908	2.62
411.116	2.53
411.324	2.52
411.533	2.45
411.741	2.5
411.949	2.47
412.157	2.45
412.365	2.51
412.573	2.52
412.781	2.56
412.99	2.67
413.198	2.65
413.406	2.71
413.614	2.74
413.822	2.67
414.03	2.7
414.238	2.75
414.446	2.66
414.654	2.64
414.862	2.6
415.07	2.61
415.278	2.51
415.486	2.57
415.694	2.43
415.902	2.39
416.109	2.37
416.317	2.38
416.525	2.41
416.733	2.47
416.941	2.41
417.149	2.61
417.357	2.63
417.564	2.59
417.772	2.6
417.98	2.54
418.188	2.49
418.395	2.47
418.603	2.28
418.811	2.28
419.019	2.32
419.226	2.34
419.434	2.2
419.642	2.25
419.849	2.23
420.057	2.3
420.265	2.29
420.472	2.23
420.68	2.14
420.887	2.28
421.095	2.2
421.302	2.28
421.51	2.23
421.717	2.35
421.925	2.32
422.132	2.32
422.34	2.26
422.547	2.3
422.755	2.12
422.962	2.1
423.17	1.97
423.377	2.16
423.585	2.21
423.792	2.22
423.999	2.19
424.207	2.25
424.414	2.32
424.621	2.4
424.829	2.19
425.036	2.06
425.243	2.05
425.451	2.15
425.658	2.28
425.865	2.22
426.072	2.25
426.28	2.33
426.487	2.37
426.694	2.32
426.901	2.19
427.108	2.11
427.315	2.06
427.523	2.02
427.73	2
427.937	2.06
428.144	2.15
428.351	2.3
428.558	2.23
428.765	2.21
428.972	2.23
429.179	2.21
429.386	2.28
429.593	2.22
429.8	2.18
430.007	2.24
430.214	2.34
430.421	2.26
430.628	2.14
430.835	2.07
431.042	2.1
431.249	2.08
431.456	2.09
431.662	2.05
431.869	2.13
432.076	2.27
432.283	2.26
432.49	2.24
432.697	2.26
432.903	2.26
433.11	2.33
433.317	2.34
433.524	2.28
433.73	2.29
433.937	2.34
434.144	2.39
434.35	2.39
434.557	2.34
434.764	2.36
434.97	2.42
435.177	2.41
435.384	2.48
435.59	2.46
435.797	2.43
436.003	2.46
436.21	2.32
436.416	2.28
436.623	2.3
436.829	2.25
437.036	2.21
437.242	2.15
437.449	2.16
437.655	2.25
437.862	2.29
438.068	2.36
438.275	2.35
438.481	2.42
438.687	2.55
438.894	2.52
439.1	2.53
439.307	2.56
439.513	2.56
439.719	2.59
439.926	2.57
440.132	2.55
440.338	2.6
440.544	2.59
440.751	2.56
440.957	2.47
441.163	2.47
441.369	2.46
441.575	2.41
441.782	2.41
441.988	2.44
442.194	2.51
442.4	2.6
442.606	2.68
442.812	2.7
443.018	2.73
443.224	2.74
443.431	2.7
443.637	2.63
443.843	2.67
444.049	2.58
444.255	2.47
444.461	2.45
444.667	2.43
444.873	2.48
445.079	2.51
445.284	2.42
445.49	2.4
445.696	2.52
445.902	2.58
446.108	2.62
446.314	2.65
446.52	2.69
446.726	2.76
446.931	2.79
447.137	2.77
447.343	2.78
447.549	2.75
447.755	2.67
447.96	2.61
448.166	2.61
448.372	2.58
448.578	2.59
448.783	2.55
448.989	2.59
449.195	2.63
449.4	2.73
449.606	2.68
449.812	2.75
450.017	2.77
450.223	2.77
450.428	2.78
450.634	2.84
450.84	2.79
451.045	2.8
451.251	2.81
451.456	2.79
451.662	2.83
451.867	2.78
452.073	2.73
452.278	2.73
452.483	2.76
452.689	2.73
452.894	2.76
453.1	2.69
453.305	2.75
453.51	2.75
453.716	2.81
453.921	2.79
454.127	2.8
454.332	2.76
454.537	2.8
454.742	2.79
454.948	2.77
455.153	2.69
455.358	2.74
455.563	2.73
455.769	2.73
455.974	2.7
456.179	2.68
456.384	2.71
456.589	2.76
456.795	2.68
457	2.72
457.205	2.73
457.41	2.8
457.615	2.84
457.82	2.88
458.025	2.85
458.23	2.89
458.435	2.82
458.64	2.85
458.845	2.8
459.05	2.76
459.255	2.73
459.46	2.73
459.665	2.79
459.87	2.8
460.075	2.8
460.28	2.84
460.485	2.91
460.69	2.85
460.895	2.89
461.099	2.86
461.304	2.9
461.509	2.83
461.714	2.83
461.919	2.79
462.123	2.91
462.328	2.89
462.533	2.9
462.738	2.89
462.942	2.97
463.147	2.93
463.352	2.93
463.556	2.9
463.761	2.92
463.966	2.93
464.17	2.91
464.375	2.83
464.58	2.87
464.784	2.91
464.989	2.91
465.193	2.95
465.398	3
465.602	3.03
465.807	3.12
466.011	3.12
466.216	3.12
466.42	3.12
466.625	3.11
466.829	3.11
467.034	3.14
467.238	3.15
467.443	3.22
467.647	3.2
467.851	3.21
468.056	3.22
468.26	3.17
468.464	3.22
468.669	3.3
468.873	3.28
469.077	3.31
469.282	3.35
469.486	3.4
469.69	3.44
469.894	3.43
470.099	3.42
470.303	3.42
470.507	3.42
470.711	3.36
470.915	3.34
471.119	3.33
471.324	3.3
471.528	3.25
471.732	3.26
471.936	3.3
472.14	3.37
472.344	3.36
472.548	3.37
472.752	3.39
472.956	3.45
473.16	3.48
473.364	3.43
473.568	3.49
473.772	3.55
473.976	3.56
474.18	3.54
474.384	3.46
474.588	3.47
474.792	3.51
474.995	3.45
475.199	3.47
475.403	3.46
475.607	3.53
475.811	3.63
476.015	3.67
476.218	3.68
476.422	3.71
476.626	3.63
476.83	3.66
477.033	3.64
477.237	3.65
477.441	3.66
477.644	3.66
477.848	3.65
478.052	3.71
478.255	3.69
478.459	3.76
478.663	3.74
478.866	3.71
479.07	3.77
479.273	3.78
479.477	3.84
479.681	3.88
479.884	3.83
480.088	3.87
480.291	3.93
480.495	3.92
480.698	3.92
480.901	3.88
481.105	3.91
481.308	3.96
481.512	3.97
481.715	3.96
481.919	3.92
482.122	3.96
482.325	3.98
482.529	3.99
482.732	3.98
482.935	4
483.138	4.02
483.342	4.06
483.545	4.06
483.748	4.1
483.952	4.12
484.155	4.16
484.358	4.15
484.561	4.18
484.764	4.19
484.967	4.18
485.171	4.17
485.374	4.16
485.577	4.16
485.78	4.15
485.983	4.15
486.186	4.15
486.389	4.15
486.592	4.16
486.795	4.15
486.998	4.13
487.201	4.14
487.404	4.16
487.607	4.18
487.81	4.21
488.013	4.22
488.216	4.21
488.419	4.2
488.622	4.16
488.825	4.11
489.028	4.09
489.231	4.06
489.433	4.04
489.636	4.03
489.839	4.03
490.042	4.03
490.245	4.06
490.447	4.07
490.65	4.11
490.853	4.14
491.056	4.15
491.258	4.19
491.461	4.19
491.664	4.17
491.866	4.21
492.069	4.18
492.272	4.16
492.474	4.16
492.677	4.13
492.879	4.17
493.082	4.2
493.285	4.18
493.487	4.21
493.69	4.2
493.892	4.26
494.095	4.25
494.297	4.26
494.5	4.26
494.702	4.28
494.905	4.27
495.107	4.28
495.309	4.2
495.512	4.25
495.714	4.28
495.917	4.32
496.119	4.34
496.321	4.37
496.524	4.37
496.726	4.42
496.928	4.45
497.13	4.48
497.333	4.48
497.535	4.48
497.737	4.46
497.939	4.51
498.142	4.48
498.344	4.48
498.546	4.5
498.748	4.48
498.95	4.46
499.152	4.49
499.355	4.48
499.557	4.56
499.759	4.6
499.961	4.61
500.163	4.66
500.365	4.69
500.567	4.69
500.769	4.72
500.971	4.72
501.173	4.67
501.375	4.66
501.577	4.63
501.779	4.62
501.981	4.67
502.183	4.65
502.385	4.63
502.587	4.64
502.788	4.62
502.99	4.66
503.192	4.7
503.394	4.7
503.596	4.72
503.798	4.8
503.999	4.85
504.201	4.92
504.403	4.95
504.605	4.94
504.806	4.95
505.008	4.98
505.21	4.94
505.411	4.96
505.613	4.94
505.815	4.97
506.016	4.99
506.218	5
506.42	5.02
506.621	5.08
506.823	5.09
507.024	5.08
507.226	5.08
507.427	5.07
507.629	5.12
507.83	5.09
508.032	5.12
508.233	5.12
508.435	5.14
508.636	5.14
508.838	5.19
509.039	5.2
509.24	5.23
509.442	5.19
509.643	5.19
509.845	5.2
510.046	5.24
510.247	5.26
510.448	5.28
510.65	5.33
510.851	5.39
511.052	5.42
511.254	5.43
511.455	5.41
511.656	5.38
511.857	5.37
512.058	5.41
512.26	5.4
512.461	5.4
512.662	5.4
512.863	5.39
513.064	5.41
513.265	5.44
513.466	5.42
513.667	5.43
513.868	5.46
514.069	5.52
514.27	5.56
514.471	5.6
514.672	5.64
514.873	5.68
515.074	5.7
515.275	5.7
515.476	5.71
515.677	5.74
515.878	5.75
516.079	5.73
516.28	5.71
516.481	5.69
516.682	5.75
516.882	5.73
517.083	5.72
517.284	5.71
517.485	5.74
517.686	5.76
517.886	5.79
518.087	5.78
518.288	5.79
518.488	5.82
518.689	5.82
518.89	5.86
519.091	5.84
519.291	5.85
519.492	5.87
519.692	5.93
519.893	5.96
520.094	5.99
520.294	5.95
520.495	6
520.695	6.02
520.896	5.98
521.096	5.96
521.297	5.98
521.497	5.98
521.698	6
521.898	6.02
522.099	6.07
522.299	6.09
522.499	6.1
522.7	6.12
522.9	6.13
523.101	6.14
523.301	6.13
523.501	6.12
523.702	6.18
523.902	6.21
524.102	6.2
524.302	6.21
524.503	6.24
524.703	6.26
524.903	6.26
525.103	6.24
525.304	6.23
525.504	6.24
525.704	6.29
525.904	6.32
526.104	6.32
526.304	6.33
526.504	6.33
526.705	6.37
526.905	6.38
527.105	6.36
527.305	6.32
527.505	6.34
527.705	6.32
527.905	6.34
528.105	6.35
528.305	6.35
528.505	6.39
528.705	6.43
528.905	6.45
529.105	6.49
529.304	6.51
529.504	6.49
529.704	6.51
529.904	6.5
530.104	6.5
530.304	6.49
530.503	6.49
530.703	6.55
530.903	6.6
531.103	6.6
531.303	6.63
531.502	6.65
531.702	6.65
531.902	6.67
532.101	6.62
532.301	6.63
532.501	6.66
532.7	6.66
532.9	6.67
533.1	6.67
533.299	6.69
533.499	6.76
533.698	6.79
533.898	6.82
534.097	6.86
534.297	6.88
534.496	6.95
534.696	6.98
534.895	7.03
535.095	7.03
535.294	6.99
535.494	7.02
535.693	7.06
535.892	7.05
536.092	7.02
536.291	7.01
536.491	7.02
536.69	7.06
536.889	7.06
537.088	7.06
537.288	7.11
537.487	7.17
537.686	7.2
537.886	7.26
538.085	7.3
538.284	7.35
538.483	7.39
538.682	7.4
538.882	7.43
539.081	7.41
539.28	7.41
539.479	7.43
539.678	7.47
539.877	7.51
540.076	7.56
540.275	7.59
540.474	7.63
540.673	7.67
540.872	7.7
541.071	7.71
541.27	7.71
541.469	7.73
541.668	7.76
541.867	7.79
542.066	7.83
542.265	7.85
542.464	7.87
542.663	7.94
542.862	7.97
543.06	7.98
543.259	7.98
543.458	8
543.657	8.04
543.856	8.12
544.054	8.15
544.253	8.16
544.452	8.2
544.651	8.25
544.849	8.3
545.048	8.35
545.247	8.33
545.445	8.34
545.644	8.4
545.843	8.49
546.041	8.57
546.24	8.62
546.438	8.72
546.637	8.8
546.836	8.88
547.034	8.92
547.233	8.96
547.431	8.99
547.63	9.08
547.828	9.1
548.027	9.1
548.225	9.17
548.423	9.23
548.622	9.29
548.82	9.34
549.019	9.33
549.217	9.43
549.415	9.53
549.614	9.57
549.812	9.62
550.01	9.69
550.209	9.78
550.407	9.88
550.605	9.9
550.803	9.98
551.002	10.03
551.2	10.13
551.398	10.18
551.596	10.24
551.794	10.34
551.993	10.38
552.191	10.46
552.389	10.55
552.587	10.6
552.785	10.68
552.983	10.79
553.181	10.8
553.379	10.91
553.577	10.98
553.775	11.09
553.973	11.16
554.171	11.25
554.369	11.29
554.567	11.39
554.765	11.44
554.963	11.54
555.161	11.59
555.359	11.65
555.557	11.76
555.755	11.87
555.952	11.99
556.15	12.1
556.348	12.21
556.546	12.32
556.744	12.44
556.941	12.52
557.139	12.61
557.337	12.68
557.535	12.8
557.732	12.88
557.93	12.99
558.128	13.09
558.325	13.17
558.523	13.24
558.721	13.37
558.918	13.41
559.116	13.49
559.313	13.58
559.511	13.68
559.708	13.79
559.906	13.91
560.104	14.02
560.301	14.17
560.498	14.27
560.696	14.37
560.893	14.48
561.091	14.63
561.288	14.75
561.486	14.88
561.683	14.99
561.88	15.12
562.078	15.23
562.275	15.34
562.473	15.44
562.67	15.54
562.867	15.63
563.064	15.72
563.262	15.87
563.459	16.02
563.656	16.17
563.853	16.23
564.051	16.32
564.248	16.4
564.445	16.51
564.642	16.57
564.839	16.68
565.036	16.77
565.234	16.94
565.431	17.05
565.628	17.18
565.825	17.27
566.022	17.38
566.219	17.45
566.416	17.56
566.613	17.69
566.81	17.81
567.007	17.89
567.204	18.01
567.401	18.12
567.598	18.21
567.795	18.28
567.991	18.35
568.188	18.44
568.385	18.59
568.582	18.71
568.779	18.82
568.976	18.91
569.172	19.04
569.369	19.07
569.566	19.12
569.763	19.22
569.96	19.27
570.156	19.28
570.353	19.35
570.55	19.43
570.746	19.53
570.943	19.72
571.14	19.69
571.336	19.77
571.533	19.92
571.729	20.01
571.926	20
572.123	20.07
572.319	20.03
572.516	20.13
572.712	20.17
572.909	20.21
573.105	20.25
573.302	20.3
573.498	20.35
573.695	20.42
573.891	20.51
574.087	20.55
574.284	20.52
574.48	20.51
574.677	20.58
574.873	20.63
575.069	20.65
575.266	20.63
575.462	20.68
575.658	20.75
575.854	20.83
576.051	20.81
576.247	20.81
576.443	20.85
576.639	20.87
576.835	20.89
577.032	20.91
577.228	20.95
577.424	21.03
577.62	21.08
577.816	21.07
578.012	21.11
578.208	21.11
578.404	21.12
578.6	21.13
578.796	21.09
578.993	21.08
579.189	21.1
579.384	21.06
579.58	21.11
579.776	21.14
579.972	21.13
580.168	21.14
580.364	21.12
580.56	21.09
580.756	21.13
580.952	21.11
581.148	21.08
581.343	21.06
581.539	21.05
581.735	21.05
581.931	21.11
582.127	21.11
582.322	21.11
582.518	21.06
582.714	21.04
582.909	21.05
583.105	21.07
583.301	21.02
583.496	20.99
583.692	20.96
583.888	20.96
584.083	20.98
584.279	21.02
584.474	21.04
584.67	21.05
584.866	21.07
585.061	21.06
585.257	21.14
585.452	21.12
585.648	21.06
585.843	20.98
586.039	20.97
586.234	20.92
586.429	20.94
586.625	20.84
586.82	20.83
587.015	20.82
587.211	20.91
587.406	20.94
587.601	21
587.797	20.98
587.992	21.03
588.187	21.11
588.383	21.14
588.578	21.13
588.773	21.17
588.968	21.22
589.163	21.28
589.359	21.26
589.554	21.24
589.749	21.3
589.944	21.32
590.139	21.33
590.334	21.33
590.529	21.4
590.724	21.51
590.919	21.58
591.114	21.57
591.309	21.67
591.504	21.69
591.699	21.68
591.894	21.69
592.089	21.74
592.284	21.72
592.479	21.77
592.674	21.76
592.869	21.85
593.064	22.01
593.259	22.01
593.454	22.05
593.648	22.12
593.843	22.21
594.038	22.26
594.233	22.31
594.428	22.33
594.622	22.45
594.817	22.54
595.012	22.69
595.206	22.72
595.401	22.79
595.596	22.9
595.79	22.97
595.985	23.02
596.18	23.1
596.374	23.14
596.569	23.3
596.763	23.41
596.958	23.41
597.153	23.46
597.347	23.6
597.542	23.69
597.736	23.79
597.931	23.85
598.125	23.93
598.319	24.02
598.514	24.15
598.708	24.2
598.903	24.31
599.097	24.36
599.291	24.4
599.486	24.48
599.68	24.53
599.874	24.57
600.069	24.64
600.263	24.61
600.457	24.63
600.651	24.68
600.846	24.72
601.04	24.78
601.234	24.82
601.428	24.81
601.622	24.86
601.817	24.91
602.011	25
602.205	25.09
602.399	25.14
602.593	25.16
602.787	25.24
602.981	25.29
603.175	25.29
603.369	25.24
603.563	25.21
603.757	25.17
603.951	25.13
604.145	25.09
604.339	25.04
604.533	25.02
604.727	25.04
604.921	25.03
605.115	25.03
605.309	25.09
605.502	25.05
605.696	25.03
605.89	25.08
606.084	25.01
606.278	24.92
606.471	24.88
606.665	24.78
606.859	24.76
607.053	24.7
607.246	24.57
607.44	24.51
607.634	24.49
607.827	24.37
608.021	24.29
608.214	24.24
608.408	24.22
608.602	24.18
608.795	24.11
608.989	24.03
609.182	24.02
609.376	23.92
609.569	23.76
609.763	23.69
609.956	23.57
610.15	23.52
610.343	23.4
610.537	23.3
610.73	23.3
610.923	23.29
611.117	23.16
611.31	23.07
611.504	22.99
611.697	22.97
611.89	22.89
612.083	22.82
612.277	22.72
612.47	22.68
612.663	22.65
612.856	22.56
613.05	22.44
613.243	22.38
613.436	22.27
613.629	22.19
613.822	22.09
614.015	22.04
614.209	22.04
614.402	22.02
614.595	21.94
614.788	21.83
614.981	21.77
615.174	21.72
615.367	21.62
615.56	21.46
615.753	21.37
615.946	21.33
616.139	21.32
616.332	21.22
616.525	21.21
616.718	21.17
616.911	21.14
617.103	21.09
617.296	20.99
617.489	20.95
617.682	20.94
617.875	20.84
618.067	20.78
618.26	20.72
618.453	20.63
618.646	20.61
618.838	20.55
619.031	20.5
619.224	20.47
619.417	20.42
619.609	20.41
619.802	20.41
619.994	20.35
620.187	20.3
620.38	20.24
620.572	20.17
620.765	20.17
620.957	20.12
621.15	20.08
621.342	20.06
621.535	20.03
621.727	20.01
621.92	20.01
622.112	19.96
622.305	19.88
622.497	19.84
622.69	19.77
622.882	19.77
623.074	19.74
623.267	19.7
623.459	19.71
623.651	19.76
623.844	19.77
624.036	19.82
624.228	19.78
624.42	19.78
624.613	19.74
624.805	19.73
624.997	19.65
625.189	19.64
625.381	19.59
625.574	19.58
625.766	19.53
625.958	19.53
626.15	19.52
626.342	19.52
626.534	19.42
626.726	19.4
626.918	19.34
627.11	19.3
627.302	19.23
627.494	19.17
627.686	19.12
627.878	19.09
628.07	19.03
628.262	19
628.454	18.95
628.646	18.93
628.838	18.87
629.029	18.78
629.221	18.78
629.413	18.73
629.605	18.7
629.797	18.69
629.989	18.63
630.18	18.59
630.372	18.6
630.564	18.6
630.755	18.58
630.947	18.56
631.139	18.5
631.33	18.48
631.522	18.42
631.714	18.38
631.905	18.33
632.097	18.32
632.289	18.25
632.48	18.23
632.672	18.2
632.863	18.18
633.055	18.16
633.246	18.11
633.438	18.07
633.629	18.13
633.821	18.14
634.012	18.17
634.203	18.18
634.395	18.24
634.586	18.23
634.777	18.19
634.969	18.15
635.16	18.09
635.351	17.98
635.543	17.98
635.734	17.91
635.925	17.94
636.117	17.94
636.308	17.9
636.499	17.91
636.69	18.02
636.881	18.02
637.073	18.03
637.264	18.06
637.455	18.1
637.646	18.13
637.837	18.15
638.028	18.12
638.219	18.09
638.41	18.05
638.601	18.01
638.792	17.92
638.983	17.81
639.174	17.83
639.365	17.78
639.556	17.77
639.747	17.78
639.938	17.75
640.129	17.78
640.32	17.83
640.511	17.79
640.701	17.7
640.892	17.73
641.083	17.72
641.274	17.73
641.465	17.7
641.655	17.71
641.846	17.66
642.037	17.73
642.228	17.71
642.418	17.64
642.609	17.57
642.8	17.55
642.99	17.51
643.181	17.53
643.372	17.49
643.562	17.43
643.753	17.4
643.943	17.31
644.134	17.34
644.324	17.36
644.515	17.32
644.705	17.29
644.896	17.27
645.086	17.27
645.277	17.36
645.467	17.28
645.658	17.23
645.848	17.19
646.038	17.19
646.229	17.15
646.419	17.14
646.61	17.1
646.8	17.07
646.99	17.03
647.18	17.01
647.371	16.89
647.561	16.88
647.751	16.84
647.941	16.76
648.132	16.75
648.322	16.76
648.512	16.75
648.702	16.82
648.892	16.84
649.082	16.78
649.272	16.77
649.462	16.75
649.653	16.72
649.843	16.72
650.033	16.68
650.223	16.64
650.413	16.68
650.603	16.67
650.793	16.65
650.983	16.66
651.172	16.58
651.362	16.49
651.552	16.41
651.742	16.33
651.932	16.3
652.122	16.2
652.312	16
652.502	15.92
652.691	15.93
652.881	15.9
653.071	15.75
653.261	15.67
653.45	15.6
653.64	15.56
653.83	15.46
654.019	15.31
654.209	15.2
654.399	15.12
654.588	14.99
654.778	14.88
654.968	14.77
655.157	14.6
655.347	14.43
655.536	14.22
655.726	14.1
655.915	13.94
656.105	13.82
656.294	13.63
656.484	13.56
656.673	13.5
656.863	13.39
657.052	13.18
657.241	13.01
657.431	12.81
657.62	12.65
657.809	12.43
657.999	12.17
658.188	11.98
658.377	11.89
658.567	11.72
658.756	11.55
658.945	11.41
659.134	11.24
659.324	11.11
659.513	10.95
659.702	10.72
659.891	10.57
660.08	10.44
660.269	10.3
660.458	10.16
660.648	9.99
660.837	9.82
661.026	9.69
661.215	9.51
661.404	9.35
661.593	9.14
661.782	9.01
661.971	8.89
662.16	8.77
662.349	8.64
662.538	8.57
662.726	8.41
662.915	8.34
663.104	8.17
663.293	8.03
663.482	7.9
663.671	7.82
663.86	7.66
664.048	7.62
664.237	7.5
664.426	7.52
664.615	7.42
664.803	7.33
664.992	7.29
665.181	7.23
665.369	7.1
665.558	7.08
665.747	7.01
665.935	6.95
666.124	6.9
666.312	6.74
666.501	6.67
666.69	6.61
666.878	6.58
667.067	6.56
667.255	6.58
667.444	6.61
667.632	6.58
667.82	6.54
668.009	6.56
668.197	6.54
668.386	6.41
668.574	6.33
668.762	6.27
668.951	6.29
669.139	6.34
669.327	6.31
669.516	6.29
669.704	6.35
669.892	6.34
670.08	6.33
670.269	6.35
670.457	6.33
670.645	6.35
670.833	6.36
671.021	6.36
671.21	6.43
671.398	6.45
671.586	6.49
671.774	6.52
671.962	6.57
672.15	6.5
672.338	6.53
672.526	6.51
672.714	6.59
672.902	6.61
673.09	6.69
673.278	6.71
673.466	6.89
673.654	6.94
673.842	7.06
674.03	7.09
674.218	7.14
674.405	7.16
674.593	7.22
674.781	7.23
674.969	7.28
675.157	7.35
675.344	7.45
675.532	7.51
675.72	7.56
675.908	7.6
676.095	7.68
676.283	7.68
676.471	7.69
676.658	7.73
676.846	7.88
677.033	7.96
677.221	8.13
677.409	8.22
677.596	8.42
677.784	8.5
677.971	8.64
678.159	8.72
678.346	8.82
678.534	8.86
678.721	8.87
678.909	8.89
679.096	9
679.283	9.08
679.471	9.16
679.658	9.33
679.846	9.46
680.033	9.63
680.22	9.66
680.408	9.74
680.595	9.79
680.782	9.88
680.969	9.92
681.157	10.01
681.344	10.16
681.531	10.36
681.718	10.51
681.905	10.62
682.093	10.81
682.28	11.04
682.467	11.11
682.654	11.24
682.841	11.44
683.028	11.68
683.215	11.89
683.402	12.01
683.589	12.14
683.776	12.34
683.963	12.54
684.15	12.73
684.337	12.83
684.524	13.07
684.711	13.25
684.898	13.47
685.085	13.7
685.271	13.98
685.458	14.3
685.645	14.57
685.832	14.98
686.019	15.32
686.205	15.6
686.392	15.94
686.579	16.18
686.766	16.55
686.952	17.03
687.139	17.25
687.326	17.75
687.512	18.15
687.699	18.5
687.886	18.96
688.072	19.4
688.259	19.71
688.445	20.17
688.632	20.65
688.818	21.14
689.005	21.84
689.191	22.3
689.378	22.73
689.564	23.28
689.751	23.98
689.937	24.39
690.124	24.98
690.31	25.4
690.496	26.01
690.683	26.6
690.869	27.26
691.055	27.82
691.242	28.45
691.428	29.11
691.614	29.93
691.8	30.58
691.987	31.34
692.173	32.17
692.359	32.89
692.545	33.63
692.731	34.36
692.918	34.98
693.104	35.8
693.29	36.51
693.476	37.14
693.662	37.79
693.848	38.36
694.034	38.89
694.22	39.62
694.406	40.23
694.592	40.8
694.778	41.4
694.964	42.1
695.15	42.97
695.336	43.83
695.522	44.53
695.708	45.3
695.894	46.23
696.08	46.98
696.265	47.57
696.451	48.44
696.637	49.08
696.823	49.75
697.009	50.37
697.194	50.99
697.38	51.49
697.566	52.14
697.751	52.51
697.937	53.19
698.123	53.72
698.308	54.27
698.494	54.85
698.68	55.56
698.865	56.24
699.051	56.98
699.236	57.56
699.422	58.14
699.607	58.55
699.793	58.93
699.978	59.36
700.164	59.94
700.349	60.26
700.535	60.81
700.72	61.31
700.906	62.01
701.091	62.49
701.276	63.01
701.462	63.31
701.647	63.74
701.832	64.01
702.018	64.5
702.203	64.74
702.388	65.09
702.573	65.71
702.759	66.14
702.944	66.62
703.129	67.02
703.314	67.4
703.499	67.99
703.684	68.58
703.87	68.83
704.055	69.27
704.24	69.62
704.425	70.02
704.61	70.23
704.795	70.42
704.98	70.53
705.165	70.86
705.35	71.14
705.535	71.45
705.72	71.86
705.905	72.22
706.09	72.46
706.275	72.83
706.459	73.04
706.644	73.21
706.829	73.53
707.014	73.52
707.199	73.71
707.384	73.99
707.568	74.39
707.753	74.73
707.938	74.95
708.123	75.1
708.307	75.63
708.492	75.91
708.677	76.38
708.861	76.49
709.046	76.46
709.231	76.81
709.415	76.98
709.6	77.07
709.784	77.49
709.969	77.52
710.153	77.71
710.338	77.85
710.522	78.01
710.707	78.06
710.891	78.22
711.076	78.04
711.26	78.27
711.445	78.45
711.629	78.87
711.813	78.7
711.998	78.88
712.182	79.01
712.366	79.34
712.551	79.51
712.735	79.57
712.919	79.62
713.103	80.02
713.288	80.34
713.472	80.24
713.656	80.14
713.84	80.11
714.024	80.48
714.208	80.49
714.393	80.66
714.577	80.67
714.761	81.07
714.945	81.34
715.129	81.53
715.313	81.49
715.497	81.67
715.681	81.8
715.865	81.89
716.049	81.95
716.233	82.19
716.417	82.28
716.601	82.41
716.785	82.48
716.968	82.57
717.152	82.84
717.336	82.97
717.52	82.85
717.704	83.17
717.888	83.33
718.071	83.5
718.255	83.5
718.439	83.36
718.622	83.33
718.806	83.13
718.99	82.85
719.174	82.72
719.357	82.67
719.541	82.92
719.724	83.23
719.908	83.38
720.092	83.83
720.275	84.31
720.459	84.33
720.642	84.58
720.826	84.57
721.009	84.38
721.193	84.42
721.376	84.41
721.559	84.02
721.743	84.16
721.926	83.84
722.11	83.7
722.293	83.5
722.476	83.43
722.66	83.62
722.843	83.93
723.026	83.82
723.21	83.92
723.393	84.31
723.576	84.69
723.759	84.84
723.942	84.99
724.126	84.89
724.309	85.04
724.492	85.48
724.675	85.55
724.858	85.69
725.041	85.74
725.224	85.82
725.407	85.67
725.59	85.84
725.774	85.77
725.957	85.92
726.14	86.07
726.322	86.38
726.505	86.68
726.688	86.97
726.871	87.43
727.054	87.55
727.237	87.03
727.42	87.42
727.603	87.31
727.786	87.06
727.968	87.22
728.151	86.94
728.334	87.01
728.517	87.74
728.699	87.92
728.882	88.27
729.065	88.36
729.248	88.43
729.43	88.35
729.613	88.55
729.796	88.13
729.978	87.79
730.161	87.88
730.343	87.98
730.526	88.22
730.708	88.94
730.891	88.78
731.073	88.8
731.256	88.93
731.438	88.82
731.621	89.21
731.803	89.27
731.986	88.89
732.168	89.21
732.35	89.64
732.533	89.8
732.715	89.95
732.898	89.52
733.08	89.95
733.262	90.01
733.444	90.04
733.627	90.01
733.809	89.88
733.991	89.86
734.173	89.66
734.355	89.67
734.538	89.6
734.72	89.89
734.902	89.69
735.084	89.83
735.266	90.24
735.448	90.72
735.63	90.43
735.812	90.83
735.994	90.55
736.176	91.31
736.358	91.45
736.54	90.89
736.722	91.01
736.904	91.33
737.086	91.47
737.268	91.82
737.45	91.54
737.632	91.01
737.814	91.39
737.995	91.25
738.177	91.25
738.359	91.25
738.541	90.77
738.723	90.64
738.904	90.95
739.086	91.3
739.268	91.92
739.449	91.71
739.631	91.94
739.813	91.99
739.994	92.36
740.176	92.54
740.358	92.48
740.539	91.64
740.721	91.69
740.902	91.22
741.084	91.46
741.265	91.28
741.447	90.86
741.628	90.36
741.81	90.99
741.991	91.17
742.172	91.42
742.354	91.79
742.535	91.81
742.717	92.1
742.898	92.42
743.079	92.38
743.261	92.36
743.442	92.23
743.623	92.09
743.804	92.07
743.986	92.34
744.167	92.07
744.348	92.14
744.529	91.67
744.71	91.44
744.891	91.06
745.073	91.34
745.254	91.44
745.435	91.37
745.616	91.11
745.797	90.92
745.978	91.41
746.159	91.69
746.34	91.46
746.521	91.23
746.702	90.74
746.883	91.18
747.064	91.4
747.245	91.31
747.426	91.53
747.606	91.39
747.787	91.67
747.968	93.01
748.149	92.44
748.33	93.14
748.51	92.6
748.691	92.45
748.872	92.29
749.053	91.87
749.233	90.58
749.414	91.23
749.595	90.07
749.775	90.29
749.956	89.62
750.137	89.66
750.317	89.77
750.498	90.5
750.678	89.95
750.859	90.62
751.04	90.57
751.22	90.5
751.4	90.8
751.581	90.74
751.761	91.22
751.942	90.9
752.122	91.02
752.303	91.24
752.483	92.25
752.663	92.78
752.844	92.86
753.024	91.97
753.204	91.96
753.385	91.46
753.565	90.7
753.745	89.8
753.925	88.57
754.106	88.29
754.286	88.64
754.466	88.74
754.646	88.02
754.826	88.78
755.006	89.1
755.187	89.73
755.367	89.91
755.547	89.32
755.727	89.11
755.907	90.69
756.087	90.52
756.267	90.01
756.447	90.05
756.627	89.93
756.807	90.57
756.987	91.39
757.167	91.12
757.346	90.44
757.526	91.28
757.706	90.54
757.886	90.5
758.066	90.05
758.246	89.64
758.425	89.6
758.605	90.11
758.785	89.37
758.965	88.59
759.144	88.82
759.324	89.25
759.504	89.47
759.683	88.47
759.863	88.22
760.043	88.43
760.222	89.57
760.402	89.38
760.581	88.97
760.761	87.7
760.94	87.9
761.12	87.93
761.299	87.36
761.479	87.34
761.658	87.34
761.838	87.3
762.017	87.9
762.197	88.86
762.376	89.15
762.555	89.48
762.735	88.15
762.914	88.59
763.093	88.64
763.273	88.87
763.452	87.86
763.631	87.33
763.81	88.06
763.99	89.68
764.169	88.62
764.348	89.29
764.527	88.67
764.706	88.96
764.885	89.37
765.064	88.33
765.243	88.16
765.423	89.13
765.602	88.22
765.781	88.6
765.96	88.88
766.139	88.24
766.318	89.23
766.497	89.81
766.676	89.9
766.854	89.21
767.033	88.77
767.212	87.79
767.391	87.95
767.57	87.37
767.749	86.55
767.928	84.98
768.106	85.48
768.285	85.69
768.464	86.83
768.643	87.49
768.821	87.87
769	88.31
769.179	87.74
769.357	87.28
769.536	87.25
769.715	85.99
769.893	85.28
770.072	84.44
770.25	83.78
770.429	85.39
770.607	85.4
770.786	86.12
770.964	85.97
771.143	86.08
771.321	86.45
771.5	85.23
771.678	84.7
771.857	85.26
772.035	84.75
772.213	85.73
772.392	85.48
772.57	84.83
772.748	85.22
772.927	84.79
773.105	86
773.283	85.58
773.461	84.99
773.64	84.99
773.818	84.76
773.996	85.33
774.174	85.89
774.352	84.5
774.531	83.87
774.709	84.89
774.887	83.79
775.065	84.57
775.243	84.46
775.421	85.12
775.599	84.5
775.777	85.78
775.955	84.42
776.133	84.8
776.311	83.72
776.489	83.39
776.667	81.45
776.844	81.66
777.022	80.8
777.2	80.74
777.378	82.02
777.556	83.55
777.734	84.34
777.911	85.78
778.089	85.11
778.267	85.17
778.445	85.01
778.622	84.39
778.8	84.33
778.978	84.11
779.155	82.98
779.333	82.24
779.511	81.53
779.688	80.73
779.866	79.79
780.043	79.41
780.221	79.51
780.398	80.61
780.576	80.63
780.753	80.12
780.931	81.26
781.108	83.08
781.286	81.83
781.463	82.04
781.64	80.37
781.818	81.97
781.995	83.3
782.172	83.69
782.35	83.03
782.527	84.26
782.704	82.48
782.882	84.39
783.059	83.21
783.236	83.47
783.413	82.24
783.59	79.65
783.768	78.58
783.945	79.52
784.122	78.69
784.299	80.26
784.476	80.56
784.653	80.6
784.83	81.3
785.007	81.31
785.184	79.61
785.361	79.54
785.538	77.93
785.715	76.05
785.892	75.61
786.069	75.98
786.246	76.75
786.423	79.71
786.6	79.59
786.776	80.28
786.953	81.16
787.13	82.37
787.307	82.97
787.484	82.9
787.66	81.52
787.837	82.23
788.014	82.8
788.191	83.23
788.367	81.94
788.544	79.92
788.721	79.96
788.897	80.31
789.074	79.72
789.25	79.03
789.427	78.92
789.603	82.07
789.78	84.61
789.956	82.36
790.133	82.86
790.309	82.27
790.486	85.77
790.662	83.73
790.839	83.1
791.015	84.19
791.192	84.78
791.368	83.77
791.544	83.83
791.721	79.17
791.897	81.14
792.073	79.25
792.249	81.09
792.426	81.48
792.602	81.9
792.778	81.23
792.954	80.76
793.13	80.98
793.307	78.82
793.483	75.28
793.659	77.12
793.835	74.81
794.011	73.43
794.187	72.82
794.363	74.51
794.539	77.59
794.715	76.35
794.891	71.51
795.067	73.8
795.243	75.59
795.419	79.12
795.595	76.58
795.771	73.96
795.947	74.74
796.122	77.02
796.298	76.34
796.474	76.48
796.65	74.96
796.826	76.66
797.001	79.33
797.177	80.5
797.353	81.91
797.529	82.12
797.704	80.26
797.88	79.45
798.056	77.51
798.231	74.07
798.407	74.99
798.582	74.63
798.758	75.02
798.934	77.41
799.109	75.92
799.285	76.55
799.46	79.76
799.636	79.58
799.811	82.08
799.986	81.85
800.162	80.54
800.337	82.27
800.513	82.39
800.688	82.78
800.863	81.92
801.039	78.21
801.214	76.85
801.389	78.28
801.565	78.19
801.74	77.37
801.915	76.83
802.09	73.39
802.265	74.99
802.441	74.05
802.616	74.63
802.791	76.06
802.966	77.02
803.141	72.81
803.316	80.44
803.491	77.51
803.666	79.11
803.841	78.13
804.016	77.4
804.191	75.59
804.366	78.58
804.541	73.16
804.716	69.3
804.891	71.55
805.066	70.59
805.241	68.89
805.416	67.47
805.591	71.27
805.765	72.95
805.94	78.84
806.115	73.62
806.29	76.95
806.464	74.65
806.639	75.36
806.814	68.65
806.989	66.38
807.163	65.81
807.338	66.19
807.512	59.33
807.687	62.54
807.862	65.45
808.036	70.29
808.211	76.34
808.385	74.03
808.56	79.94
808.734	79.58
808.909	77.42
809.083	73.61
809.258	77.17
809.432	69.07
809.606	71.4
809.781	68
809.955	73.04
810.13	77.22
810.304	78.34
810.478	75.33
810.652	79.35
810.827	77.07
811.001	77.44
811.175	70.17
811.349	68.48
811.524	67.09
811.698	66.76
811.872	65.58
812.046	67.8
812.22	66.29
812.394	75.78
812.568	77.32
812.742	74.97
812.916	71.82
813.09	70.38
813.264	67.85
813.438	74.35
813.612	66.83
813.786	68.82
813.96	73.14
814.134	73.98
814.308	71.79
814.482	73.5
814.656	70.61
814.83	72.01
815.003	70.98
815.177	70.7
815.351	73.26
815.525	73.54
815.698	72.32
815.872	67.96
816.046	67.56
816.219	70.46
816.393	66.2
816.567	61.19
816.74	67.89
816.914	74.76
817.088	77.72
817.261	80.48
817.435	72.75
817.608	78.72
817.782	86.04
817.955	81.06
818.129	73.04
818.302	70.38
818.475	67.08
818.649	67.38
818.822	72.45
818.996	68.55
819.169	67.58
819.342	69.65
819.516	71.42
819.689	72.68
819.862	71.89
820.035	64.58
820.209	67.76
820.382	66.13
820.555	68.04
820.728	61.64
820.901	65.39
821.075	63.09
821.248	63.46
821.421	55.06
821.594	62.48
821.767	61.8
821.94	60.29
822.113	54.59
822.286	63.24
822.459	69.82
822.632	81.18
822.805	70.58
822.978	73.32
823.151	77.85
823.324	75.32
823.496	60.93
823.669	56.49
823.842	47.23
824.015	52.34
824.188	45.64
824.361	45.82
824.533	52.65
824.706	66.56
824.879	65.69
825.051	78.32
825.224	78.78
825.397	75.57
825.569	83.87
825.742	81.28
825.915	78.78
826.087	77.86
826.26	74.29
826.432	74.22
826.605	79.24
826.777	70.29
826.95	64.39
827.122	64.45
827.295	69.4
827.467	60.72
827.64	50.27
827.812	44.88
827.984	50.24
828.157	54.52
828.329	53.67
828.501	52.3
828.674	53.94
828.846	63.9
829.018	58.4
829.19	52.89
829.363	54.06
829.535	50.34
829.707	44.12
829.879	48.63
830.051	43.15
830.223	45.05
830.395	44.61
830.568	52.53
830.74	58.43
830.912	58.05
831.084	57.37
831.256	55.81
831.428	62.35
831.6	60.3
831.772	51.51
831.943	47.39
832.115	62.4
832.287	54.38
832.459	57.4
832.631	58.56
832.803	64.72
832.975	70.41
833.146	67.64
833.318	57.66
833.49	67.03
833.662	67.2
833.833	67.26
834.005	74.22
834.177	71.93
834.348	67.9
834.52	62.88
834.692	63.14
834.863	64.24
835.035	62.93
835.206	46.83
835.378	46.13
835.549	50.49
835.721	49.12
835.892	47.43
836.064	46.89
836.235	51.97
836.407	55.77
836.578	54.06
836.749	55.2
836.921	59.48
837.092	64.76
837.264	60.2
837.435	44.6
837.606	51.62
837.777	43.09
837.949	37.83
838.12	34.49
838.291	36.36
838.462	44.91
838.633	49.34
838.805	46.36
838.976	59.36
839.147	60.95
839.318	62.3
839.489	63.2
839.66	60.13
839.831	58.34
840.002	56.1
840.173	49.24
840.344	58.13
840.515	60.87
840.686	51.73
840.857	49.82
841.028	59.64
841.199	54.09
841.369	44.95
841.54	44.66
841.711	46.29
841.882	42.06
842.053	21.53
842.223	14.28
842.394	20.28
842.565	48.26
842.736	48.52
842.906	51.28
843.077	65.22
843.248	87.35
843.418	72.92
843.589	83
843.759	68.38
843.93	62.93
844.101	56.77
844.271	54.11
844.442	47.07
844.612	45.84
844.783	20.11
844.953	21.86
845.123	34.29
845.294	34.18
845.464	29.53
845.635	33.14
845.805	49.01
845.975	57.64
846.146	54.2
846.316	61.4
846.486	68.86
846.656	81.55
846.827	64.43
846.997	64.71
847.167	66.05
847.337	82.3
847.507	71.47
847.677	69.54
847.848	66.15
848.018	75.4
848.188	64.66
848.358	90.42
848.528	81.52
848.698	62.48
848.868	49.87
849.038	54.37
849.208	65.92
849.378	58.63
849.548	42.26
849.718	38.84
849.887	55.26
850.057	60.99
850.227	46.86
850.397	32.97
850.567	43.17
850.737	49.07
850.906	54.13
851.076	51.02
851.246	48.36
851.415	65.81
851.585	69.98
851.755	73.15
851.924	78.68
852.094	68.78
852.264	65.34
852.433	79.2
852.603	79.54
852.772	60.61
852.942	51.4
853.111	53.89
853.281	61.01
853.45	67.99
853.62	56.3
853.789	47.99
853.959	63.7
854.128	64.5
854.297	53.49
854.467	41.9
854.636	27.94
854.805	40
854.975	30.99
855.144	38.17
855.313	42.64
855.482	44.62
855.652	39.12
855.821	45.51
855.99	48.27
856.159	41.66
856.328	35.05
856.497	34.52
856.667	39.51
856.836	43.83
857.005	30.46
857.174	38.88
857.343	39.9
857.512	28.62
857.681	13.3
857.85	6.64
858.019	10.64
858.188	23.14
858.356	-25.57
858.525	17.01
858.694	45.54
858.863	64.6
859.032	51.34
859.201	67.45
859.369	73.46
859.538	88.7
859.707	67.44
859.876	56.81
860.044	67.53
860.213	74.52
860.382	63.65
860.55	78.29
860.719	92.71
860.888	88.91
861.056	97.26
861.225	96.53
861.393	121.41
861.562	105.76
861.73	73.26
861.899	34.49
862.067	45.24
862.236	43.25
862.404	35.32
862.572	23.08
862.741	23.22
862.909	25.9
863.078	44.75
863.246	50.16
863.414	48.01
863.582	48.49
863.751	24.9
863.919	35.51
864.087	39.5
864.255	32.74
864.424	24.95
864.592	26.54
864.76	33.58
864.928	45.68
865.096	41.19
865.264	49.96
865.432	49.78
865.6	39
865.768	30.12
865.936	24.4
866.104	29.83
866.272	33.93
866.44	-31.85
866.608	-31.88
866.776	8.3
866.944	-6.12
867.112	-28.55
867.28	-66.87
867.448	-29.52
867.615	11.09
867.783	3.27
867.951	20.15
868.119	60.02
868.286	83.57
868.454	70.94
868.622	73.06
868.789	83.02
868.957	85.89
869.125	56.2
869.292	48.03
869.46	52.97
869.627	45.43
869.795	47.82
869.963	40.01
870.13	48.34
870.298	63.75
870.465	55.99
870.632	53.19
870.8	71.62
870.967	50.63
871.135	50.43
871.302	45.06
871.469	35.59
871.637	38.85
871.804	44.78
871.971	43.78
872.139	46.44
872.306	49.78
872.473	40.21
872.64	47.72
872.807	48.62
872.975	55.9
873.142	45.65
873.309	77.48
873.476	50.99
873.643	86.22
873.81	129.44
873.977	85.37
874.144	59.76
874.311	17
874.478	-44.76
874.645	-36.5
874.812	-12.42
874.979	-29.4
875.146	-55.68
875.313	-56.68
875.48	34.7
875.647	54.61
875.813	74.89
875.98	59.17
876.147	48.57
876.314	66.18
876.481	55.03
876.647	40.5
876.814	56.36
876.981	55.15
877.147	47.53
877.314	56.43
877.481	50.48
877.647	48.94
877.814	45.43
877.98	57.85
878.147	43.01
878.314	54.2
878.48	53.8
878.647	70.19
878.813	76.87
878.979	127.63
879.146	87.37
879.312	100.54
879.479	75.11
879.645	47.56
879.811	36.74
879.978	38.8
880.144	-7.29
880.31	-41.28
880.477	-69.13
880.643	-166.21
880.809	11.41
880.975	-42.55
881.142	-33.79
881.308	-8.59
881.474	63.69
881.64	49.32
881.806	50.77
881.972	62.81
882.138	85.48
882.304	88.94
882.47	51.66
882.636	3.27
882.802	-0.6
882.968	-15.68
883.134	-117.33
883.3	-16.77
883.466	8.21
883.632	-7.57
883.798	-26.7
883.964	-7.56
884.129	16.42
884.295	18.07
884.461	8.2
884.627	17.11
884.793	28.54
884.958	41.58
885.124	4.13
885.29	10.65
885.455	7.6
885.621	1.31
885.787	-12.44
885.952	-17.27
886.118	-10.02
886.283	4.5
886.449	-43.73
886.614	-39.09
886.78	-0.83
886.945	-10.91
887.111	-2.38
887.276	-15.96
887.442	-8.13
887.607	-1.47
887.773	-22.13
887.938	-24.48
888.103	18.83
888.269	13.37
888.434	15.07
888.599	40.89
888.764	53.24
888.93	65
889.095	44.33
889.26	72.6
889.425	87.69
889.59	67.29
889.756	53.46
889.921	45.67
890.086	61.8
890.251	48.57
890.416	-19.03
890.581	-28.31
890.746	-14.88
890.911	-54.8
891.076	-84.82
891.241	-158.44
891.406	-29.68
891.571	-1.9
891.736	-18.62
891.901	7.96
892.065	34.71
892.23	22.23
892.395	17.36
892.56	29.65
892.725	24.29
892.889	16.23
893.054	-44.98
893.219	-106.16
893.384	-177.3
893.548	-403.33
893.713	1067.82
893.878	559.24
