Data from Ofra_PS_T2_2A_2CX12_Reflection_2.txt Node
Date: Wed Jul 21 16:58:10 EDT 2021
User: Adam
Spectrometer: FLMT01687
Trigger mode: 0
Integration Time (sec): 1.100000E0
Scans to average: 2
Electric dark correction enabled: true
Nonlinearity correction enabled: false
Boxcar width: 2
XAxis mode: Wavelengths
Number of Pixels in Spectrum: 3648
>>>>>Begin Spectral Data<<<<<
179.494	584.4
179.716	630.35
179.937	621.47
180.158	577.87
180.38	945.94
180.601	438.4
180.823	136.19
181.044	-76.07
181.265	38.6
181.486	0.4
181.708	-11.43
181.929	-162.24
182.15	73.94
182.372	128.21
182.593	-37.11
182.814	-36.92
183.035	33.13
183.257	-27.21
183.478	-97.34
183.699	-5.97
183.92	-1.96
184.141	-17.66
184.363	-27.67
184.584	1.73
184.805	25.1
185.026	53.06
185.247	25.92
185.468	20.96
185.689	8.53
185.91	-3.1
186.132	-29.09
186.353	-13.76
186.574	14.47
186.795	40.73
187.016	1.79
187.237	-20.89
187.458	-51.49
187.679	-51.66
187.9	-42.06
188.121	-41.57
188.342	-16.82
188.563	25.65
188.784	53.9
189.005	32.94
189.226	101.2
189.447	90.34
189.667	0.73
189.888	-287.44
190.109	-1034.42
190.33	-682.26
190.551	-1206.64
190.772	-244.43
190.993	-155.73
191.214	-147.71
191.434	-93.06
191.655	-21.17
191.876	-63.68
192.097	-136.1
192.318	-154
192.538	-240.62
192.759	-187.56
192.98	-124.79
193.201	-35.87
193.421	-13.87
193.642	9.65
193.863	6.85
194.083	-3.22
194.304	-30.21
194.525	-38.75
194.745	-79.14
194.966	-53.66
195.187	-53.06
195.407	-57.5
195.628	-113.22
195.848	-112.64
196.069	-142.97
196.29	-85.86
196.51	-99.61
196.731	-85.52
196.951	-117.84
197.172	-116.44
197.392	-141.23
197.613	-130.16
197.833	-133.31
198.054	-99.65
198.274	-53.51
198.495	-66.03
198.715	-34.92
198.936	-53.08
199.156	-47.64
199.377	-109.42
199.597	-98.93
199.817	-137.92
200.038	-74.57
200.258	-115.03
200.479	-68.97
200.699	-111.57
200.919	-29.19
201.14	-31.35
201.36	-35.73
201.58	-20.23
201.801	13.08
202.021	-10.54
202.241	-16.95
202.461	-16.68
202.682	-57.69
202.902	-109.91
203.122	-49.42
203.342	-17.89
203.563	-2.73
203.783	23.12
204.003	10.74
204.223	11.99
204.443	28.84
204.663	17.77
204.884	14
205.104	46.66
205.324	47.21
205.544	43.24
205.764	50.04
205.984	46.55
206.204	40.53
206.424	28.36
206.644	0.13
206.864	-8.05
207.084	-66.54
207.304	-64.86
207.525	-168.28
207.745	-105.53
207.964	-8.71
208.184	-41.63
208.404	-73.1
208.624	-82.24
208.844	-84.01
209.064	-354.95
209.284	-390.54
209.504	-229.36
209.724	-71.99
209.944	-43.08
210.164	-27.22
210.384	-8.55
210.604	-13.91
210.823	-56.84
211.043	-68.54
211.263	-46.03
211.483	-49.93
211.703	-98.42
211.922	-73.01
212.142	-16.87
212.362	-32.41
212.582	-40.67
212.801	-16.96
213.021	-40.73
213.241	-76.2
213.461	-85.02
213.68	-72.58
213.9	-62.22
214.12	-33.06
214.339	-64.95
214.559	-43.95
214.779	-17.23
214.998	-12.23
215.218	-56.29
215.438	-31.48
215.657	-37.85
215.877	-22.51
216.096	11.79
216.316	16.53
216.535	1.99
216.755	5.12
216.974	-66.4
217.194	-128.33
217.413	-117.33
217.633	-105.22
217.852	-169
218.072	-65.39
218.291	-30.36
218.511	13.57
218.73	-7.75
218.95	-6.28
219.169	-22.1
219.389	-56.15
219.608	-49.38
219.827	-34.17
220.047	-34.85
220.266	-12.53
220.485	-10.76
220.705	-9.53
220.924	-30.87
221.143	3.69
221.363	-7.27
221.582	-11.49
221.801	-7
222.021	-1.57
222.24	-109.15
222.459	-121.08
222.678	-95.49
222.897	-136.95
223.117	-177.6
223.336	-132.67
223.555	-102.45
223.774	-30.11
223.993	-44.7
224.213	38.11
224.432	33.82
224.651	58.32
224.87	5.87
225.089	24.84
225.308	3.77
225.527	18.66
225.746	14.12
225.965	22.79
226.184	-10.43
226.404	16.85
226.623	-11.58
226.842	-16.65
227.061	2.16
227.28	16.22
227.499	-7.37
227.718	18.52
227.936	19.75
228.155	34.93
228.374	36.82
228.593	47.49
228.812	51.13
229.031	41.26
229.25	-5.08
229.469	-26.03
229.688	-45.54
229.907	-12.68
230.125	-13.03
230.344	13.02
230.563	33.65
230.782	41.14
231.001	-21.56
231.22	-13.41
231.438	1.45
231.657	-13.26
231.876	-26.39
232.095	7.52
232.313	-1.23
232.532	-40.79
232.751	-59.04
232.969	-51.99
233.188	-97.91
233.407	-17.62
233.625	-8.49
233.844	-7.26
234.063	-12.27
234.281	4.2
234.5	-30.97
234.719	-17.69
234.937	-1.12
235.156	10.35
235.374	7.84
235.593	16.51
235.811	1.33
236.03	-12.42
236.249	-41.5
236.467	-36.7
236.686	-3.45
236.904	7.78
237.123	-10.89
237.341	-7.69
237.559	-5.81
237.778	-16.92
237.996	-41.35
238.215	-0.48
238.433	-0.89
238.652	-3.86
238.87	-31.89
239.088	-14.95
239.307	-27.3
239.525	-37.56
239.743	-53.29
239.962	-38.92
240.18	-58.56
240.398	-82.25
240.617	-71.58
240.835	-43.34
241.053	-17.59
241.271	22.16
241.49	33.18
241.708	25.96
241.926	-16.37
242.144	-7.99
242.363	-38.86
242.581	-24.34
242.799	-6.09
243.017	14.54
243.235	-1.09
243.453	1.81
243.672	-21.01
243.89	-25.55
244.108	-35.32
244.326	-10.89
244.544	-16.14
244.762	-17.56
244.98	-2.25
245.198	4.05
245.416	-38.57
245.634	-43.05
245.852	-41.88
246.07	-41.56
246.288	-7.19
246.506	-31.13
246.724	-7.17
246.942	-12.36
247.16	-16.68
247.378	-26.8
247.596	10.32
247.814	11.79
248.032	-0.78
248.25	8.9
248.468	0.95
248.685	5.75
248.903	30.55
249.121	33.54
249.339	10.32
249.557	18.64
249.775	12.81
249.992	-62.14
250.21	-54.34
250.428	-33.44
250.646	-71.2
250.863	-91.08
251.081	-50.03
251.299	-56.32
251.517	-69.03
251.734	-45.92
251.952	-42.78
252.17	-30.77
252.387	-14.91
252.605	-13.07
252.823	-1.38
253.04	10.41
253.258	32.39
253.475	25.46
253.693	48.92
253.911	35.1
254.128	34.49
254.346	16.95
254.563	5.97
254.781	-27
254.998	-41.48
255.216	-45.98
255.433	-28.34
255.651	23.07
255.868	12.76
256.086	50.85
256.303	56.25
256.521	48.85
256.738	13.9
256.956	0.09
257.173	-44.47
257.39	-74.08
257.608	-103.32
257.825	-60.39
258.043	-46.44
258.26	-25.28
258.477	16.46
258.695	6.14
258.912	-44.62
259.129	-8.34
259.346	-35.64
259.564	-67.74
259.781	-99.09
259.998	-30.15
260.216	-21.23
260.433	12.68
260.65	6.03
260.867	15.36
261.084	-26.45
261.302	-56.53
261.519	-64.21
261.736	-78.99
261.953	-88.82
262.17	-33.47
262.387	-43.37
262.604	-89.09
262.822	-110.05
263.039	-85
263.256	-143.39
263.473	-104.43
263.69	-44.88
263.907	1.16
264.124	0.44
264.341	-9.7
264.558	-12.11
264.775	-9.74
264.992	-20.64
265.209	-10.06
265.426	23.68
265.643	28.69
265.86	22.23
266.077	29
266.294	13.77
266.51	-21.5
266.727	-31.06
266.944	-29.19
267.161	-39.8
267.378	-46.45
267.595	-5.72
267.812	-31.07
268.028	-27.69
268.245	1.16
268.462	3.18
268.679	-19.57
268.896	35.86
269.112	35.2
269.329	16.16
269.546	15.1
269.763	13.48
269.979	-9.89
270.196	-24.8
270.413	-37.72
270.629	-66.19
270.846	-80.9
271.063	-70.64
271.279	-83.96
271.496	-60.83
271.712	-15.21
271.929	1.84
272.146	-41.13
272.362	-3.41
272.579	14.6
272.795	20.44
273.012	21.77
273.228	43.58
273.445	13.07
273.661	-29.53
273.878	-82.81
274.094	-66.21
274.311	-79.79
274.527	-44.44
274.744	-40.62
274.96	-26.56
275.177	-19.57
275.393	-7.89
275.609	-4.38
275.826	21.68
276.042	24.07
276.259	14.81
276.475	24.21
276.691	13.94
276.908	-18.53
277.124	-21.4
277.34	-17.16
277.557	-34.59
277.773	-20.15
277.989	-16.96
278.205	-17.69
278.422	-9.93
278.638	-10.83
278.854	-1.11
279.07	-2.63
279.286	31.45
279.503	19.21
279.719	8.76
279.935	-10.76
280.151	-13.83
280.367	-19.36
280.583	-61.83
280.799	-40.56
281.016	-59.04
281.232	-25.25
281.448	-29.34
281.664	11.95
281.88	-13.76
282.096	-2.35
282.312	5.53
282.528	16.39
282.744	-9.67
282.96	-6.35
283.176	-6.62
283.392	-9.85
283.608	-35.12
283.824	-25.67
284.04	-15
284.256	-11.71
284.471	-5.06
284.687	10.13
284.903	14.5
285.119	27.22
285.335	6.77
285.551	-9.76
285.767	-32.5
285.982	-35.75
286.198	-49.55
286.414	-14.45
286.63	13.73
286.846	37.39
287.061	15.94
287.277	33.68
287.493	23.32
287.709	33.12
287.924	18.29
288.14	63.95
288.356	48.44
288.571	49.52
288.787	12.1
289.003	10.74
289.218	-2
289.434	-30.48
289.65	-32.66
289.865	-24.76
290.081	-0.57
290.296	-11.49
290.512	4.77
290.727	-13.95
290.943	-8.21
291.159	-9.93
291.374	-11.47
291.59	-11.27
291.805	9.37
292.021	4.97
292.236	-5.24
292.451	-1.01
292.667	2.34
292.882	7.73
293.098	-6.1
293.313	-29.37
293.529	-57.5
293.744	-76.94
293.959	-89.02
294.175	-59.47
294.39	-19
294.605	3.26
294.821	18.32
295.036	26.92
295.251	29.41
295.467	23.16
295.682	6.59
295.897	-36.99
296.112	-49.93
296.328	-49.62
296.543	-90.67
296.758	-80.98
296.973	-38.6
297.188	-1.46
297.404	-23.93
297.619	-19.13
297.834	-15.62
298.049	-27.89
298.264	-53.63
298.479	-20.69
298.694	-24.84
298.909	-11.14
299.125	-6.17
299.34	3.82
299.555	-13.93
299.77	-9.19
299.985	-37.37
300.2	-65.95
300.415	-86.63
300.63	-54
300.845	-62.9
301.06	-60.84
301.275	-28.11
301.49	-10.68
301.704	-28.14
301.919	-11.76
302.134	-19.5
302.349	-24.22
302.564	-83.4
302.779	-113.14
302.994	-148.82
303.209	-86.27
303.423	-54.72
303.638	4.61
303.853	5.3
304.068	7.32
304.283	-0.08
304.497	-0.95
304.712	-3.48
304.927	-3.28
305.142	-10.25
305.356	-13.71
305.571	-33.76
305.786	-39.81
306	-54.59
306.215	-56.47
306.43	-67.85
306.644	-42.79
306.859	-5.37
307.074	-1.85
307.288	-15.54
307.503	-18.51
307.717	-28.58
307.932	-46.39
308.147	-41.79
308.361	-19.96
308.576	-31.95
308.79	-72.65
309.005	-49.57
309.219	-36.78
309.434	-60.14
309.648	-40.56
309.863	-7
310.077	-21.93
310.292	-32.9
310.506	-24.45
310.72	-2.86
310.935	-4.9
311.149	0.8
311.364	25.88
311.578	36.48
311.792	22.04
312.007	22.4
312.221	12.6
312.435	10.6
312.649	2.79
312.864	23.44
313.078	41
313.292	105.45
313.507	66.15
313.721	49.46
313.935	22.12
314.149	9.11
314.363	-6.98
314.578	4
314.792	9.66
315.006	-0.07
315.22	8.33
315.434	11.44
315.648	7.93
315.862	14.28
316.077	4.13
316.291	-16.64
316.505	-28.23
316.719	-30.39
316.933	-43.95
317.147	-29.24
317.361	-79
317.575	-88.84
317.789	-105.84
318.003	-176.37
318.217	-146.02
318.431	-38.45
318.645	-6.88
318.859	-14.61
319.073	10.39
319.287	12.73
319.5	-16.86
319.714	-42.38
319.928	-58.7
320.142	-81.32
320.356	-31.63
320.57	13.91
320.784	-11.66
320.997	-12.09
321.211	-1.67
321.425	-68.58
321.639	-109.68
321.853	-35.83
322.066	-5.69
322.28	-8.78
322.494	6.79
322.707	27.14
322.921	16.15
323.135	5.74
323.349	19.34
323.562	-1.6
323.776	-16.84
323.989	-34.76
324.203	-54.39
324.417	-73.99
324.63	-82.83
324.844	-75.15
325.057	-37.79
325.271	-16.97
325.485	13.12
325.698	41.42
325.912	50.52
326.125	27.96
326.339	23.84
326.552	-3.28
326.766	-11.63
326.979	0.29
327.193	32.01
327.406	36.27
327.619	23.52
327.833	36.37
328.046	11.35
328.26	-26.59
328.473	-14.92
328.686	-4.85
328.9	-16.44
329.113	1.9
329.326	-10.06
329.54	-6.76
329.753	-37.62
329.966	-68.91
330.179	-70.04
330.393	-27.21
330.606	-22.24
330.819	-2.67
331.032	18.47
331.246	23.91
331.459	31.26
331.672	26.17
331.885	26.51
332.098	7.68
332.311	-13.03
332.525	-50.04
332.738	-52.03
332.951	-42.19
333.164	-8.51
333.377	24.06
333.59	38.91
333.803	47.93
334.016	47.04
334.229	35.39
334.442	27.1
334.655	30.9
334.868	17.57
335.081	9.23
335.294	12.44
335.507	0.1
335.72	-7.61
335.933	-15.28
336.146	-9.04
336.359	-19.11
336.572	-48.51
336.785	-76.31
336.997	-64.96
337.21	-51.14
337.423	-52.91
337.636	-42.47
337.849	-13.78
338.062	-31.81
338.274	-23.57
338.487	-17.55
338.7	-12.18
338.913	-46.23
339.125	-59.42
339.338	-123.45
339.551	-103.91
339.763	-76.06
339.976	-60.28
340.189	-31.46
340.402	-18.51
340.614	-21.86
340.827	-28.53
341.039	-27.04
341.252	-27.26
341.465	-4
341.677	-4.4
341.89	-30.94
342.102	-12.42
342.315	-11.5
342.527	-40.95
342.74	-40.33
342.952	-18.45
343.165	-14.45
343.377	-7.21
343.59	-10.56
343.802	3.23
344.015	-3.19
344.227	-5.65
344.44	-6.36
344.652	-10.47
344.864	-23.37
345.077	9.9
345.289	2.59
345.502	-1
345.714	-4.34
345.926	-8.55
346.139	-30.92
346.351	-12.25
346.563	3.6
346.775	8.4
346.988	4.64
347.2	8.46
347.412	-48.26
347.624	-71.73
347.837	-90.72
348.049	-71.67
348.261	-40.5
348.473	-6.24
348.685	-11.09
348.897	-15.28
349.11	-37.09
349.322	-90.05
349.534	-81.14
349.746	-66.24
349.958	-40.81
350.17	-14.51
350.382	14.45
350.594	-0.95
350.806	0.62
351.018	4.36
351.23	-22.49
351.442	-59.64
351.654	-59.33
351.866	-47.64
352.078	-38.72
352.29	-22.25
352.502	1.86
352.714	12.36
352.926	-8.1
353.138	-20.07
353.35	-17.59
353.561	-13.28
353.773	-26.17
353.985	-14.11
354.197	-8.24
354.409	1.33
354.621	-23.28
354.832	-15.34
355.044	-6.41
355.256	-14.14
355.468	-10.99
355.679	-7.9
355.891	-0.94
356.103	-28.28
356.314	-7.95
356.526	-23.11
356.738	-11.83
356.949	-34.02
357.161	-16.44
357.373	-31.5
357.584	-26.23
357.796	-12.64
358.008	-3.39
358.219	5.21
358.431	6.4
358.642	11.02
358.854	5.85
359.065	-4.67
359.277	-25.65
359.488	-28.58
359.7	-58.53
359.911	-59.45
360.123	-38.51
360.334	-48.15
360.546	-64.52
360.757	-37.71
360.969	-28.74
361.18	-45.79
361.391	-15.13
361.603	-5.12
361.814	-2.85
362.025	-14.5
362.237	-10.48
362.448	-6.41
362.659	3.95
362.871	-8.03
363.082	-7.62
363.293	-15.61
363.504	-24.87
363.716	-52.75
363.927	-57.75
364.138	-74.18
364.349	-66.49
364.56	-51.69
364.772	-46.9
364.983	-9.33
365.194	-6.85
365.405	5.22
365.616	10.11
365.827	14.93
366.038	-21.37
366.25	-20.58
366.461	-56.47
366.672	-37.99
366.883	-13.4
367.094	-4.21
367.305	-7.56
367.516	8.86
367.727	-11.84
367.938	-24.05
368.149	-19.38
368.36	-1.17
368.571	-0.45
368.781	-7
368.992	-25.34
369.203	-42.04
369.414	-67.55
369.625	-80.96
369.836	-65.63
370.047	-68.92
370.258	-57.73
370.468	-52.78
370.679	-67.71
370.89	-75.42
371.101	-52.89
371.312	-53.84
371.522	-46.91
371.733	-25.29
371.944	-2.75
372.155	-0.07
372.365	-4.98
372.576	-7.69
372.787	-10.87
372.997	-52.35
373.208	-49.81
373.419	-29.1
373.629	-52.22
373.84	-47.06
374.05	-27.9
374.261	-30.34
374.472	-38.24
374.682	-0.2
374.893	-0.22
375.103	15.7
375.314	19.14
375.524	17.99
375.735	10.89
375.945	14.67
376.156	3.87
376.366	-3.15
376.577	-1.88
376.787	-4.12
376.997	-11.39
377.208	-4.45
377.418	-13.4
377.629	-3.13
377.839	1.46
378.049	6.32
378.26	9.43
378.47	17.39
378.68	5.59
378.89	-4.18
379.101	-13.17
379.311	-40.88
379.521	-68.3
379.732	-62.89
379.942	-52.7
380.152	-55.73
380.362	-15.9
380.572	0.39
380.783	13.83
380.993	20.53
381.203	28.02
381.413	23.73
381.623	26.49
381.833	13.47
382.043	-1.83
382.253	-10.07
382.463	-6.6
382.674	-21.95
382.884	-31.71
383.094	-21.87
383.304	-13.26
383.514	-8.24
383.724	2.44
383.934	2.83
384.144	-11.71
384.353	-20.16
384.563	-24.62
384.773	-14.44
384.983	-23.12
385.193	-4.13
385.403	0.12
385.613	-2.39
385.823	-23.38
386.033	-10.98
386.242	-13.91
386.452	-11.62
386.662	-13.49
386.872	4.81
387.082	-4.4
387.291	-10.96
387.501	-16.15
387.711	-15.39
387.921	-17.38
388.13	-8.65
388.34	2.17
388.55	-2.94
388.759	-0.44
388.969	1.7
389.179	-6.06
389.388	-12.77
389.598	-3.09
389.807	-11.25
390.017	-17.96
390.227	-13.11
390.436	-8.29
390.646	-6.62
390.855	0.8
391.065	3.11
391.274	3
391.484	0.26
391.693	1.04
391.903	2
392.112	7.18
392.322	7.34
392.531	10.5
392.74	9.78
392.95	4.92
393.159	1.8
393.369	3.03
393.578	1.04
393.787	-1.45
393.997	0.66
394.206	-0.79
394.415	-0.56
394.625	-0.23
394.834	-0.07
395.043	1.18
395.252	3.95
395.462	4.83
395.671	6.3
395.88	7.15
396.089	7.67
396.298	6.26
396.508	4.75
396.717	3.56
396.926	3.57
397.135	2.4
397.344	2.48
397.553	4.3
397.762	5.26
397.971	5.82
398.181	6.41
398.39	5.97
398.599	4.98
398.808	5.57
399.017	5.84
399.226	7.1
399.435	8.05
399.644	8.37
399.853	7.38
400.062	6.63
400.27	5.66
400.479	5.45
400.688	5.05
400.897	5.18
401.106	5.35
401.315	5.19
401.524	5.2
401.733	5.78
401.941	5.9
402.15	6.17
402.359	6.09
402.568	6.56
402.777	6.47
402.985	6.33
403.194	6.06
403.403	6.09
403.612	5.53
403.82	5.44
404.029	5.79
404.238	5.93
404.446	6.08
404.655	6.08
404.864	6.09
405.072	5.81
405.281	5.85
405.489	5.73
405.698	5.66
405.906	5.55
406.115	5.68
406.324	5.54
406.532	5.79
406.741	6
406.949	5.98
407.158	5.76
407.366	5.86
407.574	5.66
407.783	5.54
407.991	5.42
408.2	5.49
408.408	5.41
408.617	5.3
408.825	5.28
409.033	5.4
409.242	5.62
409.45	5.71
409.658	5.72
409.867	5.79
410.075	5.62
410.283	5.43
410.491	5.31
410.7	5.33
410.908	5.23
411.116	5.58
411.324	5.59
411.533	5.45
411.741	5.53
411.949	5.44
412.157	5.06
412.365	5.06
412.573	5.23
412.781	5.27
412.99	5.25
413.198	5.45
413.406	5.4
413.614	5.37
413.822	5.14
414.03	5.12
414.238	5.01
414.446	5.03
414.654	4.8
414.862	4.84
415.07	4.97
415.278	5.14
415.486	5.02
415.694	5.24
415.902	5.25
416.109	4.98
416.317	4.87
416.525	4.71
416.733	4.66
416.941	4.76
417.149	4.95
417.357	5.01
417.564	5.09
417.772	5.19
417.98	5.06
418.188	5
418.395	4.92
418.603	5.19
418.811	4.89
419.019	4.96
419.226	5.16
419.434	5.22
419.642	4.89
419.849	5.02
420.057	5.07
420.265	5.02
420.472	4.74
420.68	4.9
420.887	4.83
421.095	4.7
421.302	4.66
421.51	4.79
421.717	4.88
421.925	4.99
422.132	4.92
422.34	4.68
422.547	4.73
422.755	4.5
422.962	4.36
423.17	4.38
423.377	4.47
423.585	4.49
423.792	4.47
423.999	4.42
424.207	4.19
424.414	4.23
424.621	4.08
424.829	3.99
425.036	4.09
425.243	4.39
425.451	4.27
425.658	4.3
425.865	4.5
426.072	4.45
426.28	4.58
426.487	4.63
426.694	4.67
426.901	4.54
427.108	4.5
427.315	4.35
427.523	4.48
427.73	4.4
427.937	4.5
428.144	4.46
428.351	4.52
428.558	4.52
428.765	4.61
428.972	4.57
429.179	4.76
429.386	4.9
429.593	4.71
429.8	4.61
430.007	4.65
430.214	4.62
430.421	4.42
430.628	4.36
430.835	4.3
431.042	4.48
431.249	4.53
431.456	4.57
431.662	4.78
431.869	5
432.076	4.88
432.283	5.02
432.49	5.02
432.697	5.1
432.903	4.94
433.11	4.9
433.317	4.81
433.524	4.92
433.73	4.74
433.937	4.99
434.144	4.89
434.35	4.8
434.557	4.61
434.764	4.64
434.97	4.42
435.177	4.58
435.384	4.61
435.59	4.8
435.797	5.11
436.003	5.13
436.21	5.12
436.416	5.17
436.623	5.04
436.829	4.93
437.036	5.09
437.242	5.1
437.449	4.99
437.655	5.17
437.862	5.16
438.068	5.09
438.275	5.24
438.481	5.53
438.687	5.39
438.894	5.33
439.1	5.37
439.307	5.46
439.513	5.32
439.719	5.28
439.926	5.47
440.132	5.46
440.338	5.21
440.544	5.32
440.751	5.33
440.957	5.25
441.163	5.16
441.369	5.29
441.575	5.1
441.782	5.13
441.988	5.11
442.194	5.2
442.4	5.21
442.606	5.51
442.812	5.61
443.018	5.64
443.224	5.6
443.431	5.6
443.637	5.34
443.843	5.29
444.049	5.17
444.255	5.11
444.461	5.16
444.667	5.23
444.873	5.31
445.079	5.37
445.284	5.51
445.49	5.31
445.696	5.16
445.902	5.12
446.108	5.07
446.314	5.02
446.52	5.18
446.726	5.44
446.931	5.46
447.137	5.58
447.343	5.68
447.549	5.64
447.755	5.49
447.96	5.51
448.166	5.46
448.372	5.32
448.578	5.39
448.783	5.5
448.989	5.55
449.195	5.64
449.4	5.72
449.606	5.69
449.812	5.54
450.017	5.54
450.223	5.47
450.428	5.43
450.634	5.44
450.84	5.58
451.045	5.46
451.251	5.41
451.456	5.58
451.662	5.66
451.867	5.72
452.073	5.74
452.278	5.9
452.483	5.84
452.689	5.72
452.894	5.69
453.1	5.73
453.305	5.66
453.51	5.58
453.716	5.56
453.921	5.49
454.127	5.47
454.332	5.36
454.537	5.32
454.742	5.37
454.948	5.38
455.153	5.39
455.358	5.49
455.563	5.67
455.769	5.68
455.974	5.66
456.179	5.54
456.384	5.49
456.589	5.32
456.795	5.22
457	5.13
457.205	5.28
457.41	5.4
457.615	5.44
457.82	5.52
458.025	5.56
458.23	5.53
458.435	5.47
458.64	5.37
458.845	5.48
459.05	5.56
459.255	5.51
459.46	5.47
459.665	5.55
459.87	5.5
460.075	5.45
460.28	5.52
460.485	5.64
460.69	5.65
460.895	5.58
461.099	5.62
461.304	5.72
461.509	5.65
461.714	5.64
461.919	5.67
462.123	5.6
462.328	5.62
462.533	5.54
462.738	5.65
462.942	5.63
463.147	5.74
463.352	5.72
463.556	5.82
463.761	5.79
463.966	5.79
464.17	5.78
464.375	5.7
464.58	5.66
464.784	5.61
464.989	5.61
465.193	5.58
465.398	5.62
465.602	5.65
465.807	5.61
466.011	5.59
466.216	5.6
466.42	5.63
466.625	5.72
466.829	5.81
467.034	5.94
467.238	6.18
467.443	6.11
467.647	5.99
467.851	6.08
468.056	6.06
468.26	5.89
468.464	5.92
468.669	6.03
468.873	6.08
469.077	6.09
469.282	6.16
469.486	6.16
469.69	6.2
469.894	6.05
470.099	6.02
470.303	6.1
470.507	6.1
470.711	6
470.915	6.03
471.119	6.01
471.324	5.96
471.528	6.05
471.732	6.13
471.936	6.17
472.14	6.26
472.344	6.29
472.548	6.29
472.752	6.4
472.956	6.57
473.16	6.58
473.364	6.5
473.568	6.44
473.772	6.45
473.976	6.35
474.18	6.33
474.384	6.32
474.588	6.34
474.792	6.23
474.995	6.23
475.199	6.3
475.403	6.43
475.607	6.54
475.811	6.53
476.015	6.62
476.218	6.59
476.422	6.49
476.626	6.5
476.83	6.61
477.033	6.58
477.237	6.52
477.441	6.59
477.644	6.61
477.848	6.61
478.052	6.55
478.255	6.59
478.459	6.63
478.663	6.7
478.866	6.7
479.07	6.79
479.273	6.97
479.477	6.97
479.681	6.93
479.884	6.92
480.088	6.86
480.291	6.79
480.495	6.8
480.698	6.82
480.901	6.83
481.105	6.94
481.308	6.86
481.512	6.84
481.715	6.89
481.919	7.01
482.122	7.04
482.325	7.15
482.529	7.19
482.732	7.11
482.935	7.02
483.138	6.91
483.342	6.95
483.545	6.99
483.748	7.13
483.952	7.15
484.155	7.3
484.358	7.29
484.561	7.27
484.764	7.15
484.967	7.23
485.171	7.23
485.374	7.19
485.577	7.22
485.78	7.32
485.983	7.34
486.186	7.31
486.389	7.36
486.592	7.43
486.795	7.37
486.998	7.24
487.201	7.27
487.404	7.32
487.607	7.33
487.81	7.29
488.013	7.41
488.216	7.35
488.419	7.23
488.622	7.19
488.825	7.2
489.028	7.11
489.231	7.08
489.433	7.11
489.636	7.01
489.839	7.06
490.042	7.08
490.245	7.13
490.447	7.12
490.65	7.15
490.853	7.2
491.056	7.24
491.258	7.24
491.461	7.3
491.664	7.35
491.866	7.23
492.069	7.23
492.272	7.24
492.474	7.29
492.677	7.34
492.879	7.47
493.082	7.52
493.285	7.64
493.487	7.54
493.69	7.43
493.892	7.32
494.095	7.28
494.297	7.17
494.5	7.17
494.702	7.23
494.905	7.28
495.107	7.33
495.309	7.37
495.512	7.43
495.714	7.44
495.917	7.49
496.119	7.45
496.321	7.49
496.524	7.58
496.726	7.63
496.928	7.62
497.13	7.64
497.333	7.59
497.535	7.57
497.737	7.57
497.939	7.6
498.142	7.68
498.344	7.72
498.546	7.66
498.748	7.7
498.95	7.77
499.152	7.69
499.355	7.76
499.557	7.82
499.759	7.88
499.961	7.83
500.163	7.92
500.365	7.9
500.567	7.99
500.769	7.89
500.971	7.91
501.173	7.86
501.375	7.9
501.577	7.84
501.779	7.85
501.981	7.85
502.183	7.85
502.385	7.76
502.587	7.69
502.788	7.82
502.99	7.88
503.192	7.91
503.394	7.92
503.596	8.01
503.798	7.96
503.999	8
504.201	8.01
504.403	8.08
504.605	8.09
504.806	8.05
505.008	8.04
505.21	8.05
505.411	8.07
505.613	8.07
505.815	8.1
506.016	8.12
506.218	8.22
506.42	8.17
506.621	8.13
506.823	8.21
507.024	8.18
507.226	8.13
507.427	8.15
507.629	8.28
507.83	8.29
508.032	8.3
508.233	8.37
508.435	8.44
508.636	8.46
508.838	8.43
509.039	8.48
509.24	8.47
509.442	8.49
509.643	8.46
509.845	8.51
510.046	8.56
510.247	8.61
510.448	8.58
510.65	8.62
510.851	8.63
511.052	8.58
511.254	8.54
511.455	8.62
511.656	8.67
511.857	8.76
512.058	8.81
512.26	8.82
512.461	8.82
512.662	8.82
512.863	8.69
513.064	8.68
513.265	8.71
513.466	8.75
513.667	8.71
513.868	8.73
514.069	8.78
514.27	8.79
514.471	8.72
514.672	8.76
514.873	8.78
515.074	8.83
515.275	8.79
515.476	8.79
515.677	8.77
515.878	8.88
516.079	8.78
516.28	8.83
516.481	8.94
516.682	9
516.882	8.88
517.083	8.92
517.284	8.87
517.485	8.84
517.686	8.81
517.886	8.87
518.087	8.94
518.288	8.95
518.488	8.9
518.689	8.95
518.89	8.92
519.091	8.9
519.291	8.97
519.492	9.09
519.692	9.05
519.893	9.09
520.094	9.03
520.294	8.99
520.495	8.9
520.695	9.07
520.896	9.08
521.096	9.18
521.297	9.19
521.497	9.21
521.698	9.08
521.898	9.06
522.099	9.04
522.299	9.11
522.499	9.15
522.7	9.16
522.9	9.17
523.101	9.19
523.301	9.2
523.501	9.2
523.702	9.26
523.902	9.39
524.102	9.45
524.302	9.44
524.503	9.5
524.703	9.49
524.903	9.47
525.103	9.39
525.304	9.43
525.504	9.41
525.704	9.45
525.904	9.4
526.104	9.45
526.304	9.49
526.504	9.5
526.705	9.47
526.905	9.55
527.105	9.57
527.305	9.49
527.505	9.45
527.705	9.47
527.905	9.39
528.105	9.38
528.305	9.4
528.505	9.48
528.705	9.52
528.905	9.55
529.105	9.54
529.304	9.6
529.504	9.66
529.704	9.61
529.904	9.67
530.104	9.69
530.304	9.73
530.503	9.65
530.703	9.66
530.903	9.61
531.103	9.69
531.303	9.69
531.502	9.74
531.702	9.8
531.902	9.81
532.101	9.74
532.301	9.78
532.501	9.8
532.7	9.8
532.9	9.83
533.1	9.92
533.299	9.88
533.499	9.88
533.698	9.88
533.898	9.89
534.097	9.86
534.297	9.96
534.496	9.9
534.696	9.98
534.895	10.11
535.095	10.22
535.294	10.18
535.494	10.22
535.693	10.18
535.892	10.13
536.092	10.04
536.291	10.02
536.491	10.11
536.69	10.18
536.889	10.15
537.088	10.09
537.288	10.14
537.487	10.16
537.686	10.18
537.886	10.26
538.085	10.41
538.284	10.54
538.483	10.52
538.682	10.56
538.882	10.6
539.081	10.59
539.28	10.46
539.479	10.49
539.678	10.43
539.877	10.5
540.076	10.54
540.275	10.59
540.474	10.64
540.673	10.69
540.872	10.63
541.071	10.67
541.27	10.72
541.469	10.76
541.668	10.83
541.867	10.86
542.066	10.84
542.265	10.84
542.464	10.86
542.663	10.81
542.862	10.96
543.06	11.05
543.259	11.16
543.458	11.26
543.657	11.39
543.856	11.38
544.054	11.32
544.253	11.3
544.452	11.23
544.651	11.27
544.849	11.25
545.048	11.39
545.247	11.41
545.445	11.47
545.644	11.5
545.843	11.55
546.041	11.55
546.24	11.65
546.438	11.7
546.637	11.71
546.836	11.8
547.034	11.83
547.233	11.86
547.431	11.88
547.63	11.95
547.828	11.97
548.027	12.09
548.225	12.18
548.423	12.22
548.622	12.29
548.82	12.3
549.019	12.31
549.217	12.35
549.415	12.44
549.614	12.47
549.812	12.54
550.01	12.56
550.209	12.61
550.407	12.68
550.605	12.71
550.803	12.78
551.002	12.86
551.2	12.85
551.398	12.94
551.596	13.08
551.794	13.13
551.993	13.26
552.191	13.41
552.389	13.5
552.587	13.54
552.785	13.61
552.983	13.6
553.181	13.72
553.379	13.74
553.577	13.81
553.775	13.88
553.973	13.98
554.171	14.02
554.369	14.05
554.567	14.16
554.765	14.18
554.963	14.27
555.161	14.27
555.359	14.4
555.557	14.46
555.755	14.62
555.952	14.76
556.15	14.83
556.348	14.94
556.546	15.06
556.744	15.05
556.941	15.02
557.139	15.18
557.337	15.16
557.535	15.19
557.732	15.37
557.93	15.52
558.128	15.64
558.325	15.8
558.523	15.84
558.721	15.9
558.918	15.91
559.116	15.99
559.313	16.09
559.511	16.21
559.708	16.27
559.906	16.45
560.104	16.49
560.301	16.58
560.498	16.66
560.696	16.73
560.893	16.75
561.091	16.8
561.288	16.92
561.486	17.03
561.683	17.14
561.88	17.28
562.078	17.42
562.275	17.38
562.473	17.49
562.67	17.64
562.867	17.73
563.064	17.86
563.262	17.95
563.459	18.03
563.656	18.16
563.853	18.27
564.051	18.34
564.248	18.54
564.445	18.67
564.642	18.68
564.839	18.8
565.036	18.95
565.234	19.08
565.431	19.08
565.628	19.16
565.825	19.3
566.022	19.38
566.219	19.49
566.416	19.69
566.613	19.88
566.81	19.89
567.007	19.86
567.204	19.93
567.401	19.92
567.598	20.02
567.795	20.16
567.991	20.25
568.188	20.31
568.385	20.49
568.582	20.56
568.779	20.6
568.976	20.7
569.172	20.84
569.369	20.86
569.566	20.92
569.763	20.99
569.96	21.05
570.156	21.04
570.353	21.13
570.55	21.17
570.746	21.23
570.943	21.37
571.14	21.39
571.336	21.43
571.533	21.53
571.729	21.48
571.926	21.5
572.123	21.65
572.319	21.67
572.516	21.56
572.712	21.73
572.909	21.67
573.105	21.62
573.302	21.68
573.498	21.89
573.695	21.83
573.891	22
574.087	22.08
574.284	22.11
574.48	22.04
574.677	22.13
574.873	22.1
575.069	22.08
575.266	22.03
575.462	22.07
575.658	22.13
575.854	22.26
576.051	22.28
576.247	22.35
576.443	22.35
576.639	22.33
576.835	22.17
577.032	22.15
577.228	22.21
577.424	22.25
577.62	22.22
577.816	22.33
578.012	22.37
578.208	22.32
578.404	22.33
578.6	22.35
578.796	22.29
578.993	22.29
579.189	22.33
579.384	22.24
579.58	22.17
579.776	22.21
579.972	22.15
580.168	22.09
580.364	22.06
580.56	22.08
580.756	22.02
580.952	22.03
581.148	22.07
581.343	22.15
581.539	22.16
581.735	22.16
581.931	22.21
582.127	22.22
582.322	22.12
582.518	22.11
582.714	22.15
582.909	22.11
583.105	21.95
583.301	21.94
583.496	21.98
583.692	21.93
583.888	21.89
584.083	22.05
584.279	22.09
584.474	22.04
584.67	22.06
584.866	22.09
585.061	21.93
585.257	21.95
585.452	21.93
585.648	21.83
585.843	21.92
586.039	21.96
586.234	22.06
586.429	22.08
586.625	22.19
586.82	22.05
587.015	22.07
587.211	21.89
587.406	21.92
587.601	21.91
587.797	21.89
587.992	21.89
588.187	21.92
588.383	21.8
588.578	21.82
588.773	21.85
588.968	21.89
589.163	22
589.359	22.09
589.554	22.03
589.749	22.07
589.944	22.16
590.139	22.12
590.334	22.17
590.529	22.24
590.724	22.32
590.919	22.34
591.114	22.41
591.309	22.56
591.504	22.7
591.699	22.59
591.894	22.62
592.089	22.57
592.284	22.51
592.479	22.45
592.674	22.51
592.869	22.65
593.064	22.75
593.259	22.9
593.454	22.94
593.648	22.97
593.843	22.87
594.038	22.85
594.233	22.76
594.428	22.86
594.622	22.97
594.817	23.08
595.012	23.21
595.206	23.24
595.401	23.3
595.596	23.47
595.79	23.62
595.985	23.73
596.18	23.89
596.374	23.95
596.569	23.89
596.763	23.88
596.958	23.88
597.153	23.99
597.347	23.96
597.542	24.17
597.736	24.24
597.931	24.36
598.125	24.36
598.319	24.44
598.514	24.4
598.708	24.5
598.903	24.46
599.097	24.52
599.291	24.61
599.486	24.68
599.68	24.69
599.874	24.88
600.069	24.85
600.263	24.88
600.457	24.97
600.651	25.01
600.846	25.03
601.04	25.06
601.234	25.15
601.428	25.14
601.622	25.13
601.817	25.08
602.011	25.16
602.205	25.19
602.399	25.25
602.593	25.33
602.787	25.38
602.981	25.39
603.175	25.42
603.369	25.3
603.563	25.29
603.757	25.27
603.951	25.25
604.145	25.18
604.339	25.31
604.533	25.13
604.727	25.05
604.921	25.05
605.115	25.09
605.309	25.06
605.502	25.17
605.696	25.2
605.89	25.11
606.084	25.08
606.278	25.01
606.471	24.91
606.665	24.88
606.859	24.96
607.053	24.94
607.246	24.97
607.44	24.97
607.634	24.88
607.827	24.82
608.021	24.68
608.214	24.57
608.408	24.54
608.602	24.49
608.795	24.39
608.989	24.4
609.182	24.35
609.376	24.24
609.569	24.22
609.763	24.09
609.956	23.94
610.15	23.88
610.343	23.84
610.537	23.76
610.73	23.75
610.923	23.67
611.117	23.52
611.31	23.47
611.504	23.45
611.697	23.36
611.89	23.26
612.083	23.26
612.277	23.17
612.47	23.06
612.663	22.98
612.856	22.93
613.05	22.84
613.243	22.78
613.436	22.73
613.629	22.63
613.822	22.57
614.015	22.47
614.209	22.29
614.402	22.26
614.595	22.24
614.788	22.21
614.981	22.05
615.174	21.96
615.367	21.84
615.56	21.81
615.753	21.8
615.946	21.83
616.139	21.89
616.332	21.87
616.525	21.75
616.718	21.67
616.911	21.6
617.103	21.58
617.296	21.53
617.489	21.47
617.682	21.47
617.875	21.42
618.067	21.23
618.26	21.16
618.453	21.12
618.646	20.98
618.838	20.91
619.031	21.02
619.224	20.95
619.417	21
619.609	21.11
619.802	21.16
619.994	21.13
620.187	21.11
620.38	20.97
620.572	20.78
620.765	20.8
620.957	20.6
621.15	20.6
621.342	20.62
621.535	20.68
621.727	20.55
621.92	20.6
622.112	20.5
622.305	20.48
622.497	20.41
622.69	20.36
622.882	20.39
623.074	20.44
623.267	20.37
623.459	20.25
623.651	20.26
623.844	20.23
624.036	20.19
624.228	20.15
624.42	20.2
624.613	20.27
624.805	20.3
624.997	20.27
625.189	20.24
625.381	20.33
625.574	20.2
625.766	20.03
625.958	20.03
626.15	20.05
626.342	19.91
626.534	19.9
626.726	19.91
626.918	19.8
627.11	19.77
627.302	19.82
627.494	19.72
627.686	19.81
627.878	19.8
628.07	19.77
628.262	19.61
628.454	19.58
628.646	19.54
628.838	19.6
629.029	19.59
629.221	19.69
629.413	19.69
629.605	19.58
629.797	19.47
629.989	19.45
630.18	19.3
630.372	19.28
630.564	19.25
630.755	19.2
630.947	19.28
631.139	19.16
631.33	19.05
631.522	19.18
631.714	19.2
631.905	19.02
632.097	19.01
632.289	19.08
632.48	18.88
632.672	18.73
632.863	18.7
633.055	18.78
633.246	18.72
633.438	18.72
633.629	18.76
633.821	18.84
634.012	18.75
634.203	18.67
634.395	18.71
634.586	18.65
634.777	18.54
634.969	18.56
635.16	18.66
635.351	18.6
635.543	18.67
635.734	18.71
635.925	18.64
636.117	18.66
636.308	18.72
636.499	18.62
636.69	18.47
636.881	18.5
637.073	18.46
637.264	18.38
637.455	18.41
637.646	18.55
637.837	18.6
638.028	18.59
638.219	18.66
638.41	18.57
638.601	18.5
638.792	18.52
638.983	18.55
639.174	18.41
639.365	18.48
639.556	18.45
639.747	18.32
639.938	18.32
640.129	18.31
640.32	18.28
640.511	18.36
640.701	18.4
640.892	18.29
641.083	18.34
641.274	18.37
641.465	18.35
641.655	18.34
641.846	18.33
642.037	18.27
642.228	18.27
642.418	18.28
642.609	18.22
642.8	18.27
642.99	18.21
643.181	18.15
643.372	18.15
643.562	18.16
643.753	17.98
643.943	17.96
644.134	17.96
644.324	17.86
644.515	17.87
644.705	17.99
644.896	18.09
645.086	18.09
645.277	18.01
645.467	17.97
645.658	17.93
645.848	17.97
646.038	17.91
646.229	17.9
646.419	17.89
646.61	17.87
646.8	17.74
646.99	17.76
647.18	17.8
647.371	17.79
647.561	17.78
647.751	17.81
647.941	17.69
648.132	17.66
648.322	17.61
648.512	17.64
648.702	17.61
648.892	17.71
649.082	17.67
649.272	17.51
649.462	17.35
649.653	17.24
649.843	17.16
650.033	17.19
650.223	17.21
650.413	17.19
650.603	17.19
650.793	17.18
650.983	17.1
651.172	17.07
651.362	17.07
651.552	17.02
651.742	16.88
651.932	16.83
652.122	16.89
652.312	16.86
652.502	16.9
652.691	16.94
652.881	16.87
653.071	16.71
653.261	16.56
653.45	16.34
653.64	16.26
653.83	16.12
654.019	16.07
654.209	16.15
654.399	16.11
654.588	16.01
654.778	15.94
654.968	15.86
655.157	15.75
655.347	15.7
655.536	15.55
655.726	15.34
655.915	15.22
656.105	14.97
656.294	14.77
656.484	14.63
656.673	14.62
656.863	14.53
657.052	14.38
657.241	14.17
657.431	14.01
657.62	13.85
657.809	13.59
657.999	13.48
658.188	13.37
658.377	13.17
658.567	13.04
658.756	12.87
658.945	12.71
659.134	12.6
659.324	12.46
659.513	12.31
659.702	12.2
659.891	12.07
660.08	11.95
660.269	12.03
660.458	11.86
660.648	11.79
660.837	11.72
661.026	11.62
661.215	11.28
661.404	11.14
661.593	11.04
661.782	10.8
661.971	10.71
662.16	10.64
662.349	10.53
662.538	10.31
662.726	10.22
662.915	9.98
663.104	9.87
663.293	9.86
663.482	9.91
663.671	9.82
663.86	9.77
664.048	9.69
664.237	9.64
664.426	9.43
664.615	9.41
664.803	9.3
664.992	9.17
665.181	9
665.369	8.89
665.558	8.78
665.747	8.71
665.935	8.86
666.124	8.85
666.312	8.9
666.501	8.86
666.69	8.81
666.878	8.62
667.067	8.45
667.255	8.48
667.444	8.7
667.632	8.77
667.82	8.88
668.009	8.96
668.197	8.82
668.386	8.6
668.574	8.66
668.762	8.56
668.951	8.5
669.139	8.63
669.327	8.58
669.516	8.61
669.704	8.55
669.892	8.71
670.08	8.64
670.269	8.59
670.457	8.49
670.645	8.47
670.833	8.58
671.021	8.66
671.21	8.78
671.398	9.01
671.586	9.06
671.774	8.88
671.962	8.92
672.15	9.04
672.338	8.79
672.526	8.86
672.714	8.81
672.902	8.86
673.09	8.94
673.278	9.2
673.466	9.32
673.654	9.49
673.842	9.52
674.03	9.53
674.218	9.49
674.405	9.48
674.593	9.48
674.781	9.57
674.969	9.58
675.157	9.74
675.344	9.9
675.532	10.13
675.72	10.32
675.908	10.37
676.095	10.3
676.283	10.23
676.471	10.31
676.658	10.28
676.846	10.36
677.033	10.57
677.221	10.78
677.409	10.63
677.596	10.7
677.784	10.79
677.971	10.88
678.159	11
678.346	11.21
678.534	11.28
678.721	11.52
678.909	11.54
679.096	11.55
679.283	11.82
679.471	12.09
679.658	11.95
679.846	12.22
680.033	12.51
680.22	12.37
680.408	12.19
680.595	12.52
680.782	12.38
680.969	12.36
681.157	12.66
681.344	12.91
681.531	12.9
681.718	13.04
681.905	13.25
682.093	13.36
682.28	13.45
682.467	13.8
682.654	14.01
682.841	14.05
683.028	14.34
683.215	14.66
683.402	14.61
683.589	14.87
683.776	15.19
683.963	15.17
684.15	15.32
684.337	15.63
684.524	15.79
684.711	16.03
684.898	16.15
685.085	16.35
685.271	16.65
685.458	16.82
685.645	17.05
685.832	17.5
686.019	17.89
686.205	18.07
686.392	18.4
686.579	18.48
686.766	18.75
686.952	18.95
687.139	19.38
687.326	19.79
687.512	20.33
687.699	20.76
687.886	21.03
688.072	21.25
688.259	21.67
688.445	22.07
688.632	22.33
688.818	23.05
689.005	23.38
689.191	23.78
689.378	24.32
689.564	24.85
689.751	25.28
689.937	25.85
690.124	26.25
690.31	26.56
690.496	27.09
690.683	27.54
690.869	28.09
691.055	28.77
691.242	29.48
691.428	30.02
691.614	30.5
691.8	31.12
691.987	31.5
692.173	31.95
692.359	32.5
692.545	33.19
692.731	33.67
692.918	34.43
693.104	34.99
693.29	35.85
693.476	36.31
693.662	37.05
693.848	37.63
694.034	38.14
694.22	38.44
694.406	39.23
694.592	39.77
694.778	40.27
694.964	41.1
695.15	41.7
695.336	42.05
695.522	42.84
695.708	43.48
695.894	43.94
696.08	44.58
696.265	45.26
696.451	45.63
696.637	46.3
696.823	47.04
697.009	47.44
697.194	47.96
697.38	48.66
697.566	49.15
697.751	49.47
697.937	50.22
698.123	50.74
698.308	51.22
698.494	51.85
698.68	52.21
698.865	52.78
699.051	53.21
699.236	53.66
699.422	54.11
699.607	54.5
699.793	54.78
699.978	55.19
700.164	55.59
700.349	56.05
700.535	56.68
700.72	57.23
700.906	57.94
701.091	58.3
701.276	58.66
701.462	59.44
701.647	59.85
701.832	60.5
702.018	61.19
702.203	61.39
702.388	61.24
702.573	61.53
702.759	61.74
702.944	61.78
703.129	62.02
703.314	62.62
703.499	62.71
703.684	62.81
703.87	63.44
704.055	64.13
704.24	64.54
704.425	65.14
704.61	65.73
704.795	65.73
704.98	65.98
705.165	66.02
705.35	66.39
705.535	66.26
705.72	66.74
705.905	67.06
706.09	67.83
706.275	68.24
706.459	68.73
706.644	68.69
706.829	68.82
707.014	68.61
707.199	68.69
707.384	68.86
707.568	69.3
707.753	69.55
707.938	69.8
708.123	69.85
708.307	69.97
708.492	70.24
708.677	70.45
708.861	70.55
709.046	70.75
709.231	71.04
709.415	71.18
709.6	71.18
709.784	71.16
709.969	71.17
710.153	70.92
710.338	70.99
710.522	71.25
710.707	71.79
710.891	71.98
711.076	72.25
711.26	71.95
711.445	72.25
711.629	72.3
711.813	72.39
711.998	72.89
712.182	73.47
712.366	73.73
712.551	73.97
712.735	74.37
712.919	74.22
713.103	74.32
713.288	74.04
713.472	73.98
713.656	74.3
713.84	74.45
714.024	74.87
714.208	75.13
714.393	75.46
714.577	75.43
714.761	75.66
714.945	75.34
715.129	75.19
715.313	75.5
715.497	75.35
715.681	75.79
715.865	75.61
716.049	76.1
716.233	75.47
716.417	75.89
716.601	75.7
716.785	76.02
716.968	75.63
717.152	75.92
717.336	75.74
717.52	75.63
717.704	75.62
717.888	76.32
718.071	76.62
718.255	76.73
718.439	76.74
718.622	76.87
718.806	76.8
718.99	76.73
719.174	76.5
719.357	76.66
719.541	76.9
719.724	76.33
719.908	76.88
720.092	77.26
720.275	77.93
720.459	77.65
720.642	78.02
720.826	77.24
721.009	77.25
721.193	76.6
721.376	77.31
721.559	77.2
721.743	78.03
721.926	78.37
722.11	78.52
722.293	77.68
722.476	77.84
722.66	77.38
722.843	77.31
723.026	77.02
723.21	77.77
723.393	78.27
723.576	78.63
723.759	78.22
723.942	78.8
724.126	79.02
724.309	78.97
724.492	78.32
724.675	78.69
724.858	78.68
725.041	78.69
725.224	78.8
725.407	79.98
725.59	80.77
725.774	80.29
725.957	79.97
726.14	79.97
726.322	79.94
726.505	79.53
726.688	80.51
726.871	80.44
727.054	80.5
727.237	79.98
727.42	80.38
727.603	80.1
727.786	80.7
727.968	80.78
728.151	81.06
728.334	80.56
728.517	80.85
728.699	81.33
728.882	81.08
729.065	81.67
729.248	81.75
729.43	81.97
729.613	81.82
729.796	82.65
729.978	81.82
730.161	82.11
730.343	81.84
730.526	81.68
730.708	81.02
730.891	81.2
731.073	80.67
731.256	80.66
731.438	80.34
731.621	80.96
731.803	81.22
731.986	81.59
732.168	80.65
732.35	81.38
732.533	81.09
732.715	81.27
732.898	81.4
733.08	82.29
733.262	82.62
733.444	83
733.627	83.03
733.809	83.91
733.991	84.86
734.173	84.33
734.355	84.3
734.538	84.76
734.72	83.58
734.902	83.06
735.084	82.89
735.266	82.77
735.448	83.31
735.63	84.42
735.812	84.29
735.994	84.92
736.176	84.84
736.358	84.19
736.54	84.7
736.722	84.59
736.904	84.59
737.086	84.65
737.268	85.19
737.45	84.46
737.632	84.89
737.814	84.08
737.995	84.94
738.177	85.34
738.359	84.65
738.541	85.11
738.723	86.12
738.904	86.47
739.086	85.63
739.268	86.44
739.449	85.71
739.631	85.39
739.813	84.96
739.994	86.05
740.176	85.67
740.358	86.28
740.539	86.8
740.721	86.84
740.902	86.01
741.084	85.56
741.265	84.98
741.447	85.12
741.628	85.05
741.81	84.62
741.991	85.93
742.172	86.92
742.354	87.1
742.535	87.29
742.717	87.27
742.898	86.66
743.079	86.75
743.261	85.74
743.442	84.84
743.623	85.81
743.804	86.65
743.986	87.41
744.167	87
744.348	87.3
744.529	86.45
744.71	85.56
744.891	83.89
745.073	84.64
745.254	84.34
745.435	84.58
745.616	84.24
745.797	84.15
745.978	84.06
746.159	83.96
746.34	83.34
746.521	85.23
746.702	84.72
746.883	84.85
747.064	85
747.245	85.41
747.426	83.09
747.606	84.47
747.787	85.06
747.968	85.08
748.149	86.09
748.33	87.07
748.51	85.85
748.691	85.15
748.872	85.13
749.053	83.94
749.233	83.04
749.414	83.3
749.595	82.44
749.775	82.27
749.956	82.25
750.137	82.46
750.317	83.23
750.498	84.46
750.678	85.11
750.859	85.43
751.04	86.26
751.22	84.65
751.4	83.58
751.581	82.51
751.761	83
751.942	83.37
752.122	84.43
752.303	83.72
752.483	84.16
752.663	83.44
752.844	82.46
753.024	83.77
753.204	85.08
753.385	84.43
753.565	84.46
753.745	83.53
753.925	81.4
754.106	80.38
754.286	80.99
754.466	80.7
754.646	83.18
754.826	83.82
755.006	83.9
755.187	84.19
755.367	84.61
755.547	83.15
755.727	84.06
755.907	84.26
756.087	84.32
756.267	83.73
756.447	83.35
756.627	81.41
756.807	81.49
756.987	80.73
757.167	81.93
757.346	82.99
757.526	82.72
757.706	83.99
757.886	85.63
758.066	85.72
758.246	85.58
758.425	86.39
758.605	84.33
758.785	84.22
758.965	83.02
759.144	81.39
759.324	81.98
759.504	82.79
759.683	82.19
759.863	80.78
760.043	80.39
760.222	80.69
760.402	79.95
760.581	79.4
760.761	81.45
760.94	82.23
761.12	82.1
761.299	83.63
761.479	83.71
761.658	81.63
761.838	82.32
762.017	81.51
762.197	79.88
762.376	80.25
762.555	81.72
762.735	80.25
762.914	80.13
763.093	80.87
763.273	79.28
763.452	78.94
763.631	79.79
763.81	79.72
763.99	79.58
764.169	80.62
764.348	79.75
764.527	78.26
764.706	78.49
764.885	79.64
765.064	78.77
765.243	79.17
765.423	80.75
765.602	78.94
765.781	75.68
765.96	75.14
766.139	74.4
766.318	73.87
766.497	75.15
766.676	76.89
766.854	77.89
767.033	78.28
767.212	77.61
767.391	78.91
767.57	79.17
767.749	79.78
767.928	81.17
768.106	80.75
768.285	77.51
768.464	77.05
768.643	76.06
768.821	75.94
769	77.42
769.179	77.99
769.357	76.5
769.536	77.02
769.715	77.13
769.893	77.64
770.072	78.45
770.25	79.91
770.429	78.88
770.607	77.09
770.786	76.24
770.964	76.78
771.143	76.15
771.321	77.68
771.5	77.88
771.678	75.8
771.857	73.76
772.035	74.46
772.213	74.27
772.392	72.78
772.57	74.77
772.748	76.12
772.927	75.57
773.105	75.5
773.283	77.8
773.461	76.89
773.64	77.48
773.818	78.55
773.996	77.1
774.174	75.7
774.352	75.88
774.531	72.05
774.709	73.35
774.887	72.54
775.065	72.42
775.243	73.86
775.421	76.14
775.599	73.94
775.777	72.37
775.955	71.68
776.133	70.27
776.311	72.09
776.489	71.67
776.667	74.02
776.844	74.35
777.022	73.23
777.2	71.49
777.378	70.81
777.556	70.35
777.734	71.52
777.911	74.39
778.089	73.73
778.267	73.54
778.445	71.28
778.622	71.44
778.8	69.54
778.978	71.06
779.155	69.71
779.333	72.41
779.511	71.55
779.688	74.08
779.866	71.3
780.043	71.46
780.221	70.28
780.398	67.44
780.576	64.52
780.753	66.48
780.931	66.4
781.108	65.58
781.286	67.85
781.463	67.4
781.64	66.57
781.818	67.85
781.995	69.24
782.172	70.8
782.35	69.82
782.527	71.1
782.704	68.89
782.882	69.46
783.059	66.59
783.236	69.65
783.413	70.06
783.59	70.81
783.768	69.89
783.945	73.26
784.122	72.25
784.299	72.27
784.476	72.87
784.653	71.57
784.83	68.77
785.007	66.45
785.184	65.67
785.361	63.79
785.538	68.11
785.715	69.9
785.892	70.84
786.069	73.02
786.246	76.03
786.423	72.69
786.6	73.24
786.776	75.52
786.953	71.68
787.13	74.52
787.307	74.87
787.484	73.28
787.66	72.52
787.837	74.89
788.014	72.62
788.191	72.47
788.367	71.64
788.544	73.2
788.721	72.54
788.897	73.96
789.074	75.35
789.25	75.12
789.427	74.67
789.603	74.84
789.78	74.24
789.956	70.25
790.133	73.06
790.309	72.02
790.486	73.9
790.662	70.76
790.839	72.03
791.015	69.77
791.192	67.57
791.368	66.61
791.544	66.84
791.721	67.51
791.897	68.53
792.073	65.38
792.249	57.4
792.426	57.39
792.602	60.22
792.778	57.35
792.954	60.47
793.13	66.67
793.307	64.42
793.483	56.28
793.659	55.91
793.835	57.86
794.011	58.83
794.187	63.14
794.363	65.41
794.539	67.97
794.715	63.01
794.891	56.4
795.067	54.36
795.243	60.27
795.419	57.22
795.595	56.19
795.771	60.5
795.947	59.96
796.122	58.52
796.298	63.28
796.474	64.79
796.65	63.45
796.826	63.53
797.001	59.3
797.177	54.32
797.353	57.45
797.529	57.5
797.704	58.37
797.88	59.1
798.056	57.23
798.231	55.48
798.407	60.43
798.582	59.42
798.758	64.58
798.934	74.66
799.109	71.19
799.285	64.78
799.46	66.45
799.636	63.09
799.811	59.51
799.986	63.05
800.162	65.6
800.337	64.25
800.513	57.61
800.688	55.34
800.863	59.39
801.039	53.47
801.214	52.66
801.389	57.59
801.565	55.03
801.74	46.23
801.915	60.62
802.09	60.63
802.265	62.95
802.441	60.99
802.616	63.52
802.791	62.49
802.966	66.92
803.141	67.26
803.316	69.16
803.491	72.02
803.666	70.96
803.841	66.11
804.016	62.76
804.191	64.45
804.366	58.54
804.541	53.88
804.716	54.14
804.891	53.83
805.066	58.29
805.241	59.22
805.416	55.37
805.591	51.75
805.765	55.52
805.94	50.79
806.115	52.54
806.29	54.88
806.464	61.88
806.639	58.14
806.814	53.23
806.989	50.58
807.163	61.12
807.338	58.4
807.512	51.78
807.687	48.1
807.862	62.64
808.036	54.33
808.211	58.39
808.385	68.73
808.56	77.87
808.734	74.49
808.909	75.32
809.083	62.9
809.258	63.92
809.432	64.45
809.606	52.64
809.781	49.81
809.955	55.96
810.13	51.66
810.304	46.49
810.478	41.07
810.652	44.21
810.827	46.43
811.001	49.01
811.175	53.01
811.349	52.75
811.524	52.44
811.698	43.1
811.872	37.87
812.046	38.84
812.22	47.6
812.394	42.64
812.568	49.77
812.742	55.3
812.916	53.35
813.09	47.44
813.264	54.4
813.438	58.82
813.612	55
813.786	45.19
813.96	52.79
814.134	52.68
814.308	59.84
814.482	59.88
814.656	63.33
814.83	65.98
815.003	65.23
815.177	51.26
815.351	57.12
815.525	57.05
815.698	51.93
815.872	44.46
816.046	39.04
816.219	35.85
816.393	47.98
816.567	46.8
816.74	54.92
816.914	58.83
817.088	59.93
817.261	53.41
817.435	52.86
817.608	46.57
817.782	48.98
817.955	40.36
818.129	43.34
818.302	49.05
818.475	52.36
818.649	53.49
818.822	54.04
818.996	69.29
819.169	70.56
819.342	68.3
819.516	77.32
819.689	80.35
819.862	63.03
820.035	58.85
820.209	50.06
820.382	45.7
820.555	46.39
820.728	36.24
820.901	29.34
821.075	32.42
821.248	30.73
821.421	17.21
821.594	17.18
821.767	35.28
821.94	44.94
822.113	30.76
822.286	34.06
822.459	47.3
822.632	41.15
822.805	37.09
822.978	36.97
823.151	33.46
823.324	23.02
823.496	6.5
823.669	1.12
823.842	13.21
824.015	7.35
824.188	6.28
824.361	20.72
824.533	28.81
824.706	30.4
824.879	30.26
825.051	36.28
825.224	31.05
825.397	20.87
825.569	14.79
825.742	23.66
825.915	16.76
826.087	31.95
826.26	35.04
826.432	45.83
826.605	45.94
826.777	48.61
826.95	42.13
827.122	30.92
827.295	23.77
827.467	37.96
827.64	19.57
827.812	14.23
827.984	38.34
828.157	39.36
828.329	6.7
828.501	14.71
828.674	49.32
828.846	29.17
829.018	44.54
829.19	35.71
829.363	61.35
829.535	41.93
829.707	41.95
829.879	20.78
830.051	20.44
830.223	-0.67
830.395	-11.35
830.568	-12.51
830.74	-4.81
830.912	18.77
831.084	9.8
831.256	9.82
831.428	-5.57
831.6	-37.01
831.772	-58.78
831.943	-69.04
832.115	-44.66
832.287	-0.28
832.459	35.92
832.631	43.96
832.803	55.8
832.975	52.29
833.146	28.16
833.318	18.75
833.49	21.41
833.662	23.33
833.833	17.05
834.005	15.5
834.177	12.91
834.348	11.93
834.52	-11.26
834.692	-13.91
834.863	-35.58
835.035	-13.58
835.206	-59.97
835.378	-24.61
835.549	-4.76
835.721	27.3
835.892	11.61
836.064	18.13
836.235	21.43
836.407	7.9
836.578	-45.49
836.749	-30.96
836.921	-47.74
837.092	-82.15
837.264	-66.31
837.435	-63.67
837.606	-28.93
837.777	0.57
837.949	12
838.12	28.49
838.291	37.96
838.462	23.61
838.633	3.04
838.805	20.85
838.976	17.65
839.147	-23.18
839.318	-32.75
839.489	-93.43
839.66	-91.19
839.831	-55.81
840.002	-39.12
840.173	-68.52
840.344	20.17
840.515	29.39
840.686	-65.95
840.857	-39.67
841.028	-3.36
841.199	-18.95
841.369	-51.33
841.54	-27.74
841.711	12.88
841.882	43.23
842.053	26.23
842.223	25.85
842.394	26.91
842.565	-1.32
842.736	-5.69
842.906	3.52
843.077	13.14
843.248	34.1
843.418	27.11
843.589	8.98
843.759	4.11
843.93	-22.81
844.101	-11.72
844.271	9.51
844.442	13.32
844.612	36.33
844.783	11.28
844.953	-26.06
845.123	-61.04
845.294	-78.96
845.464	-383.73
845.635	-176.77
845.805	-70.85
845.975	2.57
846.146	-15.73
846.316	-5.44
846.486	15.17
846.656	34.02
846.827	15.43
846.997	10.37
847.167	55.79
847.337	31.27
847.507	-8.79
847.677	-7.11
847.848	39.93
848.018	24.45
848.188	36.19
848.358	22.95
848.528	24.34
848.698	-11.46
848.868	-60.62
849.038	-163.55
849.208	-23.95
849.378	4.81
849.548	14.88
849.718	17.03
849.887	24.91
850.057	-3.75
850.227	-27.28
850.397	-44.86
850.567	-134.09
850.737	-223.7
850.906	-658.13
851.076	-697.27
851.246	-404.45
851.415	-67.48
851.585	-59.2
851.755	-111.3
851.924	-51.62
852.094	-109.86
852.264	-208.74
852.433	-1342.79
852.603	-275.12
852.772	-257.51
852.942	-92.26
853.111	-79.61
853.281	-33.2
853.45	5.28
853.62	-59.81
853.789	-85.43
853.959	-101.62
854.128	-116.06
854.297	-160.01
854.467	-142.4
854.636	-115.87
854.805	-25.27
854.975	-31.99
855.144	4.52
855.313	135.31
855.482	-180.66
855.652	-119.89
855.821	-68.46
855.99	63.46
856.159	51.75
856.328	42.05
856.497	16.25
856.667	30.24
856.836	-13.47
857.005	-44.54
857.174	-55.56
857.343	-74.45
857.512	-53.17
857.681	-45.25
857.85	-71.29
858.019	-26.05
858.188	-9.81
858.356	-50.3
858.525	-90.39
858.694	-84.59
858.863	-193.22
859.032	-152.34
859.201	-119.47
859.369	-53.19
859.538	20.74
859.707	34.38
859.876	21.74
860.044	-34.79
860.213	-0.12
860.382	-32.97
860.55	-36.16
860.719	10.44
860.888	17.5
861.056	-5.02
861.225	15.26
861.393	75.82
861.562	59.34
861.73	-7.91
861.899	-47.91
862.067	-1432.76
862.236	-126.18
862.404	-288.33
862.572	-131.1
862.741	-44.12
862.909	-34.38
863.078	-132.28
863.246	-45.14
863.414	-17.82
863.582	-8.51
863.751	-13.01
863.919	-21.79
864.087	-24.64
864.255	-50.31
864.424	-335.26
864.592	-105.74
864.76	-121.51
864.928	-226.8
865.096	-139.01
865.264	-78.84
865.432	-351.14
865.6	27.75
865.768	-111.28
865.936	-93.6
866.104	-107.91
866.272	-159.84
866.44	-351.38
866.608	620.38
866.776	387.06
866.944	3910.47
867.112	-770.97
867.28	-297.65
867.448	-109.91
867.615	-29.91
867.783	0.71
867.951	-4.45
868.119	25.48
868.286	11.82
868.454	-92.45
868.622	-140.69
868.789	-71.62
868.957	-996.43
869.125	-1985.53
869.292	-112.41
869.46	-101.72
869.627	-16.26
869.795	-47.53
869.963	-17
870.13	-8.02
870.298	-14.89
870.465	-118.63
870.632	-106.76
870.8	-80.92
870.967	-141.65
871.135	-214.77
871.302	-201.64
871.469	-234.62
871.637	-371
871.804	-185.46
871.971	-171.64
872.139	-438.84
872.306	-60.94
872.473	-60.27
872.64	-232.4
872.807	-56.01
872.975	46.87
873.142	-111.82
873.309	1155.41
873.476	8.68
873.643	15.71
873.81	-47.61
873.977	-19.99
874.144	-4.85
874.311	-138.71
874.478	-113.64
874.645	-151.82
874.812	-113.82
874.979	-70.14
875.146	-83.31
875.313	-122
875.48	-20.51
875.647	-11.32
875.813	-32.19
875.98	-9.39
876.147	-10.36
876.314	-68.18
876.481	799.59
876.647	-952.25
876.814	432.9
876.981	-121.73
877.147	-61.7
877.314	-13.32
877.481	-11.67
877.647	-21.11
877.814	-62.49
877.98	-120.24
878.147	-87.36
878.314	-20.2
878.48	-38.54
878.647	-19.41
878.813	17.47
878.979	2.94
879.146	-27.42
879.312	-34.02
879.479	-53.57
879.645	-135
879.811	-167.03
879.978	-488.93
880.144	-71.21
880.31	-80.73
880.477	-235.71
880.643	-324.82
880.809	-136.68
880.975	-115.54
881.142	-636.82
881.308	-71.78
881.474	-38.95
881.64	-29.42
881.806	-106.84
881.972	-37.25
882.138	-25.05
882.304	-13.4
882.47	-165.92
882.636	-488.11
882.802	-139.97
882.968	-19.8
883.134	8.04
883.3	-21.74
883.466	12.03
883.632	22.83
883.798	-12.93
883.964	-57.27
884.129	-13.36
884.295	-1.56
884.461	-26.91
884.627	-57.64
884.793	-70.24
884.958	-54.44
885.124	-141.01
885.29	-270.18
885.455	-447.82
885.621	-193.11
885.787	-250.26
885.952	-135.76
886.118	-119.08
886.283	-109.2
886.449	-166.53
886.614	-142.77
886.78	-294.81
886.945	1527.05
887.111	-642.49
887.276	-585.51
887.442	-1155
887.607	-524.29
887.773	-282.32
887.938	-293.34
888.103	-341.33
888.269	-291.42
888.434	-482.43
888.599	-205.09
888.764	-69.43
888.93	-44.31
889.095	-51.22
889.26	-90.24
889.425	-66.29
889.59	-53.38
889.756	-65.63
889.921	-6.58
890.086	40.93
890.251	45.88
890.416	-86.16
890.581	-858.87
890.746	163.39
890.911	364.01
891.076	173.4
891.241	-296.64
891.406	-10.3
891.571	-82.11
891.736	-269.04
891.901	-726.11
892.065	1106.04
892.23	201.42
892.395	264.48
892.56	428.76
892.725	-596.48
892.889	-1832.93
893.054	-299.53
893.219	-131.18
893.384	-68.18
893.548	-114.47
893.713	-120
893.878	-76.4
