Data from Ofra_2a_PS_2H527_Reflection_1.txt Node
Date: Tue Jul 20 09:46:58 EDT 2021
User: Adam
Spectrometer: FLMT01687
Trigger mode: 0
Integration Time (sec): 9.450000E-1
Scans to average: 3
Electric dark correction enabled: true
Nonlinearity correction enabled: false
Boxcar width: 3
XAxis mode: Wavelengths
Number of Pixels in Spectrum: 3648
>>>>>Begin Spectral Data<<<<<
179.494	1148.52
179.716	749.21
179.937	839.01
180.158	3041.02
180.38	-1889.83
180.601	-504.93
180.823	-265.27
181.044	-135.96
181.265	-180.5
181.486	15.6
181.708	-505.43
181.929	160.81
182.15	881.25
182.372	-134.57
182.593	-31.08
182.814	212.43
183.035	25.1
183.257	10.93
183.478	29.1
183.699	32.67
183.92	26.71
184.141	33.72
184.363	38.35
184.584	34.65
184.805	28.85
185.026	-15.31
185.247	-4.36
185.468	3.8
185.689	4.44
185.91	6.89
186.132	12.51
186.353	-5.36
186.574	13.41
186.795	-3.3
187.016	9.66
187.237	12.97
187.458	4.27
187.679	1.62
187.9	14.34
188.121	15.83
188.342	40.37
188.563	31.89
188.784	25.73
189.005	30.09
189.226	26.83
189.447	27.38
189.667	32.23
189.888	33.87
190.109	38.47
190.33	39.95
190.551	41.41
190.772	38.3
190.993	51.13
191.214	42.99
191.434	31.96
191.655	19.09
191.876	14.82
192.097	12.82
192.318	11.32
192.538	2.26
192.759	0.94
192.98	-5.41
193.201	15.72
193.421	16.97
193.642	22.49
193.863	31.15
194.083	24.82
194.304	29.16
194.525	52.71
194.745	22.15
194.966	15.29
195.187	9.13
195.407	10.92
195.628	13.83
195.848	5.92
196.069	-19.22
196.29	-20.54
196.51	-10.51
196.731	0.71
196.951	-16.81
197.172	-17
197.392	8.33
197.613	13.53
197.833	13.34
198.054	6.45
198.274	-15.06
198.495	-18
198.715	-33.97
198.936	-56.48
199.156	-47.83
199.377	-36.95
199.597	-55.06
199.817	-38.95
200.038	-11.6
200.258	-2.97
200.479	4.53
200.699	8.13
200.919	-9.09
201.14	14.86
201.36	22.49
201.58	11.46
201.801	11.16
202.021	7.43
202.241	11.08
202.461	24.47
202.682	22.73
202.902	16.98
203.122	14.11
203.342	31.76
203.563	32.51
203.783	34.37
204.003	32.89
204.223	33.76
204.443	38.92
204.663	43.63
204.884	31.39
205.104	34.21
205.324	35.32
205.544	49.05
205.764	41.09
205.984	39.86
206.204	26.55
206.424	21.26
206.644	16.6
206.864	8.68
207.084	11.25
207.304	22.59
207.525	10.72
207.745	25.6
207.964	24.79
208.184	20.53
208.404	16.47
208.624	-6.01
208.844	-30.86
209.064	-21.16
209.284	-19.07
209.504	-22.02
209.724	-32.64
209.944	-36.44
210.164	-25.49
210.384	-17.99
210.604	-13.09
210.823	-17.76
211.043	-18.13
211.263	-4.37
211.483	2.25
211.703	14.48
211.922	23.77
212.142	26.21
212.362	28.58
212.582	27.6
212.801	24.06
213.021	31.92
213.241	20.3
213.461	13.56
213.68	8.14
213.9	13.98
214.12	20.29
214.339	16.86
214.559	19.33
214.779	22.32
214.998	23.86
215.218	16.3
215.438	27.74
215.657	23.8
215.877	23.52
216.096	23.1
216.316	18.23
216.535	14.91
216.755	5.29
216.974	-4.35
217.194	-8.35
217.413	-5.53
217.633	-11.04
217.852	-15.62
218.072	-23.44
218.291	17.97
218.511	19.34
218.73	21.97
218.95	34.53
219.169	27.63
219.389	33.77
219.608	32.01
219.827	25.4
220.047	18.64
220.266	15.07
220.485	7.46
220.705	5.54
220.924	15.54
221.143	16.12
221.363	13.52
221.582	2.29
221.801	4.71
222.021	4.87
222.24	16.78
222.459	0.14
222.678	-6.04
222.897	-3.98
223.117	6.63
223.336	10.42
223.555	6
223.774	0.42
223.993	14.44
224.213	2.03
224.432	4
224.651	3.8
224.87	-1.57
225.089	8.35
225.308	21.46
225.527	14.78
225.746	21.57
225.965	9.34
226.184	7.05
226.404	16.13
226.623	17.58
226.842	-5.5
227.061	2.12
227.28	13.52
227.499	28.13
227.718	25.91
227.936	8.68
228.155	11.73
228.374	20.28
228.593	14.45
228.812	16.51
229.031	3.57
229.25	10.4
229.469	32.65
229.688	19.54
229.907	8.37
230.125	12.16
230.344	5.45
230.563	14.64
230.782	8.26
231.001	7.51
231.22	9.56
231.438	18.79
231.657	25.23
231.876	25.74
232.095	29.28
232.313	31.76
232.532	30.82
232.751	33.69
232.969	34.84
233.188	29.8
233.407	19.47
233.625	15.42
233.844	14.57
234.063	5.26
234.281	1.19
234.5	9.08
234.719	4.12
234.937	13.6
235.156	10.49
235.374	3.66
235.593	6.04
235.811	0.87
236.03	-19.83
236.249	-1.2
236.467	3.05
236.686	21.77
236.904	23.16
237.123	31.53
237.341	31.6
237.559	38.82
237.778	35.61
237.996	40.86
238.215	24.88
238.433	31.71
238.652	26.17
238.87	32.11
239.088	20.05
239.307	17.3
239.525	7.1
239.743	-5.34
239.962	-8.5
240.18	0.11
240.398	-8.27
240.617	11.16
240.835	17.37
241.053	32.19
241.271	44.41
241.49	26.08
241.708	19.01
241.926	12.84
242.144	14.27
242.363	9.5
242.581	4.76
242.799	-8.89
243.017	23.69
243.235	12.05
243.453	29.68
243.672	18.9
243.89	19.21
244.108	16.69
244.326	17.3
244.544	3.69
244.762	13.99
244.98	12.62
245.198	7.91
245.416	0.48
245.634	11.08
245.852	20.03
246.07	21.56
246.288	16.5
246.506	14.11
246.724	31.71
246.942	40.22
247.16	21.62
247.378	15.55
247.596	13.52
247.814	9.92
248.032	-2.02
248.25	-5.84
248.468	2.43
248.685	8.82
248.903	11.63
249.121	14.44
249.339	20.3
249.557	33.6
249.775	9.93
249.992	-0.39
250.21	-7.46
250.428	-1.94
250.646	-3.01
250.863	-0.71
251.081	-17.05
251.299	10.84
251.517	16.21
251.734	23.27
251.952	29.41
252.17	12.49
252.387	5.5
252.605	10.03
252.823	-8.45
253.04	-8.12
253.258	-12.19
253.475	-11.92
253.693	6.04
253.911	4.72
254.128	12.63
254.346	12.21
254.563	2.33
254.781	7.74
254.998	7.79
255.216	6.18
255.433	11.23
255.651	-3.24
255.868	1.28
256.086	8.63
256.303	7.12
256.521	-12.25
256.738	-13.11
256.956	-14.41
257.173	6.8
257.39	16
257.608	16.1
257.825	19.75
258.043	23.69
258.26	14.07
258.477	17.09
258.695	16.06
258.912	26.8
259.129	33.12
259.346	25.97
259.564	26.1
259.781	38.6
259.998	39.29
260.216	34.39
260.433	22.15
260.65	20.95
260.867	9.46
261.084	12.81
261.302	1.01
261.519	-8.3
261.736	-3
261.953	-3.21
262.17	0.4
262.387	2.78
262.604	0.14
262.822	8.95
263.039	-0.79
263.256	-8.34
263.473	-13
263.69	-20.93
263.907	-10.89
264.124	-13.72
264.341	-13.46
264.558	-1.09
264.775	6.45
264.992	8.95
265.209	22.04
265.426	18.41
265.643	28.65
265.86	30.35
266.077	30.59
266.294	24.61
266.51	22.95
266.727	2.71
266.944	-7.41
267.161	-9.85
267.378	-15.07
267.595	-13.32
267.812	-21.28
268.028	-14.55
268.245	-4.16
268.462	10.85
268.679	2.41
268.896	0.02
269.112	12.95
269.329	25.95
269.546	26.9
269.763	30.69
269.979	23.99
270.196	31.89
270.413	37.48
270.629	27.6
270.846	30.58
271.063	20.92
271.279	16.66
271.496	12.63
271.712	7.08
271.929	7.93
272.146	11.04
272.362	-8.12
272.579	-3.32
272.795	-13.89
273.012	-8.33
273.228	-11.42
273.445	-15.11
273.661	-14.47
273.878	-5.71
274.094	1.23
274.311	13.46
274.527	18.86
274.744	16.69
274.96	20.41
275.177	17.1
275.393	29.3
275.609	32
275.826	37.43
276.042	42.39
276.259	48.59
276.475	46.29
276.691	55.79
276.908	47.27
277.124	42.02
277.34	29.79
277.557	28.52
277.773	24.1
277.989	20.09
278.205	0.36
278.422	4.79
278.638	18.87
278.854	21.93
279.07	11
279.286	13.48
279.503	15.61
279.719	32.7
279.935	6.62
280.151	-2.94
280.367	-7.97
280.583	-3.8
280.799	0.37
281.016	5.42
281.232	-7.18
281.448	1.12
281.664	-0.99
281.88	15.77
282.096	18.12
282.312	8.08
282.528	-3.35
282.744	1.29
282.96	13.68
283.176	21.68
283.392	19.02
283.608	22.98
283.824	25.45
284.04	30.15
284.256	33.23
284.471	22.79
284.687	9.85
284.903	5.15
285.119	-11.14
285.335	3.67
285.551	9.21
285.767	13.73
285.982	15.26
286.198	14.09
286.414	20.41
286.63	28.4
286.846	21.06
287.061	13.15
287.277	7.64
287.493	15.86
287.709	15.63
287.924	25.21
288.14	30.92
288.356	31.91
288.571	32.76
288.787	34.55
289.003	39.32
289.218	44.89
289.434	29.38
289.65	32.26
289.865	37.73
290.081	34.1
290.296	28.9
290.512	24
290.727	28.9
290.943	25.12
291.159	10.1
291.374	11.57
291.59	6.94
291.805	9.83
292.021	-3.26
292.236	-4.26
292.451	6.4
292.667	9.1
292.882	-3.04
293.098	-5.46
293.313	-5.16
293.529	6.41
293.744	7.75
293.959	4.71
294.175	11.62
294.39	15.97
294.605	27.66
294.821	33
295.036	31.66
295.251	26.8
295.467	25.97
295.682	22.13
295.897	21.64
296.112	23.49
296.328	23.94
296.543	22.78
296.758	24.78
296.973	23.83
297.188	23.9
297.404	21.93
297.619	25.64
297.834	25.07
298.049	21.14
298.264	15.39
298.479	16.95
298.694	15.82
298.909	13.2
299.125	9.9
299.34	1.48
299.555	4.46
299.77	6.07
299.985	6.03
300.2	8.25
300.415	16.78
300.63	12.89
300.845	16.34
301.06	18.98
301.275	25.37
301.49	26.26
301.704	20.29
301.919	6.52
302.134	5.16
302.349	0.54
302.564	-8.91
302.779	-17.63
302.994	-20.63
303.209	-13.14
303.423	2.62
303.638	11.31
303.853	19.91
304.068	28.89
304.283	23.98
304.497	19.68
304.712	19.58
304.927	11.93
305.142	17.5
305.356	14.28
305.571	14.01
305.786	19.06
306	21.9
306.215	23.26
306.43	32.3
306.644	24.86
306.859	29.74
307.074	28.85
307.288	28.99
307.503	28.24
307.717	26.9
307.932	27.53
308.147	16.82
308.361	3.6
308.576	3.74
308.79	0.85
309.005	6.71
309.219	13.12
309.434	8.32
309.648	9.55
309.863	24.24
310.077	19.64
310.292	27.51
310.506	30.24
310.72	22.94
310.935	22.19
311.149	22.21
311.364	14.26
311.578	15.8
311.792	5.21
312.007	-3.5
312.221	-1.14
312.435	-3.31
312.649	-3.55
312.864	4.6
313.078	5.4
313.292	15.14
313.507	25.84
313.721	31.63
313.935	46.09
314.149	36.37
314.363	35.12
314.578	54.35
314.792	58.24
315.006	41.39
315.22	46.55
315.434	40.59
315.648	43.31
315.862	42.25
316.077	21.13
316.291	18.99
316.505	26.82
316.719	-3.92
316.933	-3.62
317.147	0.58
317.361	-4.92
317.575	8.69
317.789	11.94
318.003	12.3
318.217	31.11
318.431	35.27
318.645	34.81
318.859	24.44
319.073	17.56
319.287	18.49
319.5	20.73
319.714	18.28
319.928	14.98
320.142	21.05
320.356	34.23
320.57	32.09
320.784	23.56
320.997	21.64
321.211	21.07
321.425	14.84
321.639	13.75
321.853	7.35
322.066	14.14
322.28	18.28
322.494	15.85
322.707	14.48
322.921	28.73
323.135	24.24
323.349	21.48
323.562	20.2
323.776	22.24
323.989	20.29
324.203	22.62
324.417	12.59
324.63	10.06
324.844	11.33
325.057	19.26
325.271	12.79
325.485	14.67
325.698	10.74
325.912	13.99
326.125	21.04
326.339	30.94
326.552	18.76
326.766	28.15
326.979	30.55
327.193	30.35
327.406	23.84
327.619	7.87
327.833	-7.8
328.046	-5.62
328.26	-4.99
328.473	-3.05
328.686	0.68
328.9	-2.7
329.113	0.59
329.326	10.75
329.54	15.5
329.753	12.38
329.966	12.68
330.179	14.91
330.393	18.04
330.606	21.91
330.819	27.2
331.032	20.11
331.246	19.41
331.459	24.33
331.672	21.6
331.885	21.17
332.098	15.94
332.311	1.35
332.525	13.93
332.738	12.16
332.951	8.28
333.164	-0.28
333.377	-13.58
333.59	-7.67
333.803	-2.31
334.016	-24.64
334.229	-30.73
334.442	-21.91
334.655	-16.4
334.868	6.82
335.081	14.32
335.294	17.81
335.507	40.88
335.72	33.36
335.933	27.84
336.146	38.08
336.359	37.03
336.572	29.06
336.785	29.38
336.997	12.93
337.21	25.75
337.423	23.08
337.636	15.59
337.849	15.31
338.062	24.25
338.274	20.87
338.487	21.63
338.7	22.02
338.913	23.61
339.125	22.99
339.338	21.37
339.551	17.63
339.763	15.25
339.976	12.24
340.189	7.75
340.402	7.24
340.614	11.15
340.827	-1.83
341.039	-3.89
341.252	-4.51
341.465	-4.46
341.677	-6.19
341.89	-3.42
342.102	-4.87
342.315	8.68
342.527	3.15
342.74	-1.5
342.952	-2.2
343.165	1.41
343.377	2.97
343.59	7.13
343.802	5.73
344.015	14.09
344.227	16.49
344.44	16.38
344.652	19.02
344.864	21.6
345.077	11.81
345.289	8.52
345.502	5.19
345.714	4.43
345.926	9.02
346.139	1.46
346.351	-13.98
346.563	-0.15
346.775	-4.7
346.988	1.23
347.2	11.66
347.412	8.31
347.624	11.07
347.837	11.01
348.049	12.08
348.261	15.34
348.473	6.36
348.685	1.68
348.897	3.72
349.11	1.17
349.322	3.91
349.534	-9.61
349.746	0.71
349.958	8.27
350.17	4.59
350.382	-2.57
350.594	2.03
350.806	6.68
351.018	12.03
351.23	6.42
351.442	6.68
351.654	12.13
351.866	16.39
352.078	12.55
352.29	18.38
352.502	19.29
352.714	21.28
352.926	20.23
353.138	14.52
353.35	8.58
353.561	7.7
353.773	2.52
353.985	-2.29
354.197	-6.29
354.409	-8.72
354.621	-6.19
354.832	-5.44
355.044	-1.17
355.256	-6.79
355.468	-8.71
355.679	-1.79
355.891	4.09
356.103	9.03
356.314	8.16
356.526	10.37
356.738	10.05
356.949	24.4
357.161	18.3
357.373	19.5
357.584	19.01
357.796	22.55
358.008	24.62
358.219	33.23
358.431	20.3
358.642	21.48
358.854	19.43
359.065	15.79
359.277	16.87
359.488	5.94
359.7	9.53
359.911	11.87
360.123	20.07
360.334	18.44
360.546	15.51
360.757	12.55
360.969	22.29
361.18	17.28
361.391	20.74
361.603	15.49
361.814	16.37
362.025	14.89
362.237	17.95
362.448	15.49
362.659	2.92
362.871	3.54
363.082	4.89
363.293	11.03
363.504	14.85
363.716	14.7
363.927	15.65
364.138	23.32
364.349	18.91
364.56	15.67
364.772	12.14
364.983	3.09
365.194	-0.05
365.405	-2.2
365.616	-15.31
365.827	-17.31
366.038	-7.65
366.25	-4.36
366.461	11.02
366.672	15.17
366.883	18.23
367.094	32.68
367.305	32.78
367.516	26.69
367.727	18.48
367.938	16.69
368.149	14.32
368.36	10.63
368.571	7.15
368.781	7.52
368.992	10.27
369.203	16.86
369.414	9.55
369.625	4.07
369.836	1
370.047	0.37
370.258	-3.43
370.468	-3.23
370.679	-8.17
370.89	2.06
371.101	5.56
371.312	7.74
371.522	8.54
371.733	7.78
371.944	9.21
372.155	-0.91
372.365	-4.1
372.576	-7.01
372.787	-15.77
372.997	-22.95
373.208	-11.65
373.419	-19.11
373.629	-1.48
373.84	-5.62
374.05	1.3
374.261	8.71
374.472	16.79
374.682	11.41
374.893	7.72
375.103	6.41
375.314	12.21
375.524	10.17
375.735	10.76
375.945	6.79
376.156	14.86
376.366	24.64
376.577	26.62
376.787	25.13
376.997	23.78
377.208	24.9
377.418	27.55
377.629	23.36
377.839	22.43
378.049	22.03
378.26	20.32
378.47	21.1
378.68	15.16
378.89	12.94
379.101	2.24
379.311	-3.53
379.521	-2.32
379.732	-11.13
379.942	-9.58
380.152	4.23
380.362	7.2
380.572	8.41
380.783	10.5
380.993	8.48
381.203	13.47
381.413	17.1
381.623	14.16
381.833	8.48
382.043	9.85
382.253	11.96
382.463	10.67
382.674	14.56
382.884	7.5
383.094	8.17
383.304	12.43
383.514	16.61
383.724	15.18
383.934	13.3
384.144	13.85
384.353	17.18
384.563	13.2
384.773	15.27
384.983	11.41
385.193	10.67
385.403	12.71
385.613	8.33
385.823	6.5
386.033	7.28
386.242	4.52
386.452	4.85
386.662	5.61
386.872	2.94
387.082	3.27
387.291	5.51
387.501	6.97
387.711	6.47
387.921	7.1
388.13	6.33
388.34	7.17
388.55	9.06
388.759	6.9
388.969	1.59
389.179	3.79
389.388	3.55
389.598	2.97
389.807	1.91
390.017	1.19
390.227	1.31
390.436	3.19
390.646	1.6
390.855	1.94
391.065	1.95
391.274	0.97
391.484	1.48
391.693	2.08
391.903	3.4
392.112	2.97
392.322	2.99
392.531	2.68
392.74	2.74
392.95	2.9
393.159	3.54
393.369	2.39
393.578	2.43
393.787	2.57
393.997	3.73
394.206	3.38
394.415	2.57
394.625	0.71
394.834	0.11
395.043	0.76
395.252	0.5
395.462	-0.15
395.671	1.08
395.88	1.81
396.089	3.2
396.298	3.82
396.508	3.85
396.717	3.41
396.926	2.94
397.135	2.43
397.344	1.79
397.553	1.42
397.762	1.53
397.971	1.09
398.181	1.11
398.39	1.7
398.599	1.81
398.808	2.45
399.017	2.67
399.226	2.65
399.435	2.67
399.644	2.82
399.853	2.75
400.062	2.83
400.27	2.42
400.479	2.19
400.688	2.14
400.897	2.55
401.106	2.61
401.315	2.41
401.524	2.48
401.733	2.78
401.941	2.7
402.15	2.53
402.359	2.21
402.568	2.25
402.777	2.32
402.985	2.15
403.194	1.93
403.403	1.85
403.612	1.9
403.82	1.91
404.029	1.81
404.238	1.84
404.446	1.81
404.655	1.77
404.864	1.77
405.072	1.87
405.281	1.72
405.489	1.72
405.698	1.62
405.906	1.5
406.115	1.58
406.324	1.52
406.532	1.47
406.741	1.61
406.949	1.53
407.158	1.64
407.366	1.79
407.574	1.84
407.783	1.78
407.991	1.75
408.2	1.66
408.408	1.66
408.617	1.56
408.825	1.5
409.033	1.34
409.242	1.44
409.45	1.4
409.658	1.43
409.867	1.43
410.075	1.44
410.283	1.36
410.491	1.35
410.7	1.38
410.908	1.37
411.116	1.37
411.324	1.44
411.533	1.38
411.741	1.43
411.949	1.57
412.157	1.53
412.365	1.55
412.573	1.58
412.781	1.51
412.99	1.59
413.198	1.54
413.406	1.42
413.614	1.45
413.822	1.45
414.03	1.33
414.238	1.41
414.446	1.24
414.654	1.3
414.862	1.27
415.07	1.32
415.278	1.28
415.486	1.39
415.694	1.32
415.902	1.4
416.109	1.41
416.317	1.4
416.525	1.34
416.733	1.41
416.941	1.31
417.149	1.41
417.357	1.5
417.564	1.47
417.772	1.56
417.98	1.53
418.188	1.4
418.395	1.39
418.603	1.26
418.811	1.05
419.019	1.05
419.226	1.12
419.434	1.03
419.642	1.09
419.849	1.16
420.057	1.18
420.265	1.31
420.472	1.26
420.68	1.08
420.887	1.25
421.095	1.23
421.302	1.31
421.51	1.4
421.717	1.42
421.925	1.4
422.132	1.28
422.34	1.22
422.547	1.16
422.755	1.05
422.962	0.93
423.17	0.85
423.377	0.99
423.585	1.18
423.792	1.14
423.999	1.12
424.207	1.03
424.414	1.12
424.621	1.18
424.829	1.04
425.036	0.95
425.243	0.99
425.451	1.08
425.658	1.27
425.865	1.22
426.072	1.27
426.28	1.31
426.487	1.33
426.694	1.29
426.901	1.21
427.108	1.17
427.315	1.12
427.523	1.06
427.73	1.1
427.937	1.13
428.144	1.14
428.351	1.3
428.558	1.22
428.765	1.26
428.972	1.25
429.179	1.17
429.386	1.21
429.593	1.18
429.8	1.17
430.007	1.21
430.214	1.26
430.421	1.32
430.628	1.25
430.835	1.11
431.042	1.17
431.249	1.1
431.456	1.11
431.662	1.07
431.869	1.12
432.076	1.21
432.283	1.27
432.49	1.24
432.697	1.24
432.903	1.29
433.11	1.32
433.317	1.34
433.524	1.26
433.73	1.36
433.937	1.39
434.144	1.52
434.35	1.46
434.557	1.43
434.764	1.36
434.97	1.5
435.177	1.39
435.384	1.47
435.59	1.36
435.797	1.4
436.003	1.43
436.21	1.42
436.416	1.39
436.623	1.53
436.829	1.45
437.036	1.5
437.242	1.44
437.449	1.46
437.655	1.48
437.862	1.48
438.068	1.47
438.275	1.45
438.481	1.5
438.687	1.55
438.894	1.53
439.1	1.53
439.307	1.51
439.513	1.43
439.719	1.48
439.926	1.45
440.132	1.42
440.338	1.49
440.544	1.44
440.751	1.44
440.957	1.45
441.163	1.5
441.369	1.5
441.575	1.47
441.782	1.43
441.988	1.51
442.194	1.6
442.4	1.62
442.606	1.64
442.812	1.69
443.018	1.75
443.224	1.74
443.431	1.77
443.637	1.7
443.843	1.75
444.049	1.69
444.255	1.66
444.461	1.65
444.667	1.67
444.873	1.61
445.079	1.66
445.284	1.63
445.49	1.63
445.696	1.67
445.902	1.67
446.108	1.69
446.314	1.79
446.52	1.83
446.726	1.86
446.931	1.87
447.137	1.82
447.343	1.84
447.549	1.8
447.755	1.73
447.96	1.7
448.166	1.76
448.372	1.76
448.578	1.82
448.783	1.78
448.989	1.86
449.195	1.89
449.4	1.9
449.606	1.82
449.812	1.85
450.017	1.83
450.223	1.83
450.428	1.77
450.634	1.78
450.84	1.76
451.045	1.75
451.251	1.83
451.456	1.8
451.662	1.81
451.867	1.83
452.073	1.83
452.278	1.79
452.483	1.81
452.689	1.69
452.894	1.73
453.1	1.71
453.305	1.75
453.51	1.75
453.716	1.75
453.921	1.77
454.127	1.82
454.332	1.79
454.537	1.87
454.742	1.83
454.948	1.86
455.153	1.91
455.358	1.94
455.563	1.92
455.769	1.96
455.974	1.88
456.179	1.88
456.384	1.89
456.589	1.88
456.795	1.88
457	1.96
457.205	1.96
457.41	2.02
457.615	2.06
457.82	2.11
458.025	2.07
458.23	2.05
458.435	1.98
458.64	2.03
458.845	2
459.05	2.02
459.255	2.01
459.46	2.02
459.665	2.07
459.87	2.08
460.075	2.06
460.28	2.07
460.485	2.08
460.69	1.98
460.895	2
461.099	2.04
461.304	2.05
461.509	1.99
461.714	2.02
461.919	1.98
462.123	2.08
462.328	2.1
462.533	2.06
462.738	2.08
462.942	2.17
463.147	2.15
463.352	2.2
463.556	2.22
463.761	2.22
463.966	2.22
464.17	2.24
464.375	2.19
464.58	2.2
464.784	2.2
464.989	2.17
465.193	2.2
465.398	2.19
465.602	2.19
465.807	2.21
466.011	2.22
466.216	2.2
466.42	2.26
466.625	2.25
466.829	2.31
467.034	2.37
467.238	2.39
467.443	2.38
467.647	2.36
467.851	2.37
468.056	2.42
468.26	2.38
468.464	2.37
468.669	2.37
468.873	2.39
469.077	2.46
469.282	2.48
469.486	2.48
469.69	2.53
469.894	2.56
470.099	2.61
470.303	2.6
470.507	2.63
470.711	2.59
470.915	2.63
471.119	2.6
471.324	2.57
471.528	2.58
471.732	2.65
471.936	2.69
472.14	2.71
472.344	2.7
472.548	2.74
472.752	2.81
472.956	2.84
473.16	2.84
473.364	2.77
473.568	2.84
473.772	2.91
473.976	2.88
474.18	2.85
474.384	2.83
474.588	2.82
474.792	2.87
474.995	2.85
475.199	2.86
475.403	2.92
475.607	2.94
475.811	2.97
476.015	3.04
476.218	3.04
476.422	3.06
476.626	2.98
476.83	2.97
477.033	2.98
477.237	3
477.441	3
477.644	3.02
477.848	3.01
478.052	3.09
478.255	3.08
478.459	3.15
478.663	3.15
478.866	3.17
479.07	3.2
479.273	3.2
479.477	3.24
479.681	3.25
479.884	3.21
480.088	3.23
480.291	3.21
480.495	3.21
480.698	3.23
480.901	3.23
481.105	3.26
481.308	3.25
481.512	3.23
481.715	3.25
481.919	3.28
482.122	3.31
482.325	3.32
482.529	3.38
482.732	3.4
482.935	3.46
483.138	3.48
483.342	3.51
483.545	3.51
483.748	3.5
483.952	3.47
484.155	3.5
484.358	3.49
484.561	3.51
484.764	3.46
484.967	3.47
485.171	3.52
485.374	3.55
485.577	3.56
485.78	3.59
485.983	3.59
486.186	3.6
486.389	3.6
486.592	3.57
486.795	3.56
486.998	3.58
487.201	3.56
487.404	3.59
487.607	3.63
487.81	3.66
488.013	3.66
488.216	3.65
488.419	3.64
488.622	3.61
488.825	3.58
489.028	3.56
489.231	3.5
489.433	3.5
489.636	3.48
489.839	3.49
490.042	3.49
490.245	3.51
490.447	3.53
490.65	3.6
490.853	3.65
491.056	3.64
491.258	3.64
491.461	3.68
491.664	3.67
491.866	3.68
492.069	3.66
492.272	3.64
492.474	3.68
492.677	3.64
492.879	3.63
493.082	3.66
493.285	3.65
493.487	3.65
493.69	3.63
493.892	3.65
494.095	3.66
494.297	3.71
494.5	3.73
494.702	3.74
494.905	3.75
495.107	3.79
495.309	3.75
495.512	3.8
495.714	3.78
495.917	3.76
496.119	3.83
496.321	3.9
496.524	3.91
496.726	3.96
496.928	3.98
497.13	4.03
497.333	4.04
497.535	3.98
497.737	3.95
497.939	3.97
498.142	3.96
498.344	3.95
498.546	3.99
498.748	3.99
498.95	3.98
499.152	3.97
499.355	3.93
499.557	3.95
499.759	4.02
499.961	4
500.163	4.05
500.365	4.07
500.567	4.1
500.769	4.13
500.971	4.12
501.173	4.1
501.375	4.1
501.577	4.13
501.779	4.19
501.981	4.2
502.183	4.2
502.385	4.24
502.587	4.25
502.788	4.24
502.99	4.19
503.192	4.19
503.394	4.22
503.596	4.25
503.798	4.28
503.999	4.3
504.201	4.33
504.403	4.39
504.605	4.4
504.806	4.43
505.008	4.43
505.21	4.42
505.411	4.45
505.613	4.48
505.815	4.53
506.016	4.58
506.218	4.56
506.42	4.6
506.621	4.61
506.823	4.66
507.024	4.64
507.226	4.61
507.427	4.58
507.629	4.65
507.83	4.59
508.032	4.66
508.233	4.65
508.435	4.68
508.636	4.71
508.838	4.75
509.039	4.72
509.24	4.77
509.442	4.72
509.643	4.67
509.845	4.68
510.046	4.68
510.247	4.69
510.448	4.73
510.65	4.76
510.851	4.84
511.052	4.89
511.254	4.91
511.455	4.92
511.656	4.9
511.857	4.88
512.058	4.91
512.26	4.9
512.461	4.9
512.662	4.9
512.863	4.9
513.064	4.92
513.265	4.97
513.466	5
513.667	5.02
513.868	5.03
514.069	5.06
514.27	5.07
514.471	5.09
514.672	5.1
514.873	5.15
515.074	5.16
515.275	5.17
515.476	5.17
515.677	5.2
515.878	5.27
516.079	5.29
516.28	5.23
516.481	5.21
516.682	5.26
516.882	5.26
517.083	5.28
517.284	5.25
517.485	5.23
517.686	5.25
517.886	5.26
518.087	5.24
518.288	5.24
518.488	5.27
518.689	5.31
518.89	5.35
519.091	5.38
519.291	5.41
519.492	5.44
519.692	5.49
519.893	5.47
520.094	5.47
520.294	5.46
520.495	5.48
520.695	5.49
520.896	5.48
521.096	5.5
521.297	5.53
521.497	5.54
521.698	5.55
521.898	5.55
522.099	5.57
522.299	5.61
522.499	5.62
522.7	5.61
522.9	5.62
523.101	5.65
523.301	5.65
523.501	5.66
523.702	5.65
523.902	5.64
524.102	5.7
524.302	5.71
524.503	5.72
524.703	5.76
524.903	5.78
525.103	5.79
525.304	5.8
525.504	5.81
525.704	5.83
525.904	5.83
526.104	5.85
526.304	5.85
526.504	5.89
526.705	5.94
526.905	5.94
527.105	5.94
527.305	5.94
527.505	5.93
527.705	5.94
527.905	5.92
528.105	5.91
528.305	5.91
528.505	5.92
528.705	5.94
528.905	5.95
529.105	5.96
529.304	6
529.504	5.99
529.704	6
529.904	6.04
530.104	6.04
530.304	6.06
530.503	6.04
530.703	6.03
530.903	6.07
531.103	6.07
531.303	6.11
531.502	6.12
531.702	6.14
531.902	6.18
532.101	6.2
532.301	6.2
532.501	6.23
532.7	6.19
532.9	6.24
533.1	6.24
533.299	6.28
533.499	6.3
533.698	6.34
533.898	6.36
534.097	6.39
534.297	6.43
534.496	6.48
534.696	6.5
534.895	6.53
535.095	6.55
535.294	6.52
535.494	6.51
535.693	6.49
535.892	6.47
536.092	6.46
536.291	6.46
536.491	6.47
536.69	6.51
536.889	6.53
537.088	6.52
537.288	6.59
537.487	6.63
537.686	6.66
537.886	6.63
538.085	6.7
538.284	6.75
538.483	6.82
538.682	6.81
538.882	6.83
539.081	6.86
539.28	6.91
539.479	6.92
539.678	6.94
539.877	6.95
540.076	7.02
540.275	7.06
540.474	7.04
540.673	7.08
540.872	7.15
541.071	7.2
541.27	7.22
541.469	7.21
541.668	7.25
541.867	7.34
542.066	7.35
542.265	7.32
542.464	7.34
542.663	7.42
542.862	7.46
543.06	7.49
543.259	7.48
543.458	7.52
543.657	7.59
543.856	7.6
544.054	7.59
544.253	7.6
544.452	7.58
544.651	7.62
544.849	7.63
545.048	7.63
545.247	7.65
545.445	7.67
545.644	7.72
545.843	7.8
546.041	7.82
546.24	7.87
546.438	7.96
546.637	8.05
546.836	8.09
547.034	8.12
547.233	8.2
547.431	8.25
547.63	8.3
547.828	8.35
548.027	8.36
548.225	8.45
548.423	8.49
548.622	8.5
548.82	8.6
549.019	8.65
549.217	8.69
549.415	8.79
549.614	8.78
549.812	8.86
550.01	8.93
550.209	8.97
550.407	9.07
550.605	9.14
550.803	9.2
551.002	9.29
551.2	9.42
551.398	9.44
551.596	9.52
551.794	9.57
551.993	9.56
552.191	9.66
552.389	9.71
552.587	9.71
552.785	9.81
552.983	9.85
553.181	9.9
553.379	9.99
553.577	10.05
553.775	10.11
553.973	10.21
554.171	10.28
554.369	10.37
554.567	10.46
554.765	10.56
554.963	10.58
555.161	10.67
555.359	10.72
555.557	10.81
555.755	10.9
555.952	10.97
556.15	11.04
556.348	11.16
556.546	11.22
556.744	11.31
556.941	11.41
557.139	11.47
557.337	11.52
557.535	11.62
557.732	11.71
557.93	11.84
558.128	11.95
558.325	12.03
558.523	12.12
558.721	12.27
558.918	12.34
559.116	12.44
559.313	12.54
559.511	12.61
559.708	12.64
559.906	12.72
560.104	12.81
560.301	12.89
560.498	12.95
560.696	13.02
560.893	13.13
561.091	13.26
561.288	13.38
561.486	13.49
561.683	13.56
561.88	13.69
562.078	13.75
562.275	13.84
562.473	13.93
562.67	13.99
562.867	14.08
563.064	14.22
563.262	14.33
563.459	14.46
563.656	14.58
563.853	14.67
564.051	14.77
564.248	14.84
564.445	14.92
564.642	15
564.839	15.12
565.036	15.2
565.234	15.34
565.431	15.5
565.628	15.59
565.825	15.71
566.022	15.79
566.219	15.87
566.416	15.95
566.613	16.06
566.81	16.11
567.007	16.18
567.204	16.25
567.401	16.39
567.598	16.47
567.795	16.55
567.991	16.62
568.188	16.67
568.385	16.81
568.582	16.92
568.779	16.9
568.976	16.98
569.172	17.1
569.369	17.14
569.566	17.22
569.763	17.23
569.96	17.24
570.156	17.34
570.353	17.4
570.55	17.45
570.746	17.48
570.943	17.6
571.14	17.7
571.336	17.77
571.533	17.83
571.729	17.87
571.926	17.9
572.123	17.98
572.319	17.95
572.516	17.95
572.712	18.06
572.909	18.12
573.105	18.19
573.302	18.19
573.498	18.24
573.695	18.31
573.891	18.37
574.087	18.34
574.284	18.31
574.48	18.31
574.677	18.37
574.873	18.39
575.069	18.43
575.266	18.46
575.462	18.52
575.658	18.6
575.854	18.65
576.051	18.65
576.247	18.68
576.443	18.67
576.639	18.66
576.835	18.65
577.032	18.67
577.228	18.67
577.424	18.7
577.62	18.69
577.816	18.72
578.012	18.77
578.208	18.79
578.404	18.79
578.6	18.8
578.796	18.81
578.993	18.84
579.189	18.85
579.384	18.8
579.58	18.8
579.776	18.76
579.972	18.73
580.168	18.71
580.364	18.72
580.56	18.71
580.756	18.76
580.952	18.75
581.148	18.74
581.343	18.78
581.539	18.79
581.735	18.73
581.931	18.74
582.127	18.7
582.322	18.75
582.518	18.77
582.714	18.76
582.909	18.76
583.105	18.81
583.301	18.77
583.496	18.78
583.692	18.72
583.888	18.72
584.083	18.75
584.279	18.73
584.474	18.74
584.67	18.76
584.866	18.8
585.061	18.84
585.257	18.85
585.452	18.81
585.648	18.85
585.843	18.84
586.039	18.84
586.234	18.81
586.429	18.78
586.625	18.76
586.82	18.76
587.015	18.72
587.211	18.73
587.406	18.73
587.601	18.76
587.797	18.75
587.992	18.78
588.187	18.84
588.383	18.87
588.578	18.83
588.773	18.84
588.968	18.89
589.163	18.93
589.359	18.97
589.554	18.96
589.749	19.03
589.944	19.12
590.139	19.17
590.334	19.19
590.529	19.22
590.724	19.25
590.919	19.31
591.114	19.33
591.309	19.34
591.504	19.41
591.699	19.39
591.894	19.43
592.089	19.48
592.284	19.44
592.479	19.48
592.674	19.54
592.869	19.56
593.064	19.67
593.259	19.72
593.454	19.74
593.648	19.83
593.843	19.85
594.038	19.89
594.233	19.97
594.428	20.02
594.622	20.05
594.817	20.13
595.012	20.21
595.206	20.29
595.401	20.29
595.596	20.37
595.79	20.39
595.985	20.48
596.18	20.62
596.374	20.7
596.569	20.76
596.763	20.89
596.958	20.95
597.153	21.05
597.347	21.12
597.542	21.14
597.736	21.23
597.931	21.34
598.125	21.45
598.319	21.52
598.514	21.58
598.708	21.67
598.903	21.75
599.097	21.78
599.291	21.86
599.486	21.84
599.68	21.88
599.874	21.97
600.069	21.99
600.263	21.97
600.457	22.04
600.651	22.08
600.846	22.17
601.04	22.17
601.234	22.2
601.428	22.25
601.622	22.33
601.817	22.39
602.011	22.42
602.205	22.42
602.399	22.47
602.593	22.53
602.787	22.52
602.981	22.5
603.175	22.49
603.369	22.43
603.563	22.5
603.757	22.5
603.951	22.45
604.145	22.47
604.339	22.5
604.533	22.45
604.727	22.47
604.921	22.42
605.115	22.39
605.309	22.42
605.502	22.42
605.696	22.35
605.89	22.39
606.084	22.37
606.278	22.33
606.471	22.28
606.665	22.23
606.859	22.18
607.053	22.23
607.246	22.17
607.44	22.1
607.634	22.1
607.827	22.05
608.021	21.98
608.214	21.95
608.408	21.87
608.602	21.81
608.795	21.75
608.989	21.66
609.182	21.69
609.376	21.66
609.569	21.53
609.763	21.49
609.956	21.39
610.15	21.35
610.343	21.29
610.537	21.17
610.73	21.13
610.923	21.11
611.117	21.01
611.31	20.97
611.504	20.97
611.697	20.93
611.89	20.88
612.083	20.76
612.277	20.68
612.47	20.62
612.663	20.56
612.856	20.45
613.05	20.37
613.243	20.3
613.436	20.2
613.629	20.17
613.822	20.08
614.015	20.04
614.209	20.03
614.402	20
614.595	19.93
614.788	19.89
614.981	19.79
615.174	19.76
615.367	19.69
615.56	19.54
615.753	19.42
615.946	19.42
616.139	19.4
616.332	19.37
616.525	19.33
616.718	19.31
616.911	19.27
617.103	19.25
617.296	19.15
617.489	19.12
617.682	19.07
617.875	18.99
618.067	18.86
618.26	18.8
618.453	18.75
618.646	18.7
618.838	18.71
619.031	18.67
619.224	18.66
619.417	18.69
619.609	18.66
619.802	18.59
619.994	18.53
620.187	18.43
620.38	18.34
620.572	18.28
620.765	18.2
620.957	18.11
621.15	18.07
621.342	18.12
621.535	18.04
621.727	18.07
621.92	18.06
622.112	18.1
622.305	18.11
622.497	18.11
622.69	18.02
622.882	18.05
623.074	17.98
623.267	17.91
623.459	17.83
623.651	17.85
623.844	17.83
624.036	17.81
624.228	17.75
624.42	17.76
624.613	17.77
624.805	17.73
624.997	17.71
625.189	17.7
625.381	17.63
625.574	17.59
625.766	17.51
625.958	17.52
626.15	17.51
626.342	17.48
626.534	17.42
626.726	17.45
626.918	17.39
627.11	17.39
627.302	17.33
627.494	17.3
627.686	17.22
627.878	17.16
628.07	17.08
628.262	17.01
628.454	17.01
628.646	17.03
628.838	16.96
629.029	16.89
629.221	16.88
629.413	16.86
629.605	16.88
629.797	16.84
629.989	16.74
630.18	16.71
630.372	16.75
630.564	16.77
630.755	16.76
630.947	16.72
631.139	16.66
631.33	16.67
631.522	16.62
631.714	16.6
631.905	16.53
632.097	16.55
632.289	16.55
632.48	16.49
632.672	16.42
632.863	16.46
633.055	16.41
633.246	16.39
633.438	16.3
633.629	16.32
633.821	16.35
634.012	16.3
634.203	16.33
634.395	16.34
634.586	16.3
634.777	16.28
634.969	16.21
635.16	16.16
635.351	16.17
635.543	16.09
635.734	16.03
635.925	16.11
636.117	16.13
636.308	16.1
636.499	16.1
636.69	16.15
636.881	16.13
637.073	16.17
637.264	16.11
637.455	16.15
637.646	16.21
637.837	16.21
638.028	16.22
638.219	16.24
638.41	16.17
638.601	16.19
638.792	16.13
638.983	16.05
639.174	16.08
639.365	16
639.556	15.97
639.747	16.01
639.938	15.98
640.129	16
640.32	16
640.511	15.94
640.701	15.91
640.892	15.9
641.083	15.88
641.274	15.85
641.465	15.87
641.655	15.91
641.846	15.96
642.037	15.98
642.228	15.96
642.418	15.94
642.609	15.95
642.8	15.92
642.99	15.94
643.181	15.91
643.372	15.91
643.562	15.88
643.753	15.86
643.943	15.83
644.134	15.78
644.324	15.71
644.515	15.74
644.705	15.76
644.896	15.73
645.086	15.66
645.277	15.65
645.467	15.66
645.658	15.62
645.848	15.5
646.038	15.45
646.229	15.42
646.419	15.47
646.61	15.47
646.8	15.47
646.99	15.46
647.18	15.47
647.371	15.42
647.561	15.47
647.751	15.4
647.941	15.33
648.132	15.32
648.322	15.34
648.512	15.33
648.702	15.34
648.892	15.29
649.082	15.27
649.272	15.26
649.462	15.23
649.653	15.19
649.843	15.21
650.033	15.15
650.223	15.13
650.413	15.15
650.603	15.08
650.793	15
650.983	14.96
651.172	14.88
651.362	14.8
651.552	14.78
651.742	14.7
651.932	14.75
652.122	14.73
652.312	14.57
652.502	14.51
652.691	14.51
652.881	14.46
653.071	14.4
653.261	14.3
653.45	14.23
653.64	14.24
653.83	14.15
654.019	14.02
654.209	13.9
654.399	13.79
654.588	13.64
654.778	13.54
654.968	13.41
655.157	13.28
655.347	13.2
655.536	13.13
655.726	13.04
655.915	12.92
656.105	12.84
656.294	12.71
656.484	12.65
656.673	12.55
656.863	12.37
657.052	12.25
657.241	12.11
657.431	11.89
657.62	11.73
657.809	11.58
657.999	11.42
658.188	11.23
658.377	11.09
658.567	10.98
658.756	10.89
658.945	10.76
659.134	10.52
659.324	10.38
659.513	10.29
659.702	10.12
659.891	9.97
660.08	9.82
660.269	9.67
660.458	9.62
660.648	9.45
660.837	9.35
661.026	9.25
661.215	9.15
661.404	9.01
661.593	8.89
661.782	8.77
661.971	8.62
662.16	8.41
662.349	8.24
662.538	8.09
662.726	7.98
662.915	7.87
663.104	7.69
663.293	7.6
663.482	7.52
663.671	7.41
663.86	7.31
664.048	7.25
664.237	7.2
664.426	7.18
664.615	7.13
664.803	7.03
664.992	7.06
665.181	7
665.369	6.86
665.558	6.78
665.747	6.74
665.935	6.67
666.124	6.68
666.312	6.53
666.501	6.49
666.69	6.43
666.878	6.38
667.067	6.29
667.255	6.27
667.444	6.21
667.632	6.16
667.82	6.08
668.009	6.1
668.197	6.02
668.386	6
668.574	5.94
668.762	5.85
668.951	5.83
669.139	5.88
669.327	5.85
669.516	5.91
669.704	5.97
669.892	6.01
670.08	6.02
670.269	5.97
670.457	5.95
670.645	5.92
670.833	5.91
671.021	5.81
671.21	5.84
671.398	5.88
671.586	5.99
671.774	5.98
671.962	6.03
672.15	6
672.338	6.11
672.526	6.09
672.714	6.12
672.902	6.11
673.09	6.22
673.278	6.29
673.466	6.43
673.654	6.47
673.842	6.58
674.03	6.69
674.218	6.76
674.405	6.78
674.593	6.81
674.781	6.83
674.969	6.84
675.157	6.87
675.344	6.9
675.532	6.89
675.72	6.93
675.908	7.01
676.095	7.13
676.283	7.21
676.471	7.26
676.658	7.29
676.846	7.43
677.033	7.52
677.221	7.62
677.409	7.65
677.596	7.79
677.784	7.94
677.971	8.05
678.159	8.18
678.346	8.18
678.534	8.24
678.721	8.3
678.909	8.33
679.096	8.31
679.283	8.47
679.471	8.62
679.658	8.83
679.846	8.98
680.033	9.18
680.22	9.27
680.408	9.48
680.595	9.52
680.782	9.52
680.969	9.53
681.157	9.57
681.344	9.67
681.531	9.77
681.718	9.92
681.905	10.14
682.093	10.45
682.28	10.71
682.467	10.84
682.654	10.96
682.841	11.16
683.028	11.37
683.215	11.43
683.402	11.43
683.589	11.61
683.776	11.81
683.963	12.04
684.15	12.23
684.337	12.39
684.524	12.71
684.711	12.98
684.898	13.24
685.085	13.57
685.271	13.82
685.458	14.18
685.645	14.54
685.832	14.81
686.019	15.15
686.205	15.37
686.392	15.7
686.579	16.02
686.766	16.38
686.952	16.72
687.139	17.06
687.326	17.53
687.512	17.94
687.699	18.32
687.886	18.69
688.072	19.11
688.259	19.42
688.445	19.87
688.632	20.32
688.818	20.73
689.005	21.24
689.191	21.74
689.378	22.12
689.564	22.69
689.751	23.31
689.937	23.78
690.124	24.36
690.31	24.89
690.496	25.49
690.683	26.14
690.869	26.76
691.055	27.45
691.242	27.95
691.428	28.63
691.614	29.34
691.8	29.92
691.987	30.57
692.173	31.32
692.359	31.7
692.545	32.42
692.731	33.04
692.918	33.66
693.104	34.28
693.29	34.86
693.476	35.37
693.662	36.15
693.848	36.65
694.034	37.17
694.22	37.72
694.406	38.38
694.592	38.96
694.778	39.61
694.964	40.08
695.15	40.79
695.336	41.57
695.522	42.08
695.708	42.63
695.894	43.31
696.08	43.72
696.265	44.29
696.451	45
696.637	45.39
696.823	46.01
697.009	46.57
697.194	47.09
697.38	47.71
697.566	48.17
697.751	48.52
697.937	49.01
698.123	49.5
698.308	49.93
698.494	50.39
698.68	51
698.865	51.68
699.051	52.25
699.236	52.79
699.422	53.27
699.607	53.78
699.793	54.23
699.978	54.52
700.164	54.91
700.349	55.11
700.535	55.5
700.72	55.94
700.906	56.28
701.091	56.63
701.276	57.03
701.462	57.4
701.647	57.83
701.832	58.19
702.018	58.45
702.203	58.82
702.388	59
702.573	59.42
702.759	59.71
702.944	60.16
703.129	60.49
703.314	60.75
703.499	61.09
703.684	61.63
703.87	61.77
704.055	61.9
704.24	62.12
704.425	62.49
704.61	62.79
704.795	63.12
704.98	63.27
705.165	63.61
705.35	63.94
705.535	64.22
705.72	64.17
705.905	64.39
706.09	64.52
706.275	64.65
706.459	64.96
706.644	65.05
706.829	65.2
707.014	65.57
707.199	65.81
707.384	65.93
707.568	66.14
707.753	66.14
707.938	66.38
708.123	66.35
708.307	66.58
708.492	66.67
708.677	66.86
708.861	66.99
709.046	66.97
709.231	67.07
709.415	67.27
709.6	67.36
709.784	67.48
709.969	67.65
710.153	67.96
710.338	68.26
710.522	68.35
710.707	68.34
710.891	68.58
711.076	68.73
711.26	69.05
711.445	69.16
711.629	69.34
711.813	69.45
711.998	69.67
712.182	69.7
712.366	70.02
712.551	69.95
712.735	69.87
712.919	70.06
713.103	70.37
713.288	70.82
713.472	70.8
713.656	70.66
713.84	70.77
714.024	71.07
714.208	71.13
714.393	71.26
714.577	71.22
714.761	71.57
714.945	71.79
715.129	72.03
715.313	72.06
715.497	72.14
715.681	72.34
715.865	72.28
716.049	72.06
716.233	72.36
716.417	72.27
716.601	72.43
716.785	72.52
716.968	72.17
717.152	72.36
717.336	72.49
717.52	72.39
717.704	72.77
717.888	72.94
718.071	73.06
718.255	73.32
718.439	73.29
718.622	73.55
718.806	73.39
718.99	73.24
719.174	72.99
719.357	72.98
719.541	73.38
719.724	73.69
719.908	73.67
720.092	73.95
720.275	74.43
720.459	74.61
720.642	74.76
720.826	74.56
721.009	74.4
721.193	74.19
721.376	74.21
721.559	73.87
721.743	74.06
721.926	73.82
722.11	73.87
722.293	73.79
722.476	74.08
722.66	74.11
722.843	74.15
723.026	73.95
723.21	74.29
723.393	74.4
723.576	74.59
723.759	74.8
723.942	74.86
724.126	75.03
724.309	75.34
724.492	75.4
724.675	75.75
724.858	76.19
725.041	76.14
725.224	76.21
725.407	76.01
725.59	76.17
725.774	76.22
725.957	76.45
726.14	76.39
726.322	76.24
726.505	76.75
726.688	76.87
726.871	77.06
727.054	77.46
727.237	76.9
727.42	77.11
727.603	77.58
727.786	77.64
727.968	77.67
728.151	77.84
728.334	77.6
728.517	77.94
728.699	77.87
728.882	77.87
729.065	77.77
729.248	77.84
729.43	77.66
729.613	77.69
729.796	77.61
729.978	77.76
730.161	78.3
730.343	78.71
730.526	78.84
730.708	79.1
730.891	79.61
731.073	79.74
731.256	79.61
731.438	79.65
731.621	79.67
731.803	79.89
731.986	79.89
732.168	79.45
732.35	79.61
732.533	79.76
732.715	79.62
732.898	79.45
733.08	79.99
733.262	79.65
733.444	79.78
733.627	80.24
733.809	80.37
733.991	80.56
734.173	80.14
734.355	80.06
734.538	80.41
734.72	80.8
734.902	80.52
735.084	80.74
735.266	80.49
735.448	80.98
735.63	80.74
735.812	80.91
735.994	80.86
736.176	81.25
736.358	81.36
736.54	81.08
736.722	80.72
736.904	80.8
737.086	80.72
737.268	80.55
737.45	80.35
737.632	79.82
737.814	80.31
737.995	80.88
738.177	81.46
738.359	81.68
738.541	81.69
738.723	81.81
738.904	81.98
739.086	82.11
739.268	82.45
739.449	82.26
739.631	82.24
739.813	82.28
739.994	82.36
740.176	82.74
740.358	82.9
740.539	82.38
740.721	82.45
740.902	82.5
741.084	82.79
741.265	82.37
741.447	82.07
741.628	81.59
741.81	82.06
741.991	81.93
742.172	82.03
742.354	82.52
742.535	82.93
742.717	83.5
742.898	84.09
743.079	83.47
743.261	83.08
743.442	83.1
743.623	82.69
743.804	82.39
743.986	81.75
744.167	81.47
744.348	82.11
744.529	82.22
744.71	81.62
744.891	81.68
745.073	81.77
745.254	82.26
745.435	82
745.616	81.64
745.797	81.62
745.978	82.4
746.159	82.18
746.34	82.42
746.521	82.57
746.702	82.29
746.883	82.19
747.064	82.29
747.245	81.41
747.426	81.4
747.606	81.31
747.787	81.08
747.968	81.76
748.149	82.22
748.33	82.83
748.51	83.27
748.691	83.82
748.872	84
749.053	83.39
749.233	83.12
749.414	83.04
749.595	82.11
749.775	82.41
749.956	81.11
750.137	80.19
750.317	80.32
750.498	80.48
750.678	79.93
750.859	79.87
751.04	79.44
751.22	79.89
751.4	80.36
751.581	80.98
751.761	81.23
751.942	81.24
752.122	81.42
752.303	81.83
752.483	82.52
752.663	82.98
752.844	82.25
753.024	82.15
753.204	82
753.385	81.42
753.565	81.15
753.745	80.53
753.925	80.14
754.106	79.92
754.286	79.39
754.466	79.81
754.646	80.19
754.826	80.07
755.006	79.61
755.187	79.62
755.367	80.17
755.547	80.53
755.727	79.69
755.907	79.92
756.087	79.43
756.267	79.53
756.447	79.76
756.627	79.73
756.807	80.77
756.987	82.12
757.167	81.97
757.346	81.98
757.526	82.63
757.706	82.78
757.886	83.04
758.066	81.7
758.246	81.62
758.425	82.03
758.605	82.25
758.785	82.3
758.965	80.68
759.144	80.82
759.324	80.88
759.504	79.85
759.683	79.52
759.863	79.46
760.043	78.81
760.222	79.48
760.402	79.52
760.581	79.99
760.761	79.98
760.94	79.91
761.12	79.83
761.299	79.35
761.479	79.38
761.658	78.1
761.838	77.58
762.017	77.65
762.197	78.24
762.376	78.33
762.555	79.36
762.735	78.62
762.914	79.08
763.093	78.8
763.273	79.07
763.452	77.98
763.631	77.52
763.81	77.85
763.99	78.48
764.169	78.73
764.348	79.57
764.527	79.51
764.706	80.15
764.885	81.25
765.064	79.9
765.243	80.27
765.423	80.53
765.602	79.29
765.781	78.45
765.96	78.5
766.139	78.03
766.318	78.92
766.497	78.95
766.676	78.98
766.854	79.42
767.033	80.17
767.212	79.73
767.391	79.56
767.57	78.66
767.749	78.21
767.928	77.41
768.106	77.64
768.285	77.71
768.464	77.69
768.643	78.01
768.821	78.57
769	79.57
769.179	79.24
769.357	77.9
769.536	77.49
769.715	76.78
769.893	76.33
770.072	75.52
770.25	75.17
770.429	75.43
770.607	76.72
770.786	77.34
770.964	78.08
771.143	77.79
771.321	77.39
771.5	76.36
771.678	77.3
771.857	77.36
772.035	77.16
772.213	77.17
772.392	77.68
772.57	78.95
772.748	78.71
772.927	77.81
773.105	78.76
773.283	78.31
773.461	78.06
773.64	76.94
773.818	75.95
773.996	76.11
774.174	76.44
774.352	75.04
774.531	74.23
774.709	75.23
774.887	76.11
775.065	76.67
775.243	78.08
775.421	77.99
775.599	77.15
775.777	77.91
775.955	76.34
776.133	75.77
776.311	75.69
776.489	74.37
776.667	74.08
776.844	74.61
777.022	74.2
777.2	74.54
777.378	74.91
777.556	75.4
777.734	74.72
777.911	75.69
778.089	75.08
778.267	75.52
778.445	74.37
778.622	73.78
778.8	73.8
778.978	74.66
779.155	72.59
779.333	70.65
779.511	70.37
779.688	70.32
779.866	70.07
780.043	70.49
780.221	71.05
780.398	73.17
780.576	75.37
780.753	74.65
780.931	76.1
781.108	78.32
781.286	76.42
781.463	76.39
781.64	75.1
781.818	74.52
781.995	74.58
782.172	73.62
782.35	70.83
782.527	72.45
782.704	70.6
782.882	70.19
783.059	71.13
783.236	72.44
783.413	73.68
783.59	73.75
783.768	72.03
783.945	72.79
784.122	73.06
784.299	73.55
784.476	72.3
784.653	70.46
784.83	69.78
785.007	70.97
785.184	72.4
785.361	71.91
785.538	71.83
785.715	71.43
785.892	70.99
786.069	72.08
786.246	69.35
786.423	69.41
786.6	71.07
786.776	69.6
786.953	70.38
787.13	71.93
787.307	72.15
787.484	74.6
787.66	72.53
787.837	71.86
788.014	72.8
788.191	71.98
788.367	72.18
788.544	73.56
788.721	73.45
788.897	74.35
789.074	73.71
789.25	73.92
789.427	74.46
789.603	75.47
789.78	76.14
789.956	75.47
790.133	74.88
790.309	73.7
790.486	74.8
790.662	77.01
790.839	77.57
791.015	76.4
791.192	76.01
791.368	77.52
791.544	77.02
791.721	72.95
791.897	71.09
792.073	68.62
792.249	68.46
792.426	69.95
792.602	67.39
792.778	68.5
792.954	70.83
793.13	72.54
793.307	70.03
793.483	69.08
793.659	69.72
793.835	70.59
794.011	69.92
794.187	67.86
794.363	66.45
794.539	68.48
794.715	67.54
794.891	64.85
795.067	66.56
795.243	67.4
795.419	68.68
795.595	68.19
795.771	70.2
795.947	70.46
796.122	71.96
796.298	71.46
796.474	71.67
796.65	72.68
796.826	73.92
797.001	72.87
797.177	74.51
797.353	74.64
797.529	73.79
797.704	73.38
797.88	74.04
798.056	74.09
798.231	73.97
798.407	74.29
798.582	73.85
798.758	74.7
798.934	73
799.109	69.71
799.285	69
799.46	68.69
799.636	68.71
799.811	68.44
799.986	69.05
800.162	71.93
800.337	74.13
800.513	72.83
800.688	72.7
800.863	72.47
801.039	69.85
801.214	65.31
801.389	64.55
801.565	65.64
801.74	64.8
801.915	63.21
802.09	60.7
802.265	63.1
802.441	67.65
802.616	67.73
802.791	66.65
802.966	68.67
803.141	67.63
803.316	71.06
803.491	70.31
803.666	69
803.841	70.07
804.016	69.94
804.191	71.68
804.366	73.46
804.541	70.52
804.716	68.52
804.891	69.54
805.066	66.54
805.241	64.22
805.416	62.06
805.591	65.76
805.765	65.74
805.94	66.76
806.115	62.47
806.29	64.98
806.464	64.48
806.639	61.44
806.814	56.99
806.989	56.43
807.163	56.5
807.338	58.04
807.512	54.31
807.687	56.83
807.862	58.7
808.036	59.79
808.211	63.14
808.385	59.65
808.56	61.4
808.734	62.14
808.909	62.37
809.083	66.74
809.258	71.06
809.432	67.94
809.606	72.71
809.781	71.24
809.955	72.43
810.13	75
810.304	72.27
810.478	69.45
810.652	73.5
810.827	73.1
811.001	73.52
811.175	70.87
811.349	68.88
811.524	65.59
811.698	63.48
811.872	61.94
812.046	61.83
812.22	61.48
812.394	62.79
812.568	60.28
812.742	60.13
812.916	63.06
813.09	60.07
813.264	62.09
813.438	68.92
813.612	68.5
813.786	73.36
813.96	75.96
814.134	75.56
814.308	74.22
814.482	69.76
814.656	66.14
814.83	68.77
815.003	68.73
815.177	67.24
815.351	69
815.525	71.56
815.698	70.94
815.872	64.91
816.046	67.14
816.219	65.08
816.393	62.65
816.567	54.74
816.74	56.27
816.914	60.58
817.088	62.8
817.261	60.42
817.435	55.22
817.608	56.91
817.782	65.34
817.955	62.56
818.129	61.69
818.302	66.41
818.475	72.18
818.649	73.79
818.822	74.45
818.996	69.84
819.169	69.89
819.342	65.63
819.516	62.56
819.689	56.5
819.862	55.74
820.035	59.45
820.209	59.44
820.382	58.43
820.555	58.04
820.728	56.44
820.901	54
821.075	64.18
821.248	59.66
821.421	57.92
821.594	63.28
821.767	70.6
821.94	68.4
822.113	70.68
822.286	67.41
822.459	72.69
822.632	71.3
822.805	64.53
822.978	55.24
823.151	56.37
823.324	55.52
823.496	49.61
823.669	49.52
823.842	58.5
824.015	56.32
824.188	54.44
824.361	56.2
824.533	55.9
824.706	65.61
824.879	67.03
825.051	69.17
825.224	75.09
825.397	76.86
825.569	78.81
825.742	76.39
825.915	66.74
826.087	58.08
826.26	51.35
826.432	50.49
826.605	51.81
826.777	48.96
826.95	43.81
827.122	48.92
827.295	52.93
827.467	43.44
827.64	35.29
827.812	32.71
827.984	37.17
828.157	49.5
828.329	48.42
828.501	49.45
828.674	52.47
828.846	51.31
829.018	45.39
829.19	40.98
829.363	37.86
829.535	36.17
829.707	28.32
829.879	28.27
830.051	37.91
830.223	36.42
830.395	36.59
830.568	38.16
830.74	46.29
830.912	54
831.084	51.06
831.256	38.31
831.428	47.98
831.6	39.85
831.772	29.24
831.943	22.76
832.115	23.93
832.287	21.63
832.459	33.17
832.631	32.75
832.803	47.26
832.975	58.06
833.146	52.95
833.318	50.84
833.49	63.05
833.662	61.8
833.833	57.16
834.005	63.67
834.177	64.78
834.348	63.19
834.52	68.78
834.692	70.23
834.863	67.05
835.035	62.99
835.206	47.96
835.378	38.09
835.549	41.02
835.721	37.84
835.892	35.29
836.064	47.19
836.235	63.71
836.407	64.85
836.578	71.04
836.749	78.93
836.921	84.95
837.092	85.39
837.264	71.43
837.435	50.53
837.606	53.34
837.777	59.97
837.949	45.59
838.12	46.03
838.291	54.94
838.462	58.15
838.633	67.18
838.805	59.21
838.976	48.25
839.147	45.55
839.318	35.29
839.489	28.01
839.66	33.91
839.831	28.7
840.002	30.89
840.173	35.83
840.344	54.53
840.515	63.01
840.686	65.34
840.857	59.58
841.028	60.41
841.199	63.9
841.369	48.89
841.54	44.54
841.711	43.53
841.882	28.77
842.053	27.5
842.223	18.26
842.394	21.65
842.565	42.9
842.736	33.74
842.906	41.92
843.077	61.83
843.248	59.4
843.418	58.58
843.589	57.16
843.759	52.36
843.93	57.3
844.101	53.55
844.271	46.98
844.442	46.72
844.612	50.65
844.783	39.91
844.953	40.04
845.123	41.78
845.294	37.5
845.464	41.11
845.635	36.77
845.805	42.74
845.975	52.74
846.146	47
846.316	61.36
846.486	68.95
846.656	79.77
846.827	77.64
846.997	80.12
847.167	77.56
847.337	80.27
847.507	70.15
847.677	69.6
847.848	55.02
848.018	45.45
848.188	35.81
848.358	32.21
848.528	38.79
848.698	24.67
848.868	10.73
849.038	28.54
849.208	40.18
849.378	33.25
849.548	32.41
849.718	19.85
849.887	16.64
850.057	25.04
850.227	16.54
850.397	7.14
850.567	24.94
850.737	11.68
850.906	17.43
851.076	42.85
851.246	45.79
851.415	45.52
851.585	64.78
851.755	53.48
851.924	71.29
852.094	72.57
852.264	59.63
852.433	53.54
852.603	63.11
852.772	50.77
852.942	46.37
853.111	51.14
853.281	46.16
853.45	48.11
853.62	51.82
853.789	40.22
853.959	34.02
854.128	23.47
854.297	18.53
854.467	20.95
854.636	14.76
854.805	20.29
854.975	29.95
855.144	47.1
855.313	67.14
855.482	56.4
855.652	54.56
855.821	60.07
855.99	61.62
856.159	39.66
856.328	40.89
856.497	33.73
856.667	39.96
856.836	42.14
857.005	34.49
857.174	46.4
857.343	50.14
857.512	40.04
857.681	43.66
857.85	37.72
858.019	36.86
858.188	50.75
858.356	23.77
858.525	36.74
858.694	45.92
858.863	38.12
859.032	36.91
859.201	26.02
859.369	26.43
859.538	24.81
859.707	20.88
859.876	26.75
860.044	24.91
860.213	29.73
860.382	47.48
860.55	68.06
860.719	83.48
860.888	88.22
861.056	86.35
861.225	94.77
861.393	99.78
861.562	95.09
861.73	76.86
861.899	40.97
862.067	37.04
862.236	40.94
862.404	41.2
862.572	34.47
862.741	26.66
862.909	26.88
863.078	40.36
863.246	49.57
863.414	41.72
863.582	35.01
863.751	44.28
863.919	54.74
864.087	46.72
864.255	44.81
864.424	41.19
864.592	36.82
864.76	43.67
864.928	36.67
865.096	25.62
865.264	38.85
865.432	33.58
865.6	22.34
865.768	25.71
865.936	21.59
866.104	2.62
866.272	5.58
866.44	-44.65
866.608	-53.74
866.776	-13.89
866.944	-0.17
867.112	-21.77
867.28	-34.95
867.448	-5.87
867.615	20.22
867.783	6.98
867.951	26.76
868.119	23.93
868.286	29.44
868.454	45.19
868.622	28.85
868.789	31.2
868.957	41.87
869.125	33.01
869.292	32.31
869.46	32.58
869.627	17.95
869.795	22.24
869.963	20.41
870.13	21.13
870.298	5.96
870.465	-20.32
870.632	-16.53
870.8	-4.52
870.967	-6.62
871.135	-8.29
871.302	15.88
871.469	23.59
871.637	37.26
871.804	37.36
871.971	38.46
872.139	48.03
872.306	50.97
872.473	28.73
872.64	12.9
872.807	-9.21
872.975	-32.52
873.142	-60.36
873.309	-100.03
873.476	-190.11
873.643	-95.12
873.81	-21.49
873.977	-35.77
874.144	-46.18
874.311	-29.7
874.478	-49.97
874.645	-59.86
874.812	-49.63
874.979	-87.22
875.146	-127.08
875.313	-174.7
875.48	-68.04
875.647	-56.25
875.813	-27.66
875.98	-38.29
876.147	13.19
876.314	32.34
876.481	41.71
876.647	23.24
876.814	45.22
876.981	41.4
877.147	31.11
877.314	37.83
877.481	42.39
877.647	51.45
877.814	43.1
877.98	51.28
878.147	43.73
878.314	60.86
878.48	62.4
878.647	51.87
878.813	50.61
878.979	75.84
879.146	32.84
879.312	49.7
879.479	50.96
879.645	25.77
879.811	32.14
879.978	19.61
880.144	14.15
880.31	-3.95
880.477	-20.47
880.643	-92.53
880.809	-8.73
880.975	-45.02
881.142	-30.73
881.308	-32.96
881.474	21.49
881.64	-9.14
881.806	10.1
881.972	21.34
882.138	16.61
882.304	-34.12
882.47	-38.22
882.636	-110.63
882.802	-103.22
882.968	-146.77
883.134	-320.02
883.3	-114.63
883.466	6.59
883.632	2.79
883.798	39.8
883.964	30.3
884.129	34.68
884.295	26.71
884.461	35.3
884.627	-16.12
884.793	30.3
884.958	23.41
885.124	-19.21
885.29	-9.46
885.455	3.24
885.621	-6.42
885.787	-4.64
885.952	-30.45
886.118	-21.88
886.283	0.92
886.449	-28.57
886.614	-35.37
886.78	11.16
886.945	11.06
887.111	27.45
887.276	22.7
887.442	32.36
887.607	27.23
887.773	15.15
887.938	-15.7
888.103	12.95
888.269	0.53
888.434	-23.19
888.599	-8.22
888.764	4.48
888.93	10.56
889.095	-14.22
889.26	5.67
889.425	29.09
889.59	43.98
889.756	32.62
889.921	23.69
890.086	26.46
890.251	43.3
890.416	-36.79
890.581	-52.53
890.746	-51.82
890.911	-101.01
891.076	-142.34
891.241	-202.33
891.406	-33.77
891.571	-2.97
891.736	4.17
891.901	34.53
892.065	60.27
892.23	44.95
892.395	26.96
892.56	-11.77
892.725	-14.12
892.889	-29.99
893.054	-117.18
893.219	-194.84
893.384	-242.25
893.548	-522.5
893.713	885.89
893.878	423.91
