Data from Ofra_PS_T2_2A_2CX12_Reflection_3.txt Node
Date: Wed Jul 21 16:58:18 EDT 2021
User: Adam
Spectrometer: FLMT01687
Trigger mode: 0
Integration Time (sec): 1.100000E0
Scans to average: 2
Electric dark correction enabled: true
Nonlinearity correction enabled: false
Boxcar width: 2
XAxis mode: Wavelengths
Number of Pixels in Spectrum: 3648
>>>>>Begin Spectral Data<<<<<
179.494	512.6
179.716	559.29
179.937	512.85
180.158	461.19
180.38	821.09
180.601	422.51
180.823	125
181.044	55.33
181.265	238.05
181.486	53.82
181.708	-2.14
181.929	-269.9
182.15	203.17
182.372	121.71
182.593	87.89
182.814	-13.38
183.035	2.13
183.257	5.7
183.478	-9.52
183.699	46.76
183.92	56.64
184.141	22.15
184.363	-21.46
184.584	-15.7
184.805	-23.07
185.026	5.51
185.247	20.28
185.468	9.08
185.689	15.05
185.91	27.34
186.132	17.12
186.353	21.99
186.574	91.63
186.795	63.9
187.016	16.28
187.237	22.45
187.458	15.91
187.679	-25.89
187.9	9.94
188.121	21.15
188.342	22.74
188.563	39.12
188.784	57.76
189.005	13.8
189.226	68.78
189.447	41.25
189.667	-59.59
189.888	-224.51
190.109	-677.6
190.33	-415.97
190.551	-796.24
190.772	-159.02
190.993	-93.02
191.214	-35.97
191.434	-56.67
191.655	33.16
191.876	18.16
192.097	-42.96
192.318	-106.3
192.538	-170.6
192.759	-170.43
192.98	-66.47
193.201	-18.12
193.421	18.28
193.642	46.63
193.863	59.18
194.083	33.57
194.304	21.19
194.525	2.25
194.745	-18.5
194.966	-24.32
195.187	-16.7
195.407	-27.18
195.628	-36.3
195.848	-85.15
196.069	-64.74
196.29	-12.03
196.51	-19.66
196.731	-27.03
196.951	-16.41
197.172	-35.18
197.392	-81.46
197.613	-87.25
197.833	-107.06
198.054	-92.95
198.274	-58.4
198.495	-77.12
198.715	-40.52
198.936	-53.47
199.156	-21.06
199.377	-109.2
199.597	-102.46
199.817	-110.79
200.038	-44.75
200.258	-85.4
200.479	-24.9
200.699	-16.92
200.919	41.01
201.14	12.85
201.36	3.48
201.58	27.33
201.801	53.29
202.021	15.59
202.241	14.86
202.461	5.22
202.682	-57.13
202.902	-139.2
203.122	-70.27
203.342	-72.42
203.563	-37.21
203.783	3.92
204.003	-6.02
204.223	-13.41
204.443	24.81
204.663	23.18
204.884	1.69
205.104	23.14
205.324	42.97
205.544	67.19
205.764	61.26
205.984	68
206.204	55.76
206.424	39.04
206.644	11.8
206.864	7.15
207.084	-31.12
207.304	-24
207.525	-140.55
207.745	-105.77
207.964	-7.39
208.184	-35.84
208.404	-48.13
208.624	-24.72
208.844	-11.45
209.064	-264
209.284	-254.08
209.504	-128.28
209.724	-29.55
209.944	-11.98
210.164	10.6
210.384	16.73
210.604	22.66
210.823	-17.49
211.043	-26.84
211.263	3.27
211.483	-2
211.703	-50.53
211.922	-26.1
212.142	5.84
212.362	-5.4
212.582	-9.86
212.801	-8.4
213.021	-36.76
213.241	-36.28
213.461	-72.43
213.68	-64.42
213.9	-31.7
214.12	-3.58
214.339	-56.97
214.559	-39.9
214.779	-1.76
214.998	-5.14
215.218	-38.29
215.438	-11.02
215.657	-11.62
215.877	-30.73
216.096	1.12
216.316	9.74
216.535	0.96
216.755	7.52
216.974	-59.62
217.194	-124.2
217.413	-99.32
217.633	-101.32
217.852	-164.06
218.072	-48.83
218.291	-15.22
218.511	15.56
218.73	0.66
218.95	1.6
219.169	-17.22
219.389	-47.88
219.608	-33.77
219.827	-25.18
220.047	-31.88
220.266	-10.28
220.485	-6.3
220.705	-2.17
220.924	-19.73
221.143	27.04
221.363	13.21
221.582	26.39
221.801	18.19
222.021	28.64
222.24	-35.58
222.459	19.15
222.678	-27.44
222.897	-68.31
223.117	-87.35
223.336	-57.4
223.555	-17.19
223.774	48.49
223.993	94.6
224.213	120.75
224.432	105.59
224.651	77.32
224.87	31.17
225.089	30.44
225.308	19.29
225.527	28.41
225.746	22.54
225.965	25.55
226.184	-0.96
226.404	11.53
226.623	-11.85
226.842	-4.89
227.061	8.81
227.28	17.04
227.499	3.48
227.718	15.65
227.936	0.53
228.155	10.89
228.374	5.92
228.593	15.59
228.812	13.97
229.031	16.31
229.25	-21.89
229.469	-27.77
229.688	-33.64
229.907	-2.72
230.125	-2.98
230.344	6.99
230.563	22.51
230.782	42.9
231.001	-25.07
231.22	-11.41
231.438	12.47
231.657	3.4
231.876	-26.03
232.095	21.99
232.313	18.93
232.532	-20.16
232.751	-46.77
232.969	-30.06
233.188	-125.17
233.407	-34.16
233.625	-5.19
233.844	-2.62
234.063	0.02
234.281	21.67
234.5	-2.61
234.719	0.02
234.937	12.28
235.156	12.16
235.374	17.81
235.593	15.19
235.811	14.73
236.03	8.05
236.249	-22.9
236.467	-28.7
236.686	9.09
236.904	15
237.123	-8.01
237.341	0.16
237.559	17.91
237.778	-16.45
237.996	-29.53
238.215	19.11
238.433	29.41
238.652	-0.61
238.87	2.94
239.088	20.68
239.307	17.53
239.525	0.71
239.743	-13.87
239.962	-4.89
240.18	-43.81
240.398	-96.3
240.617	-80.72
240.835	-56.01
241.053	-13.13
241.271	16.01
241.49	32.87
241.708	2.82
241.926	-16.53
242.144	-51.83
242.363	-64.22
242.581	-67.64
242.799	-15.4
243.017	19.07
243.235	15.02
243.453	15.04
243.672	9.51
243.89	8.86
244.108	-5.97
244.326	18.57
244.544	27.96
244.762	22.94
244.98	15.84
245.198	18.91
245.416	-5.6
245.634	-11.03
245.852	-16.06
246.07	-20.53
246.288	-3.65
246.506	-26.88
246.724	-16.87
246.942	-7.72
247.16	12.39
247.378	12.03
247.596	12.94
247.814	7.95
248.032	-7.37
248.25	-14.18
248.468	2.77
248.685	11.51
248.903	35.21
249.121	39.78
249.339	20.48
249.557	4.6
249.775	7.23
249.992	-58.12
250.21	-59.12
250.428	-37.76
250.646	-81.15
250.863	-93.28
251.081	-48.48
251.299	-45.97
251.517	-19.38
251.734	-0.67
251.952	5.35
252.17	2.02
252.387	7.78
252.605	-7.52
252.823	1.47
253.04	12.89
253.258	18.73
253.475	-8.21
253.693	18.25
253.911	26.85
254.128	32.39
254.346	35.99
254.563	30.31
254.781	9.19
254.998	-32.77
255.216	-40.07
255.433	-27.73
255.651	3.94
255.868	16.95
256.086	71.5
256.303	63.75
256.521	54.23
256.738	25.62
256.956	10.59
257.173	-17.59
257.39	-38.16
257.608	-63.86
257.825	-16.36
258.043	4.1
258.26	8.68
258.477	52.87
258.695	34.15
258.912	11.09
259.129	15.62
259.346	-20.43
259.564	-59.78
259.781	-59.11
259.998	-28.48
260.216	-15.13
260.433	16.59
260.65	4.42
260.867	17.57
261.084	13.62
261.302	-11.18
261.519	4.52
261.736	11.87
261.953	6.52
262.17	33.38
262.387	28.85
262.604	-12.91
262.822	-35.02
263.039	-29.9
263.256	-65.45
263.473	-27.66
263.69	1.05
263.907	33.21
264.124	33.96
264.341	27.08
264.558	24.23
264.775	29.65
264.992	11.41
265.209	10.32
265.426	33.71
265.643	26.7
265.86	29.4
266.077	28.32
266.294	44.55
266.51	-8.58
266.727	-27.3
266.944	-22.38
267.161	-18.8
267.378	-41.91
267.595	-2.39
267.812	-20.42
268.028	-59.33
268.245	-31.27
268.462	-22.17
268.679	-30.77
268.896	16.78
269.112	24.18
269.329	18.41
269.546	6.05
269.763	0.17
269.979	-5.83
270.196	-13.45
270.413	-35.83
270.629	-37.56
270.846	-44.69
271.063	-44.28
271.279	-39.2
271.496	-44.46
271.712	-4.68
271.929	19.4
272.146	2.95
272.362	-1.89
272.579	22.23
272.795	10.18
273.012	15.61
273.228	1.38
273.445	-0.92
273.661	-27.62
273.878	-45.05
274.094	-33.26
274.311	-25.95
274.527	27.78
274.744	41.3
274.96	47.96
275.177	34.03
275.393	39.85
275.609	27.59
275.826	31.93
276.042	30
276.259	23.76
276.475	34.54
276.691	44.94
276.908	26.9
277.124	37.63
277.34	32.71
277.557	22.32
277.773	-3.78
277.989	-2.01
278.205	-15.13
278.422	-12.53
278.638	-14.53
278.854	-11.81
279.07	-12.66
279.286	12.79
279.503	6.53
279.719	19.35
279.935	17.1
280.151	4.91
280.367	-10.03
280.583	-20.95
280.799	-30.43
281.016	-53.98
281.232	-5.69
281.448	-18.38
281.664	12.39
281.88	-12.64
282.096	5.75
282.312	5.44
282.528	30.09
282.744	35.62
282.96	48.7
283.176	38.39
283.392	24.12
283.608	17.17
283.824	-1.65
284.04	5.78
284.256	2.79
284.471	-5.13
284.687	-18.99
284.903	-0.93
285.119	-2.1
285.335	-1.39
285.551	6.22
285.767	6.41
285.982	-13.96
286.198	-44.54
286.414	-3.82
286.63	-4.48
286.846	24.84
287.061	19.26
287.277	50.44
287.493	29.32
287.709	54.21
287.924	38.1
288.14	67.81
288.356	68.66
288.571	71.64
288.787	35.66
289.003	36.3
289.218	13.33
289.434	-23.25
289.65	-26.4
289.865	-17.51
290.081	0.71
290.296	9.68
290.512	26.81
290.727	8.99
290.943	5.37
291.159	-8.83
291.374	-14.19
291.59	-26.92
291.805	-11.88
292.021	-8.98
292.236	-11.16
292.451	5.46
292.667	19.28
292.882	26.46
293.098	20.48
293.313	19.76
293.529	5.15
293.744	-8.2
293.959	-16.79
294.175	-5.11
294.39	16.64
294.605	30.75
294.821	46.77
295.036	49.16
295.251	51.5
295.467	32.28
295.682	18.77
295.897	-20.22
296.112	-21.58
296.328	-28.07
296.543	-48.83
296.758	-45.21
296.973	3.73
297.188	18.8
297.404	8.02
297.619	2.37
297.834	-4.86
298.049	-37.17
298.264	-48.85
298.479	-4.65
298.694	6.79
298.909	19.68
299.125	29.95
299.34	28.89
299.555	12.81
299.77	7.95
299.985	-26.56
300.2	-86.01
300.415	-84.35
300.63	-60.51
300.845	-51.65
301.06	-37.95
301.275	2.53
301.49	9.77
301.704	0.82
301.919	-14.92
302.134	-29.63
302.349	-48.24
302.564	-102.9
302.779	-108.89
302.994	-85.54
303.209	-36.55
303.423	15.91
303.638	46.95
303.853	-2.3
304.068	-12.03
304.283	-14.04
304.497	-9.31
304.712	-28.99
304.927	-18.77
305.142	-12.37
305.356	-15.17
305.571	-24.43
305.786	-18.27
306	-21.9
306.215	-26.61
306.43	-37.25
306.644	-22.48
306.859	-15.63
307.074	-8.88
307.288	-24.01
307.503	-19.89
307.717	-32.83
307.932	-24.29
308.147	-24.17
308.361	-5.4
308.576	-8.9
308.79	-37.51
309.005	-43.69
309.219	-15.74
309.434	-38.21
309.648	-26.66
309.863	3.63
310.077	7.77
310.292	-14.59
310.506	-0.85
310.72	8.23
310.935	2.26
311.149	-0.57
311.364	25.55
311.578	34.04
311.792	19.85
312.007	27.3
312.221	26.65
312.435	18.86
312.649	-1.21
312.864	31.63
313.078	31.19
313.292	80.32
313.507	58.29
313.721	106.68
313.935	47.81
314.149	41.81
314.363	19.93
314.578	9.89
314.792	12.52
315.006	-7.91
315.22	-2.37
315.434	10.1
315.648	27.34
315.862	18.28
316.077	29.91
316.291	26.36
316.505	21.1
316.719	23.75
316.933	28.58
317.147	10.09
317.361	-33.52
317.575	-69.17
317.789	-101.19
318.003	-162.77
318.217	-120.3
318.431	-30.48
318.645	14.95
318.859	15.48
319.073	34.18
319.287	26.79
319.5	-4.02
319.714	-42.82
319.928	-70.42
320.142	-106.93
320.356	-59.76
320.57	0.02
320.784	3.45
320.997	-1.33
321.211	12.2
321.425	-38.66
321.639	-64.86
321.853	-28.6
322.066	9.46
322.28	13.79
322.494	14.67
322.707	10.44
322.921	4.21
323.135	-11.79
323.349	-7.56
323.562	-10.37
323.776	-12.88
323.989	1.66
324.203	-6.32
324.417	-17.85
324.63	-32.16
324.844	-21.6
325.057	-33.48
325.271	-14.33
325.485	21.51
325.698	39.7
325.912	56.31
326.125	33.63
326.339	40.88
326.552	19.08
326.766	-2.33
326.979	-19.34
327.193	41.83
327.406	13.17
327.619	4.24
327.833	35.59
328.046	25.03
328.26	-35.62
328.473	-2.54
328.686	-7.53
328.9	-21.83
329.113	-9.79
329.326	-18.61
329.54	-22.19
329.753	-38.7
329.966	-62.94
330.179	-57.37
330.393	-28.46
330.606	-22.84
330.819	-2.29
331.032	21.33
331.246	22.94
331.459	55.54
331.672	55.18
331.885	58.08
332.098	28.45
332.311	26.65
332.525	-18.53
332.738	-17.99
332.951	-1.07
333.164	24.24
333.377	23.2
333.59	21.67
333.803	16.16
334.016	-1.63
334.229	-14.82
334.442	-6.78
334.655	3.65
334.868	15.84
335.081	17.14
335.294	9.82
335.507	-0.77
335.72	4.85
335.933	-12.45
336.146	-19.96
336.359	-27.6
336.572	-48.19
336.785	-68.65
336.997	-59.71
337.21	-31.92
337.423	-18.29
337.636	-11.24
337.849	1.35
338.062	0.77
338.274	11.76
338.487	-5.8
338.7	-16.09
338.913	-50.8
339.125	-50.45
339.338	-107.62
339.551	-69.25
339.763	-31.68
339.976	-5.1
340.189	7.61
340.402	5.33
340.614	-1.02
340.827	-8.3
341.039	-21.47
341.252	-26.03
341.465	5.66
341.677	-3.95
341.89	-41.94
342.102	-4.85
342.315	-22.24
342.527	-63.95
342.74	-30.62
342.952	1.41
343.165	-13.17
343.377	13.51
343.59	8.66
343.802	7.15
344.015	17.23
344.227	23.8
344.44	13.68
344.652	19.3
344.864	7.06
345.077	31.58
345.289	22.84
345.502	22.88
345.714	16.12
345.926	21.63
346.139	-5.63
346.351	5.27
346.563	10.47
346.775	15.53
346.988	3.75
347.2	4.76
347.412	-33.4
347.624	-49.91
347.837	-73.46
348.049	-48.47
348.261	-37.3
348.473	-18.06
348.685	-13.09
348.897	-10.29
349.11	-26.03
349.322	-37.11
349.534	-14.67
349.746	-18.16
349.958	9.8
350.17	31.09
350.382	17.15
350.594	16.32
350.806	18.48
351.018	10.96
351.23	-7.04
351.442	-18.68
351.654	-17.74
351.866	-9.84
352.078	-3.08
352.29	2.97
352.502	24.16
352.714	16.66
352.926	8.31
353.138	4.73
353.35	3.78
353.561	-5.28
353.773	-22.78
353.985	-11.8
354.197	-14.42
354.409	-26.85
354.621	-22.48
354.832	-9.72
355.044	-10.96
355.256	-8.13
355.468	8.85
355.679	1.53
355.891	22.02
356.103	11.52
356.314	18.02
356.526	19.77
356.738	20.42
356.949	-6.05
357.161	8.37
357.373	-11.59
357.584	-31.3
357.796	-11.6
358.008	-20.18
358.219	-11.35
358.431	-2.28
358.642	17.53
358.854	6.07
359.065	4.92
359.277	-20.95
359.488	-27.81
359.7	-63.38
359.911	-60.66
360.123	-31.73
360.334	-48.05
360.546	-68.45
360.757	-45.5
360.969	-47.07
361.18	-51.82
361.391	-19.84
361.603	-12.38
361.814	-6.41
362.025	-2.73
362.237	-4.42
362.448	3.09
362.659	8.49
362.871	1.8
363.082	-0.56
363.293	3.54
363.504	-6.66
363.716	-22.28
363.927	-26.24
364.138	-45.75
364.349	-58.11
364.56	-49.85
364.772	-33.75
364.983	-10.09
365.194	-4.31
365.405	9.55
365.616	24.72
365.827	21.89
366.038	4.71
366.25	12.38
366.461	-3.25
366.672	2.4
366.883	18.29
367.094	21
367.305	1.22
367.516	1.17
367.727	-19.01
367.938	-31.22
368.149	-32.7
368.36	-9.06
368.571	-5.97
368.781	-17.91
368.992	-30.79
369.203	-47.28
369.414	-67.28
369.625	-67.77
369.836	-58.51
370.047	-65.63
370.258	-50.18
370.468	-55.82
370.679	-73.1
370.89	-60.55
371.101	-43.66
371.312	-38.34
371.522	-17.88
371.733	-6.43
371.944	-5.21
372.155	-3.86
372.365	-17.33
372.576	-26.81
372.787	-26.05
372.997	-38.96
373.208	-36.53
373.419	-17.18
373.629	-28.34
373.84	-21.15
374.05	-24.41
374.261	-25.85
374.472	-31.89
374.682	-1.33
374.893	-13.33
375.103	10.69
375.314	14.56
375.524	22.02
375.735	28.2
375.945	37.95
376.156	23.11
376.366	22.47
376.577	8.12
376.787	-10.8
376.997	-10.06
377.208	-17.55
377.418	-29.81
377.629	-12.64
377.839	-8.26
378.049	-0.81
378.26	18.78
378.47	24.75
378.68	12.95
378.89	11.82
379.101	5.74
379.311	-18.28
379.521	-35.25
379.732	-33.6
379.942	-35.59
380.152	-62.84
380.362	-27.81
380.572	-15.66
380.783	3.18
380.993	13.18
381.203	30.03
381.413	29.06
381.623	27.33
381.833	18.73
382.043	8.47
382.253	6.48
382.463	5.18
382.674	-1.2
382.884	-18.94
383.094	-15.89
383.304	-16.39
383.514	-15.7
383.724	-11.56
383.934	-7.13
384.144	-19.3
384.353	-15.92
384.563	-10.35
384.773	-4.77
384.983	-9.78
385.193	9.74
385.403	13.91
385.613	14.5
385.823	5.66
386.033	14.36
386.242	6.98
386.452	-0.35
386.662	-14.69
386.872	-3.82
387.082	-9.93
387.291	-16.94
387.501	-16.18
387.711	-3.21
387.921	-10.07
388.13	-5.47
388.34	3.07
388.55	-3.88
388.759	-6.61
388.969	-2.58
389.179	-7.86
389.388	-9.15
389.598	-3.97
389.807	-6.31
390.017	-5.35
390.227	1.07
390.436	0.94
390.646	2.14
390.855	3.38
391.065	0.8
391.274	-4.24
391.484	-5.41
391.693	-3.45
391.903	-2.87
392.112	2.08
392.322	4.3
392.531	7.22
392.74	6.27
392.95	3.73
393.159	1.6
393.369	1.42
393.578	0.81
393.787	0.16
393.997	2.3
394.206	0.58
394.415	2.1
394.625	0.94
394.834	0.44
395.043	-0.09
395.252	2.57
395.462	3.52
395.671	4.62
395.88	4.97
396.089	6.15
396.298	4.8
396.508	4.11
396.717	3.94
396.926	4.37
397.135	3.56
397.344	3.32
397.553	3.79
397.762	4.98
397.971	5.19
398.181	5.05
398.39	5.11
398.599	4.51
398.808	4.12
399.017	4.82
399.226	5.88
399.435	6.75
399.644	6.95
399.853	6.01
400.062	5.73
400.27	5.08
400.479	4.31
400.688	3.81
400.897	4.29
401.106	4.08
401.315	4.02
401.524	4.31
401.733	4.68
401.941	4.7
402.15	4.9
402.359	4.77
402.568	5.19
402.777	5.39
402.985	5.27
403.194	5.08
403.403	5.43
403.612	4.59
403.82	4.4
404.029	4.66
404.238	4.61
404.446	4.57
404.655	4.68
404.864	4.66
405.072	4.47
405.281	4.36
405.489	4.16
405.698	4.25
405.906	4.26
406.115	4.06
406.324	4.32
406.532	4.5
406.741	4.74
406.949	4.62
407.158	4.91
407.366	4.91
407.574	4.92
407.783	4.78
407.991	4.71
408.2	4.57
408.408	4.31
408.617	4.17
408.825	4.07
409.033	4.18
409.242	4.34
409.45	4.53
409.658	4.43
409.867	4.43
410.075	4.38
410.283	4.17
410.491	4.14
410.7	4.19
410.908	4.25
411.116	4.4
411.324	4.39
411.533	4.21
411.741	4.28
411.949	4.31
412.157	4.05
412.365	4.14
412.573	4.15
412.781	4.24
412.99	4.16
413.198	4.46
413.406	4.37
413.614	4.35
413.822	4.12
414.03	4.06
414.238	3.82
414.446	3.94
414.654	3.91
414.862	4.05
415.07	4.08
415.278	4.2
415.486	3.92
415.694	4.01
415.902	3.83
416.109	3.76
416.317	3.68
416.525	3.68
416.733	3.57
416.941	3.7
417.149	3.76
417.357	3.86
417.564	3.96
417.772	4.17
417.98	4.19
418.188	4.08
418.395	3.98
418.603	4.17
418.811	3.84
419.019	3.67
419.226	3.87
419.434	3.87
419.642	3.57
419.849	3.81
420.057	3.8
420.265	3.74
420.472	3.58
420.68	3.62
420.887	3.47
421.095	3.41
421.302	3.4
421.51	3.59
421.717	3.77
421.925	3.89
422.132	3.92
422.34	3.59
422.547	3.58
422.755	3.35
422.962	3.21
423.17	3.24
423.377	3.5
423.585	3.61
423.792	3.6
423.999	3.57
424.207	3.52
424.414	3.52
424.621	3.18
424.829	3.15
425.036	3.21
425.243	3.42
425.451	3.27
425.658	3.37
425.865	3.62
426.072	3.69
426.28	3.71
426.487	3.78
426.694	3.85
426.901	3.6
427.108	3.49
427.315	3.36
427.523	3.52
427.73	3.41
427.937	3.42
428.144	3.27
428.351	3.23
428.558	3.36
428.765	3.39
428.972	3.34
429.179	3.59
429.386	3.82
429.593	3.53
429.8	3.46
430.007	3.64
430.214	3.57
430.421	3.39
430.628	3.23
430.835	3.25
431.042	3.27
431.249	3.38
431.456	3.35
431.662	3.61
431.869	3.86
432.076	3.79
432.283	3.84
432.49	3.9
432.697	3.84
432.903	3.5
433.11	3.55
433.317	3.52
433.524	3.52
433.73	3.45
433.937	3.66
434.144	3.56
434.35	3.43
434.557	3.32
434.764	3.37
434.97	3.26
435.177	3.42
435.384	3.41
435.59	3.53
435.797	3.76
436.003	3.87
436.21	3.74
436.416	3.9
436.623	3.86
436.829	3.81
437.036	3.74
437.242	3.8
437.449	3.61
437.655	3.71
437.862	3.67
438.068	3.76
438.275	3.87
438.481	4.13
438.687	3.93
438.894	3.94
439.1	3.95
439.307	3.98
439.513	3.82
439.719	3.95
439.926	3.99
440.132	3.82
440.338	3.66
440.544	3.81
440.751	3.76
440.957	3.75
441.163	3.8
441.369	3.91
441.575	3.8
441.782	3.85
441.988	3.74
442.194	3.76
442.4	3.66
442.606	3.82
442.812	3.86
443.018	3.94
443.224	3.96
443.431	4.07
443.637	3.86
443.843	3.77
444.049	3.69
444.255	3.67
444.461	3.74
444.667	3.8
444.873	4.03
445.079	3.99
445.284	4.11
445.49	3.95
445.696	3.85
445.902	3.67
446.108	3.77
446.314	3.69
446.52	3.73
446.726	3.92
446.931	3.98
447.137	3.98
447.343	4.04
447.549	4
447.755	3.92
447.96	3.91
448.166	3.86
448.372	3.78
448.578	3.84
448.783	3.85
448.989	3.91
449.195	4.08
449.4	4.09
449.606	4.03
449.812	3.93
450.017	3.9
450.223	3.69
450.428	3.67
450.634	3.79
450.84	3.94
451.045	3.87
451.251	3.91
451.456	4.07
451.662	4.13
451.867	4.13
452.073	4.29
452.278	4.46
452.483	4.46
452.689	4.32
452.894	4.28
453.1	4.15
453.305	4.06
453.51	4.03
453.716	3.97
453.921	4.04
454.127	4.04
454.332	3.96
454.537	3.87
454.742	3.89
454.948	3.86
455.153	3.93
455.358	4.01
455.563	4.17
455.769	4.3
455.974	4.27
456.179	4.22
456.384	4.11
456.589	4.06
456.795	3.93
457	3.89
457.205	3.99
457.41	3.98
457.615	3.87
457.82	3.86
458.025	3.85
458.23	3.77
458.435	3.8
458.64	3.82
458.845	4.05
459.05	4.05
459.255	4.06
459.46	4.09
459.665	4.05
459.87	3.93
460.075	3.9
460.28	3.92
460.485	4.02
460.69	4.07
460.895	3.96
461.099	3.93
461.304	4.04
461.509	4.04
461.714	3.93
461.919	4.15
462.123	4.08
462.328	4.03
462.533	3.92
462.738	4.08
462.942	3.88
463.147	4.07
463.352	4.05
463.556	4.06
463.761	3.97
463.966	4.03
464.17	4.04
464.375	3.93
464.58	3.9
464.784	3.88
464.989	3.83
465.193	3.77
465.398	3.83
465.602	3.93
465.807	3.94
466.011	4.03
466.216	4.04
466.42	4.05
466.625	4.15
466.829	4.26
467.034	4.33
467.238	4.52
467.443	4.48
467.647	4.39
467.851	4.52
468.056	4.47
468.26	4.3
468.464	4.35
468.669	4.44
468.873	4.47
469.077	4.46
469.282	4.56
469.486	4.54
469.69	4.51
469.894	4.29
470.099	4.32
470.303	4.39
470.507	4.42
470.711	4.39
470.915	4.42
471.119	4.36
471.324	4.23
471.528	4.31
471.732	4.33
471.936	4.36
472.14	4.46
472.344	4.54
472.548	4.45
472.752	4.62
472.956	4.69
473.16	4.69
473.364	4.61
473.568	4.7
473.772	4.72
473.976	4.67
474.18	4.62
474.384	4.77
474.588	4.72
474.792	4.6
474.995	4.67
475.199	4.79
475.403	4.76
475.607	4.85
475.811	4.8
476.015	4.78
476.218	4.8
476.422	4.8
476.626	4.84
476.83	4.98
477.033	4.99
477.237	4.91
477.441	4.89
477.644	4.85
477.848	4.88
478.052	4.86
478.255	4.88
478.459	4.91
478.663	4.99
478.866	5.01
479.07	5.08
479.273	5.23
479.477	5.28
479.681	5.3
479.884	5.24
480.088	5.17
480.291	5.08
480.495	5.14
480.698	5.12
480.901	5.19
481.105	5.33
481.308	5.36
481.512	5.33
481.715	5.33
481.919	5.32
482.122	5.26
482.325	5.3
482.529	5.32
482.732	5.38
482.935	5.36
483.138	5.3
483.342	5.35
483.545	5.38
483.748	5.45
483.952	5.48
484.155	5.64
484.358	5.63
484.561	5.61
484.764	5.5
484.967	5.54
485.171	5.6
485.374	5.56
485.577	5.59
485.78	5.64
485.983	5.6
486.186	5.49
486.389	5.46
486.592	5.45
486.795	5.49
486.998	5.47
487.201	5.48
487.404	5.54
487.607	5.59
487.81	5.58
488.013	5.65
488.216	5.67
488.419	5.67
488.622	5.59
488.825	5.55
489.028	5.48
489.231	5.42
489.433	5.37
489.636	5.37
489.839	5.43
490.042	5.41
490.245	5.46
490.447	5.47
490.65	5.49
490.853	5.48
491.056	5.53
491.258	5.56
491.461	5.59
491.664	5.57
491.866	5.46
492.069	5.55
492.272	5.47
492.474	5.52
492.677	5.58
492.879	5.71
493.082	5.71
493.285	5.86
493.487	5.86
493.69	5.8
493.892	5.72
494.095	5.72
494.297	5.63
494.5	5.64
494.702	5.75
494.905	5.79
495.107	5.77
495.309	5.81
495.512	5.87
495.714	5.88
495.917	5.95
496.119	5.98
496.321	6.06
496.524	6.03
496.726	6.06
496.928	6.1
497.13	6.14
497.333	6.08
497.535	6.16
497.737	6.16
497.939	6.14
498.142	6.11
498.344	6.13
498.546	6
498.748	6.01
498.95	6.15
499.152	6.17
499.355	6.18
499.557	6.35
499.759	6.43
499.961	6.36
500.163	6.42
500.365	6.49
500.567	6.52
500.769	6.44
500.971	6.4
501.173	6.33
501.375	6.37
501.577	6.28
501.779	6.28
501.981	6.34
502.183	6.41
502.385	6.37
502.587	6.35
502.788	6.44
502.99	6.43
503.192	6.48
503.394	6.48
503.596	6.54
503.798	6.57
503.999	6.66
504.201	6.63
504.403	6.69
504.605	6.72
504.806	6.7
505.008	6.68
505.21	6.77
505.411	6.8
505.613	6.84
505.815	6.88
506.016	6.96
506.218	7
506.42	7.08
506.621	7.13
506.823	7.23
507.024	7.17
507.226	7.17
507.427	7.07
507.629	7.13
507.83	7.11
508.032	7.13
508.233	7.14
508.435	7.26
508.636	7.29
508.838	7.26
509.039	7.34
509.24	7.42
509.442	7.44
509.643	7.36
509.845	7.41
510.046	7.47
510.247	7.4
510.448	7.38
510.65	7.42
510.851	7.48
511.052	7.5
511.254	7.55
511.455	7.62
511.656	7.66
511.857	7.69
512.058	7.62
512.26	7.7
512.461	7.68
512.662	7.71
512.863	7.69
513.064	7.75
513.265	7.72
513.466	7.78
513.667	7.82
513.868	7.8
514.069	7.87
514.27	7.94
514.471	7.88
514.672	7.9
514.873	7.91
515.074	7.89
515.275	7.84
515.476	7.86
515.677	7.87
515.878	8.01
516.079	8.02
516.28	8.04
516.481	8.14
516.682	8.16
516.882	8.03
517.083	8.01
517.284	7.96
517.485	7.96
517.686	7.97
517.886	8
518.087	8.11
518.288	8.17
518.488	8.09
518.689	8.06
518.89	8.07
519.091	8.08
519.291	8.1
519.492	8.22
519.692	8.28
519.893	8.39
520.094	8.35
520.294	8.34
520.495	8.26
520.695	8.29
520.896	8.26
521.096	8.27
521.297	8.3
521.497	8.33
521.698	8.31
521.898	8.3
522.099	8.34
522.299	8.43
522.499	8.49
522.7	8.55
522.9	8.54
523.101	8.59
523.301	8.64
523.501	8.62
523.702	8.56
523.902	8.66
524.102	8.71
524.302	8.63
524.503	8.67
524.703	8.7
524.903	8.73
525.103	8.63
525.304	8.74
525.504	8.84
525.704	8.86
525.904	8.78
526.104	8.82
526.304	8.76
526.504	8.71
526.705	8.77
526.905	8.88
527.105	8.88
527.305	8.86
527.505	8.83
527.705	8.77
527.905	8.79
528.105	8.79
528.305	8.81
528.505	8.88
528.705	8.98
528.905	8.93
529.105	9.02
529.304	9.14
529.504	9.24
529.704	9.22
529.904	9.26
530.104	9.21
530.304	9.21
530.503	9.11
530.703	9.09
530.903	9.09
531.103	9.17
531.303	9.12
531.502	9.18
531.702	9.27
531.902	9.31
532.101	9.31
532.301	9.37
532.501	9.39
532.7	9.38
532.9	9.39
533.1	9.36
533.299	9.42
533.499	9.43
533.698	9.43
533.898	9.45
534.097	9.48
534.297	9.51
534.496	9.51
534.696	9.59
534.895	9.66
535.095	9.74
535.294	9.74
535.494	9.73
535.693	9.73
535.892	9.75
536.092	9.72
536.291	9.69
536.491	9.81
536.69	9.85
536.889	9.85
537.088	9.86
537.288	9.96
537.487	10
537.686	10.03
537.886	10.13
538.085	10.26
538.284	10.41
538.483	10.4
538.682	10.47
538.882	10.49
539.081	10.51
539.28	10.36
539.479	10.39
539.678	10.35
539.877	10.36
540.076	10.34
540.275	10.44
540.474	10.44
540.673	10.5
540.872	10.47
541.071	10.61
541.27	10.66
541.469	10.79
541.668	10.9
541.867	10.99
542.066	11
542.265	11.09
542.464	11.03
542.663	11.05
542.862	11.12
543.06	11.16
543.259	11.15
543.458	11.26
543.657	11.28
543.856	11.36
544.054	11.36
544.253	11.35
544.452	11.39
544.651	11.47
544.849	11.47
545.048	11.59
545.247	11.67
545.445	11.72
545.644	11.78
545.843	11.81
546.041	11.79
546.24	11.88
546.438	11.98
546.637	12.05
546.836	12.13
547.034	12.21
547.233	12.31
547.431	12.32
547.63	12.34
547.828	12.38
548.027	12.46
548.225	12.44
548.423	12.46
548.622	12.59
548.82	12.69
549.019	12.75
549.217	12.86
549.415	13
549.614	13.01
549.812	13.08
550.01	13.13
550.209	13.21
550.407	13.25
550.605	13.31
550.803	13.42
551.002	13.58
551.2	13.66
551.398	13.8
551.596	13.94
551.794	13.97
551.993	14.04
552.191	14.09
552.389	14.22
552.587	14.31
552.785	14.49
552.983	14.57
553.181	14.77
553.379	14.84
553.577	14.89
553.775	14.95
553.973	15.05
554.171	15.15
554.369	15.16
554.567	15.28
554.765	15.41
554.963	15.53
555.161	15.48
555.359	15.58
555.557	15.7
555.755	15.77
555.952	15.92
556.15	16.06
556.348	16.23
556.546	16.35
556.744	16.44
556.941	16.47
557.139	16.57
557.337	16.59
557.535	16.64
557.732	16.76
557.93	16.95
558.128	17.06
558.325	17.21
558.523	17.26
558.721	17.34
558.918	17.4
559.116	17.58
559.313	17.67
559.511	17.87
559.708	17.99
559.906	18.04
560.104	18.17
560.301	18.32
560.498	18.42
560.696	18.48
560.893	18.62
561.091	18.68
561.288	18.82
561.486	18.93
561.683	19.14
561.88	19.26
562.078	19.41
562.275	19.44
562.473	19.57
562.67	19.7
562.867	19.85
563.064	19.96
563.262	20.13
563.459	20.25
563.656	20.38
563.853	20.47
564.051	20.64
564.248	20.81
564.445	20.93
564.642	21.02
564.839	21.24
565.036	21.39
565.234	21.59
565.431	21.75
565.628	21.86
565.825	21.97
566.022	22.04
566.219	22.14
566.416	22.22
566.613	22.34
566.81	22.46
567.007	22.54
567.204	22.56
567.401	22.62
567.598	22.77
567.795	22.86
567.991	23
568.188	23.13
568.385	23.23
568.582	23.29
568.779	23.3
568.976	23.35
569.172	23.55
569.369	23.69
569.566	23.75
569.763	23.9
569.96	23.86
570.156	23.78
570.353	23.79
570.55	23.9
570.746	23.97
570.943	24.19
571.14	24.28
571.336	24.4
571.533	24.5
571.729	24.52
571.926	24.57
572.123	24.7
572.319	24.75
572.516	24.75
572.712	24.85
572.909	24.92
573.105	24.93
573.302	24.93
573.498	25.03
573.695	24.99
573.891	25
574.087	25.03
574.284	25.03
574.48	24.97
574.677	25.07
574.873	25.09
575.069	25.2
575.266	25.3
575.462	25.32
575.658	25.38
575.854	25.52
576.051	25.45
576.247	25.5
576.443	25.53
576.639	25.48
576.835	25.37
577.032	25.35
577.228	25.42
577.424	25.43
577.62	25.39
577.816	25.41
578.012	25.46
578.208	25.41
578.404	25.41
578.6	25.42
578.796	25.36
578.993	25.31
579.189	25.32
579.384	25.27
579.58	25.23
579.776	25.23
579.972	25.23
580.168	25.09
580.364	25.12
580.56	25.12
580.756	25.16
580.952	25.17
581.148	25.2
581.343	25.24
581.539	25.35
581.735	25.4
581.931	25.4
582.127	25.47
582.322	25.45
582.518	25.33
582.714	25.28
582.909	25.24
583.105	25.13
583.301	25.01
583.496	25.03
583.692	24.99
583.888	24.92
584.083	24.98
584.279	25.07
584.474	25.06
584.67	25.12
584.866	25.11
585.061	25.03
585.257	25.02
585.452	24.96
585.648	24.9
585.843	24.93
586.039	24.87
586.234	24.83
586.429	24.76
586.625	24.77
586.82	24.72
587.015	24.83
587.211	24.7
587.406	24.86
587.601	24.85
587.797	24.91
587.992	24.79
588.187	24.9
588.383	24.81
588.578	24.8
588.773	24.86
588.968	25
589.163	25.09
589.359	25.15
589.554	25.14
589.749	25.11
589.944	25.11
590.139	25.19
590.334	25.22
590.529	25.28
590.724	25.26
590.919	25.36
591.114	25.21
591.309	25.31
591.504	25.42
591.699	25.53
591.894	25.58
592.089	25.63
592.284	25.52
592.479	25.58
592.674	25.58
592.869	25.58
593.064	25.68
593.259	25.81
593.454	25.81
593.648	25.87
593.843	25.97
594.038	26.01
594.233	26.05
594.428	26.08
594.622	26.16
594.817	26.39
595.012	26.5
595.206	26.65
595.401	26.78
595.596	26.77
595.79	26.7
595.985	26.82
596.18	26.89
596.374	26.96
596.569	27.11
596.763	27.12
596.958	27.18
597.153	27.22
597.347	27.19
597.542	27.37
597.736	27.41
597.931	27.45
598.125	27.5
598.319	27.75
598.514	27.76
598.708	27.87
598.903	27.94
599.097	28.05
599.291	28.02
599.486	27.97
599.68	28.09
599.874	28.21
600.069	28.14
600.263	28.2
600.457	28.36
600.651	28.38
600.846	28.4
601.04	28.52
601.234	28.57
601.428	28.61
601.622	28.69
601.817	28.68
602.011	28.71
602.205	28.71
602.399	28.74
602.593	28.81
602.787	28.86
602.981	28.86
603.175	28.97
603.369	28.86
603.563	28.83
603.757	28.86
603.951	28.97
604.145	28.84
604.339	28.95
604.533	28.88
604.727	28.87
604.921	28.71
605.115	28.79
605.309	28.84
605.502	28.81
605.696	28.78
605.89	28.85
606.084	28.77
606.278	28.68
606.471	28.57
606.665	28.46
606.859	28.29
607.053	28.29
607.246	28.2
607.44	28.1
607.634	28.07
607.827	28.12
608.021	28.02
608.214	27.97
608.408	27.9
608.602	27.82
608.795	27.73
608.989	27.58
609.182	27.45
609.376	27.42
609.569	27.31
609.763	27.14
609.956	27.07
610.15	26.99
610.343	26.96
610.537	26.81
610.73	26.82
610.923	26.8
611.117	26.68
611.31	26.64
611.504	26.58
611.697	26.44
611.89	26.3
612.083	26.29
612.277	26.14
612.47	26.03
612.663	25.98
612.856	25.95
613.05	25.8
613.243	25.66
613.436	25.48
613.629	25.37
613.822	25.18
614.015	25.12
614.209	24.89
614.402	25.02
614.595	24.96
614.788	24.98
614.981	24.85
615.174	24.89
615.367	24.77
615.56	24.64
615.753	24.51
615.946	24.44
616.139	24.46
616.332	24.52
616.525	24.52
616.718	24.57
616.911	24.47
617.103	24.33
617.296	24.12
617.489	24
617.682	23.8
617.875	23.76
618.067	23.69
618.26	23.57
618.453	23.59
618.646	23.64
618.838	23.63
619.031	23.71
619.224	23.67
619.417	23.53
619.609	23.5
619.802	23.44
619.994	23.41
620.187	23.36
620.38	23.37
620.572	23.28
620.765	23.33
620.957	23.12
621.15	23.05
621.342	22.95
621.535	22.92
621.727	22.8
621.92	22.83
622.112	22.83
622.305	22.89
622.497	22.82
622.69	22.86
622.882	22.89
623.074	22.89
623.267	22.84
623.459	22.77
623.651	22.6
623.844	22.53
624.036	22.58
624.228	22.51
624.42	22.51
624.613	22.68
624.805	22.68
624.997	22.58
625.189	22.56
625.381	22.54
625.574	22.38
625.766	22.27
625.958	22.19
626.15	22.13
626.342	22.06
626.534	22.03
626.726	22.08
626.918	22.03
627.11	21.99
627.302	22
627.494	22
627.686	21.89
627.878	21.87
628.07	21.96
628.262	21.94
628.454	21.88
628.646	21.88
628.838	21.89
629.029	21.84
629.221	21.8
629.413	21.73
629.605	21.62
629.797	21.55
629.989	21.42
630.18	21.31
630.372	21.3
630.564	21.29
630.755	21.32
630.947	21.35
631.139	21.28
631.33	21.15
631.522	21.26
631.714	21.18
631.905	21.11
632.097	21.07
632.289	21.09
632.48	20.86
632.672	20.79
632.863	20.66
633.055	20.68
633.246	20.69
633.438	20.65
633.629	20.63
633.821	20.68
634.012	20.68
634.203	20.56
634.395	20.62
634.586	20.6
634.777	20.52
634.969	20.55
635.16	20.6
635.351	20.56
635.543	20.57
635.734	20.59
635.925	20.58
636.117	20.53
636.308	20.63
636.499	20.52
636.69	20.38
636.881	20.27
637.073	20.38
637.264	20.26
637.455	20.35
637.646	20.54
637.837	20.52
638.028	20.37
638.219	20.43
638.41	20.36
638.601	20.28
638.792	20.24
638.983	20.2
639.174	20.13
639.365	20.11
639.556	20.05
639.747	20.12
639.938	20.24
640.129	20.21
640.32	20.15
640.511	20.2
640.701	20.12
640.892	20
641.083	20.02
641.274	20.07
641.465	19.95
641.655	19.84
641.846	19.8
642.037	19.74
642.228	19.6
642.418	19.68
642.609	19.83
642.8	19.87
642.99	19.77
643.181	19.83
643.372	19.71
643.562	19.61
643.753	19.52
643.943	19.57
644.134	19.49
644.324	19.5
644.515	19.48
644.705	19.54
644.896	19.48
645.086	19.45
645.277	19.37
645.467	19.41
645.658	19.32
645.848	19.31
646.038	19.22
646.229	19.2
646.419	18.99
646.61	18.98
646.8	18.97
646.99	19.01
647.18	18.98
647.371	19.11
647.561	19.02
647.751	19
647.941	18.92
648.132	18.91
648.322	18.82
648.512	18.89
648.702	18.84
648.892	18.89
649.082	18.89
649.272	18.76
649.462	18.59
649.653	18.52
649.843	18.48
650.033	18.51
650.223	18.54
650.413	18.52
650.603	18.51
650.793	18.45
650.983	18.35
651.172	18.32
651.362	18.28
651.552	18.18
651.742	18.07
651.932	18.05
652.122	18.07
652.312	18.14
652.502	18.17
652.691	18.18
652.881	18.13
653.071	18.02
653.261	17.8
653.45	17.64
653.64	17.6
653.83	17.36
654.019	17.26
654.209	17.18
654.399	17.13
654.588	16.99
654.778	16.93
654.968	16.71
655.157	16.68
655.347	16.55
655.536	16.34
655.726	16.15
655.915	16.05
656.105	15.84
656.294	15.6
656.484	15.44
656.673	15.35
656.863	15.29
657.052	15.07
657.241	14.93
657.431	14.75
657.62	14.56
657.809	14.2
657.999	14.11
658.188	13.9
658.377	13.66
658.567	13.47
658.756	13.35
658.945	13.12
659.134	12.95
659.324	12.81
659.513	12.77
659.702	12.61
659.891	12.39
660.08	12.24
660.269	12.11
660.458	11.82
660.648	11.68
660.837	11.52
661.026	11.4
661.215	11.28
661.404	11.07
661.593	10.89
661.782	10.62
661.971	10.43
662.16	10.3
662.349	10.21
662.538	10.03
662.726	10.02
662.915	9.91
663.104	9.72
663.293	9.6
663.482	9.64
663.671	9.45
663.86	9.3
664.048	9.25
664.237	9.12
664.426	8.87
664.615	8.83
664.803	8.8
664.992	8.56
665.181	8.51
665.369	8.4
665.558	8.36
665.747	8.27
665.935	8.4
666.124	8.44
666.312	8.45
666.501	8.39
666.69	8.3
666.878	8.06
667.067	7.97
667.255	7.99
667.444	8.13
667.632	8.15
667.82	8.31
668.009	8.19
668.197	8.08
668.386	7.84
668.574	7.88
668.762	7.82
668.951	7.8
669.139	7.77
669.327	7.79
669.516	7.83
669.704	7.77
669.892	7.9
670.08	8.01
670.269	7.89
670.457	7.77
670.645	7.63
670.833	7.68
671.021	7.66
671.21	7.81
671.398	8.11
671.586	8.1
671.774	8.03
671.962	8
672.15	8.12
672.338	7.96
672.526	8.12
672.714	8.06
672.902	8.2
673.09	8.26
673.278	8.42
673.466	8.51
673.654	8.75
673.842	8.77
674.03	8.84
674.218	8.68
674.405	8.83
674.593	8.78
674.781	8.98
674.969	8.97
675.157	9.27
675.344	9.37
675.532	9.54
675.72	9.67
675.908	9.75
676.095	9.74
676.283	9.71
676.471	9.95
676.658	9.92
676.846	10.14
677.033	10.32
677.221	10.42
677.409	10.16
677.596	10.2
677.784	10.15
677.971	10.2
678.159	10.29
678.346	10.55
678.534	10.61
678.721	10.88
678.909	10.97
679.096	11.05
679.283	11.24
679.471	11.56
679.658	11.54
679.846	11.73
680.033	12.02
680.22	12.06
680.408	12
680.595	12.17
680.782	12.09
680.969	12.24
681.157	12.42
681.344	12.59
681.531	12.64
681.718	12.87
681.905	13.03
682.093	13.28
682.28	13.55
682.467	13.94
682.654	14.02
682.841	14.09
683.028	14.26
683.215	14.44
683.402	14.48
683.589	14.85
683.776	15.1
683.963	15.27
684.15	15.48
684.337	15.78
684.524	15.93
684.711	16.26
684.898	16.38
685.085	16.81
685.271	17.08
685.458	17.48
685.645	17.6
685.832	17.99
686.019	18.16
686.205	18.43
686.392	18.71
686.579	19.15
686.766	19.61
686.952	19.89
687.139	20.41
687.326	20.79
687.512	21.21
687.699	21.58
687.886	22.13
688.072	22.41
688.259	22.93
688.445	23.48
688.632	23.94
688.818	24.54
689.005	25.15
689.191	25.66
689.378	26.31
689.564	26.99
689.751	27.46
689.937	27.95
690.124	28.52
690.31	29
690.496	29.53
690.683	30.28
690.869	31.01
691.055	31.59
691.242	32.3
691.428	33.09
691.614	33.83
691.8	34.69
691.987	35.5
692.173	36.16
692.359	36.77
692.545	37.44
692.731	37.94
692.918	38.74
693.104	39.48
693.29	40.09
693.476	40.72
693.662	41.65
693.848	42.21
694.034	43.04
694.22	43.79
694.406	44.7
694.592	45.46
694.778	46.41
694.964	47.02
695.15	47.94
695.336	48.43
695.522	49.19
695.708	49.6
695.894	50.41
696.08	51.02
696.265	51.94
696.451	52.62
696.637	53.64
696.823	54.18
697.009	54.86
697.194	55.54
697.38	55.94
697.566	56.51
697.751	57.38
697.937	58.15
698.123	58.8
698.308	59.65
698.494	60.41
698.68	60.85
698.865	61.44
699.051	62.18
699.236	62.74
699.422	63.24
699.607	63.78
699.793	64.27
699.978	64.5
700.164	64.93
700.349	65.58
700.535	66.27
700.72	66.55
700.906	67.36
701.091	67.87
701.276	68.3
701.462	68.97
701.647	70.19
701.832	70.57
702.018	70.86
702.203	71.28
702.388	71.5
702.573	71.42
702.759	71.86
702.944	72.52
703.129	73.03
703.314	73.28
703.499	73.72
703.684	74
703.87	74.83
704.055	75.28
704.24	76
704.425	76.66
704.61	77.36
704.795	77.47
704.98	77.67
705.165	77.85
705.35	78.11
705.535	78.39
705.72	78.62
705.905	79.11
706.09	79.53
706.275	79.66
706.459	79.35
706.644	79.58
706.829	79.87
707.014	80
707.199	80.38
707.384	81.18
707.568	81.6
707.753	82.08
707.938	82.17
708.123	82.09
708.307	82.15
708.492	82.35
708.677	82.08
708.861	82.13
709.046	82.33
709.231	83.05
709.415	83.41
709.6	83.78
709.784	84
709.969	84.28
710.153	83.71
710.338	83.75
710.522	84.06
710.707	84.85
710.891	85.08
711.076	85.44
711.26	85.38
711.445	85.67
711.629	85.57
711.813	85.89
711.998	86.48
712.182	86.54
712.366	86.72
712.551	86.94
712.735	87.33
712.919	86.82
713.103	87.14
713.288	87.11
713.472	87.39
713.656	87.61
713.84	87.96
714.024	88.44
714.208	88.16
714.393	88.55
714.577	88.49
714.761	89
714.945	89.01
715.129	89.46
715.313	89.6
715.497	89.68
715.681	90.11
715.865	89.99
716.049	90.22
716.233	89.69
716.417	89.8
716.601	89.53
716.785	89.76
716.968	89.73
717.152	89.93
717.336	90.08
717.52	90
717.704	90.2
717.888	90.44
718.071	90.97
718.255	91.07
718.439	90.69
718.622	90.58
718.806	90.61
718.99	90.17
719.174	90.08
719.357	90.66
719.541	90.71
719.724	90.75
719.908	91.85
720.092	92.17
720.275	92.35
720.459	92.39
720.642	92.5
720.826	91.38
721.009	91.13
721.193	90.96
721.376	91.31
721.559	91.28
721.743	91.88
721.926	92.27
722.11	92.29
722.293	91.82
722.476	91.66
722.66	91.46
722.843	91.27
723.026	91.26
723.21	92.01
723.393	92.67
723.576	92.98
723.759	92.63
723.942	93
724.126	92.48
724.309	92.72
724.492	92.64
724.675	92.95
724.858	93.3
725.041	93.96
725.224	93.86
725.407	94.3
725.59	94.88
725.774	94.47
725.957	93.95
726.14	93.51
726.322	93.21
726.505	93.2
726.688	93.83
726.871	94.07
727.054	94.57
727.237	94.65
727.42	94.99
727.603	94.74
727.786	95.12
727.968	95.67
728.151	95.64
728.334	94.94
728.517	95.39
728.699	96.01
728.882	95.42
729.065	95.6
729.248	95.96
729.43	95.61
729.613	95.54
729.796	96.41
729.978	96.08
730.161	95.98
730.343	96.17
730.526	96.46
730.708	95.98
730.891	96.82
731.073	97.35
731.256	97.5
731.438	97.19
731.621	97.73
731.803	97.71
731.986	97.41
732.168	96.79
732.35	97.45
732.533	97.31
732.715	96.84
732.898	97.35
733.08	97.46
733.262	97.46
733.444	96.93
733.627	97.76
733.809	98.11
733.991	99.21
734.173	97.93
734.355	97.99
734.538	98.56
734.72	98.03
734.902	98.27
735.084	99.31
735.266	99.59
735.448	99.55
735.63	99.92
735.812	99.81
735.994	100.24
736.176	100.42
736.358	99.7
736.54	100.66
736.722	99.87
736.904	99.36
737.086	100.08
737.268	101.68
737.45	101.65
737.632	102.56
737.814	102.37
737.995	102.31
738.177	101.28
738.359	99.86
738.541	99.7
738.723	100.27
738.904	100.41
739.086	100.22
739.268	101.38
739.449	101.39
739.631	101.01
739.813	101.42
739.994	101.79
740.176	102.17
740.358	102.15
740.539	103.39
740.721	102.71
740.902	102.95
741.084	102.49
741.265	102.41
741.447	102.04
741.628	102.12
741.81	100.97
741.991	101.33
742.172	103.21
742.354	103.51
742.535	103.42
742.717	104.67
742.898	104.67
743.079	103.96
743.261	103.63
743.442	102.67
743.623	103.09
743.804	104.26
743.986	104.23
744.167	103.16
744.348	103.89
744.529	103.12
744.71	101.1
744.891	100.61
745.073	100.48
745.254	99.9
745.435	99.82
745.616	99.89
745.797	99.89
745.978	100.2
746.159	101.01
746.34	101.04
746.521	103.12
746.702	102.05
746.883	102.91
747.064	102.64
747.245	102.54
747.426	100.81
747.606	101.21
747.787	100.89
747.968	100.79
748.149	101.09
748.33	101.91
748.51	102.49
748.691	102.52
748.872	103.48
749.053	103.23
749.233	102.79
749.414	102.27
749.595	101.02
749.775	99.76
749.956	99.61
750.137	99.31
750.317	99.45
750.498	99.82
750.678	100.77
750.859	101.92
751.04	102.17
751.22	101.29
751.4	101.93
751.581	101.15
751.761	99.65
751.942	99.24
752.122	98.34
752.303	97.68
752.483	97.15
752.663	97.26
752.844	96.6
753.024	98.1
753.204	98.65
753.385	98.93
753.565	99.5
753.745	100.11
753.925	100.16
754.106	100.31
754.286	99.68
754.466	98.33
754.646	99.64
754.826	99.29
755.006	98.09
755.187	98.24
755.367	99.27
755.547	96.93
755.727	98.74
755.907	99.51
756.087	100.63
756.267	100.3
756.447	101.27
756.627	99.33
756.807	100.07
756.987	100.72
757.167	101.15
757.346	100.84
757.526	99.96
757.706	100.18
757.886	100.34
758.066	101.29
758.246	103.09
758.425	103.46
758.605	102.03
758.785	101.34
758.965	99.84
759.144	97.76
759.324	98.98
759.504	99.53
759.683	98.69
759.863	97.78
760.043	96.69
760.222	96.56
760.402	96.11
760.581	95.69
760.761	97.32
760.94	97.11
761.12	98.6
761.299	100.21
761.479	99.63
761.658	97.99
761.838	99.35
762.017	97.52
762.197	95.95
762.376	97.08
762.555	98.57
762.735	98.82
762.914	97.78
763.093	98.11
763.273	96.83
763.452	96.32
763.631	95.65
763.81	96.25
763.99	94.67
764.169	95.67
764.348	94.29
764.527	94.25
764.706	94.42
764.885	96.96
765.064	96.57
765.243	97.3
765.423	98.65
765.602	97.16
765.781	96.18
765.96	94.8
766.139	94.37
766.318	93.12
766.497	93.12
766.676	92.99
766.854	96.19
767.033	97.58
767.212	96.93
767.391	98.93
767.57	99.68
767.749	98.9
767.928	99.23
768.106	98.19
768.285	95.66
768.464	94.32
768.643	92.22
768.821	91.7
769	95.35
769.179	96.13
769.357	95.41
769.536	96.3
769.715	96.57
769.893	95.41
770.072	94.96
770.25	97
770.429	98.42
770.607	95.25
770.786	94.28
770.964	95.99
771.143	92.83
771.321	92.36
771.5	93.81
771.678	93.39
771.857	92.27
772.035	94.1
772.213	92.41
772.392	91.61
772.57	93.89
772.748	94.51
772.927	92.22
773.105	92.2
773.283	93.28
773.461	90.71
773.64	90.49
773.818	91.7
773.996	91.83
774.174	90.65
774.352	89.83
774.531	88
774.709	89.92
774.887	90.3
775.065	90.43
775.243	90.75
775.421	91.89
775.599	92.09
775.777	90.02
775.955	89.88
776.133	89.06
776.311	88.54
776.489	85.76
776.667	88.52
776.844	89.57
777.022	90.21
777.2	90.25
777.378	90.82
777.556	89.74
777.734	91.36
777.911	93.36
778.089	92.27
778.267	91.89
778.445	92.11
778.622	90.17
778.8	87.44
778.978	88.48
779.155	88.95
779.333	89.55
779.511	90.96
779.688	92.99
779.866	90.2
780.043	86.71
780.221	86.22
780.398	82.53
780.576	82.47
780.753	87.54
780.931	89.8
781.108	90.58
781.286	93.54
781.463	91.6
781.64	86.46
781.818	86.56
781.995	85.22
782.172	85.29
782.35	88.05
782.527	91.68
782.704	92.97
782.882	93.97
783.059	91.73
783.236	90.83
783.413	92.63
783.59	91.27
783.768	86.46
783.945	89.82
784.122	87.36
784.299	87.23
784.476	88.25
784.653	87.84
784.83	82.63
785.007	80.9
785.184	79.55
785.361	78.96
785.538	85.93
785.715	88.95
785.892	91.72
786.069	91.71
786.246	91.6
786.423	89.99
786.6	89.18
786.776	90.05
786.953	88.19
787.13	91.14
787.307	90.6
787.484	90.53
787.66	87.41
787.837	88.39
788.014	81.63
788.191	77.88
788.367	76.04
788.544	80.14
788.721	79.24
788.897	82.77
789.074	84.7
789.25	83.63
789.427	83.56
789.603	85.51
789.78	86.5
789.956	84.95
790.133	85.66
790.309	85.56
790.486	87.27
790.662	84.02
790.839	84.55
791.015	84.2
791.192	81.82
791.368	81.02
791.544	80.21
791.721	81.66
791.897	84.15
792.073	82.95
792.249	76.01
792.426	82.46
792.602	85.9
792.778	87.24
792.954	87.56
793.13	90.97
793.307	81.11
793.483	72.67
793.659	69.5
793.835	71.68
794.011	70.48
794.187	79.62
794.363	80.94
794.539	85.04
794.715	81.5
794.891	81.35
795.067	78.41
795.243	82.2
795.419	76.49
795.595	75.56
795.771	73.59
795.947	73.52
796.122	71.88
796.298	80.01
796.474	82.46
796.65	84.35
796.826	82.97
797.001	81.21
797.177	70.19
797.353	72.7
797.529	76.89
797.704	76.73
797.88	75.58
798.056	77.35
798.231	75.71
798.407	74.99
798.582	78
798.758	82.27
798.934	87.23
799.109	85
799.285	82.89
799.46	83.18
799.636	83.23
799.811	83.19
799.986	82.37
800.162	80.95
800.337	80.02
800.513	71.91
800.688	71.26
800.863	81.73
801.039	80.37
801.214	75.52
801.389	80.97
801.565	76.76
801.74	62.38
801.915	72.59
802.09	75.32
802.265	79.6
802.441	79.04
802.616	84.22
802.791	79.17
802.966	82.03
803.141	78.55
803.316	77.51
803.491	77.9
803.666	81.89
803.841	72.35
804.016	70.17
804.191	74.37
804.366	73.48
804.541	63.24
804.716	66.25
804.891	66.16
805.066	63.99
805.241	63.02
805.416	63.7
805.591	68.22
805.765	74.62
805.94	78.88
806.115	78.81
806.29	72.84
806.464	70.23
806.639	64.91
806.814	59.13
806.989	53.52
807.163	71.02
807.338	72.07
807.512	69.7
807.687	65.07
807.862	79.55
808.036	74.2
808.211	81.43
808.385	89.07
808.56	100.11
808.734	114.36
808.909	108.74
809.083	96.77
809.258	85.95
809.432	87.92
809.606	58.01
809.781	66.88
809.955	73.66
810.13	83.46
810.304	75.3
810.478	79.79
810.652	76.41
810.827	75.14
811.001	69.03
811.175	69.17
811.349	71.09
811.524	70.59
811.698	57.12
811.872	58.54
812.046	62.22
812.22	57.13
812.394	51.62
812.568	64.43
812.742	64.15
812.916	58.95
813.09	64.71
813.264	67.04
813.438	71.27
813.612	62.68
813.786	63.62
813.96	70.1
814.134	70.97
814.308	76.07
814.482	83.12
814.656	81.08
814.83	80.75
815.003	82.45
815.177	66.4
815.351	61.21
815.525	61.95
815.698	49.51
815.872	50.62
816.046	50.84
816.219	59.74
816.393	70.81
816.567	79.64
816.74	75.89
816.914	82.58
817.088	85.49
817.261	75.01
817.435	69.57
817.608	76.56
817.782	62.42
817.955	61.3
818.129	55.41
818.302	54.89
818.475	61.05
818.649	71.36
818.822	56.1
818.996	67.12
819.169	73.67
819.342	55.98
819.516	59.07
819.689	67.73
819.862	64.42
820.035	54.46
820.209	57.54
820.382	52.43
820.555	57.41
820.728	49.92
820.901	46.94
821.075	42.76
821.248	50.69
821.421	34.57
821.594	37.16
821.767	66.27
821.94	74.16
822.113	50.5
822.286	61.89
822.459	71.75
822.632	64.43
822.805	56.82
822.978	73.4
823.151	70.28
823.324	60.78
823.496	34.93
823.669	45.27
823.842	41.92
824.015	32.18
824.188	36.26
824.361	35.56
824.533	27.99
824.706	29.35
824.879	35.56
825.051	35.15
825.224	46.49
825.397	44.46
825.569	51.27
825.742	63.93
825.915	66.19
826.087	76.66
826.26	55.53
826.432	52.88
826.605	48.84
826.777	58.55
826.95	56.38
827.122	65.18
827.295	52.8
827.467	54.17
827.64	16.99
827.812	12.8
827.984	13.17
828.157	17.73
828.329	-17.76
828.501	4.1
828.674	16.22
828.846	21.82
829.018	47.53
829.19	35.81
829.363	59.11
829.535	61.26
829.707	57.17
829.879	21.56
830.051	39.22
830.223	28.17
830.395	14.07
830.568	10.56
830.74	2.47
830.912	14.63
831.084	-9.12
831.256	0.69
831.428	-6.59
831.6	6.17
831.772	-25.37
831.943	-26.93
832.115	-19.33
832.287	9.72
832.459	19.59
832.631	42.8
832.803	60.49
832.975	78.8
833.146	50.15
833.318	31.97
833.49	32.19
833.662	25.71
833.833	-2.56
834.005	6.62
834.177	17.35
834.348	6.22
834.52	1.13
834.692	25.3
834.863	13.65
835.035	12.18
835.206	-24.75
835.378	5.31
835.549	10.83
835.721	27.68
835.892	33.38
836.064	32.51
836.235	14.15
836.407	37.45
836.578	20.49
836.749	37.86
836.921	45.44
837.092	18.78
837.264	-23.54
837.435	-24.18
837.606	-12.98
837.777	16.18
837.949	36.1
838.12	35.9
838.291	44.53
838.462	47.41
838.633	23.12
838.805	9.42
838.976	20.23
839.147	-22.96
839.318	-45.16
839.489	-76.09
839.66	-72.78
839.831	-30.06
840.002	0.54
840.173	-7.75
840.344	52.02
840.515	110.43
840.686	56.6
840.857	7.58
841.028	37.22
841.199	8.81
841.369	-45.07
841.54	-27.86
841.711	1.84
841.882	22.66
842.053	17.18
842.223	21.73
842.394	22.71
842.565	13.46
842.736	14.62
842.906	11.57
843.077	28.5
843.248	46.54
843.418	47.57
843.589	25.25
843.759	108.99
843.93	78.19
844.101	53.47
844.271	61.23
844.442	58.29
844.612	46.27
844.783	26.5
844.953	-19.17
845.123	-48.11
845.294	-47.94
845.464	-167.39
845.635	-25.34
845.805	33.26
845.975	39.04
846.146	12.31
846.316	-6.64
846.486	6.61
846.656	24.91
846.827	9.39
846.997	11.07
847.167	45.36
847.337	43.46
847.507	34.58
847.677	45.47
847.848	79.11
848.018	53.14
848.188	40.09
848.358	15.42
848.528	9.18
848.698	-39.17
848.868	-101.76
849.038	-145.54
849.208	-25.18
849.378	21.98
849.548	23.73
849.718	19.69
849.887	24.17
850.057	24.81
850.227	3.48
850.397	-26.3
850.567	-70.68
850.737	-147.28
850.906	-828.44
851.076	-602.15
851.246	-191.49
851.415	35.78
851.585	15.08
851.755	14.94
851.924	14.32
852.094	-22.84
852.264	-97.51
852.433	-899.76
852.603	-194.49
852.772	-193.43
852.942	-63.12
853.111	-74.5
853.281	-2.78
853.45	39.35
853.62	-13.34
853.789	-26.09
853.959	-24.57
854.128	-53.13
854.297	-83.15
854.467	-93.86
854.636	-83.62
854.805	-8.99
854.975	-29.96
855.144	-1.58
855.313	308.57
855.482	76.82
855.652	18.05
855.821	39.32
855.99	40.23
856.159	28.02
856.328	36.41
856.497	24.2
856.667	21.32
856.836	32.07
857.005	19.17
857.174	1.06
857.343	-31.59
857.512	-0.47
857.681	-57.85
857.85	-74.16
858.019	-28.23
858.188	-17.32
858.356	-32.66
858.525	-61.88
858.694	-48.93
858.863	-140.87
859.032	-95.46
859.201	-54.21
859.369	101.08
859.538	73.46
859.707	67.42
859.876	65.55
860.044	-8.86
860.213	-12.86
860.382	-17.19
860.55	-2.73
860.719	26.64
860.888	41.89
861.056	27.15
861.225	5.52
861.393	43.07
861.562	47.24
861.73	-34.52
861.899	-172.64
862.067	-1075
862.236	-138.57
862.404	-252.38
862.572	-101.35
862.741	-2.13
862.909	-4.13
863.078	-64.68
863.246	-48.06
863.414	-24.77
863.582	-23.71
863.751	-24.67
863.919	-20.78
864.087	-1.94
864.255	-18.8
864.424	-264.04
864.592	-25.45
864.76	-41.21
864.928	45.8
865.096	-131.77
865.264	-93.73
865.432	-1676.7
865.6	-172.38
865.768	-142.92
865.936	-97.69
866.104	-75.45
866.272	-166.8
866.44	-349.51
866.608	668.34
866.776	305.65
866.944	3131.98
867.112	-476.59
867.28	-181
867.448	-70.54
867.615	-23.03
867.783	2.88
867.951	-12.93
868.119	-19.85
868.286	8.85
868.454	-92.76
868.622	-108.05
868.789	-24.72
868.957	-1883.93
869.125	-2383.55
869.292	-142.94
869.46	-233.36
869.627	-67.59
869.795	-20.5
869.963	14.12
870.13	31.6
870.298	41.35
870.465	-21.16
870.632	-20.78
870.8	4.03
870.967	-30.56
871.135	-62.37
871.302	-29.39
871.469	-34.46
871.637	-23.4
871.804	-27.53
871.971	-28.41
872.139	-189.65
872.306	27.18
872.473	-26.67
872.64	-223.93
872.807	-48.62
872.975	42.57
873.142	-165.73
873.309	1223.65
873.476	35.87
873.643	35.03
873.81	-7.11
873.977	47.47
874.144	30.5
874.311	-30.29
874.478	-94.03
874.645	-136.98
874.812	-133.53
874.979	-69.03
875.146	-111.97
875.313	-115.22
875.48	-6.11
875.647	-18.75
875.813	-53.41
875.98	-14.34
876.147	-30.38
876.314	-106.82
876.481	778.31
876.647	-842.42
876.814	349.61
876.981	13.94
877.147	6.24
877.314	15.94
877.481	46.36
877.647	53.38
877.814	36.46
877.98	18.46
878.147	56.18
878.314	55.96
878.48	0.04
878.647	10.66
878.813	68.02
878.979	46.2
879.146	7.82
879.312	12.42
879.479	-17.9
879.645	-148.67
879.811	-241.25
879.978	-409.73
880.144	-65.66
880.31	-44.89
880.477	-139.44
880.643	-146.74
880.809	-46.25
880.975	-32.38
881.142	-387.05
881.308	-50.34
881.474	-13.51
881.64	-40.15
881.806	-107.13
881.972	-21.13
882.138	-29.42
882.304	-37.1
882.47	-121.68
882.636	-565.37
882.802	-199.6
882.968	-15.8
883.134	-24.85
883.3	1.38
883.466	52.42
883.632	85.48
883.798	39.18
883.964	45.59
884.129	58.38
884.295	52.79
884.461	3.04
884.627	13.39
884.793	-6.17
884.958	-18.17
885.124	-106.53
885.29	-186.83
885.455	-324.64
885.621	-65.13
885.787	-152.63
885.952	-57.81
886.118	-72.12
886.283	-63.74
886.449	-186.57
886.614	-137.1
886.78	-301.06
886.945	1543.85
887.111	-662.28
887.276	-465.2
887.442	-777.05
887.607	-288.56
887.773	-127.95
887.938	-132.31
888.103	-125.31
888.269	-75.83
888.434	-238.24
888.599	-88.8
888.764	5.91
888.93	-26.44
889.095	-64.94
889.26	-73.07
889.425	-47.06
889.59	-26.23
889.756	-9.6
889.921	-9.54
890.086	21.64
890.251	3.46
890.416	-162.64
890.581	-1577.02
890.746	129.55
890.911	253.98
891.076	111.61
891.241	11.38
891.406	96.89
891.571	32.05
891.736	-140.25
891.901	-214.82
892.065	477.75
892.23	136.91
892.395	210.71
892.56	252.24
892.725	-370.12
892.889	-1228.66
893.054	-199.61
893.219	-47.13
893.384	-6.48
893.548	-34.29
893.713	-39.08
893.878	16
