Data from Ofra_PS_T2_2A_2CX08_Reflection_3.txt Node
Date: Wed Jul 21 16:59:40 EDT 2021
User: Adam
Spectrometer: FLMT01687
Trigger mode: 0
Integration Time (sec): 1.100000E0
Scans to average: 2
Electric dark correction enabled: true
Nonlinearity correction enabled: false
Boxcar width: 2
XAxis mode: Wavelengths
Number of Pixels in Spectrum: 3648
>>>>>Begin Spectral Data<<<<<
179.494	460.6
179.716	512.94
179.937	490.88
180.158	508.19
180.38	818.59
180.601	421.96
180.823	144.69
181.044	36.37
181.265	63.05
181.486	22.99
181.708	21.88
181.929	-106.63
182.15	-82.75
182.372	127.11
182.593	39.11
182.814	30.16
183.035	34.65
183.257	21.08
183.478	-98.03
183.699	-65.18
183.92	-64.7
184.141	-63.49
184.363	-79.84
184.584	2.85
184.805	34.93
185.026	60.72
185.247	57.25
185.468	34.01
185.689	31.94
185.91	20.96
186.132	13.07
186.353	19.3
186.574	74.72
186.795	58.3
187.016	21.59
187.237	5.16
187.458	-19.78
187.679	-42.81
187.9	-31.85
188.121	-41.03
188.342	-65.1
188.563	-0.16
188.784	32.31
189.005	8.72
189.226	87.59
189.447	91.73
189.667	-127.55
189.888	-340.76
190.109	-1225.65
190.33	-678.55
190.551	-1180.31
190.772	-191.46
190.993	-193.74
191.214	-114.36
191.434	-101.33
191.655	-23.77
191.876	-48.8
192.097	-76.35
192.318	-152.82
192.538	-226.61
192.759	-137.04
192.98	-78.78
193.201	-44.4
193.421	0.1
193.642	17.66
193.863	16.69
194.083	2.03
194.304	-6.14
194.525	-23.92
194.745	-33.67
194.966	-57.29
195.187	-58.02
195.407	-83.65
195.628	-132.75
195.848	-134.71
196.069	-150.25
196.29	-95.14
196.51	-64.93
196.731	-60.6
196.951	-72.56
197.172	-52.29
197.392	-60.14
197.613	-73.14
197.833	-79.8
198.054	-78.29
198.274	-42.04
198.495	-67.27
198.715	-29.9
198.936	-40.42
199.156	-24.98
199.377	-96.18
199.597	-84.36
199.817	-88.92
200.038	-26.4
200.258	-66.59
200.479	2.58
200.699	21.42
200.919	19.1
201.14	-31.73
201.36	-34.72
201.58	-5.9
201.801	20.52
202.021	-1.25
202.241	2.09
202.461	-1.85
202.682	-88.61
202.902	-162.6
203.122	-105.62
203.342	-73.52
203.563	-9.39
203.783	13.65
204.003	-5.02
204.223	-4.98
204.443	11.91
204.663	-57.58
204.884	-43.69
205.104	-23
205.324	-24.18
205.544	-19.51
205.764	11.63
205.984	19.3
206.204	25.4
206.424	15.28
206.644	-10.06
206.864	-5.96
207.084	-36.76
207.304	-34.85
207.525	-125.23
207.745	-99.39
207.964	-46.57
208.184	-79.7
208.404	-105.23
208.624	-104.48
208.844	-93.28
209.064	-369.53
209.284	-361.85
209.504	-190.57
209.724	-60.64
209.944	-31.58
210.164	13.98
210.384	15.25
210.604	14.97
210.823	-22.63
211.043	-39.67
211.263	-45.61
211.483	-39.4
211.703	-85.61
211.922	-46.63
212.142	4.52
212.362	10.98
212.582	-17.88
212.801	-12.65
213.021	-30.06
213.241	-51.94
213.461	-62.39
213.68	-57.49
213.9	-24.23
214.12	-25.36
214.339	-92.16
214.559	-70.03
214.779	-19.7
214.998	-35.58
215.218	-53.04
215.438	10.14
215.657	3.72
215.877	5.43
216.096	36.02
216.316	50.67
216.535	17.91
216.755	16.93
216.974	-34.65
217.194	-101.4
217.413	-132.83
217.633	-106.07
217.852	-201.3
218.072	-81.21
218.291	-35.61
218.511	0.92
218.73	-16.27
218.95	-10.91
219.169	-17.49
219.389	-51.48
219.608	-34.04
219.827	-46.87
220.047	-53.44
220.266	-43.05
220.485	-29.33
220.705	-32.54
220.924	-21.6
221.143	20.68
221.363	-7.61
221.582	-5.37
221.801	-6.39
222.021	24.32
222.24	-22.03
222.459	48.75
222.678	32.09
222.897	-14.04
223.117	-91.27
223.336	-66.73
223.555	-70.54
223.774	-30.85
223.993	-12.15
224.213	36.45
224.432	15.6
224.651	44.73
224.87	10.54
225.089	22.08
225.308	7.96
225.527	13.29
225.746	-2.69
225.965	-7.87
226.184	-28.84
226.404	4.98
226.623	-10.63
226.842	0.58
227.061	22.43
227.28	22.17
227.499	-9.12
227.718	-0.23
227.936	-15.8
228.155	-1.53
228.374	-5.15
228.593	11.75
228.812	28.65
229.031	27.87
229.25	-22.72
229.469	-45.21
229.688	-33.24
229.907	-11.79
230.125	-16.51
230.344	1.93
230.563	19.86
230.782	25
231.001	-45.88
231.22	-31.4
231.438	-24.59
231.657	-10.83
231.876	-31.89
232.095	13.76
232.313	15.4
232.532	10.49
232.751	-36.75
232.969	-46.95
233.188	-99.46
233.407	-27.76
233.625	-15.75
233.844	-0.95
234.063	8.92
234.281	14.27
234.5	5.13
234.719	8.02
234.937	21.33
235.156	24.53
235.374	28.08
235.593	2.75
235.811	-6.65
236.03	-21.97
236.249	-54.76
236.467	-65.16
236.686	-8.34
236.904	0.2
237.123	-19.25
237.341	-9.61
237.559	6.87
237.778	-4.22
237.996	-24.48
238.215	16.12
238.433	20.7
238.652	4.27
238.87	-14.74
239.088	-12.07
239.307	-21.54
239.525	-30.87
239.743	-42.02
239.962	-30.15
240.18	-29.12
240.398	-59.94
240.617	-44.78
240.835	-26.14
241.053	-14.18
241.271	7.96
241.49	21.63
241.708	-29.09
241.926	-46.82
242.144	-55.65
242.363	-103.42
242.581	-134.84
242.799	-51.83
243.017	-32
243.235	-28.34
243.453	7.31
243.672	5.52
243.89	-4.66
244.108	-11.4
244.326	-9.78
244.544	-17.95
244.762	-20.3
244.98	-24.07
245.198	-5.73
245.416	-21.05
245.634	-17.22
245.852	-32.06
246.07	-54.99
246.288	-57.42
246.506	-53.36
246.724	-41.63
246.942	-31.75
247.16	-4.33
247.378	-2.13
247.596	20.1
247.814	12.44
248.032	-4.83
248.25	2.57
248.468	6.26
248.685	14.71
248.903	25.49
249.121	28.03
249.339	0.07
249.557	-11.08
249.775	-11.79
249.992	-63.24
250.21	-54.16
250.428	-42.3
250.646	-64.23
250.863	-79.04
251.081	-45.53
251.299	-69.4
251.517	-55.27
251.734	-28.76
251.952	-27.22
252.17	-12.94
252.387	11.08
252.605	-0.9
252.823	6.91
253.04	1.86
253.258	-1.42
253.475	-24.15
253.693	10.62
253.911	10.74
254.128	27.48
254.346	29.38
254.563	16.42
254.781	-11.17
254.998	-39.54
255.216	-52.03
255.433	-43.3
255.651	4.03
255.868	0.69
256.086	17.62
256.303	20.8
256.521	10.08
256.738	-25.7
256.956	-52.03
257.173	-62.54
257.39	-85.32
257.608	-95.58
257.825	-37.43
258.043	5.14
258.26	4.42
258.477	42.02
258.695	33.24
258.912	-1.52
259.129	4.38
259.346	-21.36
259.564	-57.51
259.781	-78.92
259.998	-27.08
260.216	-15.05
260.433	15.06
260.65	4.67
260.867	23.24
261.084	-3.95
261.302	-27.67
261.519	-42.78
261.736	-53.93
261.953	-84.19
262.17	-59.26
262.387	-77.56
262.604	-92.22
262.822	-88.48
263.039	-62.83
263.256	-97.14
263.473	-53.56
263.69	-35.2
263.907	-7.96
264.124	11.98
264.341	12.18
264.558	6.31
264.775	10.22
264.992	16.97
265.209	0.75
265.426	24.7
265.643	21.96
265.86	38.58
266.077	33.37
266.294	39.6
266.51	-2.24
266.727	-20.69
266.944	-21.11
267.161	-43.95
267.378	-70.56
267.595	-25.79
267.812	-38.25
268.028	-61.73
268.245	-8.43
268.462	-12.24
268.679	-29.85
268.896	4.91
269.112	7.48
269.329	-5.19
269.546	4.4
269.763	5.36
269.979	3.85
270.196	6.38
270.413	-15.09
270.629	-21.87
270.846	-25.34
271.063	-25.14
271.279	-43.86
271.496	-34.12
271.712	-11.15
271.929	9.18
272.146	-12.13
272.362	-5.61
272.579	8.59
272.795	3.93
273.012	-1.86
273.228	4.4
273.445	-18.74
273.661	-47.6
273.878	-52.14
274.094	-52.64
274.311	-71.74
274.527	2.2
274.744	20.81
274.96	12.81
275.177	27.81
275.393	39.13
275.609	10.89
275.826	24.36
276.042	31.25
276.259	17.54
276.475	26.12
276.691	35.28
276.908	3.04
277.124	6.92
277.34	-6.77
277.557	-15.17
277.773	-26.65
277.989	-13.43
278.205	-14.41
278.422	8.13
278.638	11.84
278.854	28.17
279.07	21.15
279.286	41.69
279.503	19.84
279.719	4.64
279.935	-15.88
280.151	-12.38
280.367	-24.41
280.583	-41.84
280.799	-22.57
281.016	-17.05
281.232	8.14
281.448	-5.07
281.664	19.5
281.88	10.09
282.096	21.37
282.312	33.08
282.528	31.9
282.744	29.26
282.96	5.7
283.176	-6.97
283.392	-21.05
283.608	-7.94
283.824	-15.58
284.04	2.28
284.256	6.66
284.471	3.22
284.687	-12.84
284.903	12.4
285.119	38.12
285.335	32.25
285.551	30.39
285.767	41.35
285.982	7.78
286.198	-39.59
286.414	-14.88
286.63	-4.09
286.846	11.53
287.061	-0.82
287.277	28.38
287.493	10.45
287.709	44.84
287.924	23.79
288.14	68.52
288.356	64.13
288.571	68.21
288.787	25
289.003	27.38
289.218	10.57
289.434	-28.48
289.65	-10.42
289.865	15.98
290.081	28.49
290.296	8.68
290.512	17.74
290.727	-24.5
290.943	-38.29
291.159	-31.98
291.374	-30.22
291.59	-44.09
291.805	-24.86
292.021	-8.3
292.236	-11.96
292.451	19.52
292.667	34.07
292.882	50.25
293.098	45.51
293.313	27.26
293.529	-12.27
293.744	-26.21
293.959	-38.81
294.175	-34.35
294.39	0.44
294.605	6.22
294.821	20.17
295.036	16.84
295.251	20.89
295.467	7.61
295.682	-6.05
295.897	-41.51
296.112	-42.89
296.328	-41.52
296.543	-58.76
296.758	-40.68
296.973	-0.31
297.188	31.64
297.404	8.41
297.619	-3.45
297.834	-15.1
298.049	-28.74
298.264	-61.9
298.479	-8.51
298.694	5.87
298.909	19.2
299.125	16.77
299.34	21.14
299.555	-4.66
299.77	10.34
299.985	-16.51
300.2	-52.72
300.415	-64.47
300.63	-19.22
300.845	-34.21
301.06	-30.68
301.275	6.72
301.49	25.29
301.704	-7.23
301.919	-27.22
302.134	-32.93
302.349	-50.84
302.564	-117.72
302.779	-139.58
302.994	-147.45
303.209	-88.52
303.423	-45.08
303.638	18.73
303.853	-16.89
304.068	-8.45
304.283	-13.99
304.497	-17.71
304.712	-32.32
304.927	-11.74
305.142	-19.9
305.356	-10.16
305.571	-23.41
305.786	-39.16
306	-46.46
306.215	-29.64
306.43	-68.81
306.644	-34.53
306.859	1.97
307.074	9.74
307.288	-28.12
307.503	-15.98
307.717	-28.4
307.932	-38.42
308.147	-43.91
308.361	-13.29
308.576	-17.6
308.79	-56.2
309.005	-43.63
309.219	-37.17
309.434	-39.54
309.648	-17.4
309.863	14.54
310.077	16.63
310.292	28.02
310.506	17.7
310.72	9.89
310.935	8.74
311.149	8.07
311.364	15.22
311.578	27.49
311.792	26.7
312.007	20.39
312.221	12.33
312.435	8.09
312.649	-13.81
312.864	-36.76
313.078	-30.4
313.292	-24.36
313.507	-69.39
313.721	-64.15
313.935	1.38
314.149	-15.06
314.363	1.79
314.578	-3.7
314.792	4.64
315.006	-21.39
315.22	8.94
315.434	10.86
315.648	37.96
315.862	36.89
316.077	48.44
316.291	22.55
316.505	12.7
316.719	0.46
316.933	-19.85
317.147	-27.36
317.361	-56.75
317.575	-65.14
317.789	-98.01
318.003	-114.49
318.217	-78.09
318.431	-5.95
318.645	5.7
318.859	3.16
319.073	4.37
319.287	-1.12
319.5	-22.36
319.714	-52.23
319.928	-69.66
320.142	-71.52
320.356	-15.9
320.57	14.15
320.784	14.12
320.997	10.7
321.211	-14.78
321.425	-68.06
321.639	-107.33
321.853	-35.43
322.066	-21.44
322.28	-14.2
322.494	-10.42
322.707	16.34
322.921	7.23
323.135	-2.61
323.349	-1.91
323.562	-8.03
323.776	-24.58
323.989	-36.92
324.203	-43.91
324.417	-44.16
324.63	-66.56
324.844	-62.76
325.057	-53.09
325.271	-23
325.485	6.94
325.698	29.04
325.912	39.68
326.125	17.59
326.339	9.9
326.552	-11.83
326.766	-11.64
326.979	5.69
327.193	35.8
327.406	21.19
327.619	13.02
327.833	21.84
328.046	-6.27
328.26	-48.55
328.473	-31.69
328.686	-60.08
328.9	-65.67
329.113	-53.95
329.326	-68.94
329.54	-49.6
329.753	-42.51
329.966	-70.96
330.179	-34.97
330.393	-7.92
330.606	0.07
330.819	16.35
331.032	34.93
331.246	30.96
331.459	46.97
331.672	34.64
331.885	13.96
332.098	-6.17
332.311	-27.89
332.525	-72.27
332.738	-39.19
332.951	3.36
333.164	23.6
333.377	37.39
333.59	46.45
333.803	43.43
334.016	40.92
334.229	35
334.442	30.78
334.655	41.57
334.868	40.98
335.081	22.34
335.294	14.24
335.507	4.58
335.72	2.58
335.933	-19.05
336.146	-19.9
336.359	-24.73
336.572	-25.54
336.785	-40.32
336.997	-23.06
337.21	-5.31
337.423	-6.2
337.636	-24.37
337.849	-11.79
338.062	-18.8
338.274	-22.36
338.487	-38.41
338.7	-32.94
338.913	-55.65
339.125	-81.22
339.338	-137.69
339.551	-103.37
339.763	-66.15
339.976	-51.76
340.189	-16.1
340.402	-2.96
340.614	3.7
340.827	-8.72
341.039	-12.92
341.252	-19.22
341.465	-6.99
341.677	-13.38
341.89	-40.61
342.102	-22.16
342.315	-37.52
342.527	-62.45
342.74	-47.5
342.952	-18.12
343.165	-26.13
343.377	2.08
343.59	4.59
343.802	19.96
344.015	26.19
344.227	46.64
344.44	31.48
344.652	34.57
344.864	16.3
345.077	30.49
345.289	22.67
345.502	23.13
345.714	17.85
345.926	22.66
346.139	0.19
346.351	8.64
346.563	13.92
346.775	15.19
346.988	-3.54
347.2	-2.15
347.412	-43.98
347.624	-65.81
347.837	-81.27
348.049	-52.91
348.261	-7.09
348.473	6.23
348.685	13.96
348.897	11.42
349.11	1.1
349.322	-39.1
349.534	-16.66
349.746	-11.3
349.958	-6.8
350.17	-3.56
350.382	25.69
350.594	19.32
350.806	27.33
351.018	23.16
351.23	27.12
351.442	-22.25
351.654	-35.67
351.866	-42.61
352.078	-33.5
352.29	-28.54
352.502	-2.7
352.714	9.02
352.926	0.87
353.138	2.91
353.35	0.05
353.561	0.45
353.773	-19.29
353.985	-3.85
354.197	-4.44
354.409	-7.08
354.621	-8.88
354.832	3.25
355.044	-4.31
355.256	-9.19
355.468	-6.09
355.679	-14.87
355.891	-15
356.103	-31.45
356.314	-25.82
356.526	-16.24
356.738	-10.76
356.949	-13.1
357.161	13.23
357.373	9.73
357.584	-4.32
357.796	8.9
358.008	11.88
358.219	17.63
358.431	16.24
358.642	12.65
358.854	5.27
359.065	-15.45
359.277	-43.22
359.488	-38.14
359.7	-42.5
359.911	-47.41
360.123	-19.7
360.334	-31.98
360.546	-55.01
360.757	-49.76
360.969	-33.67
361.18	-42.62
361.391	-27.1
361.603	-26.69
361.814	-22.51
362.025	-26.87
362.237	-30.27
362.448	-13.78
362.659	4.66
362.871	2.66
363.082	-8.06
363.293	-9.55
363.504	-27.78
363.716	-44.01
363.927	-52.97
364.138	-53.31
364.349	-53.26
364.56	-41.7
364.772	-37.74
364.983	-6.37
365.194	-10.68
365.405	7.34
365.616	23.82
365.827	36.94
366.038	7.42
366.25	15.69
366.461	-2.98
366.672	-3.51
366.883	1.26
367.094	6.66
367.305	-3.58
367.516	-6.44
367.727	-27.18
367.938	-37.09
368.149	-35.6
368.36	-25.37
368.571	-18.4
368.781	-26.23
368.992	-39.44
369.203	-59.09
369.414	-66.69
369.625	-66.45
369.836	-57.58
370.047	-75.86
370.258	-49.96
370.468	-53.24
370.679	-66.98
370.89	-52.69
371.101	-28.61
371.312	-38.86
371.522	-31.52
371.733	-26.39
371.944	-22.18
372.155	-12.35
372.365	-15.86
372.576	-20.19
372.787	-14.93
372.997	-34.73
373.208	-35.32
373.419	-12.62
373.629	-38.14
373.84	-48.68
374.05	-49.96
374.261	-62.46
374.472	-76.05
374.682	-17.42
374.893	-13.57
375.103	11.24
375.314	21.27
375.524	21.94
375.735	19.56
375.945	32.45
376.156	14.58
376.366	17.01
376.577	15.35
376.787	3.88
376.997	3.2
377.208	2.01
377.418	-17.44
377.629	-7.87
377.839	-11.95
378.049	-6.95
378.26	11.04
378.47	24.43
378.68	16.94
378.89	17.22
379.101	2.37
379.311	-27.08
379.521	-61.43
379.732	-58.01
379.942	-50.46
380.152	-52.44
380.362	-20.16
380.572	-14.85
380.783	-7.83
380.993	3.37
381.203	4.86
381.413	7.82
381.623	16.47
381.833	15.85
382.043	8.08
382.253	4.32
382.463	5.86
382.674	-4.98
382.884	-17.18
383.094	-12.89
383.304	-2.34
383.514	-2.9
383.724	15.46
383.934	9.14
384.144	-3.03
384.353	-9.7
384.563	-16.35
384.773	-15.4
384.983	-17.29
385.193	0.2
385.403	1.65
385.613	0.56
385.823	-7.9
386.033	3.15
386.242	-7.08
386.452	-7.29
386.662	-7.83
386.872	3.31
387.082	-6.69
387.291	-12.45
387.501	-13.98
387.711	-12.03
387.921	-20.55
388.13	-14.63
388.34	-0.44
388.55	-10.34
388.759	-10.23
388.969	-5.95
389.179	-5.32
389.388	-12.22
389.598	-0.7
389.807	-6.19
390.017	-8.88
390.227	-8.86
390.436	-6.8
390.646	-7.69
390.855	-3.21
391.065	-3.95
391.274	-5.45
391.484	-7.66
391.693	-3.41
391.903	-3.04
392.112	1.66
392.322	1.9
392.531	5.39
392.74	3.49
392.95	-0.09
393.159	-2.51
393.369	-0.67
393.578	-1.1
393.787	-1.81
393.997	0.14
394.206	-0.77
394.415	-1.17
394.625	-1.38
394.834	-2.53
395.043	-1.46
395.252	1.41
395.462	3.45
395.671	4.77
395.88	5.5
396.089	6.01
396.298	3.73
396.508	3.48
396.717	2.64
396.926	3.17
397.135	2.22
397.344	2.59
397.553	2.95
397.762	4.01
397.971	3.68
398.181	3.81
398.39	3.08
398.599	2.17
398.808	1.83
399.017	3.01
399.226	4.11
399.435	5.79
399.644	6.06
399.853	5.22
400.062	4.33
400.27	3.75
400.479	2.87
400.688	2.37
400.897	2.69
401.106	2.84
401.315	2.68
401.524	2.7
401.733	3.32
401.941	3.92
402.15	4.23
402.359	4.42
402.568	4.78
402.777	4.85
402.985	4.26
403.194	4
403.403	4.06
403.612	3.73
403.82	3.43
404.029	3.84
404.238	3.61
404.446	3.58
404.655	3.51
404.864	3.67
405.072	3.34
405.281	3.76
405.489	3.71
405.698	3.72
405.906	3.54
406.115	3.63
406.324	3.52
406.532	3.55
406.741	3.8
406.949	3.95
407.158	3.72
407.366	3.63
407.574	3.63
407.783	3.52
407.991	3.4
408.2	3.66
408.408	3.66
408.617	3.63
408.825	3.45
409.033	3.39
409.242	3.43
409.45	3.55
409.658	3.4
409.867	3.54
410.075	3.52
410.283	3.46
410.491	3.33
410.7	3.35
410.908	3.34
411.116	3.63
411.324	3.52
411.533	3.39
411.741	3.52
411.949	3.49
412.157	3.19
412.365	3.21
412.573	3.3
412.781	3.49
412.99	3.39
413.198	3.53
413.406	3.55
413.614	3.58
413.822	3.16
414.03	3.06
414.238	2.88
414.446	2.96
414.654	2.84
414.862	3.07
415.07	3.25
415.278	3.5
415.486	3.31
415.694	3.48
415.902	3.28
416.109	3.2
416.317	3.13
416.525	3.01
416.733	2.93
416.941	3.2
417.149	3.23
417.357	3.26
417.564	3.49
417.772	3.61
417.98	3.37
418.188	3.39
418.395	3.38
418.603	3.47
418.811	3.2
419.019	3.3
419.226	3.38
419.434	3.4
419.642	3.17
419.849	3.35
420.057	3.36
420.265	3.19
420.472	2.94
420.68	3.04
420.887	2.97
421.095	2.97
421.302	3.08
421.51	3.28
421.717	3.22
421.925	3.3
422.132	3.13
422.34	2.82
422.547	2.87
422.755	2.86
422.962	2.7
423.17	2.82
423.377	2.93
423.585	2.84
423.792	2.72
423.999	2.77
424.207	2.64
424.414	2.71
424.621	2.61
424.829	2.64
425.036	2.6
425.243	2.82
425.451	2.72
425.658	2.72
425.865	2.87
426.072	2.9
426.28	2.95
426.487	2.96
426.694	3.07
426.901	2.95
427.108	2.93
427.315	2.77
427.523	2.96
427.73	2.87
427.937	2.75
428.144	2.65
428.351	2.59
428.558	2.69
428.765	2.66
428.972	2.71
429.179	2.92
429.386	3.2
429.593	2.82
429.8	2.73
430.007	2.76
430.214	2.76
430.421	2.56
430.628	2.54
430.835	2.45
431.042	2.64
431.249	2.63
431.456	2.7
431.662	2.93
431.869	3.14
432.076	3.14
432.283	3.2
432.49	3.13
432.697	2.91
432.903	2.76
433.11	2.67
433.317	2.63
433.524	2.9
433.73	3
433.937	3.21
434.144	3.05
434.35	3
434.557	2.79
434.764	2.76
434.97	2.65
435.177	2.97
435.384	2.95
435.59	2.86
435.797	3.11
436.003	3.12
436.21	2.94
436.416	2.97
436.623	3.04
436.829	2.99
437.036	3.07
437.242	3.15
437.449	3
437.655	3.05
437.862	3.02
438.068	2.9
438.275	3.04
438.481	3.31
438.687	3.3
438.894	3.28
439.1	3.36
439.307	3.4
439.513	3.26
439.719	3.2
439.926	3.26
440.132	3.26
440.338	3.07
440.544	3.19
440.751	3.26
440.957	3.3
441.163	3.2
441.369	3.25
441.575	2.97
441.782	2.95
441.988	2.82
442.194	2.87
442.4	2.9
442.606	3.18
442.812	3.31
443.018	3.48
443.224	3.55
443.431	3.6
443.637	3.39
443.843	3.28
444.049	3.1
444.255	3.02
444.461	3.06
444.667	3.17
444.873	3.27
445.079	3.33
445.284	3.47
445.49	3.24
445.696	3.08
445.902	2.94
446.108	2.89
446.314	2.8
446.52	2.89
446.726	3.1
446.931	3.12
447.137	3.18
447.343	3.2
447.549	3.13
447.755	3.13
447.96	3.19
448.166	3.22
448.372	3.16
448.578	3.24
448.783	3.17
448.989	3.24
449.195	3.35
449.4	3.37
449.606	3.38
449.812	3.3
450.017	3.3
450.223	3.16
450.428	3.19
450.634	3.26
450.84	3.41
451.045	3.29
451.251	3.3
451.456	3.48
451.662	3.53
451.867	3.59
452.073	3.61
452.278	3.64
452.483	3.61
452.689	3.56
452.894	3.54
453.1	3.58
453.305	3.53
453.51	3.52
453.716	3.53
453.921	3.51
454.127	3.43
454.332	3.43
454.537	3.33
454.742	3.32
454.948	3.29
455.153	3.47
455.358	3.61
455.563	3.81
455.769	3.84
455.974	3.82
456.179	3.7
456.384	3.51
456.589	3.38
456.795	3.22
457	3.15
457.205	3.34
457.41	3.49
457.615	3.45
457.82	3.6
458.025	3.69
458.23	3.5
458.435	3.42
458.64	3.39
458.845	3.45
459.05	3.5
459.255	3.56
459.46	3.74
459.665	3.85
459.87	3.87
460.075	3.85
460.28	3.99
460.485	3.92
460.69	3.93
460.895	3.88
461.099	3.78
461.304	3.77
461.509	3.72
461.714	3.65
461.919	3.7
462.123	3.76
462.328	3.77
462.533	3.81
462.738	4.03
462.942	3.9
463.147	4
463.352	4.06
463.556	4.07
463.761	3.93
463.966	4.06
464.17	4.06
464.375	3.99
464.58	4.07
464.784	4.14
464.989	4.15
465.193	4.06
465.398	4.02
465.602	4
465.807	3.97
466.011	4.06
466.216	4.24
466.42	4.34
466.625	4.53
466.829	4.66
467.034	4.63
467.238	4.71
467.443	4.7
467.647	4.57
467.851	4.56
468.056	4.69
468.26	4.54
468.464	4.53
468.669	4.66
468.873	4.85
469.077	4.8
469.282	4.97
469.486	5.03
469.69	5.03
469.894	4.83
470.099	4.88
470.303	4.91
470.507	4.86
470.711	4.79
470.915	4.85
471.119	4.7
471.324	4.63
471.528	4.78
471.732	4.81
471.936	4.74
472.14	4.87
472.344	5.03
472.548	4.99
472.752	5.16
472.956	5.42
473.16	5.36
473.364	5.26
473.568	5.22
473.772	5.21
473.976	5.11
474.18	5.16
474.384	5.22
474.588	5.29
474.792	5.15
474.995	5.21
475.199	5.34
475.403	5.35
475.607	5.32
475.811	5.39
476.015	5.39
476.218	5.39
476.422	5.34
476.626	5.42
476.83	5.5
477.033	5.44
477.237	5.34
477.441	5.44
477.644	5.44
477.848	5.43
478.052	5.42
478.255	5.49
478.459	5.47
478.663	5.55
478.866	5.55
479.07	5.58
479.273	5.76
479.477	5.82
479.681	5.81
479.884	5.79
480.088	5.8
480.291	5.65
480.495	5.61
480.698	5.57
480.901	5.64
481.105	5.71
481.308	5.71
481.512	5.67
481.715	5.72
481.919	5.69
482.122	5.67
482.325	5.64
482.529	5.71
482.732	5.7
482.935	5.66
483.138	5.6
483.342	5.73
483.545	5.8
483.748	5.86
483.952	5.9
484.155	6.04
484.358	6.01
484.561	5.87
484.764	5.8
484.967	5.87
485.171	5.9
485.374	5.86
485.577	5.99
485.78	5.98
485.983	5.94
486.186	5.8
486.389	5.8
486.592	5.73
486.795	5.76
486.998	5.73
487.201	5.85
487.404	5.87
487.607	5.88
487.81	5.95
488.013	5.98
488.216	5.88
488.419	5.87
488.622	5.81
488.825	5.68
489.028	5.61
489.231	5.66
489.433	5.64
489.636	5.6
489.839	5.62
490.042	5.56
490.245	5.48
490.447	5.52
490.65	5.54
490.853	5.56
491.056	5.67
491.258	5.74
491.461	5.8
491.664	5.86
491.866	5.82
492.069	5.87
492.272	5.77
492.474	5.74
492.677	5.77
492.879	5.79
493.082	5.73
493.285	5.83
493.487	5.81
493.69	5.71
493.892	5.66
494.095	5.6
494.297	5.6
494.5	5.56
494.702	5.63
494.905	5.71
495.107	5.76
495.309	5.7
495.512	5.73
495.714	5.73
495.917	5.71
496.119	5.7
496.321	5.8
496.524	5.84
496.726	5.79
496.928	5.78
497.13	5.79
497.333	5.75
497.535	5.73
497.737	5.79
497.939	5.8
498.142	5.83
498.344	5.85
498.546	5.78
498.748	5.71
498.95	5.7
499.152	5.68
499.355	5.65
499.557	5.76
499.759	5.88
499.961	5.91
500.163	5.93
500.365	5.93
500.567	5.98
500.769	5.89
500.971	5.94
501.173	5.88
501.375	5.9
501.577	5.8
501.779	5.81
501.981	5.78
502.183	5.82
502.385	5.79
502.587	5.79
502.788	5.85
502.99	5.92
503.192	5.96
503.394	5.98
503.596	6.06
503.798	6.11
503.999	6.04
504.201	6.04
504.403	6.12
504.605	6.1
504.806	6.08
505.008	6.15
505.21	6.18
505.411	6.14
505.613	6.15
505.815	6.17
506.016	6.17
506.218	6.21
506.42	6.28
506.621	6.26
506.823	6.28
507.024	6.21
507.226	6.16
507.427	6.15
507.629	6.24
507.83	6.23
508.032	6.22
508.233	6.33
508.435	6.3
508.636	6.3
508.838	6.23
509.039	6.28
509.24	6.24
509.442	6.3
509.643	6.24
509.845	6.31
510.046	6.38
510.247	6.37
510.448	6.37
510.65	6.45
510.851	6.55
511.052	6.52
511.254	6.51
511.455	6.52
511.656	6.59
511.857	6.57
512.058	6.57
512.26	6.62
512.461	6.61
512.662	6.58
512.863	6.5
513.064	6.52
513.265	6.52
513.466	6.58
513.667	6.59
513.868	6.62
514.069	6.68
514.27	6.77
514.471	6.72
514.672	6.7
514.873	6.71
515.074	6.65
515.275	6.5
515.476	6.48
515.677	6.47
515.878	6.58
516.079	6.54
516.28	6.62
516.481	6.74
516.682	6.78
516.882	6.67
517.083	6.7
517.284	6.67
517.485	6.58
517.686	6.52
517.886	6.57
518.087	6.57
518.288	6.64
518.488	6.66
518.689	6.71
518.89	6.69
519.091	6.77
519.291	6.74
519.492	6.76
519.692	6.76
519.893	6.84
520.094	6.85
520.294	6.88
520.495	6.89
520.695	6.91
520.896	6.87
521.096	6.84
521.297	6.85
521.497	6.84
521.698	6.82
521.898	6.83
522.099	6.86
522.299	6.91
522.499	6.92
522.7	6.97
522.9	6.96
523.101	7
523.301	6.97
523.501	6.99
523.702	6.99
523.902	7.09
524.102	7.13
524.302	7.11
524.503	7.16
524.703	7.14
524.903	7.13
525.103	7.02
525.304	7.09
525.504	7.15
525.704	7.2
525.904	7.15
526.104	7.22
526.304	7.21
526.504	7.16
526.705	7.16
526.905	7.25
527.105	7.25
527.305	7.26
527.505	7.23
527.705	7.25
527.905	7.26
528.105	7.28
528.305	7.29
528.505	7.35
528.705	7.41
528.905	7.35
529.105	7.41
529.304	7.45
529.504	7.52
529.704	7.43
529.904	7.48
530.104	7.45
530.304	7.52
530.503	7.48
530.703	7.54
530.903	7.54
531.103	7.6
531.303	7.51
531.502	7.53
531.702	7.57
531.902	7.62
532.101	7.56
532.301	7.63
532.501	7.62
532.7	7.6
532.9	7.6
533.1	7.66
533.299	7.7
533.499	7.7
533.698	7.72
533.898	7.68
534.097	7.69
534.297	7.71
534.496	7.74
534.696	7.82
534.895	7.94
535.095	8.01
535.294	7.95
535.494	7.92
535.693	7.88
535.892	7.87
536.092	7.81
536.291	7.79
536.491	7.88
536.69	7.96
536.889	7.95
537.088	7.97
537.288	8.09
537.487	8.13
537.686	8.13
537.886	8.17
538.085	8.22
538.284	8.32
538.483	8.29
538.682	8.36
538.882	8.4
539.081	8.46
539.28	8.32
539.479	8.35
539.678	8.29
539.877	8.39
540.076	8.38
540.275	8.43
540.474	8.49
540.673	8.55
540.872	8.48
541.071	8.54
541.27	8.55
541.469	8.59
541.668	8.64
541.867	8.75
542.066	8.82
542.265	8.93
542.464	8.92
542.663	8.96
542.862	9
543.06	9.05
543.259	9.12
543.458	9.21
543.657	9.31
543.856	9.35
544.054	9.33
544.253	9.28
544.452	9.31
544.651	9.29
544.849	9.23
545.048	9.29
545.247	9.37
545.445	9.44
545.644	9.47
545.843	9.54
546.041	9.63
546.24	9.68
546.438	9.78
546.637	9.85
546.836	10.01
547.034	10.04
547.233	10.06
547.431	10.03
547.63	10.08
547.828	10.03
548.027	10.05
548.225	10.11
548.423	10.13
548.622	10.18
548.82	10.18
549.019	10.22
549.217	10.33
549.415	10.43
549.614	10.52
549.812	10.56
550.01	10.59
550.209	10.65
550.407	10.72
550.605	10.76
550.803	10.86
551.002	11
551.2	11.03
551.398	11.05
551.596	11.13
551.794	11.26
551.993	11.27
552.191	11.32
552.389	11.53
552.587	11.63
552.785	11.65
552.983	11.77
553.181	11.9
553.379	11.94
553.577	11.97
553.775	12.1
553.973	12.21
554.171	12.3
554.369	12.24
554.567	12.32
554.765	12.36
554.963	12.41
555.161	12.32
555.359	12.47
555.557	12.59
555.755	12.69
555.952	12.76
556.15	12.95
556.348	13.06
556.546	13.12
556.744	13.2
556.941	13.25
557.139	13.33
557.337	13.37
557.535	13.43
557.732	13.47
557.93	13.67
558.128	13.78
558.325	13.87
558.523	13.93
558.721	14.08
558.918	14.05
559.116	14.16
559.313	14.19
559.511	14.35
559.708	14.44
559.906	14.55
560.104	14.56
560.301	14.7
560.498	14.76
560.696	14.8
560.893	14.95
561.091	15.04
561.288	15.18
561.486	15.19
561.683	15.28
561.88	15.3
562.078	15.48
562.275	15.49
562.473	15.67
562.67	15.87
562.867	15.98
563.064	16.03
563.262	16.11
563.459	16.21
563.656	16.26
563.853	16.36
564.051	16.45
564.248	16.59
564.445	16.71
564.642	16.74
564.839	16.86
565.036	16.99
565.234	17.18
565.431	17.21
565.628	17.35
565.825	17.52
566.022	17.61
566.219	17.59
566.416	17.72
566.613	17.81
566.81	17.82
567.007	17.86
567.204	17.91
567.401	17.95
567.598	17.97
567.795	17.97
567.991	18.01
568.188	18.14
568.385	18.25
568.582	18.37
568.779	18.48
568.976	18.59
569.172	18.74
569.369	18.74
569.566	18.8
569.763	18.86
569.96	18.88
570.156	18.85
570.353	18.93
570.55	19
570.746	19.05
570.943	19.12
571.14	19.17
571.336	19.15
571.533	19.19
571.729	19.22
571.926	19.26
572.123	19.29
572.319	19.4
572.516	19.39
572.712	19.44
572.909	19.44
573.105	19.46
573.302	19.47
573.498	19.57
573.695	19.49
573.891	19.62
574.087	19.65
574.284	19.69
574.48	19.58
574.677	19.63
574.873	19.56
575.069	19.56
575.266	19.56
575.462	19.65
575.658	19.73
575.854	19.84
576.051	19.89
576.247	19.8
576.443	19.77
576.639	19.67
576.835	19.54
577.032	19.43
577.228	19.65
577.424	19.68
577.62	19.62
577.816	19.66
578.012	19.77
578.208	19.62
578.404	19.62
578.6	19.77
578.796	19.78
578.993	19.68
579.189	19.62
579.384	19.5
579.58	19.38
579.776	19.36
579.972	19.41
580.168	19.42
580.364	19.49
580.56	19.46
580.756	19.45
580.952	19.41
581.148	19.45
581.343	19.51
581.539	19.52
581.735	19.52
581.931	19.45
582.127	19.4
582.322	19.27
582.518	19.3
582.714	19.21
582.909	19.25
583.105	19.25
583.301	19.3
583.496	19.29
583.692	19.28
583.888	19.23
584.083	19.27
584.279	19.25
584.474	19.22
584.67	19.29
584.866	19.28
585.061	19.09
585.257	19.09
585.452	19.04
585.648	18.92
585.843	18.97
586.039	19
586.234	18.98
586.429	18.92
586.625	19.01
586.82	18.88
587.015	18.92
587.211	18.86
587.406	18.97
587.601	18.86
587.797	18.88
587.992	18.9
588.187	18.96
588.383	18.87
588.578	18.88
588.773	19.01
588.968	18.92
589.163	18.94
589.359	18.91
589.554	18.9
589.749	18.82
589.944	18.87
590.139	18.87
590.334	18.91
590.529	18.94
590.724	18.92
590.919	19.08
591.114	19.05
591.309	19.09
591.504	19.21
591.699	19.27
591.894	19.25
592.089	19.19
592.284	19.2
592.479	19.23
592.674	19.28
592.869	19.28
593.064	19.44
593.259	19.61
593.454	19.68
593.648	19.71
593.843	19.77
594.038	19.78
594.233	19.71
594.428	19.69
594.622	19.73
594.817	19.81
595.012	19.85
595.206	19.96
595.401	19.98
595.596	19.99
595.79	19.99
595.985	20.15
596.18	20.18
596.374	20.27
596.569	20.39
596.763	20.44
596.958	20.51
597.153	20.55
597.347	20.59
597.542	20.65
597.736	20.71
597.931	20.73
598.125	20.75
598.319	20.85
598.514	20.84
598.708	20.91
598.903	20.88
599.097	21.02
599.291	21.01
599.486	21.06
599.68	21.02
599.874	21.13
600.069	21.17
600.263	21.24
600.457	21.37
600.651	21.46
600.846	21.42
601.04	21.45
601.234	21.51
601.428	21.56
601.622	21.59
601.817	21.64
602.011	21.65
602.205	21.68
602.399	21.65
602.593	21.66
602.787	21.78
602.981	21.78
603.175	21.76
603.369	21.67
603.563	21.68
603.757	21.68
603.951	21.62
604.145	21.57
604.339	21.63
604.533	21.54
604.727	21.48
604.921	21.46
605.115	21.5
605.309	21.59
605.502	21.63
605.696	21.54
605.89	21.62
606.084	21.47
606.278	21.24
606.471	21.15
606.665	21.04
606.859	20.86
607.053	20.89
607.246	20.92
607.44	21
607.634	21.03
607.827	21.04
608.021	20.95
608.214	20.92
608.408	20.7
608.602	20.65
608.795	20.57
608.989	20.53
609.182	20.41
609.376	20.35
609.569	20.23
609.763	20.13
609.956	20.05
610.15	19.99
610.343	19.95
610.537	19.89
610.73	19.83
610.923	19.72
611.117	19.61
611.31	19.52
611.504	19.5
611.697	19.43
611.89	19.4
612.083	19.37
612.277	19.37
612.47	19.27
612.663	19.16
612.856	19.04
613.05	19.01
613.243	18.91
613.436	18.77
613.629	18.75
613.822	18.64
614.015	18.47
614.209	18.35
614.402	18.33
614.595	18.21
614.788	18.18
614.981	18.08
615.174	17.98
615.367	17.85
615.56	17.82
615.753	17.79
615.946	17.74
616.139	17.76
616.332	17.82
616.525	17.7
616.718	17.74
616.911	17.72
617.103	17.67
617.296	17.61
617.489	17.58
617.682	17.37
617.875	17.34
618.067	17.23
618.26	17.09
618.453	17.13
618.646	17.22
618.838	17.21
619.031	17.33
619.224	17.39
619.417	17.31
619.609	17.26
619.802	17.18
619.994	17.05
620.187	16.93
620.38	16.9
620.572	16.81
620.765	16.85
620.957	16.7
621.15	16.62
621.342	16.58
621.535	16.57
621.727	16.44
621.92	16.51
622.112	16.47
622.305	16.46
622.497	16.38
622.69	16.38
622.882	16.41
623.074	16.49
623.267	16.45
623.459	16.47
623.651	16.33
623.844	16.28
624.036	16.26
624.228	16.2
624.42	16.17
624.613	16.28
624.805	16.29
624.997	16.19
625.189	16.19
625.381	16.22
625.574	16.12
625.766	16.02
625.958	16.07
626.15	16.06
626.342	15.93
626.534	15.95
626.726	15.94
626.918	15.9
627.11	15.86
627.302	15.95
627.494	15.9
627.686	15.93
627.878	15.82
628.07	15.89
628.262	15.78
628.454	15.79
628.646	15.78
628.838	15.84
629.029	15.73
629.221	15.79
629.413	15.75
629.605	15.59
629.797	15.5
629.989	15.53
630.18	15.4
630.372	15.3
630.564	15.31
630.755	15.39
630.947	15.35
631.139	15.23
631.33	15.19
631.522	15.29
631.714	15.14
631.905	15.09
632.097	15.11
632.289	15.17
632.48	15.04
632.672	15.03
632.863	14.91
633.055	14.87
633.246	14.85
633.438	14.81
633.629	14.78
633.821	14.87
634.012	14.85
634.203	14.79
634.395	14.82
634.586	14.86
634.777	14.77
634.969	14.79
635.16	14.77
635.351	14.74
635.543	14.73
635.734	14.77
635.925	14.83
636.117	14.89
636.308	14.85
636.499	14.79
636.69	14.64
636.881	14.56
637.073	14.59
637.264	14.6
637.455	14.64
637.646	14.85
637.837	14.88
638.028	14.72
638.219	14.76
638.41	14.63
638.601	14.44
638.792	14.39
638.983	14.37
639.174	14.23
639.365	14.3
639.556	14.31
639.747	14.27
639.938	14.29
640.129	14.22
640.32	14.12
640.511	14.15
640.701	14.29
640.892	14.21
641.083	14.39
641.274	14.47
641.465	14.43
641.655	14.27
641.846	14.27
642.037	14.17
642.228	14.11
642.418	14.11
642.609	14.13
642.8	14.2
642.99	14.1
643.181	14.13
643.372	14.16
643.562	14.13
643.753	13.95
643.943	13.94
644.134	13.82
644.324	13.75
644.515	13.67
644.705	13.81
644.896	13.85
645.086	13.94
645.277	13.85
645.467	13.89
645.658	13.79
645.848	13.79
646.038	13.77
646.229	13.79
646.419	13.71
646.61	13.67
646.8	13.57
646.99	13.47
647.18	13.42
647.371	13.49
647.561	13.44
647.751	13.43
647.941	13.39
648.132	13.33
648.322	13.29
648.512	13.38
648.702	13.37
648.892	13.31
649.082	13.35
649.272	13.17
649.462	13.06
649.653	12.98
649.843	12.95
650.033	12.94
650.223	12.94
650.413	12.81
650.603	12.86
650.793	12.94
650.983	12.83
651.172	12.78
651.362	12.74
651.552	12.6
651.742	12.46
651.932	12.4
652.122	12.44
652.312	12.53
652.502	12.51
652.691	12.5
652.881	12.51
653.071	12.41
653.261	12.24
653.45	12.13
653.64	11.95
653.83	11.83
654.019	11.76
654.209	11.67
654.399	11.56
654.588	11.52
654.778	11.38
654.968	11.31
655.157	11.24
655.347	11.2
655.536	11.1
655.726	10.96
655.915	10.79
656.105	10.76
656.294	10.66
656.484	10.55
656.673	10.5
656.863	10.48
657.052	10.31
657.241	10.12
657.431	9.93
657.62	9.74
657.809	9.43
657.999	9.28
658.188	9.18
658.377	9.02
658.567	9.03
658.756	8.96
658.945	8.78
659.134	8.69
659.324	8.61
659.513	8.42
659.702	8.31
659.891	8.26
660.08	8.01
660.269	7.99
660.458	7.83
660.648	7.76
660.837	7.6
661.026	7.62
661.215	7.48
661.404	7.32
661.593	7.23
661.782	7.06
661.971	7
662.16	6.87
662.349	6.83
662.538	6.72
662.726	6.67
662.915	6.48
663.104	6.32
663.293	6.29
663.482	6.25
663.671	6.22
663.86	6.15
664.048	6.08
664.237	6.07
664.426	5.94
664.615	5.91
664.803	5.85
664.992	5.84
665.181	5.67
665.369	5.56
665.558	5.42
665.747	5.3
665.935	5.32
666.124	5.37
666.312	5.41
666.501	5.47
666.69	5.5
666.878	5.42
667.067	5.28
667.255	5.33
667.444	5.47
667.632	5.52
667.82	5.6
668.009	5.57
668.197	5.5
668.386	5.24
668.574	5.29
668.762	5.16
668.951	5.2
669.139	5.23
669.327	5.16
669.516	5.1
669.704	5.1
669.892	5.24
670.08	5.23
670.269	5.24
670.457	5.21
670.645	5.13
670.833	5.01
671.021	5.05
671.21	5.15
671.398	5.3
671.586	5.36
671.774	5.27
671.962	5.17
672.15	5.19
672.338	5
672.526	5.01
672.714	4.93
672.902	4.98
673.09	5.07
673.278	5.28
673.466	5.32
673.654	5.62
673.842	5.69
674.03	5.63
674.218	5.5
674.405	5.57
674.593	5.48
674.781	5.52
674.969	5.58
675.157	5.68
675.344	5.79
675.532	5.88
675.72	6.02
675.908	5.99
676.095	5.9
676.283	5.9
676.471	6.02
676.658	5.95
676.846	5.98
677.033	6.2
677.221	6.19
677.409	6.1
677.596	6.14
677.784	6.29
677.971	6.32
678.159	6.43
678.346	6.47
678.534	6.66
678.721	6.83
678.909	6.77
679.096	6.77
679.283	6.89
679.471	6.9
679.658	6.88
679.846	7.07
680.033	7.26
680.22	7.36
680.408	7.28
680.595	7.32
680.782	7.27
680.969	7.23
681.157	7.28
681.344	7.38
681.531	7.4
681.718	7.48
681.905	7.73
682.093	7.88
682.28	8.1
682.467	8.3
682.654	8.51
682.841	8.5
683.028	8.6
683.215	8.79
683.402	8.72
683.589	8.86
683.776	9.13
683.963	9.24
684.15	9.31
684.337	9.68
684.524	9.77
684.711	9.84
684.898	9.93
685.085	10.16
685.271	10.37
685.458	10.65
685.645	10.82
685.832	11.15
686.019	11.39
686.205	11.52
686.392	11.72
686.579	12
686.766	12.28
686.952	12.56
687.139	12.97
687.326	13.27
687.512	13.71
687.699	14.12
687.886	14.3
688.072	14.52
688.259	14.9
688.445	15.14
688.632	15.26
688.818	15.89
689.005	16.17
689.191	16.59
689.378	17.04
689.564	17.69
689.751	18.1
689.937	18.64
690.124	19.11
690.31	19.55
690.496	19.93
690.683	20.37
690.869	20.93
691.055	21.46
691.242	22.16
691.428	22.72
691.614	23.29
691.8	23.96
691.987	24.55
692.173	25.15
692.359	25.78
692.545	26.41
692.731	26.97
692.918	27.58
693.104	27.92
693.29	28.65
693.476	29.32
693.662	30
693.848	30.5
694.034	31.26
694.22	31.65
694.406	32.33
694.592	33.13
694.778	33.86
694.964	34.62
695.15	35.31
695.336	35.91
695.522	36.61
695.708	37.42
695.894	38.15
696.08	39.06
696.265	39.73
696.451	40.31
696.637	40.96
696.823	41.67
697.009	42.19
697.194	42.78
697.38	43.37
697.566	44
697.751	44.6
697.937	45.41
698.123	46.27
698.308	47
698.494	47.69
698.68	48.06
698.865	48.73
699.051	49.23
699.236	49.57
699.422	50.15
699.607	50.82
699.793	51.28
699.978	51.84
700.164	52.57
700.349	53.33
700.535	54.05
700.72	54.49
700.906	55.03
701.091	55.62
701.276	56.07
701.462	56.92
701.647	57.84
701.832	58.69
702.018	59.15
702.203	59.49
702.388	59.48
702.573	59.86
702.759	60.27
702.944	60.54
703.129	60.8
703.314	61.27
703.499	61.41
703.684	61.59
703.87	62.63
704.055	63.63
704.24	64.5
704.425	65.24
704.61	65.77
704.795	66.05
704.98	66.09
705.165	66.03
705.35	66.54
705.535	66.83
705.72	66.89
705.905	67.68
706.09	68.61
706.275	68.59
706.459	68.89
706.644	69.14
706.829	69.36
707.014	69.12
707.199	69.59
707.384	70.02
707.568	70.45
707.753	70.97
707.938	71.51
708.123	71.72
708.307	71.82
708.492	72.36
708.677	72.53
708.861	72.67
709.046	72.62
709.231	73.42
709.415	73.6
709.6	73.52
709.784	73.72
709.969	74.14
710.153	74.11
710.338	74.29
710.522	74.5
710.707	75.28
710.891	75.88
711.076	76
711.26	75.74
711.445	76.08
711.629	75.75
711.813	75.78
711.998	76.04
712.182	76.37
712.366	76.9
712.551	77.59
712.735	77.6
712.919	77.39
713.103	77.87
713.288	77.43
713.472	77.09
713.656	77.96
713.84	78.28
714.024	78.36
714.208	78.49
714.393	78.9
714.577	78.58
714.761	78.93
714.945	79.16
715.129	79.48
715.313	79.43
715.497	79.4
715.681	80.22
715.865	80.35
716.049	80.59
716.233	80.47
716.417	80.75
716.601	79.9
716.785	79.83
716.968	79.9
717.152	80.36
717.336	80.63
717.52	81.05
717.704	81.24
717.888	81.83
718.071	81.92
718.255	82.05
718.439	81.78
718.622	81.88
718.806	81.83
718.99	81.73
719.174	81.57
719.357	81.99
719.541	82.45
719.724	82.33
719.908	83.27
720.092	83.55
720.275	83.71
720.459	83.39
720.642	83.4
720.826	82.58
721.009	82.39
721.193	82.23
721.376	82.93
721.559	83.3
721.743	83.54
721.926	83.81
722.11	84.25
722.293	83.59
722.476	83.26
722.66	83.52
722.843	83.26
723.026	82.59
723.21	82.99
723.393	84.19
723.576	84.01
723.759	83.99
723.942	84.49
724.126	84.42
724.309	83.66
724.492	84.03
724.675	84.48
724.858	85.01
725.041	85.56
725.224	85.61
725.407	85.98
725.59	86.32
725.774	85.71
725.957	84.82
726.14	84.35
726.322	84.36
726.505	84.24
726.688	85.19
726.871	85.56
727.054	85.96
727.237	85.16
727.42	85.18
727.603	84.62
727.786	84.72
727.968	84.8
728.151	85.32
728.334	85.31
728.517	84.82
728.699	85.3
728.882	85.31
729.065	85.97
729.248	86.52
729.43	87.29
729.613	87.28
729.796	88.03
729.978	87.31
730.161	87.25
730.343	86.75
730.526	87.71
730.708	87.08
730.891	87.29
731.073	86.97
731.256	87.48
731.438	86.47
731.621	87.36
731.803	87.53
731.986	87.86
732.168	87.35
732.35	87.65
732.533	87.41
732.715	87.26
732.898	87.26
733.08	87.27
733.262	87.45
733.444	86.76
733.627	86.81
733.809	87.05
733.991	87.5
734.173	86.93
734.355	87.19
734.538	87.7
734.72	87.17
734.902	87.57
735.084	87.97
735.266	88.22
735.448	88.64
735.63	89.03
735.812	88.61
735.994	89.07
736.176	89.28
736.358	88.85
736.54	89
736.722	88.64
736.904	88.26
737.086	87.99
737.268	88.68
737.45	88.72
737.632	89.28
737.814	88.34
737.995	88.67
738.177	88.39
738.359	87.16
738.541	87.52
738.723	89.13
738.904	89.22
739.086	89.21
739.268	89.56
739.449	90.06
739.631	88.95
739.813	89.39
739.994	89.61
740.176	91.14
740.358	91.14
740.539	92.58
740.721	92.41
740.902	92.46
741.084	91.45
741.265	90.3
741.447	89.69
741.628	89.68
741.81	89.01
741.991	90.12
742.172	91.3
742.354	92.08
742.535	91.38
742.717	91.46
742.898	91.21
743.079	91.19
743.261	90.51
743.442	90.88
743.623	91.55
743.804	90.97
743.986	91.73
744.167	90.28
744.348	90.11
744.529	90.53
744.71	89.9
744.891	88.79
745.073	89.76
745.254	89.27
745.435	88.25
745.616	88.12
745.797	87.76
745.978	86.97
746.159	87.13
746.34	86.51
746.521	88.99
746.702	88.5
746.883	89.33
747.064	89.55
747.245	90.88
747.426	89.26
747.606	90.09
747.787	90.88
747.968	91.1
748.149	90.83
748.33	91.85
748.51	91.59
748.691	89.68
748.872	89.55
749.053	88.86
749.233	86.84
749.414	86.49
749.595	86.96
749.775	86
749.956	85.17
750.137	86.27
750.317	87.54
750.498	89.66
750.678	90.34
750.859	91.58
751.04	90.66
751.22	89.13
751.4	87.21
751.581	86.92
751.761	87.43
751.942	87.94
752.122	88.36
752.303	88.4
752.483	88.72
752.663	87.98
752.844	87.67
753.024	88.25
753.204	89.56
753.385	88.79
753.565	88.15
753.745	87.86
753.925	87.1
754.106	85.97
754.286	86.4
754.466	86.32
754.646	86.7
754.826	86.36
755.006	85.91
755.187	86.85
755.367	87.92
755.547	88.6
755.727	90.3
755.907	90.99
756.087	90.95
756.267	89.91
756.447	89.02
756.627	86.28
756.807	86.35
756.987	85.67
757.167	86.03
757.346	86.49
757.526	87
757.706	87.13
757.886	88
758.066	88.83
758.246	90.14
758.425	90.48
758.605	88.88
758.785	88.58
758.965	88.85
759.144	86.27
759.324	86.07
759.504	88.25
759.683	88.48
759.863	86.62
760.043	87.2
760.222	87.86
760.402	86.02
760.581	84.15
760.761	84.78
760.94	83.88
761.12	85.87
761.299	87.05
761.479	88.85
761.658	88.13
761.838	87.91
762.017	86.17
762.197	86.97
762.376	85.93
762.555	86.81
762.735	88.38
762.914	87.63
763.093	86.44
763.273	85.44
763.452	85.76
763.631	86.09
763.81	86.09
763.99	85.8
764.169	87.26
764.348	84.73
764.527	83.41
764.706	84.4
764.885	84.97
765.064	82.17
765.243	83.73
765.423	85.51
765.602	84.62
765.781	84.34
765.96	84.22
766.139	83.81
766.318	84.69
766.497	84.17
766.676	83.84
766.854	86.28
767.033	87.67
767.212	85.45
767.391	86.79
767.57	88.31
767.749	90.23
767.928	90.51
768.106	90.16
768.285	86.3
768.464	85.69
768.643	82.93
768.821	81.79
769	82.84
769.179	85.75
769.357	84.52
769.536	85.11
769.715	84.38
769.893	85.83
770.072	84.25
770.25	83.39
770.429	84.66
770.607	84.46
770.786	82.05
770.964	85.82
771.143	86.64
771.321	85.04
771.5	86.54
771.678	86.61
771.857	83.75
772.035	83.67
772.213	83.19
772.392	81.26
772.57	81.9
772.748	81.98
772.927	79.98
773.105	79.41
773.283	79.91
773.461	80.48
773.64	82.4
773.818	83.25
773.996	86.15
774.174	85.54
774.352	83.46
774.531	80.64
774.709	82.57
774.887	79.98
775.065	80.11
775.243	80.72
775.421	80.68
775.599	82.19
775.777	80.42
775.955	79.12
776.133	78.12
776.311	77.34
776.489	72.25
776.667	74.72
776.844	76.71
777.022	75.86
777.2	77.12
777.378	78.53
777.556	80.33
777.734	81.9
777.911	83.22
778.089	83.64
778.267	85.11
778.445	82.43
778.622	78.97
778.8	79.55
778.978	80.56
779.155	80.31
779.333	80.27
779.511	81.1
779.688	82.76
779.866	79.45
780.043	76.41
780.221	76
780.398	74.58
780.576	73.7
780.753	75.24
780.931	75.39
781.108	75.06
781.286	76.99
781.463	76.1
781.64	73.11
781.818	77.32
781.995	77.17
782.172	77.88
782.35	76.51
782.527	82.68
782.704	78.91
782.882	79.39
783.059	77.83
783.236	82.13
783.413	80.55
783.59	82.56
783.768	82.55
783.945	84.81
784.122	81.19
784.299	80.05
784.476	76.86
784.653	76.21
784.83	73.13
785.007	70.57
785.184	70.46
785.361	70.95
785.538	73.49
785.715	78.3
785.892	80.09
786.069	80.21
786.246	83.66
786.423	82.5
786.6	78.35
786.776	80.07
786.953	78.19
787.13	80.68
787.307	78.99
787.484	78.84
787.66	75.49
787.837	77.07
788.014	72.61
788.191	70.56
788.367	68.7
788.544	70.78
788.721	68.63
788.897	70.93
789.074	75.58
789.25	76.27
789.427	77.15
789.603	77.85
789.78	77.27
789.956	75.33
790.133	76.47
790.309	75.97
790.486	80
790.662	76.58
790.839	74.89
791.015	77.2
791.192	75.65
791.368	74.56
791.544	73.4
791.721	75.98
791.897	73.01
792.073	70.11
792.249	63.58
792.426	69.95
792.602	69.29
792.778	72.49
792.954	76.39
793.13	83.82
793.307	76.74
793.483	74.74
793.659	74.09
793.835	77.7
794.011	73.11
794.187	74.73
794.363	73.28
794.539	72.25
794.715	66.7
794.891	65.05
795.067	62.48
795.243	70.38
795.419	71.04
795.595	69.34
795.771	71.93
795.947	73.19
796.122	70.15
796.298	70.43
796.474	72.91
796.65	74.74
796.826	74.6
797.001	69.13
797.177	63
797.353	66.86
797.529	64.46
797.704	64.74
797.88	64.17
798.056	64.52
798.231	63.44
798.407	65.03
798.582	69.4
798.758	80.62
798.934	91.73
799.109	85.12
799.285	82.79
799.46	81.99
799.636	78.17
799.811	71.63
799.986	76.04
800.162	78.27
800.337	79.76
800.513	72.26
800.688	70.15
800.863	77.57
801.039	71.05
801.214	65.79
801.389	70.8
801.565	70.34
801.74	55.36
801.915	62.31
802.09	65.85
802.265	68.29
802.441	62.75
802.616	67.92
802.791	70.16
802.966	68.27
803.141	66.39
803.316	69.71
803.491	78.14
803.666	81.8
803.841	84.36
804.016	80.89
804.191	82.18
804.366	72.13
804.541	67.29
804.716	62.56
804.891	59.56
805.066	64.13
805.241	64.98
805.416	57.74
805.591	61.46
805.765	63.74
805.94	64.47
806.115	64.7
806.29	64.07
806.464	60.01
806.639	63.04
806.814	59.09
806.989	57.34
807.163	65.42
807.338	67.77
807.512	68.33
807.687	59.56
807.862	65.07
808.036	65.44
808.211	69.3
808.385	69.77
808.56	77.16
808.734	81.08
808.909	73.22
809.083	69.25
809.258	76.45
809.432	69.97
809.606	58.85
809.781	61.04
809.955	65.56
810.13	63.24
810.304	64.39
810.478	56.03
810.652	67.75
810.827	67.15
811.001	58.42
811.175	52.16
811.349	60.1
811.524	48.9
811.698	41.13
811.872	46.39
812.046	55.8
812.22	53
812.394	56.92
812.568	65.68
812.742	66.93
812.916	68.63
813.09	69.18
813.264	66.23
813.438	68.73
813.612	67.55
813.786	60.14
813.96	62.36
814.134	63.65
814.308	66.4
814.482	65.24
814.656	63.41
814.83	65.41
815.003	65.14
815.177	49.16
815.351	45.13
815.525	49.68
815.698	39.74
815.872	35.76
816.046	24.3
816.219	28.73
816.393	35.25
816.567	46.2
816.74	53.93
816.914	65.88
817.088	67.97
817.261	64.41
817.435	56.15
817.608	51.05
817.782	40.8
817.955	37.01
818.129	42.71
818.302	45
818.475	49.54
818.649	59.17
818.822	54.99
818.996	59.41
819.169	68.45
819.342	44.95
819.516	59.85
819.689	67.99
819.862	54.24
820.035	43.25
820.209	57
820.382	50.05
820.555	37.33
820.728	34.15
820.901	37.5
821.075	36.95
821.248	33.9
821.421	33.78
821.594	34.42
821.767	51.58
821.94	56.18
822.113	36.32
822.286	38.75
822.459	52.72
822.632	38.9
822.805	33.97
822.978	46.92
823.151	54.05
823.324	37.34
823.496	24.61
823.669	26.71
823.842	28.39
824.015	18.62
824.188	22.35
824.361	30.94
824.533	34.12
824.706	40.45
824.879	40.95
825.051	42.84
825.224	45.09
825.397	47.73
825.569	41.54
825.742	59.27
825.915	68.18
826.087	63.79
826.26	42.16
826.432	47.95
826.605	42.13
826.777	38.87
826.95	48.78
827.122	49.8
827.295	53.7
827.467	48.89
827.64	26.52
827.812	1.09
827.984	12.54
828.157	-5.35
828.329	-35.69
828.501	-11.08
828.674	41.71
828.846	7.98
829.018	23.29
829.19	24.69
829.363	45.36
829.535	28.92
829.707	40.55
829.879	29.66
830.051	16.69
830.223	0.08
830.395	-18.07
830.568	-12.53
830.74	-15.26
830.912	25.6
831.084	6.93
831.256	12.49
831.428	0.27
831.6	-12.01
831.772	-46.64
831.943	-46.74
832.115	-17.9
832.287	8.48
832.459	24.46
832.631	36.48
832.803	60.22
832.975	71.91
833.146	73.33
833.318	58.89
833.49	66.88
833.662	43.37
833.833	18.69
834.005	17.37
834.177	27.17
834.348	26.26
834.52	6.78
834.692	11.6
834.863	6.95
835.035	-8.69
835.206	-52.06
835.378	1.23
835.549	-9.16
835.721	-7.87
835.892	-0.81
836.064	-0.51
836.235	-3.15
836.407	29.78
836.578	-1.13
836.749	-0.96
836.921	13.76
837.092	-25.29
837.264	-55.33
837.435	-40.82
837.606	1.32
837.777	27.22
837.949	38.94
838.12	40.64
838.291	40.47
838.462	35.29
838.633	-2.01
838.805	-6.14
838.976	-3.31
839.147	-50.65
839.318	-67.66
839.489	-85.23
839.66	-85.62
839.831	-45.43
840.002	-20.43
840.173	-34.85
840.344	19.85
840.515	22.7
840.686	-75.06
840.857	-102.27
841.028	-59.17
841.199	-64.86
841.369	-72.15
841.54	-62.89
841.711	-20.88
841.882	-15.98
842.053	-23.11
842.223	-11.7
842.394	11.33
842.565	15.22
842.736	19.95
842.906	11.27
843.077	26.02
843.248	30.95
843.418	16.52
843.589	-35.76
843.759	40.19
843.93	4.41
844.101	1.87
844.271	13.04
844.442	26.34
844.612	33.86
844.783	18.53
844.953	4.26
845.123	6.32
845.294	6.72
845.464	-167.99
845.635	-42.28
845.805	18.38
845.975	10.71
846.146	-28.65
846.316	-22.98
846.486	-7.46
846.656	17.04
846.827	19.67
846.997	26.45
847.167	57.24
847.337	31.94
847.507	8.47
847.677	17.96
847.848	59.16
848.018	46
848.188	43.24
848.358	24.65
848.528	-1.54
848.698	-50.18
848.868	-102.03
849.038	-159.19
849.208	-53.51
849.378	-1.77
849.548	11.7
849.718	0.09
849.887	-2.74
850.057	-14.92
850.227	-31.3
850.397	-59.44
850.567	-121.17
850.737	-274.67
850.906	-1093.44
851.076	-795.9
851.246	-371.6
851.415	-39.77
851.585	-9.62
851.755	-12.28
851.924	10.13
852.094	-23.56
852.264	-139.1
852.433	-1138.22
852.603	-247.71
852.772	-328.24
852.942	-140.56
853.111	-95.08
853.281	-39.2
853.45	-28.25
853.62	-82.01
853.789	-58.25
853.959	-56.44
854.128	-49.17
854.297	-31.03
854.467	1.72
854.636	41.51
854.805	45.52
854.975	17.39
855.144	-39.11
855.313	193.88
855.482	-312.23
855.652	-201.32
855.821	-92.95
855.99	23.98
856.159	7.16
856.328	37.37
856.497	35.46
856.667	38.83
856.836	64.77
857.005	44.22
857.174	22.51
857.343	19.07
857.512	51.58
857.681	-41.16
857.85	-73.98
858.019	-28.8
858.188	-27.18
858.356	-62.23
858.525	-107.05
858.694	-89.01
858.863	-160.07
859.032	-165.87
859.201	-124.06
859.369	-28.76
859.538	0.27
859.707	-30.27
859.876	-3.62
860.044	-47.63
860.213	-4.11
860.382	-26.9
860.55	-7.31
860.719	30.16
860.888	42.61
861.056	25.07
861.225	13.04
861.393	30.14
861.562	-4.23
861.73	-100.54
861.899	-377.88
862.067	-2654.31
862.236	-175.3
862.404	-360.16
862.572	-211.55
862.741	-46.67
862.909	-44
863.078	-131.81
863.246	-54.63
863.414	-30.49
863.582	-33.08
863.751	-32.9
863.919	-23.4
864.087	-2.2
864.255	-2.57
864.424	-297.11
864.592	-28.87
864.76	-66.54
864.928	-323
865.096	-193.55
865.264	-141.17
865.432	-1701.7
865.6	-89.37
865.768	-56.09
865.936	-72.73
866.104	-4.4
866.272	-83.05
866.44	-308.96
866.608	455.84
866.776	214.65
866.944	2104.07
867.112	-234.64
867.28	-126.04
867.448	-34.21
867.615	-5.42
867.783	24.93
867.951	-14.46
868.119	27.62
868.286	12.25
868.454	-74.69
868.622	-188.01
868.789	-221.71
868.957	-4619.64
869.125	-2823.03
869.292	-148.59
869.46	-173.98
869.627	-5.46
869.795	-11.24
869.963	23.89
870.13	19.72
870.298	25.34
870.465	-78.36
870.632	-79.16
870.8	-84.62
870.967	-141.69
871.135	-183.35
871.302	-111.83
871.469	-169.63
871.637	-174.64
871.804	-57.18
871.971	-72.08
872.139	-395.7
872.306	2.18
872.473	-43.03
872.64	-293.03
872.807	-112.58
872.975	74.28
873.142	-92.27
873.309	661.49
873.476	92.58
873.643	124.16
873.81	42.61
873.977	103.4
874.144	91.88
874.311	43.35
874.478	-25.72
874.645	-58.95
874.812	-67.67
874.979	-71.47
875.146	-73.85
875.313	-58.28
875.48	3.36
875.647	3.32
875.813	-14.75
875.98	15.78
876.147	0.38
876.314	-14.57
876.481	487.4
876.647	-568.26
876.814	260.49
876.981	24.71
877.147	-43.16
877.314	1.05
877.481	17.73
877.647	-4.93
877.814	-36.63
877.98	-60.75
878.147	-50.52
878.314	-1.58
878.48	-25.33
878.647	-12.91
878.813	61.2
878.979	39.8
879.146	19.01
879.312	25.23
879.479	-1.29
879.645	-127.39
879.811	-187.93
879.978	-569.27
880.144	-148.81
880.31	-59.24
880.477	-196.58
880.643	-180.19
880.809	-20.03
880.975	-24.08
881.142	-544.32
881.308	-61.87
881.474	-25.93
881.64	-46.36
881.806	-117.34
881.972	-47.86
882.138	-72.84
882.304	-134.51
882.47	-247.94
882.636	-793.24
882.802	-234.63
882.968	-106.95
883.134	-53.87
883.3	-51.1
883.466	3.02
883.632	26.41
883.798	26.69
883.964	-4.68
884.129	-0.6
884.295	-12.78
884.461	-63.83
884.627	-71.48
884.793	-82.24
884.958	-48.74
885.124	-144.04
885.29	-210.6
885.455	-337.26
885.621	-48.07
885.787	-71.4
885.952	-18.81
886.118	-39.23
886.283	-65.28
886.449	-187.42
886.614	-202.81
886.78	-426.44
886.945	1537.3
887.111	-637.43
887.276	-507.24
887.442	-994.32
887.607	-456.49
887.773	-305.33
887.938	-234.66
888.103	-317.26
888.269	-234.56
888.434	-313.92
888.599	-113.45
888.764	-80.03
888.93	-21.32
889.095	-20.41
889.26	-77.8
889.425	-70.68
889.59	-24.41
889.756	-89.24
889.921	-51.7
890.086	-5.64
890.251	-29.16
890.416	-235.18
890.581	-1735.08
890.746	316.7
890.911	513.22
891.076	175.14
891.241	-276.68
891.406	65.35
891.571	21.62
891.736	-115.02
891.901	-304.2
892.065	377.75
892.23	137.75
892.395	194.67
892.56	215.53
892.725	-282.62
892.889	-1233.54
893.054	-204.02
893.219	-122.75
893.384	-122.35
893.548	-158.51
893.713	-169.77
893.878	-124.65
