Data from Ofra_PS_T2_2A_6GT17_Reflection_1.txt Node
Date: Wed Jul 21 17:17:29 EDT 2021
User: Adam
Spectrometer: FLMT01687
Trigger mode: 0
Integration Time (sec): 1.100000E0
Scans to average: 2
Electric dark correction enabled: true
Nonlinearity correction enabled: false
Boxcar width: 2
XAxis mode: Wavelengths
Number of Pixels in Spectrum: 3648
>>>>>Begin Spectral Data<<<<<
179.494	593
179.716	625.65
179.937	575.45
180.158	522.31
180.38	820.16
180.601	340.47
180.823	155.31
181.044	24.76
181.265	278.86
181.486	25.27
181.708	35.62
181.929	241.33
182.15	-31.34
182.372	162.75
182.593	12.11
182.814	28.7
183.035	102.57
183.257	87.77
183.478	41.22
183.699	85.42
183.92	55.12
184.141	54.17
184.363	-24.89
184.584	28.23
184.805	14.96
185.026	68.99
185.247	71.28
185.468	49.63
185.689	36.82
185.91	60.24
186.132	23.6
186.353	-4.01
186.574	58.77
186.795	64.55
187.016	-5.01
187.237	-18.34
187.458	-15.64
187.679	-15.06
187.9	-19
188.121	-12.63
188.342	16.86
188.563	41.2
188.784	61.97
189.005	84.71
189.226	134.76
189.447	118.65
189.667	-6.43
189.888	-235.59
190.109	-1221.1
190.33	-635.65
190.551	-1089.6
190.772	-197.88
190.993	-178.58
191.214	-154.86
191.434	-108.57
191.655	-27.76
191.876	-85.48
192.097	-130.81
192.318	-168.08
192.538	-223.83
192.759	-182.7
192.98	-52.04
193.201	4.14
193.421	29.07
193.642	34.42
193.863	38.82
194.083	6.16
194.304	-9.21
194.525	-12.9
194.745	-31.99
194.966	-40.41
195.187	-50.85
195.407	-69.07
195.628	-140.21
195.848	-128.67
196.069	-145.49
196.29	-64.51
196.51	-66.55
196.731	-49.72
196.951	-57.52
197.172	-36.46
197.392	-68.48
197.613	-79.88
197.833	-99.91
198.054	-99.93
198.274	-63.07
198.495	-56.49
198.715	-25.06
198.936	-34.86
199.156	-27.34
199.377	-100.66
199.597	-138.26
199.817	-129.95
200.038	-47.74
200.258	-71.29
200.479	-3.79
200.699	62.32
200.919	77.93
201.14	11.29
201.36	-11.88
201.58	12.48
201.801	31.01
202.021	-13.94
202.241	8.14
202.461	15.54
202.682	-51.98
202.902	-118.25
203.122	-53.16
203.342	-44.61
203.563	4.64
203.783	29.09
204.003	6.53
204.223	14.26
204.443	55.5
204.663	8.67
204.884	16.24
205.104	58.81
205.324	75.03
205.544	42.95
205.764	65.59
205.984	55.86
206.204	50.75
206.424	33.34
206.644	9.52
206.864	19.43
207.084	-0.63
207.304	1.79
207.525	-75.39
207.745	-20.5
207.964	2.44
208.184	-45.35
208.404	-67.53
208.624	-50.73
208.844	-38.71
209.064	-286.46
209.284	-259.13
209.504	-113.93
209.724	-2.41
209.944	-16.42
210.164	13.57
210.384	26.04
210.604	20.18
210.823	-16.83
211.043	-7.2
211.263	5.76
211.483	-2.34
211.703	-57.59
211.922	-48.51
212.142	7.58
212.362	29.12
212.582	16.62
212.801	28.77
213.021	3.76
213.241	-26.8
213.461	-79.27
213.68	-91.66
213.9	-65.2
214.12	-55.17
214.339	-130.3
214.559	-105.48
214.779	-35.67
214.998	-36.67
215.218	-47.05
215.438	-10.39
215.657	0.72
215.877	1.84
216.096	11.37
216.316	12.66
216.535	11.39
216.755	10.82
216.974	-70.72
217.194	-101.32
217.413	-112.66
217.633	-133.68
217.852	-219.05
218.072	-99.33
218.291	-44.45
218.511	3.23
218.73	-6.67
218.95	-9.77
219.169	-3.26
219.389	-61.84
219.608	-64.24
219.827	-52.64
220.047	-40.51
220.266	-37.78
220.485	-3.44
220.705	25.75
220.924	5.34
221.143	39.93
221.363	23.48
221.582	22.22
221.801	28.74
222.021	43.37
222.24	-32.86
222.459	57.1
222.678	49
222.897	-32
223.117	-103.45
223.336	-50.99
223.555	-35.68
223.774	7.33
223.993	51.09
224.213	131.05
224.432	74.19
224.651	77.89
224.87	60.3
225.089	63.88
225.308	33.22
225.527	61.78
225.746	62.14
225.965	37.56
226.184	1.86
226.404	35.48
226.623	1.83
226.842	15.14
227.061	37.21
227.28	42.45
227.499	29.75
227.718	45.09
227.936	31.33
228.155	48.04
228.374	24.16
228.593	32.1
228.812	31.09
229.031	3.46
229.25	-51.83
229.469	-46.79
229.688	-57.54
229.907	-10.15
230.125	10.51
230.344	9.76
230.563	38.32
230.782	48.3
231.001	-12.39
231.22	-6.16
231.438	43.94
231.657	21.55
231.876	14.76
232.095	41.68
232.313	40.97
232.532	-10.49
232.751	-18.41
232.969	-49.58
233.188	-148.46
233.407	-53.52
233.625	-6.66
233.844	-39.46
234.063	-11.06
234.281	22.51
234.5	-4.32
234.719	-0.84
234.937	34.14
235.156	29.35
235.374	17.72
235.593	9.55
235.811	-13.61
236.03	-35.97
236.249	-73.44
236.467	-56.7
236.686	-8.14
236.904	4.99
237.123	-20.21
237.341	-3.72
237.559	2.75
237.778	-14.04
237.996	-33.88
238.215	7.75
238.433	22.02
238.652	15.79
238.87	-7.88
239.088	9.89
239.307	6.82
239.525	-16.51
239.743	-44.81
239.962	-17.69
240.18	-51.24
240.398	-82.52
240.617	-98.39
240.835	-68.7
241.053	-36.44
241.271	27.01
241.49	29.5
241.708	37.8
241.926	10.24
242.144	-6.16
242.363	-64.36
242.581	-71.26
242.799	-16.34
243.017	13.75
243.235	-4.62
243.453	5.44
243.672	7.31
243.89	1.46
244.108	-9.38
244.326	11.23
244.544	18.31
244.762	15.57
244.98	8.04
245.198	17.98
245.416	-20.33
245.634	-28.44
245.852	-41.38
246.07	-43.02
246.288	-31.96
246.506	-41.42
246.724	-12.25
246.942	-2.21
247.16	19.57
247.378	21.26
247.596	39.32
247.814	40.91
248.032	14.24
248.25	12.98
248.468	19.87
248.685	39.61
248.903	50.77
249.121	57.31
249.339	29.93
249.557	8.09
249.775	-5.74
249.992	-64.93
250.21	-52.37
250.428	-34.61
250.646	-74.06
250.863	-81.54
251.081	-40.15
251.299	-34.86
251.517	-19.52
251.734	15.48
251.952	13.99
252.17	9.44
252.387	16.76
252.605	-6.35
252.823	4.45
253.04	16.11
253.258	20.97
253.475	2.35
253.693	41.85
253.911	28.72
254.128	54
254.346	70.47
254.563	51.88
254.781	30.77
254.998	13.85
255.216	-8.76
255.433	-19.31
255.651	30.36
255.868	47.78
256.086	81.07
256.303	57.65
256.521	47.59
256.738	13.41
256.956	-12.35
257.173	-42.89
257.39	-58.54
257.608	-81.57
257.825	-6.46
258.043	39.26
258.26	45.1
258.477	92.46
258.695	95.89
258.912	23.42
259.129	4.59
259.346	-23.51
259.564	-74.55
259.781	-87.24
259.998	-8.27
260.216	27.45
260.433	62.43
260.65	46.03
260.867	47.32
261.084	12.45
261.302	-9.5
261.519	-26.32
261.736	-33.61
261.953	-56.52
262.17	-7.02
262.387	-38.81
262.604	-62.95
262.822	-55.63
263.039	-23.07
263.256	-67.18
263.473	-25.56
263.69	-12.88
263.907	13.68
264.124	16.1
264.341	7.4
264.558	-1.13
264.775	13.36
264.992	15.78
265.209	21.56
265.426	45.81
265.643	49
265.86	54.79
266.077	60.91
266.294	44.43
266.51	14.23
266.727	-1.07
266.944	6.57
267.161	-19.73
267.378	-12.84
267.595	10.95
267.812	0.54
268.028	-25.19
268.245	7.65
268.462	-13.65
268.679	-49.48
268.896	3.21
269.112	7.83
269.329	-8.26
269.546	0.86
269.763	9.75
269.979	-12.89
270.196	-10.64
270.413	-30.42
270.629	-53.29
270.846	-57.5
271.063	-46.43
271.279	-56.22
271.496	-47.34
271.712	3.39
271.929	37.43
272.146	31.83
272.362	39.16
272.579	87.5
272.795	76.04
273.012	62.73
273.228	68.28
273.445	34.52
273.661	-15.25
273.878	-55.97
274.094	-55.64
274.311	-84.81
274.527	-2.2
274.744	-1.22
274.96	0.91
275.177	22.06
275.393	38.09
275.609	25.82
275.826	55.36
276.042	45.16
276.259	14.44
276.475	19.11
276.691	3.28
276.908	-31.33
277.124	-8.9
277.34	-8.69
277.557	-21.81
277.773	-12.87
277.989	-2.77
278.205	-9.78
278.422	19.2
278.638	28.88
278.854	51.5
279.07	50.83
279.286	47.53
279.503	-3.56
279.719	-23.75
279.935	-63.55
280.151	-71.06
280.367	-37.56
280.583	-46.33
280.799	-17.9
281.016	-10.37
281.232	7.53
281.448	-4.86
281.664	30.7
281.88	-11.06
282.096	-10.52
282.312	18.2
282.528	49.2
282.744	65.93
282.96	67.32
283.176	58.76
283.392	44.37
283.608	18.41
283.824	-0.75
284.04	3.19
284.256	11.37
284.471	-5.71
284.687	-2.76
284.903	35.36
285.119	64.75
285.335	40.55
285.551	56.14
285.767	37.88
285.982	-1.5
286.198	-67.07
286.414	2.75
286.63	22.91
286.846	49.6
287.061	26.53
287.277	60.14
287.493	21.6
287.709	24.02
287.924	-0.4
288.14	38.74
288.356	37.34
288.571	51.7
288.787	30.89
289.003	35.8
289.218	22.43
289.434	-18.99
289.65	-9.85
289.865	-21.89
290.081	12.96
290.296	10
290.512	26.1
290.727	-13.54
290.943	-17.87
291.159	-37.9
291.374	-30.35
291.59	-42.59
291.805	-20.93
292.021	-4.33
292.236	-6.78
292.451	-9.71
292.667	7.45
292.882	27.66
293.098	16.63
293.313	2.23
293.529	-11.53
293.744	-45.44
293.959	-55.96
294.175	-37.85
294.39	2.63
294.605	23.92
294.821	48.58
295.036	53.12
295.251	59.65
295.467	44.49
295.682	41.69
295.897	12.28
296.112	7.4
296.328	12.81
296.543	-22.97
296.758	-28.69
296.973	12.43
297.188	34.87
297.404	1.43
297.619	-13.82
297.834	-21.75
298.049	-60.67
298.264	-98.68
298.479	-24.89
298.694	-3.79
298.909	9.85
299.125	12.8
299.34	17.89
299.555	-24.43
299.77	-16.73
299.985	-56.79
300.2	-108.45
300.415	-105.64
300.63	-64.58
300.845	-75.85
301.06	-59.26
301.275	-7.98
301.49	4.13
301.704	-2.82
301.919	-8.31
302.134	-27.96
302.349	-37.86
302.564	-110.35
302.779	-171.06
302.994	-132.33
303.209	-82.17
303.423	-37.43
303.638	29.7
303.853	13.99
304.068	-10.64
304.283	-1.06
304.497	-15.79
304.712	-24.15
304.927	-17.83
305.142	-22.76
305.356	-9.98
305.571	-9.94
305.786	-32.15
306	-31.5
306.215	-4.53
306.43	-23.07
306.644	-6.34
306.859	64.97
307.074	41.66
307.288	9.39
307.503	8.32
307.717	1.63
307.932	-15.51
308.147	-0.95
308.361	9.5
308.576	-5.35
308.79	-42.62
309.005	-32.81
309.219	-21.2
309.434	-17.7
309.648	-12.03
309.863	9.06
310.077	10.32
310.292	-2.6
310.506	-0.94
310.72	10.65
310.935	7
311.149	-7.34
311.364	10.32
311.578	28.11
311.792	19.78
312.007	28.97
312.221	26.85
312.435	39.71
312.649	11.23
312.864	33.27
313.078	54.8
313.292	117.03
313.507	78.41
313.721	112.99
313.935	57.61
314.149	46.12
314.363	24.4
314.578	22.67
314.792	24.68
315.006	5.99
315.22	11.47
315.434	22.54
315.648	29.73
315.862	35.32
316.077	42
316.291	33
316.505	29.71
316.719	31.07
316.933	-12.87
317.147	-12.62
317.361	-71.11
317.575	-92.03
317.789	-128.81
318.003	-191.24
318.217	-151.3
318.431	-29.35
318.645	4.57
318.859	8.9
319.073	32.72
319.287	19.51
319.5	-18.14
319.714	-53.84
319.928	-65.29
320.142	-76.14
320.356	0.42
320.57	31.87
320.784	40.28
320.997	17.57
321.211	19.95
321.425	-71.8
321.639	-89.69
321.853	-28.5
322.066	-3.57
322.28	-9.42
322.494	2.82
322.707	24.32
322.921	3.25
323.135	-3.84
323.349	6.68
323.562	0.09
323.776	-25.85
323.989	-15.59
324.203	-34.76
324.417	-34.79
324.63	-42.71
324.844	-31.1
325.057	-31.49
325.271	-0.08
325.485	12.41
325.698	24.53
325.912	40.13
326.125	7.26
326.339	0.85
326.552	-25.69
326.766	-24.32
326.979	-11.89
327.193	32.32
327.406	27.45
327.619	25.42
327.833	46.26
328.046	12.29
328.26	-22.72
328.473	-2.78
328.686	-24.68
328.9	-23.57
329.113	2.72
329.326	-2.34
329.54	1.97
329.753	10.13
329.966	-13.18
330.179	2.88
330.393	23.72
330.606	25.38
330.819	28.48
331.032	47.18
331.246	48.35
331.459	62.71
331.672	55.75
331.885	48.06
332.098	12.4
332.311	-1.79
332.525	-58.03
332.738	-40.78
332.951	-5.11
333.164	20.82
333.377	32.81
333.59	59.05
333.803	51.68
334.016	39.6
334.229	33.15
334.442	23.04
334.655	36.05
334.868	36.28
335.081	22.18
335.294	15.72
335.507	3.83
335.72	-11.35
335.933	-22.61
336.146	-21.77
336.359	-13.89
336.572	-36.29
336.785	-59.96
336.997	-45.96
337.21	-4.72
337.423	0.1
337.636	12.06
337.849	21.48
338.062	15.78
338.274	6.06
338.487	-20.35
338.7	-8.14
338.913	-41.06
339.125	-56.6
339.338	-133.58
339.551	-108.98
339.763	-57.59
339.976	-10.12
340.189	8.31
340.402	40.74
340.614	31.03
340.827	2.33
341.039	-28.16
341.252	-24.63
341.465	-9.63
341.677	-0.07
341.89	-27.78
342.102	-0.42
342.315	-19.9
342.527	-57.45
342.74	-56.04
342.952	-11.09
343.165	-15.96
343.377	10.95
343.59	1.22
343.802	14.9
344.015	7.21
344.227	29.12
344.44	18.78
344.652	37.31
344.864	31.81
345.077	50.99
345.289	45.61
345.502	55.19
345.714	46.48
345.926	44.29
346.139	24.76
346.351	28.45
346.563	27.67
346.775	31.24
346.988	18.07
347.2	16.69
347.412	-32
347.624	-50.43
347.837	-61.85
348.049	-14.36
348.261	10.78
348.473	12.97
348.685	6.28
348.897	-1.64
349.11	-36.74
349.322	-82.65
349.534	-47.38
349.746	-32.5
349.958	-8.77
350.17	-7.18
350.382	10.14
350.594	-5.79
350.806	-10.27
351.018	-24.36
351.23	-32.97
351.442	-88.04
351.654	-85.13
351.866	-62.53
352.078	-34.41
352.29	-2.66
352.502	20.78
352.714	24.8
352.926	5.93
353.138	-4.15
353.35	-22.69
353.561	-27.68
353.773	-47.1
353.985	-21.78
354.197	-34.09
354.409	-31.26
354.621	-21.4
354.832	-5.97
355.044	-25.43
355.256	-11.79
355.468	10.01
355.679	-4.1
355.891	-0.49
356.103	0.72
356.314	-5.97
356.526	-5.69
356.738	-3.15
356.949	-10.35
357.161	7.57
357.373	9.76
357.584	-16.51
357.796	3.12
358.008	15.22
358.219	24.82
358.431	19.49
358.642	31.01
358.854	30.66
359.065	1.99
359.277	-33.65
359.488	-35.1
359.7	-58.9
359.911	-81.86
360.123	-48.77
360.334	-58.43
360.546	-76.45
360.757	-62.9
360.969	-34.61
361.18	-19.42
361.391	9.37
361.603	15.91
361.814	21.77
362.025	11.77
362.237	-1.95
362.448	14.12
362.659	26.82
362.871	27.12
363.082	22.03
363.293	20.15
363.504	-5.14
363.716	-28.63
363.927	-35.38
364.138	-65.45
364.349	-72.55
364.56	-66.77
364.772	-53.55
364.983	-35.22
365.194	-21.76
365.405	-0.5
365.616	16.27
365.827	16.32
366.038	-3.2
366.25	-16.34
366.461	-56.25
366.672	-32.68
366.883	-5.3
367.094	7.33
367.305	-1.62
367.516	12.46
367.727	-10.6
367.938	-24.19
368.149	-23.93
368.36	11.9
368.571	8.39
368.781	-1.36
368.992	-27.96
369.203	-44.16
369.414	-79.98
369.625	-94.58
369.836	-82.96
370.047	-103.69
370.258	-78.09
370.468	-67.66
370.679	-73.03
370.89	-62.99
371.101	-20.94
371.312	-28.64
371.522	-10.65
371.733	-3.21
371.944	9.45
372.155	11.42
372.365	-0.96
372.576	-11.49
372.787	-9.37
372.997	-40.43
373.208	-45.73
373.419	-14.29
373.629	-41.3
373.84	-44.64
374.05	-39.58
374.261	-27.79
374.472	-50.71
374.682	8.95
374.893	12.26
375.103	40.63
375.314	28.09
375.524	30.74
375.735	19.58
375.945	25.4
376.156	-5.53
376.366	-6.58
376.577	-8.5
376.787	-15.97
376.997	-7.48
377.208	7
377.418	6.49
377.629	21.35
377.839	19.63
378.049	9.52
378.26	11.15
378.47	21.45
378.68	11.15
378.89	7.35
379.101	-0.14
379.311	-19.55
379.521	-46.5
379.732	-42.52
379.942	-39.18
380.152	-52.71
380.362	-23.13
380.572	-16.83
380.783	0.17
380.993	10.36
381.203	22.76
381.413	24.99
381.623	23.67
381.833	7.65
382.043	-8.19
382.253	-13.5
382.463	-16.02
382.674	-19.33
382.884	-30.2
383.094	-23.15
383.304	-18.63
383.514	-6.94
383.724	7.16
383.934	5.79
384.144	-4.07
384.353	-2.86
384.563	-10.66
384.773	-17.22
384.983	-21.5
385.193	-5.27
385.403	-4.8
385.613	1.03
385.823	-0.9
386.033	10.33
386.242	4.2
386.452	-1.59
386.662	-12.91
386.872	-4.47
387.082	-13.19
387.291	-19.72
387.501	-17.91
387.711	-8.37
387.921	-23.15
388.13	-20.22
388.34	-5.05
388.55	-5.79
388.759	-8.69
388.969	3.22
389.179	0.47
389.388	-5.54
389.598	-0.16
389.807	-6.33
390.017	-12.05
390.227	-11.66
390.436	-10.83
390.646	-12.51
390.855	-6.96
391.065	-5.98
391.274	-5.86
391.484	-9.06
391.693	-6.23
391.903	-3.13
392.112	2.24
392.322	5.74
392.531	11.28
392.74	10.06
392.95	2.86
393.159	-0.83
393.369	-1.16
393.578	-2.23
393.787	-2.68
393.997	0.91
394.206	0.59
394.415	0.57
394.625	-0.49
394.834	-2.27
395.043	-1.47
395.252	1.15
395.462	3.21
395.671	4.12
395.88	5.08
396.089	4.96
396.298	3.09
396.508	1.75
396.717	1.17
396.926	1.92
397.135	1.75
397.344	2.27
397.553	3.79
397.762	5.55
397.971	5.45
398.181	5.45
398.39	4.23
398.599	3.33
398.808	2.34
399.017	2.83
399.226	4.55
399.435	6.03
399.644	6.33
399.853	5.76
400.062	5.35
400.27	4.33
400.479	3.54
400.688	2.71
400.897	3.19
401.106	3.45
401.315	3.17
401.524	3.36
401.733	4.02
401.941	4.38
402.15	4.58
402.359	4.47
402.568	5.11
402.777	5.07
402.985	4.71
403.194	4.31
403.403	4.58
403.612	3.93
403.82	3.76
404.029	3.88
404.238	3.96
404.446	4.03
404.655	3.76
404.864	3.76
405.072	3.62
405.281	3.71
405.489	3.31
405.698	3.6
405.906	3.67
406.115	3.71
406.324	3.66
406.532	3.87
406.741	4.05
406.949	4.02
407.158	4.03
407.366	4.01
407.574	3.89
407.783	3.73
407.991	3.59
408.2	3.68
408.408	3.62
408.617	3.57
408.825	3.49
409.033	3.52
409.242	3.51
409.45	3.67
409.658	3.56
409.867	3.73
410.075	3.69
410.283	3.54
410.491	3.31
410.7	3.37
410.908	3.29
411.116	3.47
411.324	3.47
411.533	3.47
411.741	3.76
411.949	3.71
412.157	3.45
412.365	3.4
412.573	3.37
412.781	3.25
412.99	3.16
413.198	3.34
413.406	3.49
413.614	3.52
413.822	3.33
414.03	3.27
414.238	3.03
414.446	2.93
414.654	2.71
414.862	2.82
415.07	2.9
415.278	3.23
415.486	3.11
415.694	3.37
415.902	3.24
416.109	3.11
416.317	2.88
416.525	2.76
416.733	2.63
416.941	2.81
417.149	2.8
417.357	2.85
417.564	3.06
417.772	3.31
417.98	3.2
418.188	3.33
418.395	3.54
418.603	3.64
418.811	3.27
419.019	3.14
419.226	3.16
419.434	2.93
419.642	2.57
419.849	2.74
420.057	2.79
420.265	2.85
420.472	2.64
420.68	2.82
420.887	2.72
421.095	2.79
421.302	2.64
421.51	2.79
421.717	2.84
421.925	2.98
422.132	2.92
422.34	2.83
422.547	3.01
422.755	2.95
422.962	2.88
423.17	2.74
423.377	2.82
423.585	2.8
423.792	2.65
423.999	2.63
424.207	2.7
424.414	2.84
424.621	2.74
424.829	2.79
425.036	2.79
425.243	3.01
425.451	2.85
425.658	2.72
425.865	2.92
426.072	2.93
426.28	2.98
426.487	2.94
426.694	3.14
426.901	2.92
427.108	2.84
427.315	2.69
427.523	2.95
427.73	2.91
427.937	2.93
428.144	2.88
428.351	2.84
428.558	2.86
428.765	2.67
428.972	2.64
429.179	2.85
429.386	3.12
429.593	2.82
429.8	2.78
430.007	2.93
430.214	2.92
430.421	2.63
430.628	2.56
430.835	2.52
431.042	2.62
431.249	2.67
431.456	2.74
431.662	2.95
431.869	3.13
432.076	3.11
432.283	3.22
432.49	3.17
432.697	3.12
432.903	2.94
433.11	2.91
433.317	2.94
433.524	3.19
433.73	3.18
433.937	3.42
434.144	3.25
434.35	3.13
434.557	2.91
434.764	2.95
434.97	2.81
435.177	3.02
435.384	2.96
435.59	3.05
435.797	3.23
436.003	3.34
436.21	3.28
436.416	3.39
436.623	3.37
436.829	3.38
437.036	3.44
437.242	3.48
437.449	3.32
437.655	3.36
437.862	3.38
438.068	3.19
438.275	3.28
438.481	3.63
438.687	3.66
438.894	3.61
439.1	3.73
439.307	3.92
439.513	3.72
439.719	3.66
439.926	3.71
440.132	3.67
440.338	3.39
440.544	3.51
440.751	3.46
440.957	3.59
441.163	3.55
441.369	3.65
441.575	3.37
441.782	3.52
441.988	3.19
442.194	3.27
442.4	3.25
442.606	3.61
442.812	3.58
443.018	3.76
443.224	3.8
443.431	3.89
443.637	3.64
443.843	3.57
444.049	3.67
444.255	3.61
444.461	3.61
444.667	3.62
444.873	3.8
445.079	3.74
445.284	3.81
445.49	3.62
445.696	3.48
445.902	3.37
446.108	3.34
446.314	3.29
446.52	3.4
446.726	3.67
446.931	3.66
447.137	3.62
447.343	3.65
447.549	3.55
447.755	3.45
447.96	3.43
448.166	3.4
448.372	3.33
448.578	3.4
448.783	3.34
448.989	3.47
449.195	3.7
449.4	3.81
449.606	3.77
449.812	3.77
450.017	3.73
450.223	3.59
450.428	3.48
450.634	3.67
450.84	3.88
451.045	3.88
451.251	3.82
451.456	4.14
451.662	4.11
451.867	4.11
452.073	4.03
452.278	4.2
452.483	4.2
452.689	4.08
452.894	4.04
453.1	4.08
453.305	3.99
453.51	3.8
453.716	3.87
453.921	3.89
454.127	3.8
454.332	3.67
454.537	3.6
454.742	3.57
454.948	3.51
455.153	3.62
455.358	3.8
455.563	4
455.769	4.11
455.974	4.13
456.179	4.08
456.384	4.01
456.589	3.97
456.795	3.75
457	3.7
457.205	3.87
457.41	3.87
457.615	3.76
457.82	3.93
458.025	3.95
458.23	3.83
458.435	3.89
458.64	3.82
458.845	3.93
459.05	3.9
459.255	3.83
459.46	3.77
459.665	3.91
459.87	3.79
460.075	3.89
460.28	3.96
460.485	4.09
460.69	4.08
460.895	4.02
461.099	3.9
461.304	4
461.509	3.99
461.714	3.81
461.919	3.91
462.123	3.85
462.328	3.88
462.533	3.8
462.738	4.04
462.942	3.91
463.147	4.11
463.352	4.16
463.556	4.21
463.761	4.16
463.966	4.14
464.17	4.03
464.375	3.88
464.58	3.83
464.784	3.78
464.989	3.83
465.193	3.88
465.398	3.9
465.602	3.99
465.807	3.94
466.011	4.06
466.216	4.14
466.42	4.18
466.625	4.19
466.829	4.32
467.034	4.34
467.238	4.51
467.443	4.44
467.647	4.31
467.851	4.37
468.056	4.34
468.26	4.15
468.464	4.18
468.669	4.39
468.873	4.39
469.077	4.41
469.282	4.58
469.486	4.61
469.69	4.52
469.894	4.37
470.099	4.46
470.303	4.44
470.507	4.33
470.711	4.31
470.915	4.42
471.119	4.33
471.324	4.22
471.528	4.38
471.732	4.45
471.936	4.44
472.14	4.45
472.344	4.49
472.548	4.46
472.752	4.67
472.956	4.89
473.16	4.87
473.364	4.85
473.568	4.81
473.772	4.76
473.976	4.6
474.18	4.6
474.384	4.64
474.588	4.67
474.792	4.51
474.995	4.56
475.199	4.69
475.403	4.81
475.607	4.9
475.811	4.91
476.015	5.01
476.218	5
476.422	4.91
476.626	4.93
476.83	5.03
477.033	4.94
477.237	4.79
477.441	4.81
477.644	4.76
477.848	4.7
478.052	4.66
478.255	4.74
478.459	4.76
478.663	4.93
478.866	5.05
479.07	5.05
479.273	5.25
479.477	5.28
479.681	5.22
479.884	5.12
480.088	5.08
480.291	4.99
480.495	4.99
480.698	4.96
480.901	5.06
481.105	5.3
481.308	5.29
481.512	5.32
481.715	5.46
481.919	5.44
482.122	5.38
482.325	5.35
482.529	5.34
482.732	5.25
482.935	5.21
483.138	5.15
483.342	5.31
483.545	5.38
483.748	5.39
483.952	5.48
484.155	5.57
484.358	5.53
484.561	5.46
484.764	5.45
484.967	5.46
485.171	5.53
485.374	5.44
485.577	5.59
485.78	5.67
485.983	5.63
486.186	5.47
486.389	5.46
486.592	5.42
486.795	5.41
486.998	5.38
487.201	5.49
487.404	5.57
487.607	5.57
487.81	5.58
488.013	5.73
488.216	5.67
488.419	5.69
488.622	5.67
488.825	5.57
489.028	5.43
489.231	5.43
489.433	5.33
489.636	5.23
489.839	5.27
490.042	5.24
490.245	5.2
490.447	5.31
490.65	5.39
490.853	5.4
491.056	5.52
491.258	5.61
491.461	5.66
491.664	5.74
491.866	5.73
492.069	5.77
492.272	5.63
492.474	5.58
492.677	5.54
492.879	5.56
493.082	5.64
493.285	5.84
493.487	5.82
493.69	5.81
493.892	5.8
494.095	5.67
494.297	5.58
494.5	5.64
494.702	5.7
494.905	5.73
495.107	5.74
495.309	5.8
495.512	5.83
495.714	5.77
495.917	5.8
496.119	5.79
496.321	5.82
496.524	5.84
496.726	5.91
496.928	5.94
497.13	5.91
497.333	5.84
497.535	5.85
497.737	5.84
497.939	5.82
498.142	5.9
498.344	5.9
498.546	5.78
498.748	5.8
498.95	5.92
499.152	5.87
499.355	5.95
499.557	6.06
499.759	6.14
499.961	6.03
500.163	6.14
500.365	6.12
500.567	6.24
500.769	6.11
500.971	6.13
501.173	6.03
501.375	6.1
501.577	5.97
501.779	6.05
501.981	6.11
502.183	6.21
502.385	6.19
502.587	6.15
502.788	6.2
502.99	6.23
503.192	6.28
503.394	6.32
503.596	6.38
503.798	6.43
503.999	6.45
504.201	6.43
504.403	6.46
504.605	6.47
504.806	6.39
505.008	6.41
505.21	6.47
505.411	6.49
505.613	6.49
505.815	6.51
506.016	6.54
506.218	6.62
506.42	6.6
506.621	6.66
506.823	6.73
507.024	6.66
507.226	6.57
507.427	6.56
507.629	6.61
507.83	6.62
508.032	6.66
508.233	6.71
508.435	6.8
508.636	6.84
508.838	6.74
509.039	6.78
509.24	6.8
509.442	6.8
509.643	6.7
509.845	6.76
510.046	6.82
510.247	6.81
510.448	6.76
510.65	6.86
510.851	7.03
511.052	6.98
511.254	7
511.455	7.2
511.656	7.26
511.857	7.28
512.058	7.3
512.26	7.31
512.461	7.21
512.662	7.22
512.863	7.08
513.064	7.08
513.265	7.09
513.466	7.13
513.667	7.1
513.868	7.13
514.069	7.17
514.27	7.23
514.471	7.17
514.672	7.23
514.873	7.26
515.074	7.38
515.275	7.3
515.476	7.35
515.677	7.36
515.878	7.52
516.079	7.43
516.28	7.49
516.481	7.57
516.682	7.54
516.882	7.39
517.083	7.44
517.284	7.36
517.485	7.3
517.686	7.25
517.886	7.27
518.087	7.31
518.288	7.37
518.488	7.33
518.689	7.36
518.89	7.31
519.091	7.3
519.291	7.3
519.492	7.38
519.692	7.49
519.893	7.65
520.094	7.63
520.294	7.63
520.495	7.62
520.695	7.62
520.896	7.58
521.096	7.6
521.297	7.67
521.497	7.68
521.698	7.67
521.898	7.63
522.099	7.66
522.299	7.7
522.499	7.69
522.7	7.71
522.9	7.77
523.101	7.8
523.301	7.8
523.501	7.81
523.702	7.78
523.902	7.84
524.102	7.91
524.302	7.89
524.503	8
524.703	8.07
524.903	8.09
525.103	8
525.304	8.04
525.504	8.05
525.704	8.07
525.904	7.98
526.104	7.97
526.304	7.99
526.504	8.02
526.705	8.01
526.905	8.1
527.105	8.17
527.305	8.14
527.505	8.03
527.705	8.03
527.905	8.08
528.105	8.08
528.305	8.03
528.505	8.11
528.705	8.15
528.905	8.07
529.105	8.07
529.304	8.18
529.504	8.29
529.704	8.24
529.904	8.31
530.104	8.33
530.304	8.45
530.503	8.36
530.703	8.35
530.903	8.32
531.103	8.33
531.303	8.24
531.502	8.29
531.702	8.42
531.902	8.49
532.101	8.47
532.301	8.45
532.501	8.44
532.7	8.41
532.9	8.41
533.1	8.45
533.299	8.52
533.499	8.57
533.698	8.58
533.898	8.55
534.097	8.54
534.297	8.6
534.496	8.57
534.696	8.59
534.895	8.71
535.095	8.86
535.294	8.83
535.494	8.79
535.693	8.87
535.892	8.81
536.092	8.71
536.291	8.69
536.491	8.81
536.69	8.83
536.889	8.83
537.088	8.84
537.288	8.95
537.487	8.97
537.686	8.96
537.886	9.01
538.085	9.05
538.284	9.15
538.483	9.09
538.682	9.13
538.882	9.23
539.081	9.29
539.28	9.19
539.479	9.24
539.678	9.22
539.877	9.25
540.076	9.22
540.275	9.26
540.474	9.36
540.673	9.42
540.872	9.38
541.071	9.47
541.27	9.53
541.469	9.57
541.668	9.66
541.867	9.72
542.066	9.74
542.265	9.76
542.464	9.75
542.663	9.76
542.862	9.9
543.06	9.98
543.259	10.05
543.458	10.11
543.657	10.15
543.856	10.13
544.054	10.11
544.253	10.11
544.452	10.09
544.651	10.15
544.849	10.16
545.048	10.26
545.247	10.31
545.445	10.4
545.644	10.44
545.843	10.42
546.041	10.43
546.24	10.52
546.438	10.61
546.637	10.63
546.836	10.81
547.034	10.9
547.233	10.92
547.431	10.92
547.63	10.94
547.828	10.97
548.027	11.02
548.225	11.05
548.423	11.07
548.622	11.24
548.82	11.24
549.019	11.28
549.217	11.44
549.415	11.57
549.614	11.62
549.812	11.64
550.01	11.64
550.209	11.72
550.407	11.79
550.605	11.79
550.803	11.87
551.002	12.03
551.2	11.99
551.398	12.07
551.596	12.25
551.794	12.36
551.993	12.45
552.191	12.58
552.389	12.69
552.587	12.71
552.785	12.77
552.983	12.82
553.181	12.93
553.379	12.98
553.577	13.02
553.775	13.18
553.973	13.24
554.171	13.39
554.369	13.4
554.567	13.49
554.765	13.54
554.963	13.68
555.161	13.64
555.359	13.78
555.557	13.96
555.755	14.04
555.952	14.16
556.15	14.21
556.348	14.31
556.546	14.42
556.744	14.54
556.941	14.57
557.139	14.73
557.337	14.77
557.535	14.74
557.732	14.85
557.93	14.98
558.128	15.13
558.325	15.29
558.523	15.33
558.721	15.44
558.918	15.49
559.116	15.47
559.313	15.52
559.511	15.7
559.708	15.8
559.906	15.92
560.104	16.07
560.301	16.21
560.498	16.33
560.696	16.33
560.893	16.49
561.091	16.68
561.288	16.84
561.486	16.95
561.683	17.13
561.88	17.18
562.078	17.24
562.275	17.2
562.473	17.33
562.67	17.48
562.867	17.59
563.064	17.71
563.262	17.83
563.459	17.91
563.656	18.06
563.853	18.19
564.051	18.31
564.248	18.52
564.445	18.65
564.642	18.69
564.839	18.85
565.036	19
565.234	19.17
565.431	19.23
565.628	19.36
565.825	19.5
566.022	19.6
566.219	19.67
566.416	19.85
566.613	19.98
566.81	20.02
567.007	20.05
567.204	20.13
567.401	20.18
567.598	20.25
567.795	20.29
567.991	20.37
568.188	20.39
568.385	20.51
568.582	20.66
568.779	20.81
568.976	20.98
569.172	21.14
569.369	21.16
569.566	21.17
569.763	21.18
569.96	21.18
570.156	21.23
570.353	21.21
570.55	21.26
570.746	21.33
570.943	21.45
571.14	21.52
571.336	21.72
571.533	21.85
571.729	21.89
571.926	21.9
572.123	21.96
572.319	22.07
572.516	22.04
572.712	22.15
572.909	22.13
573.105	22.29
573.302	22.26
573.498	22.44
573.695	22.42
573.891	22.52
574.087	22.56
574.284	22.59
574.48	22.46
574.677	22.59
574.873	22.63
575.069	22.74
575.266	22.83
575.462	22.89
575.658	22.94
575.854	23.02
576.051	22.91
576.247	22.86
576.443	22.91
576.639	22.86
576.835	22.8
577.032	22.74
577.228	22.91
577.424	22.97
577.62	22.94
577.816	23.04
578.012	23.08
578.208	22.98
578.404	22.95
578.6	23.02
578.796	22.98
578.993	22.98
579.189	22.97
579.384	22.83
579.58	22.81
579.776	22.77
579.972	22.8
580.168	22.71
580.364	22.83
580.56	22.78
580.756	22.7
580.952	22.69
581.148	22.75
581.343	22.8
581.539	22.82
581.735	22.89
581.931	22.87
582.127	22.94
582.322	22.8
582.518	22.83
582.714	22.88
582.909	22.86
583.105	22.8
583.301	22.86
583.496	22.8
583.692	22.7
583.888	22.62
584.083	22.66
584.279	22.74
584.474	22.68
584.67	22.75
584.866	22.87
585.061	22.67
585.257	22.63
585.452	22.74
585.648	22.66
585.843	22.62
586.039	22.71
586.234	22.72
586.429	22.7
586.625	22.84
586.82	22.83
587.015	22.83
587.211	22.72
587.406	22.7
587.601	22.6
587.797	22.51
587.992	22.47
588.187	22.64
588.383	22.57
588.578	22.56
588.773	22.66
588.968	22.76
589.163	22.77
589.359	22.82
589.554	22.83
589.749	22.89
589.944	22.97
590.139	22.94
590.334	22.96
590.529	23.04
590.724	23.02
590.919	23.06
591.114	23.12
591.309	23.22
591.504	23.26
591.699	23.3
591.894	23.39
592.089	23.36
592.284	23.34
592.479	23.47
592.674	23.56
592.869	23.57
593.064	23.74
593.259	23.84
593.454	23.91
593.648	24.04
593.843	24.06
594.038	24.11
594.233	24.13
594.428	24.13
594.622	24.15
594.817	24.34
595.012	24.37
595.206	24.45
595.401	24.52
595.596	24.57
595.79	24.57
595.985	24.67
596.18	24.77
596.374	24.9
596.569	25.03
596.763	25.06
596.958	25.14
597.153	25.25
597.347	25.27
597.542	25.36
597.736	25.49
597.931	25.59
598.125	25.69
598.319	25.9
598.514	25.89
598.708	25.95
598.903	25.95
599.097	25.96
599.291	25.93
599.486	25.96
599.68	25.95
599.874	26.11
600.069	26.07
600.263	26.04
600.457	26.12
600.651	26.2
600.846	26.19
601.04	26.4
601.234	26.47
601.428	26.57
601.622	26.62
601.817	26.65
602.011	26.6
602.205	26.73
602.399	26.77
602.593	26.88
602.787	26.94
602.981	27.05
603.175	26.93
603.369	26.85
603.563	26.73
603.757	26.76
603.951	26.76
604.145	26.85
604.339	26.95
604.533	26.88
604.727	26.79
604.921	26.61
605.115	26.61
605.309	26.64
605.502	26.65
605.696	26.55
605.89	26.62
606.084	26.5
606.278	26.41
606.471	26.26
606.665	26.3
606.859	26.22
607.053	26.19
607.246	26.07
607.44	26.17
607.634	26.09
607.827	26.12
608.021	25.96
608.214	25.98
608.408	25.82
608.602	25.77
608.795	25.71
608.989	25.71
609.182	25.62
609.376	25.54
609.569	25.48
609.763	25.27
609.956	25.25
610.15	25.08
610.343	25.05
610.537	24.91
610.73	24.94
610.923	24.82
611.117	24.8
611.31	24.74
611.504	24.64
611.697	24.5
611.89	24.39
612.083	24.24
612.277	24.22
612.47	24.08
612.663	24.02
612.856	24.01
613.05	23.96
613.243	23.91
613.436	23.88
613.629	23.76
613.822	23.68
614.015	23.66
614.209	23.38
614.402	23.42
614.595	23.36
614.788	23.27
614.981	23.1
615.174	23.07
615.367	22.87
615.56	22.77
615.753	22.68
615.946	22.65
616.139	22.68
616.332	22.8
616.525	22.9
616.718	22.94
616.911	22.89
617.103	22.83
617.296	22.79
617.489	22.6
617.682	22.52
617.875	22.5
618.067	22.43
618.26	22.16
618.453	22.17
618.646	22.05
618.838	22
619.031	22.08
619.224	22.1
619.417	22.07
619.609	22.11
619.802	22.06
619.994	22.01
620.187	22
620.38	21.92
620.572	21.76
620.765	21.79
620.957	21.64
621.15	21.54
621.342	21.49
621.535	21.52
621.727	21.42
621.92	21.36
622.112	21.38
622.305	21.44
622.497	21.37
622.69	21.4
622.882	21.44
623.074	21.45
623.267	21.41
623.459	21.38
623.651	21.33
623.844	21.34
624.036	21.37
624.228	21.28
624.42	21.26
624.613	21.37
624.805	21.26
624.997	21.16
625.189	21.15
625.381	21.13
625.574	20.92
625.766	20.93
625.958	20.94
626.15	20.94
626.342	20.92
626.534	20.97
626.726	20.88
626.918	20.78
627.11	20.72
627.302	20.71
627.494	20.64
627.686	20.67
627.878	20.65
628.07	20.65
628.262	20.55
628.454	20.57
628.646	20.6
628.838	20.64
629.029	20.47
629.221	20.54
629.413	20.45
629.605	20.35
629.797	20.26
629.989	20.36
630.18	20.32
630.372	20.19
630.564	20.12
630.755	20.15
630.947	20.23
631.139	20.11
631.33	20.18
631.522	20.23
631.714	20.15
631.905	20.06
632.097	20.01
632.289	19.91
632.48	19.88
632.672	19.69
632.863	19.48
633.055	19.41
633.246	19.45
633.438	19.36
633.629	19.46
633.821	19.6
634.012	19.61
634.203	19.46
634.395	19.47
634.586	19.49
634.777	19.33
634.969	19.37
635.16	19.48
635.351	19.41
635.543	19.44
635.734	19.55
635.925	19.59
636.117	19.53
636.308	19.53
636.499	19.46
636.69	19.36
636.881	19.3
637.073	19.37
637.264	19.39
637.455	19.49
637.646	19.56
637.837	19.61
638.028	19.57
638.219	19.64
638.41	19.49
638.601	19.4
638.792	19.41
638.983	19.3
639.174	19.25
639.365	19.35
639.556	19.35
639.747	19.25
639.938	19.44
640.129	19.34
640.32	19.25
640.511	19.33
640.701	19.42
640.892	19.24
641.083	19.38
641.274	19.47
641.465	19.39
641.655	19.24
641.846	19.25
642.037	19.15
642.228	19.12
642.418	19.12
642.609	19.15
642.8	19.17
642.99	19.01
643.181	18.99
643.372	19.07
643.562	19.03
643.753	18.91
643.943	18.99
644.134	18.85
644.324	18.77
644.515	18.71
644.705	18.85
644.896	18.84
645.086	18.91
645.277	18.8
645.467	18.85
645.658	18.74
645.848	18.8
646.038	18.73
646.229	18.83
646.419	18.7
646.61	18.61
646.8	18.44
646.99	18.39
647.18	18.31
647.371	18.4
647.561	18.41
647.751	18.54
647.941	18.46
648.132	18.43
648.322	18.38
648.512	18.46
648.702	18.42
648.892	18.43
649.082	18.39
649.272	18.3
649.462	18.13
649.653	17.98
649.843	17.9
650.033	17.86
650.223	17.8
650.413	17.77
650.603	17.81
650.793	17.92
650.983	17.84
651.172	17.8
651.362	17.76
651.552	17.7
651.742	17.5
651.932	17.44
652.122	17.42
652.312	17.49
652.502	17.33
652.691	17.36
652.881	17.32
653.071	17.28
653.261	17.17
653.45	17.08
653.64	17.01
653.83	16.99
654.019	16.89
654.209	16.75
654.399	16.67
654.588	16.6
654.778	16.38
654.968	16.16
655.157	16.06
655.347	16
655.536	15.77
655.726	15.65
655.915	15.55
656.105	15.3
656.294	15.13
656.484	14.93
656.673	14.75
656.863	14.75
657.052	14.59
657.241	14.39
657.431	14.19
657.62	14.03
657.809	13.55
657.999	13.44
658.188	13.28
658.377	13.09
658.567	13.01
658.756	12.96
658.945	12.67
659.134	12.41
659.324	12.27
659.513	12.08
659.702	11.89
659.891	11.87
660.08	11.74
660.269	11.7
660.458	11.53
660.648	11.42
660.837	11.2
661.026	11.14
661.215	10.9
661.404	10.71
661.593	10.59
661.782	10.34
661.971	10.21
662.16	10.09
662.349	9.91
662.538	9.75
662.726	9.72
662.915	9.54
663.104	9.43
663.293	9.45
663.482	9.47
663.671	9.31
663.86	9.19
664.048	9.04
664.237	8.95
664.426	8.69
664.615	8.74
664.803	8.71
664.992	8.67
665.181	8.5
665.369	8.43
665.558	8.3
665.747	8.21
665.935	8.2
666.124	8.25
666.312	8.24
666.501	8.18
666.69	7.98
666.878	7.88
667.067	7.68
667.255	7.78
667.444	8.03
667.632	8.16
667.82	8.17
668.009	8.22
668.197	8.08
668.386	7.81
668.574	7.91
668.762	7.8
668.951	7.7
669.139	7.74
669.327	7.65
669.516	7.63
669.704	7.6
669.892	7.84
670.08	7.88
670.269	7.84
670.457	7.67
670.645	7.6
670.833	7.49
671.021	7.51
671.21	7.64
671.398	7.88
671.586	7.99
671.774	7.98
671.962	7.89
672.15	7.87
672.338	7.75
672.526	7.8
672.714	7.85
672.902	7.88
673.09	8.07
673.278	8.44
673.466	8.53
673.654	8.7
673.842	8.72
674.03	8.73
674.218	8.48
674.405	8.56
674.593	8.44
674.781	8.57
674.969	8.61
675.157	8.79
675.344	8.86
675.532	9.01
675.72	9.16
675.908	9.23
676.095	9.17
676.283	9.25
676.471	9.4
676.658	9.45
676.846	9.53
677.033	9.67
677.221	9.7
677.409	9.55
677.596	9.68
677.784	9.77
677.971	9.87
678.159	9.91
678.346	10
678.534	10.02
678.721	10.23
678.909	10.27
679.096	10.38
679.283	10.86
679.471	11.01
679.658	11.01
679.846	11.31
680.033	11.69
680.22	11.64
680.408	11.74
680.595	11.84
680.782	11.78
680.969	11.76
681.157	11.81
681.344	11.92
681.531	12.06
681.718	12.17
681.905	12.33
682.093	12.56
682.28	12.88
682.467	13.22
682.654	13.36
682.841	13.56
683.028	13.69
683.215	13.89
683.402	13.9
683.589	14.2
683.776	14.39
683.963	14.53
684.15	14.64
684.337	14.87
684.524	15.08
684.711	15.35
684.898	15.58
685.085	15.75
685.271	16.13
685.458	16.38
685.645	16.56
685.832	16.95
686.019	17.43
686.205	17.64
686.392	17.95
686.579	18.45
686.766	18.84
686.952	19.01
687.139	19.6
687.326	19.76
687.512	20.03
687.699	20.38
687.886	20.74
688.072	20.83
688.259	21.51
688.445	22.05
688.632	22.49
688.818	23.36
689.005	23.84
689.191	24.37
689.378	24.96
689.564	25.33
689.751	25.59
689.937	26.36
690.124	26.99
690.31	27.25
690.496	27.98
690.683	28.63
690.869	29.03
691.055	29.47
691.242	30.4
691.428	30.88
691.614	31.56
691.8	32.27
691.987	32.97
692.173	33.44
692.359	34.46
692.545	35.13
692.731	35.86
692.918	36.48
693.104	37.18
693.29	37.51
693.476	38.04
693.662	38.69
693.848	39.29
694.034	39.73
694.22	40.24
694.406	40.92
694.592	41.46
694.778	42.2
694.964	42.97
695.15	43.71
695.336	44.13
695.522	44.97
695.708	45.59
695.894	46.07
696.08	46.84
696.265	47.43
696.451	47.88
696.637	48.59
696.823	49.27
697.009	49.61
697.194	50.38
697.38	50.67
697.566	51.15
697.751	51.84
697.937	52.83
698.123	53.58
698.308	54.35
698.494	54.93
698.68	55.16
698.865	55.49
699.051	55.89
699.236	56.39
699.422	56.85
699.607	57.34
699.793	57.98
699.978	58.2
700.164	58.42
700.349	58.98
700.535	59.43
700.72	59.52
700.906	60.3
701.091	60.9
701.276	61.37
701.462	62.3
701.647	63.18
701.832	63.49
702.018	63.9
702.203	64.02
702.388	63.86
702.573	63.76
702.759	64.27
702.944	64.53
703.129	64.87
703.314	65.67
703.499	65.96
703.684	65.94
703.87	67.29
704.055	67.91
704.24	67.88
704.425	68.52
704.61	68.96
704.795	68.51
704.98	68.43
705.165	68.66
705.35	68.68
705.535	68.97
705.72	69.15
705.905	69.53
706.09	70.17
706.275	70.34
706.459	70.18
706.644	70.29
706.829	70.46
707.014	69.96
707.199	70.43
707.384	70.94
707.568	71.33
707.753	71.72
707.938	72.33
708.123	72.09
708.307	72.21
708.492	72.3
708.677	72.28
708.861	72.31
709.046	72.47
709.231	73.28
709.415	73.62
709.6	73.57
709.784	73.66
709.969	74.24
710.153	73.88
710.338	73.77
710.522	73.93
710.707	74.39
710.891	74.39
711.076	74.24
711.26	74.28
711.445	74.83
711.629	74.83
711.813	74.69
711.998	75.47
712.182	75.55
712.366	75.86
712.551	76.45
712.735	77.09
712.919	76.56
713.103	77.03
713.288	76.89
713.472	76.48
713.656	76.74
713.84	76.98
714.024	76.92
714.208	76.73
714.393	77.08
714.577	76.86
714.761	77.18
714.945	77.32
715.129	77.2
715.313	77.25
715.497	77.29
715.681	77.53
715.865	77.29
716.049	77.82
716.233	77.4
716.417	77.69
716.601	77.55
716.785	78.04
716.968	78.36
717.152	78.99
717.336	78.9
717.52	78.89
717.704	78.78
717.888	78.43
718.071	78.63
718.255	78.66
718.439	78.47
718.622	78.61
718.806	79.22
718.99	78.44
719.174	78.36
719.357	78.68
719.541	78.73
719.724	78.41
719.908	79.55
720.092	80.19
720.275	80.19
720.459	80.16
720.642	80.16
720.826	79.47
721.009	78.76
721.193	78.2
721.376	78.02
721.559	78.54
721.743	79.11
721.926	79.73
722.11	80.06
722.293	80.17
722.476	79.51
722.66	79.37
722.843	79.03
723.026	78.89
723.21	79.2
723.393	80.12
723.576	80.19
723.759	79.8
723.942	80.16
724.126	80.34
724.309	79.91
724.492	79.92
724.675	80.46
724.858	81.29
725.041	81.43
725.224	81.51
725.407	82.08
725.59	82.22
725.774	81.69
725.957	81.02
726.14	81.02
726.322	80.71
726.505	80.88
726.688	81.44
726.871	81.92
727.054	82.34
727.237	82.5
727.42	82.73
727.603	82.42
727.786	82.37
727.968	82.41
728.151	81.88
728.334	81.66
728.517	81.81
728.699	82.38
728.882	81.6
729.065	82.3
729.248	83.12
729.43	83.86
729.613	84.39
729.796	85.55
729.978	85.14
730.161	84.46
730.343	83.93
730.526	84.19
730.708	83.03
730.891	83.4
731.073	83.56
731.256	83.38
731.438	83
731.621	84.18
731.803	83.8
731.986	84.17
732.168	83.78
732.35	83.91
732.533	83.6
732.715	84.24
732.898	84.14
733.08	84.69
733.262	84.87
733.444	84.81
733.627	84.58
733.809	85.02
733.991	85.68
734.173	84.62
734.355	84.89
734.538	85.2
734.72	84.3
734.902	84
735.084	84.36
735.266	84.51
735.448	84.92
735.63	85.48
735.812	85.37
735.994	87.07
736.176	87.31
736.358	86.93
736.54	87.61
736.722	87.3
736.904	86.17
737.086	86.17
737.268	86.94
737.45	87.04
737.632	87.42
737.814	86.67
737.995	86.94
738.177	86.1
738.359	84.96
738.541	84.97
738.723	84.82
738.904	84.6
739.086	84.67
739.268	85.05
739.449	85.17
739.631	85.9
739.813	85.78
739.994	86.11
740.176	86.59
740.358	86.61
740.539	88.5
740.721	88.81
740.902	89.32
741.084	88.71
741.265	88.43
741.447	87.36
741.628	87.44
741.81	85.9
741.991	86.57
742.172	87.55
742.354	87.43
742.535	87.25
742.717	88.59
742.898	88.48
743.079	88.78
743.261	88.72
743.442	88.04
743.623	88.44
743.804	88.75
743.986	88.57
744.167	87.26
744.348	87.41
744.529	87.23
744.71	86.64
744.891	85.58
745.073	85.94
745.254	86.48
745.435	85.8
745.616	85.1
745.797	85
745.978	84.35
746.159	83.18
746.34	82.56
746.521	84.25
746.702	83.38
746.883	83.67
747.064	84.64
747.245	84.9
747.426	83.64
747.606	84.47
747.787	85.02
747.968	84.97
748.149	86.17
748.33	86.38
748.51	86.74
748.691	86.91
748.872	86.87
749.053	85.83
749.233	85.6
749.414	84.97
749.595	83.17
749.775	82.44
749.956	81.47
750.137	80.8
750.317	82.09
750.498	84.57
750.678	84.76
750.859	85.8
751.04	86.43
751.22	84.22
751.4	83.04
751.581	82.43
751.761	83.49
751.942	84.02
752.122	84.54
752.303	84.44
752.483	85.01
752.663	84.27
752.844	83.44
753.024	84.7
753.204	85.74
753.385	84.01
753.565	83.41
753.745	83.66
753.925	83.06
754.106	81.72
754.286	82.86
754.466	82.76
754.646	82.61
754.826	81.69
755.006	80.99
755.187	81.96
755.367	83.8
755.547	84.21
755.727	85.03
755.907	86.4
756.087	86.96
756.267	84.03
756.447	83.97
756.627	82.44
756.807	83.1
756.987	81.16
757.167	82.33
757.346	82.75
757.526	83.21
757.706	83.33
757.886	84.04
758.066	83.98
758.246	84.78
758.425	85.06
758.605	83.6
758.785	83.86
758.965	83.64
759.144	80.37
759.324	81.24
759.504	81.82
759.683	82.09
759.863	81.1
760.043	80.97
760.222	80.68
760.402	79.63
760.581	79.83
760.761	82.2
760.94	82.26
761.12	83.52
761.299	83.9
761.479	82.4
761.658	79.52
761.838	80.06
762.017	78.72
762.197	79.35
762.376	79.53
762.555	82.68
762.735	84.61
762.914	83.66
763.093	83.12
763.273	82.66
763.452	80.5
763.631	79.73
763.81	79.81
763.99	79.12
764.169	79.28
764.348	78.13
764.527	76.55
764.706	78.37
764.885	80.94
765.064	80.01
765.243	81.49
765.423	83.01
765.602	81.92
765.781	78.7
765.96	77.91
766.139	76.7
766.318	77.47
766.497	76.24
766.676	77.42
766.854	81.31
767.033	81.36
767.212	80.66
767.391	81.5
767.57	81.6
767.749	80.85
767.928	83.11
768.106	81.79
768.285	80.4
768.464	79.38
768.643	77.49
768.821	76.04
769	78.1
769.179	78.92
769.357	78.32
769.536	78.19
769.715	79.08
769.893	77.7
770.072	76.62
770.25	78.78
770.429	80.37
770.607	78.82
770.786	77.51
770.964	78.77
771.143	77.11
771.321	77.6
771.5	79.69
771.678	79.35
771.857	77.97
772.035	78.31
772.213	75.43
772.392	72.13
772.57	74.52
772.748	75.03
772.927	73.53
773.105	73.61
773.283	74.02
773.461	73.95
773.64	75.63
773.818	76.41
773.996	78.81
774.174	77.98
774.352	74.17
774.531	70.53
774.709	72.52
774.887	70.58
775.065	72.52
775.243	75.23
775.421	77.66
775.599	78.41
775.777	76.51
775.955	75.17
776.133	73.12
776.311	72.44
776.489	69.29
776.667	71.27
776.844	71.48
777.022	72.55
777.2	72.83
777.378	73.46
777.556	75.44
777.734	79.34
777.911	80.39
778.089	81.26
778.267	81
778.445	77.32
778.622	72.73
778.8	71.72
778.978	73.62
779.155	72.64
779.333	73.71
779.511	76.18
779.688	79.06
779.866	73.29
780.043	70.43
780.221	70.73
780.398	68.56
780.576	67.38
780.753	71.12
780.931	74.07
781.108	73.59
781.286	76.14
781.463	73.1
781.64	68.86
781.818	69.81
781.995	70.24
782.172	67.68
782.35	69.23
782.527	74.28
782.704	72.96
782.882	73.47
783.059	72.74
783.236	72.68
783.413	71.55
783.59	72.81
783.768	68.84
783.945	72.4
784.122	72.69
784.299	71.12
784.476	69.01
784.653	68.66
784.83	63.85
785.007	60.29
785.184	62.77
785.361	61.97
785.538	68.05
785.715	72.39
785.892	73.49
786.069	74.13
786.246	77.71
786.423	76.18
786.6	72.16
786.776	75.84
786.953	70.37
787.13	68.86
787.307	66.41
787.484	68.54
787.66	64.82
787.837	67.84
788.014	67.2
788.191	68.57
788.367	66.83
788.544	71.32
788.721	69.92
788.897	70.5
789.074	69.69
789.25	69.68
789.427	67.78
789.603	68.07
789.78	69.67
789.956	70.57
790.133	69.26
790.309	66.77
790.486	68.8
790.662	66.67
790.839	65.58
791.015	68.02
791.192	71.05
791.368	72.7
791.544	72.08
791.721	72.32
791.897	68.28
792.073	63.84
792.249	56
792.426	60.82
792.602	62.31
792.778	64.05
792.954	64.51
793.13	66.39
793.307	58.1
793.483	52.32
793.659	54.09
793.835	56.44
794.011	54.56
794.187	52.94
794.363	54.17
794.539	61.28
794.715	57.33
794.891	59.62
795.067	62.22
795.243	71.11
795.419	65.79
795.595	68.75
795.771	69.87
795.947	68.44
796.122	60.23
796.298	63.37
796.474	63.44
796.65	62.66
796.826	62.84
797.001	63.71
797.177	57.36
797.353	61.87
797.529	66.75
797.704	69.75
797.88	65.75
798.056	63.93
798.231	59.75
798.407	57.15
798.582	54.98
798.758	64.86
798.934	69.51
799.109	68.64
799.285	65.34
799.46	67.81
799.636	60.2
799.811	57.94
799.986	58.03
800.162	61.32
800.337	61.65
800.513	56.85
800.688	59.33
800.863	70.02
801.039	60.33
801.214	53.95
801.389	67.22
801.565	62.79
801.74	47.75
801.915	60.63
802.09	65.1
802.265	65.72
802.441	65.21
802.616	67.65
802.791	68.59
802.966	71.68
803.141	71.16
803.316	71.94
803.491	78.91
803.666	76.28
803.841	72.01
804.016	70.07
804.191	69.72
804.366	57.17
804.541	52.25
804.716	51.84
804.891	45.69
805.066	52.13
805.241	54.91
805.416	56.74
805.591	56.55
805.765	59.08
805.94	57.64
806.115	59.9
806.29	52.52
806.464	54.84
806.639	51
806.814	44.73
806.989	36.68
807.163	54.91
807.338	52.03
807.512	52.52
807.687	48.52
807.862	68.91
808.036	64.55
808.211	72.08
808.385	77.02
808.56	84.52
808.734	82.94
808.909	82.94
809.083	73.09
809.258	75.95
809.432	78.69
809.606	64.93
809.781	57.93
809.955	61.73
810.13	60.87
810.304	53.31
810.478	46.83
810.652	52.74
810.827	58.61
811.001	59.32
811.175	64.76
811.349	67.84
811.524	62.24
811.698	48.02
811.872	39.7
812.046	39.35
812.22	47.19
812.394	51.51
812.568	61.13
812.742	69.34
812.916	62.15
813.09	51.26
813.264	45.64
813.438	49.27
813.612	49.87
813.786	43.85
813.96	60.47
814.134	62.48
814.308	67.11
814.482	65.89
814.656	66.86
814.83	61.66
815.003	64.31
815.177	52.07
815.351	49.19
815.525	55.68
815.698	45.29
815.872	38.1
816.046	30.67
816.219	25.69
816.393	36.21
816.567	40.56
816.74	47.47
816.914	60.92
817.088	76.35
817.261	66
817.435	52.08
817.608	44.39
817.782	31.09
817.955	24.28
818.129	28.12
818.302	48.29
818.475	65.26
818.649	60.64
818.822	49.26
818.996	71.21
819.169	70.92
819.342	53.66
819.516	76.22
819.689	85.32
819.862	63.75
820.035	56.49
820.209	51.31
820.382	47.49
820.555	54.41
820.728	50.39
820.901	44.69
821.075	45.64
821.248	49.64
821.421	33.52
821.594	28.21
821.767	47.03
821.94	65.88
822.113	40.13
822.286	41.5
822.459	47.43
822.632	37.39
822.805	19.44
822.978	22.25
823.151	16.78
823.324	19.58
823.496	2.96
823.669	5.74
823.842	11.15
824.015	1.02
824.188	-7.5
824.361	6.34
824.533	-6.75
824.706	11.56
824.879	28.63
825.051	45.54
825.224	47.08
825.397	55.2
825.569	42.51
825.742	40.61
825.915	44.69
826.087	54.64
826.26	44.9
826.432	53.38
826.605	62.56
826.777	46.96
826.95	41.89
827.122	39.54
827.295	36.41
827.467	32.64
827.64	11.18
827.812	0.1
827.984	24.16
828.157	18.44
828.329	2.33
828.501	11.72
828.674	38.67
828.846	24.2
829.018	39.16
829.19	24.2
829.363	60.9
829.535	58.14
829.707	52.56
829.879	28.15
830.051	24.75
830.223	-3.12
830.395	-27.32
830.568	-21.8
830.74	-13.39
830.912	18.6
831.084	-2.17
831.256	1.61
831.428	-11.97
831.6	-14.64
831.772	-56.85
831.943	-61.51
832.115	-21.97
832.287	1.79
832.459	0.26
832.631	24.52
832.803	53.44
832.975	49.23
833.146	46.75
833.318	44.29
833.49	65.81
833.662	54.23
833.833	30.33
834.005	26.99
834.177	36.05
834.348	15.24
834.52	-13.91
834.692	-0.11
834.863	-33.85
835.035	-30.62
835.206	-55.31
835.378	7.95
835.549	-29.18
835.721	-7.13
835.892	14.78
836.064	3.68
836.235	-11.91
836.407	45.08
836.578	18.44
836.749	-0.9
836.921	-14.6
837.092	-42.4
837.264	-49.68
837.435	-43.42
837.606	2.06
837.777	37.76
837.949	48.88
838.12	38.76
838.291	52.55
838.462	38.6
838.633	12.26
838.805	5.78
838.976	28.63
839.147	-33.16
839.318	-43.02
839.489	-81.06
839.66	-53.35
839.831	-28.51
840.002	-12.59
840.173	-38.36
840.344	24.68
840.515	30.45
840.686	-80.21
840.857	-57.58
841.028	-21.9
841.199	-31.28
841.369	-58.34
841.54	-36.92
841.711	-6.02
841.882	4.8
842.053	-20.89
842.223	-34.09
842.394	-12.41
842.565	-7.54
842.736	11.14
842.906	20.33
843.077	34.86
843.248	66.01
843.418	61.05
843.589	13.6
843.759	49.59
843.93	46.46
844.101	-0.36
844.271	-10.74
844.442	21.2
844.612	47.01
844.783	22.87
844.953	-23.7
845.123	19.09
845.294	-11.84
845.464	-225.15
845.635	-87.47
845.805	40.79
845.975	13.48
846.146	-12.11
846.316	-16.96
846.486	17.82
846.656	45.68
846.827	35.38
846.997	38.32
847.167	67.59
847.337	12.87
847.507	-56.43
847.677	-56.99
847.848	-3.13
848.018	10.23
848.188	20.97
848.358	10.98
848.528	-9.24
848.698	-57.54
848.868	-151.62
849.038	-281.99
849.208	-85.5
849.378	21.41
849.548	16.48
849.718	24.67
849.887	45.16
850.057	15.37
850.227	-44.03
850.397	-37.56
850.567	-171.76
850.737	-391.85
850.906	-1434.06
851.076	-924.41
851.246	-484.42
851.415	-9.13
851.585	-2.49
851.755	-9.02
851.924	10.75
852.094	-40.76
852.264	-138.99
852.433	-1181.01
852.603	-240.9
852.772	-138.65
852.942	-15.08
853.111	-26.88
853.281	52.9
853.45	73.03
853.62	-18.89
853.789	-40.05
853.959	-1.96
854.128	-23.46
854.297	-34.82
854.467	-43.02
854.636	-18.39
854.805	1.8
854.975	-65.92
855.144	-117.05
855.313	93.53
855.482	-167.34
855.652	-241.29
855.821	-58.79
855.99	10.64
856.159	25.22
856.328	25.87
856.497	36.55
856.667	26.38
856.836	64.53
857.005	1.91
857.174	-24.57
857.343	-49.82
857.512	16.22
857.681	-66.81
857.85	-71.78
858.019	-13.42
858.188	7.27
858.356	-38.37
858.525	-113
858.694	-101.74
858.863	-258.3
859.032	-250.39
859.201	-368.15
859.369	-249.04
859.538	-168.14
859.707	-122.04
859.876	-133.99
860.044	-113.22
860.213	-4.81
860.382	9.95
860.55	40.03
860.719	78.63
860.888	87.31
861.056	51.97
861.225	22.98
861.393	68.67
861.562	83.2
861.73	16.16
861.899	99.87
862.067	-469.83
862.236	-19.49
862.404	-186.24
862.572	-111.85
862.741	-31.84
862.909	-19
863.078	-133.78
863.246	-82.95
863.414	-85.45
863.582	-54.39
863.751	-79.15
863.919	-95.19
864.087	-67.97
864.255	-51.65
864.424	-484.56
864.592	-93.18
864.76	-99.18
864.928	-121
865.096	-93.07
865.264	6.13
865.432	-486.93
865.6	230.38
865.768	-8.35
865.936	-28.4
866.104	-43.04
866.272	-51.02
866.44	-312.3
866.608	641.44
866.776	349.39
866.944	3205.23
867.112	-553.5
867.28	-246.48
867.448	-84.39
867.615	-25.8
867.783	3.3
867.951	-30.33
868.119	-0.15
868.286	-15.49
868.454	-133.97
868.622	-146.36
868.789	-171.9
868.957	-3351.79
869.125	-2608.55
869.292	-147.73
869.46	-197.27
869.627	-13.19
869.795	-37.08
869.963	-9.52
870.13	10.34
870.298	31.55
870.465	-45.05
870.632	-45.36
870.8	-49.19
870.967	-104.98
871.135	-192.18
871.302	-155.12
871.469	-142.98
871.637	-99.73
871.804	-82.97
871.971	-122.38
872.139	-445.7
872.306	-65.83
872.473	-95.19
872.64	-429.29
872.807	-139.69
872.975	13.99
873.142	-289.55
873.309	2379.05
873.476	37.83
873.643	85.72
873.81	64.72
873.977	106.99
874.144	95.28
874.311	-27.12
874.478	-108.01
874.645	-169.94
874.812	-92.07
874.979	-53.71
875.146	-47.66
875.313	-79.46
875.48	-4.66
875.647	-21.66
875.813	-52.5
875.98	-45.82
876.147	-72.49
876.314	-103.46
876.481	1000.21
876.647	-1356.46
876.814	480.96
876.981	35.29
877.147	-44.62
877.314	13.65
877.481	41.12
877.647	25.64
877.814	-16.83
877.98	-59.25
878.147	-45.84
878.314	5.72
878.48	-36.54
878.647	-14.48
878.813	43.94
878.979	44.5
879.146	6.17
879.312	17.11
879.479	-33.1
879.645	-140.69
879.811	-303.23
879.978	-749.81
880.144	-189.96
880.31	-57.29
880.477	-190.96
880.643	-299.38
880.809	-87.16
880.975	-78.43
881.142	-781.14
881.308	-88.13
881.474	-19.07
881.64	-37.52
881.806	-110.96
881.972	-37.21
882.138	-68.61
882.304	-47.91
882.47	-245.42
882.636	-721.52
882.802	-217.28
882.968	7.26
883.134	-8.32
883.3	18.74
883.466	47.58
883.632	102.01
883.798	50.66
883.964	64.36
884.129	78.51
884.295	103.09
884.461	-31.78
884.627	-42.47
884.793	-67.54
884.958	-23.06
885.124	-116.16
885.29	-200.05
885.455	-262.74
885.621	-26.23
885.787	-59.7
885.952	-20.47
886.118	-0.15
886.283	-17.32
886.449	-102.42
886.614	-117.54
886.78	-255.48
886.945	1231.56
887.111	-578.18
887.276	-474.57
887.442	-931.14
887.607	-439.27
887.773	-264.09
887.938	-269.78
888.103	-305.03
888.269	-219.95
888.434	-227.7
888.599	-117.59
888.764	13.23
888.93	29
889.095	21.41
889.26	-40.68
889.425	3.4
889.59	16.2
889.756	-37.72
889.921	-56.02
890.086	13.54
890.251	18.88
890.416	-173.28
890.581	-1172.98
890.746	37.95
890.911	256.85
891.076	171.66
891.241	-215.86
891.406	37.06
891.571	-48.64
891.736	-158.83
891.901	-399.34
892.065	439.84
892.23	84.49
892.395	114.73
892.56	176.37
892.725	66.99
892.889	106.71
893.054	-136.67
893.219	-86.09
893.384	-53.09
893.548	-113.22
893.713	-127.94
893.878	-92.64
