Data from Ofra_PS_T2_1A_8CX24_Reflection_1.txt Node
Date: Wed Jul 21 18:14:08 EDT 2021
User: Adam
Spectrometer: FLMT01687
Trigger mode: 0
Integration Time (sec): 1.100000E0
Scans to average: 2
Electric dark correction enabled: true
Nonlinearity correction enabled: false
Boxcar width: 2
XAxis mode: Wavelengths
Number of Pixels in Spectrum: 3648
>>>>>Begin Spectral Data<<<<<
179.494	502
179.716	551.06
179.937	550.91
180.158	551.12
180.38	882.81
180.601	438.95
180.823	183.25
181.044	42.42
181.265	145.22
181.486	56.97
181.708	33.14
181.929	-56.12
182.15	199.3
182.372	148.14
182.593	51.39
182.814	-0.95
183.035	23.04
183.257	-0.36
183.478	-67.55
183.699	-6.66
183.92	1.81
184.141	16.75
184.363	-54.34
184.584	6.2
184.805	-0.56
185.026	14.58
185.247	1.73
185.468	-1.86
185.689	3.1
185.91	9.73
186.132	-0.78
186.353	20.06
186.574	81.78
186.795	43.75
187.016	-14.9
187.237	-16.21
187.458	-77.27
187.679	-89.76
187.9	-80.54
188.121	-35.54
188.342	-53.45
188.563	-0.79
188.784	9.93
189.005	4.9
189.226	-3.32
189.447	4.87
189.667	-205.1
189.888	-345.57
190.109	-1125.32
190.33	-470
190.551	-1005.75
190.772	-172.76
190.993	-145.94
191.214	-103.38
191.434	-58.92
191.655	1.53
191.876	-51.07
192.097	-97.47
192.318	-193.55
192.538	-375.51
192.759	-228.17
192.98	-100.79
193.201	-42.2
193.421	-2.57
193.642	26.49
193.863	23.58
194.083	-12.26
194.304	-33.58
194.525	-29.25
194.745	-56.5
194.966	-54.36
195.187	-48.77
195.407	-40.21
195.628	-101.4
195.848	-105.67
196.069	-104.33
196.29	-86.39
196.51	-128.75
196.731	-134.02
196.951	-194.7
197.172	-214.49
197.392	-212.24
197.613	-192.63
197.833	-188.81
198.054	-143.12
198.274	-69.15
198.495	-73.43
198.715	-35.69
198.936	-49.59
199.156	-28.78
199.377	-129.27
199.597	-106.17
199.817	-95.91
200.038	-31.32
200.258	-58.34
200.479	20.98
200.699	1.68
200.919	10.89
201.14	-19.34
201.36	-34.81
201.58	11.79
201.801	39.35
202.021	8.2
202.241	9.86
202.461	-4.4
202.682	-110.71
202.902	-175.07
203.122	-106.33
203.342	-84.12
203.563	-27.47
203.783	9.28
204.003	-32.91
204.223	-25.21
204.443	20.19
204.663	-13.64
204.884	-14.09
205.104	21.48
205.324	37.95
205.544	22.54
205.764	44.19
205.984	43.1
206.204	37.31
206.424	23.68
206.644	-11.2
206.864	-3.65
207.084	-39.09
207.304	6.59
207.525	-79.53
207.745	-22.42
207.964	-12.55
208.184	-66.68
208.404	-109.39
208.624	-101.73
208.844	-116.31
209.064	-418.09
209.284	-435.1
209.504	-235.74
209.724	-81.2
209.944	-47.72
210.164	-14.95
210.384	5.79
210.604	-2.77
210.823	-53.27
211.043	-56.46
211.263	-51.52
211.483	-55.16
211.703	-103.64
211.922	-75.57
212.142	-28.59
212.362	5.18
212.582	-11.11
212.801	-17.04
213.021	-33.54
213.241	-61.08
213.461	-105.02
213.68	-116.59
213.9	-60.12
214.12	-34.43
214.339	-98.89
214.559	-69.55
214.779	-26.87
214.998	-44.61
215.218	-90.84
215.438	-35.08
215.657	-48.75
215.877	-25.4
216.096	-9
216.316	-2.13
216.535	-25.51
216.755	-20.66
216.974	-160.6
217.194	-191.09
217.413	-161.15
217.633	-142.4
217.852	-263.63
218.072	-116.43
218.291	-62.51
218.511	-29.8
218.73	-52.02
218.95	-34.33
219.169	-28.22
219.389	-77.21
219.608	-55.41
219.827	-39.67
220.047	-36.45
220.266	-19.2
220.485	-14.37
220.705	-17.7
220.924	-40.81
221.143	11.45
221.363	-16.01
221.582	-3.03
221.801	-6.44
222.021	5.88
222.24	-126.47
222.459	-94.41
222.678	-89
222.897	-166.06
223.117	-233.48
223.336	-171.76
223.555	-142.76
223.774	-72.98
223.993	-56.75
224.213	31.46
224.432	-1.47
224.651	29.95
224.87	-5.94
225.089	28.91
225.308	23.16
225.527	41.65
225.746	43.97
225.965	33.13
226.184	-10.02
226.404	-2.17
226.623	-13.55
226.842	-17.21
227.061	3.31
227.28	13.19
227.499	3.67
227.718	13.9
227.936	9
228.155	9.9
228.374	-7.39
228.593	-2.34
228.812	-31.14
229.031	-45.51
229.25	-99.81
229.469	-120.01
229.688	-105.16
229.907	-39.03
230.125	-20.25
230.344	-8.58
230.563	12.44
230.782	14.87
231.001	-81.75
231.22	-79.51
231.438	-52
231.657	-37.4
231.876	-71.02
232.095	7.97
232.313	10.44
232.532	-3.88
232.751	-32.8
232.969	-45.23
233.188	-117.11
233.407	-39.01
233.625	-23.06
233.844	-48.55
234.063	-32.84
234.281	-22
234.5	-35.47
234.719	-32.69
234.937	-8.09
235.156	3.11
235.374	-4.02
235.593	-23.14
235.811	-21.42
236.03	-39.34
236.249	-81
236.467	-46.95
236.686	2.38
236.904	6.61
237.123	-10.45
237.341	-12.13
237.559	-16.14
237.778	-59.22
237.996	-82.91
238.215	-35.11
238.433	-20.44
238.652	-35.48
238.87	-37.03
239.088	-21.72
239.307	-14.5
239.525	-19.14
239.743	-30.57
239.962	-16.51
240.18	-59.86
240.398	-107.3
240.617	-106.49
240.835	-98.01
241.053	-61.15
241.271	-17.74
241.49	-4.53
241.708	-13.63
241.926	-27.66
242.144	-32.21
242.363	-80.83
242.581	-71.4
242.799	-36.47
243.017	-2.17
243.235	-32.53
243.453	-18.23
243.672	-23.53
243.89	-31.09
244.108	-54.49
244.326	-12.08
244.544	-9.53
244.762	-18.53
244.98	-19.42
245.198	1.07
245.416	-53.26
245.634	-34.99
245.852	-44.6
246.07	-40.47
246.288	-52.91
246.506	-68.14
246.724	-50.64
246.942	-27.36
247.16	-13.22
247.378	-12.19
247.596	-4.55
247.814	-11.65
248.032	-40.71
248.25	-34
248.468	-12.52
248.685	6.51
248.903	18.93
249.121	24.11
249.339	-9.16
249.557	-28.27
249.775	-19.57
249.992	-81.66
250.21	-76.53
250.428	-48.13
250.646	-77.43
250.863	-104.27
251.081	-74.14
251.299	-82.01
251.517	-90.21
251.734	-54.69
251.952	-42.21
252.17	-31.99
252.387	-13.26
252.605	-20.92
252.823	-21.09
253.04	1.37
253.258	19.57
253.475	10.49
253.693	32.24
253.911	33.8
254.128	33.87
254.346	16.18
254.563	-1.99
254.781	-23.11
254.998	-69.21
255.216	-92.45
255.433	-69.45
255.651	-16.17
255.868	-11.42
256.086	32.09
256.303	22.58
256.521	11.31
256.738	-31.64
256.956	-54.91
257.173	-90.23
257.39	-101.98
257.608	-134.18
257.825	-17.02
258.043	4.6
258.26	15.3
258.477	56.46
258.695	55.43
258.912	-34.32
259.129	-4.81
259.346	-13.67
259.564	-69.04
259.781	-87.93
259.998	-17.64
260.216	-14.65
260.433	19.41
260.65	21.65
260.867	44.27
261.084	6.41
261.302	-14.29
261.519	-33.58
261.736	-36.66
261.953	-59.64
262.17	-17.51
262.387	-46.93
262.604	-81.16
262.822	-101.45
263.039	-87.4
263.256	-133.11
263.473	-75.16
263.69	-48.45
263.907	2.96
264.124	17.62
264.341	9.64
264.558	-1.8
264.775	8.71
264.992	-16.44
265.209	-29.72
265.426	-2.5
265.643	3.86
265.86	19.56
266.077	26.15
266.294	36.19
266.51	9.17
266.727	-5.04
266.944	-9.97
267.161	-9.68
267.378	-12.24
267.595	-0.17
267.812	-11.13
268.028	-37.46
268.245	-40.56
268.462	-55.45
268.679	-52.14
268.896	-17.6
269.112	-13.67
269.329	-12.19
269.546	-2.45
269.763	-12.91
269.979	-32.38
270.196	-27.24
270.413	-56.5
270.629	-73.22
270.846	-84.04
271.063	-62.1
271.279	-65.78
271.496	-63.68
271.712	-33.25
271.929	2.49
272.146	-13.8
272.362	-3.5
272.579	31.99
272.795	42.06
273.012	25.6
273.228	19.28
273.445	-4.91
273.661	-20.61
273.878	-63.27
274.094	-42.38
274.311	-61.47
274.527	-11.92
274.744	-20.7
274.96	-10.71
275.177	-9.22
275.393	4.78
275.609	-7.05
275.826	14.32
276.042	4.31
276.259	-14.49
276.475	12.81
276.691	27.11
276.908	7.22
277.124	21.04
277.34	33.54
277.557	20.24
277.773	-5.82
277.989	-11.61
278.205	-12.97
278.422	-6.99
278.638	-2.59
278.854	15.79
279.07	34.95
279.286	26.94
279.503	6.98
279.719	-7.24
279.935	-34.13
280.151	-47.92
280.367	-30.53
280.583	-73.35
280.799	-56.4
281.016	-80.54
281.232	-45.88
281.448	-46.51
281.664	-8.22
281.88	-32.1
282.096	-2.01
282.312	28.95
282.528	55.51
282.744	63.76
282.96	37.69
283.176	21.82
283.392	7.75
283.608	-15.24
283.824	-14.92
284.04	-2.49
284.256	5.58
284.471	-5.78
284.687	-0.15
284.903	17.47
285.119	45.13
285.335	28.17
285.551	39.06
285.767	23.14
285.982	5.3
286.198	-39.65
286.414	-1.58
286.63	0.69
286.846	14.98
287.061	-5.26
287.277	28.82
287.493	6.81
287.709	10.06
287.924	-2.81
288.14	37.69
288.356	10.26
288.571	26.12
288.787	20.27
289.003	15.82
289.218	-12.85
289.434	-41.55
289.65	-46.29
289.865	-59.68
290.081	-11.64
290.296	-14.57
290.512	20.74
290.727	-12.45
290.943	-8.09
291.159	-37.97
291.374	-32.44
291.59	-59.35
291.805	-32.89
292.021	-28.54
292.236	-28.17
292.451	-18.8
292.667	-2.81
292.882	4.01
293.098	-5.79
293.313	-22.95
293.529	-39.15
293.744	-59.4
293.959	-60.95
294.175	-54.08
294.39	-13.16
294.605	4.05
294.821	24.8
295.036	27.69
295.251	30.1
295.467	-8.71
295.682	-21.32
295.897	-64.73
296.112	-83.28
296.328	-64.67
296.543	-52.38
296.758	-42.38
296.973	-1.14
297.188	36.34
297.404	1.53
297.619	-13.51
297.834	-22.73
298.049	-49.48
298.264	-63.22
298.479	0.63
298.694	2.79
298.909	16.44
299.125	22.97
299.34	14.23
299.555	-16.97
299.77	-9.45
299.985	-59.72
300.2	-102.41
300.415	-121.81
300.63	-85.28
300.845	-77.23
301.06	-79.01
301.275	-40.57
301.49	-22.67
301.704	-41.32
301.919	-69.48
302.134	-73.03
302.349	-85.66
302.564	-141.68
302.779	-182.58
302.994	-138.17
303.209	-65.7
303.423	-42.41
303.638	14.39
303.853	-14.62
304.068	-32.03
304.283	-22.96
304.497	-20.22
304.712	-27.44
304.927	-1.87
305.142	-0.53
305.356	-1.83
305.571	-10.5
305.786	-24.4
306	-50.58
306.215	-56.32
306.43	-76.13
306.644	-74.28
306.859	-40.79
307.074	-25.66
307.288	-44.93
307.503	-57.66
307.717	-49.15
307.932	-58.34
308.147	-51.66
308.361	-34.11
308.576	-32.99
308.79	-75.85
309.005	-68.78
309.219	-54.63
309.434	-56.6
309.648	-53.31
309.863	-21.53
310.077	-23.93
310.292	-36.03
310.506	-34.01
310.72	-9.51
310.935	7.9
311.149	7.01
311.364	29.56
311.578	42.07
311.792	29.07
312.007	19.42
312.221	5.12
312.435	-4
312.649	-21.05
312.864	-18.5
313.078	-4.48
313.292	53.12
313.507	27.41
313.721	68.05
313.935	45.02
314.149	34.73
314.363	16.34
314.578	22.92
314.792	17.11
315.006	4.05
315.22	7.53
315.434	20.91
315.648	21.29
315.862	14.09
316.077	14.3
316.291	9.43
316.505	-7.47
316.719	-6.12
316.933	-7.16
317.147	-23.89
317.361	-76.99
317.575	-89.91
317.789	-130.89
318.003	-203.25
318.217	-138.51
318.431	-44.58
318.645	-2.29
318.859	6.83
319.073	34.66
319.287	17.83
319.5	-15.14
319.714	-57.2
319.928	-89.78
320.142	-127.02
320.356	-81.36
320.57	-32.45
320.784	-45.34
320.997	-58.85
321.211	-57.76
321.425	-108.7
321.639	-127.1
321.853	-56.58
322.066	-26.38
322.28	-22.61
322.494	-16.07
322.707	-13.05
322.921	-30.7
323.135	-30.81
323.349	-14.13
323.562	-21.66
323.776	-29.3
323.989	-27.88
324.203	-50.69
324.417	-71.62
324.63	-76.22
324.844	-82.42
325.057	-89.78
325.271	-52.13
325.485	-14.02
325.698	-6.31
325.912	5.87
326.125	-12.08
326.339	-16.78
326.552	-47.82
326.766	-41.21
326.979	-22.81
327.193	22.23
327.406	1.93
327.619	3.81
327.833	14.4
328.046	-13.25
328.26	-44.91
328.473	-17.85
328.686	-60.57
328.9	-56.33
329.113	-36.99
329.326	-72.48
329.54	-65.46
329.753	-50.12
329.966	-80.61
330.179	-48.37
330.393	-16.16
330.606	-2.39
330.819	21.65
331.032	40.35
331.246	31.74
331.459	49.92
331.672	42.33
331.885	11.34
332.098	-25.82
332.311	-46.39
332.525	-104.62
332.738	-114.3
332.951	-62.75
333.164	-25.78
333.377	-0.13
333.59	14.83
333.803	19.32
334.016	18.07
334.229	9.42
334.442	2.56
334.655	20.56
334.868	30.45
335.081	21.91
335.294	21.1
335.507	13.71
335.72	3.97
335.933	-11.92
336.146	-16.14
336.359	-17.58
336.572	-45.73
336.785	-68.84
336.997	-65.03
337.21	-42.3
337.423	-57.32
337.636	-46.75
337.849	-25.7
338.062	-35.08
338.274	-39.22
338.487	-39.39
338.7	-45.47
338.913	-78.32
339.125	-77.17
339.338	-116.3
339.551	-76.3
339.763	-53.9
339.976	-34.1
340.189	-16.34
340.402	-12.69
340.614	-34.19
340.827	-35.62
341.039	-56.5
341.252	-52.25
341.465	-30.08
341.677	-14.98
341.89	-40.87
342.102	-9.35
342.315	-33.07
342.527	-61.8
342.74	-49.18
342.952	-8.37
343.165	-18.56
343.377	12.75
343.59	9.38
343.802	14.84
344.015	-1.9
344.227	10.49
344.44	-1.86
344.652	3.79
344.864	-10.39
345.077	22.99
345.289	20.51
345.502	24.58
345.714	12.97
345.926	16.45
346.139	6.19
346.351	17.6
346.563	15.45
346.775	20.54
346.988	16.35
347.2	-11.2
347.412	-74.46
347.624	-95.94
347.837	-121.68
348.049	-92.43
348.261	-38.93
348.473	-26.43
348.685	-27.92
348.897	-13.59
349.11	-40.06
349.322	-70.06
349.534	-21.54
349.746	-14.64
349.958	-16.2
350.17	-10.7
350.382	9.03
350.594	-12.98
350.806	-7
351.018	5.5
351.23	-9.85
351.442	-58.5
351.654	-58.88
351.866	-56.82
352.078	-53.1
352.29	-27.11
352.502	5.13
352.714	23.08
352.926	5.06
353.138	9.71
353.35	-0.22
353.561	-6.32
353.773	-34.96
353.985	-16.16
354.197	-31.01
354.409	-27.26
354.621	-34.14
354.832	-22.28
355.044	-35.26
355.256	-38.06
355.468	-21.71
355.679	-24.01
355.891	-21.11
356.103	-18.72
356.314	-2.85
356.526	-2.15
356.738	0.39
356.949	-4.15
357.161	14.6
357.373	3.73
357.584	-4.67
357.796	2.65
358.008	-3.43
358.219	7.46
358.431	-0.25
358.642	-1.48
358.854	1.15
359.065	1.45
359.277	-26.9
359.488	-28.63
359.7	-51.91
359.911	-72.14
360.123	-50.7
360.334	-70.44
360.546	-75.32
360.757	-52.63
360.969	-38.62
361.18	-35.23
361.391	1
361.603	-4.1
361.814	7.74
362.025	1.23
362.237	4.8
362.448	5.33
362.659	9.08
362.871	-1.49
363.082	0.45
363.293	-3.23
363.504	-16.94
363.716	-33.16
363.927	-41.31
364.138	-64.8
364.349	-73.73
364.56	-63.34
364.772	-53.75
364.983	-30.51
365.194	-17.62
365.405	-8.51
365.616	-4.47
365.827	-2.18
366.038	-22.68
366.25	-28.93
366.461	-58.78
366.672	-19.78
366.883	-5.22
367.094	-0.63
367.305	-10.38
367.516	-5.19
367.727	-43.23
367.938	-50.3
368.149	-44.18
368.36	-23.89
368.571	-17.91
368.781	-21.69
368.992	-36.84
369.203	-61.71
369.414	-86.54
369.625	-74.93
369.836	-51.84
370.047	-66.74
370.258	-36.58
370.468	-30.5
370.679	-58.73
370.89	-58.3
371.101	-44.47
371.312	-45.97
371.522	-48.05
371.733	-24.78
371.944	-17.12
372.155	-3.18
372.365	-10.98
372.576	-6.81
372.787	-17.12
372.997	-38.02
373.208	-39.42
373.419	-13.5
373.629	-38.48
373.84	-41.34
374.05	-47.8
374.261	-39.52
374.472	-65.17
374.682	-19.21
374.893	-10.56
375.103	26.08
375.314	18.86
375.524	13.25
375.735	11.98
375.945	17.93
376.156	-7.72
376.366	-4.68
376.577	3.79
376.787	-5.44
376.997	-16.09
377.208	-6.68
377.418	-18.23
377.629	-11.45
377.839	-6.27
378.049	0.53
378.26	9.31
378.47	22.03
378.68	16.92
378.89	8.27
379.101	0.02
379.311	-30.86
379.521	-67.49
379.732	-71.78
379.942	-71.88
380.152	-89.97
380.362	-51.62
380.572	-39.11
380.783	-36.72
380.993	-15.7
381.203	7.24
381.413	18.8
381.623	24.78
381.833	28.2
382.043	11.29
382.253	-1.13
382.463	-6.82
382.674	-21.07
382.884	-39.72
383.094	-43.04
383.304	-34.44
383.514	-35.89
383.724	-27.59
383.934	-27.78
384.144	-30.26
384.353	-36.85
384.563	-35.46
384.773	-26.33
384.983	-28.27
385.193	-8.74
385.403	-2.14
385.613	1.23
385.823	-10.12
386.033	-6.08
386.242	-14.15
386.452	-22.03
386.662	-30.25
386.872	-11.32
387.082	-14.93
387.291	-18.42
387.501	-16.9
387.711	-14.32
387.921	-26.56
388.13	-20.18
388.34	-11.08
388.55	-13.78
388.759	-14.7
388.969	-6.52
389.179	-9.15
389.388	-9.91
389.598	-3.91
389.807	-7.07
390.017	-15.29
390.227	-13.89
390.436	-17.71
390.646	-17.62
390.855	-12.36
391.065	-10.44
391.274	-11.27
391.484	-9.62
391.693	-6.67
391.903	-4.47
392.112	2.84
392.322	8.79
392.531	11.32
392.74	10.51
392.95	5.14
393.159	2.31
393.369	-1.67
393.578	-2.51
393.787	-4.35
393.997	-3.23
394.206	-6.86
394.415	-6.05
394.625	-6.75
394.834	-6.05
395.043	-4.69
395.252	-1.36
395.462	0.51
395.671	1.75
395.88	1.58
396.089	2.58
396.298	0.51
396.508	-0.57
396.717	-1.23
396.926	-0.16
397.135	-1.08
397.344	-0.62
397.553	0.51
397.762	1.36
397.971	1.25
398.181	1.77
398.39	2.02
398.599	1.04
398.808	1.47
399.017	1.96
399.226	2.93
399.435	3.36
399.644	3.59
399.853	2.33
400.062	1.86
400.27	1.3
400.479	0.95
400.688	0.48
400.897	1.07
401.106	1.03
401.315	0.99
401.524	1.07
401.733	1.57
401.941	2.15
402.15	2.38
402.359	2.2
402.568	2.4
402.777	2.56
402.985	2.02
403.194	1.76
403.403	1.81
403.612	1.5
403.82	1.25
404.029	1.43
404.238	1.4
404.446	1.65
404.655	1.38
404.864	1.29
405.072	1.17
405.281	1.3
405.489	1.02
405.698	1.22
405.906	1.38
406.115	1.32
406.324	1.29
406.532	1.52
406.741	1.76
406.949	1.67
407.158	1.64
407.366	1.7
407.574	1.56
407.783	1.54
407.991	1.4
408.2	1.61
408.408	1.52
408.617	1.41
408.825	1.2
409.033	1.37
409.242	1.26
409.45	1.33
409.658	1.36
409.867	1.62
410.075	1.57
410.283	1.58
410.491	1.55
410.7	1.51
410.908	1.33
411.116	1.5
411.324	1.44
411.533	1.39
411.741	1.65
411.949	1.68
412.157	1.37
412.365	1.4
412.573	1.36
412.781	1.28
412.99	1.22
413.198	1.39
413.406	1.38
413.614	1.43
413.822	1.22
414.03	1.19
414.238	1.11
414.446	1.11
414.654	0.98
414.862	1.17
415.07	1.31
415.278	1.46
415.486	1.4
415.694	1.59
415.902	1.43
416.109	1.24
416.317	1.2
416.525	1.05
416.733	0.88
416.941	1.01
417.149	1.06
417.357	1.08
417.564	1.26
417.772	1.61
417.98	1.55
418.188	1.54
418.395	1.56
418.603	1.63
418.811	1.2
419.019	1.16
419.226	1.35
419.434	1.41
419.642	1.21
419.849	1.39
420.057	1.49
420.265	1.45
420.472	1.24
420.68	1.46
420.887	1.33
421.095	1.31
421.302	1.28
421.51	1.43
421.717	1.44
421.925	1.57
422.132	1.45
422.34	1.36
422.547	1.38
422.755	1.24
422.962	1.2
423.17	1.24
423.377	1.32
423.585	1.26
423.792	1.28
423.999	1.31
424.207	1.28
424.414	1.31
424.621	1.27
424.829	1.13
425.036	1.02
425.243	1.16
425.451	1.09
425.658	0.98
425.865	1.18
426.072	1.26
426.28	1.44
426.487	1.37
426.694	1.4
426.901	1.24
427.108	1.24
427.315	0.89
427.523	1.16
427.73	1.3
427.937	1.34
428.144	1.37
428.351	1.44
428.558	1.55
428.765	1.5
428.972	1.4
429.179	1.48
429.386	1.64
429.593	1.31
429.8	1.1
430.007	1.26
430.214	1.31
430.421	1.11
430.628	1
430.835	1.02
431.042	1.13
431.249	1.08
431.456	1.11
431.662	1.23
431.869	1.41
432.076	1.42
432.283	1.42
432.49	1.45
432.697	1.4
432.903	1.19
433.11	1.12
433.317	1.22
433.524	1.38
433.73	1.4
433.937	1.64
434.144	1.53
434.35	1.42
434.557	1.22
434.764	1.21
434.97	1.14
435.177	1.33
435.384	1.27
435.59	1.4
435.797	1.65
436.003	1.6
436.21	1.56
436.416	1.6
436.623	1.54
436.829	1.5
437.036	1.6
437.242	1.52
437.449	1.41
437.655	1.37
437.862	1.26
438.068	1.19
438.275	1.37
438.481	1.62
438.687	1.59
438.894	1.57
439.1	1.63
439.307	1.68
439.513	1.52
439.719	1.54
439.926	1.67
440.132	1.61
440.338	1.48
440.544	1.71
440.751	1.72
440.957	1.7
441.163	1.73
441.369	1.82
441.575	1.49
441.782	1.47
441.988	1.37
442.194	1.38
442.4	1.27
442.606	1.55
442.812	1.64
443.018	1.74
443.224	1.74
443.431	1.87
443.637	1.61
443.843	1.51
444.049	1.47
444.255	1.45
444.461	1.44
444.667	1.48
444.873	1.65
445.079	1.67
445.284	1.74
445.49	1.5
445.696	1.42
445.902	1.26
446.108	1.22
446.314	1.1
446.52	1.29
446.726	1.52
446.931	1.53
447.137	1.55
447.343	1.63
447.549	1.5
447.755	1.32
447.96	1.4
448.166	1.39
448.372	1.3
448.578	1.39
448.783	1.38
448.989	1.39
449.195	1.53
449.4	1.65
449.606	1.59
449.812	1.59
450.017	1.65
450.223	1.5
450.428	1.4
450.634	1.57
450.84	1.74
451.045	1.65
451.251	1.57
451.456	1.82
451.662	1.76
451.867	1.79
452.073	1.76
452.278	1.97
452.483	1.99
452.689	1.92
452.894	1.83
453.1	1.87
453.305	1.72
453.51	1.58
453.716	1.59
453.921	1.61
454.127	1.63
454.332	1.61
454.537	1.46
454.742	1.46
454.948	1.41
455.153	1.41
455.358	1.53
455.563	1.79
455.769	1.88
455.974	1.87
456.179	1.78
456.384	1.72
456.589	1.59
456.795	1.39
457	1.38
457.205	1.6
457.41	1.62
457.615	1.59
457.82	1.69
458.025	1.71
458.23	1.5
458.435	1.57
458.64	1.48
458.845	1.71
459.05	1.68
459.255	1.71
459.46	1.66
459.665	1.72
459.87	1.58
460.075	1.59
460.28	1.71
460.485	1.8
460.69	1.89
460.895	1.81
461.099	1.72
461.304	1.82
461.509	1.74
461.714	1.57
461.919	1.64
462.123	1.63
462.328	1.61
462.533	1.53
462.738	1.67
462.942	1.7
463.147	1.8
463.352	1.74
463.556	1.76
463.761	1.8
463.966	1.76
464.17	1.69
464.375	1.64
464.58	1.63
464.784	1.52
464.989	1.49
465.193	1.5
465.398	1.51
465.602	1.62
465.807	1.58
466.011	1.62
466.216	1.71
466.42	1.73
466.625	1.8
466.829	1.88
467.034	1.92
467.238	2.06
467.443	2
467.647	1.83
467.851	1.9
468.056	1.92
468.26	1.74
468.464	1.81
468.669	1.98
468.873	2.1
469.077	2.06
469.282	2.17
469.486	2.19
469.69	2.07
469.894	1.91
470.099	1.99
470.303	2
470.507	1.89
470.711	1.82
470.915	1.76
471.119	1.62
471.324	1.52
471.528	1.57
471.732	1.7
471.936	1.79
472.14	1.87
472.344	1.95
472.548	1.95
472.752	2.04
472.956	2.16
473.16	2.1
473.364	2.07
473.568	2.05
473.772	2.07
473.976	1.91
474.18	1.95
474.384	1.98
474.588	1.99
474.792	1.84
474.995	2
475.199	2.07
475.403	2.12
475.607	2.12
475.811	2.07
476.015	2.06
476.218	2.11
476.422	2.02
476.626	2.1
476.83	2.27
477.033	2.2
477.237	2.1
477.441	2.14
477.644	2.07
477.848	2.06
478.052	2.01
478.255	2.05
478.459	2.08
478.663	2.22
478.866	2.17
479.07	2.23
479.273	2.34
479.477	2.31
479.681	2.23
479.884	2.18
480.088	2.15
480.291	2.07
480.495	2.15
480.698	2.19
480.901	2.25
481.105	2.33
481.308	2.3
481.512	2.18
481.715	2.2
481.919	2.25
482.122	2.21
482.325	2.23
482.529	2.36
482.732	2.34
482.935	2.26
483.138	2.23
483.342	2.28
483.545	2.27
483.748	2.26
483.952	2.33
484.155	2.48
484.358	2.53
484.561	2.51
484.764	2.49
484.967	2.52
485.171	2.49
485.374	2.41
485.577	2.48
485.78	2.51
485.983	2.5
486.186	2.43
486.389	2.4
486.592	2.35
486.795	2.38
486.998	2.37
487.201	2.42
487.404	2.47
487.607	2.53
487.81	2.55
488.013	2.59
488.216	2.57
488.419	2.56
488.622	2.54
488.825	2.41
489.028	2.37
489.231	2.31
489.433	2.28
489.636	2.23
489.839	2.32
490.042	2.24
490.245	2.25
490.447	2.26
490.65	2.27
490.853	2.26
491.056	2.35
491.258	2.4
491.461	2.45
491.664	2.5
491.866	2.48
492.069	2.52
492.272	2.48
492.474	2.5
492.677	2.53
492.879	2.62
493.082	2.64
493.285	2.8
493.487	2.71
493.69	2.62
493.892	2.54
494.095	2.48
494.297	2.39
494.5	2.48
494.702	2.48
494.905	2.49
495.107	2.46
495.309	2.44
495.512	2.47
495.714	2.55
495.917	2.62
496.119	2.63
496.321	2.67
496.524	2.71
496.726	2.71
496.928	2.72
497.13	2.73
497.333	2.73
497.535	2.69
497.737	2.68
497.939	2.65
498.142	2.69
498.344	2.65
498.546	2.59
498.748	2.63
498.95	2.75
499.152	2.75
499.355	2.83
499.557	2.91
499.759	2.95
499.961	2.84
500.163	2.87
500.365	2.88
500.567	2.92
500.769	2.82
500.971	2.89
501.173	2.81
501.375	2.79
501.577	2.69
501.779	2.67
501.981	2.69
502.183	2.7
502.385	2.66
502.587	2.66
502.788	2.71
502.99	2.67
503.192	2.79
503.394	2.78
503.596	2.8
503.798	2.88
503.999	2.96
504.201	2.89
504.403	3.03
504.605	3.05
504.806	2.96
505.008	2.92
505.21	2.98
505.411	2.88
505.613	2.9
505.815	2.9
506.016	2.94
506.218	2.98
506.42	3.01
506.621	2.98
506.823	3.05
507.024	2.96
507.226	2.87
507.427	2.84
507.629	2.88
507.83	2.9
508.032	2.92
508.233	3.02
508.435	3.06
508.636	3.12
508.838	3.04
509.039	3.06
509.24	3.04
509.442	3.05
509.643	2.95
509.845	2.99
510.046	3.03
510.247	3.07
510.448	3.07
510.65	3.13
510.851	3.25
511.052	3.23
511.254	3.17
511.455	3.25
511.656	3.29
511.857	3.26
512.058	3.27
512.26	3.26
512.461	3.17
512.662	3.17
512.863	3.1
513.064	3.09
513.265	3.11
513.466	3.15
513.667	3.13
513.868	3.11
514.069	3.23
514.27	3.26
514.471	3.25
514.672	3.26
514.873	3.25
515.074	3.18
515.275	3.11
515.476	3.12
515.677	3.13
515.878	3.27
516.079	3.25
516.28	3.27
516.481	3.33
516.682	3.39
516.882	3.31
517.083	3.32
517.284	3.3
517.485	3.26
517.686	3.16
517.886	3.13
518.087	3.23
518.288	3.27
518.488	3.25
518.689	3.31
518.89	3.34
519.091	3.26
519.291	3.25
519.492	3.29
519.692	3.34
519.893	3.38
520.094	3.41
520.294	3.42
520.495	3.38
520.695	3.41
520.896	3.39
521.096	3.45
521.297	3.45
521.497	3.47
521.698	3.38
521.898	3.39
522.099	3.33
522.299	3.38
522.499	3.41
522.7	3.48
522.9	3.46
523.101	3.54
523.301	3.52
523.501	3.52
523.702	3.49
523.902	3.57
524.102	3.55
524.302	3.5
524.503	3.54
524.703	3.57
524.903	3.5
525.103	3.45
525.304	3.59
525.504	3.63
525.704	3.62
525.904	3.66
526.104	3.64
526.304	3.56
526.504	3.55
526.705	3.55
526.905	3.62
527.105	3.68
527.305	3.65
527.505	3.55
527.705	3.55
527.905	3.5
528.105	3.49
528.305	3.47
528.505	3.56
528.705	3.65
528.905	3.6
529.105	3.64
529.304	3.7
529.504	3.7
529.704	3.63
529.904	3.67
530.104	3.65
530.304	3.69
530.503	3.7
530.703	3.69
530.903	3.68
531.103	3.7
531.303	3.68
531.502	3.71
531.702	3.8
531.902	3.81
532.101	3.78
532.301	3.77
532.501	3.74
532.7	3.7
532.9	3.76
533.1	3.79
533.299	3.81
533.499	3.85
533.698	3.8
533.898	3.77
534.097	3.79
534.297	3.86
534.496	3.84
534.696	3.93
534.895	4.02
535.095	4.06
535.294	4
535.494	3.96
535.693	3.95
535.892	3.91
536.092	3.84
536.291	3.83
536.491	3.89
536.69	3.93
536.889	3.87
537.088	3.85
537.288	3.9
537.487	3.92
537.686	3.9
537.886	4
538.085	4.1
538.284	4.23
538.483	4.2
538.682	4.26
538.882	4.28
539.081	4.3
539.28	4.16
539.479	4.16
539.678	4.13
539.877	4.2
540.076	4.22
540.275	4.29
540.474	4.4
540.673	4.42
540.872	4.36
541.071	4.35
541.27	4.37
541.469	4.32
541.668	4.33
541.867	4.36
542.066	4.39
542.265	4.4
542.464	4.38
542.663	4.43
542.862	4.53
543.06	4.55
543.259	4.59
543.458	4.68
543.657	4.75
543.856	4.78
544.054	4.78
544.253	4.8
544.452	4.78
544.651	4.71
544.849	4.66
545.048	4.73
545.247	4.73
545.445	4.78
545.644	4.84
545.843	4.83
546.041	4.84
546.24	4.9
546.438	4.95
546.637	4.99
546.836	5.13
547.034	5.13
547.233	5.12
547.431	5.11
547.63	5.16
547.828	5.1
548.027	5.18
548.225	5.24
548.423	5.26
548.622	5.34
548.82	5.35
549.019	5.36
549.217	5.4
549.415	5.4
549.614	5.41
549.812	5.43
550.01	5.4
550.209	5.43
550.407	5.53
550.605	5.52
550.803	5.63
551.002	5.72
551.2	5.77
551.398	5.81
551.596	5.91
551.794	5.92
551.993	5.96
552.191	5.97
552.389	6.05
552.587	6.03
552.785	6.06
552.983	6.16
553.181	6.22
553.379	6.23
553.577	6.29
553.775	6.35
553.973	6.38
554.171	6.48
554.369	6.49
554.567	6.52
554.765	6.57
554.963	6.64
555.161	6.61
555.359	6.67
555.557	6.83
555.755	6.88
555.952	6.94
556.15	6.97
556.348	7.01
556.546	7.06
556.744	7.11
556.941	7.13
557.139	7.23
557.337	7.32
557.535	7.3
557.732	7.32
557.93	7.42
558.128	7.45
558.325	7.47
558.523	7.55
558.721	7.68
558.918	7.68
559.116	7.8
559.313	7.79
559.511	7.89
559.708	7.87
559.906	7.88
560.104	7.92
560.301	8.08
560.498	8.09
560.696	8.13
560.893	8.23
561.091	8.3
561.288	8.34
561.486	8.42
561.683	8.54
561.88	8.67
562.078	8.73
562.275	8.74
562.473	8.8
562.67	8.94
562.867	8.92
563.064	8.99
563.262	9.07
563.459	9.1
563.656	9.15
563.853	9.19
564.051	9.19
564.248	9.32
564.445	9.4
564.642	9.44
564.839	9.59
565.036	9.75
565.234	9.85
565.431	9.92
565.628	9.99
565.825	10.08
566.022	10.2
566.219	10.25
566.416	10.29
566.613	10.33
566.81	10.31
567.007	10.25
567.204	10.18
567.401	10.19
567.598	10.22
567.795	10.28
567.991	10.32
568.188	10.42
568.385	10.56
568.582	10.61
568.779	10.65
568.976	10.68
569.172	10.74
569.369	10.67
569.566	10.76
569.763	10.81
569.96	10.9
570.156	10.92
570.353	11.03
570.55	11.03
570.746	11.09
570.943	11.1
571.14	11.07
571.336	11.12
571.533	11.18
571.729	11.15
571.926	11.26
572.123	11.4
572.319	11.47
572.516	11.47
572.712	11.56
572.909	11.49
573.105	11.57
573.302	11.56
573.498	11.65
573.695	11.56
573.891	11.64
574.087	11.58
574.284	11.52
574.48	11.41
574.677	11.52
574.873	11.57
575.069	11.62
575.266	11.72
575.462	11.76
575.658	11.82
575.854	11.79
576.051	11.73
576.247	11.64
576.443	11.66
576.639	11.58
576.835	11.55
577.032	11.6
577.228	11.75
577.424	11.77
577.62	11.72
577.816	11.81
578.012	11.78
578.208	11.71
578.404	11.76
578.6	11.77
578.796	11.7
578.993	11.67
579.189	11.69
579.384	11.53
579.58	11.48
579.776	11.48
579.972	11.49
580.168	11.41
580.364	11.52
580.56	11.54
580.756	11.57
580.952	11.56
581.148	11.6
581.343	11.59
581.539	11.68
581.735	11.66
581.931	11.65
582.127	11.73
582.322	11.66
582.518	11.63
582.714	11.61
582.909	11.65
583.105	11.51
583.301	11.55
583.496	11.61
583.692	11.56
583.888	11.57
584.083	11.65
584.279	11.64
584.474	11.52
584.67	11.59
584.866	11.53
585.061	11.4
585.257	11.47
585.452	11.48
585.648	11.32
585.843	11.36
586.039	11.46
586.234	11.34
586.429	11.32
586.625	11.51
586.82	11.45
587.015	11.38
587.211	11.34
587.406	11.37
587.601	11.23
587.797	11.2
587.992	11.22
588.187	11.33
588.383	11.3
588.578	11.38
588.773	11.41
588.968	11.42
589.163	11.46
589.359	11.47
589.554	11.4
589.749	11.42
589.944	11.45
590.139	11.39
590.334	11.41
590.529	11.39
590.724	11.43
590.919	11.47
591.114	11.51
591.309	11.6
591.504	11.71
591.699	11.68
591.894	11.71
592.089	11.71
592.284	11.66
592.479	11.77
592.674	11.75
592.869	11.8
593.064	11.95
593.259	12.02
593.454	12.01
593.648	12.1
593.843	12
594.038	11.96
594.233	11.96
594.428	11.94
594.622	11.98
594.817	12.17
595.012	12.13
595.206	12.08
595.401	12.15
595.596	12.19
595.79	12.23
595.985	12.32
596.18	12.51
596.374	12.57
596.569	12.64
596.763	12.56
596.958	12.66
597.153	12.71
597.347	12.67
597.542	12.78
597.736	12.86
597.931	12.96
598.125	12.94
598.319	13.1
598.514	13.03
598.708	13.11
598.903	13.04
599.097	13.12
599.291	13.11
599.486	13.13
599.68	13.13
599.874	13.24
600.069	13.29
600.263	13.28
600.457	13.36
600.651	13.4
600.846	13.38
601.04	13.36
601.234	13.39
601.428	13.44
601.622	13.52
601.817	13.51
602.011	13.59
602.205	13.64
602.399	13.64
602.593	13.62
602.787	13.73
602.981	13.71
603.175	13.73
603.369	13.67
603.563	13.69
603.757	13.72
603.951	13.7
604.145	13.71
604.339	13.71
604.533	13.65
604.727	13.6
604.921	13.6
605.115	13.56
605.309	13.68
605.502	13.69
605.696	13.62
605.89	13.54
606.084	13.52
606.278	13.38
606.471	13.29
606.665	13.22
606.859	13.18
607.053	13.16
607.246	13.19
607.44	13.19
607.634	13.17
607.827	13.2
608.021	13.1
608.214	13.01
608.408	12.97
608.602	12.96
608.795	12.93
608.989	12.82
609.182	12.8
609.376	12.8
609.569	12.77
609.763	12.7
609.956	12.72
610.15	12.6
610.343	12.56
610.537	12.45
610.73	12.31
610.923	12.38
611.117	12.37
611.31	12.23
611.504	12.21
611.697	12.21
611.89	12.09
612.083	12.01
612.277	12.03
612.47	11.93
612.663	11.88
612.856	11.73
613.05	11.6
613.243	11.54
613.436	11.51
613.629	11.48
613.822	11.51
614.015	11.56
614.209	11.41
614.402	11.45
614.595	11.39
614.788	11.3
614.981	11.15
615.174	11.06
615.367	10.91
615.56	10.8
615.753	10.76
615.946	10.77
616.139	10.88
616.332	10.92
616.525	10.94
616.718	10.93
616.911	10.9
617.103	10.81
617.296	10.76
617.489	10.6
617.682	10.52
617.875	10.53
618.067	10.47
618.26	10.34
618.453	10.52
618.646	10.51
618.838	10.52
619.031	10.66
619.224	10.69
619.417	10.53
619.609	10.56
619.802	10.5
619.994	10.43
620.187	10.42
620.38	10.38
620.572	10.25
620.765	10.16
620.957	10
621.15	9.91
621.342	9.89
621.535	9.98
621.727	9.96
621.92	9.95
622.112	9.94
622.305	9.98
622.497	9.85
622.69	9.86
622.882	9.89
623.074	9.92
623.267	9.83
623.459	9.78
623.651	9.69
623.844	9.67
624.036	9.67
624.228	9.65
624.42	9.67
624.613	9.85
624.805	9.82
624.997	9.78
625.189	9.79
625.381	9.85
625.574	9.72
625.766	9.69
625.958	9.7
626.15	9.76
626.342	9.72
626.534	9.77
626.726	9.74
626.918	9.69
627.11	9.62
627.302	9.61
627.494	9.51
627.686	9.53
627.878	9.46
628.07	9.4
628.262	9.33
628.454	9.38
628.646	9.37
628.838	9.47
629.029	9.49
629.221	9.52
629.413	9.39
629.605	9.26
629.797	9.15
629.989	9.19
630.18	9.13
630.372	9.16
630.564	9.18
630.755	9.25
630.947	9.26
631.139	9.15
631.33	9.04
631.522	9.09
631.714	9.05
631.905	8.94
632.097	8.98
632.289	8.99
632.48	8.92
632.672	8.82
632.863	8.71
633.055	8.67
633.246	8.71
633.438	8.63
633.629	8.71
633.821	8.82
634.012	8.8
634.203	8.67
634.395	8.74
634.586	8.67
634.777	8.65
634.969	8.66
635.16	8.78
635.351	8.68
635.543	8.73
635.734	8.71
635.925	8.74
636.117	8.76
636.308	8.81
636.499	8.73
636.69	8.64
636.881	8.54
637.073	8.51
637.264	8.46
637.455	8.51
637.646	8.62
637.837	8.71
638.028	8.66
638.219	8.72
638.41	8.61
638.601	8.55
638.792	8.55
638.983	8.55
639.174	8.5
639.365	8.57
639.556	8.54
639.747	8.49
639.938	8.52
640.129	8.44
640.32	8.39
640.511	8.39
640.701	8.48
640.892	8.46
641.083	8.47
641.274	8.52
641.465	8.58
641.655	8.4
641.846	8.37
642.037	8.33
642.228	8.22
642.418	8.21
642.609	8.2
642.8	8.18
642.99	8.18
643.181	8.23
643.372	8.21
643.562	8.3
643.753	8.27
643.943	8.27
644.134	8.14
644.324	8.04
644.515	7.99
644.705	8
644.896	8.01
645.086	8.13
645.277	8.14
645.467	8.12
645.658	8.07
645.848	8.08
646.038	8.02
646.229	8
646.419	7.94
646.61	7.94
646.8	7.87
646.99	7.83
647.18	7.85
647.371	7.86
647.561	7.78
647.751	7.8
647.941	7.71
648.132	7.72
648.322	7.72
648.512	7.82
648.702	7.81
648.892	7.89
649.082	7.86
649.272	7.77
649.462	7.6
649.653	7.54
649.843	7.44
650.033	7.44
650.223	7.41
650.413	7.42
650.603	7.54
650.793	7.63
650.983	7.54
651.172	7.53
651.362	7.55
651.552	7.39
651.742	7.31
651.932	7.33
652.122	7.38
652.312	7.5
652.502	7.51
652.691	7.52
652.881	7.43
653.071	7.42
653.261	7.19
653.45	7.11
653.64	7.07
653.83	7.05
654.019	6.98
654.209	6.88
654.399	6.93
654.588	6.89
654.778	6.81
654.968	6.7
655.157	6.8
655.347	6.71
655.536	6.63
655.726	6.57
655.915	6.45
656.105	6.32
656.294	6.27
656.484	6.09
656.673	6.07
656.863	6.09
657.052	5.99
657.241	5.81
657.431	5.77
657.62	5.7
657.809	5.49
657.999	5.4
658.188	5.41
658.377	5.3
658.567	5.25
658.756	5.27
658.945	5.23
659.134	5.08
659.324	5.04
659.513	4.96
659.702	4.8
659.891	4.72
660.08	4.7
660.269	4.75
660.458	4.61
660.648	4.62
660.837	4.56
661.026	4.53
661.215	4.36
661.404	4.33
661.593	4.35
661.782	4.22
661.971	4.27
662.16	4.26
662.349	4.25
662.538	4.1
662.726	4.14
662.915	3.97
663.104	3.9
663.293	3.87
663.482	3.94
663.671	3.91
663.86	3.85
664.048	3.82
664.237	3.82
664.426	3.68
664.615	3.69
664.803	3.7
664.992	3.64
665.181	3.58
665.369	3.62
665.558	3.52
665.747	3.5
665.935	3.6
666.124	3.7
666.312	3.65
666.501	3.65
666.69	3.63
666.878	3.57
667.067	3.38
667.255	3.52
667.444	3.88
667.632	4.05
667.82	4.19
668.009	4.27
668.197	4.23
668.386	4.08
668.574	4.11
668.762	4.09
668.951	4.07
669.139	4.06
669.327	3.98
669.516	4.02
669.704	3.89
669.892	4.12
670.08	4.16
670.269	4.06
670.457	3.93
670.645	3.95
670.833	4.01
671.021	4.02
671.21	4.28
671.398	4.59
671.586	4.7
671.774	4.55
671.962	4.64
672.15	4.58
672.338	4.39
672.526	4.44
672.714	4.41
672.902	4.36
673.09	4.47
673.278	4.72
673.466	4.78
673.654	5.07
673.842	5.14
674.03	5.23
674.218	5.03
674.405	5.09
674.593	5.07
674.781	5.17
674.969	5.3
675.157	5.61
675.344	5.74
675.532	5.78
675.72	5.97
675.908	5.9
676.095	5.76
676.283	5.75
676.471	5.98
676.658	6.01
676.846	6.03
677.033	6.31
677.221	6.3
677.409	6.13
677.596	6.06
677.784	6.09
677.971	5.98
678.159	6.13
678.346	6.26
678.534	6.45
678.721	6.65
678.909	6.68
679.096	6.65
679.283	6.85
679.471	6.91
679.658	6.93
679.846	7.1
680.033	7.37
680.22	7.32
680.408	7.33
680.595	7.35
680.782	7.27
680.969	7.24
681.157	7.29
681.344	7.34
681.531	7.36
681.718	7.44
681.905	7.49
682.093	7.71
682.28	7.86
682.467	8.15
682.654	8.27
682.841	8.31
683.028	8.38
683.215	8.44
683.402	8.23
683.589	8.35
683.776	8.53
683.963	8.38
684.15	8.5
684.337	8.78
684.524	8.91
684.711	9.09
684.898	9.19
685.085	9.31
685.271	9.48
685.458	9.64
685.645	9.71
685.832	10.08
686.019	10.23
686.205	10.24
686.392	10.34
686.579	10.37
686.766	10.54
686.952	10.68
687.139	11.12
687.326	11.33
687.512	11.65
687.699	11.87
687.886	12.1
688.072	12.05
688.259	12.34
688.445	12.62
688.632	12.67
688.818	13.1
689.005	13.44
689.191	13.6
689.378	14.02
689.564	14.43
689.751	14.76
689.937	15
690.124	15.34
690.31	15.39
690.496	15.72
690.683	16.01
690.869	16.43
691.055	16.86
691.242	17.47
691.428	18.08
691.614	18.55
691.8	19.2
691.987	19.81
692.173	20.37
692.359	20.72
692.545	21.32
692.731	21.7
692.918	22.21
693.104	22.5
693.29	23.11
693.476	23.53
693.662	24.16
693.848	24.55
694.034	25.22
694.22	25.62
694.406	26.25
694.592	26.87
694.778	27.49
694.964	28.03
695.15	28.69
695.336	29.31
695.522	30.16
695.708	30.55
695.894	31.3
696.08	32.16
696.265	32.67
696.451	33.19
696.637	34.16
696.823	34.76
697.009	35.37
697.194	36.12
697.38	36.58
697.566	37.03
697.751	37.83
697.937	38.62
698.123	39.02
698.308	39.86
698.494	40.68
698.68	41.12
698.865	41.57
699.051	42.34
699.236	42.72
699.422	43.16
699.607	43.7
699.793	44.11
699.978	44.39
700.164	44.91
700.349	45.88
700.535	46.53
700.72	47.12
700.906	48.21
701.091	48.75
701.276	49.11
701.462	49.92
701.647	50.49
701.832	50.95
702.018	51.62
702.203	51.94
702.388	52
702.573	52.5
702.759	53
702.944	53.5
703.129	54.1
703.314	54.64
703.499	55.25
703.684	55.47
703.87	56.23
704.055	57.07
704.24	57.72
704.425	58.5
704.61	59.39
704.795	59.57
704.98	59.72
705.165	60.17
705.35	60.35
705.535	60.6
705.72	60.94
705.905	61.66
706.09	62.5
706.275	63.01
706.459	63.08
706.644	63.55
706.829	63.65
707.014	63.54
707.199	64.11
707.384	64.82
707.568	65.24
707.753	65.92
707.938	66.33
708.123	66.01
708.307	66.19
708.492	66.54
708.677	66.62
708.861	66.91
709.046	67.34
709.231	68.1
709.415	68.51
709.6	68.5
709.784	68.71
709.969	68.88
710.153	68.81
710.338	69.21
710.522	69.75
710.707	70.33
710.891	70.73
711.076	71.11
711.26	71.13
711.445	71.45
711.629	71.45
711.813	72.07
711.998	72.16
712.182	72.29
712.366	72.87
712.551	73.66
712.735	73.87
712.919	74
713.103	74.23
713.288	73.99
713.472	73.78
713.656	74.5
713.84	74.94
714.024	75.5
714.208	75.73
714.393	76.23
714.577	75.98
714.761	76.27
714.945	76.24
715.129	76.55
715.313	76.94
715.497	77.26
715.681	77.98
715.865	78.3
716.049	78.5
716.233	78.3
716.417	78.32
716.601	77.7
716.785	77.83
716.968	77.82
717.152	78.33
717.336	78.74
717.52	78.9
717.704	79.08
717.888	80.12
718.071	80.4
718.255	80.32
718.439	80.74
718.622	81.33
718.806	81.14
718.99	80.55
719.174	80.58
719.357	80.89
719.541	80.59
719.724	80.64
719.908	81.76
720.092	82.09
720.275	82.61
720.459	82.91
720.642	82.66
720.826	82.21
721.009	82.35
721.193	81.73
721.376	81.73
721.559	82.59
721.743	83.07
721.926	83.26
722.11	83.97
722.293	84.33
722.476	84.41
722.66	84.24
722.843	84.47
723.026	83.91
723.21	83.91
723.393	84.27
723.576	84.49
723.759	84.07
723.942	84.74
724.126	85.11
724.309	85.33
724.492	85.22
724.675	86.02
724.858	86.1
725.041	86.34
725.224	86.03
725.407	86.51
725.59	86.43
725.774	86.44
725.957	85.62
726.14	85.35
726.322	85.54
726.505	85.7
726.688	86.8
726.871	87.47
727.054	87.75
727.237	87.62
727.42	88.01
727.603	87.87
727.786	88.64
727.968	88.84
728.151	89.1
728.334	88.69
728.517	88.67
728.699	88.85
728.882	88.73
729.065	89.47
729.248	90.42
729.43	90.66
729.613	91.25
729.796	92.32
729.978	92.29
730.161	92.02
730.343	91.4
730.526	91.21
730.708	90.52
730.891	90.43
731.073	90.7
731.256	90.61
731.438	89.81
731.621	91.06
731.803	90.79
731.986	90.59
732.168	90.72
732.35	91.26
732.533	90.87
732.715	90.87
732.898	91.18
733.08	91.24
733.262	92.19
733.444	92.02
733.627	92.23
733.809	92.86
733.991	94.3
734.173	93.21
734.355	93.01
734.538	93.36
734.72	92.18
734.902	91.82
735.084	92.85
735.266	92.93
735.448	93.39
735.63	94.24
735.812	94.31
735.994	94.64
736.176	95.34
736.358	95.08
736.54	96.59
736.722	95.4
736.904	94.53
737.086	94.63
737.268	95.77
737.45	94.54
737.632	96.08
737.814	95.95
737.995	96.35
738.177	95.49
738.359	94.77
738.541	94.15
738.723	94.19
738.904	93.49
739.086	94
739.268	94.88
739.449	96.18
739.631	96.16
739.813	97.41
739.994	96.93
740.176	97.11
740.358	95.96
740.539	97.23
740.721	97.26
740.902	99.02
741.084	98.76
741.265	98.71
741.447	98.49
741.628	97.29
741.81	95.86
741.991	96.55
742.172	97.67
742.354	98.5
742.535	99.15
742.717	99.77
742.898	100.24
743.079	100.81
743.261	99.45
743.442	98.03
743.623	98.94
743.804	98.46
743.986	98.26
744.167	97.54
744.348	99.14
744.529	98.73
744.71	97.31
744.891	96.62
745.073	96.52
745.254	94.79
745.435	93.44
745.616	93.19
745.797	93.21
745.978	93.43
746.159	95.34
746.34	95.4
746.521	98.2
746.702	97.42
746.883	97.23
747.064	96.37
747.245	96.03
747.426	94.56
747.606	95.29
747.787	96.81
747.968	97.09
748.149	98.14
748.33	98.91
748.51	98.41
748.691	97.94
748.872	97.28
749.053	96.1
749.233	94.35
749.414	94.22
749.595	92.58
749.775	92.37
749.956	92.69
750.137	93.75
750.317	94.13
750.498	96.6
750.678	97.73
750.859	98.04
751.04	98.26
751.22	96.96
751.4	96.14
751.581	94.75
751.761	94.91
751.942	94.27
752.122	95.63
752.303	94.29
752.483	94.25
752.663	93.24
752.844	92.55
753.024	93.33
753.204	94.9
753.385	94.72
753.565	95.49
753.745	95.74
753.925	94.31
754.106	92.8
754.286	93.21
754.466	92.73
754.646	93.89
754.826	94.12
755.006	93.3
755.187	94.82
755.367	95.77
755.547	95.66
755.727	95.48
755.907	97.46
756.087	96.72
756.267	95.77
756.447	95.2
756.627	95.03
756.807	94.59
756.987	94.11
757.167	95.08
757.346	96.28
757.526	94.84
757.706	95.16
757.886	95.64
758.066	95.86
758.246	96.12
758.425	96.94
758.605	96.3
758.785	95.06
758.965	94.21
759.144	91.27
759.324	92.93
759.504	94.22
759.683	96.31
759.863	95.34
760.043	95.23
760.222	94.1
760.402	92.83
760.581	91.38
760.761	92.94
760.94	92.11
761.12	93.28
761.299	93.36
761.479	92.27
761.658	89.82
761.838	91.16
762.017	89.41
762.197	89.59
762.376	92.49
762.555	94.44
762.735	94.25
762.914	93.16
763.093	92.69
763.273	89.97
763.452	89.13
763.631	89.4
763.81	90.75
763.99	91.53
764.169	92.96
764.348	91.25
764.527	89.9
764.706	91.66
764.885	91.96
765.064	89.9
765.243	90.5
765.423	92.37
765.602	89.74
765.781	87.15
765.96	87.76
766.139	87.97
766.318	88.71
766.497	88.86
766.676	89.65
766.854	90.72
767.033	90.66
767.212	89.83
767.391	90.19
767.57	91.35
767.749	91.55
767.928	92.79
768.106	90.96
768.285	88.11
768.464	87.24
768.643	86.7
768.821	86.93
769	89.41
769.179	90.77
769.357	89.88
769.536	89.36
769.715	89.23
769.893	89.56
770.072	90.46
770.25	90.15
770.429	91.06
770.607	90.36
770.786	88.62
770.964	91.51
771.143	92.16
771.321	92.57
771.5	93.21
771.678	92.22
771.857	87.64
772.035	88.23
772.213	86.91
772.392	84.92
772.57	87.01
772.748	89.42
772.927	88.35
773.105	87.07
773.283	88.77
773.461	88.01
773.64	87.39
773.818	88.21
773.996	91
774.174	89.11
774.352	86.18
774.531	83.88
774.709	85.68
774.887	82.89
775.065	83.61
775.243	85.85
775.421	87.21
775.599	86.36
775.777	84.77
775.955	82.91
776.133	81.9
776.311	80.85
776.489	78.22
776.667	80.31
776.844	82.78
777.022	82.93
777.2	83.09
777.378	83.84
777.556	84.38
777.734	83.67
777.911	84.27
778.089	84.1
778.267	84.38
778.445	82.45
778.622	81.99
778.8	82.08
778.978	85.44
779.155	83.09
779.333	83.67
779.511	84.21
779.688	84.82
779.866	80.94
780.043	79.86
780.221	81.57
780.398	78.48
780.576	80.39
780.753	81.73
780.931	81.61
781.108	79.74
781.286	81
781.463	78.01
781.64	73.52
781.818	78.05
781.995	80.88
782.172	80.57
782.35	80.43
782.527	86.24
782.704	84.41
782.882	82.89
783.059	82.78
783.236	80.15
783.413	80.97
783.59	82.61
783.768	83.35
783.945	85.09
784.122	86.76
784.299	86.28
784.476	83.71
784.653	81.57
784.83	80.19
785.007	78.83
785.184	78.84
785.361	78.28
785.538	83.22
785.715	84.94
785.892	88.37
786.069	89.41
786.246	91.4
786.423	87.24
786.6	85.76
786.776	84.51
786.953	79.56
787.13	79.54
787.307	79.9
787.484	80.87
787.66	78.49
787.837	80.9
788.014	79.42
788.191	77.2
788.367	74.46
788.544	77.64
788.721	74.54
788.897	77.29
789.074	81.29
789.25	79.82
789.427	81.91
789.603	84.26
789.78	81.01
789.956	76.12
790.133	74.82
790.309	74.81
790.486	78.17
790.662	77.4
790.839	76.78
791.015	81.62
791.192	76.57
791.368	74.84
791.544	76.08
791.721	78.24
791.897	76.76
792.073	76.12
792.249	70.82
792.426	72.81
792.602	75.86
792.778	77.46
792.954	77.99
793.13	80.87
793.307	73.22
793.483	66.49
793.659	62
793.835	63.63
794.011	62.67
794.187	65.12
794.363	63.18
794.539	72.09
794.715	67.75
794.891	68.44
795.067	69.04
795.243	73.3
795.419	69.39
795.595	68.32
795.771	67.6
795.947	68.47
796.122	66.57
796.298	68.89
796.474	72.44
796.65	70.94
796.826	69.17
797.001	71.47
797.177	67.35
797.353	70.83
797.529	72.74
797.704	72.37
797.88	70.02
798.056	66.39
798.231	62.07
798.407	65.17
798.582	66.89
798.758	74.25
798.934	82.59
799.109	80.57
799.285	74.05
799.46	80.16
799.636	74.43
799.811	70.75
799.986	72.73
800.162	77.1
800.337	73.87
800.513	68.49
800.688	65.23
800.863	71.68
801.039	65.44
801.214	61.75
801.389	69.4
801.565	70.91
801.74	61.45
801.915	69.89
802.09	67.28
802.265	69.62
802.441	65.53
802.616	66.08
802.791	62.94
802.966	67.61
803.141	64.81
803.316	65.38
803.491	71.46
803.666	75.37
803.841	72.42
804.016	70.3
804.191	73.11
804.366	66.32
804.541	60.1
804.716	56.89
804.891	53.49
805.066	56.96
805.241	55
805.416	60.51
805.591	59.51
805.765	63.73
805.94	64.26
806.115	63.74
806.29	49.24
806.464	53.48
806.639	50.76
806.814	45.48
806.989	47.44
807.163	65.26
807.338	64.68
807.512	66.67
807.687	55.07
807.862	61.37
808.036	55.36
808.211	64.06
808.385	70.35
808.56	84.64
808.734	80.09
808.909	75.74
809.083	62.03
809.258	64.84
809.432	65.8
809.606	53.02
809.781	54.52
809.955	67.38
810.13	64.6
810.304	56.92
810.478	64.6
810.652	73.57
810.827	65.98
811.001	58.08
811.175	57.36
811.349	54.03
811.524	45.35
811.698	40.81
811.872	41.58
812.046	47.5
812.22	57.89
812.394	59.88
812.568	63.7
812.742	66.46
812.916	63.48
813.09	55.04
813.264	48.68
813.438	58
813.612	50.06
813.786	47.48
813.96	58.54
814.134	61.1
814.308	57.3
814.482	70.95
814.656	67.91
814.83	68.59
815.003	78.9
815.177	69.13
815.351	64.19
815.525	59.77
815.698	51.22
815.872	29.28
816.046	23.32
816.219	32.94
816.393	55.06
816.567	65.01
816.74	78.06
816.914	88.47
817.088	85.5
817.261	65.34
817.435	59.94
817.608	57
817.782	38.69
817.955	35.94
818.129	42.99
818.302	42.47
818.475	52.95
818.649	62.25
818.822	53.33
818.996	66.6
819.169	66.79
819.342	48.61
819.516	55.98
819.689	61.89
819.862	47.89
820.035	39.58
820.209	43.38
820.382	32.59
820.555	35.39
820.728	25.39
820.901	21.54
821.075	16.86
821.248	27.72
821.421	6.85
821.594	22.05
821.767	55.2
821.94	66.55
822.113	43.28
822.286	48.78
822.459	54.31
822.632	30.76
822.805	12.46
822.978	19.25
823.151	21.59
823.324	7.85
823.496	-4.84
823.669	3.45
823.842	5.48
824.015	-6.62
824.188	-11.11
824.361	-5.17
824.533	-14.88
824.706	-14.43
824.879	-11.23
825.051	1.1
825.224	1.73
825.397	7.63
825.569	1.73
825.742	17.67
825.915	17.76
826.087	32.45
826.26	26.86
826.432	45.36
826.605	41.67
826.777	32.17
826.95	24.57
827.122	12.11
827.295	-1.68
827.467	0.3
827.64	-34.63
827.812	-25.2
827.984	-15.2
828.157	-7.82
828.329	-31.37
828.501	4.12
828.674	32.43
828.846	24.53
829.018	36.2
829.19	34.08
829.363	56.02
829.535	34.11
829.707	47.63
829.879	27.74
830.051	21.5
830.223	0.41
830.395	-14.88
830.568	-30.77
830.74	-56.45
830.912	-19.76
831.084	-31.36
831.256	-7.86
831.428	-9.6
831.6	-11.04
831.772	-37.52
831.943	-48.34
832.115	-29.48
832.287	-20.32
832.459	-2.13
832.631	7.03
832.803	48.47
832.975	53.44
833.146	57.19
833.318	60.17
833.49	79.7
833.662	28.21
833.833	11.27
834.005	12.3
834.177	15.38
834.348	2.75
834.52	5.83
834.692	11.28
834.863	-4.03
835.035	-0.22
835.206	-38.93
835.378	-35.82
835.549	-47.04
835.721	-29.49
835.892	-20.47
836.064	-10.47
836.235	-8.76
836.407	22.23
836.578	-8.45
836.749	-17.74
836.921	-50
837.092	-51.75
837.264	-61.89
837.435	-47.47
837.606	-8.52
837.777	27.99
837.949	50.52
838.12	45.58
838.291	54.88
838.462	34.75
838.633	18.09
838.805	8.72
838.976	23.9
839.147	-55.19
839.318	-47.43
839.489	-106.91
839.66	-118.96
839.831	-63.5
840.002	-35.31
840.173	-34.61
840.344	-0.55
840.515	6.22
840.686	-141.58
840.857	-89.09
841.028	-104.22
841.199	-70.15
841.369	-88.54
841.54	-65.47
841.711	-20.93
841.882	-4.59
842.053	2.22
842.223	3.58
842.394	6.74
842.565	-6.44
842.736	-1.5
842.906	-9.18
843.077	1.22
843.248	8.93
843.418	-12.47
843.589	-55.73
843.759	-18.52
843.93	-24.56
844.101	-15.59
844.271	-6.23
844.442	2.91
844.612	7.57
844.783	-19.98
844.953	-56.48
845.123	-62.71
845.294	-77.72
845.464	-273.88
845.635	-105.61
845.805	-57.01
845.975	-37.15
846.146	-51.5
846.316	-35.02
846.486	-10.52
846.656	22.33
846.827	13.66
846.997	9.92
847.167	41.27
847.337	5.72
847.507	-31.53
847.677	6.74
847.848	48.82
848.018	29.33
848.188	36.15
848.358	19.63
848.528	-16.14
848.698	-61.83
848.868	-169.17
849.038	-296.74
849.208	-110.14
849.378	-51.16
849.548	-40.78
849.718	-6.95
849.887	22.66
850.057	-12.7
850.227	-46.54
850.397	-67.15
850.567	-192.04
850.737	-577.61
850.906	-1739.38
851.076	-1216.02
851.246	-585.6
851.415	-124.06
851.585	-84.69
851.755	-104.32
851.924	-45.71
852.094	-114.75
852.264	-213.61
852.433	-1231.25
852.603	-220.42
852.772	-168.77
852.942	-60.83
853.111	-76.73
853.281	-18.21
853.45	12.08
853.62	-56.88
853.789	-33.68
853.959	12.69
854.128	-6.57
854.297	-52.31
854.467	-80.19
854.636	-119.91
854.805	-19.58
854.975	-56.4
855.144	-149.45
855.313	-180.07
855.482	-435.4
855.652	-299.82
855.821	-185.61
855.99	-8.13
856.159	17.82
856.328	24.67
856.497	1.86
856.667	12.09
856.836	3.73
857.005	-43.18
857.174	-79.76
857.343	-101.39
857.512	-131.93
857.681	-111.56
857.85	-118.11
858.019	-43.87
858.188	-39.19
858.356	-40.5
858.525	-97.94
858.694	-82.52
858.863	-181.52
859.032	-126.04
859.201	-169.47
859.369	-125.38
859.538	-88.62
859.707	-77
859.876	-125.96
860.044	-155.75
860.213	-43.81
860.382	-59
860.55	-58.8
860.719	0.96
860.888	20.65
861.056	-8.63
861.225	-1.6
861.393	36.9
861.562	-2.57
861.73	-101.86
861.899	-142.67
862.067	-1539.66
862.236	-82.35
862.404	-238.47
862.572	-91.1
862.741	-38.84
862.909	-30.97
863.078	-113.96
863.246	-55.12
863.414	-53.16
863.582	-53.36
863.751	-100.07
863.919	-90.25
864.087	-62.22
864.255	-47.7
864.424	-402.59
864.592	-61.18
864.76	-151.86
864.928	-282.8
865.096	-224.36
865.264	-111.46
865.432	-1512.5
865.6	21.25
865.768	-116.34
865.936	-148.7
866.104	-192.98
866.272	-242.66
866.44	-545.47
866.608	663.32
866.776	287.6
866.944	2915.12
867.112	-613.77
867.28	-249.83
867.448	-129.62
867.615	-51.9
867.783	-11.07
867.951	-20.73
868.119	4.04
868.286	-31.92
868.454	-213.74
868.622	-221.12
868.789	-250.19
868.957	-4282.14
869.125	-2477.63
869.292	-122.97
869.46	-235.16
869.627	-12.93
869.795	-33.74
869.963	-0.51
870.13	21.43
870.298	66.59
870.465	-46.05
870.632	-48.03
870.8	-58.68
870.967	-146.91
871.135	-268.97
871.302	-194.58
871.469	-244.14
871.637	-232.56
871.804	-116.42
871.971	-165.91
872.139	-556.51
872.306	-97.62
872.473	-122.84
872.64	-440.13
872.807	-205.36
872.975	-27.82
873.142	-302
873.309	1993.24
873.476	-15.58
873.643	64.72
873.81	18.81
873.977	63.76
874.144	27.18
874.311	-139.65
874.478	-165.68
874.645	-167.04
874.812	-144.06
874.979	-75.47
875.146	-56.53
875.313	-53.47
875.48	49.78
875.647	9.53
875.813	-32.02
875.98	-15.21
876.147	-64.26
876.314	-191.73
876.481	1236.78
876.647	-1583.71
876.814	700.78
876.981	-160.19
877.147	-67.56
877.314	-10.97
877.481	7.5
877.647	17.3
877.814	-23.1
877.98	-107.64
878.147	-69.9
878.314	-5.12
878.48	-60.31
878.647	-28.95
878.813	29.33
878.979	14.31
879.146	-26.02
879.312	-31.1
879.479	-100.58
879.645	-198.4
879.811	-326.34
879.978	-1020.99
880.144	-239.19
880.31	-140.8
880.477	-408.36
880.643	-549.12
880.809	-218.71
880.975	-225.19
881.142	-1169.55
881.308	-163.96
881.474	-90.89
881.64	-62.82
881.806	-91.76
881.972	-44.3
882.138	-50
882.304	-74.21
882.47	-289.52
882.636	-1206.97
882.802	-395.38
882.968	-153.65
883.134	-72.75
883.3	-68.03
883.466	7.23
883.632	51.31
883.798	21.56
883.964	7.75
884.129	19.64
884.295	52.83
884.461	-66.94
884.627	-54.67
884.793	-58.86
884.958	-23.2
885.124	-165.55
885.29	-199.69
885.455	-407.52
885.621	-114.14
885.787	-151.8
885.952	-69.86
886.118	-78.34
886.283	-61.4
886.449	-191.1
886.614	-197.05
886.78	-349.42
886.945	1307.38
887.111	-610.12
887.276	-476.99
887.442	-869.55
887.607	-282.78
887.773	-286.46
887.938	-237.21
888.103	-328.64
888.269	-188.7
888.434	-494.32
888.599	-128.55
888.764	-63.18
888.93	-24.49
889.095	-59.94
889.26	-77.54
889.425	-64.05
889.59	-57.94
889.756	-87.77
889.921	-93.68
890.086	-38.99
890.251	-52.09
890.416	-191.42
890.581	-1470.16
890.746	162.68
890.911	532.8
891.076	193.33
891.241	-622.01
891.406	-42.21
891.571	-69.55
891.736	-192.43
891.901	-464.16
892.065	586.26
892.23	168.98
892.395	250.59
892.56	330.2
892.725	-388.67
892.889	-1271.95
893.054	-138.01
893.219	-60.87
893.384	-41.45
893.548	-97.64
893.713	-102.9
893.878	-81.54
