Data from Ofra_PS_T2_2A_2CX12_Reflection_1.txt Node
Date: Wed Jul 21 16:57:59 EDT 2021
User: Adam
Spectrometer: FLMT01687
Trigger mode: 0
Integration Time (sec): 1.100000E0
Scans to average: 2
Electric dark correction enabled: true
Nonlinearity correction enabled: false
Boxcar width: 2
XAxis mode: Wavelengths
Number of Pixels in Spectrum: 3648
>>>>>Begin Spectral Data<<<<<
179.494	368.2
179.716	385.88
179.937	382.91
180.158	349.56
180.38	485.78
180.601	213.95
180.823	79.86
181.044	-6.99
181.265	117.1
181.486	25.8
181.708	78.35
181.929	845.41
182.15	-232.75
182.372	39.44
182.593	-36.67
182.814	8.22
183.035	46.39
183.257	12.59
183.478	-61.97
183.699	-75.82
183.92	-44.45
184.141	-36.51
184.363	-66.81
184.584	-6.17
184.805	-2.49
185.026	1.9
185.247	1.67
185.468	-9.5
185.689	-6.39
185.91	9.17
186.132	11.28
186.353	0.81
186.574	61.61
186.795	40.32
187.016	13.62
187.237	-13.2
187.458	-17.13
187.679	-25.59
187.9	-30.41
188.121	-3.08
188.342	41.32
188.563	70.96
188.784	75.97
189.005	73.67
189.226	59.79
189.447	5.23
189.667	-263.71
189.888	-405.05
190.109	-1270.45
190.33	-646.61
190.551	-1192.26
190.772	-239.04
190.993	-209.84
191.214	-146.12
191.434	-79.15
191.655	41.93
191.876	-10.7
192.097	-97.07
192.318	-145.75
192.538	-127.64
192.759	-136.32
192.98	-41.69
193.201	29.75
193.421	49.78
193.642	46.43
193.863	50.93
194.083	39.78
194.304	18.64
194.525	-17.92
194.745	-62.43
194.966	-58.94
195.187	-81.74
195.407	-113.21
195.628	-138.29
195.848	-142
196.069	-145.35
196.29	-72.02
196.51	-51.42
196.731	-40.91
196.951	-42.05
197.172	-59.44
197.392	-83.34
197.613	-87.31
197.833	-119.59
198.054	-84.08
198.274	-24.92
198.495	-60.8
198.715	-17.65
198.936	6.32
199.156	0.24
199.377	-75.88
199.597	-43.81
199.817	-106.7
200.038	-81.3
200.258	-139.5
200.479	-101.78
200.699	-123.54
200.919	-25.55
201.14	-20.81
201.36	-42.49
201.58	9.55
201.801	26.47
202.021	-2.86
202.241	-11.05
202.461	-6.38
202.682	-86.3
202.902	-154.82
203.122	-87.26
203.342	-67.36
203.563	-30.14
203.783	-20.57
204.003	-34.2
204.223	-34.57
204.443	6.7
204.663	-16.01
204.884	26.04
205.104	60.6
205.324	62.82
205.544	71.25
205.764	86.96
205.984	61.21
206.204	63.47
206.424	52.74
206.644	33.7
206.864	22.43
207.084	-8.94
207.304	-57.64
207.525	-169.77
207.745	-127.25
207.964	-56.4
208.184	-51.79
208.404	-101.58
208.624	-99.84
208.844	-95.03
209.064	-389.92
209.284	-430.63
209.504	-188.6
209.724	-47.16
209.944	-28.58
210.164	0.64
210.384	12.28
210.604	-2.17
210.823	-51.76
211.043	-55
211.263	-35.54
211.483	-49.16
211.703	-74.7
211.922	-57.77
212.142	7.89
212.362	9.92
212.582	15.94
212.801	25
213.021	18.8
213.241	-15.24
213.461	-65.25
213.68	-83.01
213.9	-70.31
214.12	-47.36
214.339	-101.86
214.559	-57.14
214.779	-26.26
214.998	-30.31
215.218	-87.35
215.438	-31.63
215.657	-51.59
215.877	-25.19
216.096	12.11
216.316	27.22
216.535	1.62
216.755	2.94
216.974	-63.61
217.194	-141.13
217.413	-131.48
217.633	-128.26
217.852	-154.37
218.072	-58.71
218.291	-30.72
218.511	-14.11
218.73	-17.23
218.95	-18.31
219.169	-38.95
219.389	-64.83
219.608	-38.64
219.827	-39.53
220.047	-41.31
220.266	-12.26
220.485	3.14
220.705	22.1
220.924	17.02
221.143	35.52
221.363	18.36
221.582	29.08
221.801	24.01
222.021	25.26
222.24	-13.44
222.459	57.79
222.678	-13.33
222.897	-56.05
223.117	-80.28
223.336	-44.19
223.555	-22.64
223.774	29.54
223.993	56.79
224.213	66.71
224.432	43.35
224.651	42.54
224.87	3.82
225.089	3.6
225.308	-7.2
225.527	4.89
225.746	-12.57
225.965	-7.58
226.184	-39.27
226.404	-3.06
226.623	-23.93
226.842	-8.8
227.061	30.11
227.28	40.5
227.499	45.77
227.718	53.26
227.936	37.59
228.155	22.13
228.374	0.86
228.593	-2.55
228.812	-11.14
229.031	-9.21
229.25	-62.59
229.469	-63.42
229.688	-74.87
229.907	-50.51
230.125	-43.14
230.344	-16.83
230.563	-15.53
230.782	8.41
231.001	-66.92
231.22	-59.04
231.438	-40.05
231.657	-23.53
231.876	-40
232.095	14.52
232.313	13.04
232.532	-4.51
232.751	-45.58
232.969	-35.48
233.188	-106.22
233.407	-14.68
233.625	-6.81
233.844	11.86
234.063	-14.08
234.281	8.01
234.5	-32.3
234.719	-22.9
234.937	-20.23
235.156	-11.64
235.374	3.16
235.593	18.85
235.811	39.29
236.03	47.14
236.249	38.4
236.467	12.74
236.686	24.03
236.904	15.82
237.123	2.44
237.341	1.45
237.559	9.07
237.778	-6.64
237.996	-27.59
238.215	1.89
238.433	22.73
238.652	15.02
238.87	-9.38
239.088	-4.37
239.307	-21.26
239.525	-37.23
239.743	-60.58
239.962	-35.45
240.18	-40.93
240.398	-36
240.617	-44.91
240.835	-16.07
241.053	-25.19
241.271	2.39
241.49	5.64
241.708	-21.48
241.926	-30.07
242.144	-9.67
242.363	-43.62
242.581	-72.18
242.799	-17.88
243.017	-0.62
243.235	-20.54
243.453	-16.76
243.672	-15.67
243.89	-13.59
244.108	-30.1
244.326	-3.24
244.544	-2.18
244.762	9.45
244.98	-8.57
245.198	17.42
245.416	-6.77
245.634	-10.86
245.852	-19.94
246.07	-22.96
246.288	-39.82
246.506	-65.72
246.724	-33.5
246.942	-38.46
247.16	-9.3
247.378	-3.13
247.596	18.95
247.814	-2.66
248.032	-17.03
248.25	-14.67
248.468	-12.56
248.685	-11.72
248.903	26.06
249.121	21.32
249.339	-2.44
249.557	-11.18
249.775	-7.75
249.992	-68.97
250.21	-52.69
250.428	-38.3
250.646	-46.87
250.863	-60.95
251.081	-34.74
251.299	-37.65
251.517	-19.99
251.734	-24.75
251.952	-23.28
252.17	-15.36
252.387	4.93
252.605	2.86
252.823	26.06
253.04	46.27
253.258	57.3
253.475	45.13
253.693	53.87
253.911	45.48
254.128	28.86
254.346	47.71
254.563	32.3
254.781	6.65
254.998	-25.47
255.216	-15.48
255.433	-12.35
255.651	27.38
255.868	49.02
256.086	58.32
256.303	42.77
256.521	16.72
256.738	-7.09
256.956	-26.07
257.173	-40.14
257.39	-39.92
257.608	-33.64
257.825	22.95
258.043	54.22
258.26	41.04
258.477	69.95
258.695	45.82
258.912	-7.17
259.129	-7.19
259.346	-16.1
259.564	-52.75
259.781	-52.52
259.998	-3.11
260.216	25
260.433	36.14
260.65	38.44
260.867	56.51
261.084	31.21
261.302	-0.02
261.519	-18.56
261.736	-54.5
261.953	-82.91
262.17	-48.97
262.387	-79.29
262.604	-97.78
262.822	-95.35
263.039	-75.86
263.256	-103.91
263.473	-76.63
263.69	-20.03
263.907	13.42
264.124	17.94
264.341	5.68
264.558	1.36
264.775	5.23
264.992	-27.68
265.209	-18.61
265.426	3.85
265.643	24.92
265.86	24.72
266.077	44.24
266.294	36.13
266.51	20.05
266.727	-14.04
266.944	-14.56
267.161	-22.97
267.378	-4.65
267.595	4.19
267.812	-4.23
268.028	-16.16
268.245	3.34
268.462	-35.36
268.679	-35.51
268.896	-5.2
269.112	-3.88
269.329	-5.73
269.546	16.09
269.763	2.95
269.979	-12.08
270.196	-22
270.413	-66.4
270.629	-93.75
270.846	-94.96
271.063	-84.09
271.279	-87.7
271.496	-47.7
271.712	1.82
271.929	24.75
272.146	26.86
272.362	44.98
272.579	47.4
272.795	34.32
273.012	39.19
273.228	31
273.445	10.81
273.661	4.05
273.878	-40.67
274.094	-32.83
274.311	-59.77
274.527	-11.58
274.744	-12.95
274.96	-15.93
275.177	-4.47
275.393	7.49
275.609	3.9
275.826	35.24
276.042	30.48
276.259	17.45
276.475	38.03
276.691	35.83
276.908	4.21
277.124	12.93
277.34	13.33
277.557	-4.21
277.773	-6.81
277.989	-10.48
278.205	-3.14
278.422	-2.7
278.638	17.87
278.854	22.77
279.07	37.43
279.286	65.02
279.503	52.3
279.719	16.36
279.935	12.41
280.151	-16.17
280.367	-33.51
280.583	-34.81
280.799	-18.58
281.016	-52.09
281.232	-4.29
281.448	-13.63
281.664	4.63
281.88	-24.37
282.096	6.94
282.312	-3.63
282.528	11.07
282.744	5.4
282.96	14.96
283.176	-8.06
283.392	-5.69
283.608	-13.54
283.824	-5.96
284.04	-1.49
284.256	21.66
284.471	4.47
284.687	3.03
284.903	15.15
285.119	33.63
285.335	14.23
285.551	25.92
285.767	17.31
285.982	-9.74
286.198	-51.4
286.414	-7.5
286.63	0.32
286.846	20.46
287.061	7.63
287.277	33.61
287.493	4.61
287.709	18.67
287.924	-2.69
288.14	20.95
288.356	21.87
288.571	49.29
288.787	14.22
289.003	19.49
289.218	10.79
289.434	-26.69
289.65	-45.61
289.865	-47.1
290.081	-39.64
290.296	-24.93
290.512	-27.22
290.727	-30.06
290.943	-20.58
291.159	-18.86
291.374	-36.07
291.59	-36.48
291.805	-30.98
292.021	-10.27
292.236	-4.14
292.451	18.04
292.667	29.89
292.882	39.34
293.098	25.89
293.313	-14.18
293.529	-28.48
293.744	-47.47
293.959	-64.96
294.175	-66.93
294.39	-26.62
294.605	-16.51
294.821	4.18
295.036	12.75
295.251	28.74
295.467	28.11
295.682	28.94
295.897	2.9
296.112	-3.55
296.328	-5.63
296.543	-31.24
296.758	-38.22
296.973	-2.36
297.188	32.69
297.404	10.16
297.619	-2.37
297.834	-4.17
298.049	-30.73
298.264	-83.8
298.479	-24.84
298.694	-16.34
298.909	0.38
299.125	12.09
299.34	29.64
299.555	1.56
299.77	6.18
299.985	-42.46
300.2	-88.02
300.415	-94.59
300.63	-60.55
300.845	-57.59
301.06	-47.52
301.275	-18.52
301.49	-16.83
301.704	-27.58
301.919	-25.93
302.134	-24.54
302.349	-34.96
302.564	-66.5
302.779	-48.07
302.994	-53.17
303.209	-28.48
303.423	19.3
303.638	56.98
303.853	14.83
304.068	9.43
304.283	14.37
304.497	5.52
304.712	-11.72
304.927	-0.74
305.142	-8.13
305.356	-9.77
305.571	-14.42
305.786	-30.76
306	-36.86
306.215	-22.21
306.43	-38.22
306.644	-17.5
306.859	9.19
307.074	14.81
307.288	-12.14
307.503	-15.09
307.717	-37.8
307.932	-37.8
308.147	-52.58
308.361	-30.36
308.576	-29.24
308.79	-54.22
309.005	-39.45
309.219	-17.8
309.434	-24.63
309.648	-23.01
309.863	-1.27
310.077	6.15
310.292	14.59
310.506	18.82
310.72	27.57
310.935	46.88
311.149	23.14
311.364	30.32
311.578	32.46
311.792	33.72
312.007	21.26
312.221	26.89
312.435	26.32
312.649	9.64
312.864	43.59
313.078	70.01
313.292	108.59
313.507	80.12
313.721	127.37
313.935	40.31
314.149	13.79
314.363	16.3
314.578	8.93
314.792	7.08
315.006	-3.61
315.22	18.02
315.434	11.07
315.648	27.84
315.862	34.35
316.077	34.69
316.291	13.46
316.505	20.82
316.719	5.17
316.933	-26.09
317.147	-37.83
317.361	-79.41
317.575	-95.16
317.789	-113.01
318.003	-155.57
318.217	-106.1
318.431	-19.18
318.645	7.35
318.859	2.15
319.073	24.31
319.287	15
319.5	-11.31
319.714	-39.38
319.928	-51.08
320.142	-69.19
320.356	-33.65
320.57	17.66
320.784	13.65
320.997	30.28
321.211	38.31
321.425	2.14
321.639	-42.84
321.853	5
322.066	0.34
322.28	-10.84
322.494	-13.59
322.707	8.65
322.921	-16.78
323.135	-13.23
323.349	-7.91
323.562	-11.47
323.776	-33.36
323.989	-20.98
324.203	-29.54
324.417	-31.07
324.63	-62.06
324.844	-40.64
325.057	-32.47
325.271	-15.34
325.485	1.85
325.698	25.64
325.912	36.9
326.125	4.93
326.339	5.59
326.552	-9.35
326.766	-8.03
326.979	3.85
327.193	47.12
327.406	38.76
327.619	32.46
327.833	48.2
328.046	12.96
328.26	-25.29
328.473	-17.25
328.686	-52.21
328.9	-51.68
329.113	-23.83
329.326	-39.01
329.54	-15.82
329.753	-19.26
329.966	-42.67
330.179	-29.67
330.393	-11.33
330.606	-3.3
330.819	8.78
331.032	12.34
331.246	6.82
331.459	32
331.672	15.68
331.885	17.98
332.098	8.2
332.311	-10.67
332.525	-73.53
332.738	-57.77
332.951	-17.46
333.164	23.33
333.377	37.63
333.59	46.66
333.803	52.93
334.016	36.37
334.229	29.83
334.442	25.05
334.655	45.53
334.868	42.93
335.081	31.18
335.294	10.34
335.507	15.42
335.72	8.76
335.933	-7.01
336.146	2.08
336.359	9.39
336.572	-22.39
336.785	-38.96
336.997	-23.55
337.21	-15.61
337.423	-24.77
337.636	-11.8
337.849	-0.85
338.062	-14.18
338.274	-15.26
338.487	-22.92
338.7	-16.12
338.913	-43.9
339.125	-56.96
339.338	-98.09
339.551	-52.9
339.763	-36.46
339.976	-16.45
340.189	0.58
340.402	-0.78
340.614	-27.49
340.827	-45.56
341.039	-65.41
341.252	-58.1
341.465	-34.2
341.677	-31.58
341.89	-61.07
342.102	-25.2
342.315	-44.72
342.527	-76.97
342.74	-53.11
342.952	-21.53
343.165	-31.79
343.377	-4.05
343.59	6.22
343.802	2.05
344.015	11.71
344.227	17.2
344.44	10.2
344.652	4.81
344.864	-6.91
345.077	13
345.289	14.5
345.502	14.43
345.714	9.9
345.926	26.02
346.139	14.43
346.351	33.34
346.563	42.36
346.775	39.24
346.988	29.46
347.2	22.43
347.412	-39.22
347.624	-71.03
347.837	-63.81
348.049	-44.47
348.261	-27.08
348.473	-11.94
348.685	-15.44
348.897	-25.68
349.11	-47.47
349.322	-68.27
349.534	-45.93
349.746	-28.27
349.958	-8.47
350.17	-2.53
350.382	5.53
350.594	12.12
350.806	24.6
351.018	17.77
351.23	6.24
351.442	-23.58
351.654	-37.42
351.866	-49.3
352.078	-47.92
352.29	-17.18
352.502	12.41
352.714	19.2
352.926	9.52
353.138	2.97
353.35	-19.48
353.561	-30.67
353.773	-46.12
353.985	-36.51
354.197	-47.38
354.409	-30.66
354.621	-39.94
354.832	-24.16
355.044	-26.44
355.256	-23.61
355.468	-0.75
355.679	3.15
355.891	10.41
356.103	-6.95
356.314	16.33
356.526	8.14
356.738	16.78
356.949	3.12
357.161	34.82
357.373	21.58
357.584	6.56
357.796	9.25
358.008	7.3
358.219	11.48
358.431	11.72
358.642	9.57
358.854	1.26
359.065	0.94
359.277	-25.75
359.488	-33.37
359.7	-36.3
359.911	-44.68
360.123	-39.69
360.334	-48.08
360.546	-62
360.757	-59.64
360.969	-51.81
361.18	-37.41
361.391	-14.67
361.603	-25.16
361.814	-15.8
362.025	0.67
362.237	-0.36
362.448	9.22
362.659	30.46
362.871	24.42
363.082	15.81
363.293	4.79
363.504	-10.6
363.716	-35.68
363.927	-55.37
364.138	-77.56
364.349	-100.26
364.56	-75.77
364.772	-58.51
364.983	-26.03
365.194	-16.29
365.405	13.58
365.616	22.34
365.827	12.79
366.038	-14.42
366.25	-28.81
366.461	-72.92
366.672	-57.21
366.883	-30.12
367.094	-12.58
367.305	-7.39
367.516	4.97
367.727	-15.89
367.938	-30.65
368.149	-24.18
368.36	-13.75
368.571	-8.98
368.781	-17.67
368.992	-24.76
369.203	-37.42
369.414	-55.56
369.625	-72.64
369.836	-57.49
370.047	-73.15
370.258	-55.84
370.468	-53.91
370.679	-62.17
370.89	-62.94
371.101	-34
371.312	-38.79
371.522	-25.69
371.733	-3.44
371.944	14.32
372.155	21.47
372.365	11.38
372.576	3.01
372.787	-7.84
372.997	-36.35
373.208	-43.37
373.419	-21.71
373.629	-41.7
373.84	-42.99
374.05	-42.92
374.261	-32.46
374.472	-43.19
374.682	2.54
374.893	11.73
375.103	49.18
375.314	34.33
375.524	38.7
375.735	32.2
375.945	37.34
376.156	8.92
376.366	14.77
376.577	12.32
376.787	10.56
376.997	-0.77
377.208	-0.36
377.418	-19.39
377.629	-9.94
377.839	-16.43
378.049	-9.36
378.26	5.21
378.47	17.43
378.68	4.92
378.89	5.37
379.101	0.58
379.311	-26.78
379.521	-43.01
379.732	-37.41
379.942	-40.82
380.152	-54.46
380.362	-20.72
380.572	-14.68
380.783	-4.93
380.993	11.94
381.203	23.14
381.413	14.14
381.623	19.48
381.833	12.89
382.043	-2.51
382.253	-3.03
382.463	-4.9
382.674	-12.26
382.884	-28.44
383.094	-26.28
383.304	-17.28
383.514	-8.29
383.724	-3.35
383.934	-2.47
384.144	-9.05
384.353	-28.77
384.563	-34.22
384.773	-24.99
384.983	-27.84
385.193	-9.74
385.403	2.38
385.613	8.57
385.823	1.33
386.033	9.2
386.242	1.61
386.452	-3.77
386.662	-17.61
386.872	-9.43
387.082	-17.45
387.291	-20.59
387.501	-18.53
387.711	-5.71
387.921	-12.62
388.13	-8.12
388.34	-0.35
388.55	-6.59
388.759	-5.13
388.969	0.6
389.179	2.32
389.388	0.6
389.598	8.27
389.807	0.96
390.017	-4.54
390.227	-8.93
390.436	-9.84
390.646	-10.32
390.855	-5.68
391.065	-2.95
391.274	-1.82
391.484	-3.02
391.693	1.84
391.903	4.03
392.112	3.73
392.322	5.12
392.531	8.64
392.74	4.29
392.95	-2.19
393.159	-2.98
393.369	-1.08
393.578	-2.55
393.787	-3.54
393.997	-0.28
394.206	-0.19
394.415	-1.18
394.625	-1.22
394.834	-0.81
395.043	-0.52
395.252	1.04
395.462	2.28
395.671	3.51
395.88	4.61
396.089	5.62
396.298	4.22
396.508	3.46
396.717	2.12
396.926	2.21
397.135	1.51
397.344	1.65
397.553	2.12
397.762	3.11
397.971	3.39
398.181	3.56
398.39	4.18
398.599	3.93
398.808	4.21
399.017	4.69
399.226	5.87
399.435	5.93
399.644	6.1
399.853	4.98
400.062	4.52
400.27	3.86
400.479	3.37
400.688	3.04
400.897	3.67
401.106	3.6
401.315	3.29
401.524	3.68
401.733	4.3
401.941	4.04
402.15	4.43
402.359	4.29
402.568	4.65
402.777	4.71
402.985	4.95
403.194	4.72
403.403	4.96
403.612	4.44
403.82	4.15
404.029	4.23
404.238	4.24
404.446	4.34
404.655	4.12
404.864	4.16
405.072	3.82
405.281	3.89
405.489	3.67
405.698	3.83
405.906	3.86
406.115	4.01
406.324	3.95
406.532	4.18
406.741	4.53
406.949	4.54
407.158	4.6
407.366	4.65
407.574	4.52
407.783	4.3
407.991	3.99
408.2	4.01
408.408	3.88
408.617	3.87
408.825	3.77
409.033	3.96
409.242	3.98
409.45	4.11
409.658	3.98
409.867	4.04
410.075	4.01
410.283	3.84
410.491	3.76
410.7	3.74
410.908	3.74
411.116	4.01
411.324	4.09
411.533	3.93
411.741	4.13
411.949	4.16
412.157	3.78
412.365	3.7
412.573	3.88
412.781	3.86
412.99	3.82
413.198	4.05
413.406	4.07
413.614	3.99
413.822	3.8
414.03	3.75
414.238	3.54
414.446	3.6
414.654	3.44
414.862	3.54
415.07	3.57
415.278	3.75
415.486	3.62
415.694	3.75
415.902	3.64
416.109	3.5
416.317	3.46
416.525	3.4
416.733	3.37
416.941	3.53
417.149	3.59
417.357	3.6
417.564	3.8
417.772	3.91
417.98	3.76
418.188	3.8
418.395	3.77
418.603	3.82
418.811	3.6
419.019	3.54
419.226	3.75
419.434	3.78
419.642	3.46
419.849	3.6
420.057	3.59
420.265	3.36
420.472	3.21
420.68	3.4
420.887	3.24
421.095	3.36
421.302	3.39
421.51	3.41
421.717	3.32
421.925	3.47
422.132	3.29
422.34	3.1
422.547	3.11
422.755	3.07
422.962	2.92
423.17	2.95
423.377	3.03
423.585	3.07
423.792	3.02
423.999	3.11
424.207	2.98
424.414	3.04
424.621	2.98
424.829	3.05
425.036	3
425.243	3.16
425.451	3.09
425.658	2.98
425.865	3.03
426.072	3.05
426.28	3.28
426.487	3.25
426.694	3.28
426.901	3.17
427.108	3.13
427.315	2.94
427.523	3.19
427.73	3.27
427.937	3.29
428.144	3.25
428.351	3.21
428.558	3.11
428.765	2.95
428.972	2.91
429.179	3.01
429.386	3.25
429.593	3.14
429.8	3.1
430.007	3.28
430.214	3.39
430.421	3.21
430.628	3.1
430.835	3
431.042	3.07
431.249	3.06
431.456	3.12
431.662	3.25
431.869	3.57
432.076	3.5
432.283	3.58
432.49	3.51
432.697	3.51
432.903	3.24
433.11	3.19
433.317	3.13
433.524	3.33
433.73	3.36
433.937	3.64
434.144	3.55
434.35	3.45
434.557	3.36
434.764	3.34
434.97	3.21
435.177	3.34
435.384	3.35
435.59	3.37
435.797	3.54
436.003	3.59
436.21	3.6
436.416	3.68
436.623	3.6
436.829	3.52
437.036	3.59
437.242	3.65
437.449	3.41
437.655	3.4
437.862	3.49
438.068	3.43
438.275	3.54
438.481	3.89
438.687	3.88
438.894	3.7
439.1	3.77
439.307	3.82
439.513	3.71
439.719	3.67
439.926	3.85
440.132	3.77
440.338	3.58
440.544	3.6
440.751	3.71
440.957	3.7
441.163	3.72
441.369	3.79
441.575	3.68
441.782	3.71
441.988	3.57
442.194	3.51
442.4	3.51
442.606	3.8
442.812	3.84
443.018	4.01
443.224	4.16
443.431	4.2
443.637	3.94
443.843	3.87
444.049	3.79
444.255	3.65
444.461	3.63
444.667	3.62
444.873	3.73
445.079	3.77
445.284	3.97
445.49	3.84
445.696	3.77
445.902	3.62
446.108	3.55
446.314	3.35
446.52	3.48
446.726	3.74
446.931	3.83
447.137	3.88
447.343	3.95
447.549	3.88
447.755	3.72
447.96	3.75
448.166	3.75
448.372	3.73
448.578	3.68
448.783	3.72
448.989	3.74
449.195	3.82
449.4	3.83
449.606	3.85
449.812	3.78
450.017	3.76
450.223	3.67
450.428	3.63
450.634	3.71
450.84	3.85
451.045	3.82
451.251	3.79
451.456	3.99
451.662	4.05
451.867	4.07
452.073	4.1
452.278	4.21
452.483	4.29
452.689	4.18
452.894	4.11
453.1	4.09
453.305	4.01
453.51	3.92
453.716	3.88
453.921	3.9
454.127	3.81
454.332	3.74
454.537	3.56
454.742	3.73
454.948	3.7
455.153	3.85
455.358	3.92
455.563	4.12
455.769	4.08
455.974	4.03
456.179	3.84
456.384	3.9
456.589	3.84
456.795	3.7
457	3.73
457.205	4.02
457.41	3.93
457.615	3.83
457.82	3.92
458.025	3.94
458.23	3.82
458.435	3.82
458.64	3.79
458.845	3.88
459.05	3.88
459.255	3.87
459.46	3.88
459.665	3.93
459.87	3.88
460.075	3.88
460.28	3.9
460.485	4
460.69	4.07
460.895	3.97
461.099	4
461.304	4.03
461.509	3.99
461.714	3.94
461.919	4.08
462.123	4.03
462.328	3.98
462.533	3.91
462.738	3.97
462.942	3.91
463.147	3.95
463.352	4.03
463.556	4.11
463.761	4.09
463.966	4.12
464.17	4.09
464.375	3.94
464.58	3.96
464.784	3.91
464.989	3.83
465.193	3.86
465.398	3.89
465.602	3.92
465.807	3.96
466.011	3.97
466.216	4.01
466.42	4.06
466.625	4.15
466.829	4.21
467.034	4.29
467.238	4.41
467.443	4.44
467.647	4.27
467.851	4.36
468.056	4.41
468.26	4.33
468.464	4.33
468.669	4.39
468.873	4.46
469.077	4.44
469.282	4.5
469.486	4.48
469.69	4.51
469.894	4.36
470.099	4.41
470.303	4.46
470.507	4.45
470.711	4.37
470.915	4.37
471.119	4.31
471.324	4.26
471.528	4.29
471.732	4.36
471.936	4.33
472.14	4.35
472.344	4.4
472.548	4.48
472.752	4.51
472.956	4.73
473.16	4.78
473.364	4.7
473.568	4.61
473.772	4.71
473.976	4.54
474.18	4.58
474.384	4.62
474.588	4.68
474.792	4.61
474.995	4.73
475.199	4.74
475.403	4.81
475.607	4.8
475.811	4.77
476.015	4.82
476.218	4.88
476.422	4.81
476.626	4.91
476.83	5.02
477.033	4.97
477.237	4.83
477.441	4.88
477.644	4.83
477.848	4.83
478.052	4.84
478.255	4.95
478.459	4.92
478.663	5.06
478.866	5.02
479.07	5.1
479.273	5.19
479.477	5.23
479.681	5.12
479.884	5.13
480.088	5.04
480.291	4.93
480.495	4.98
480.698	5.02
480.901	5.13
481.105	5.25
481.308	5.28
481.512	5.25
481.715	5.3
481.919	5.23
482.122	5.21
482.325	5.22
482.529	5.25
482.732	5.18
482.935	5.12
483.138	5.05
483.342	5.12
483.545	5.18
483.748	5.3
483.952	5.43
484.155	5.61
484.358	5.6
484.561	5.53
484.764	5.47
484.967	5.5
485.171	5.5
485.374	5.46
485.577	5.52
485.78	5.55
485.983	5.56
486.186	5.49
486.389	5.49
486.592	5.5
486.795	5.53
486.998	5.48
487.201	5.57
487.404	5.66
487.607	5.68
487.81	5.62
488.013	5.64
488.216	5.58
488.419	5.63
488.622	5.57
488.825	5.56
489.028	5.56
489.231	5.57
489.433	5.46
489.636	5.42
489.839	5.43
490.042	5.37
490.245	5.31
490.447	5.37
490.65	5.44
490.853	5.42
491.056	5.48
491.258	5.59
491.461	5.56
491.664	5.64
491.866	5.65
492.069	5.73
492.272	5.64
492.474	5.69
492.677	5.68
492.879	5.73
493.082	5.75
493.285	5.88
493.487	5.86
493.69	5.78
493.892	5.71
494.095	5.61
494.297	5.56
494.5	5.67
494.702	5.75
494.905	5.81
495.107	5.81
495.309	5.78
495.512	5.73
495.714	5.75
495.917	5.82
496.119	5.84
496.321	5.98
496.524	6.06
496.726	6.08
496.928	6.08
497.13	6.08
497.333	5.99
497.535	5.93
497.737	5.95
497.939	5.96
498.142	6.03
498.344	6.06
498.546	6.02
498.748	5.96
498.95	6.05
499.152	6.02
499.355	6.04
499.557	6.16
499.759	6.32
499.961	6.27
500.163	6.37
500.365	6.37
500.567	6.41
500.769	6.32
500.971	6.34
501.173	6.23
501.375	6.33
501.577	6.28
501.779	6.27
501.981	6.33
502.183	6.41
502.385	6.36
502.587	6.33
502.788	6.4
502.99	6.42
503.192	6.47
503.394	6.49
503.596	6.54
503.798	6.56
503.999	6.6
504.201	6.57
504.403	6.63
504.605	6.72
504.806	6.69
505.008	6.64
505.21	6.72
505.411	6.7
505.613	6.67
505.815	6.72
506.016	6.78
506.218	6.83
506.42	6.8
506.621	6.84
506.823	6.91
507.024	6.87
507.226	6.84
507.427	6.92
507.629	6.97
507.83	6.97
508.032	7
508.233	7.1
508.435	7.12
508.636	7.16
508.838	7.16
509.039	7.18
509.24	7.13
509.442	7.1
509.643	7.06
509.845	6.99
510.046	7.11
510.247	7.12
510.448	7.21
510.65	7.26
510.851	7.42
511.052	7.41
511.254	7.43
511.455	7.5
511.656	7.5
511.857	7.53
512.058	7.49
512.26	7.49
512.461	7.43
512.662	7.43
512.863	7.33
513.064	7.34
513.265	7.32
513.466	7.37
513.667	7.38
513.868	7.45
514.069	7.48
514.27	7.55
514.471	7.56
514.672	7.64
514.873	7.64
515.074	7.72
515.275	7.66
515.476	7.6
515.677	7.57
515.878	7.69
516.079	7.65
516.28	7.72
516.481	7.86
516.682	7.86
516.882	7.74
517.083	7.75
517.284	7.71
517.485	7.62
517.686	7.62
517.886	7.59
518.087	7.58
518.288	7.63
518.488	7.66
518.689	7.67
518.89	7.72
519.091	7.8
519.291	7.76
519.492	7.84
519.692	7.91
519.893	7.93
520.094	7.87
520.294	7.9
520.495	7.82
520.695	7.8
520.896	7.82
521.096	7.85
521.297	7.89
521.497	7.93
521.698	7.9
521.898	7.87
522.099	7.89
522.299	7.96
522.499	8.01
522.7	8.02
522.9	8.05
523.101	8.09
523.301	8.03
523.501	7.99
523.702	8.04
523.902	8.08
524.102	8.14
524.302	8.13
524.503	8.16
524.703	8.21
524.903	8.2
525.103	8.1
525.304	8.24
525.504	8.28
525.704	8.33
525.904	8.34
526.104	8.36
526.304	8.34
526.504	8.32
526.705	8.29
526.905	8.36
527.105	8.4
527.305	8.33
527.505	8.29
527.705	8.32
527.905	8.33
528.105	8.28
528.305	8.25
528.505	8.35
528.705	8.37
528.905	8.35
529.105	8.39
529.304	8.47
529.504	8.52
529.704	8.44
529.904	8.46
530.104	8.47
530.304	8.55
530.503	8.5
530.703	8.49
530.903	8.48
531.103	8.53
531.303	8.5
531.502	8.57
531.702	8.7
531.902	8.78
532.101	8.75
532.301	8.75
532.501	8.73
532.7	8.69
532.9	8.67
533.1	8.71
533.299	8.74
533.499	8.76
533.698	8.75
533.898	8.77
534.097	8.81
534.297	8.92
534.496	8.94
534.696	9.02
534.895	9.08
535.095	9.17
535.294	9.11
535.494	9.08
535.693	9.08
535.892	9.08
536.092	8.99
536.291	8.97
536.491	9.14
536.69	9.19
536.889	9.14
537.088	9.17
537.288	9.3
537.487	9.25
537.686	9.26
537.886	9.36
538.085	9.45
538.284	9.5
538.483	9.5
538.682	9.61
538.882	9.61
539.081	9.61
539.28	9.55
539.479	9.59
539.678	9.51
539.877	9.61
540.076	9.67
540.275	9.66
540.474	9.71
540.673	9.79
540.872	9.77
541.071	9.83
541.27	9.94
541.469	9.97
541.668	9.97
541.867	10.05
542.066	10.03
542.265	10.07
542.464	10.06
542.663	10.09
542.862	10.22
543.06	10.32
543.259	10.38
543.458	10.49
543.657	10.6
543.856	10.58
544.054	10.56
544.253	10.54
544.452	10.51
544.651	10.52
544.849	10.5
545.048	10.55
545.247	10.61
545.445	10.7
545.644	10.74
545.843	10.78
546.041	10.85
546.24	10.91
546.438	11.03
546.637	11.03
546.836	11.19
547.034	11.22
547.233	11.26
547.431	11.18
547.63	11.29
547.828	11.26
548.027	11.3
548.225	11.32
548.423	11.41
548.622	11.51
548.82	11.56
549.019	11.62
549.217	11.73
549.415	11.77
549.614	11.79
549.812	11.83
550.01	11.81
550.209	11.89
550.407	11.98
550.605	12
550.803	12.12
551.002	12.33
551.2	12.38
551.398	12.48
551.596	12.59
551.794	12.69
551.993	12.73
552.191	12.85
552.389	12.9
552.587	12.99
552.785	13.04
552.983	13.19
553.181	13.32
553.379	13.48
553.577	13.54
553.775	13.67
553.973	13.72
554.171	13.75
554.369	13.79
554.567	13.89
554.765	13.93
554.963	13.97
555.161	13.97
555.359	14.07
555.557	14.22
555.755	14.32
555.952	14.42
556.15	14.54
556.348	14.65
556.546	14.71
556.744	14.74
556.941	14.85
557.139	14.97
557.337	15.02
557.535	15.06
557.732	15.25
557.93	15.46
558.128	15.52
558.325	15.67
558.523	15.79
558.721	15.9
558.918	15.86
559.116	15.92
559.313	15.92
559.511	16.08
559.708	16.11
559.906	16.27
560.104	16.43
560.301	16.61
560.498	16.76
560.696	16.88
560.893	16.99
561.091	17.16
561.288	17.28
561.486	17.32
561.683	17.44
561.88	17.49
562.078	17.55
562.275	17.64
562.473	17.73
562.67	17.9
562.867	18.13
563.064	18.22
563.262	18.31
563.459	18.43
563.656	18.47
563.853	18.55
564.051	18.71
564.248	18.9
564.445	19.06
564.642	19.16
564.839	19.29
565.036	19.37
565.234	19.51
565.431	19.57
565.628	19.7
565.825	19.76
566.022	19.88
566.219	19.9
566.416	19.96
566.613	20.15
566.81	20.26
567.007	20.3
567.204	20.38
567.401	20.48
567.598	20.51
567.795	20.57
567.991	20.76
568.188	20.89
568.385	21.04
568.582	21.13
568.779	21.26
568.976	21.29
569.172	21.41
569.369	21.41
569.566	21.46
569.763	21.54
569.96	21.56
570.156	21.52
570.353	21.54
570.55	21.65
570.746	21.64
570.943	21.76
571.14	21.8
571.336	21.97
571.533	22.05
571.729	22.08
571.926	22.15
572.123	22.37
572.319	22.42
572.516	22.44
572.712	22.55
572.909	22.56
573.105	22.58
573.302	22.66
573.498	22.77
573.695	22.88
573.891	23.04
574.087	22.99
574.284	23.01
574.48	23.01
574.677	22.99
574.873	22.87
575.069	22.94
575.266	22.99
575.462	22.87
575.658	22.96
575.854	23.1
576.051	23.17
576.247	23.09
576.443	23.16
576.639	23.06
576.835	22.89
577.032	22.79
577.228	22.89
577.424	23
577.62	22.99
577.816	23.1
578.012	23.2
578.208	23.11
578.404	23.09
578.6	23.17
578.796	23.2
578.993	23.14
579.189	23.11
579.384	23.05
579.58	23.02
579.776	22.99
579.972	22.93
580.168	22.92
580.364	22.97
580.56	22.94
580.756	22.84
580.952	22.83
581.148	22.87
581.343	22.86
581.539	22.92
581.735	23
581.931	23.09
582.127	23.13
582.322	23.06
582.518	23.1
582.714	23.06
582.909	23.14
583.105	23.07
583.301	23
583.496	22.87
583.692	22.83
583.888	22.65
584.083	22.69
584.279	22.81
584.474	22.86
584.67	22.88
584.866	22.94
585.061	22.74
585.257	22.71
585.452	22.7
585.648	22.65
585.843	22.69
586.039	22.77
586.234	22.76
586.429	22.71
586.625	22.77
586.82	22.64
587.015	22.66
587.211	22.57
587.406	22.6
587.601	22.56
587.797	22.63
587.992	22.66
588.187	22.79
588.383	22.78
588.578	22.77
588.773	22.78
588.968	22.78
589.163	22.85
589.359	22.85
589.554	22.94
589.749	22.99
589.944	23.04
590.139	22.93
590.334	23.04
590.529	23.07
590.724	23.06
590.919	23.13
591.114	23.17
591.309	23.18
591.504	23.17
591.699	23.26
591.894	23.44
592.089	23.5
592.284	23.48
592.479	23.63
592.674	23.56
592.869	23.61
593.064	23.72
593.259	23.87
593.454	23.91
593.648	23.97
593.843	23.83
594.038	23.88
594.233	23.9
594.428	23.9
594.622	23.95
594.817	24.19
595.012	24.26
595.206	24.29
595.401	24.33
595.596	24.51
595.79	24.56
595.985	24.68
596.18	24.86
596.374	24.96
596.569	25.01
596.763	25.01
596.958	25.03
597.153	25.07
597.347	25.07
597.542	25.21
597.736	25.2
597.931	25.26
598.125	25.28
598.319	25.45
598.514	25.49
598.708	25.6
598.903	25.68
599.097	25.8
599.291	25.87
599.486	25.86
599.68	25.99
599.874	26.12
600.069	26.13
600.263	26.16
600.457	26.29
600.651	26.33
600.846	26.35
601.04	26.39
601.234	26.43
601.428	26.42
601.622	26.51
601.817	26.47
602.011	26.53
602.205	26.58
602.399	26.64
602.593	26.57
602.787	26.75
602.981	26.8
603.175	26.88
603.369	26.81
603.563	26.88
603.757	26.86
603.951	26.88
604.145	26.79
604.339	26.89
604.533	26.79
604.727	26.74
604.921	26.62
605.115	26.61
605.309	26.61
605.502	26.73
605.696	26.69
605.89	26.68
606.084	26.69
606.278	26.58
606.471	26.33
606.665	26.21
606.859	26.06
607.053	25.89
607.246	25.9
607.44	25.91
607.634	25.85
607.827	25.85
608.021	25.82
608.214	25.68
608.408	25.61
608.602	25.58
608.795	25.55
608.989	25.55
609.182	25.44
609.376	25.41
609.569	25.34
609.763	25.2
609.956	25.04
610.15	25.02
610.343	24.93
610.537	24.87
610.73	24.89
610.923	24.97
611.117	24.94
611.31	24.89
611.504	24.72
611.697	24.63
611.89	24.45
612.083	24.34
612.277	24.27
612.47	24.26
612.663	24.2
612.856	24.15
613.05	24.06
613.243	23.9
613.436	23.72
613.629	23.59
613.822	23.44
614.015	23.46
614.209	23.42
614.402	23.45
614.595	23.45
614.788	23.42
614.981	23.16
615.174	23.12
615.367	22.96
615.56	22.75
615.753	22.72
615.946	22.77
616.139	22.7
616.332	22.67
616.525	22.61
616.718	22.56
616.911	22.48
617.103	22.43
617.296	22.41
617.489	22.43
617.682	22.28
617.875	22.24
618.067	22.18
618.26	22.16
618.453	22.13
618.646	22.14
618.838	22.15
619.031	22.18
619.224	22.16
619.417	22.16
619.609	22.19
619.802	22.09
619.994	21.95
620.187	21.84
620.38	21.69
620.572	21.6
620.765	21.64
620.957	21.51
621.15	21.48
621.342	21.45
621.535	21.43
621.727	21.28
621.92	21.35
622.112	21.25
622.305	21.28
622.497	21.21
622.69	21.27
622.882	21.19
623.074	21.2
623.267	21.14
623.459	21.09
623.651	21.03
623.844	21.08
624.036	21.15
624.228	21.1
624.42	21.06
624.613	21.1
624.805	21.07
624.997	20.93
625.189	20.93
625.381	20.93
625.574	20.72
625.766	20.61
625.958	20.61
626.15	20.64
626.342	20.67
626.534	20.7
626.726	20.7
626.918	20.67
627.11	20.57
627.302	20.52
627.494	20.48
627.686	20.51
627.878	20.4
628.07	20.41
628.262	20.31
628.454	20.34
628.646	20.32
628.838	20.42
629.029	20.36
629.221	20.38
629.413	20.27
629.605	20.12
629.797	20.03
629.989	19.96
630.18	19.83
630.372	19.74
630.564	19.75
630.755	19.76
630.947	19.86
631.139	19.8
631.33	19.78
631.522	19.8
631.714	19.78
631.905	19.59
632.097	19.61
632.289	19.59
632.48	19.5
632.672	19.41
632.863	19.32
633.055	19.24
633.246	19.21
633.438	19.22
633.629	19.18
633.821	19.26
634.012	19.26
634.203	19.21
634.395	19.21
634.586	19.19
634.777	19.17
634.969	19.25
635.16	19.31
635.351	19.21
635.543	19.19
635.734	19.1
635.925	19.03
636.117	19.05
636.308	19.05
636.499	19.01
636.69	19.03
636.881	19
637.073	19.03
637.264	19.09
637.455	19.14
637.646	19.21
637.837	19.22
638.028	19.13
638.219	19.17
638.41	19.12
638.601	19.07
638.792	19.09
638.983	19.03
639.174	18.87
639.365	18.92
639.556	18.87
639.747	18.88
639.938	19.02
640.129	19.05
640.32	18.95
640.511	18.99
640.701	19.04
640.892	18.89
641.083	18.94
641.274	18.98
641.465	18.88
641.655	18.75
641.846	18.8
642.037	18.7
642.228	18.62
642.418	18.74
642.609	18.77
642.8	18.76
642.99	18.77
643.181	18.76
643.372	18.73
643.562	18.67
643.753	18.57
643.943	18.5
644.134	18.42
644.324	18.35
644.515	18.34
644.705	18.45
644.896	18.49
645.086	18.59
645.277	18.56
645.467	18.55
645.658	18.46
645.848	18.45
646.038	18.39
646.229	18.33
646.419	18.22
646.61	18.17
646.8	18.1
646.99	18.02
647.18	18.09
647.371	18.07
647.561	18.04
647.751	18.05
647.941	18.03
648.132	17.94
648.322	17.96
648.512	17.96
648.702	17.94
648.892	17.95
649.082	17.96
649.272	17.85
649.462	17.68
649.653	17.62
649.843	17.5
650.033	17.53
650.223	17.6
650.413	17.64
650.603	17.73
650.793	17.82
650.983	17.71
651.172	17.56
651.362	17.62
651.552	17.46
651.742	17.39
651.932	17.35
652.122	17.32
652.312	17.22
652.502	17.16
652.691	17.06
652.881	17.01
653.071	17.05
653.261	16.87
653.45	16.77
653.64	16.76
653.83	16.54
654.019	16.41
654.209	16.36
654.399	16.27
654.588	16.16
654.778	16.06
654.968	15.9
655.157	15.86
655.347	15.78
655.536	15.56
655.726	15.47
655.915	15.27
656.105	15.04
656.294	14.86
656.484	14.71
656.673	14.55
656.863	14.46
657.052	14.27
657.241	13.91
657.431	13.69
657.62	13.58
657.809	13.32
657.999	13.19
658.188	13.19
658.377	13.11
658.567	12.91
658.756	12.79
658.945	12.59
659.134	12.38
659.324	12.18
659.513	12.03
659.702	11.86
659.891	11.71
660.08	11.58
660.269	11.56
660.458	11.39
660.648	11.27
660.837	11.15
661.026	11.01
661.215	10.75
661.404	10.52
661.593	10.4
661.782	10.19
661.971	10.07
662.16	9.91
662.349	9.79
662.538	9.6
662.726	9.59
662.915	9.4
663.104	9.28
663.293	9.21
663.482	9.21
663.671	9.07
663.86	8.98
664.048	8.94
664.237	8.88
664.426	8.71
664.615	8.62
664.803	8.56
664.992	8.51
665.181	8.46
665.369	8.34
665.558	8.26
665.747	8.24
665.935	8.1
666.124	8.06
666.312	8.1
666.501	8.07
666.69	7.94
666.878	7.97
667.067	7.78
667.255	7.81
667.444	8.08
667.632	8.2
667.82	8.28
668.009	8.38
668.197	8.2
668.386	8.01
668.574	8
668.762	7.8
668.951	7.76
669.139	7.85
669.327	7.74
669.516	7.79
669.704	7.75
669.892	7.89
670.08	7.88
670.269	7.78
670.457	7.71
670.645	7.69
670.833	7.73
671.021	7.76
671.21	7.96
671.398	8.12
671.586	8.3
671.774	8.17
671.962	8.22
672.15	8.21
672.338	8.13
672.526	8.24
672.714	8.3
672.902	8.36
673.09	8.57
673.278	8.72
673.466	8.75
673.654	8.9
673.842	8.92
674.03	8.92
674.218	8.82
674.405	8.86
674.593	8.94
674.781	9.15
674.969	9.21
675.157	9.42
675.344	9.65
675.532	9.73
675.72	9.76
675.908	9.88
676.095	9.87
676.283	9.87
676.471	10.1
676.658	10.13
676.846	10.16
677.033	10.31
677.221	10.44
677.409	10.28
677.596	10.48
677.784	10.5
677.971	10.6
678.159	10.59
678.346	10.72
678.534	10.75
678.721	10.95
678.909	11.01
679.096	11.12
679.283	11.39
679.471	11.59
679.658	11.77
679.846	12.03
680.033	12.35
680.22	12.37
680.408	12.28
680.595	12.32
680.782	12.26
680.969	12.35
681.157	12.5
681.344	12.7
681.531	12.83
681.718	13.02
681.905	13.14
682.093	13.39
682.28	13.72
682.467	13.93
682.654	14.1
682.841	14.21
683.028	14.36
683.215	14.47
683.402	14.67
683.589	14.81
683.776	15.1
683.963	15.18
684.15	15.36
684.337	15.61
684.524	16.02
684.711	16.21
684.898	16.38
685.085	16.67
685.271	17.03
685.458	17.08
685.645	17.27
685.832	17.81
686.019	18.16
686.205	18.34
686.392	18.75
686.579	19.1
686.766	19.47
686.952	19.75
687.139	20.16
687.326	20.47
687.512	20.97
687.699	21.27
687.886	21.71
688.072	21.98
688.259	22.61
688.445	23.16
688.632	23.47
688.818	23.98
689.005	24.64
689.191	25.06
689.378	25.49
689.564	26.15
689.751	26.74
689.937	27.27
690.124	27.98
690.31	28.33
690.496	29
690.683	29.52
690.869	30.09
691.055	30.73
691.242	31.59
691.428	32.28
691.614	33.1
691.8	33.84
691.987	34.4
692.173	35.09
692.359	35.64
692.545	36.23
692.731	36.98
692.918	37.71
693.104	38.32
693.29	39.02
693.476	39.83
693.662	40.38
693.848	40.91
694.034	41.6
694.22	42.04
694.406	42.75
694.592	43.54
694.778	44.44
694.964	45.12
695.15	46.14
695.336	46.44
695.522	47.34
695.708	47.77
695.894	48.36
696.08	48.87
696.265	49.68
696.451	50.31
696.637	51.1
696.823	51.69
697.009	52.34
697.194	52.99
697.38	53.22
697.566	53.75
697.751	54.5
697.937	55.28
698.123	55.93
698.308	56.75
698.494	57.41
698.68	57.92
698.865	58.59
699.051	59.19
699.236	59.47
699.422	60.11
699.607	60.51
699.793	60.88
699.978	61.33
700.164	61.97
700.349	62.66
700.535	63.42
700.72	63.95
700.906	64.81
701.091	65.37
701.276	65.5
701.462	66.58
701.647	67.26
701.832	67.45
702.018	67.91
702.203	68.45
702.388	68.11
702.573	68.32
702.759	69.02
702.944	69.25
703.129	69.7
703.314	70.3
703.499	70.54
703.684	70.52
703.87	71.59
704.055	72.03
704.24	72.25
704.425	72.91
704.61	73.7
704.795	73.53
704.98	73.96
705.165	74.17
705.35	74.48
705.535	74.61
705.72	74.7
705.905	74.96
706.09	75.51
706.275	75.85
706.459	75.75
706.644	76.14
706.829	76.13
707.014	76.02
707.199	76.19
707.384	76.78
707.568	77.12
707.753	77.92
707.938	78.41
708.123	78.64
708.307	78.71
708.492	78.51
708.677	78.19
708.861	78.2
709.046	78.17
709.231	78.73
709.415	79.35
709.6	79.49
709.784	79.29
709.969	79.35
710.153	79.17
710.338	79.45
710.522	79.87
710.707	80.67
710.891	80.74
711.076	80.9
711.26	80.54
711.445	80.11
711.629	80.26
711.813	80.9
711.998	81.5
712.182	82.05
712.366	83.1
712.551	83.71
712.735	83.35
712.919	82.83
713.103	83.05
713.288	82.63
713.472	82.06
713.656	82.71
713.84	82.88
714.024	83
714.208	82.88
714.393	83.27
714.577	83.43
714.761	83.68
714.945	83.66
715.129	84.08
715.313	84.17
715.497	84.01
715.681	84.97
715.865	84.86
716.049	85.11
716.233	85.34
716.417	85.49
716.601	84.75
716.785	85.09
716.968	85.02
717.152	84.87
717.336	85.01
717.52	85.25
717.704	85.21
717.888	85.5
718.071	85.57
718.255	85.67
718.439	85.8
718.622	86.11
718.806	86.44
718.99	86.91
719.174	86.83
719.357	86.55
719.541	86.64
719.724	86.51
719.908	86.9
720.092	86.94
720.275	87.18
720.459	86.88
720.642	86.57
720.826	85.56
721.009	85.65
721.193	85.6
721.376	86.29
721.559	86.53
721.743	87.01
721.926	87.42
722.11	87.54
722.293	87
722.476	86.79
722.66	87.04
722.843	87.11
723.026	86.64
723.21	87.17
723.393	87.77
723.576	87.96
723.759	87.27
723.942	87.64
724.126	87.56
724.309	87.75
724.492	87.42
724.675	87.57
724.858	88.16
725.041	88.34
725.224	88.49
725.407	89.07
725.59	90.35
725.774	90.3
725.957	89.78
726.14	89.02
726.322	89.18
726.505	88.74
726.688	89.17
726.871	89.41
727.054	90.06
727.237	89.68
727.42	89.75
727.603	89.43
727.786	89.79
727.968	90.18
728.151	90.16
728.334	90.26
728.517	90.37
728.699	90.71
728.882	90.43
729.065	91.23
729.248	91.29
729.43	91.58
729.613	92.24
729.796	93.47
729.978	92.87
730.161	92.92
730.343	92.73
730.526	92.92
730.708	91.87
730.891	92.83
731.073	92.35
731.256	92.34
731.438	91.54
731.621	92.08
731.803	91.05
731.986	91.56
732.168	91.16
732.35	91.54
732.533	91.48
732.715	92.2
732.898	92.39
733.08	92.73
733.262	93.16
733.444	92.65
733.627	92.72
733.809	93.16
733.991	94.24
734.173	93.39
734.355	93.48
734.538	94.05
734.72	93.63
734.902	93.51
735.084	94.49
735.266	95.12
735.448	95.3
735.63	95.45
735.812	94.86
735.994	95.33
736.176	95.15
736.358	94.39
736.54	95.28
736.722	94.84
736.904	93.54
737.086	93.75
737.268	94.99
737.45	95
737.632	96.21
737.814	96.67
737.995	96.4
738.177	96.09
738.359	95.12
738.541	94.71
738.723	94.47
738.904	95.16
739.086	94.85
739.268	95.26
739.449	96.29
739.631	96.82
739.813	97.39
739.994	97.27
740.176	97.84
740.358	96.75
740.539	98.04
740.721	97.34
740.902	97.79
741.084	97.26
741.265	97.68
741.447	97.03
741.628	97.17
741.81	96.13
741.991	96.67
742.172	97.47
742.354	97.22
742.535	97.74
742.717	98.72
742.898	98.57
743.079	98.53
743.261	99.17
743.442	98.37
743.623	98.19
743.804	98.26
743.986	98.69
744.167	96.92
744.348	96.59
744.529	97.05
744.71	96.24
744.891	94.63
745.073	94.3
745.254	94.91
745.435	95.08
745.616	94.94
745.797	95.25
745.978	96.01
746.159	95.93
746.34	94.41
746.521	96.69
746.702	96.59
746.883	96.78
747.064	96.6
747.245	97.99
747.426	96.26
747.606	96.25
747.787	96.69
747.968	97.37
748.149	97.32
748.33	97.99
748.51	97.88
748.691	97.68
748.872	97.39
749.053	96.37
749.233	95.65
749.414	95.3
749.595	94.49
749.775	94.53
749.956	95.1
750.137	95.21
750.317	97.18
750.498	98.45
750.678	98.12
750.859	99.34
751.04	99.39
751.22	97.61
751.4	98.36
751.581	97
751.761	95.48
751.942	95.71
752.122	96.34
752.303	94.75
752.483	95.48
752.663	95.41
752.844	94.54
753.024	95.5
753.204	96.95
753.385	95.63
753.565	96.64
753.745	97
753.925	94.94
754.106	92.66
754.286	94.21
754.466	92.98
754.646	93.16
754.826	92.78
755.006	92.51
755.187	93.06
755.367	93.21
755.547	92.96
755.727	94.03
755.907	94.69
756.087	94.98
756.267	94.51
756.447	94.72
756.627	95.34
756.807	95.98
756.987	95.8
757.167	95.72
757.346	96.09
757.526	93.94
757.706	94.45
757.886	94.73
758.066	96.78
758.246	97.94
758.425	97.73
758.605	95.72
758.785	95.07
758.965	93.24
759.144	90.16
759.324	91.66
759.504	92.06
759.683	91.31
759.863	90.61
760.043	91.39
760.222	91.12
760.402	90.92
760.581	91.7
760.761	93.33
760.94	92.48
761.12	93.57
761.299	95.45
761.479	94.78
761.658	93.22
761.838	94.38
762.017	93.5
762.197	92.75
762.376	92.99
762.555	93.95
762.735	93.1
762.914	92.05
763.093	91.57
763.273	90.04
763.452	89.48
763.631	89.76
763.81	89.8
763.99	89.87
764.169	91.79
764.348	90.46
764.527	90.76
764.706	93.12
764.885	94.07
765.064	91.64
765.243	93.22
765.423	93.86
765.602	91.49
765.781	89.28
765.96	89.15
766.139	88.91
766.318	87.02
766.497	86.41
766.676	87.53
766.854	89.78
767.033	89.04
767.212	89.12
767.391	91.38
767.57	91.93
767.749	91.99
767.928	92.73
768.106	93.39
768.285	90.75
768.464	89.9
768.643	87.99
768.821	87.65
769	88.01
769.179	86.94
769.357	86
769.536	87.02
769.715	86.17
769.893	87.17
770.072	88.46
770.25	89.9
770.429	90.85
770.607	92.31
770.786	91.74
770.964	93.21
771.143	90.57
771.321	89.87
771.5	89.18
771.678	86.43
771.857	84.94
772.035	86.41
772.213	86.31
772.392	84.34
772.57	87.09
772.748	88.64
772.927	86.89
773.105	85.44
773.283	87.21
773.461	86.19
773.64	85.71
773.818	86.68
773.996	87.99
774.174	87.26
774.352	87.61
774.531	83.46
774.709	85.33
774.887	84.23
775.065	83.12
775.243	83.46
775.421	86.32
775.599	86.76
775.777	85.41
775.955	86.22
776.133	83.42
776.311	84.09
776.489	81.48
776.667	82.61
776.844	82.23
777.022	83.02
777.2	82.08
777.378	81.5
777.556	83.53
777.734	85.78
777.911	88.55
778.089	89.81
778.267	91.07
778.445	89.5
778.622	86.95
778.8	84.97
778.978	85.56
779.155	85.93
779.333	85.63
779.511	86.01
779.688	88.29
779.866	82.95
780.043	81.44
780.221	82.71
780.398	81.6
780.576	80.81
780.753	85.33
780.931	83.37
781.108	80.76
781.286	83.12
781.463	79.54
781.64	76.17
781.818	78.29
781.995	80.72
782.172	81.16
782.35	83.89
782.527	87.69
782.704	86.93
782.882	86.41
783.059	83.04
783.236	82.15
783.413	82.08
783.59	85.07
783.768	83.2
783.945	87.68
784.122	89.54
784.299	89.58
784.476	85.55
784.653	86.18
784.83	82.8
785.007	77.77
785.184	76.39
785.361	75.46
785.538	77.6
785.715	81.19
785.892	85.88
786.069	86.84
786.246	91.36
786.423	89.53
786.6	88.34
786.776	85.09
786.953	85.24
787.13	88.87
787.307	87.74
787.484	85.37
787.66	84.34
787.837	83.56
788.014	75.61
788.191	75.04
788.367	72.71
788.544	75.91
788.721	74.9
788.897	79.58
789.074	81.18
789.25	82.26
789.427	83.79
789.603	85.82
789.78	85.26
789.956	82.65
790.133	82.97
790.309	80.8
790.486	79.38
790.662	77.86
790.839	78.35
791.015	79.11
791.192	76.66
791.368	76.95
791.544	74.03
791.721	78.27
791.897	75.65
792.073	76.22
792.249	71.64
792.426	77.2
792.602	75.47
792.778	78.83
792.954	77.03
793.13	79.93
793.307	71.68
793.483	69.58
793.659	69.71
793.835	75.19
794.011	75.39
794.187	77.51
794.363	75.96
794.539	77.62
794.715	72.31
794.891	73.23
795.067	75.05
795.243	75.99
795.419	74.01
795.595	70.84
795.771	69.71
795.947	71.15
796.122	69
796.298	73.46
796.474	79.76
796.65	78.21
796.826	77.03
797.001	79.36
797.177	72.84
797.353	72.4
797.529	75.54
797.704	74.42
797.88	69.56
798.056	69.45
798.231	72.89
798.407	74.72
798.582	76.64
798.758	83.54
798.934	87.17
799.109	78.88
799.285	76.01
799.46	74.67
799.636	74.83
799.811	74.68
799.986	79.84
800.162	82.74
800.337	85.39
800.513	78.39
800.688	76.64
800.863	80.44
801.039	70.84
801.214	69.2
801.389	77.94
801.565	73.56
801.74	62.88
801.915	70.51
802.09	67.58
802.265	66.85
802.441	62.38
802.616	64.63
802.791	67.79
802.966	72.73
803.141	68.1
803.316	70.52
803.491	79.37
803.666	76.24
803.841	70.4
804.016	69
804.191	74.36
804.366	64.68
804.541	63.23
804.716	66.89
804.891	64.23
805.066	64.85
805.241	64.95
805.416	62.98
805.591	59
805.765	64.72
805.94	66.57
806.115	60.36
806.29	56.8
806.464	58.32
806.639	56.56
806.814	50.69
806.989	52.36
807.163	64.58
807.338	69.3
807.512	73.37
807.687	67.25
807.862	80.94
808.036	80.49
808.211	80.49
808.385	75.48
808.56	89.24
808.734	89.83
808.909	80.25
809.083	73.12
809.258	86.97
809.432	84.33
809.606	67.25
809.781	68.15
809.955	76.38
810.13	68.26
810.304	61.42
810.478	66.07
810.652	79.24
810.827	73.9
811.001	75.21
811.175	74.15
811.349	73.7
811.524	62.56
811.698	56.2
811.872	58.76
812.046	66.76
812.22	66.35
812.394	73.83
812.568	84.59
812.742	82.08
812.916	79.26
813.09	79.52
813.264	67.77
813.438	67
813.612	63.73
813.786	56.36
813.96	62.08
814.134	67.33
814.308	67.14
814.482	71.74
814.656	66.89
814.83	76.65
815.003	79.05
815.177	72.32
815.351	67.31
815.525	73.5
815.698	58.61
815.872	50.78
816.046	43.99
816.219	44.97
816.393	51.43
816.567	54.55
816.74	61.84
816.914	74.61
817.088	74.53
817.261	66.04
817.435	70.73
817.608	72.05
817.782	66.68
817.955	72.22
818.129	66.99
818.302	61.8
818.475	62.69
818.649	60.57
818.822	51.4
818.996	72.1
819.169	87.77
819.342	76.33
819.516	75.27
819.689	84.7
819.862	64.81
820.035	45.86
820.209	49.72
820.382	48.67
820.555	48.15
820.728	38.67
820.901	40.84
821.075	39.62
821.248	45.06
821.421	36.63
821.594	44.17
821.767	62.34
821.94	73.05
822.113	56.05
822.286	62.2
822.459	71.96
822.632	69.29
822.805	43.09
822.978	53.31
823.151	39.37
823.324	27.06
823.496	14.3
823.669	24.26
823.842	35.7
824.015	31.84
824.188	43.3
824.361	46.29
824.533	42.56
824.706	33.43
824.879	38.83
825.051	46.52
825.224	50.14
825.397	47.14
825.569	47.66
825.742	59.36
825.915	59.84
826.087	76.06
826.26	59.36
826.432	57.12
826.605	59.23
826.777	52.76
826.95	38.48
827.122	46.12
827.295	43.7
827.467	39.42
827.64	11.96
827.812	13.28
827.984	15.74
828.157	19.31
828.329	-26.56
828.501	13.73
828.674	34.64
828.846	19.08
829.018	29.68
829.19	40.32
829.363	47.92
829.535	45.37
829.707	54.36
829.879	48.22
830.051	49.83
830.223	42.6
830.395	29.38
830.568	34.51
830.74	16.56
830.912	47.7
831.084	22.24
831.256	25.5
831.428	12.07
831.6	13.72
831.772	-14.74
831.943	-17.25
832.115	0.77
832.287	15.29
832.459	21.89
832.631	34.22
832.803	59.2
832.975	66.08
833.146	68.07
833.318	59.67
833.49	73.43
833.662	48.67
833.833	28.18
834.005	23.58
834.177	34.84
834.348	18.02
834.52	3.99
834.692	18.11
834.863	17.34
835.035	8.25
835.206	-35.38
835.378	3.04
835.549	-29.35
835.721	-11.5
835.892	-3.63
836.064	3.55
836.235	14.11
836.407	55.71
836.578	38.06
836.749	32.6
836.921	31.79
837.092	-25.45
837.264	-41.53
837.435	-49.51
837.606	3.01
837.777	25.53
837.949	43.97
838.12	41.44
838.291	57.63
838.462	35.04
838.633	13.01
838.805	3.36
838.976	26.52
839.147	-24.88
839.318	-23.76
839.489	-65.51
839.66	-61.64
839.831	-58.22
840.002	-50.19
840.173	-77.13
840.344	-9.59
840.515	0.98
840.686	-46.04
840.857	-16.26
841.028	21.64
841.199	39.46
841.369	0.61
841.54	16.71
841.711	30.07
841.882	48.25
842.053	33.34
842.223	22.64
842.394	10.14
842.565	9.34
842.736	23.26
842.906	16.06
843.077	33.39
843.248	51.98
843.418	63.37
843.589	15.64
843.759	62.91
843.93	39.29
844.101	31.74
844.271	16.7
844.442	39.47
844.612	40.5
844.783	21.76
844.953	-17.39
845.123	-26.6
845.294	-35.91
845.464	-206.04
845.635	-46.74
845.805	67.95
845.975	57.74
846.146	-6.32
846.316	0.87
846.486	5.26
846.656	14.37
846.827	1.18
846.997	23.45
847.167	41.78
847.337	22.95
847.507	-24.16
847.677	-2.81
847.848	30.1
848.018	23.1
848.188	28.21
848.358	27.68
848.528	15.07
848.698	-27.63
848.868	-112.17
849.038	-201.1
849.208	-77.1
849.378	-48.56
849.548	-5.03
849.718	16.91
849.887	26.96
850.057	-6.84
850.227	-42.08
850.397	-57.19
850.567	-168.61
850.737	-362.72
850.906	-885.31
851.076	-447.85
851.246	-249.87
851.415	12.66
851.585	-3.57
851.755	-14.94
851.924	18.57
852.094	13.35
852.264	-48.51
852.433	-626.2
852.603	-86.2
852.772	-67.66
852.942	-40.19
853.111	-34.66
853.281	18.59
853.45	21.45
853.62	-42.45
853.789	-38.48
853.959	-37.26
854.128	-55.1
854.297	-62.8
854.467	-40.16
854.636	-25.37
854.805	27.66
854.975	28.2
855.144	82.12
855.313	436.19
855.482	39.23
855.652	-9.6
855.821	-3.56
855.99	52.82
856.159	19.7
856.328	30.16
856.497	2.58
856.667	10.96
856.836	-28.66
857.005	-38.32
857.174	-34.78
857.343	-39.57
857.512	-2.1
857.681	-19.79
857.85	-71.07
858.019	-28.63
858.188	-33.86
858.356	-52.47
858.525	-93.43
858.694	-68
858.863	-192.33
859.032	-125.13
859.201	-134.99
859.369	-19.96
859.538	-63.24
859.707	-42.04
859.876	-52.34
860.044	-56.26
860.213	-0.76
860.382	3.95
860.55	8.23
860.719	31.43
860.888	25.11
861.056	-6.53
861.225	6.3
861.393	35.52
861.562	25.99
861.73	-42.82
861.899	-149.35
862.067	-787.07
862.236	-33.47
862.404	-98.63
862.572	-0.65
862.741	44.63
862.909	14.69
863.078	-1.07
863.246	-2
863.414	12.14
863.582	21.34
863.751	-1.36
863.919	-22.41
864.087	-3.58
864.255	-1.88
864.424	-276.2
864.592	-44.3
864.76	-147.43
864.928	-506.6
865.096	-314.41
865.264	-155.32
865.432	-1411.93
865.6	-31.62
865.768	-33.62
865.936	-11.22
866.104	-44.15
866.272	-73.2
866.44	-255.22
866.608	510.46
866.776	266.55
866.944	2875
867.112	-602.65
867.28	-241.61
867.448	-114.93
867.615	-42.34
867.783	-10.29
867.951	-14.05
868.119	26.36
868.286	18.04
868.454	-75.8
868.622	-69.51
868.789	1.03
868.957	-1030.36
869.125	-1113.82
869.292	-102.52
869.46	-171.64
869.627	-10.01
869.795	-6.97
869.963	19.06
870.13	34.61
870.298	66.53
870.465	26.97
870.632	26.17
870.8	22
870.967	-27.86
871.135	-115.43
871.302	-109.51
871.469	-165.98
871.637	-309.7
871.804	-128.94
871.971	-139.97
872.139	-464.77
872.306	-80.47
872.473	-39.69
872.64	-140.45
872.807	-30.28
872.975	57.13
873.142	-76.45
873.309	1614.19
873.476	-9
873.643	32.56
873.81	-18.76
873.977	27.64
874.144	34.46
874.311	-67.82
874.478	-82.92
874.645	-121.5
874.812	-74.63
874.979	-7.37
875.146	-23.38
875.313	-38.04
875.48	33.56
875.647	7.96
875.813	-33.91
875.98	-11.28
876.147	-20.47
876.314	-56.82
876.481	801.03
876.647	-859.83
876.814	304.79
876.981	12.6
877.147	-13.47
877.314	46.51
877.481	76.41
877.647	41.39
877.814	9.17
877.98	-35.47
878.147	-11.35
878.314	17.92
878.48	9.29
878.647	11.82
878.813	29.56
878.979	20.43
879.146	-4.82
879.312	6.33
879.479	-10.01
879.645	11.44
879.811	-68.22
879.978	-311.64
880.144	-112.15
880.31	-84.28
880.477	-328.34
880.643	-408.89
880.809	-161.15
880.975	-94.45
881.142	-545.68
881.308	-51.03
881.474	10.6
881.64	1.12
881.806	-69.66
881.972	-22.83
882.138	-85.51
882.304	-82.2
882.47	-206.17
882.636	-708.4
882.802	-183.52
882.968	12.07
883.134	-17.32
883.3	13.12
883.466	40.91
883.632	61.83
883.798	35.27
883.964	28.53
884.129	-14.71
884.295	-6.74
884.461	-45.58
884.627	-54.34
884.793	-59.42
884.958	-10.81
885.124	-115.58
885.29	-246.57
885.455	-527.31
885.621	-205.43
885.787	-320.89
885.952	-139.03
886.118	-134.02
886.283	-106.42
886.449	-199.36
886.614	-155.4
886.78	-325.48
886.945	836.48
887.111	-352.17
887.276	-226.85
887.442	-458.41
887.607	-192.57
887.773	-161.54
887.938	-200.59
888.103	-290.79
888.269	-159.11
888.434	-327.7
888.599	-116.65
888.764	-40.48
888.93	-6.94
889.095	-52.73
889.26	-74.16
889.425	-64.94
889.59	-55.34
889.756	-78.26
889.921	-18.78
890.086	20.33
890.251	-3.46
890.416	-100.97
890.581	-914.92
890.746	242.23
890.911	481.69
891.076	186.7
891.241	-559.89
891.406	-68.51
891.571	-76.13
891.736	-283.6
891.901	-435.62
892.065	524.45
892.23	103.39
892.395	169.13
892.56	236.78
892.725	-253.32
892.889	-1259.15
893.054	-201.66
893.219	-65.24
893.384	-9.8
893.548	-42.83
893.713	-24.12
893.878	-1.99
