Data from Ofra_1a_PS_9CX5_Reflection_2.txt Node
Date: Tue Jul 20 11:04:16 EDT 2021
User: Adam
Spectrometer: FLMT01687
Trigger mode: 0
Integration Time (sec): 1.004000E0
Scans to average: 2
Electric dark correction enabled: true
Nonlinearity correction enabled: false
Boxcar width: 2
XAxis mode: Wavelengths
Number of Pixels in Spectrum: 3648
>>>>>Begin Spectral Data<<<<<
179.494	-206.6
179.716	-487.02
179.937	917.39
180.158	-1066.88
180.38	244.76
180.601	172.1
180.823	85.65
181.044	86.89
181.265	136.28
181.486	194.14
181.708	112.45
181.929	1700
182.15	-126.23
182.372	233.99
182.593	172.42
182.814	-48.05
183.035	38.2
183.257	77.27
183.478	14.79
183.699	-13.4
183.92	-61.83
184.141	-48.95
184.363	-42.55
184.584	-50.2
184.805	-17.13
185.026	36.05
185.247	35.72
185.468	19.57
185.689	47.27
185.91	43.81
186.132	45.74
186.353	38.46
186.574	43.19
186.795	30.25
187.016	44.82
187.237	43.89
187.458	49.4
187.679	51.7
187.9	50.84
188.121	57.95
188.342	47.69
188.563	61.14
188.784	69.52
189.005	62.99
189.226	48.44
189.447	58.16
189.667	34.86
189.888	22.94
190.109	2.19
190.33	16.09
190.551	8.16
190.772	28.86
190.993	10.03
191.214	46.04
191.434	59.37
191.655	37.19
191.876	25.38
192.097	47.77
192.318	50.94
192.538	26.11
192.759	24.51
192.98	36.44
193.201	37.37
193.421	46.91
193.642	54.03
193.863	74.23
194.083	68.12
194.304	68.48
194.525	37.82
194.745	28.17
194.966	8.79
195.187	10.81
195.407	-4.72
195.628	-5.47
195.848	-7.12
196.069	-2.34
196.29	3.3
196.51	3.01
196.731	4.31
196.951	9.75
197.172	6.51
197.392	-15.87
197.613	19.31
197.833	11.38
198.054	-3.02
198.274	-3.61
198.495	14.69
198.715	-2.16
198.936	11.92
199.156	7.02
199.377	14.28
199.597	9.23
199.817	11.66
200.038	12.69
200.258	46.03
200.479	48.38
200.699	55.54
200.919	37.63
201.14	16.43
201.36	5.24
201.58	-0.92
201.801	-16.79
202.021	-4.99
202.241	9.08
202.461	9.66
202.682	22.38
202.902	40.54
203.122	36.19
203.342	40.55
203.563	33.68
203.783	17.58
204.003	19.91
204.223	26.16
204.443	39.57
204.663	22.17
204.884	36.67
205.104	-7.05
205.324	-5.88
205.544	-56.91
205.764	14.81
205.984	18.36
206.204	40.48
206.424	33.44
206.644	33.26
206.864	7.19
207.084	3.96
207.304	1.99
207.525	-5.26
207.745	25.18
207.964	36
208.184	50.5
208.404	28.78
208.624	48.79
208.844	36.59
209.064	28.99
209.284	19.2
209.504	24.98
209.724	22.28
209.944	13.14
210.164	13.4
210.384	24.84
210.604	29.45
210.823	9.07
211.043	52.1
211.263	9.25
211.483	19.14
211.703	11.1
211.922	6.47
212.142	2.37
212.362	37.35
212.582	46.87
212.801	60.11
213.021	47.81
213.241	34.57
213.461	24.63
213.68	19.31
213.9	3.12
214.12	14.73
214.339	13.26
214.559	19.88
214.779	21.88
214.998	50.84
215.218	35.05
215.438	41.92
215.657	22.07
215.877	-0.94
216.096	1.58
216.316	-4.34
216.535	-18.97
216.755	-4.41
216.974	-7.7
217.194	2.71
217.413	-3.38
217.633	-21.21
217.852	-22.82
218.072	-11.13
218.291	-16.44
218.511	-1.84
218.73	18.46
218.95	17.54
219.169	4
219.389	-0.4
219.608	6.39
219.827	-5.14
220.047	12.53
220.266	11.81
220.485	9.63
220.705	10.03
220.924	41.52
221.143	45.69
221.363	58.72
221.582	52.6
221.801	58.75
222.021	51.77
222.24	63.41
222.459	59.24
222.678	58.53
222.897	43.54
223.117	37.26
223.336	29.98
223.555	26.62
223.774	31.01
223.993	36.29
224.213	52.95
224.432	31.46
224.651	24.41
224.87	17.42
225.089	25.71
225.308	20.29
225.527	28.46
225.746	29.12
225.965	25.64
226.184	8.74
226.404	0.29
226.623	5.53
226.842	18.35
227.061	29.82
227.28	44.88
227.499	51.02
227.718	44.59
227.936	36.34
228.155	28.44
228.374	17.44
228.593	29.64
228.812	25.78
229.031	32.68
229.25	27.94
229.469	41.06
229.688	26.2
229.907	28.19
230.125	36.12
230.344	38.17
230.563	36.01
230.782	37.02
231.001	42.85
231.22	30.11
231.438	40.28
231.657	43.49
231.876	33.65
232.095	40.06
232.313	31.38
232.532	17.5
232.751	12.77
232.969	28.34
233.188	9.77
233.407	13.97
233.625	27.91
233.844	14.02
234.063	1.25
234.281	15.2
234.5	28.52
234.719	30.6
234.937	23.06
235.156	44.55
235.374	51.85
235.593	33.49
235.811	30.12
236.03	37.54
236.249	33.83
236.467	29.89
236.686	15.93
236.904	19.68
237.123	22.02
237.341	7.79
237.559	12.22
237.778	70.72
237.996	60.46
238.215	57.24
238.433	78.47
238.652	57.36
238.87	15.54
239.088	31.35
239.307	25.94
239.525	23.38
239.743	9.91
239.962	2.17
240.18	11.86
240.398	6.73
240.617	-2.71
240.835	19.94
241.053	24.16
241.271	25.6
241.49	33.57
241.708	34.46
241.926	34.77
242.144	61.53
242.363	41.47
242.581	58.12
242.799	61.96
243.017	41.4
243.235	18.55
243.453	20
243.672	28.82
243.89	24.54
244.108	24.61
244.326	38.28
244.544	37.59
244.762	21.57
244.98	17.79
245.198	19.72
245.416	-0.88
245.634	1.32
245.852	15.71
246.07	34.8
246.288	31.31
246.506	31.23
246.724	43.4
246.942	41.72
247.16	48.61
247.378	35.15
247.596	77.09
247.814	59.21
248.032	33.58
248.25	7.27
248.468	19.85
248.685	14.78
248.903	9.62
249.121	15.06
249.339	15.08
249.557	18.23
249.775	19.64
249.992	30.6
250.21	27.19
250.428	34.43
250.646	38.49
250.863	24.87
251.081	14.21
251.299	21.21
251.517	34.49
251.734	24.5
251.952	23.46
252.17	42.17
252.387	38.45
252.605	15.34
252.823	14.95
253.04	45.46
253.258	32.93
253.475	30.66
253.693	34.64
253.911	19.75
254.128	9.89
254.346	13.95
254.563	18.6
254.781	15.97
254.998	36.97
255.216	-0.41
255.433	-33.57
255.651	-45
255.868	-62.45
256.086	-56.41
256.303	-21.85
256.521	6.79
256.738	24.25
256.956	41.51
257.173	35.76
257.39	43.44
257.608	42.4
257.825	34.85
258.043	44.93
258.26	39.15
258.477	36.82
258.695	32.02
258.912	41.1
259.129	29.52
259.346	36.16
259.564	23.76
259.781	30.28
259.998	26.02
260.216	41.03
260.433	28.44
260.65	37.72
260.867	24.51
261.084	33.22
261.302	16.57
261.519	48.29
261.736	51
261.953	49.05
262.17	47.31
262.387	40.14
262.604	29.74
262.822	24.64
263.039	26.3
263.256	13.54
263.473	22.37
263.69	19.37
263.907	27.89
264.124	37.32
264.341	37.93
264.558	27.17
264.775	33.94
264.992	28.19
265.209	22.26
265.426	30.69
265.643	32.35
265.86	49.08
266.077	30.23
266.294	31.24
266.51	49.34
266.727	48.71
266.944	44.27
267.161	38.52
267.378	45.69
267.595	23.15
267.812	14.63
268.028	-5.12
268.245	17.79
268.462	4.01
268.679	12.95
268.896	33.05
269.112	39.03
269.329	5.95
269.546	30.8
269.763	29.94
269.979	10.7
270.196	27.35
270.413	44.3
270.629	24.7
270.846	22.48
271.063	35.15
271.279	13.7
271.496	-8.91
271.712	1.91
271.929	10.98
272.146	16.38
272.362	32.32
272.579	35.34
272.795	34.31
273.012	29.98
273.228	40.04
273.445	30.02
273.661	22.88
273.878	7.12
274.094	2.13
274.311	-8.97
274.527	-34.3
274.744	9.54
274.96	17.51
275.177	19.04
275.393	14.78
275.609	29.46
275.826	24.35
276.042	24.15
276.259	29.22
276.475	27.49
276.691	18.9
276.908	1.77
277.124	2.48
277.34	-7.68
277.557	-15.56
277.773	-30.04
277.989	-13.75
278.205	-4.28
278.422	0.73
278.638	8.58
278.854	14.3
279.07	19.57
279.286	19.05
279.503	23.36
279.719	29
279.935	28.27
280.151	14.16
280.367	18.73
280.583	11.16
280.799	3.85
281.016	-19.59
281.232	-6.47
281.448	-16.27
281.664	-14.03
281.88	-0.1
282.096	15.64
282.312	21.76
282.528	28.66
282.744	36.46
282.96	17.84
283.176	20.93
283.392	-15.55
283.608	-34.95
283.824	-42.95
284.04	-88.74
284.256	-44.21
284.471	-14.62
284.687	-7.72
284.903	5
285.119	38.71
285.335	46.69
285.551	37.83
285.767	42.9
285.982	24.8
286.198	0.4
286.414	-34.28
286.63	-2.56
286.846	3.87
287.061	37
287.277	20.45
287.493	5.29
287.709	6.89
287.924	21.45
288.14	19.51
288.356	34.08
288.571	50.22
288.787	40.89
289.003	30.81
289.218	22.6
289.434	15.78
289.65	21.5
289.865	21.54
290.081	17.61
290.296	24.53
290.512	18.95
290.727	9.36
290.943	16.2
291.159	15.29
291.374	-12.16
291.59	-3.24
291.805	-18.51
292.021	-24.28
292.236	-21.77
292.451	5.56
292.667	2.19
292.882	25.1
293.098	21.96
293.313	22.6
293.529	24.01
293.744	17.56
293.959	14.59
294.175	28.74
294.39	15.91
294.605	37.87
294.821	37.68
295.036	41.39
295.251	31.69
295.467	32.35
295.682	17.43
295.897	25.71
296.112	18.03
296.328	25.34
296.543	21.05
296.758	12.05
296.973	8.71
297.188	4.51
297.404	-37.48
297.619	-16.9
297.834	-28.57
298.049	-14.7
298.264	-17.88
298.479	16.4
298.694	23.38
298.909	33.94
299.125	38.27
299.34	46.54
299.555	37.15
299.77	37.63
299.985	34.59
300.2	29.34
300.415	32.69
300.63	40.45
300.845	44.72
301.06	41.93
301.275	45.06
301.49	46.31
301.704	34.17
301.919	24.79
302.134	13.98
302.349	26.64
302.564	7.62
302.779	2.01
302.994	13.11
303.209	17.94
303.423	4.48
303.638	17.82
303.853	7.81
304.068	-13.31
304.283	2.58
304.497	-19.09
304.712	-2.7
304.927	18.39
305.142	27.02
305.356	22.97
305.571	29.61
305.786	28.85
306	35.46
306.215	37.77
306.43	38.69
306.644	36.54
306.859	21.34
307.074	20.59
307.288	23.74
307.503	35.87
307.717	48.53
307.932	55.86
308.147	46.02
308.361	47.46
308.576	31.61
308.79	4.12
309.005	-19.79
309.219	-8.12
309.434	-3.34
309.648	-10.3
309.863	9.85
310.077	25.25
310.292	31.65
310.506	27.12
310.72	37.16
310.935	18.02
311.149	8.71
311.364	10.11
311.578	10.67
311.792	5.77
312.007	32.22
312.221	8.31
312.435	11.06
312.649	13.4
312.864	18.46
313.078	3.51
313.292	24.5
313.507	28.57
313.721	22.62
313.935	36.62
314.149	43.65
314.363	35.22
314.578	26.47
314.792	17.38
315.006	8.61
315.22	12.7
315.434	21.36
315.648	17.52
315.862	23.8
316.077	12.38
316.291	6.94
316.505	-11.5
316.719	-6.24
316.933	-4.02
317.147	10.22
317.361	15.64
317.575	14.21
317.789	21.81
318.003	18.94
318.217	20.34
318.431	17.06
318.645	13.25
318.859	12.11
319.073	28.78
319.287	19.93
319.5	23.32
319.714	23.72
319.928	22.61
320.142	15.95
320.356	22.26
320.57	-1.11
320.784	9.9
320.997	-11.72
321.211	-9.87
321.425	-27.87
321.639	1.27
321.853	4.72
322.066	13.32
322.28	14.52
322.494	14.23
322.707	18.89
322.921	11.93
323.135	12.77
323.349	12.13
323.562	19.82
323.776	9.99
323.989	23.27
324.203	10.8
324.417	8.81
324.63	3.01
324.844	-5.84
325.057	-24.7
325.271	1.69
325.485	9.5
325.698	21.7
325.912	36.31
326.125	33.14
326.339	36.09
326.552	12.54
326.766	9.73
326.979	5.97
327.193	14.65
327.406	-0.49
327.619	14.23
327.833	8.17
328.046	8.34
328.26	-0.64
328.473	14.34
328.686	16.7
328.9	31.34
329.113	27.21
329.326	32.68
329.54	25.58
329.753	34.02
329.966	22
330.179	25.08
330.393	14.84
330.606	7.88
330.819	-9.04
331.032	-2.99
331.246	9.04
331.459	41.86
331.672	42.32
331.885	50.24
332.098	41.75
332.311	35.97
332.525	7.57
332.738	15.95
332.951	1.79
333.164	11.05
333.377	3.08
333.59	2.53
333.803	7.36
334.016	21.65
334.229	20.47
334.442	41.53
334.655	54.72
334.868	34.74
335.081	24.18
335.294	13.54
335.507	13.48
335.72	10.53
335.933	15.23
336.146	24.85
336.359	38.94
336.572	27.42
336.785	16.43
336.997	4.51
337.21	4.68
337.423	-15.17
337.636	-13.02
337.849	-8.54
338.062	5.87
338.274	28.66
338.487	13.2
338.7	1.69
338.913	6.14
339.125	7.73
339.338	-17.08
339.551	0.89
339.763	17.26
339.976	24.56
340.189	14.45
340.402	34.66
340.614	38.88
340.827	33.63
341.039	21.77
341.252	30.34
341.465	21.08
341.677	16.57
341.89	7.78
342.102	26
342.315	28.04
342.527	30.44
342.74	26.71
342.952	55.5
343.165	50.8
343.377	43.56
343.59	44.11
343.802	54.39
344.015	37.41
344.227	31.09
344.44	26.31
344.652	25.06
344.864	25.42
345.077	41.22
345.289	30.84
345.502	44.25
345.714	38.4
345.926	26.19
346.139	-3.73
346.351	13.26
346.563	7.73
346.775	18.49
346.988	32.04
347.2	41.91
347.412	34.36
347.624	29.72
347.837	42.29
348.049	26.89
348.261	28.04
348.473	28.99
348.685	43.18
348.897	18.55
349.11	29.36
349.322	22.3
349.534	20.16
349.746	11.38
349.958	7.4
350.17	-13.05
350.382	-9.33
350.594	5.67
350.806	10.72
351.018	13.23
351.23	22.55
351.442	27.37
351.654	25.78
351.866	19.87
352.078	30.59
352.29	23.54
352.502	21.68
352.714	18.86
352.926	17.66
353.138	8.06
353.35	6.47
353.561	9.36
353.773	5.81
353.985	10.06
354.197	8.15
354.409	16.73
354.621	0.78
354.832	0.82
355.044	-7.77
355.256	-1.21
355.468	-15.14
355.679	9.54
355.891	16.72
356.103	24.81
356.314	18.91
356.526	25.28
356.738	16.15
356.949	8.18
357.161	6.24
357.373	12.16
357.584	10.93
357.796	13.49
358.008	28.73
358.219	22.03
358.431	15.34
358.642	31.5
358.854	38.16
359.065	10.08
359.277	16.64
359.488	16.43
359.7	5.16
359.911	-14.42
360.123	4.53
360.334	-17.32
360.546	-12.76
360.757	-10.2
360.969	0.74
361.18	2.85
361.391	27.73
361.603	33.75
361.814	37.71
362.025	30.23
362.237	24.4
362.448	23.38
362.659	22.29
362.871	6.36
363.082	11.75
363.293	10.36
363.504	-9.81
363.716	-4.51
363.927	16.23
364.138	-3.49
364.349	-9.02
364.56	-15.23
364.772	-2.78
364.983	-5.31
365.194	3.42
365.405	10.49
365.616	25.74
365.827	7.04
366.038	15.93
366.25	20.22
366.461	12.52
366.672	11.35
366.883	7.76
367.094	-7.21
367.305	-15.95
367.516	-8.11
367.727	-19.14
367.938	-15.42
368.149	-19.84
368.36	-14.54
368.571	-18.44
368.781	-12.15
368.992	-10.7
369.203	-1.76
369.414	-5.11
369.625	-2.64
369.836	12.57
370.047	23.72
370.258	21.92
370.468	20.91
370.679	10.64
370.89	2.55
371.101	9.99
371.312	1.52
371.522	5.68
371.733	12.59
371.944	-0.37
372.155	-16.86
372.365	-6.92
372.576	-8.2
372.787	-5.07
372.997	-3.04
373.208	1.64
373.419	-2.69
373.629	-11.08
373.84	-18.69
374.05	-15.45
374.261	-21.06
374.472	-12.72
374.682	15.36
374.893	9.21
375.103	21.46
375.314	18.82
375.524	15.55
375.735	11.23
375.945	17.49
376.156	14.76
376.366	20.39
376.577	32.68
376.787	26.46
376.997	27.67
377.208	28.68
377.418	21
377.629	11.92
377.839	13.75
378.049	13.52
378.26	3.15
378.47	2.89
378.68	18.18
378.89	14.19
379.101	22.86
379.311	26.59
379.521	20.5
379.732	15.3
379.942	8.6
380.152	3.65
380.362	4.42
380.572	16.66
380.783	17.26
380.993	28.02
381.203	23.38
381.413	24.51
381.623	19.54
381.833	18.84
382.043	16.32
382.253	14.95
382.463	18.97
382.674	18.86
382.884	12.3
383.094	6.37
383.304	10.33
383.514	7.35
383.724	11.55
383.934	7.12
384.144	13.98
384.353	14.97
384.563	12.55
384.773	9.85
384.983	8.02
385.193	-3.23
385.403	-1.44
385.613	4
385.823	4.82
386.033	5.5
386.242	10.06
386.452	2.85
386.662	-0.04
386.872	5.83
387.082	8.63
387.291	4.23
387.501	12.2
387.711	14.99
387.921	9.03
388.13	10.12
388.34	13.98
388.55	7.67
388.759	1.75
388.969	2.34
389.179	2.57
389.388	1.08
389.598	0.46
389.807	-1.62
390.017	1.51
390.227	0.61
390.436	0.57
390.646	1.35
390.855	3.83
391.065	-0.55
391.274	-0.44
391.484	-1.45
391.693	-2.17
391.903	-1.5
392.112	-0.77
392.322	-1.79
392.531	-1.54
392.74	0.08
392.95	0.21
393.159	0.72
393.369	0.85
393.578	1.16
393.787	1.18
393.997	1.27
394.206	0.8
394.415	2.77
394.625	2.4
394.834	1.06
395.043	0.69
395.252	3.73
395.462	3.44
395.671	4.39
395.88	5.33
396.089	5.39
396.298	4.05
396.508	4.02
396.717	3.02
396.926	2.57
397.135	2.51
397.344	1.48
397.553	1.01
397.762	2.48
397.971	2.31
398.181	2.63
398.39	2.4
398.599	2.59
398.808	1.63
399.017	2.24
399.226	1.9
399.435	2.26
399.644	2.68
399.853	3.01
400.062	2.47
400.27	2.1
400.479	2.11
400.688	2.06
400.897	1.74
401.106	1.81
401.315	2.09
401.524	1.91
401.733	1.38
401.941	1.77
402.15	1.64
402.359	1.78
402.568	2
402.777	2.28
402.985	1.61
403.194	1.6
403.403	1.48
403.612	1.27
403.82	0.93
404.029	1.35
404.238	1.51
404.446	1.47
404.655	1.65
404.864	1.94
405.072	1.93
405.281	2.07
405.489	1.91
405.698	1.81
405.906	1.77
406.115	1.61
406.324	1.48
406.532	1.65
406.741	1.66
406.949	1.52
407.158	1.7
407.366	1.56
407.574	1.62
407.783	1.68
407.991	1.66
408.2	1.72
408.408	1.82
408.617	1.69
408.825	1.43
409.033	1.41
409.242	1.47
409.45	1.38
409.658	1.22
409.867	1.34
410.075	1.46
410.283	1.26
410.491	1.22
410.7	1.35
410.908	1.38
411.116	1.34
411.324	1.33
411.533	1.38
411.741	1.39
411.949	1.5
412.157	1.42
412.365	1.53
412.573	1.57
412.781	1.56
412.99	1.46
413.198	1.6
413.406	1.74
413.614	1.74
413.822	1.88
414.03	1.85
414.238	1.81
414.446	1.64
414.654	1.54
414.862	1.42
415.07	1.43
415.278	1.52
415.486	1.24
415.694	1.38
415.902	1.41
416.109	1.4
416.317	1.45
416.525	1.6
416.733	1.54
416.941	1.66
417.149	1.65
417.357	1.62
417.564	1.65
417.772	1.69
417.98	1.55
418.188	1.46
418.395	1.07
418.603	1.09
418.811	0.93
419.019	0.9
419.226	1.06
419.434	1.33
419.642	1.19
419.849	1.23
420.057	1.27
420.265	1.12
420.472	0.99
420.68	1.07
420.887	1.09
421.095	1.2
421.302	1.23
421.51	1.28
421.717	1.43
421.925	1.43
422.132	1.34
422.34	1.29
422.547	1.23
422.755	1.14
422.962	1.16
423.17	1
423.377	1.11
423.585	1.26
423.792	1.29
423.999	1.37
424.207	1.32
424.414	1.36
424.621	1.26
424.829	1.3
425.036	1.23
425.243	1.39
425.451	1.31
425.658	1.29
425.865	1.23
426.072	1.21
426.28	1.41
426.487	1.4
426.694	1.34
426.901	1.46
427.108	1.47
427.315	1.21
427.523	1.23
427.73	1.44
427.937	1.1
428.144	1.07
428.351	0.99
428.558	1.06
428.765	0.84
428.972	1.09
429.179	0.92
429.386	1.17
429.593	1.01
429.8	1.12
430.007	1.04
430.214	1.16
430.421	1.23
430.628	1.27
430.835	1.21
431.042	1.31
431.249	1.44
431.456	1.21
431.662	1.33
431.869	1.47
432.076	1.41
432.283	1.53
432.49	1.53
432.697	1.42
432.903	1.31
433.11	1.38
433.317	1.31
433.524	1.4
433.73	1.39
433.937	1.48
434.144	1.38
434.35	1.31
434.557	1.31
434.764	1.38
434.97	1.23
435.177	1.41
435.384	1.48
435.59	1.45
435.797	1.48
436.003	1.63
436.21	1.46
436.416	1.34
436.623	1.37
436.829	1.24
437.036	1.08
437.242	1.26
437.449	1.25
437.655	1.28
437.862	1.34
438.068	1.4
438.275	1.33
438.481	1.45
438.687	1.36
438.894	1.54
439.1	1.55
439.307	1.64
439.513	1.64
439.719	1.77
439.926	1.68
440.132	1.76
440.338	1.65
440.544	1.62
440.751	1.55
440.957	1.62
441.163	1.53
441.369	1.59
441.575	1.53
441.782	1.64
441.988	1.55
442.194	1.5
442.4	1.45
442.606	1.61
442.812	1.55
443.018	1.56
443.224	1.81
443.431	1.81
443.637	1.68
443.843	1.7
444.049	1.74
444.255	1.63
444.461	1.54
444.667	1.58
444.873	1.6
445.079	1.61
445.284	1.63
445.49	1.66
445.696	1.63
445.902	1.6
446.108	1.55
446.314	1.52
446.52	1.64
446.726	1.65
446.931	1.62
447.137	1.65
447.343	1.77
447.549	1.79
447.755	1.84
447.96	1.88
448.166	1.91
448.372	1.84
448.578	1.76
448.783	1.73
448.989	1.85
449.195	1.8
449.4	1.82
449.606	1.9
449.812	1.87
450.017	1.76
450.223	1.74
450.428	1.7
450.634	1.64
450.84	1.67
451.045	1.69
451.251	1.8
451.456	1.88
451.662	1.95
451.867	1.96
452.073	1.94
452.278	1.95
452.483	1.96
452.689	1.95
452.894	2.04
453.1	2.07
453.305	2.03
453.51	2.03
453.716	2.03
453.921	2
454.127	2.03
454.332	2.01
454.537	1.94
454.742	1.88
454.948	1.83
455.153	1.78
455.358	1.81
455.563	1.89
455.769	1.96
455.974	1.99
456.179	1.99
456.384	1.94
456.589	1.85
456.795	1.79
457	1.82
457.205	1.78
457.41	1.74
457.615	1.76
457.82	1.85
458.025	1.8
458.23	1.88
458.435	1.94
458.64	1.99
458.845	1.95
459.05	1.96
459.255	1.86
459.46	1.88
459.665	1.86
459.87	1.84
460.075	1.79
460.28	1.88
460.485	1.94
460.69	1.91
460.895	1.98
461.099	1.93
461.304	1.83
461.509	1.8
461.714	1.87
461.919	1.84
462.123	1.97
462.328	1.9
462.533	1.79
462.738	1.74
462.942	1.7
463.147	1.71
463.352	1.89
463.556	2.01
463.761	1.97
463.966	1.96
464.17	2
464.375	2.01
464.58	1.9
464.784	1.95
464.989	2.01
465.193	1.97
465.398	1.93
465.602	2.09
465.807	2.11
466.011	2.05
466.216	1.99
466.42	2.1
466.625	2.15
466.829	2.15
467.034	2.28
467.238	2.42
467.443	2.39
467.647	2.33
467.851	2.36
468.056	2.36
468.26	2.35
468.464	2.32
468.669	2.33
468.873	2.32
469.077	2.24
469.282	2.16
469.486	2.22
469.69	2.26
469.894	2.36
470.099	2.43
470.303	2.4
470.507	2.36
470.711	2.36
470.915	2.36
471.119	2.37
471.324	2.49
471.528	2.52
471.732	2.51
471.936	2.53
472.14	2.56
472.344	2.58
472.548	2.64
472.752	2.59
472.956	2.52
473.16	2.5
473.364	2.47
473.568	2.39
473.772	2.44
473.976	2.54
474.18	2.51
474.384	2.51
474.588	2.54
474.792	2.52
474.995	2.52
475.199	2.56
475.403	2.62
475.607	2.68
475.811	2.68
476.015	2.59
476.218	2.55
476.422	2.57
476.626	2.62
476.83	2.73
477.033	2.8
477.237	2.88
477.441	2.79
477.644	2.72
477.848	2.7
478.052	2.67
478.255	2.74
478.459	2.78
478.663	2.9
478.866	2.93
479.07	2.97
479.273	2.99
479.477	3.01
479.681	2.92
479.884	2.84
480.088	2.84
480.291	2.75
480.495	2.76
480.698	2.83
480.901	2.87
481.105	2.9
481.308	2.98
481.512	3.01
481.715	3.09
481.919	3.17
482.122	3.18
482.325	3.26
482.529	3.25
482.732	3.13
482.935	3.1
483.138	3.08
483.342	3.02
483.545	3.11
483.748	3.19
483.952	3.24
484.155	3.27
484.358	3.29
484.561	3.22
484.764	3.13
484.967	3.06
485.171	3.11
485.374	3.04
485.577	3.03
485.78	3.05
485.983	3.12
486.186	3.04
486.389	3.08
486.592	3.1
486.795	3.14
486.998	3.05
487.201	3.08
487.404	3.18
487.607	3.23
487.81	3.23
488.013	3.29
488.216	3.32
488.419	3.23
488.622	3.19
488.825	3.19
489.028	3.22
489.231	3.18
489.433	3.19
489.636	3.17
489.839	3.19
490.042	3.17
490.245	3.18
490.447	3.16
490.65	3.22
490.853	3.22
491.056	3.25
491.258	3.3
491.461	3.32
491.664	3.28
491.866	3.26
492.069	3.32
492.272	3.18
492.474	3.2
492.677	3.27
492.879	3.24
493.082	3.23
493.285	3.41
493.487	3.4
493.69	3.37
493.892	3.39
494.095	3.36
494.297	3.32
494.5	3.36
494.702	3.33
494.905	3.39
495.107	3.41
495.309	3.42
495.512	3.37
495.714	3.43
495.917	3.39
496.119	3.41
496.321	3.36
496.524	3.37
496.726	3.35
496.928	3.39
497.13	3.33
497.333	3.31
497.535	3.37
497.737	3.34
497.939	3.33
498.142	3.39
498.344	3.46
498.546	3.44
498.748	3.52
498.95	3.58
499.152	3.54
499.355	3.49
499.557	3.51
499.759	3.55
499.961	3.47
500.163	3.5
500.365	3.56
500.567	3.54
500.769	3.54
500.971	3.57
501.173	3.54
501.375	3.6
501.577	3.61
501.779	3.55
501.981	3.56
502.183	3.56
502.385	3.54
502.587	3.57
502.788	3.62
502.99	3.61
503.192	3.66
503.394	3.69
503.596	3.69
503.798	3.66
503.999	3.7
504.201	3.69
504.403	3.68
504.605	3.71
504.806	3.79
505.008	3.84
505.21	3.85
505.411	3.84
505.613	3.86
505.815	3.86
506.016	3.94
506.218	4.02
506.42	4
506.621	4.02
506.823	4.05
507.024	3.94
507.226	3.96
507.427	4.04
507.629	4.06
507.83	4.05
508.032	4.05
508.233	4.05
508.435	4.05
508.636	4.11
508.838	4.09
509.039	4.11
509.24	4.14
509.442	4.1
509.643	4.04
509.845	4.09
510.046	4.17
510.247	4.18
510.448	4.27
510.65	4.26
510.851	4.28
511.052	4.25
511.254	4.23
511.455	4.18
511.656	4.2
511.857	4.23
512.058	4.28
512.26	4.29
512.461	4.31
512.662	4.31
512.863	4.21
513.064	4.22
513.265	4.2
513.466	4.22
513.667	4.28
513.868	4.32
514.069	4.34
514.27	4.38
514.471	4.34
514.672	4.36
514.873	4.36
515.074	4.37
515.275	4.35
515.476	4.44
515.677	4.41
515.878	4.46
516.079	4.41
516.28	4.45
516.481	4.43
516.682	4.43
516.882	4.45
517.083	4.49
517.284	4.51
517.485	4.53
517.686	4.58
517.886	4.61
518.087	4.59
518.288	4.59
518.488	4.57
518.689	4.57
518.89	4.55
519.091	4.62
519.291	4.6
519.492	4.64
519.692	4.66
519.893	4.68
520.094	4.64
520.294	4.66
520.495	4.63
520.695	4.65
520.896	4.67
521.096	4.74
521.297	4.78
521.497	4.81
521.698	4.77
521.898	4.74
522.099	4.71
522.299	4.68
522.499	4.65
522.7	4.74
522.9	4.78
523.101	4.75
523.301	4.77
523.501	4.8
523.702	4.75
523.902	4.77
524.102	4.88
524.302	4.91
524.503	4.92
524.703	4.92
524.903	4.88
525.103	4.84
525.304	4.84
525.504	4.89
525.704	4.88
525.904	4.9
526.104	4.9
526.304	4.92
526.504	4.94
526.705	5.01
526.905	5.05
527.105	5.05
527.305	5.01
527.505	4.96
527.705	4.92
527.905	4.96
528.105	4.95
528.305	4.99
528.505	5
528.705	5.07
528.905	5.05
529.105	5.06
529.304	5.08
529.504	5.1
529.704	5.07
529.904	5.06
530.104	5.11
530.304	5.13
530.503	5.16
530.703	5.19
530.903	5.18
531.103	5.25
531.303	5.24
531.502	5.28
531.702	5.31
531.902	5.4
532.101	5.34
532.301	5.37
532.501	5.39
532.7	5.42
532.9	5.43
533.1	5.45
533.299	5.47
533.499	5.46
533.698	5.41
533.898	5.45
534.097	5.47
534.297	5.46
534.496	5.46
534.696	5.54
534.895	5.53
535.095	5.61
535.294	5.62
535.494	5.64
535.693	5.66
535.892	5.63
536.092	5.61
536.291	5.62
536.491	5.66
536.69	5.65
536.889	5.68
537.088	5.68
537.288	5.75
537.487	5.77
537.686	5.77
537.886	5.76
538.085	5.76
538.284	5.78
538.483	5.79
538.682	5.81
538.882	5.87
539.081	5.96
539.28	5.94
539.479	5.92
539.678	5.94
539.877	6
540.076	6
540.275	6.03
540.474	6.04
540.673	6.09
540.872	6.06
541.071	6.1
541.27	6.11
541.469	6.13
541.668	6.17
541.867	6.21
542.066	6.23
542.265	6.32
542.464	6.34
542.663	6.37
542.862	6.45
543.06	6.46
543.259	6.52
543.458	6.62
543.657	6.66
543.856	6.64
544.054	6.65
544.253	6.62
544.452	6.71
544.651	6.71
544.849	6.77
545.048	6.81
545.247	6.87
545.445	6.81
545.644	6.84
545.843	6.85
546.041	6.87
546.24	6.86
546.438	6.93
546.637	6.93
546.836	7.05
547.034	7.13
547.233	7.19
547.431	7.21
547.63	7.29
547.828	7.26
548.027	7.28
548.225	7.29
548.423	7.39
548.622	7.43
548.82	7.42
549.019	7.47
549.217	7.56
549.415	7.53
549.614	7.61
549.812	7.72
550.01	7.72
550.209	7.8
550.407	7.87
550.605	7.81
550.803	7.88
551.002	8.02
551.2	7.98
551.398	8.12
551.596	8.25
551.794	8.3
551.993	8.29
552.191	8.42
552.389	8.4
552.587	8.47
552.785	8.48
552.983	8.55
553.181	8.6
553.379	8.68
553.577	8.78
553.775	8.92
553.973	8.97
554.171	9.04
554.369	9.11
554.567	9.14
554.765	9.19
554.963	9.24
555.161	9.3
555.359	9.38
555.557	9.43
555.755	9.48
555.952	9.59
556.15	9.65
556.348	9.7
556.546	9.86
556.744	9.87
556.941	9.92
557.139	10.04
557.337	10.13
557.535	10.07
557.732	10.16
557.93	10.27
558.128	10.29
558.325	10.34
558.523	10.46
558.721	10.6
558.918	10.7
559.116	10.83
559.313	10.91
559.511	11.03
559.708	11.05
559.906	11.07
560.104	11.12
560.301	11.25
560.498	11.35
560.696	11.45
560.893	11.59
561.091	11.69
561.288	11.79
561.486	11.77
561.683	11.89
561.88	11.97
562.078	11.99
562.275	12.03
562.473	12.11
562.67	12.14
562.867	12.13
563.064	12.29
563.262	12.32
563.459	12.48
563.656	12.65
563.853	12.77
564.051	12.86
564.248	13
564.445	13.03
564.642	13.05
564.839	13.06
565.036	13.12
565.234	13.22
565.431	13.3
565.628	13.39
565.825	13.49
566.022	13.59
566.219	13.68
566.416	13.85
566.613	13.97
566.81	14.08
567.007	14.15
567.204	14.15
567.401	14.13
567.598	14.17
567.795	14.18
567.991	14.23
568.188	14.34
568.385	14.37
568.582	14.51
568.779	14.63
568.976	14.68
569.172	14.77
569.369	14.86
569.566	14.85
569.763	14.87
569.96	14.96
570.156	15.08
570.353	15.16
570.55	15.18
570.746	15.37
570.943	15.45
571.14	15.37
571.336	15.44
571.533	15.6
571.729	15.58
571.926	15.64
572.123	15.78
572.319	15.83
572.516	15.78
572.712	15.76
572.909	15.69
573.105	15.76
573.302	15.8
573.498	15.87
573.695	15.92
573.891	15.95
574.087	15.87
574.284	15.93
574.48	15.96
574.677	16.07
574.873	16.16
575.069	16.25
575.266	16.25
575.462	16.25
575.658	16.3
575.854	16.36
576.051	16.4
576.247	16.43
576.443	16.47
576.639	16.35
576.835	16.29
577.032	16.24
577.228	16.27
577.424	16.28
577.62	16.38
577.816	16.39
578.012	16.46
578.208	16.48
578.404	16.5
578.6	16.54
578.796	16.62
578.993	16.61
579.189	16.61
579.384	16.58
579.58	16.5
579.776	16.43
579.972	16.51
580.168	16.48
580.364	16.55
580.56	16.55
580.756	16.51
580.952	16.43
581.148	16.5
581.343	16.49
581.539	16.59
581.735	16.67
581.931	16.58
582.127	16.51
582.322	16.55
582.518	16.49
582.714	16.48
582.909	16.64
583.105	16.66
583.301	16.61
583.496	16.57
583.692	16.51
583.888	16.44
584.083	16.5
584.279	16.47
584.474	16.53
584.67	16.54
584.866	16.5
585.061	16.42
585.257	16.5
585.452	16.42
585.648	16.44
585.843	16.49
586.039	16.49
586.234	16.48
586.429	16.52
586.625	16.54
586.82	16.51
587.015	16.54
587.211	16.47
587.406	16.47
587.601	16.53
587.797	16.51
587.992	16.5
588.187	16.57
588.383	16.65
588.578	16.65
588.773	16.72
588.968	16.75
589.163	16.76
589.359	16.68
589.554	16.7
589.749	16.68
589.944	16.82
590.139	16.82
590.334	16.9
590.529	16.92
590.724	17.06
590.919	17.03
591.114	17.08
591.309	17.11
591.504	17.09
591.699	17
591.894	16.95
592.089	16.98
592.284	17.09
592.479	17.15
592.674	17.17
592.869	17.21
593.064	17.3
593.259	17.32
593.454	17.31
593.648	17.28
593.843	17.44
594.038	17.42
594.233	17.4
594.428	17.55
594.622	17.75
594.817	17.83
595.012	17.84
595.206	17.98
595.401	18.03
595.596	18
595.79	17.95
595.985	18.01
596.18	18.1
596.374	18.16
596.569	18.28
596.763	18.36
596.958	18.53
597.153	18.5
597.347	18.55
597.542	18.61
597.736	18.69
597.931	18.68
598.125	18.82
598.319	18.9
598.514	18.94
598.708	19
598.903	19.08
599.097	19.11
599.291	19.07
599.486	19.13
599.68	19.2
599.874	19.29
600.069	19.33
600.263	19.48
600.457	19.59
600.651	19.61
600.846	19.57
601.04	19.61
601.234	19.6
601.428	19.62
601.622	19.66
601.817	19.64
602.011	19.66
602.205	19.68
602.399	19.63
602.593	19.67
602.787	19.66
602.981	19.61
603.175	19.67
603.369	19.66
603.563	19.67
603.757	19.73
603.951	19.78
604.145	19.72
604.339	19.84
604.533	19.83
604.727	19.83
604.921	19.89
605.115	19.86
605.309	19.73
605.502	19.75
605.696	19.73
605.89	19.71
606.084	19.67
606.278	19.74
606.471	19.71
606.665	19.67
606.859	19.6
607.053	19.56
607.246	19.51
607.44	19.42
607.634	19.39
607.827	19.34
608.021	19.26
608.214	19.2
608.408	19.14
608.602	19.01
608.795	19.02
608.989	19.05
609.182	19.04
609.376	18.98
609.569	19.02
609.763	18.85
609.956	18.83
610.15	18.68
610.343	18.67
610.537	18.71
610.73	18.63
610.923	18.5
611.117	18.51
611.31	18.41
611.504	18.28
611.697	18.31
611.89	18.3
612.083	18.13
612.277	18.08
612.47	17.99
612.663	17.9
612.856	17.77
613.05	17.83
613.243	17.74
613.436	17.71
613.629	17.6
613.822	17.62
614.015	17.47
614.209	17.41
614.402	17.23
614.595	17.23
614.788	17.15
614.981	17.12
615.174	17.12
615.367	17.11
615.56	16.99
615.753	16.98
615.946	16.92
616.139	16.84
616.332	16.79
616.525	16.78
616.718	16.71
616.911	16.67
617.103	16.66
617.296	16.59
617.489	16.57
617.682	16.64
617.875	16.62
618.067	16.47
618.26	16.48
618.453	16.44
618.646	16.39
618.838	16.36
619.031	16.36
619.224	16.34
619.417	16.31
619.609	16.16
619.802	16.16
619.994	16.18
620.187	16.07
620.38	16.05
620.572	16.03
620.765	15.91
620.957	15.81
621.15	15.78
621.342	15.73
621.535	15.71
621.727	15.7
621.92	15.76
622.112	15.8
622.305	15.81
622.497	15.77
622.69	15.75
622.882	15.72
623.074	15.71
623.267	15.59
623.459	15.59
623.651	15.61
623.844	15.55
624.036	15.53
624.228	15.55
624.42	15.49
624.613	15.48
624.805	15.51
624.997	15.43
625.189	15.4
625.381	15.41
625.574	15.33
625.766	15.24
625.958	15.27
626.15	15.32
626.342	15.28
626.534	15.31
626.726	15.36
626.918	15.33
627.11	15.23
627.302	15.19
627.494	15.14
627.686	15.13
627.878	15.08
628.07	15.11
628.262	15.15
628.454	15.17
628.646	15.06
628.838	15.14
629.029	15.03
629.221	14.98
629.413	14.94
629.605	14.9
629.797	14.84
629.989	14.89
630.18	14.88
630.372	14.88
630.564	14.94
630.755	14.94
630.947	14.84
631.139	14.78
631.33	14.69
631.522	14.64
631.714	14.61
631.905	14.57
632.097	14.56
632.289	14.53
632.48	14.45
632.672	14.35
632.863	14.31
633.055	14.3
633.246	14.32
633.438	14.34
633.629	14.37
633.821	14.37
634.012	14.29
634.203	14.29
634.395	14.31
634.586	14.27
634.777	14.34
634.969	14.42
635.16	14.31
635.351	14.27
635.543	14.25
635.734	14.15
635.925	14.21
636.117	14.27
636.308	14.25
636.499	14.28
636.69	14.26
636.881	14.19
637.073	14.24
637.264	14.18
637.455	14.1
637.646	14.22
637.837	14.15
638.028	14.07
638.219	14.22
638.41	14.33
638.601	14.3
638.792	14.38
638.983	14.47
639.174	14.27
639.365	14.23
639.556	14.1
639.747	14.01
639.938	13.96
640.129	14.04
640.32	13.97
640.511	14.1
640.701	14.21
640.892	14.13
641.083	14.08
641.274	14.08
641.465	13.95
641.655	13.81
641.846	13.76
642.037	13.73
642.228	13.65
642.418	13.59
642.609	13.6
642.8	13.51
642.99	13.53
643.181	13.63
643.372	13.65
643.562	13.62
643.753	13.74
643.943	13.69
644.134	13.57
644.324	13.58
644.515	13.51
644.705	13.43
644.896	13.5
645.086	13.48
645.277	13.41
645.467	13.47
645.658	13.4
645.848	13.3
646.038	13.28
646.229	13.33
646.419	13.25
646.61	13.34
646.8	13.37
646.99	13.39
647.18	13.34
647.371	13.37
647.561	13.25
647.751	13.16
647.941	13.16
648.132	13.19
648.322	13.09
648.512	13.12
648.702	13.18
648.892	13.19
649.082	13.12
649.272	13.07
649.462	13.11
649.653	12.9
649.843	12.82
650.033	12.77
650.223	12.79
650.413	12.73
650.603	12.88
650.793	12.91
650.983	12.84
651.172	12.87
651.362	12.75
651.552	12.62
651.742	12.44
651.932	12.41
652.122	12.35
652.312	12.31
652.502	12.32
652.691	12.38
652.881	12.32
653.071	12.27
653.261	12.23
653.45	12.14
653.64	12.05
653.83	12.05
654.019	11.78
654.209	11.73
654.399	11.65
654.588	11.52
654.778	11.33
654.968	11.39
655.157	11.27
655.347	11.08
655.536	10.99
655.726	10.88
655.915	10.73
656.105	10.67
656.294	10.58
656.484	10.4
656.673	10.34
656.863	10.32
657.052	10.12
657.241	10.05
657.431	10.02
657.62	9.94
657.809	9.78
657.999	9.78
658.188	9.62
658.377	9.47
658.567	9.34
658.756	9.17
658.945	8.98
659.134	8.83
659.324	8.72
659.513	8.6
659.702	8.45
659.891	8.36
660.08	8.31
660.269	8.13
660.458	7.96
660.648	7.87
660.837	7.71
661.026	7.59
661.215	7.59
661.404	7.49
661.593	7.53
661.782	7.47
661.971	7.26
662.16	7.19
662.349	7.03
662.538	6.79
662.726	6.77
662.915	6.9
663.104	6.74
663.293	6.76
663.482	6.72
663.671	6.55
663.86	6.32
664.048	6.26
664.237	6.22
664.426	6.2
664.615	6.12
664.803	6.04
664.992	5.96
665.181	5.85
665.369	5.67
665.558	5.71
665.747	5.75
665.935	5.77
666.124	5.84
666.312	5.83
666.501	5.78
666.69	5.67
666.878	5.64
667.067	5.55
667.255	5.62
667.444	5.64
667.632	5.69
667.82	5.64
668.009	5.55
668.197	5.51
668.386	5.46
668.574	5.45
668.762	5.54
668.951	5.58
669.139	5.52
669.327	5.48
669.516	5.47
669.704	5.38
669.892	5.44
670.08	5.49
670.269	5.47
670.457	5.45
670.645	5.35
670.833	5.44
671.021	5.55
671.21	5.64
671.398	5.73
671.586	5.86
671.774	5.88
671.962	5.82
672.15	5.92
672.338	5.95
672.526	6.04
672.714	6
672.902	6.01
673.09	6.05
673.278	6.12
673.466	6.26
673.654	6.34
673.842	6.5
674.03	6.63
674.218	6.69
674.405	6.68
674.593	6.82
674.781	6.9
674.969	6.94
675.157	7.16
675.344	7.15
675.532	7.07
675.72	7.08
675.908	6.99
676.095	6.96
676.283	7.21
676.471	7.34
676.658	7.46
676.846	7.57
677.033	7.49
677.221	7.45
677.409	7.52
677.596	7.52
677.784	7.64
677.971	7.7
678.159	7.78
678.346	7.87
678.534	7.93
678.721	8.07
678.909	8.33
679.096	8.37
679.283	8.53
679.471	8.6
679.658	8.58
679.846	8.56
680.033	8.77
680.22	8.77
680.408	8.87
680.595	9.04
680.782	9.11
680.969	9.21
681.157	9.35
681.344	9.36
681.531	9.57
681.718	9.76
681.905	9.85
682.093	10.01
682.28	10.38
682.467	10.45
682.654	10.52
682.841	10.7
683.028	10.77
683.215	10.85
683.402	10.95
683.589	11.2
683.776	11.24
683.963	11.45
684.15	11.54
684.337	11.69
684.524	11.96
684.711	12.28
684.898	12.49
685.085	12.7
685.271	13.05
685.458	13.12
685.645	13.25
685.832	13.48
686.019	13.79
686.205	13.92
686.392	14.33
686.579	14.62
686.766	14.9
686.952	15.18
687.139	15.52
687.326	15.77
687.512	15.89
687.699	16.22
687.886	16.53
688.072	16.84
688.259	17.14
688.445	17.76
688.632	18.13
688.818	18.53
689.005	18.87
689.191	19.28
689.378	19.6
689.564	20.04
689.751	20.38
689.937	21.02
690.124	21.49
690.31	21.97
690.496	22.33
690.683	22.9
690.869	23.17
691.055	23.57
691.242	24
691.428	24.6
691.614	25.2
691.8	25.75
691.987	26.41
692.173	27.01
692.359	27.64
692.545	28.15
692.731	28.71
692.918	28.96
693.104	29.35
693.29	29.76
693.476	30.15
693.662	30.52
693.848	31.23
694.034	31.93
694.22	32.55
694.406	33.03
694.592	33.8
694.778	34.31
694.964	34.91
695.15	35.35
695.336	35.96
695.522	36.35
695.708	37.02
695.894	37.44
696.08	37.95
696.265	38.44
696.451	38.83
696.637	39.33
696.823	39.79
697.009	40.31
697.194	40.88
697.38	41.48
697.566	41.86
697.751	42.35
697.937	43.1
698.123	43.56
698.308	44.04
698.494	44.61
698.68	45.19
698.865	45.34
699.051	45.75
699.236	46.04
699.422	46.44
699.607	46.73
699.793	47.22
699.978	47.23
700.164	47.6
700.349	48.03
700.535	48.21
700.72	48.37
700.906	49.1
701.091	49.38
701.276	49.54
701.462	49.83
701.647	50.31
701.832	50.45
702.018	51.01
702.203	51.49
702.388	52.02
702.573	51.97
702.759	52.32
702.944	52.38
703.129	52.17
703.314	52.31
703.499	52.83
703.684	53.52
703.87	54.01
704.055	54.71
704.24	55.13
704.425	55.39
704.61	54.94
704.795	55.26
704.98	55.12
705.165	55.07
705.35	55.24
705.535	55.69
705.72	55.91
705.905	56.47
706.09	56.98
706.275	57.05
706.459	57.24
706.644	57.2
706.829	57.19
707.014	57.53
707.199	57.77
707.384	57.95
707.568	57.93
707.753	58.24
707.938	58.33
708.123	58.5
708.307	58.81
708.492	59.38
708.677	59.34
708.861	59.22
709.046	58.99
709.231	58.8
709.415	58.7
709.6	58.86
709.784	59.2
709.969	59.72
710.153	60.02
710.338	60.19
710.522	60.19
710.707	60.12
710.891	60.03
711.076	59.94
711.26	60.19
711.445	60.48
711.629	60.72
711.813	61.06
711.998	61.25
712.182	60.93
712.366	61.49
712.551	61.82
712.735	62.13
712.919	62.59
713.103	62.96
713.288	62.88
713.472	62.58
713.656	62.44
713.84	62.76
714.024	63.19
714.208	62.86
714.393	63.12
714.577	63.71
714.761	63.49
714.945	63.68
715.129	63.8
715.313	63.92
715.497	63.64
715.681	63.75
715.865	63.67
716.049	63.93
716.233	63.83
716.417	64.14
716.601	64.53
716.785	64.47
716.968	64.7
717.152	65.41
717.336	65.5
717.52	65.23
717.704	65.76
717.888	66.15
718.071	65.51
718.255	65.82
718.439	66.13
718.622	66.1
718.806	65.69
718.99	66.31
719.174	66.34
719.357	66.5
719.541	66.83
719.724	67.24
719.908	67.06
720.092	67.19
720.275	67.55
720.459	67.58
720.642	67.51
720.826	67.6
721.009	67.24
721.193	67.1
721.376	67.22
721.559	67.55
721.743	68.23
721.926	68.8
722.11	69.2
722.293	69.3
722.476	69.11
722.66	69.55
722.843	69.85
723.026	69.93
723.21	70.06
723.393	71.29
723.576	71.43
723.759	71.55
723.942	71.49
724.126	71.45
724.309	71.02
724.492	70.8
724.675	70.7
724.858	71.21
725.041	71.78
725.224	72.11
725.407	72.29
725.59	72.48
725.774	72.79
725.957	72.76
726.14	72.73
726.322	73.01
726.505	73.27
726.688	73.28
726.871	73.48
727.054	74.11
727.237	74.08
727.42	74.35
727.603	74.2
727.786	74.66
727.968	74.36
728.151	74.55
728.334	74.98
728.517	75.38
728.699	75.38
728.882	75.09
729.065	74.97
729.248	74.86
729.43	75.17
729.613	75.2
729.796	76.36
729.978	76.63
730.161	76.59
730.343	76.53
730.526	77.21
730.708	76.79
730.891	77.07
731.073	77.4
731.256	77.72
731.438	78.23
731.621	78.48
731.803	78.62
731.986	78.92
732.168	79.16
732.35	78.4
732.533	78.35
732.715	78.75
732.898	78.81
733.08	78.49
733.262	78.66
733.444	79
733.627	78.64
733.809	78.85
733.991	79.26
734.173	79.23
734.355	79.44
734.538	80.15
734.72	80.47
734.902	80.87
735.084	80.88
735.266	81.76
735.448	82.25
735.63	82.2
735.812	82.18
735.994	82.63
736.176	82.32
736.358	82.6
736.54	82.76
736.722	82.42
736.904	82.69
737.086	82.41
737.268	82.59
737.45	82.95
737.632	84.1
737.814	84.39
737.995	84.27
738.177	83.95
738.359	83.37
738.541	83.11
738.723	83.05
738.904	83.6
739.086	84
739.268	84.69
739.449	84.14
739.631	84.09
739.813	83.42
739.994	82.68
740.176	82.36
740.358	83.02
740.539	82.74
740.721	83.43
740.902	83.98
741.084	84.49
741.265	84.03
741.447	85.03
741.628	84.99
741.81	85.11
741.991	85.06
742.172	85.2
742.354	84.75
742.535	85.16
742.717	84.01
742.898	83.94
743.079	83.9
743.261	82.62
743.442	81.56
743.623	82.74
743.804	82.53
743.986	83.04
744.167	84.07
744.348	83.92
744.529	83.85
744.71	83.66
744.891	83.84
745.073	83.75
745.254	84.47
745.435	84.8
745.616	84.81
745.797	83.82
745.978	84.33
746.159	84.5
746.34	84.04
746.521	84.87
746.702	86.05
746.883	86.3
747.064	86.27
747.245	86.26
747.426	85.78
747.606	85.09
747.787	84.58
747.968	84.74
748.149	83.88
748.33	82.72
748.51	81.77
748.691	81.97
748.872	82.54
749.053	82.78
749.233	83.54
749.414	84.71
749.595	84.71
749.775	84.3
749.956	85.24
750.137	85.69
750.317	85.68
750.498	85.52
750.678	85.26
750.859	85.63
751.04	85.66
751.22	84.48
751.4	84.61
751.581	85.67
751.761	85.85
751.942	85.97
752.122	86.39
752.303	86.84
752.483	85.59
752.663	84.2
752.844	83.41
753.024	85.31
753.204	85.51
753.385	85.02
753.565	85.08
753.745	85.54
753.925	83.88
754.106	83.96
754.286	84.32
754.466	84.75
754.646	84.69
754.826	85.75
755.006	84.88
755.187	85.85
755.367	85.48
755.547	85.89
755.727	86.32
755.907	86.56
756.087	86.37
756.267	85.93
756.447	86.28
756.627	85.86
756.807	88.84
756.987	88.39
757.167	89.75
757.346	88.81
757.526	88.25
757.706	85.25
757.886	85.08
758.066	85.74
758.246	84.78
758.425	83.06
758.605	83.24
758.785	83.76
758.965	83.13
759.144	82.84
759.324	85.39
759.504	86.28
759.683	85.34
759.863	85.84
760.043	86.63
760.222	85.31
760.402	82.84
760.581	83.98
760.761	83.57
760.94	84.32
761.12	85.85
761.299	87.72
761.479	87
761.658	85.29
761.838	85.16
762.017	84.56
762.197	83.17
762.376	83.34
762.555	83.91
762.735	84.79
762.914	83.44
763.093	83.7
763.273	83.03
763.452	83.08
763.631	82.03
763.81	82.94
763.99	82.21
764.169	82.69
764.348	81.8
764.527	82.35
764.706	81.58
764.885	83.52
765.064	84.08
765.243	84.94
765.423	84.26
765.602	84.98
765.781	82.61
765.96	82.86
766.139	82.57
766.318	83.45
766.497	82.48
766.676	81.88
766.854	81.15
767.033	82.11
767.212	83.27
767.391	84.15
767.57	87.18
767.749	86.98
767.928	87.04
768.106	84.42
768.285	84.07
768.464	84
768.643	83.31
768.821	83.6
769	84.21
769.179	83.6
769.357	83.24
769.536	82.08
769.715	80.23
769.893	81.67
770.072	80.66
770.25	79.37
770.429	80.95
770.607	82.7
770.786	81.21
770.964	82.9
771.143	83.1
771.321	81.97
771.5	81.56
771.678	80.68
771.857	80.74
772.035	82.31
772.213	82.98
772.392	82.23
772.57	82.35
772.748	80.65
772.927	77.81
773.105	79.99
773.283	79.96
773.461	82.13
773.64	82.73
773.818	84.27
773.996	85.38
774.174	85.43
774.352	83.43
774.531	83.18
774.709	82.72
774.887	79.12
775.065	78.7
775.243	80.34
775.421	80.96
775.599	83.57
775.777	82.22
775.955	81.59
776.133	80.86
776.311	80.17
776.489	78.88
776.667	80.07
776.844	81.05
777.022	80.55
777.2	81.61
777.378	80
777.556	82.31
777.734	83.5
777.911	84.36
778.089	86.73
778.267	88.79
778.445	90.15
778.622	89.22
778.8	85.57
778.978	83.61
779.155	84.61
779.333	82.59
779.511	82.5
779.688	85.62
779.866	84.92
780.043	83.61
780.221	84.12
780.398	83.49
780.576	84.8
780.753	83.64
780.931	83.72
781.108	84.01
781.286	85.83
781.463	82.59
781.64	84.44
781.818	86.8
781.995	86.46
782.172	82.85
782.35	83.35
782.527	83.43
782.704	78.61
782.882	75.62
783.059	78.97
783.236	82.5
783.413	82.32
783.59	85.29
783.768	86.07
783.945	85.32
784.122	81.56
784.299	81.62
784.476	79.26
784.653	79.9
784.83	76.26
785.007	77.72
785.184	75.53
785.361	76.66
785.538	74.19
785.715	78.28
785.892	76.59
786.069	77.57
786.246	77.56
786.423	77.93
786.6	77.61
786.776	79.11
786.953	77.63
787.13	78.09
787.307	82.63
787.484	78.41
787.66	76.84
787.837	78.26
788.014	78.99
788.191	76.43
788.367	75.47
788.544	76.91
788.721	75.71
788.897	74.48
789.074	75.78
789.25	78.29
789.427	80.73
789.603	81.76
789.78	82.02
789.956	78.32
790.133	78.39
790.309	76.07
790.486	78.15
790.662	76.33
790.839	77.65
791.015	82.11
791.192	79.2
791.368	79.46
791.544	83.87
791.721	83.81
791.897	77.55
792.073	76.23
792.249	73.21
792.426	70.38
792.602	71.51
792.778	69.38
792.954	73.3
793.13	74.94
793.307	73.26
793.483	72.42
793.659	76.76
793.835	80.17
794.011	83.45
794.187	84.83
794.363	84.07
794.539	87.19
794.715	81.7
794.891	79.39
795.067	80.24
795.243	81.98
795.419	80.56
795.595	83.02
795.771	79.45
795.947	76.59
796.122	71.61
796.298	71.77
796.474	80.02
796.65	79.01
796.826	76.87
797.001	79.36
797.177	70.53
797.353	66.09
797.529	69.29
797.704	73.72
797.88	74.94
798.056	84.52
798.231	81.66
798.407	82.99
798.582	82.5
798.758	81.23
798.934	77.67
799.109	77.98
799.285	74.67
799.46	72.03
799.636	75.45
799.811	79.75
799.986	76.08
800.162	73.43
800.337	75.77
800.513	72.48
800.688	66.6
800.863	77.9
801.039	82.36
801.214	80.27
801.389	79.85
801.565	85.23
801.74	76.6
801.915	76.42
802.09	75.75
802.265	78.75
802.441	74.44
802.616	76.78
802.791	75.31
802.966	74.87
803.141	71.21
803.316	70.64
803.491	69.75
803.666	71.82
803.841	76.13
804.016	73.09
804.191	78.92
804.366	73.61
804.541	73.87
804.716	72
804.891	81.28
805.066	77.57
805.241	76.95
805.416	76.9
805.591	80.14
805.765	81.1
805.94	75.78
806.115	71.6
806.29	70.64
806.464	66.87
806.639	62.03
806.814	67.37
806.989	76.69
807.163	86.19
807.338	86.76
807.512	83.62
807.687	77.3
807.862	79.75
808.036	76.05
808.211	85.14
808.385	85.76
808.56	90.42
808.734	82.1
808.909	78.98
809.083	74.85
809.258	81.96
809.432	86.21
809.606	94.43
809.781	90.21
809.955	90.65
810.13	80.82
810.304	75.94
810.478	73.78
810.652	75.19
810.827	75.45
811.001	79.22
811.175	75.49
811.349	74.71
811.524	79.92
811.698	69.79
811.872	76.04
812.046	77.09
812.22	79.17
812.394	70.5
812.568	80.4
812.742	71.3
812.916	77.36
813.09	72.09
813.264	73.15
813.438	69.5
813.612	66.22
813.786	58.11
813.96	68.6
814.134	65.81
814.308	70.55
814.482	75.59
814.656	76.94
814.83	74.88
815.003	84.16
815.177	74.84
815.351	79.89
815.525	93.07
815.698	83.37
815.872	71.36
816.046	71.5
816.219	74.29
816.393	72.46
816.567	74.97
816.74	79.71
816.914	87.25
817.088	73.49
817.261	70.42
817.435	75.77
817.608	72.76
817.782	58.57
817.955	71.32
818.129	75.62
818.302	76.94
818.475	83.25
818.649	95.59
818.822	87.32
818.996	93.29
819.169	90.83
819.342	88.05
819.516	83.42
819.689	89.27
819.862	81.58
820.035	77.61
820.209	68.6
820.382	62.3
820.555	55.22
820.728	49.56
820.901	36.24
821.075	45.38
821.248	65.44
821.421	70.47
821.594	74.36
821.767	99.54
821.94	88.97
822.113	79.7
822.286	78.54
822.459	80.32
822.632	77.93
822.805	81.97
822.978	79.63
823.151	81.9
823.324	72.98
823.496	66.07
823.669	77.64
823.842	88.75
824.015	84.26
824.188	92.1
824.361	88.36
824.533	70.05
824.706	66.09
824.879	70.64
825.051	78.72
825.224	87.54
825.397	82.07
825.569	70.23
825.742	73.64
825.915	63.15
826.087	53.8
826.26	61.09
826.432	59.26
826.605	56.85
826.777	66.62
826.95	67.57
827.122	63.06
827.295	93.45
827.467	89.39
827.64	71.73
827.812	73.83
827.984	85.08
828.157	61.44
828.329	74.44
828.501	69.25
828.674	70.85
828.846	64.09
829.018	70.67
829.19	58.68
829.363	57.49
829.535	61.01
829.707	71.99
829.879	60.53
830.051	62.39
830.223	68.37
830.395	59.77
830.568	52.69
830.74	51.88
830.912	61.53
831.084	59.17
831.256	54.19
831.428	61.3
831.6	63.36
831.772	53.65
831.943	58
832.115	80.87
832.287	63.54
832.459	61.07
832.631	66.04
832.803	69.83
832.975	63.38
833.146	59.65
833.318	52.17
833.49	55.45
833.662	61.81
833.833	60.84
834.005	61.86
834.177	80.77
834.348	73.47
834.52	56.35
834.692	43.55
834.863	50.12
835.035	55.67
835.206	53.9
835.378	60.1
835.549	73.37
835.721	71.13
835.892	54.81
836.064	59.77
836.235	58.87
836.407	50.12
836.578	45.2
836.749	44.51
836.921	30
837.092	23.67
837.264	25.2
837.435	15.05
837.606	35.73
837.777	48.99
837.949	56.38
838.12	57.2
838.291	78.42
838.462	80.44
838.633	75.95
838.805	62.31
838.976	59.18
839.147	47.69
839.318	33.58
839.489	17.35
839.66	52.72
839.831	57.74
840.002	43.18
840.173	42.58
840.344	46.06
840.515	29.36
840.686	25.92
840.857	33.52
841.028	30.43
841.199	31.92
841.369	34.8
841.54	36.47
841.711	80.39
841.882	98.37
842.053	90.94
842.223	88.92
842.394	76.83
842.565	45.83
842.736	48.77
842.906	39.89
843.077	61.48
843.248	79.15
843.418	74.11
843.589	74.56
843.759	102.88
843.93	94.61
844.101	67.32
844.271	103.34
844.442	83.38
844.612	76.18
844.783	74.25
844.953	77.51
845.123	56.18
845.294	74.14
845.464	55.83
845.635	41.66
845.805	84.82
845.975	101.3
846.146	53.72
846.316	41.88
846.486	71.45
846.656	41.93
846.827	31.53
846.997	56.84
847.167	65.84
847.337	46.57
847.507	55.62
847.677	62.29
847.848	66.67
848.018	80.72
848.188	89.69
848.358	76.06
848.528	77.46
848.698	53.81
848.868	40.7
849.038	19.75
849.208	22.85
849.378	22.17
849.548	11.47
849.718	19.16
849.887	49.94
850.057	79.3
850.227	112.53
850.397	101.68
850.567	81.49
850.737	90.3
850.906	59.38
851.076	29.46
851.246	59.99
851.415	44.29
851.585	42.78
851.755	67.72
851.924	92.34
852.094	95.73
852.264	83.6
852.433	63.76
852.603	58.55
852.772	42.41
852.942	30
853.111	40.5
853.281	62.53
853.45	66.23
853.62	78.07
853.789	79.4
853.959	83.47
854.128	72.37
854.297	74.63
854.467	61.32
854.636	73.7
854.805	67.32
854.975	58.84
855.144	49.72
855.313	65.61
855.482	32.5
855.652	40.76
855.821	48.62
855.99	71.45
856.159	65.88
856.328	68.79
856.497	51.01
856.667	41.23
856.836	33.21
857.005	10.46
857.174	13.74
857.343	-4.13
857.512	13.89
857.681	7.02
857.85	23.44
858.019	48.09
858.188	86.99
858.356	64.1
858.525	52.75
858.694	62.93
858.863	51.41
859.032	37.77
859.201	34.25
859.369	36.17
859.538	31.57
859.707	33.84
859.876	66.12
860.044	84.01
860.213	104.14
860.382	110.3
860.55	89.77
860.719	90.62
860.888	73.04
861.056	39.45
861.225	46.23
861.393	94.23
861.562	92.51
861.73	81.36
861.899	68.4
862.067	50.44
862.236	20.78
862.404	26.88
862.572	25.05
862.741	36.48
862.909	35.91
863.078	28.65
863.246	-7.25
863.414	8.7
863.582	15.86
863.751	42.72
863.919	47.47
864.087	82.3
864.255	123.56
864.424	134.88
864.592	94.98
864.76	105.96
864.928	115.15
865.096	95.54
865.264	92.25
865.432	85.88
865.6	118.45
865.768	97.83
865.936	68.46
866.104	58.24
866.272	77.87
866.44	11.3
866.608	12.4
866.776	38.68
866.944	52.02
867.112	45.25
867.28	49.97
867.448	56.52
867.615	62.12
867.783	57.88
867.951	53
868.119	85.47
868.286	78.78
868.454	43.15
868.622	47.16
868.789	63.22
868.957	62.72
869.125	74.8
869.292	66.04
869.46	54.66
869.627	75.88
869.795	59.59
869.963	74.22
870.13	102.83
870.298	114.12
870.465	86.15
870.632	73.37
870.8	62.21
870.967	57.61
871.135	35.17
871.302	17.09
871.469	28.43
871.637	38.18
871.804	48.38
871.971	57.96
872.139	73.45
872.306	62.99
872.473	44.28
872.64	-51.98
872.807	-49.66
872.975	-193.17
873.142	-7.36
873.309	9.01
873.476	66.94
873.643	94.15
873.81	85.61
873.977	58.99
874.144	72.36
874.311	29.05
874.478	-5.78
874.645	-27.33
874.812	50.51
874.979	30.2
875.146	62.8
875.313	69.53
875.48	104.53
875.647	100.55
875.813	65.96
875.98	43.73
876.147	-12.73
876.314	-16.8
876.481	-21.28
876.647	28.44
876.814	33.8
876.981	77.9
877.147	80.48
877.314	69.34
877.481	93.31
877.647	111.7
877.814	83.91
877.98	103.4
878.147	122.03
878.314	141.58
878.48	144.23
878.647	125.31
878.813	126.45
878.979	103.36
879.146	94.97
879.312	101.83
879.479	95.95
879.645	72.34
879.811	68.06
879.978	52.95
880.144	52.23
880.31	49.09
880.477	66.08
880.643	58.6
880.809	40.77
880.975	39.37
881.142	21.17
881.308	241.59
881.474	173.66
881.64	70.13
881.806	61.8
881.972	76.23
882.138	71.53
882.304	96.04
882.47	83.64
882.636	60.51
882.802	53.04
882.968	53.92
883.134	11.18
883.3	5.02
883.466	37.65
883.632	38.85
883.798	-5.93
883.964	42.51
884.129	75.55
884.295	-30.92
884.461	-53.39
884.627	-0.66
884.793	-20.76
884.958	28.48
885.124	44.23
885.29	36.25
885.455	63.89
885.621	131.95
885.787	66.52
885.952	18.65
886.118	31.43
886.283	52.06
886.449	20.2
886.614	34.4
886.78	71.23
886.945	133.16
887.111	61.53
887.276	60.76
887.442	82.5
887.607	78.85
887.773	53.25
887.938	48.75
888.103	54.64
888.269	57.58
888.434	51.24
888.599	35.69
888.764	50.97
888.93	51.65
889.095	39.66
889.26	29.64
889.425	65.15
889.59	79.2
889.756	85.82
889.921	78.66
890.086	201.97
890.251	265.32
890.416	144.38
890.581	147.2
890.746	146.65
890.911	85.89
891.076	37.74
891.241	46.45
891.406	38.05
891.571	14.63
891.736	-32.13
891.901	68.54
892.065	75.98
892.23	83.41
892.395	75.73
892.56	64.85
892.725	89.79
892.889	174.31
893.054	114.66
893.219	62.96
893.384	48.35
893.548	-51.99
893.713	-166.56
893.878	-262.83
