Data from Ofra_PS_T2_2A_4HS15_Reflection_1.txt Node
Date: Wed Jul 21 17:13:38 EDT 2021
User: Adam
Spectrometer: FLMT01687
Trigger mode: 0
Integration Time (sec): 1.100000E0
Scans to average: 2
Electric dark correction enabled: true
Nonlinearity correction enabled: false
Boxcar width: 2
XAxis mode: Wavelengths
Number of Pixels in Spectrum: 3648
>>>>>Begin Spectral Data<<<<<
179.494	616
179.716	669.65
179.937	602.02
180.158	516.25
180.38	735.62
180.601	167.96
180.823	62.4
181.044	-27.96
181.265	384.56
181.486	114.48
181.708	131.87
181.929	595.92
182.15	-200
182.372	191.22
182.593	55.05
182.814	34.94
183.035	63.48
183.257	38.61
183.478	-98.51
183.699	-25.61
183.92	-18.87
184.141	17.72
184.363	-20.27
184.584	53.96
184.805	73.2
185.026	88.21
185.247	80.71
185.468	65.03
185.689	61.04
185.91	49.59
186.132	58.09
186.353	50.23
186.574	132.01
186.795	113.97
187.016	66.52
187.237	33.83
187.458	8.01
187.679	-40.95
187.9	-11.94
188.121	6.02
188.342	35.54
188.563	58.96
188.784	97.81
189.005	61.66
189.226	124.19
189.447	111.02
189.667	78.16
189.888	-118.72
190.109	-429.87
190.33	-381.94
190.551	-908.85
190.772	-178.21
190.993	-179.24
191.214	-173.8
191.434	-110.82
191.655	-43.56
191.876	-84.37
192.097	-139.16
192.318	-140.98
192.538	-241.35
192.759	-159.07
192.98	-53.47
193.201	8.13
193.421	-5.3
193.642	6.09
193.863	26.23
194.083	5.79
194.304	-1.62
194.525	16.61
194.745	21.67
194.966	-23.55
195.187	-36.56
195.407	-57.44
195.628	-137.08
195.848	-114.07
196.069	-109.66
196.29	-51.21
196.51	-86.87
196.731	-70.74
196.951	-70.65
197.172	-84.11
197.392	-153.59
197.613	-125.19
197.833	-131.05
198.054	-142.38
198.274	-79.09
198.495	-68.43
198.715	-52.52
198.936	-78.95
199.156	-51.33
199.377	-153.35
199.597	-138.91
199.817	-113.35
200.038	-29.47
200.258	-73.64
200.479	14.75
200.699	32.69
200.919	57.47
201.14	10.28
201.36	-2.53
201.58	21.46
201.801	41.49
202.021	5.82
202.241	12.17
202.461	19.22
202.682	-54.08
202.902	-151.33
203.122	-81.38
203.342	-85.17
203.563	-39.92
203.783	-14.45
204.003	-38.81
204.223	-50.32
204.443	40.46
204.663	6.41
204.884	24.03
205.104	68.14
205.324	112.63
205.544	69.9
205.764	75.81
205.984	70.65
206.204	60.26
206.424	43.11
206.644	18.64
206.864	27.9
207.084	-0.59
207.304	34.89
207.525	-141.88
207.745	-85.74
207.964	-42.77
208.184	-72.77
208.404	-115.95
208.624	-89.22
208.844	-73.11
209.064	-300.92
209.284	-285.49
209.504	-136.4
209.724	-8.56
209.944	-9.44
210.164	12.49
210.384	11.46
210.604	15.89
210.823	-38.76
211.043	-50.76
211.263	-47.94
211.483	-55.95
211.703	-124.55
211.922	-94.13
212.142	-28.47
212.362	10.45
212.582	20.95
212.801	29.51
213.021	23.45
213.241	6.05
213.461	-46.39
213.68	-84.51
213.9	-56.43
214.12	-39.71
214.339	-99.9
214.559	-73.57
214.779	10.16
214.998	22.59
215.218	-16.73
215.438	11.71
215.657	12.94
215.877	-9.6
216.096	8.52
216.316	22.19
216.535	19.38
216.755	22.9
216.974	-37.16
217.194	-87.8
217.413	-96.39
217.633	-85.21
217.852	-212.67
218.072	-57.3
218.291	-15.77
218.511	29.77
218.73	5.67
218.95	12.35
219.169	-8.83
219.389	-47.15
219.608	-48.87
219.827	-26.16
220.047	5.39
220.266	13.34
220.485	10.59
220.705	26.2
220.924	-9.35
221.143	19.74
221.363	-3.56
221.582	15.26
221.801	17.06
222.021	36.91
222.24	-33.66
222.459	69.02
222.678	43.72
222.897	8.86
223.117	-20.61
223.336	-22.47
223.555	-22.01
223.774	8.79
223.993	9.8
224.213	62.05
224.432	75.13
224.651	71.47
224.87	34.5
225.089	41.03
225.308	28.33
225.527	26.86
225.746	9.72
225.965	7.5
226.184	-26.33
226.404	-2.77
226.623	-28.38
226.842	-15.61
227.061	15.46
227.28	28.79
227.499	22.49
227.718	41.12
227.936	38.93
228.155	43.02
228.374	28.77
228.593	11.96
228.812	-7.05
229.031	-19.5
229.25	-62.65
229.469	-57.28
229.688	-31.36
229.907	15.23
230.125	47.66
230.344	46.89
230.563	35.62
230.782	46.85
231.001	-34.06
231.22	-41.84
231.438	-14.75
231.657	17.05
231.876	1.29
232.095	50.65
232.313	65.01
232.532	75.89
232.751	29.65
232.969	29.1
233.188	-18.7
233.407	18.37
233.625	0.38
233.844	-18.84
234.063	-4.85
234.281	21.22
234.5	-6.72
234.719	9.39
234.937	28.11
235.156	23.03
235.374	21.26
235.593	26.79
235.811	9.81
236.03	9.2
236.249	-33.05
236.467	-40.43
236.686	-16.37
236.904	2.2
237.123	-11.35
237.341	-0.78
237.559	3.43
237.778	-4.71
237.996	-28.39
238.215	2.04
238.433	10.99
238.652	27.92
238.87	8.71
239.088	27.85
239.307	16.34
239.525	12.87
239.743	-29.38
239.962	-1.12
240.18	-27.6
240.398	-57.54
240.617	-77.99
240.835	-76.56
241.053	-71.31
241.271	-20
241.49	1.67
241.708	3.63
241.926	32.22
242.144	7.14
242.363	-60.9
242.581	-74.34
242.799	-29.04
243.017	-10.29
243.235	-18.62
243.453	6.4
243.672	-4.28
243.89	-6.46
244.108	-15.68
244.326	7.21
244.544	-0.24
244.762	3.58
244.98	6.13
245.198	0.14
245.416	-26.16
245.634	-34.89
245.852	-37.76
246.07	-47.77
246.288	-30.1
246.506	-61.73
246.724	-22.42
246.942	-19.76
247.16	7.44
247.378	3.26
247.596	42.25
247.814	34.97
248.032	19.85
248.25	7.36
248.468	3.9
248.685	-4.67
248.903	27
249.121	32.44
249.339	5.66
249.557	4.72
249.775	8.88
249.992	-51.95
250.21	-53.72
250.428	-26.94
250.646	-45.68
250.863	-63.96
251.081	-40.14
251.299	-22.56
251.517	-11.34
251.734	-11.07
251.952	-13.94
252.17	-5.56
252.387	-1.04
252.605	-14.96
252.823	-1.21
253.04	19.42
253.258	29.76
253.475	25.5
253.693	43.08
253.911	36.91
254.128	42.8
254.346	50.19
254.563	15.54
254.781	0.97
254.998	-7.91
255.216	-25.76
255.433	-16.68
255.651	55.82
255.868	68.45
256.086	88.93
256.303	98.39
256.521	70.71
256.738	36.16
256.956	7.68
257.173	-24.37
257.39	-56.15
257.608	-89.83
257.825	1.06
258.043	61.6
258.26	57.08
258.477	82.88
258.695	96.29
258.912	4.53
259.129	0.12
259.346	-17.74
259.564	-43.04
259.781	-75.67
259.998	-4.71
260.216	13.47
260.433	52.66
260.65	60.97
260.867	65.94
261.084	47.95
261.302	13.36
261.519	-18.36
261.736	-52.28
261.953	-63.24
262.17	-24.55
262.387	-34.79
262.604	-38.88
262.822	-54.21
263.039	-29.49
263.256	-71.88
263.473	-52.38
263.69	-39.06
263.907	16.62
264.124	12.91
264.341	2.43
264.558	-1.42
264.775	13.05
264.992	-10.85
265.209	-2.76
265.426	28.75
265.643	33.99
265.86	38.62
266.077	45.18
266.294	37.99
266.51	-6.6
266.727	-33.44
266.944	-31.53
267.161	-51.55
267.378	-45.95
267.595	-4.48
267.812	-6.39
268.028	-37.33
268.245	-15.6
268.462	-36.44
268.679	-54.38
268.896	2.71
269.112	3.65
269.329	-4.54
269.546	8.16
269.763	-2.39
269.979	-27.39
270.196	-21.19
270.413	-37.89
270.629	-61.72
270.846	-58.92
271.063	-55.02
271.279	-68.82
271.496	-63.58
271.712	-32.54
271.929	2.86
272.146	-22.98
272.362	-15.91
272.579	15.64
272.795	47.82
273.012	24.62
273.228	31.4
273.445	0.86
273.661	-19.3
273.878	-82.49
274.094	-64.06
274.311	-77.98
274.527	0.71
274.744	-0.06
274.96	-4.24
275.177	-5.17
275.393	8.99
275.609	-2.11
275.826	12.33
276.042	12.45
276.259	-4.38
276.475	10.02
276.691	13.81
276.908	-1.46
277.124	7.11
277.34	11.17
277.557	-7.31
277.773	-24.08
277.989	-32.45
278.205	-31.65
278.422	-13.49
278.638	-10.08
278.854	9.71
279.07	14.95
279.286	0.32
279.503	-32.42
279.719	-36.92
279.935	-70.41
280.151	-80.59
280.367	-48.22
280.583	-40.83
280.799	-27.54
281.016	-44.86
281.232	-10.98
281.448	2.51
281.664	22.46
281.88	-3.98
282.096	38.81
282.312	74.7
282.528	85.46
282.744	86.84
282.96	79.82
283.176	48.88
283.392	43.28
283.608	25.98
283.824	14.21
284.04	28.77
284.256	36.71
284.471	10.73
284.687	13.03
284.903	34.05
285.119	51.73
285.335	16.47
285.551	22.65
285.767	-2.34
285.982	-10.6
286.198	-63.88
286.414	8.42
286.63	8.1
286.846	35.38
287.061	17.29
287.277	51.57
287.493	24.64
287.709	36.54
287.924	22.16
288.14	57.26
288.356	64.35
288.571	81.3
288.787	63.03
289.003	65.56
289.218	39.02
289.434	-12.15
289.65	-5.85
289.865	-29.21
290.081	-3.51
290.296	-4.58
290.512	6.22
290.727	-30.88
290.943	-11.98
291.159	-20.49
291.374	-10.2
291.59	-11.06
291.805	-10.81
292.021	-5.42
292.236	-14.33
292.451	2.9
292.667	4.2
292.882	31.33
293.098	45.74
293.313	21.28
293.529	-9.88
293.744	-25.92
293.959	-49.72
294.175	-60.89
294.39	-14.24
294.605	-2.06
294.821	29.39
295.036	43.33
295.251	60.39
295.467	51.31
295.682	53.4
295.897	6.67
296.112	-14.84
296.328	-23.99
296.543	-57.98
296.758	-54.69
296.973	-6.91
297.188	26.25
297.404	12.95
297.619	21.91
297.834	8.43
298.049	-7.59
298.264	-35.83
298.479	6.87
298.694	0.37
298.909	28.09
299.125	35.76
299.34	34.91
299.555	8.88
299.77	25.1
299.985	-28.06
300.2	-84.71
300.415	-92.09
300.63	-58.32
300.845	-62.06
301.06	-55.55
301.275	-17.84
301.49	15.75
301.704	-11.08
301.919	-29.58
302.134	-36.94
302.349	-33.23
302.564	-106.07
302.779	-89.61
302.994	-31.66
303.209	10.59
303.423	38.2
303.638	71.29
303.853	42.93
304.068	23.84
304.283	11.69
304.497	-0.78
304.712	-17.18
304.927	-11.26
305.142	-12.29
305.356	-14.46
305.571	-13.98
305.786	-22.66
306	-40.59
306.215	-34.25
306.43	-31.72
306.644	-40.67
306.859	21.08
307.074	44.15
307.288	19.32
307.503	23.15
307.717	12.47
307.932	-11.24
308.147	-26.87
308.361	2.47
308.576	-3.03
308.79	-41.77
309.005	-22.75
309.219	-1.54
309.434	-26.08
309.648	-29.86
309.863	6.24
310.077	4.52
310.292	-7.81
310.506	17.05
310.72	26.94
310.935	25.64
311.149	24.27
311.364	43.86
311.578	42.49
311.792	29.15
312.007	29.25
312.221	7.79
312.435	10.35
312.649	-0.18
312.864	47.46
313.078	54.14
313.292	137.12
313.507	108.37
313.721	130.12
313.935	34.66
314.149	34.82
314.363	19.71
314.578	24.41
314.792	28.3
315.006	27.74
315.22	30.13
315.434	26.67
315.648	26.64
315.862	22.28
316.077	19.78
316.291	8.71
316.505	4.52
316.719	8.67
316.933	-4.81
317.147	-8.52
317.361	-51.44
317.575	-53.95
317.789	-76.64
318.003	-140
318.217	-118.45
318.431	-46.97
318.645	9.44
318.859	10
319.073	30.73
319.287	27.61
319.5	1.56
319.714	-66.59
319.928	-108.81
320.142	-116.84
320.356	-65.75
320.57	-10.23
320.784	-3.21
320.997	22.36
321.211	34.28
321.425	-42.02
321.639	-57.36
321.853	8.29
322.066	16.91
322.28	7.65
322.494	27.08
322.707	36
322.921	13.04
323.135	9.54
323.349	6.03
323.562	-13.49
323.776	-30.34
323.989	-25.65
324.203	-54.56
324.417	-52.64
324.63	-65.88
324.844	-59.31
325.057	-58.9
325.271	-33.03
325.485	-10.94
325.698	18.96
325.912	28.46
326.125	5.84
326.339	7.52
326.552	1.72
326.766	-1.63
326.979	9.03
327.193	40.09
327.406	31.97
327.619	25.29
327.833	50.34
328.046	26.04
328.26	-7.26
328.473	0.74
328.686	-28.97
328.9	-66.03
329.113	-58.31
329.326	-77.57
329.54	-37.86
329.753	-55.11
329.966	-62.48
330.179	-41.98
330.393	-12.35
330.606	-16.33
330.819	10.19
331.032	21.03
331.246	23.7
331.459	48.72
331.672	31.98
331.885	20.54
332.098	-4.16
332.311	-10.91
332.525	-99.24
332.738	-62.74
332.951	-20.35
333.164	29.08
333.377	28.37
333.59	63.67
333.803	55.88
334.016	51.54
334.229	32.6
334.442	41.71
334.655	54.88
334.868	55.21
335.081	39.32
335.294	35.71
335.507	9.51
335.72	-9.19
335.933	-19.35
336.146	-29.36
336.359	-36.69
336.572	-39.12
336.785	-62.88
336.997	-60.18
337.21	-37.56
337.423	-36.49
337.636	-34.53
337.849	-5.57
338.062	-7.05
338.274	-7.24
338.487	-13.95
338.7	3.36
338.913	-42.61
339.125	-66.71
339.338	-114.12
339.551	-81.24
339.763	-57.33
339.976	-37.2
340.189	-8.46
340.402	2.97
340.614	-2.82
340.827	-20.03
341.039	-24.94
341.252	-19.74
341.465	9.98
341.677	6.67
341.89	-21.47
342.102	4.28
342.315	-2.68
342.527	-50.35
342.74	-46.22
342.952	1.87
343.165	-1.58
343.377	20.11
343.59	27.3
343.802	48.4
344.015	40.92
344.227	49.04
344.44	28.06
344.652	13.06
344.864	-5.41
345.077	16.71
345.289	14.58
345.502	20.94
345.714	24.52
345.926	27.65
346.139	22.41
346.351	38.01
346.563	44.81
346.775	51.13
346.988	43.82
347.2	34.25
347.412	-7.34
347.624	-28.92
347.837	-51.01
348.049	-18.62
348.261	-0.89
348.473	-7.14
348.685	-21.27
348.897	-23.46
349.11	-42.2
349.322	-56.57
349.534	-28.54
349.746	-10.36
349.958	20.16
350.17	21.4
350.382	16.91
350.594	13.29
350.806	12.6
351.018	-4.68
351.23	-20.24
351.442	-64.21
351.654	-75.96
351.866	-61.25
352.078	-28.2
352.29	-7.08
352.502	18.58
352.714	33.65
352.926	25.14
353.138	14.37
353.35	6.53
353.561	1.01
353.773	-27.87
353.985	-16.22
354.197	-27.27
354.409	-27.33
354.621	-31.48
354.832	-12.85
355.044	-23.7
355.256	-19.09
355.468	-15.26
355.679	-12.06
355.891	-3.96
356.103	-9.51
356.314	-3.53
356.526	14.08
356.738	9.33
356.949	-11.79
357.161	-3.08
357.373	-1.18
357.584	-20.56
357.796	-7.65
358.008	-8.15
358.219	13.07
358.431	6.97
358.642	20.35
358.854	16.58
359.065	16.89
359.277	-23.07
359.488	-33.58
359.7	-56.59
359.911	-70.92
360.123	-43
360.334	-47.14
360.546	-50.1
360.757	-53.1
360.969	-36.56
361.18	-57.22
361.391	-30.53
361.603	-27.54
361.814	-14.93
362.025	-14.99
362.237	2.5
362.448	11.92
362.659	22.66
362.871	18.62
363.082	6.65
363.293	-6.83
363.504	-14.11
363.716	-44.14
363.927	-50.09
364.138	-50.91
364.349	-53.22
364.56	-53.57
364.772	-43.12
364.983	-17.86
365.194	-14.47
365.405	-1.61
365.616	23.85
365.827	30.78
366.038	5.27
366.25	9.54
366.461	-24.98
366.672	-26.18
366.883	-4.54
367.094	2.16
367.305	-13.71
367.516	7.72
367.727	-17.43
367.938	-43.56
368.149	-31.73
368.36	-13.24
368.571	-8.1
368.781	-17.18
368.992	-23.21
369.203	-47.34
369.414	-63.49
369.625	-77.7
369.836	-65.95
370.047	-87.22
370.258	-64.33
370.468	-64.22
370.679	-72.27
370.89	-67.72
371.101	-34.71
371.312	-39.53
371.522	-29.77
371.733	-22.38
371.944	-8.88
372.155	-4.45
372.365	-16.35
372.576	-18.32
372.787	-28.13
372.997	-58.35
373.208	-54.86
373.419	-7.37
373.629	-30.37
373.84	-24.27
374.05	-21.59
374.261	-18.82
374.472	-49.13
374.682	-2.47
374.893	6.77
375.103	41.27
375.314	30.48
375.524	28.52
375.735	22.73
375.945	23.88
376.156	-10.04
376.366	-10.47
376.577	-6.09
376.787	-8.17
376.997	-6.71
377.208	-2.7
377.418	-9.23
377.629	0.55
377.839	-4.11
378.049	-3.53
378.26	10.11
378.47	18.02
378.68	2
378.89	-4.74
379.101	-13.06
379.311	-35.04
379.521	-58.82
379.732	-58.44
379.942	-59.43
380.152	-70.85
380.362	-43.2
380.572	-32.38
380.783	-10.42
380.993	0.41
381.203	7.52
381.413	18.99
381.623	18.43
381.833	9.32
382.043	-4.94
382.253	-8.17
382.463	-14.07
382.674	-15
382.884	-34.49
383.094	-21.76
383.304	-14.04
383.514	-17.46
383.724	-11.6
383.934	-10.03
384.144	-24.33
384.353	-35.16
384.563	-27.67
384.773	-21.51
384.983	-23.2
385.193	-0.93
385.403	12.19
385.613	14.39
385.823	4.45
386.033	12.08
386.242	1.67
386.452	-8.98
386.662	-20.76
386.872	-9.44
387.082	-18.61
387.291	-24.4
387.501	-17.91
387.711	-11.43
387.921	-22.02
388.13	-16.75
388.34	-3.2
388.55	-8.95
388.759	-11.24
388.969	-2.6
389.179	-2.64
389.388	-1.08
389.598	5.82
389.807	0.18
390.017	-3.78
390.227	-5.28
390.436	-7.62
390.646	-9.9
390.855	-2.31
391.065	-3.91
391.274	-4.36
391.484	-5.63
391.693	-1.59
391.903	-2.06
392.112	6
392.322	10.47
392.531	13.69
392.74	13.29
392.95	9.28
393.159	5.73
393.369	3.94
393.578	1.83
393.787	-0.41
393.997	2.05
394.206	-0.29
394.415	-0.31
394.625	-0.41
394.834	-1.07
395.043	0.33
395.252	2.9
395.462	6
395.671	6.99
395.88	7.17
396.089	7.26
396.298	5.46
396.508	3.84
396.717	3.49
396.926	5.04
397.135	4.53
397.344	4.24
397.553	4.58
397.762	5.6
397.971	5.2
398.181	5.18
398.39	4.88
398.599	4.11
398.808	3.7
399.017	3.9
399.226	5.79
399.435	6.87
399.644	7.45
399.853	6.68
400.062	6.21
400.27	5.25
400.479	4.87
400.688	4.26
400.897	4.84
401.106	4.77
401.315	4.29
401.524	4.61
401.733	4.85
401.941	5.02
402.15	5.2
402.359	5.16
402.568	5.14
402.777	5.43
402.985	5.04
403.194	4.92
403.403	5.05
403.612	4.81
403.82	4.53
404.029	4.88
404.238	4.74
404.446	4.88
404.655	4.74
404.864	4.7
405.072	4.25
405.281	4.57
405.489	4.48
405.698	4.46
405.906	4.5
406.115	4.65
406.324	4.45
406.532	4.48
406.741	4.68
406.949	4.67
407.158	4.68
407.366	4.7
407.574	4.61
407.783	4.6
407.991	4.3
408.2	4.52
408.408	4.47
408.617	4.44
408.825	4.4
409.033	4.63
409.242	4.57
409.45	4.68
409.658	4.54
409.867	4.63
410.075	4.46
410.283	4.22
410.491	4.11
410.7	4.07
410.908	4.04
411.116	4.45
411.324	4.54
411.533	4.5
411.741	4.75
411.949	4.78
412.157	4.41
412.365	4.49
412.573	4.49
412.781	4.44
412.99	4.23
413.198	4.55
413.406	4.54
413.614	4.55
413.822	4.34
414.03	4.28
414.238	3.92
414.446	3.87
414.654	3.74
414.862	4
415.07	4.15
415.278	4.37
415.486	4.15
415.694	4.26
415.902	4.08
416.109	3.88
416.317	3.91
416.525	3.81
416.733	3.82
416.941	3.89
417.149	4.06
417.357	3.91
417.564	4.22
417.772	4.41
417.98	4.34
418.188	4.23
418.395	4.39
418.603	4.45
418.811	4.06
419.019	4.02
419.226	4.11
419.434	4.16
419.642	3.84
419.849	4.1
420.057	4.1
420.265	4.09
420.472	3.63
420.68	3.8
420.887	3.68
421.095	3.85
421.302	3.79
421.51	4.29
421.717	4.3
421.925	4.35
422.132	4.11
422.34	3.96
422.547	3.85
422.755	3.83
422.962	3.74
423.17	3.56
423.377	3.66
423.585	3.66
423.792	3.47
423.999	3.43
424.207	3.65
424.414	3.87
424.621	3.78
424.829	3.85
425.036	3.93
425.243	4.05
425.451	3.72
425.658	3.4
425.865	3.57
426.072	3.54
426.28	3.68
426.487	3.74
426.694	4.17
426.901	3.96
427.108	3.89
427.315	3.62
427.523	3.88
427.73	3.73
427.937	3.71
428.144	3.61
428.351	3.57
428.558	3.49
428.765	3.41
428.972	3.5
429.179	3.76
429.386	4.19
429.593	4.03
429.8	3.91
430.007	4
430.214	4.05
430.421	3.73
430.628	3.67
430.835	3.75
431.042	3.91
431.249	3.9
431.456	4
431.662	4.26
431.869	4.54
432.076	4.54
432.283	4.62
432.49	4.58
432.697	4.57
432.903	4.25
433.11	4.09
433.317	4.16
433.524	4.39
433.73	4.23
433.937	4.53
434.144	4.54
434.35	4.51
434.557	4.35
434.764	4.39
434.97	4.3
435.177	4.56
435.384	4.46
435.59	4.56
435.797	4.8
436.003	4.74
436.21	4.62
436.416	4.64
436.623	4.57
436.829	4.61
437.036	4.83
437.242	4.79
437.449	4.81
437.655	4.91
437.862	4.81
438.068	4.67
438.275	4.79
438.481	4.96
438.687	4.81
438.894	4.86
439.1	4.95
439.307	5.16
439.513	5.05
439.719	5.12
439.926	5.29
440.132	5.33
440.338	5.13
440.544	5.36
440.751	5.39
440.957	5.31
441.163	5.27
441.369	5.41
441.575	5.1
441.782	5.08
441.988	4.98
442.194	5
442.4	4.91
442.606	5.25
442.812	5.32
443.018	5.42
443.224	5.41
443.431	5.55
443.637	5.32
443.843	5.22
444.049	5.29
444.255	5.31
444.461	5.33
444.667	5.3
444.873	5.45
445.079	5.42
445.284	5.52
445.49	5.3
445.696	5.22
445.902	5.16
446.108	5.11
446.314	5.04
446.52	5.16
446.726	5.49
446.931	5.57
447.137	5.62
447.343	5.67
447.549	5.62
447.755	5.43
447.96	5.42
448.166	5.31
448.372	5.21
448.578	5.27
448.783	5.28
448.989	5.4
449.195	5.68
449.4	5.78
449.606	5.75
449.812	5.75
450.017	5.71
450.223	5.5
450.428	5.38
450.634	5.5
450.84	5.66
451.045	5.63
451.251	5.62
451.456	5.87
451.662	5.97
451.867	5.97
452.073	6.01
452.278	6.17
452.483	6.28
452.689	6.16
452.894	6.15
453.1	6.15
453.305	6.08
453.51	5.88
453.716	5.81
453.921	5.81
454.127	5.75
454.332	5.71
454.537	5.74
454.742	5.79
454.948	5.8
455.153	5.93
455.358	6.06
455.563	6.17
455.769	6.34
455.974	6.3
456.179	6.2
456.384	6.11
456.589	6.09
456.795	5.77
457	5.83
457.205	6.1
457.41	6.03
457.615	6
457.82	6.21
458.025	6.14
458.23	5.93
458.435	6.1
458.64	6.02
458.845	6.13
459.05	6.15
459.255	6.21
459.46	6.18
459.665	6.23
459.87	6.23
460.075	6.24
460.28	6.33
460.485	6.44
460.69	6.51
460.895	6.38
461.099	6.4
461.304	6.48
461.509	6.46
461.714	6.43
461.919	6.6
462.123	6.49
462.328	6.51
462.533	6.39
462.738	6.54
462.942	6.42
463.147	6.66
463.352	6.66
463.556	6.79
463.761	6.84
463.966	6.91
464.17	6.81
464.375	6.66
464.58	6.54
464.784	6.4
464.989	6.33
465.193	6.35
465.398	6.48
465.602	6.63
465.807	6.63
466.011	6.76
466.216	6.84
466.42	6.85
466.625	6.94
466.829	7.09
467.034	7.18
467.238	7.36
467.443	7.27
467.647	7.09
467.851	7.11
468.056	7.12
468.26	7.01
468.464	7.09
468.669	7.31
468.873	7.54
469.077	7.47
469.282	7.55
469.486	7.55
469.69	7.47
469.894	7.21
470.099	7.31
470.303	7.39
470.507	7.3
470.711	7.23
470.915	7.23
471.119	7.13
471.324	6.91
471.528	7.13
471.732	7.26
471.936	7.24
472.14	7.32
472.344	7.45
472.548	7.33
472.752	7.43
472.956	7.67
473.16	7.61
473.364	7.47
473.568	7.5
473.772	7.44
473.976	7.26
474.18	7.25
474.384	7.41
474.588	7.36
474.792	7.31
474.995	7.43
475.199	7.59
475.403	7.68
475.607	7.76
475.811	7.71
476.015	7.73
476.218	7.75
476.422	7.58
476.626	7.61
476.83	7.76
477.033	7.7
477.237	7.51
477.441	7.56
477.644	7.59
477.848	7.5
478.052	7.41
478.255	7.53
478.459	7.54
478.663	7.61
478.866	7.66
479.07	7.75
479.273	7.92
479.477	8.01
479.681	7.99
479.884	7.94
480.088	7.92
480.291	7.79
480.495	7.74
480.698	7.71
480.901	7.77
481.105	7.9
481.308	7.83
481.512	7.87
481.715	7.95
481.919	7.99
482.122	7.88
482.325	7.92
482.529	7.85
482.732	7.75
482.935	7.63
483.138	7.59
483.342	7.68
483.545	7.86
483.748	7.88
483.952	8
484.155	8.08
484.358	8.1
484.561	7.97
484.764	7.97
484.967	8.04
485.171	8.14
485.374	8.1
485.577	8.16
485.78	8.19
485.983	8.18
486.186	8.07
486.389	8.04
486.592	8.1
486.795	8.15
486.998	8.02
487.201	8.08
487.404	8.13
487.607	8.12
487.81	8.14
488.013	8.23
488.216	8.23
488.419	8.17
488.622	8.03
488.825	7.95
489.028	7.89
489.231	7.85
489.433	7.82
489.636	7.82
489.839	7.79
490.042	7.77
490.245	7.78
490.447	7.84
490.65	7.86
490.853	7.9
491.056	7.95
491.258	7.95
491.461	7.96
491.664	8.02
491.866	7.95
492.069	8
492.272	8.01
492.474	8.09
492.677	8.13
492.879	8.18
493.082	8.19
493.285	8.27
493.487	8.2
493.69	8.13
493.892	8.07
494.095	8.03
494.297	7.94
494.5	7.95
494.702	7.92
494.905	7.99
495.107	7.98
495.309	7.97
495.512	8
495.714	8.08
495.917	8.11
496.119	8.13
496.321	8.19
496.524	8.21
496.726	8.17
496.928	8.16
497.13	8.17
497.333	8.18
497.535	8.19
497.737	8.22
497.939	8.21
498.142	8.18
498.344	8.09
498.546	8
498.748	8.01
498.95	8.12
499.152	8.12
499.355	8.18
499.557	8.25
499.759	8.31
499.961	8.22
500.163	8.25
500.365	8.22
500.567	8.28
500.769	8.2
500.971	8.19
501.173	8.12
501.375	8.12
501.577	7.99
501.779	7.95
501.981	7.98
502.183	8.02
502.385	7.99
502.587	7.96
502.788	8.08
502.99	8.08
503.192	8.13
503.394	8.19
503.596	8.19
503.798	8.15
503.999	8.21
504.201	8.14
504.403	8.13
504.605	8.18
504.806	8.17
505.008	8.15
505.21	8.2
505.411	8.21
505.613	8.22
505.815	8.19
506.016	8.21
506.218	8.29
506.42	8.29
506.621	8.29
506.823	8.3
507.024	8.16
507.226	8.02
507.427	7.97
507.629	8.02
507.83	8.09
508.032	8.14
508.233	8.3
508.435	8.35
508.636	8.42
508.838	8.34
509.039	8.4
509.24	8.35
509.442	8.35
509.643	8.21
509.845	8.28
510.046	8.32
510.247	8.38
510.448	8.37
510.65	8.51
510.851	8.59
511.052	8.57
511.254	8.52
511.455	8.62
511.656	8.61
511.857	8.62
512.058	8.57
512.26	8.56
512.461	8.46
512.662	8.5
512.863	8.37
513.064	8.41
513.265	8.45
513.466	8.48
513.667	8.44
513.868	8.48
514.069	8.56
514.27	8.62
514.471	8.56
514.672	8.59
514.873	8.57
515.074	8.57
515.275	8.4
515.476	8.44
515.677	8.4
515.878	8.53
516.079	8.48
516.28	8.6
516.481	8.7
516.682	8.74
516.882	8.59
517.083	8.59
517.284	8.5
517.485	8.41
517.686	8.36
517.886	8.35
518.087	8.39
518.288	8.45
518.488	8.5
518.689	8.52
518.89	8.52
519.091	8.5
519.291	8.5
519.492	8.54
519.692	8.59
519.893	8.67
520.094	8.69
520.294	8.68
520.495	8.62
520.695	8.65
520.896	8.66
521.096	8.68
521.297	8.71
521.497	8.77
521.698	8.71
521.898	8.67
522.099	8.68
522.299	8.73
522.499	8.71
522.7	8.78
522.9	8.72
523.101	8.76
523.301	8.77
523.501	8.74
523.702	8.77
523.902	8.92
524.102	8.94
524.302	8.88
524.503	8.98
524.703	8.97
524.903	8.95
525.103	8.88
525.304	9.02
525.504	9.08
525.704	9.14
525.904	9.09
526.104	9.05
526.304	8.98
526.504	8.94
526.705	8.85
526.905	8.94
527.105	8.98
527.305	8.96
527.505	8.9
527.705	8.91
527.905	8.93
528.105	8.94
528.305	8.92
528.505	9.01
528.705	9.1
528.905	9.04
529.105	9.06
529.304	9.11
529.504	9.13
529.704	9.08
529.904	9.1
530.104	9.12
530.304	9.22
530.503	9.15
530.703	9.11
530.903	9.12
531.103	9.13
531.303	9
531.502	9.03
531.702	9.14
531.902	9.21
532.101	9.19
532.301	9.25
532.501	9.28
532.7	9.22
532.9	9.11
533.1	9.12
533.299	9.13
533.499	9.13
533.698	9.15
533.898	9.22
534.097	9.19
534.297	9.22
534.496	9.22
534.696	9.22
534.895	9.28
535.095	9.38
535.294	9.38
535.494	9.32
535.693	9.35
535.892	9.34
536.092	9.31
536.291	9.27
536.491	9.37
536.69	9.4
536.889	9.34
537.088	9.26
537.288	9.34
537.487	9.37
537.686	9.32
537.886	9.41
538.085	9.47
538.284	9.59
538.483	9.57
538.682	9.67
538.882	9.72
539.081	9.76
539.28	9.63
539.479	9.63
539.678	9.6
539.877	9.67
540.076	9.68
540.275	9.75
540.474	9.78
540.673	9.81
540.872	9.74
541.071	9.79
541.27	9.83
541.469	9.91
541.668	9.94
541.867	9.98
542.066	10.03
542.265	10.05
542.464	10.01
542.663	10.05
542.862	10.2
543.06	10.31
543.259	10.38
543.458	10.48
543.657	10.49
543.856	10.46
544.054	10.38
544.253	10.36
544.452	10.27
544.651	10.4
544.849	10.37
545.048	10.41
545.247	10.42
545.445	10.52
545.644	10.46
545.843	10.41
546.041	10.44
546.24	10.47
546.438	10.57
546.637	10.64
546.836	10.84
547.034	10.87
547.233	10.91
547.431	10.83
547.63	10.81
547.828	10.78
548.027	10.85
548.225	10.89
548.423	10.95
548.622	11
548.82	10.98
549.019	10.9
549.217	10.91
549.415	10.94
549.614	11.04
549.812	11.09
550.01	11.18
550.209	11.26
550.407	11.35
550.605	11.33
550.803	11.44
551.002	11.52
551.2	11.56
551.398	11.59
551.596	11.67
551.794	11.73
551.993	11.76
552.191	11.78
552.389	11.93
552.587	12.03
552.785	11.99
552.983	12.09
553.181	12.25
553.379	12.27
553.577	12.26
553.775	12.41
553.973	12.43
554.171	12.44
554.369	12.41
554.567	12.45
554.765	12.52
554.963	12.62
555.161	12.6
555.359	12.72
555.557	12.83
555.755	12.86
555.952	12.96
556.15	13.06
556.348	13.05
556.546	13.15
556.744	13.08
556.941	13.07
557.139	13.17
557.337	13.21
557.535	13.16
557.732	13.35
557.93	13.45
558.128	13.48
558.325	13.59
558.523	13.64
558.721	13.69
558.918	13.76
559.116	13.86
559.313	13.9
559.511	14.14
559.708	14.2
559.906	14.26
560.104	14.29
560.301	14.43
560.498	14.39
560.696	14.39
560.893	14.46
561.091	14.54
561.288	14.57
561.486	14.68
561.683	14.82
561.88	14.88
562.078	14.94
562.275	14.95
562.473	15.02
562.67	15.09
562.867	15.21
563.064	15.33
563.262	15.47
563.459	15.46
563.656	15.64
563.853	15.76
564.051	15.82
564.248	15.89
564.445	16.04
564.642	16.03
564.839	16.03
565.036	16.15
565.234	16.23
565.431	16.27
565.628	16.36
565.825	16.46
566.022	16.49
566.219	16.59
566.416	16.64
566.613	16.69
566.81	16.72
567.007	16.67
567.204	16.62
567.401	16.69
567.598	16.72
567.795	16.76
567.991	16.9
568.188	17.09
568.385	17.16
568.582	17.28
568.779	17.38
568.976	17.39
569.172	17.37
569.369	17.36
569.566	17.38
569.763	17.38
569.96	17.45
570.156	17.48
570.353	17.5
570.55	17.49
570.746	17.48
570.943	17.48
571.14	17.44
571.336	17.56
571.533	17.67
571.729	17.67
571.926	17.77
572.123	17.96
572.319	17.92
572.516	17.89
572.712	18.02
572.909	17.99
573.105	18.02
573.302	18.04
573.498	18.12
573.695	18.11
573.891	18.14
574.087	18.11
574.284	18.11
574.48	18.02
574.677	18.03
574.873	18.04
575.069	18.1
575.266	18.18
575.462	18.18
575.658	18.22
575.854	18.31
576.051	18.32
576.247	18.29
576.443	18.3
576.639	18.24
576.835	18.17
577.032	18.06
577.228	18.1
577.424	18.16
577.62	18.2
577.816	18.19
578.012	18.24
578.208	18.21
578.404	18.22
578.6	18.17
578.796	18.21
578.993	18.2
579.189	18.11
579.384	17.91
579.58	17.9
579.776	17.83
579.972	17.76
580.168	17.78
580.364	17.9
580.56	17.92
580.756	17.9
580.952	17.89
581.148	17.88
581.343	17.83
581.539	17.85
581.735	17.84
581.931	17.93
582.127	17.95
582.322	17.98
582.518	17.96
582.714	18.01
582.909	17.88
583.105	17.91
583.301	17.87
583.496	17.92
583.692	17.8
583.888	17.86
584.083	17.88
584.279	17.92
584.474	17.9
584.67	18.01
584.866	17.88
585.061	17.74
585.257	17.79
585.452	17.7
585.648	17.66
585.843	17.75
586.039	17.78
586.234	17.7
586.429	17.69
586.625	17.74
586.82	17.76
587.015	17.84
587.211	17.78
587.406	17.82
587.601	17.72
587.797	17.68
587.992	17.55
588.187	17.68
588.383	17.59
588.578	17.6
588.773	17.66
588.968	17.73
589.163	17.82
589.359	17.82
589.554	17.85
589.749	17.82
589.944	17.94
590.139	17.8
590.334	17.85
590.529	17.9
590.724	17.9
590.919	17.88
591.114	17.92
591.309	18.05
591.504	18.03
591.699	18.11
591.894	18.13
592.089	18.12
592.284	18
592.479	18.06
592.674	17.97
592.869	18.01
593.064	18.14
593.259	18.31
593.454	18.49
593.648	18.63
593.843	18.61
594.038	18.59
594.233	18.5
594.428	18.29
594.622	18.27
594.817	18.36
595.012	18.44
595.206	18.56
595.401	18.68
595.596	18.78
595.79	18.88
595.985	18.96
596.18	18.99
596.374	19.07
596.569	19.1
596.763	19.05
596.958	19.02
597.153	19.07
597.347	19.02
597.542	19.15
597.736	19.16
597.931	19.21
598.125	19.24
598.319	19.42
598.514	19.35
598.708	19.48
598.903	19.49
599.097	19.53
599.291	19.47
599.486	19.43
599.68	19.39
599.874	19.48
600.069	19.47
600.263	19.5
600.457	19.64
600.651	19.7
600.846	19.72
601.04	19.8
601.234	19.83
601.428	19.87
601.622	19.92
601.817	19.96
602.011	20.01
602.205	20.03
602.399	19.96
602.593	19.98
602.787	19.9
602.981	19.9
603.175	19.98
603.369	19.97
603.563	19.99
603.757	20.1
603.951	20.13
604.145	20.08
604.339	20.23
604.533	20.11
604.727	20.03
604.921	19.99
605.115	20.01
605.309	19.93
605.502	19.94
605.696	19.8
605.89	19.77
606.084	19.73
606.278	19.67
606.471	19.54
606.665	19.59
606.859	19.48
607.053	19.44
607.246	19.44
607.44	19.59
607.634	19.51
607.827	19.55
608.021	19.51
608.214	19.4
608.408	19.18
608.602	19.23
608.795	19.15
608.989	19.08
609.182	19
609.376	19.06
609.569	18.94
609.763	18.9
609.956	18.82
610.15	18.76
610.343	18.72
610.537	18.62
610.73	18.63
610.923	18.54
611.117	18.55
611.31	18.53
611.504	18.61
611.697	18.45
611.89	18.47
612.083	18.41
612.277	18.42
612.47	18.26
612.663	18.3
612.856	18.18
613.05	18.04
613.243	17.84
613.436	17.75
613.629	17.61
613.822	17.53
614.015	17.47
614.209	17.35
614.402	17.42
614.595	17.4
614.788	17.38
614.981	17.41
615.174	17.37
615.367	17.22
615.56	17.15
615.753	17.14
615.946	17.01
616.139	17.09
616.332	17.21
616.525	17.22
616.718	17.26
616.911	17.34
617.103	17.29
617.296	17.23
617.489	17.12
617.682	17
617.875	16.94
618.067	16.89
618.26	16.77
618.453	16.86
618.646	16.8
618.838	16.79
619.031	16.87
619.224	16.91
619.417	16.82
619.609	16.91
619.802	16.84
619.994	16.71
620.187	16.62
620.38	16.61
620.572	16.45
620.765	16.49
620.957	16.47
621.15	16.4
621.342	16.28
621.535	16.35
621.727	16.27
621.92	16.21
622.112	16.17
622.305	16.32
622.497	16.16
622.69	16.11
622.882	16.13
623.074	16.24
623.267	16.07
623.459	16.06
623.651	16.05
623.844	16.07
624.036	16.08
624.228	16.08
624.42	16.14
624.613	16.28
624.805	16.23
624.997	16.17
625.189	16.19
625.381	16.17
625.574	16.03
625.766	15.95
625.958	15.88
626.15	15.96
626.342	15.93
626.534	15.93
626.726	15.95
626.918	16.02
627.11	15.92
627.302	15.89
627.494	15.92
627.686	15.92
627.878	15.79
628.07	15.74
628.262	15.7
628.454	15.73
628.646	15.74
628.838	15.81
629.029	15.77
629.221	15.84
629.413	15.72
629.605	15.56
629.797	15.45
629.989	15.46
630.18	15.33
630.372	15.32
630.564	15.36
630.755	15.4
630.947	15.39
631.139	15.31
631.33	15.17
631.522	15.26
631.714	15.24
631.905	15.24
632.097	15.22
632.289	15.33
632.48	15.2
632.672	15.05
632.863	14.96
633.055	14.96
633.246	14.84
633.438	14.77
633.629	14.8
633.821	14.82
634.012	14.85
634.203	14.77
634.395	14.8
634.586	14.84
634.777	14.75
634.969	14.71
635.16	14.85
635.351	14.83
635.543	14.83
635.734	14.88
635.925	14.9
636.117	14.86
636.308	14.89
636.499	14.8
636.69	14.67
636.881	14.61
637.073	14.61
637.264	14.56
637.455	14.58
637.646	14.73
637.837	14.75
638.028	14.68
638.219	14.76
638.41	14.63
638.601	14.48
638.792	14.48
638.983	14.39
639.174	14.23
639.365	14.22
639.556	14.16
639.747	14.06
639.938	14.16
640.129	14.14
640.32	14.09
640.511	14.13
640.701	14.24
640.892	14.16
641.083	14.24
641.274	14.37
641.465	14.35
641.655	14.2
641.846	14.21
642.037	14.09
642.228	14.01
642.418	14.09
642.609	14.13
642.8	14.15
642.99	14.04
643.181	14.1
643.372	14.07
643.562	13.99
643.753	13.93
643.943	13.93
644.134	13.76
644.324	13.63
644.515	13.6
644.705	13.55
644.896	13.59
645.086	13.59
645.277	13.59
645.467	13.64
645.658	13.6
645.848	13.58
646.038	13.56
646.229	13.58
646.419	13.43
646.61	13.38
646.8	13.31
646.99	13.28
647.18	13.18
647.371	13.23
647.561	13.23
647.751	13.32
647.941	13.26
648.132	13.26
648.322	13.22
648.512	13.32
648.702	13.21
648.892	13.24
649.082	13.24
649.272	13.08
649.462	12.87
649.653	12.76
649.843	12.68
650.033	12.68
650.223	12.77
650.413	12.83
650.603	12.94
650.793	13.02
650.983	12.97
651.172	12.87
651.362	12.83
651.552	12.78
651.742	12.65
651.932	12.59
652.122	12.69
652.312	12.74
652.502	12.71
652.691	12.67
652.881	12.71
653.071	12.64
653.261	12.5
653.45	12.37
653.64	12.42
653.83	12.23
654.019	12.14
654.209	12.1
654.399	12.07
654.588	11.9
654.778	11.91
654.968	11.81
655.157	11.73
655.347	11.67
655.536	11.6
655.726	11.52
655.915	11.46
656.105	11.35
656.294	11.21
656.484	11.12
656.673	11.03
656.863	11.05
657.052	10.96
657.241	10.9
657.431	10.77
657.62	10.72
657.809	10.43
657.999	10.34
658.188	10.26
658.377	10.13
658.567	10.02
658.756	9.99
658.945	9.9
659.134	9.81
659.324	9.79
659.513	9.7
659.702	9.55
659.891	9.46
660.08	9.35
660.269	9.3
660.458	9.23
660.648	9.21
660.837	9.15
661.026	9.18
661.215	9.06
661.404	8.9
661.593	8.85
661.782	8.71
661.971	8.58
662.16	8.55
662.349	8.56
662.538	8.52
662.726	8.48
662.915	8.42
663.104	8.4
663.293	8.38
663.482	8.32
663.671	8.32
663.86	8.28
664.048	8.13
664.237	8.02
664.426	7.84
664.615	7.82
664.803	7.77
664.992	7.75
665.181	7.69
665.369	7.66
665.558	7.58
665.747	7.43
665.935	7.51
666.124	7.56
666.312	7.63
666.501	7.62
666.69	7.59
666.878	7.46
667.067	7.36
667.255	7.46
667.444	7.79
667.632	7.89
667.82	7.97
668.009	7.99
668.197	7.9
668.386	7.65
668.574	7.72
668.762	7.58
668.951	7.51
669.139	7.48
669.327	7.46
669.516	7.54
669.704	7.66
669.892	7.77
670.08	7.8
670.269	7.55
670.457	7.38
670.645	7.18
670.833	7.3
671.021	7.27
671.21	7.46
671.398	7.66
671.586	7.77
671.774	7.67
671.962	7.67
672.15	7.6
672.338	7.41
672.526	7.47
672.714	7.26
672.902	7.31
673.09	7.52
673.278	7.78
673.466	7.82
673.654	8.1
673.842	8.13
674.03	8.13
674.218	7.94
674.405	7.98
674.593	7.86
674.781	7.91
674.969	7.87
675.157	8.1
675.344	8.21
675.532	8.29
675.72	8.29
675.908	8.39
676.095	8.22
676.283	8.22
676.471	8.41
676.658	8.45
676.846	8.49
677.033	8.6
677.221	8.58
677.409	8.37
677.596	8.42
677.784	8.33
677.971	8.26
678.159	8.37
678.346	8.64
678.534	8.7
678.721	9.08
678.909	9.07
679.096	9.04
679.283	9.26
679.471	9.35
679.658	9.28
679.846	9.57
680.033	9.77
680.22	9.64
680.408	9.59
680.595	9.55
680.782	9.45
680.969	9.52
681.157	9.52
681.344	9.65
681.531	9.76
681.718	9.73
681.905	9.89
682.093	10.03
682.28	10.16
682.467	10.28
682.654	10.51
682.841	10.46
683.028	10.58
683.215	10.63
683.402	10.6
683.589	10.92
683.776	11.12
683.963	11.22
684.15	11.52
684.337	11.75
684.524	11.82
684.711	12.02
684.898	11.93
685.085	12.1
685.271	12.31
685.458	12.29
685.645	12.41
685.832	12.89
686.019	13.09
686.205	13.27
686.392	13.55
686.579	13.67
686.766	13.96
686.952	13.99
687.139	14.39
687.326	14.55
687.512	14.83
687.699	14.88
687.886	15.14
688.072	15.12
688.259	15.42
688.445	15.86
688.632	16.03
688.818	16.65
689.005	17.03
689.191	17.38
689.378	17.69
689.564	18.38
689.751	18.53
689.937	19.02
690.124	19.45
690.31	19.73
690.496	19.99
690.683	20.4
690.869	20.76
691.055	21.11
691.242	21.81
691.428	22.36
691.614	22.98
691.8	23.53
691.987	24.16
692.173	24.61
692.359	25.3
692.545	25.64
692.731	26.16
692.918	26.8
693.104	27.2
693.29	27.73
693.476	28.49
693.662	29.12
693.848	29.65
694.034	30.02
694.22	30.21
694.406	30.7
694.592	31.28
694.778	31.7
694.964	32.4
695.15	33.23
695.336	33.72
695.522	34.47
695.708	35.08
695.894	35.92
696.08	36.72
696.265	37.48
696.451	37.98
696.637	38.92
696.823	39.18
697.009	39.59
697.194	39.92
697.38	40.38
697.566	40.69
697.751	41.45
697.937	42.23
698.123	43.16
698.308	44.08
698.494	44.76
698.68	45.39
698.865	45.71
699.051	46.27
699.236	46.38
699.422	46.81
699.607	47.31
699.793	47.97
699.978	48.26
700.164	48.63
700.349	49.54
700.535	49.87
700.72	50.15
700.906	50.96
701.091	51.77
701.276	51.82
701.462	52.62
701.647	53.43
701.832	53.71
702.018	54.13
702.203	54.83
702.388	54.96
702.573	55.25
702.759	55.7
702.944	56.01
703.129	56.28
703.314	56.96
703.499	57.39
703.684	57.75
703.87	58.81
704.055	59.68
704.24	60.07
704.425	60.81
704.61	61.35
704.795	61.17
704.98	61.05
705.165	61.05
705.35	61.35
705.535	61.51
705.72	61.81
705.905	62.44
706.09	63.28
706.275	63.44
706.459	64.02
706.644	64.36
706.829	64.67
707.014	64.68
707.199	65.09
707.384	65.24
707.568	66.11
707.753	66.9
707.938	67.36
708.123	67.43
708.307	67.66
708.492	67.49
708.677	67.16
708.861	67.38
709.046	67.41
709.231	68.19
709.415	68.87
709.6	69.02
709.784	69.39
709.969	70.14
710.153	69.98
710.338	70.01
710.522	70.1
710.707	70.36
710.891	70.23
711.076	70.6
711.26	70.85
711.445	71.36
711.629	71.6
711.813	71.82
711.998	72.18
712.182	71.91
712.366	72.68
712.551	73.3
712.735	73.57
712.919	73.27
713.103	73.89
713.288	73.49
713.472	73.1
713.656	73.97
713.84	74.39
714.024	74.53
714.208	74.45
714.393	74.94
714.577	74.71
714.761	74.83
714.945	75.05
715.129	75.32
715.313	75.47
715.497	75.49
715.681	76.32
715.865	76.17
716.049	76.72
716.233	76.5
716.417	76.59
716.601	76.38
716.785	76.46
716.968	76.42
717.152	76.71
717.336	76.64
717.52	76.47
717.704	76.89
717.888	77.31
718.071	77.94
718.255	78.45
718.439	78.51
718.622	78.88
718.806	78.85
718.99	78.43
719.174	78.99
719.357	79.48
719.541	79.58
719.724	79.78
719.908	80.51
720.092	80.85
720.275	81.35
720.459	81.27
720.642	81.11
720.826	80.98
721.009	80.39
721.193	79.41
721.376	79.48
721.559	80.17
721.743	80.17
721.926	80.51
722.11	81.18
722.293	80.85
722.476	80.34
722.66	80.46
722.843	80.04
723.026	79.56
723.21	80.17
723.393	80.9
723.576	81.01
723.759	81.16
723.942	81.55
724.126	81.43
724.309	81.34
724.492	81.24
724.675	81.42
724.858	82.08
725.041	82.51
725.224	82.4
725.407	82.74
725.59	82.97
725.774	82.79
725.957	82.2
726.14	82.16
726.322	82.04
726.505	81.84
726.688	82.16
726.871	82.35
727.054	82.66
727.237	82.67
727.42	83.08
727.603	83.15
727.786	83.67
727.968	84.03
728.151	84.46
728.334	84.14
728.517	84.35
728.699	84.67
728.882	84.1
729.065	84.72
729.248	85.82
729.43	86.2
729.613	86.73
729.796	87.74
729.978	86.41
730.161	85.85
730.343	85.31
730.526	85.15
730.708	84.23
730.891	84.98
731.073	84.87
731.256	84.85
731.438	85.01
731.621	85.64
731.803	85.81
731.986	86.4
732.168	85.72
732.35	85.54
732.533	85.48
732.715	84.92
732.898	85.28
733.08	86.1
733.262	86.15
733.444	85.79
733.627	86.34
733.809	85.7
733.991	86.22
734.173	86.11
734.355	86.78
734.538	87.21
734.72	86.86
734.902	86.79
735.084	87.14
735.266	86.9
735.448	86.75
735.63	87.07
735.812	87.33
735.994	88.37
736.176	89.33
736.358	89.34
736.54	90.44
736.722	89.45
736.904	87.77
737.086	87.02
737.268	87.82
737.45	87.76
737.632	88.08
737.814	88.52
737.995	88.71
738.177	88.19
738.359	87.01
738.541	87.66
738.723	87.7
738.904	88.03
739.086	88.55
739.268	88.88
739.449	88.3
739.631	88.67
739.813	88.48
739.994	88.18
740.176	88.63
740.358	88.65
740.539	89.36
740.721	89.43
740.902	89.97
741.084	90.2
741.265	90.32
741.447	90.36
741.628	90.83
741.81	90.16
741.991	90.9
742.172	91.82
742.354	91.46
742.535	91.05
742.717	91.58
742.898	90.85
743.079	91.19
743.261	91.14
743.442	90.83
743.623	91.88
743.804	92.43
743.986	92.36
744.167	91.58
744.348	91.82
744.529	90.8
744.71	89.92
744.891	89.3
745.073	89.32
745.254	88.74
745.435	88.19
745.616	86.92
745.797	86.13
745.978	85.79
746.159	86.27
746.34	86.07
746.521	88.7
746.702	88.79
746.883	88.29
747.064	88.45
747.245	88.34
747.426	86.72
747.606	87.39
747.787	88.46
747.968	88.5
748.149	88.87
748.33	90.03
748.51	89.74
748.691	88.9
748.872	89.15
749.053	88.63
749.233	87.65
749.414	87.64
749.595	87.38
749.775	85.97
749.956	86.39
750.137	86.63
750.317	88.66
750.498	91.42
750.678	92.3
750.859	93.39
751.04	93.25
751.22	89.93
751.4	88.37
751.581	87.42
751.761	87.13
751.942	88.8
752.122	89.56
752.303	88.92
752.483	89.36
752.663	88.66
752.844	85.99
753.024	87.3
753.204	87.36
753.385	86.92
753.565	87.02
753.745	88.07
753.925	86.39
754.106	85.95
754.286	87.14
754.466	86.71
754.646	87.79
754.826	88.89
755.006	89.04
755.187	88.54
755.367	88.43
755.547	88.18
755.727	88.44
755.907	88.59
756.087	90.53
756.267	89.72
756.447	88.29
756.627	85.52
756.807	86.42
756.987	85.4
757.167	87.49
757.346	87.12
757.526	87.24
757.706	87.46
757.886	87.24
758.066	87.34
758.246	88.48
758.425	90.32
758.605	89.49
758.785	88.84
758.965	87.56
759.144	84.73
759.324	84.59
759.504	83.81
759.683	83.78
759.863	82.4
760.043	83.46
760.222	83.37
760.402	83.45
760.581	83.73
760.761	86.24
760.94	86.04
761.12	87.82
761.299	89.42
761.479	89.35
761.658	87.71
761.838	88.68
762.017	87.29
762.197	86.44
762.376	88.25
762.555	89.38
762.735	90.62
762.914	88.65
763.093	89.52
763.273	86.87
763.452	85.89
763.631	84.7
763.81	85.41
763.99	82.95
764.169	82.72
764.348	80.73
764.527	79.41
764.706	81.83
764.885	84.75
765.064	84.33
765.243	85.54
765.423	87.4
765.602	85.63
765.781	82.76
765.96	81.97
766.139	81.29
766.318	83.14
766.497	82.57
766.676	84.33
766.854	86.38
767.033	87.73
767.212	85.15
767.391	85.44
767.57	84.66
767.749	84.29
767.928	84.85
768.106	84.12
768.285	82.3
768.464	83.54
768.643	83.91
768.821	84.37
769	85.99
769.179	87.43
769.357	85.12
769.536	82.9
769.715	82.08
769.893	82.6
770.072	81
770.25	81.84
770.429	83.54
770.607	82.64
770.786	81.56
770.964	84.27
771.143	83.44
771.321	84.39
771.5	85.03
771.678	84
771.857	82.61
772.035	84.28
772.213	83.46
772.392	82.41
772.57	84.34
772.748	85.05
772.927	81.84
773.105	81.09
773.283	82.01
773.461	80.55
773.64	80.2
773.818	80.99
773.996	82.28
774.174	79.73
774.352	77.98
774.531	73.92
774.709	76.57
774.887	75.53
775.065	77.49
775.243	78.19
775.421	82.46
775.599	83.02
775.777	81.34
775.955	77.79
776.133	76.69
776.311	76.66
776.489	72.39
776.667	74.43
776.844	77.06
777.022	75.87
777.2	75.77
777.378	79.6
777.556	78.52
777.734	82.22
777.911	86.05
778.089	84.56
778.267	82.21
778.445	80.54
778.622	76.76
778.8	76.2
778.978	78.34
779.155	77.06
779.333	79.14
779.511	80.01
779.688	80.87
779.866	75.48
780.043	75.21
780.221	74.98
780.398	71.98
780.576	74.06
780.753	79.56
780.931	79.55
781.108	79.66
781.286	83.35
781.463	76.45
781.64	72.87
781.818	74.31
781.995	75.5
782.172	75.11
782.35	76.9
782.527	80.12
782.704	77.08
782.882	74.56
783.059	72.98
783.236	76.77
783.413	75.79
783.59	79.61
783.768	78.75
783.945	81.18
784.122	79.68
784.299	80.58
784.476	78.09
784.653	77.87
784.83	78.4
785.007	76.11
785.184	75.21
785.361	75.94
785.538	80.36
785.715	81.44
785.892	83.67
786.069	85.03
786.246	87.22
786.423	82.87
786.6	80.47
786.776	82.27
786.953	77.54
787.13	76.19
787.307	78.44
787.484	76.85
787.66	73.13
787.837	76.53
788.014	72.02
788.191	68.36
788.367	67.19
788.544	71.1
788.721	68.12
788.897	73.33
789.074	79.03
789.25	77.74
789.427	76.37
789.603	76.33
789.78	76.52
789.956	70.15
790.133	68.72
790.309	69.47
790.486	76.84
790.662	72.65
790.839	74.2
791.015	78.89
791.192	74.78
791.368	71.92
791.544	72.19
791.721	73.74
791.897	72.69
792.073	70.57
792.249	62
792.426	66.34
792.602	68.41
792.778	69.11
792.954	70.71
793.13	76.13
793.307	67.86
793.483	59.51
793.659	60.67
793.835	64.27
794.011	63.11
794.187	68.19
794.363	67.5
794.539	67.3
794.715	61.44
794.891	62.25
795.067	59.68
795.243	68.96
795.419	66.24
795.595	69.03
795.771	66.63
795.947	69.77
796.122	66.98
796.298	69.05
796.474	70.4
796.65	73.91
796.826	73.09
797.001	71.03
797.177	68.04
797.353	73.02
797.529	74.34
797.704	72.15
797.88	73.64
798.056	71.13
798.231	70.64
798.407	68.12
798.582	68.38
798.758	75.5
798.934	83.6
799.109	73.65
799.285	72.65
799.46	79.08
799.636	70.51
799.811	67.58
799.986	74.28
800.162	75.01
800.337	71.13
800.513	73.36
800.688	69.89
800.863	78.22
801.039	74.46
801.214	75.08
801.389	75.47
801.565	74.2
801.74	58.9
801.915	69.86
802.09	71.96
802.265	76.46
802.441	73.37
802.616	76.98
802.791	72.93
802.966	68.01
803.141	62.35
803.316	62.96
803.491	66.57
803.666	67.88
803.841	69.82
804.016	67.45
804.191	67.31
804.366	65.51
804.541	61.07
804.716	59.1
804.891	56.96
805.066	62.16
805.241	60.08
805.416	59.65
805.591	58.17
805.765	64.11
805.94	65.99
806.115	58.32
806.29	49.48
806.464	50.12
806.639	42.59
806.814	37.44
806.989	39.65
807.163	58.65
807.338	63.3
807.512	62.2
807.687	52.1
807.862	69.36
808.036	67.48
808.211	63.63
808.385	70.01
808.56	85.31
808.734	81.01
808.909	79.87
809.083	77.12
809.258	85.49
809.432	78.04
809.606	66.33
809.781	54.16
809.955	65.28
810.13	68.63
810.304	67.5
810.478	66.68
810.652	82.95
810.827	81.66
811.001	68.51
811.175	65.07
811.349	62.02
811.524	48.85
811.698	37.6
811.872	38.65
812.046	48.04
812.22	52.94
812.394	55.94
812.568	57.78
812.742	68.02
812.916	62.84
813.09	64.05
813.264	54.32
813.438	63.17
813.612	54.33
813.786	48.72
813.96	53.91
814.134	69.67
814.308	67.72
814.482	74.63
814.656	75.62
814.83	72.31
815.003	70.32
815.177	64.76
815.351	51.43
815.525	52.53
815.698	48.79
815.872	36.21
816.046	24.33
816.219	36.22
816.393	49.04
816.567	51.01
816.74	65.84
816.914	78.84
817.088	78.11
817.261	58.99
817.435	56.31
817.608	46.12
817.782	29.41
817.955	35.75
818.129	41.08
818.302	52.73
818.475	53.31
818.649	63.03
818.822	52.33
818.996	67.82
819.169	57.28
819.342	48.79
819.516	59.64
819.689	61.51
819.862	47.23
820.035	41.01
820.209	40.67
820.382	27.38
820.555	31.63
820.728	21.07
820.901	18.1
821.075	16.61
821.248	17
821.421	5.53
821.594	18.93
821.767	57.22
821.94	82.22
822.113	71.91
822.286	64.58
822.459	73.66
822.632	53.47
822.805	32.45
822.978	34.47
823.151	33.49
823.324	21.85
823.496	2.71
823.669	9.33
823.842	15.59
824.015	1.49
824.188	-12.26
824.361	-0.75
824.533	-4.76
824.706	9.87
824.879	16.29
825.051	25.17
825.224	27.79
825.397	11.44
825.569	-14.76
825.742	12.51
825.915	37.51
826.087	50.16
826.26	45.62
826.432	45.71
826.605	47.09
826.777	28.91
826.95	24.38
827.122	28.72
827.295	38.13
827.467	34.75
827.64	10.48
827.812	5.91
827.984	16.21
828.157	-2.89
828.329	-50
828.501	-11.02
828.674	15.31
828.846	-0.69
829.018	34.85
829.19	40.28
829.363	54.24
829.535	50.9
829.707	51.01
829.879	24.91
830.051	19.35
830.223	7.55
830.395	-22.77
830.568	-28.19
830.74	-13.17
830.912	29.9
831.084	12.68
831.256	19.42
831.428	12.02
831.6	-14.01
831.772	-67.92
831.943	-82.47
832.115	-52.44
832.287	-24.89
832.459	1.44
832.631	24.84
832.803	48.87
832.975	65.01
833.146	57.5
833.318	43.86
833.49	45.86
833.662	21.11
833.833	-1.17
834.005	15.36
834.177	30.1
834.348	32.9
834.52	35.14
834.692	42.04
834.863	22.02
835.035	-4.22
835.206	-64.87
835.378	-38.74
835.549	-46.4
835.721	-23.75
835.892	-19.91
836.064	5.28
836.235	5.48
836.407	33.18
836.578	-24.03
836.749	13.6
836.921	-25.18
837.092	-61.44
837.264	-70.76
837.435	-53.08
837.606	-22.85
837.777	14.66
837.949	33.25
838.12	30.42
838.291	45.01
838.462	37.14
838.633	9.15
838.805	18.04
838.976	51.79
839.147	31.77
839.318	-20.11
839.489	-64.91
839.66	-63.48
839.831	-35.24
840.002	-36.22
840.173	-30.56
840.344	34.86
840.515	64.74
840.686	-88.44
840.857	-77.22
841.028	-82.79
841.199	-40.03
841.369	-63.11
841.54	0.46
841.711	32.29
841.882	66.45
842.053	34
842.223	31.31
842.394	28.67
842.565	29.68
842.736	41.9
842.906	43.47
843.077	49.8
843.248	86.67
843.418	80.82
843.589	38.47
843.759	173.91
843.93	137.76
844.101	45.29
844.271	51.32
844.442	59.55
844.612	27.83
844.783	-1.44
844.953	-55.83
845.123	-70.22
845.294	-110.09
845.464	-313.73
845.635	-132.72
845.805	-2.77
845.975	-7.66
846.146	-12.99
846.316	-6.95
846.486	21.04
846.656	55.23
846.827	39.83
846.997	36.59
847.167	78.8
847.337	28.35
847.507	-25.12
847.677	18.31
847.848	73.32
848.018	62.24
848.188	75.59
848.358	68.1
848.528	55.09
848.698	1.4
848.868	-82.9
849.038	-172.27
849.208	-56.66
849.378	-19
849.548	-6.67
849.718	3.1
849.887	22.55
850.057	-0.99
850.227	-44.01
850.397	-57.97
850.567	-144.6
850.737	-265.22
850.906	-691.25
851.076	-443.75
851.246	-130.89
851.415	36.52
851.585	0.49
851.755	-50.53
851.924	-16.11
852.094	-63.6
852.264	-129.65
852.433	-981.73
852.603	-122.03
852.772	3.75
852.942	16.54
853.111	-33.63
853.281	1.29
853.45	28.28
853.62	-67.01
853.789	-81.74
853.959	-13.93
854.128	-29.11
854.297	-80.62
854.467	-105.32
854.636	-132.84
854.805	-32.3
854.975	-46.03
855.144	-66.03
855.313	303.5
855.482	97.81
855.652	-133.45
855.821	-130.23
855.99	25.56
856.159	23.78
856.328	25.89
856.497	5.89
856.667	-6.74
856.836	-24.2
857.005	-60.44
857.174	-74.08
857.343	-116.98
857.512	-15.07
857.681	-84.69
857.85	-126.33
858.019	-37.57
858.188	-27.96
858.356	-55.83
858.525	-93.16
858.694	-50.55
858.863	-194.99
859.032	-114.88
859.201	-219.6
859.369	-183.93
859.538	-157.23
859.707	-128.46
859.876	-117.98
860.044	-110.39
860.213	15.28
860.382	-7.24
860.55	-2.29
860.719	22.19
860.888	53.61
861.056	1.81
861.225	-17.97
861.393	56.3
861.562	30.74
861.73	-79.3
861.899	-273.82
862.067	-1658.62
862.236	-131.75
862.404	-252.74
862.572	-135.2
862.741	-23.89
862.909	-32.41
863.078	-164.04
863.246	-104.6
863.414	-90.83
863.582	-77.7
863.751	-83.09
863.919	-68.46
864.087	-50.99
864.255	-73.66
864.424	-376.89
864.592	-65.87
864.76	-93.89
864.928	-404
865.096	-213.38
865.264	-166.04
865.432	-2375
865.6	-152
865.768	-112.82
865.936	-98.38
866.104	-85.75
866.272	-111.88
866.44	-474.02
866.608	647.83
866.776	368.12
866.944	4167.44
867.112	-747.88
867.28	-286.61
867.448	-147.54
867.615	-57.59
867.783	-22.05
867.951	-30.31
868.119	40.72
868.286	66.62
868.454	-45.54
868.622	3.34
868.789	148.5
868.957	850
869.125	-2134.21
869.292	-76.9
869.46	-252.5
869.627	-49.57
869.795	-79.37
869.963	-20.28
870.13	-25.3
870.298	4.47
870.465	-103.6
870.632	-89.83
870.8	-51.17
870.967	-60.9
871.135	-128.15
871.302	-82.27
871.469	-146.24
871.637	-221.35
871.804	-185.93
871.971	-230.83
872.139	-769.3
872.306	-106.74
872.473	-125.79
872.64	-395.71
872.807	-69.48
872.975	66.62
873.142	-86.55
873.309	1202.7
873.476	98.88
873.643	105.34
873.81	19.08
873.977	37.63
874.144	52.12
874.311	-163.29
874.478	-205.59
874.645	-199.48
874.812	-131.54
874.979	-49.35
875.146	-17.94
875.313	-16.08
875.48	38.97
875.647	12.22
875.813	-35.53
875.98	-11.56
876.147	-38.03
876.314	-122.65
876.481	1099.17
876.647	-1315.73
876.814	556.99
876.981	-82.31
877.147	0.34
877.314	26.53
877.481	43.52
877.647	40
877.814	-1.48
877.98	-82.36
878.147	-46.23
878.314	-9.09
878.48	-76.27
878.647	-58.17
878.813	29.17
878.979	28.72
879.146	-17.78
879.312	-7.96
879.479	-42.52
879.645	-114.47
879.811	-301.26
879.978	-522.9
880.144	-171.35
880.31	-53.98
880.477	-290.27
880.643	-416.55
880.809	-238.05
880.975	-160.62
881.142	-1244.55
881.308	-208.79
881.474	-57.74
881.64	-59.03
881.806	-159.63
881.972	-27.82
882.138	-23.18
882.304	-90.2
882.47	-164.99
882.636	-674.59
882.802	-297.45
882.968	-40.68
883.134	-23.76
883.3	-48.65
883.466	8.92
883.632	65.37
883.798	8.62
883.964	2.14
884.129	3.64
884.295	14.61
884.461	-103.26
884.627	-101.19
884.793	-126.88
884.958	-53.03
885.124	-157.63
885.29	-182.79
885.455	-322.33
885.621	-87.85
885.787	-174.55
885.952	-91.22
886.118	-109.45
886.283	-90.31
886.449	-176.61
886.614	-156.61
886.78	-351.15
886.945	1363.93
887.111	-633.53
887.276	-595.45
887.442	-895.45
887.607	-324.53
887.773	-247.77
887.938	-236.03
888.103	-244.58
888.269	-200
888.434	-388.11
888.599	-160.19
888.764	-31.25
888.93	13.3
889.095	-11.38
889.26	-13.63
889.425	43.8
889.59	96.17
889.756	15.89
889.921	45.74
890.086	98.75
890.251	57.36
890.416	-125.86
890.581	-1008.06
890.746	211.43
890.911	564.33
891.076	189.1
891.241	-470.9
891.406	-48.05
891.571	-93.36
891.736	-352.75
891.901	-669.91
892.065	409.89
892.23	98.49
892.395	203.33
892.56	256.94
892.725	-368.75
892.889	-1539.02
893.054	-276.66
893.219	-82.86
893.384	-32.7
893.548	-58.28
893.713	-74.96
893.878	-20.56
