Data from Ofra_PS_T2_2A_8CX24_Reflection_3.txt Node
Date: Wed Jul 21 17:18:53 EDT 2021
User: Adam
Spectrometer: FLMT01687
Trigger mode: 0
Integration Time (sec): 1.100000E0
Scans to average: 2
Electric dark correction enabled: true
Nonlinearity correction enabled: false
Boxcar width: 2
XAxis mode: Wavelengths
Number of Pixels in Spectrum: 3648
>>>>>Begin Spectral Data<<<<<
179.494	584.8
179.716	686.59
179.937	657.06
180.158	641.5
180.38	986.87
180.601	184.53
180.823	17.9
181.044	-219.91
181.265	-91.91
181.486	-0.54
181.708	135.33
181.929	969.39
182.15	-690.14
182.372	44.26
182.593	-76.66
182.814	-33.22
183.035	11.83
183.257	32.51
183.478	-82.55
183.699	-30.8
183.92	-34.98
184.141	-39.72
184.363	-124.54
184.584	-31.97
184.805	2.36
185.026	24.59
185.247	31.99
185.468	22.89
185.689	19.78
185.91	20.53
186.132	21.14
186.353	25.49
186.574	82.29
186.795	46.98
187.016	-17.66
187.237	-30.65
187.458	-81.14
187.679	-93.49
187.9	-81.02
188.121	-50.7
188.342	-34.59
188.563	23.2
188.784	59.44
189.005	67.25
189.226	115.7
189.447	89.46
189.667	-9.22
189.888	-251.72
190.109	-749.35
190.33	-366.45
190.551	-919.47
190.772	-167.31
190.993	-166.35
191.214	-160.04
191.434	-135.06
191.655	-35.09
191.876	-119.54
192.097	-133.92
192.318	-209.84
192.538	-309.09
192.759	-224.56
192.98	-59.68
193.201	-39.79
193.421	-23.56
193.642	-1.25
193.863	8.34
194.083	-36.54
194.304	-29.21
194.525	-23.05
194.745	-38.79
194.966	-56.31
195.187	-68.92
195.407	-114.03
195.628	-190.69
195.848	-215.69
196.069	-247.3
196.29	-145.31
196.51	-131.26
196.731	-90.88
196.951	-90.01
197.172	-116.01
197.392	-173.69
197.613	-153.9
197.833	-179.1
198.054	-151.29
198.274	-72.15
198.495	-100.16
198.715	-66.03
198.936	-75.64
199.156	-54.8
199.377	-140.08
199.597	-110.07
199.817	-135.1
200.038	-67.4
200.258	-140.4
200.479	-85.79
200.699	-58.48
200.919	19.2
201.14	-1.85
201.36	-2.19
201.58	37.41
201.801	53.7
202.021	17.59
202.241	6.95
202.461	-1.03
202.682	-120.83
202.902	-199.6
203.122	-122.49
203.342	-117.94
203.563	-57.71
203.783	-13.42
204.003	-45.77
204.223	-40.09
204.443	20.31
204.663	-17.07
204.884	-3.7
205.104	47.56
205.324	76.95
205.544	56.92
205.764	76.92
205.984	72.55
206.204	57.62
206.424	46.91
206.644	26.67
206.864	39.79
207.084	41.25
207.304	60.93
207.525	-98.75
207.745	2.63
207.964	1.73
208.184	-42.52
208.404	-109.53
208.624	-93.16
208.844	-115.83
209.064	-439.86
209.284	-492.23
209.504	-237.15
209.724	-65.76
209.944	-41.12
210.164	-0.96
210.384	-0.64
210.604	-4.82
210.823	-61.24
211.043	-70.52
211.263	-49.24
211.483	-48.99
211.703	-101.45
211.922	-83.41
212.142	-16.83
212.362	10.75
212.582	8.53
212.801	-1.28
213.021	-13.97
213.241	-37.99
213.461	-121.58
213.68	-137.83
213.9	-84.05
214.12	-41.25
214.339	-106.56
214.559	-62.75
214.779	-1.41
214.998	-1.2
215.218	-70.5
215.438	-37.46
215.657	-36.14
215.877	-55.17
216.096	-34.68
216.316	-18.66
216.535	-37.34
216.755	-31.01
216.974	-135.12
217.194	-176.89
217.413	-152.84
217.633	-129.99
217.852	-196.55
218.072	-82.92
218.291	-46.25
218.511	-9.6
218.73	-31.73
218.95	-43
219.169	-35.64
219.389	-70.79
219.608	-49.84
219.827	-44.47
220.047	-25.2
220.266	-30.18
220.485	-35.79
220.705	-38.61
220.924	-45.35
221.143	0.79
221.363	-18.43
221.582	-1.93
221.801	3.27
222.021	32.94
222.24	-32.4
222.459	10.67
222.678	-1.92
222.897	-70.89
223.117	-127.94
223.336	-50
223.555	-39.23
223.774	20.9
223.993	59.87
224.213	94.11
224.432	21.13
224.651	56.06
224.87	7.18
225.089	21.78
225.308	17.46
225.527	36.37
225.746	24.86
225.965	12.23
226.184	-27.56
226.404	-19.19
226.623	-52.87
226.842	-51.44
227.061	-6.91
227.28	-2.15
227.499	-27.11
227.718	2.02
227.936	-9.2
228.155	-17.18
228.374	-14.93
228.593	2.82
228.812	-7.49
229.031	-16.57
229.25	-67.17
229.469	-83.45
229.688	-66.83
229.907	-23.15
230.125	1.31
230.344	35.41
230.563	42.6
230.782	43.37
231.001	-32.23
231.22	-24.81
231.438	-8.75
231.657	-5.71
231.876	-22.7
232.095	28.51
232.313	27.18
232.532	-33.18
232.751	-70.76
232.969	-56.41
233.188	-124.37
233.407	-51.74
233.625	-31.09
233.844	-35.74
234.063	-36.78
234.281	-33.48
234.5	-48.29
234.719	-28.44
234.937	-13.36
235.156	-2.28
235.374	-4.82
235.593	-15.86
235.811	-26.61
236.03	-24.67
236.249	-82.13
236.467	-47.97
236.686	-17.71
236.904	-6.49
237.123	-46.89
237.341	-46.48
237.559	-36.51
237.778	-65.39
237.996	-90.98
238.215	-21.07
238.433	3.52
238.652	-16.99
238.87	-25.03
239.088	-12.02
239.307	-20.56
239.525	-34.75
239.743	-51.74
239.962	-51.29
240.18	-96.75
240.398	-135.88
240.617	-124.16
240.835	-79.18
241.053	-44.42
241.271	17.09
241.49	38.87
241.708	16.06
241.926	-49.81
242.144	-51.96
242.363	-113.38
242.581	-199.31
242.799	-115.06
243.017	-53.21
243.235	-65
243.453	-30.69
243.672	-7.8
243.89	-19.27
244.108	-20.83
244.326	0.59
244.544	-4.75
244.762	4.31
244.98	19.39
245.198	8.65
245.416	-25.04
245.634	-20.5
245.852	-44.48
246.07	-59.09
246.288	-33.16
246.506	-44.21
246.724	-28.8
246.942	-16.48
247.16	6.33
247.378	-5.41
247.596	9.31
247.814	9.18
248.032	-33.66
248.25	-41.55
248.468	-33.24
248.685	-22.84
248.903	8.42
249.121	24.19
249.339	-4.22
249.557	-5.85
249.775	-2.29
249.992	-81.77
250.21	-72.72
250.428	-44.13
250.646	-67.67
250.863	-90.83
251.081	-46.1
251.299	-41.38
251.517	-46.2
251.734	-24.58
251.952	-24.4
252.17	-15.06
252.387	-8.24
252.605	-15.51
252.823	-10.83
253.04	-1.7
253.258	15.35
253.475	4.15
253.693	30.32
253.911	35.66
254.128	53.46
254.346	25.98
254.563	17.01
254.781	-10.91
254.998	-55.87
255.216	-80.26
255.433	-78.58
255.651	-33.64
255.868	-10.13
256.086	43.5
256.303	19.02
256.521	26.68
256.738	-6.79
256.956	-30.27
257.173	-84.55
257.39	-87.85
257.608	-119.57
257.825	-30.78
258.043	-10.16
258.26	23.25
258.477	66.33
258.695	61.96
258.912	-29.13
259.129	-14.58
259.346	-66.78
259.564	-112.61
259.781	-127.88
259.998	-49.78
260.216	-35.65
260.433	34.69
260.65	39.54
260.867	54.71
261.084	40.93
261.302	29.03
261.519	15.53
261.736	-26.75
261.953	-40.48
262.17	-9.82
262.387	-49.2
262.604	-98.88
262.822	-100.75
263.039	-73.6
263.256	-134.84
263.473	-81.17
263.69	-36.59
263.907	-0.98
264.124	9.54
264.341	11.87
264.558	10.3
264.775	16.48
264.992	13.36
265.209	5.86
265.426	34.39
265.643	29.52
265.86	46.99
266.077	54.75
266.294	43.26
266.51	1.48
266.727	-26.19
266.944	-26.77
267.161	-50.31
267.378	-55.21
267.595	-16.11
267.812	-23.88
268.028	-62.17
268.245	-21.55
268.462	-24.73
268.679	-44.55
268.896	11
269.112	0.59
269.329	1.8
269.546	-2.37
269.763	-10.18
269.979	-31.53
270.196	-11.82
270.413	-53.05
270.629	-60.45
270.846	-69.58
271.063	-56.66
271.279	-89.56
271.496	-77.26
271.712	-41.12
271.929	-16.52
272.146	-37.36
272.362	-36.64
272.579	-14.06
272.795	-10.02
273.012	-20.22
273.228	-17.51
273.445	-24.57
273.661	-38.22
273.878	-100.18
274.094	-80.23
274.311	-122.86
274.527	-25.71
274.744	-38.3
274.96	-23.14
275.177	-11.61
275.393	14.5
275.609	4.41
275.826	26.15
276.042	26.5
276.259	3.07
276.475	18.01
276.691	5.05
276.908	-14.28
277.124	3.45
277.34	11.17
277.557	-2.73
277.773	-14.12
277.989	-13.05
278.205	-27.04
278.422	-10.8
278.638	-17.94
278.854	1.66
279.07	-5.53
279.286	-15.35
279.503	-48.05
279.719	-58.07
279.935	-99.7
280.151	-79.36
280.367	-46.96
280.583	-68.47
280.799	-39.79
281.016	-53.64
281.232	-33.3
281.448	-37.77
281.664	2.52
281.88	-10.8
282.096	12.41
282.312	34.04
282.528	38.37
282.744	30.87
282.96	8.25
283.176	2.12
283.392	3.41
283.608	-2.38
283.824	-6.96
284.04	7.04
284.256	15.03
284.471	-7.52
284.687	-9.03
284.903	12.26
285.119	29.36
285.335	9.79
285.551	12.78
285.767	-2.54
285.982	-27.41
286.198	-72.4
286.414	-7.55
286.63	0.61
286.846	31.03
287.061	14.35
287.277	43.46
287.493	5.87
287.709	22.03
287.924	-2.56
288.14	35.64
288.356	34.88
288.571	46.79
288.787	18.73
289.003	8.92
289.218	-10.85
289.434	-47.21
289.65	-36.61
289.865	-39.61
290.081	-10.61
290.296	-9.31
290.512	-15.29
290.727	-38.1
290.943	-48.62
291.159	-52.1
291.374	-47.97
291.59	-47.53
291.805	-39.33
292.021	-25.3
292.236	-32.55
292.451	-38.49
292.667	-27.11
292.882	-17.74
293.098	-19.77
293.313	-49.3
293.529	-56.07
293.744	-81.13
293.959	-85.02
294.175	-85.54
294.39	-33.43
294.605	-12.97
294.821	15.32
295.036	17.55
295.251	25.92
295.467	13.42
295.682	-1.18
295.897	-66.64
296.112	-72.81
296.328	-56.24
296.543	-94.92
296.758	-65
296.973	3.06
297.188	37.24
297.404	9.12
297.619	-4.77
297.834	-23.18
298.049	-48.75
298.264	-93.79
298.479	-29.24
298.694	-7.8
298.909	10.12
299.125	1.7
299.34	7.6
299.555	-13.03
299.77	4.97
299.985	-40.37
300.2	-77.39
300.415	-106.21
300.63	-77.05
300.845	-86.5
301.06	-86.89
301.275	-47.84
301.49	-12.67
301.704	-21.14
301.919	-41.93
302.134	-48.76
302.349	-47.96
302.564	-133.52
302.779	-163.69
302.994	-114.42
303.209	-78.45
303.423	-30.84
303.638	34.43
303.853	-10.86
304.068	-19.15
304.283	-16.26
304.497	-19.56
304.712	-30.75
304.927	-0.49
305.142	-5.69
305.356	10.02
305.571	8.69
305.786	-17.51
306	-60.37
306.215	-59.54
306.43	-109.77
306.644	-154.1
306.859	-77.79
307.074	-30.23
307.288	-53.86
307.503	-37.36
307.717	-30.25
307.932	-33.41
308.147	-35.63
308.361	-13.06
308.576	-28.12
308.79	-69.28
309.005	-61.62
309.219	-54.54
309.434	-60.91
309.648	-44.39
309.863	-15
310.077	-24.72
310.292	-26.56
310.506	-28.05
310.72	-11.78
310.935	-16.11
311.149	-11.55
311.364	17.38
311.578	24.28
311.792	16.11
312.007	21.89
312.221	4.79
312.435	-2.12
312.649	-11.74
312.864	-6.4
313.078	18.22
313.292	96.15
313.507	49.14
313.721	61.33
313.935	35.41
314.149	17.19
314.363	-9.46
314.578	-5.54
314.792	0.79
315.006	-10.12
315.22	4.34
315.434	19.28
315.648	31.03
315.862	33.74
316.077	28.34
316.291	7.49
316.505	7.43
316.719	-4.98
316.933	-31.7
317.147	-20.49
317.361	-62.97
317.575	-102.39
317.789	-131.87
318.003	-195.03
318.217	-154.59
318.431	-46.47
318.645	3.81
318.859	-5.77
319.073	23.81
319.287	-1.08
319.5	-42.66
319.714	-94.11
319.928	-114.06
320.142	-151.68
320.356	-68.68
320.57	-39.6
320.784	-32.75
320.997	-56.64
321.211	-39.66
321.425	-118.58
321.639	-138.53
321.853	-68.18
322.066	-29.97
322.28	-29.91
322.494	-5.31
322.707	19.39
322.921	0.99
323.135	-13.27
323.349	6.53
323.562	-22.81
323.776	-32.12
323.989	-34.56
324.203	-50.59
324.417	-71.31
324.63	-69.64
324.844	-57.3
325.057	-40.89
325.271	-15.19
325.485	6.4
325.698	21.23
325.912	29.6
326.125	2.34
326.339	9.49
326.552	-6.02
326.766	3.65
326.979	10.19
327.193	42.68
327.406	25.39
327.619	17.72
327.833	24.2
328.046	-2.52
328.26	-32.53
328.473	-19.36
328.686	-56.79
328.9	-49.49
329.113	-15.68
329.326	-34.85
329.54	-16.34
329.753	-21.51
329.966	-57.83
330.179	-65.64
330.393	-37.52
330.606	-24.99
330.819	1.68
331.032	15.95
331.246	22.19
331.459	41.95
331.672	30.05
331.885	27.08
332.098	10.59
332.311	-13.57
332.525	-67.4
332.738	-66.72
332.951	-39.97
333.164	-7.43
333.377	16.3
333.59	43.13
333.803	44.67
334.016	27.24
334.229	25.28
334.442	18.98
334.655	27.94
334.868	33.22
335.081	42.17
335.294	10.65
335.507	-5.34
335.72	-21.54
335.933	-29.43
336.146	-48.76
336.359	-44.5
336.572	-67.39
336.785	-108.51
336.997	-95.58
337.21	-70.42
337.423	-62.29
337.636	-45.08
337.849	-15.09
338.062	-24.98
338.274	-15.13
338.487	-23.53
338.7	-32.68
338.913	-72.16
339.125	-92.6
339.338	-160.25
339.551	-119.13
339.763	-82.89
339.976	-43.17
340.189	-26.63
340.402	-20.19
340.614	-43.43
340.827	-46.24
341.039	-74.69
341.252	-62.84
341.465	-26.08
341.677	-11.62
341.89	-39.93
342.102	6.72
342.315	-6.23
342.527	-33.83
342.74	-41.12
342.952	-7.06
343.165	-26.59
343.377	0.88
343.59	-9.12
343.802	7.37
344.015	-1.24
344.227	11.25
344.44	-2.41
344.652	9.29
344.864	-1.89
345.077	26.44
345.289	22.79
345.502	26.74
345.714	14.61
345.926	19.15
346.139	4.03
346.351	10.61
346.563	14.47
346.775	21.63
346.988	7.7
347.2	-19.49
347.412	-60.55
347.624	-78.44
347.837	-91.13
348.049	-66.4
348.261	-16.47
348.473	-12.55
348.685	-17.03
348.897	-11.41
349.11	-30.38
349.322	-55.42
349.534	-41.16
349.746	-43.21
349.958	-46.55
350.17	-28.41
350.382	-12.52
350.594	-19.65
350.806	-8.32
351.018	5.93
351.23	-14.79
351.442	-71.01
351.654	-63.32
351.866	-61.75
352.078	-53.69
352.29	-31.63
352.502	13.34
352.714	22.89
352.926	9.62
353.138	-1.16
353.35	-11.12
353.561	-19.74
353.773	-45.1
353.985	-23.19
354.197	-29.17
354.409	-22.43
354.621	-29.6
354.832	-15.44
355.044	-22.11
355.256	-25.44
355.468	-18.58
355.679	-17.37
355.891	-11.05
356.103	-27.63
356.314	-8.22
356.526	-13.29
356.738	7.71
356.949	3.28
357.161	21.09
357.373	8.97
357.584	3.71
357.796	-7.51
358.008	-17.05
358.219	-3.29
358.431	-10.43
358.642	6.93
358.854	6.29
359.065	2.48
359.277	-34.66
359.488	-34.75
359.7	-65.18
359.911	-79.4
360.123	-41.75
360.334	-48.45
360.546	-63.67
360.757	-65.52
360.969	-47.35
361.18	-64.02
361.391	-52.89
361.603	-52.16
361.814	-30.54
362.025	-33.52
362.237	-38.92
362.448	-7.75
362.659	7.71
362.871	1.6
363.082	-1.33
363.293	-4.43
363.504	-19.04
363.716	-37.2
363.927	-55.77
364.138	-80.33
364.349	-81.91
364.56	-82.64
364.772	-72.44
364.983	-41.74
365.194	-35.2
365.405	-13.06
365.616	17.58
365.827	20.46
366.038	-2.24
366.25	5.97
366.461	-36.62
366.672	-34.38
366.883	-13.23
367.094	3.46
367.305	-13.71
367.516	-0.96
367.727	-31.8
367.938	-53.18
368.149	-57.96
368.36	-30.83
368.571	-19.14
368.781	-33.39
368.992	-39.8
369.203	-53.88
369.414	-75.23
369.625	-86.13
369.836	-59.11
370.047	-87.03
370.258	-78.24
370.468	-74.49
370.679	-93.59
370.89	-97.72
371.101	-61.19
371.312	-54.81
371.522	-50
371.733	-30.74
371.944	-9.96
372.155	-5.65
372.365	-15.44
372.576	-18.45
372.787	-22.05
372.997	-52.01
373.208	-47.32
373.419	-11.32
373.629	-42.19
373.84	-43.83
374.05	-42.79
374.261	-36.56
374.472	-64.05
374.682	-1.12
374.893	1.4
375.103	40
375.314	29.17
375.524	27.91
375.735	14.81
375.945	26
376.156	-12.31
376.366	-5.54
376.577	-0.84
376.787	-8.99
376.997	-19.8
377.208	-8.59
377.418	-33.14
377.629	-27.83
377.839	-19.84
378.049	-15.76
378.26	2.43
378.47	16.44
378.68	5.96
378.89	-2.34
379.101	-4.89
379.311	-43.88
379.521	-72
379.732	-73.59
379.942	-60.98
380.152	-82.25
380.362	-46.07
380.572	-39.38
380.783	-25.73
380.993	-27.04
381.203	-17.46
381.413	-9.06
381.623	-6.84
381.833	2.15
382.043	-7.97
382.253	-13.39
382.463	-16.84
382.674	-22.13
382.884	-46.02
383.094	-37.46
383.304	-30.61
383.514	-32.31
383.724	-23.26
383.934	-22.98
384.144	-38.99
384.353	-41.72
384.563	-37.94
384.773	-28.99
384.983	-34.96
385.193	-12.54
385.403	-6.56
385.613	-5.41
385.823	-21.56
386.033	-7.2
386.242	-9.96
386.452	-15.59
386.662	-27.81
386.872	-13.47
387.082	-24.83
387.291	-34.36
387.501	-39.25
387.711	-25.1
387.921	-26.6
388.13	-20.34
388.34	-8.33
388.55	-7.62
388.759	-8.12
388.969	-5.84
389.179	-7.39
389.388	-7
389.598	3.19
389.807	-6.95
390.017	-9.05
390.227	-6.64
390.436	-11.97
390.646	-15.83
390.855	-9.89
391.065	-12.28
391.274	-13.85
391.484	-16.66
391.693	-13.04
391.903	-8.96
392.112	-0.07
392.322	3.31
392.531	9.81
392.74	7.46
392.95	2.13
393.159	-2.96
393.369	-3.23
393.578	-3.39
393.787	-3.28
393.997	-1.58
394.206	-2.46
394.415	-1.64
394.625	-2.2
394.834	-4.99
395.043	-3.11
395.252	0.51
395.462	2.17
395.671	3.76
395.88	4.9
396.089	5.06
396.298	2.45
396.508	1.78
396.717	0.68
396.926	2.7
397.135	2.4
397.344	3.11
397.553	2.72
397.762	3.75
397.971	2.41
398.181	2.53
398.39	2.07
398.599	2.02
398.808	2.14
399.017	3.63
399.226	5
399.435	6.34
399.644	6.93
399.853	5.71
400.062	4.84
400.27	4.16
400.479	3.69
400.688	2.57
400.897	3.12
401.106	3.29
401.315	2.93
401.524	2.89
401.733	3.46
401.941	3.86
402.15	4.12
402.359	3.84
402.568	4.2
402.777	4.46
402.985	4.1
403.194	3.93
403.403	4.23
403.612	3.55
403.82	3.28
404.029	3.4
404.238	3.21
404.446	3.42
404.655	3.38
404.864	3.43
405.072	3.27
405.281	3.72
405.489	3.45
405.698	3.64
405.906	3.75
406.115	3.79
406.324	3.36
406.532	3.5
406.741	3.62
406.949	3.47
407.158	3.46
407.366	3.57
407.574	3.55
407.783	3.53
407.991	3.47
408.2	3.67
408.408	3.69
408.617	3.58
408.825	3.45
409.033	3.55
409.242	3.62
409.45	3.66
409.658	3.49
409.867	3.73
410.075	3.59
410.283	3.39
410.491	3.22
410.7	3.32
410.908	3.2
411.116	3.5
411.324	3.51
411.533	3.58
411.741	3.81
411.949	3.86
412.157	3.52
412.365	3.44
412.573	3.43
412.781	3.39
412.99	3.18
413.198	3.38
413.406	3.38
413.614	3.3
413.822	3.09
414.03	3.11
414.238	2.88
414.446	2.96
414.654	2.86
414.862	2.93
415.07	3.05
415.278	3.28
415.486	3.08
415.694	3.17
415.902	3.03
416.109	2.85
416.317	2.84
416.525	2.69
416.733	2.69
416.941	2.79
417.149	2.79
417.357	2.63
417.564	2.91
417.772	3.08
417.98	3.01
418.188	2.99
418.395	3.16
418.603	3.37
418.811	3.05
419.019	3.06
419.226	3.2
419.434	3.23
419.642	2.78
419.849	2.87
420.057	2.9
420.265	2.83
420.472	2.51
420.68	2.56
420.887	2.43
421.095	2.48
421.302	2.47
421.51	2.72
421.717	2.85
421.925	3.13
422.132	2.98
422.34	2.65
422.547	2.66
422.755	2.7
422.962	2.46
423.17	2.34
423.377	2.67
423.585	2.71
423.792	2.53
423.999	2.56
424.207	2.58
424.414	2.56
424.621	2.51
424.829	2.59
425.036	2.67
425.243	2.96
425.451	2.78
425.658	2.53
425.865	2.67
426.072	2.62
426.28	2.73
426.487	2.72
426.694	2.87
426.901	2.65
427.108	2.71
427.315	2.5
427.523	2.89
427.73	2.8
427.937	2.73
428.144	2.53
428.351	2.51
428.558	2.51
428.765	2.46
428.972	2.54
429.179	2.9
429.386	3.29
429.593	2.99
429.8	2.9
430.007	3.1
430.214	2.98
430.421	2.57
430.628	2.61
430.835	2.64
431.042	2.63
431.249	2.72
431.456	2.79
431.662	2.92
431.869	3.16
432.076	3.16
432.283	3.21
432.49	3.22
432.697	3.18
432.903	2.85
433.11	2.75
433.317	2.69
433.524	2.94
433.73	2.88
433.937	3.31
434.144	3.19
434.35	3.27
434.557	3.03
434.764	3.07
434.97	2.86
435.177	3.09
435.384	2.87
435.59	2.96
435.797	3.1
436.003	3.08
436.21	3.06
436.416	3.33
436.623	3.25
436.829	3.3
437.036	3.5
437.242	3.49
437.449	3.37
437.655	3.48
437.862	3.4
438.068	3.31
438.275	3.48
438.481	3.67
438.687	3.55
438.894	3.51
439.1	3.48
439.307	3.61
439.513	3.4
439.719	3.54
439.926	3.7
440.132	3.77
440.338	3.6
440.544	3.81
440.751	3.68
440.957	3.67
441.163	3.59
441.369	3.67
441.575	3.47
441.782	3.52
441.988	3.32
442.194	3.32
442.4	3.26
442.606	3.45
442.812	3.47
443.018	3.67
443.224	3.8
443.431	3.9
443.637	3.78
443.843	3.69
444.049	3.67
444.255	3.52
444.461	3.47
444.667	3.46
444.873	3.67
445.079	3.71
445.284	3.9
445.49	3.74
445.696	3.61
445.902	3.54
446.108	3.48
446.314	3.37
446.52	3.46
446.726	3.72
446.931	3.63
447.137	3.66
447.343	3.65
447.549	3.59
447.755	3.48
447.96	3.61
448.166	3.55
448.372	3.52
448.578	3.66
448.783	3.7
448.989	3.81
449.195	4.02
449.4	4.12
449.606	4.04
449.812	3.9
450.017	3.83
450.223	3.6
450.428	3.49
450.634	3.61
450.84	3.86
451.045	3.83
451.251	3.85
451.456	4.16
451.662	4.16
451.867	4.08
452.073	4.06
452.278	4.11
452.483	4.12
452.689	4.07
452.894	4.07
453.1	4.11
453.305	4.13
453.51	3.97
453.716	3.93
453.921	4.03
454.127	3.93
454.332	3.85
454.537	3.82
454.742	3.79
454.948	3.72
455.153	3.86
455.358	3.93
455.563	3.99
455.769	4.13
455.974	4.08
456.179	3.89
456.384	3.92
456.589	3.86
456.795	3.64
457	3.61
457.205	3.82
457.41	3.77
457.615	3.78
457.82	3.95
458.025	3.99
458.23	3.89
458.435	3.99
458.64	3.92
458.845	3.91
459.05	3.87
459.255	3.86
459.46	3.79
459.665	3.76
459.87	3.78
460.075	3.77
460.28	3.74
460.485	3.83
460.69	3.92
460.895	3.79
461.099	3.8
461.304	3.97
461.509	3.96
461.714	3.91
461.919	4.09
462.123	3.98
462.328	3.96
462.533	3.84
462.738	3.94
462.942	3.79
463.147	3.9
463.352	3.93
463.556	4.04
463.761	4.05
463.966	4.22
464.17	4.24
464.375	4.08
464.58	4.12
464.784	4.03
464.989	3.92
465.193	3.91
465.398	3.95
465.602	4
465.807	3.93
466.011	4.02
466.216	4.09
466.42	4.12
466.625	4.16
466.829	4.27
467.034	4.24
467.238	4.39
467.443	4.31
467.647	4.08
467.851	4.17
468.056	4.25
468.26	4.12
468.464	4.23
468.669	4.44
468.873	4.61
469.077	4.53
469.282	4.6
469.486	4.62
469.69	4.6
469.894	4.34
470.099	4.5
470.303	4.57
470.507	4.55
470.711	4.44
470.915	4.49
471.119	4.32
471.324	4.2
471.528	4.22
471.732	4.28
471.936	4.31
472.14	4.4
472.344	4.52
472.548	4.57
472.752	4.75
472.956	4.99
473.16	5
473.364	4.81
473.568	4.77
473.772	4.73
473.976	4.53
474.18	4.48
474.384	4.62
474.588	4.65
474.792	4.52
474.995	4.56
475.199	4.69
475.403	4.69
475.607	4.64
475.811	4.63
476.015	4.7
476.218	4.75
476.422	4.66
476.626	4.82
476.83	4.96
477.033	4.86
477.237	4.75
477.441	4.84
477.644	4.77
477.848	4.75
478.052	4.73
478.255	4.74
478.459	4.77
478.663	4.96
478.866	4.98
479.07	5.03
479.273	5.19
479.477	5.24
479.681	5.13
479.884	5.15
480.088	5.16
480.291	5.08
480.495	5.09
480.698	5.05
480.901	5.1
481.105	5.2
481.308	5.23
481.512	5.14
481.715	5.22
481.919	5.21
482.122	5.18
482.325	5.15
482.529	5.2
482.732	5.16
482.935	5.06
483.138	4.99
483.342	5.1
483.545	5.14
483.748	5.15
483.952	5.27
484.155	5.44
484.358	5.43
484.561	5.36
484.764	5.38
484.967	5.45
485.171	5.49
485.374	5.4
485.577	5.57
485.78	5.66
485.983	5.63
486.186	5.49
486.389	5.53
486.592	5.42
486.795	5.37
486.998	5.31
487.201	5.39
487.404	5.47
487.607	5.54
487.81	5.6
488.013	5.68
488.216	5.6
488.419	5.56
488.622	5.49
488.825	5.38
489.028	5.29
489.231	5.29
489.433	5.2
489.636	5.17
489.839	5.19
490.042	5.2
490.245	5.17
490.447	5.3
490.65	5.3
490.853	5.35
491.056	5.4
491.258	5.48
491.461	5.44
491.664	5.52
491.866	5.48
492.069	5.54
492.272	5.49
492.474	5.52
492.677	5.56
492.879	5.62
493.082	5.67
493.285	5.8
493.487	5.79
493.69	5.62
493.892	5.58
494.095	5.45
494.297	5.4
494.5	5.46
494.702	5.56
494.905	5.64
495.107	5.69
495.309	5.69
495.512	5.7
495.714	5.81
495.917	5.81
496.119	5.88
496.321	5.98
496.524	6.01
496.726	5.97
496.928	5.96
497.13	5.88
497.333	5.8
497.535	5.81
497.737	5.8
497.939	5.85
498.142	5.93
498.344	5.92
498.546	5.84
498.748	5.89
498.95	6.02
499.152	5.96
499.355	6.02
499.557	6.13
499.759	6.23
499.961	6.08
500.163	6.15
500.365	6.14
500.567	6.22
500.769	6.11
500.971	6.21
501.173	6.16
501.375	6.2
501.577	6.1
501.779	6.11
501.981	6.08
502.183	6.1
502.385	6.07
502.587	6.02
502.788	6.09
502.99	6.07
503.192	6.13
503.394	6.12
503.596	6.17
503.798	6.2
503.999	6.31
504.201	6.32
504.403	6.37
504.605	6.41
504.806	6.37
505.008	6.36
505.21	6.45
505.411	6.48
505.613	6.5
505.815	6.52
506.016	6.56
506.218	6.6
506.42	6.62
506.621	6.65
506.823	6.7
507.024	6.62
507.226	6.51
507.427	6.48
507.629	6.54
507.83	6.58
508.032	6.66
508.233	6.82
508.435	6.88
508.636	6.87
508.838	6.81
509.039	6.79
509.24	6.76
509.442	6.8
509.643	6.78
509.845	6.81
510.046	6.89
510.247	6.94
510.448	6.92
510.65	7
510.851	7.12
511.052	7.07
511.254	6.99
511.455	7.09
511.656	7.1
511.857	7.13
512.058	7.15
512.26	7.2
512.461	7.11
512.662	7.13
512.863	7
513.064	7.04
513.265	7.08
513.466	7.15
513.667	7.12
513.868	7.2
514.069	7.26
514.27	7.37
514.471	7.34
514.672	7.41
514.873	7.39
515.074	7.43
515.275	7.26
515.476	7.3
515.677	7.28
515.878	7.46
516.079	7.34
516.28	7.47
516.481	7.57
516.682	7.64
516.882	7.52
517.083	7.62
517.284	7.5
517.485	7.44
517.686	7.36
517.886	7.32
518.087	7.38
518.288	7.49
518.488	7.44
518.689	7.49
518.89	7.47
519.091	7.44
519.291	7.39
519.492	7.5
519.692	7.59
519.893	7.73
520.094	7.7
520.294	7.76
520.495	7.75
520.695	7.73
520.896	7.69
521.096	7.77
521.297	7.81
521.497	7.86
521.698	7.81
521.898	7.81
522.099	7.79
522.299	7.86
522.499	7.82
522.7	7.93
522.9	7.94
523.101	8.07
523.301	8.05
523.501	8.02
523.702	8.01
523.902	8.1
524.102	8.05
524.302	8
524.503	8.1
524.703	8.15
524.903	8.12
525.103	8.08
525.304	8.21
525.504	8.25
525.704	8.26
525.904	8.26
526.104	8.29
526.304	8.22
526.504	8.22
526.705	8.17
526.905	8.25
527.105	8.26
527.305	8.29
527.505	8.21
527.705	8.23
527.905	8.25
528.105	8.3
528.305	8.23
528.505	8.34
528.705	8.43
528.905	8.35
529.105	8.33
529.304	8.46
529.504	8.53
529.704	8.45
529.904	8.5
530.104	8.55
530.304	8.65
530.503	8.56
530.703	8.51
530.903	8.52
531.103	8.57
531.303	8.43
531.502	8.5
531.702	8.68
531.902	8.74
532.101	8.7
532.301	8.75
532.501	8.8
532.7	8.78
532.9	8.79
533.1	8.83
533.299	8.87
533.499	8.91
533.698	8.87
533.898	8.85
534.097	8.84
534.297	8.95
534.496	8.92
534.696	8.99
534.895	9.1
535.095	9.21
535.294	9.14
535.494	9.1
535.693	9.14
535.892	9.15
536.092	9.08
536.291	9.08
536.491	9.21
536.69	9.25
536.889	9.17
537.088	9.21
537.288	9.34
537.487	9.32
537.686	9.36
537.886	9.45
538.085	9.49
538.284	9.54
538.483	9.58
538.682	9.63
538.882	9.66
539.081	9.72
539.28	9.64
539.479	9.62
539.678	9.61
539.877	9.67
540.076	9.67
540.275	9.72
540.474	9.86
540.673	9.89
540.872	9.9
541.071	9.97
541.27	10.01
541.469	9.97
541.668	9.96
541.867	9.99
542.066	10.05
542.265	10.1
542.464	10.16
542.663	10.21
542.862	10.3
543.06	10.35
543.259	10.39
543.458	10.4
543.657	10.46
543.856	10.48
544.054	10.44
544.253	10.43
544.452	10.44
544.651	10.53
544.849	10.54
545.048	10.64
545.247	10.71
545.445	10.84
545.644	10.85
545.843	10.91
546.041	10.95
546.24	11.06
546.438	11.23
546.637	11.26
546.836	11.4
547.034	11.49
547.233	11.53
547.431	11.42
547.63	11.48
547.828	11.44
548.027	11.46
548.225	11.43
548.423	11.49
548.622	11.63
548.82	11.64
549.019	11.65
549.217	11.83
549.415	11.88
549.614	11.88
549.812	11.94
550.01	12.03
550.209	12.01
550.407	12.12
550.605	12.16
550.803	12.32
551.002	12.4
551.2	12.52
551.398	12.57
551.596	12.72
551.794	12.77
551.993	12.84
552.191	12.88
552.389	13.02
552.587	13.04
552.785	13.11
552.983	13.21
553.181	13.34
553.379	13.39
553.577	13.42
553.775	13.51
553.973	13.59
554.171	13.69
554.369	13.74
554.567	13.89
554.765	13.95
554.963	13.96
555.161	13.89
555.359	14
555.557	14.1
555.755	14.2
555.952	14.4
556.15	14.51
556.348	14.62
556.546	14.72
556.744	14.74
556.941	14.75
557.139	14.92
557.337	14.91
557.535	14.89
557.732	15.02
557.93	15.22
558.128	15.27
558.325	15.4
558.523	15.47
558.721	15.64
558.918	15.63
559.116	15.68
559.313	15.8
559.511	15.97
559.708	15.99
559.906	16.1
560.104	16.2
560.301	16.33
560.498	16.45
560.696	16.56
560.893	16.61
561.091	16.73
561.288	16.82
561.486	16.93
561.683	17.06
561.88	17.15
562.078	17.21
562.275	17.29
562.473	17.3
562.67	17.37
562.867	17.59
563.064	17.82
563.262	17.85
563.459	17.97
563.656	18.17
563.853	18.21
564.051	18.23
564.248	18.38
564.445	18.53
564.642	18.56
564.839	18.73
565.036	18.87
565.234	19.11
565.431	19.19
565.628	19.27
565.825	19.4
566.022	19.51
566.219	19.54
566.416	19.66
566.613	19.75
566.81	19.81
567.007	19.78
567.204	19.82
567.401	19.84
567.598	19.88
567.795	19.9
567.991	20.04
568.188	20.11
568.385	20.24
568.582	20.4
568.779	20.55
568.976	20.7
569.172	20.85
569.369	20.85
569.566	20.82
569.763	20.87
569.96	20.88
570.156	20.85
570.353	20.88
570.55	20.96
570.746	20.92
570.943	20.99
571.14	21.1
571.336	21.3
571.533	21.46
571.729	21.53
571.926	21.55
572.123	21.61
572.319	21.55
572.516	21.5
572.712	21.61
572.909	21.63
573.105	21.79
573.302	21.91
573.498	22.03
573.695	22.03
573.891	22.15
574.087	22.03
574.284	21.98
574.48	21.9
574.677	21.97
574.873	21.96
575.069	22.08
575.266	22.14
575.462	22.22
575.658	22.3
575.854	22.36
576.051	22.33
576.247	22.31
576.443	22.31
576.639	22.23
576.835	22.17
577.032	22.18
577.228	22.37
577.424	22.44
577.62	22.35
577.816	22.41
578.012	22.44
578.208	22.33
578.404	22.32
578.6	22.5
578.796	22.48
578.993	22.51
579.189	22.46
579.384	22.37
579.58	22.26
579.776	22.26
579.972	22.17
580.168	22.16
580.364	22.19
580.56	22.25
580.756	22.28
580.952	22.25
581.148	22.34
581.343	22.42
581.539	22.46
581.735	22.44
581.931	22.49
582.127	22.47
582.322	22.42
582.518	22.41
582.714	22.45
582.909	22.46
583.105	22.36
583.301	22.29
583.496	22.25
583.692	22.22
583.888	22.21
584.083	22.36
584.279	22.41
584.474	22.44
584.67	22.48
584.866	22.47
585.061	22.24
585.257	22.27
585.452	22.26
585.648	22.17
585.843	22.17
586.039	22.27
586.234	22.24
586.429	22.17
586.625	22.29
586.82	22.19
587.015	22.24
587.211	22.18
587.406	22.26
587.601	22.18
587.797	22.3
587.992	22.28
588.187	22.39
588.383	22.37
588.578	22.4
588.773	22.41
588.968	22.47
589.163	22.41
589.359	22.4
589.554	22.44
589.749	22.49
589.944	22.47
590.139	22.54
590.334	22.6
590.529	22.53
590.724	22.56
590.919	22.66
591.114	22.71
591.309	22.79
591.504	22.85
591.699	22.87
591.894	22.94
592.089	22.89
592.284	22.87
592.479	22.98
592.674	23.07
592.869	23.13
593.064	23.36
593.259	23.52
593.454	23.6
593.648	23.5
593.843	23.52
594.038	23.46
594.233	23.39
594.428	23.42
594.622	23.63
594.817	23.77
595.012	23.87
595.206	23.99
595.401	23.99
595.596	23.99
595.79	23.97
595.985	24.09
596.18	24.21
596.374	24.38
596.569	24.53
596.763	24.49
596.958	24.54
597.153	24.55
597.347	24.47
597.542	24.54
597.736	24.68
597.931	24.72
598.125	24.86
598.319	25.06
598.514	25.08
598.708	25.19
598.903	25.2
599.097	25.21
599.291	25.26
599.486	25.27
599.68	25.3
599.874	25.32
600.069	25.35
600.263	25.3
600.457	25.37
600.651	25.45
600.846	25.53
601.04	25.6
601.234	25.67
601.428	25.74
601.622	25.72
601.817	25.72
602.011	25.74
602.205	25.82
602.399	25.75
602.593	25.88
602.787	26
602.981	25.9
603.175	25.91
603.369	25.89
603.563	25.86
603.757	25.84
603.951	25.95
604.145	25.93
604.339	26.05
604.533	25.86
604.727	25.79
604.921	25.7
605.115	25.69
605.309	25.69
605.502	25.75
605.696	25.75
605.89	25.83
606.084	25.67
606.278	25.49
606.471	25.44
606.665	25.41
606.859	25.27
607.053	25.27
607.246	25.25
607.44	25.25
607.634	25.17
607.827	25.13
608.021	24.99
608.214	24.97
608.408	24.84
608.602	24.8
608.795	24.69
608.989	24.73
609.182	24.6
609.376	24.62
609.569	24.49
609.763	24.38
609.956	24.27
610.15	24.22
610.343	24.07
610.537	24.01
610.73	24.08
610.923	24.06
611.117	24
611.31	24.03
611.504	23.98
611.697	23.83
611.89	23.74
612.083	23.74
612.277	23.62
612.47	23.49
612.663	23.46
612.856	23.38
613.05	23.25
613.243	23.18
613.436	23.1
613.629	23.04
613.822	22.96
614.015	22.82
614.209	22.62
614.402	22.58
614.595	22.51
614.788	22.44
614.981	22.47
615.174	22.39
615.367	22.34
615.56	22.24
615.753	22.22
615.946	22.06
616.139	22.11
616.332	22.15
616.525	22.16
616.718	22.22
616.911	22.24
617.103	22.25
617.296	22.16
617.489	22.06
617.682	21.94
617.875	21.93
618.067	21.74
618.26	21.63
618.453	21.61
618.646	21.56
618.838	21.56
619.031	21.81
619.224	21.84
619.417	21.82
619.609	21.82
619.802	21.71
619.994	21.56
620.187	21.59
620.38	21.51
620.572	21.42
620.765	21.51
620.957	21.41
621.15	21.28
621.342	21.24
621.535	21.3
621.727	21.25
621.92	21.17
622.112	21.15
622.305	21.15
622.497	21.03
622.69	20.96
622.882	20.99
623.074	20.97
623.267	20.9
623.459	20.8
623.651	20.75
623.844	20.76
624.036	20.78
624.228	20.82
624.42	20.89
624.613	20.97
624.805	20.85
624.997	20.84
625.189	20.75
625.381	20.75
625.574	20.55
625.766	20.55
625.958	20.52
626.15	20.61
626.342	20.67
626.534	20.8
626.726	20.76
626.918	20.76
627.11	20.67
627.302	20.58
627.494	20.49
627.686	20.57
627.878	20.46
628.07	20.39
628.262	20.31
628.454	20.28
628.646	20.34
628.838	20.41
629.029	20.38
629.221	20.43
629.413	20.36
629.605	20.16
629.797	20.06
629.989	20.07
630.18	19.99
630.372	20.02
630.564	20.07
630.755	20.08
630.947	20.16
631.139	20.06
631.33	19.91
631.522	19.99
631.714	19.97
631.905	19.9
632.097	19.88
632.289	19.91
632.48	19.74
632.672	19.7
632.863	19.6
633.055	19.59
633.246	19.58
633.438	19.53
633.629	19.52
633.821	19.47
634.012	19.46
634.203	19.44
634.395	19.47
634.586	19.44
634.777	19.46
634.969	19.49
635.16	19.56
635.351	19.5
635.543	19.51
635.734	19.49
635.925	19.45
636.117	19.4
636.308	19.44
636.499	19.33
636.69	19.26
636.881	19.25
637.073	19.31
637.264	19.32
637.455	19.46
637.646	19.61
637.837	19.73
638.028	19.64
638.219	19.66
638.41	19.54
638.601	19.37
638.792	19.33
638.983	19.26
639.174	19.18
639.365	19.29
639.556	19.32
639.747	19.24
639.938	19.34
640.129	19.29
640.32	19.19
640.511	19.25
640.701	19.33
640.892	19.29
641.083	19.41
641.274	19.45
641.465	19.36
641.655	19.2
641.846	19.14
642.037	19.03
642.228	19.02
642.418	19.14
642.609	19.16
642.8	19.21
642.99	19.05
643.181	19.06
643.372	18.98
643.562	18.97
643.753	18.83
643.943	18.94
644.134	18.76
644.324	18.72
644.515	18.67
644.705	18.77
644.896	18.8
645.086	18.86
645.277	18.77
645.467	18.77
645.658	18.68
645.848	18.65
646.038	18.66
646.229	18.61
646.419	18.56
646.61	18.49
646.8	18.37
646.99	18.28
647.18	18.19
647.371	18.19
647.561	18.21
647.751	18.25
647.941	18.19
648.132	18.24
648.322	18.18
648.512	18.19
648.702	18.2
648.892	18.25
649.082	18.16
649.272	18.04
649.462	17.78
649.653	17.64
649.843	17.51
650.033	17.56
650.223	17.5
650.413	17.44
650.603	17.48
650.793	17.49
650.983	17.39
651.172	17.39
651.362	17.39
651.552	17.25
651.742	17.14
651.932	17.09
652.122	16.98
652.312	17.08
652.502	17.11
652.691	17.09
652.881	17.04
653.071	17.03
653.261	16.79
653.45	16.52
653.64	16.45
653.83	16.25
654.019	16.14
654.209	16.08
654.399	16.06
654.588	15.93
654.778	15.79
654.968	15.63
655.157	15.54
655.347	15.43
655.536	15.27
655.726	15.19
655.915	15.06
656.105	14.88
656.294	14.68
656.484	14.45
656.673	14.31
656.863	14.19
657.052	13.96
657.241	13.81
657.431	13.62
657.62	13.44
657.809	13.11
657.999	13.03
658.188	12.89
658.377	12.79
658.567	12.73
658.756	12.67
658.945	12.48
659.134	12.22
659.324	12.05
659.513	11.78
659.702	11.61
659.891	11.45
660.08	11.39
660.269	11.39
660.458	11.28
660.648	11.16
660.837	11
661.026	10.95
661.215	10.69
661.404	10.44
661.593	10.33
661.782	10.11
661.971	9.96
662.16	9.81
662.349	9.8
662.538	9.59
662.726	9.6
662.915	9.41
663.104	9.23
663.293	9.22
663.482	9.29
663.671	9.12
663.86	9
664.048	9
664.237	8.91
664.426	8.54
664.615	8.55
664.803	8.49
664.992	8.33
665.181	8.13
665.369	8.07
665.558	7.92
665.747	7.81
665.935	7.89
666.124	7.92
666.312	7.99
666.501	7.92
666.69	7.86
666.878	7.61
667.067	7.45
667.255	7.52
667.444	7.77
667.632	7.77
667.82	7.88
668.009	7.93
668.197	7.75
668.386	7.57
668.574	7.68
668.762	7.59
668.951	7.41
669.139	7.44
669.327	7.28
669.516	7.23
669.704	7.25
669.892	7.49
670.08	7.49
670.269	7.37
670.457	7.25
670.645	7.1
670.833	7.06
671.021	7
671.21	7.17
671.398	7.47
671.586	7.57
671.774	7.41
671.962	7.5
672.15	7.48
672.338	7.17
672.526	7.21
672.714	7.21
672.902	7.22
673.09	7.35
673.278	7.61
673.466	7.69
673.654	7.84
673.842	7.87
674.03	7.82
674.218	7.66
674.405	7.68
674.593	7.61
674.781	7.7
674.969	7.8
675.157	8
675.344	8.07
675.532	8.16
675.72	8.22
675.908	8.2
676.095	8.08
676.283	8.14
676.471	8.38
676.658	8.41
676.846	8.52
677.033	8.63
677.221	8.68
677.409	8.52
677.596	8.51
677.784	8.5
677.971	8.57
678.159	8.54
678.346	8.77
678.534	8.92
678.721	9.1
678.909	9.11
679.096	9.23
679.283	9.33
679.471	9.42
679.658	9.44
679.846	9.64
680.033	9.98
680.22	10.01
680.408	10.12
680.595	10.29
680.782	10.31
680.969	10.32
681.157	10.39
681.344	10.47
681.531	10.47
681.718	10.61
681.905	10.65
682.093	10.89
682.28	11.17
682.467	11.54
682.654	11.66
682.841	11.94
683.028	12.07
683.215	12.24
683.402	12.27
683.589	12.65
683.776	12.8
683.963	12.9
684.15	13
684.337	13.27
684.524	13.36
684.711	13.73
684.898	13.99
685.085	14.27
685.271	14.48
685.458	14.71
685.645	14.81
685.832	15.21
686.019	15.58
686.205	15.9
686.392	16.27
686.579	16.59
686.766	16.98
686.952	17.15
687.139	17.72
687.326	17.97
687.512	18.26
687.699	18.59
687.886	18.96
688.072	19.04
688.259	19.6
688.445	20.22
688.632	20.59
688.818	21.52
689.005	22.03
689.191	22.48
689.378	23.12
689.564	23.64
689.751	23.9
689.937	24.47
690.124	25
690.31	25.28
690.496	25.78
690.683	26.33
690.869	26.97
691.055	27.47
691.242	28.21
691.428	28.98
691.614	29.62
691.8	30.32
691.987	31.17
692.173	31.78
692.359	32.34
692.545	32.98
692.731	33.57
692.918	34.22
693.104	34.79
693.29	35.61
693.476	36.33
693.662	36.95
693.848	37.38
694.034	38.16
694.22	38.7
694.406	39.41
694.592	40.27
694.778	40.94
694.964	41.57
695.15	42.32
695.336	42.95
695.522	43.7
695.708	44.62
695.894	45.56
696.08	46.39
696.265	47.11
696.451	47.9
696.637	48.77
696.823	49.04
697.009	49.5
697.194	50
697.38	50.36
697.566	50.67
697.751	51.61
697.937	52.42
698.123	53.05
698.308	53.91
698.494	54.8
698.68	55.22
698.865	55.61
699.051	56.31
699.236	56.69
699.422	57.26
699.607	57.61
699.793	58.41
699.978	58.8
700.164	59.15
700.349	59.86
700.535	60.63
700.72	60.82
700.906	61.69
701.091	62.2
701.276	62.36
701.462	63.24
701.647	64.04
701.832	64.19
702.018	64.72
702.203	65.2
702.388	65.04
702.573	65.38
702.759	66.34
702.944	66.82
703.129	67.18
703.314	67.99
703.499	68.24
703.684	68.17
703.87	69.27
704.055	70.23
704.24	70.52
704.425	71.27
704.61	71.84
704.795	71.96
704.98	71.64
705.165	71.62
705.35	71.6
705.535	71.81
705.72	71.86
705.905	72.52
706.09	73.35
706.275	73.75
706.459	73.86
706.644	73.87
706.829	74.14
707.014	73.78
707.199	74.49
707.384	75.18
707.568	75.34
707.753	75.88
707.938	76.89
708.123	76.85
708.307	76.66
708.492	77.15
708.677	77.06
708.861	76.73
709.046	76.55
709.231	77.3
709.415	77.7
709.6	77.65
709.784	78.05
709.969	78.56
710.153	78.48
710.338	78.68
710.522	79.13
710.707	79.35
710.891	79.23
711.076	79.44
711.26	79.05
711.445	79.39
711.629	79.55
711.813	80.04
711.998	80.45
712.182	80.53
712.366	80.8
712.551	81.32
712.735	81.45
712.919	81.06
713.103	81.56
713.288	81.34
713.472	81.25
713.656	81.93
713.84	81.98
714.024	82.55
714.208	82.2
714.393	82.71
714.577	82.31
714.761	82.93
714.945	82.78
715.129	83.54
715.313	83.47
715.497	83.48
715.681	83.97
715.865	83.84
716.049	84.13
716.233	83.9
716.417	84.44
716.601	83.9
716.785	84.15
716.968	84.24
717.152	84.76
717.336	85
717.52	85.11
717.704	85.49
717.888	85.53
718.071	85.6
718.255	85.58
718.439	85.68
718.622	85.97
718.806	86.03
718.99	85.9
719.174	85.73
719.357	86.17
719.541	85.85
719.724	85.7
719.908	86.51
720.092	86.97
720.275	87.2
720.459	87.44
720.642	87.13
720.826	86.2
721.009	85.54
721.193	85.01
721.376	84.79
721.559	85.14
721.743	85.53
721.926	86.05
722.11	86.75
722.293	86.86
722.476	86.85
722.66	86.86
722.843	86.98
723.026	86.09
723.21	86.01
723.393	86.97
723.576	87.08
723.759	86.74
723.942	87.28
724.126	87.47
724.309	87.46
724.492	87.48
724.675	87.97
724.858	88.28
725.041	88.44
725.224	88.42
725.407	88.69
725.59	88.93
725.774	88.82
725.957	88.51
726.14	88.09
726.322	87.9
726.505	87.59
726.688	88.2
726.871	88.52
727.054	88.86
727.237	88.82
727.42	89.35
727.603	88.76
727.786	89.1
727.968	89.57
728.151	89.58
728.334	89.63
728.517	89.83
728.699	90.64
728.882	89.91
729.065	90.51
729.248	90.57
729.43	90.96
729.613	91.11
729.796	91.93
729.978	91.08
730.161	90.48
730.343	89.64
730.526	89.77
730.708	88.94
730.891	89.61
731.073	89.62
731.256	89.85
731.438	89.23
731.621	90.26
731.803	90.34
731.986	90.93
732.168	90.47
732.35	90.44
732.533	89.64
732.715	89.99
732.898	90.15
733.08	90.97
733.262	91.34
733.444	90.96
733.627	90.23
733.809	90.56
733.991	91.6
734.173	91.28
734.355	91.76
734.538	92.84
734.72	92.17
734.902	91.77
735.084	91.66
735.266	92.15
735.448	92.2
735.63	91.81
735.812	91.33
735.994	92.92
736.176	92.52
736.358	91.64
736.54	92.71
736.722	92.49
736.904	91.63
737.086	91.84
737.268	93.41
737.45	92.94
737.632	93.33
737.814	92.14
737.995	92.18
738.177	91.63
738.359	91
738.541	91.86
738.723	93.19
738.904	94.31
739.086	93.62
739.268	93.69
739.449	92.98
739.631	91.77
739.813	90.96
739.994	91.29
740.176	92.55
740.358	92.87
740.539	93.69
740.721	94.34
740.902	95.08
741.084	94.02
741.265	93.58
741.447	94.05
741.628	94.32
741.81	93.85
741.991	95.33
742.172	95.75
742.354	95.23
742.535	94.12
742.717	94.23
742.898	93.88
743.079	94.19
743.261	93.94
743.442	94.02
743.623	94.31
743.804	94.17
743.986	94.68
744.167	93.96
744.348	93.84
744.529	93.27
744.71	91.98
744.891	91.49
745.073	91.51
745.254	91.35
745.435	90.85
745.616	90.85
745.797	90.39
745.978	91.15
746.159	92.02
746.34	91.54
746.521	93.19
746.702	92.47
746.883	92.02
747.064	91.43
747.245	92.17
747.426	90.88
747.606	92.18
747.787	92.8
747.968	92.82
748.149	93.8
748.33	93.92
748.51	92.73
748.691	91.78
748.872	92.33
749.053	91.65
749.233	90.93
749.414	91.05
749.595	90.9
749.775	88.95
749.956	87.59
750.137	88.46
750.317	89.44
750.498	91.01
750.678	92.19
750.859	94.03
751.04	93.42
751.22	92.16
751.4	91.69
751.581	90.17
751.761	90.58
751.942	91.57
752.122	90.95
752.303	89.59
752.483	90.2
752.663	88.66
752.844	86.95
753.024	89.26
753.204	90.87
753.385	90.57
753.565	90.68
753.745	92.16
753.925	90.84
754.106	89.82
754.286	90.63
754.466	90.28
754.646	90.77
754.826	90.61
755.006	89.11
755.187	88.95
755.367	90.09
755.547	89.52
755.727	89.89
755.907	91.26
756.087	92.31
756.267	91.98
756.447	91.86
756.627	90.22
756.807	90.57
756.987	88.31
757.167	88.17
757.346	87.75
757.526	87.86
757.706	88.39
757.886	90.88
758.066	91.35
758.246	92.75
758.425	93.2
758.605	91.68
758.785	90.75
758.965	90.63
759.144	87.35
759.324	87.76
759.504	89.5
759.683	89.94
759.863	87.88
760.043	87.77
760.222	87.19
760.402	85.11
760.581	84.31
760.761	86.14
760.94	87.34
761.12	88.47
761.299	90.17
761.479	89.99
761.658	88.09
761.838	87.47
762.017	87
762.197	87.21
762.376	87.91
762.555	90.05
762.735	90.95
762.914	89.34
763.093	89.31
763.273	87.95
763.452	85.95
763.631	85.07
763.81	85.53
763.99	83.45
764.169	83.73
764.348	82.49
764.527	83.55
764.706	84.53
764.885	87.5
765.064	87.06
765.243	88.69
765.423	88.72
765.602	88.17
765.781	83.57
765.96	82.63
766.139	81.74
766.318	82.64
766.497	82.48
766.676	84.96
766.854	87.11
767.033	88.01
767.212	86.09
767.391	85.86
767.57	86.19
767.749	85.91
767.928	86.66
768.106	86.39
768.285	84.23
768.464	85.02
768.643	83.63
768.821	82.71
769	84.43
769.179	86.47
769.357	83.05
769.536	84.5
769.715	84.82
769.893	83.31
770.072	82.77
770.25	84.99
770.429	83.91
770.607	82.41
770.786	82.63
770.964	83.53
771.143	82.93
771.321	85.27
771.5	86.79
771.678	86.43
771.857	84.64
772.035	84.12
772.213	82.62
772.392	79.64
772.57	82.72
772.748	84.54
772.927	83.39
773.105	81.9
773.283	85.28
773.461	82.37
773.64	82.48
773.818	84.3
773.996	86.06
774.174	86
774.352	85.43
774.531	82.37
774.709	83.94
774.887	82.97
775.065	81.44
775.243	82.7
775.421	83.78
775.599	83.93
775.777	81.53
775.955	78.79
776.133	75.64
776.311	76.37
776.489	73.1
776.667	74.24
776.844	77.17
777.022	78.18
777.2	76.23
777.378	77.54
777.556	78.13
777.734	80.61
777.911	84.65
778.089	85.53
778.267	85.41
778.445	84.7
778.622	81.94
778.8	79.97
778.978	82.66
779.155	81.4
779.333	81.29
779.511	80.37
779.688	81.89
779.866	77.25
780.043	75.52
780.221	75.39
780.398	73.1
780.576	72.93
780.753	74.8
780.931	74.11
781.108	74.2
781.286	78.36
781.463	74.13
781.64	71.57
781.818	76.3
781.995	74.58
782.172	73.27
782.35	73.78
782.527	79.75
782.704	76.42
782.882	78.71
783.059	78.68
783.236	81.83
783.413	81.7
783.59	84.1
783.768	81.53
783.945	83.51
784.122	83.5
784.299	80.92
784.476	78.17
784.653	77.59
784.83	72.53
785.007	67.85
785.184	69.07
785.361	69.56
785.538	73.85
785.715	77.9
785.892	79.84
786.069	80.54
786.246	81.91
786.423	82.47
786.6	79.96
786.776	82.52
786.953	80.42
787.13	83.83
787.307	82.16
787.484	83.27
787.66	78.53
787.837	79.33
788.014	73.89
788.191	70.29
788.367	69.58
788.544	76.84
788.721	74.86
788.897	74.53
789.074	77.17
789.25	73.66
789.427	71.57
789.603	70.57
789.78	72.81
789.956	72.94
790.133	74.3
790.309	71.09
790.486	73.48
790.662	71.13
790.839	70.86
791.015	74.39
791.192	73.51
791.368	75.17
791.544	74.67
791.721	74.24
791.897	71.56
792.073	68.39
792.249	59.76
792.426	63.73
792.602	65.9
792.778	67.32
792.954	68.68
793.13	73.36
793.307	63.19
793.483	55.59
793.659	54.88
793.835	59.07
794.011	57.78
794.187	62.94
794.363	64.79
794.539	66.92
794.715	63.2
794.891	64.2
795.067	64.19
795.243	67.29
795.419	65.44
795.595	60.77
795.771	61.27
795.947	66.39
796.122	61.62
796.298	64.64
796.474	71.79
796.65	71.31
796.826	66.83
797.001	67.21
797.177	63.72
797.353	65.86
797.529	65.61
797.704	66.56
797.88	68.02
798.056	62.39
798.231	57.88
798.407	62.79
798.582	61.71
798.758	70.53
798.934	78.59
799.109	73.7
799.285	68.86
799.46	68.02
799.636	63.78
799.811	62.01
799.986	62.96
800.162	63.6
800.337	67.47
800.513	60.83
800.688	55.67
800.863	67.88
801.039	63.62
801.214	56.18
801.389	58.48
801.565	59.4
801.74	47.13
801.915	50.71
802.09	58.82
802.265	65.19
802.441	64.08
802.616	63.13
802.791	63.85
802.966	60.45
803.141	54.24
803.316	51.6
803.491	62.25
803.666	61.46
803.841	65.68
804.016	64.63
804.191	65.22
804.366	55.1
804.541	54.65
804.716	48.84
804.891	45.12
805.066	53.82
805.241	54.61
805.416	54.26
805.591	53.51
805.765	57.19
805.94	60.72
806.115	57.75
806.29	52.05
806.464	50.72
806.639	50.65
806.814	36.94
806.989	26.43
807.163	42.57
807.338	42.58
807.512	34.98
807.687	31.36
807.862	49.99
808.036	43.83
808.211	48.72
808.385	62.71
808.56	81.01
808.734	83.3
808.909	81.86
809.083	75.62
809.258	79.05
809.432	68.37
809.606	59.37
809.781	53.28
809.955	57.6
810.13	57.96
810.304	55.06
810.478	52.51
810.652	66.79
810.827	72.03
811.001	63.44
811.175	62.62
811.349	63.33
811.524	52.89
811.698	36.39
811.872	39.33
812.046	48.12
812.22	53.69
812.394	56.71
812.568	68.07
812.742	68.02
812.916	59.17
813.09	49.94
813.264	46.21
813.438	42.73
813.612	40.57
813.786	39.82
813.96	51.85
814.134	50.92
814.308	66.86
814.482	68.99
814.656	59.37
814.83	63.11
815.003	67.19
815.177	50.55
815.351	40.2
815.525	45.09
815.698	36.27
815.872	23.64
816.046	16.91
816.219	22.64
816.393	43.63
816.567	46.81
816.74	50.82
816.914	58.67
817.088	68.1
817.261	40.85
817.435	24.77
817.608	29.55
817.782	26.17
817.955	21.33
818.129	27.3
818.302	37.13
818.475	48.53
818.649	45.12
818.822	32.9
818.996	51.36
819.169	40.82
819.342	32
819.516	36.11
819.689	54.45
819.862	43.86
820.035	50.08
820.209	40.57
820.382	40.02
820.555	43.83
820.728	25.23
820.901	14.11
821.075	24.37
821.248	35.91
821.421	12.63
821.594	22.51
821.767	56.04
821.94	68.79
822.113	31.96
822.286	36.59
822.459	49.63
822.632	32.09
822.805	10.83
822.978	24.09
823.151	28.2
823.324	16.94
823.496	-0.57
823.669	9.33
823.842	16.18
824.015	-2.06
824.188	-4.3
824.361	1.68
824.533	-8.87
824.706	-0.05
824.879	6.54
825.051	8.27
825.224	11.9
825.397	12.11
825.569	-11.56
825.742	12.51
825.915	32.94
826.087	47.72
826.26	30.07
826.432	33.49
826.605	32.32
826.777	8.16
826.95	5.26
827.122	-2.96
827.295	-0.33
827.467	6.13
827.64	-14
827.812	-34.66
827.984	-31.39
828.157	-29.46
828.329	-87.5
828.501	-58.91
828.674	-2.53
828.846	2.01
829.018	10.2
829.19	3.43
829.363	33.3
829.535	21.37
829.707	20.09
829.879	-5.53
830.051	-4.36
830.223	-27.08
830.395	-53.46
830.568	-48.66
830.74	-28.51
830.912	12.33
831.084	7.55
831.256	4.14
831.428	-21.4
831.6	-59.74
831.772	-89.47
831.943	-100.37
832.115	-66.12
832.287	-21.9
832.459	12.22
832.631	18.78
832.803	52.66
832.975	54.77
833.146	28.2
833.318	21.23
833.49	27.88
833.662	-14.73
833.833	-33.97
834.005	-15.47
834.177	-17.58
834.348	-33.81
834.52	-46.21
834.692	-29.19
834.863	-74.01
835.035	-66.81
835.206	-109.8
835.378	-72.1
835.549	-74.19
835.721	-40.63
835.892	-48.08
836.064	-40.49
836.235	-54.75
836.407	-31.98
836.578	-73.14
836.749	-71.32
836.921	-85.01
837.092	-95.76
837.264	-98.8
837.435	-102.57
837.606	-38.87
837.777	-8.46
837.949	19.77
838.12	16.36
838.291	38.52
838.462	20.84
838.633	-8.57
838.805	-16.2
838.976	-11.77
839.147	-74.29
839.318	-85.32
839.489	-130.06
839.66	-114.24
839.831	-51.27
840.002	-36.74
840.173	-29.91
840.344	39.34
840.515	39.69
840.686	-71.86
840.857	-57.53
841.028	-90.02
841.199	-68.75
841.369	-78.46
841.54	-74.26
841.711	-50.68
841.882	-28.45
842.053	-43.35
842.223	-43.27
842.394	-11.53
842.565	-12.08
842.736	4.87
842.906	8.07
843.077	11.31
843.248	1.22
843.418	-14.55
843.589	-78.85
843.759	-1.28
843.93	19.76
844.101	24.62
844.271	38.16
844.442	70.67
844.612	60.14
844.783	34.07
844.953	-5.53
845.123	-17.07
845.294	-82.14
845.464	-371.04
845.635	-189.02
845.805	-54.67
845.975	-14.31
846.146	-49.55
846.316	-33.14
846.486	-12.5
846.656	17.4
846.827	2.16
846.997	-2
847.167	-0.39
847.337	-20.32
847.507	-96.92
847.677	-61.99
847.848	13.66
848.018	19.82
848.188	29.16
848.358	19.09
848.528	-2.75
848.698	-42.48
848.868	-137.93
849.038	-239.71
849.208	-84.03
849.378	-34.4
849.548	-45.65
849.718	-22.71
849.887	-11.39
850.057	-41.02
850.227	-75.95
850.397	-96.07
850.567	-227.7
850.737	-475.22
850.906	-1317.5
851.076	-1055.47
851.246	-507.85
851.415	-56.11
851.585	-60.04
851.755	-104.5
851.924	-30.7
852.094	-72.23
852.264	-223.23
852.433	-1250
852.603	-191.83
852.772	-193.86
852.942	-76.39
853.111	-82.18
853.281	-23.65
853.45	-8.86
853.62	-104.46
853.789	-130.35
853.959	-99.81
854.128	-124.05
854.297	-148.78
854.467	-141.56
854.636	-126.79
854.805	-49.68
854.975	-95.88
855.144	-149.86
855.313	-137.06
855.482	-493.43
855.652	-342.61
855.821	-192.15
855.99	-12.78
856.159	25.24
856.328	31.66
856.497	29.81
856.667	21.88
856.836	29.4
857.005	-45.36
857.174	-59.63
857.343	-100.73
857.512	-42.29
857.681	-103.98
857.85	-81.8
858.019	-74.69
858.188	-59.53
858.356	-108.28
858.525	-187.62
858.694	-163.82
858.863	-256.99
859.032	-205.19
859.201	-247.49
859.369	-159.44
859.538	-151.49
859.707	-109.54
859.876	-83.85
860.044	-70.87
860.213	1.16
860.382	-4.85
860.55	-9.17
860.719	7.5
860.888	-2.86
861.056	-39.42
861.225	-61.14
861.393	-33.04
861.562	-33.24
861.73	-75.78
861.899	-284.82
862.067	-1213.79
862.236	-83.41
862.404	-265.71
862.572	-126.8
862.741	-23.53
862.909	-28.89
863.078	-135.79
863.246	-92.38
863.414	-114.29
863.582	-108.58
863.751	-168.68
863.919	-134.42
864.087	-86.86
864.255	-96.63
864.424	-514.34
864.592	-97.17
864.76	-143.01
864.928	-468.8
865.096	-200.96
865.264	-128.03
865.432	-1522.73
865.6	35.5
865.768	-122.56
865.936	-121.72
866.104	-71.05
866.272	-62.19
866.44	-406.69
866.608	488.04
866.776	265.94
866.944	3148.84
867.112	-566.1
867.28	-216.17
867.448	-82.88
867.615	-28.99
867.783	-0.1
867.951	-25.99
868.119	4.94
868.286	-16.38
868.454	-127.97
868.622	-141.29
868.789	-218.05
868.957	-3564.29
869.125	-2481.58
869.292	-208.11
869.46	-341.56
869.627	-59.54
869.795	-83.47
869.963	-54.29
870.13	-17.91
870.298	21.11
870.465	-53.74
870.632	-73.68
870.8	-57.51
870.967	-102.63
871.135	-198.95
871.302	-196.39
871.469	-146.24
871.637	-164.77
871.804	-106.57
871.971	-108.7
872.139	-352.09
872.306	-30.26
872.473	-66.1
872.64	-353.22
872.807	-85.06
872.975	25.91
873.142	-181.45
873.309	2070.27
873.476	2.05
873.643	-20.36
873.81	-28.26
873.977	-11.13
874.144	22.32
874.311	-98.35
874.478	-145.08
874.645	-204.67
874.812	-153.8
874.979	-89.93
875.146	-132.72
875.313	-147.68
875.48	-32.08
875.647	-33.07
875.813	-92.35
875.98	-44.26
876.147	-67.09
876.314	-142.32
876.481	1304.96
876.647	-1777.53
876.814	675.13
876.981	-168.85
877.147	-135.97
877.314	-28.27
877.481	32.36
877.647	29.91
877.814	-33.14
877.98	-110.71
878.147	-68.02
878.314	-16.34
878.48	-96.89
878.647	-55.31
878.813	49.32
878.979	13.22
879.146	-37.56
879.312	-41.83
879.479	-98.34
879.645	-304.68
879.811	-467.82
879.978	-1177.86
880.144	-362.64
880.31	-190.17
880.477	-436.17
880.643	-501.06
880.809	-205.71
880.975	-184.36
881.142	-1162.73
881.308	-124.41
881.474	-89.68
881.64	-114.37
881.806	-122.04
881.972	-35.96
882.138	-70.33
882.304	-59.94
882.47	-196.02
882.636	-822.13
882.802	-264.01
882.968	-95.65
883.134	-74.12
883.3	-61.46
883.466	-3.22
883.632	21.74
883.798	-19.18
883.964	-48.24
884.129	-79.17
884.295	-84.2
884.461	-137.14
884.627	-153.26
884.793	-154.36
884.958	-72.92
885.124	-164.91
885.29	-220.29
885.455	-290.29
885.621	-6.54
885.787	-88.95
885.952	-38.13
886.118	-61.96
886.283	-52.64
886.449	-219.32
886.614	-195.71
886.78	-371.92
886.945	1418.03
887.111	-897.11
887.276	-564.77
887.442	-1116.36
887.607	-555.19
887.773	-389.17
887.938	-286.16
888.103	-356.97
888.269	-231.63
888.434	-457.84
888.599	-226.3
888.764	-109.77
888.93	-59.97
889.095	-84.64
889.26	-126.91
889.425	-81.27
889.59	-32.48
889.756	-44.64
889.921	-51.2
890.086	22.71
890.251	10.15
890.416	-182.15
890.581	-1738.71
890.746	195.36
890.911	514.65
891.076	229.7
891.241	-656.72
891.406	-56.96
891.571	-95.5
891.736	-327.98
891.901	-614.16
892.065	901.1
892.23	199.83
892.395	303.72
892.56	430.35
892.725	-715.63
892.889	-1268.29
893.054	-217.03
893.219	-83.92
893.384	-28.63
893.548	-54.64
893.713	-85.04
893.878	-42.99
