Data from Ofra_PS_T2_1A_0GT14_Reflection_2.txt Node
Date: Wed Jul 21 17:44:46 EDT 2021
User: Adam
Spectrometer: FLMT01687
Trigger mode: 0
Integration Time (sec): 1.100000E0
Scans to average: 2
Electric dark correction enabled: true
Nonlinearity correction enabled: false
Boxcar width: 2
XAxis mode: Wavelengths
Number of Pixels in Spectrum: 3648
>>>>>Begin Spectral Data<<<<<
179.494	535.6
179.716	614.59
179.937	598.08
180.158	563.12
180.38	948.44
180.601	420.72
180.823	152.56
181.044	55.21
181.265	339.34
181.486	38.47
181.708	54.62
181.929	231.63
182.15	182.39
182.372	194.76
182.593	11.67
182.814	20.22
183.035	59.57
183.257	27.07
183.478	-52.23
183.699	21.37
183.92	1.38
184.141	12.87
184.363	-36.97
184.584	15.41
184.805	18.53
185.026	38.99
185.247	50.44
185.468	29.32
185.689	34.68
185.91	36.8
186.132	42.23
186.353	36.75
186.574	107.32
186.795	80.99
187.016	37.76
187.237	3.41
187.458	-54.48
187.679	-50.71
187.9	-25.21
188.121	-19.97
188.342	-3.18
188.563	44.41
188.784	51.22
189.005	60.36
189.226	112.52
189.447	133.31
189.667	183.74
189.888	-20.44
190.109	-778.57
190.33	-522.26
190.551	-1329.65
190.772	-264.29
190.993	-241.17
191.214	-186.57
191.434	-131.63
191.655	-51.84
191.876	-161.37
192.097	-186.63
192.318	-277.77
192.538	-385.19
192.759	-242.62
192.98	-109.93
193.201	-41.92
193.421	-5.65
193.642	14.54
193.863	44.04
194.083	19.54
194.304	4.89
194.525	-4.64
194.745	-14.25
194.966	-66.38
195.187	-68.78
195.407	-118.2
195.628	-175.85
195.848	-170.3
196.069	-179.33
196.29	-92.02
196.51	-58.34
196.731	-45.94
196.951	-69
197.172	-54.95
197.392	-113.22
197.613	-128.02
197.833	-154.71
198.054	-133.32
198.274	-83.04
198.495	-99.8
198.715	-67.29
198.936	-81.85
199.156	-62.14
199.377	-141.4
199.597	-108.88
199.817	-101.78
200.038	-35.03
200.258	-78.21
200.479	-35.72
200.699	-55.04
200.919	8.57
201.14	-30.77
201.36	-22.73
201.58	38.5
201.801	56.95
202.021	10.28
202.241	12.07
202.461	-7.87
202.682	-143.73
202.902	-190.63
203.122	-116.37
203.342	-101.55
203.563	-25.57
203.783	13.8
204.003	-21.42
204.223	-28.73
204.443	40.58
204.663	-9.4
204.884	10.86
205.104	43.19
205.324	83.74
205.544	80.52
205.764	86.58
205.984	69.92
206.204	54.02
206.424	29.47
206.644	-33.41
206.864	-14.48
207.084	-79.15
207.304	-20.45
207.525	-102.97
207.745	-20.73
207.964	-14.4
208.184	-68.56
208.404	-111.72
208.624	-106.51
208.844	-114.72
209.064	-390.44
209.284	-370.6
209.504	-178.33
209.724	-23.35
209.944	-3.08
210.164	9.96
210.384	36.91
210.604	28.5
210.823	-27.4
211.043	-59.76
211.263	-31.81
211.483	-41.92
211.703	-93.63
211.922	-59.07
212.142	13.3
212.362	39.85
212.582	10.18
212.801	17.12
213.021	-18.57
213.241	-37.59
213.461	-97.3
213.68	-116.02
213.9	-87.19
214.12	-49.61
214.339	-116.83
214.559	-94.22
214.779	-33.99
214.998	-39.68
215.218	-91.73
215.438	-53.64
215.657	-37.38
215.877	-35.46
216.096	-8.34
216.316	4.57
216.535	-3.24
216.755	-14.75
216.974	-117.05
217.194	-178.09
217.413	-173.9
217.633	-137.11
217.852	-254.41
218.072	-98.26
218.291	-47.95
218.511	1.9
218.73	-35.45
218.95	-20.81
219.169	-33.48
219.389	-68.85
219.608	-58.32
219.827	-43.84
220.047	-25.31
220.266	-8.52
220.485	2.6
220.705	12.52
220.924	-14.1
221.143	19.95
221.363	4.7
221.582	12.96
221.801	8.6
222.021	25.73
222.24	-50.21
222.459	3.7
222.678	-57.98
222.897	-74.45
223.117	-124.11
223.336	-88.21
223.555	-50.18
223.774	10.39
223.993	-1.52
224.213	65.49
224.432	40.39
224.651	66.07
224.87	25
225.089	29.26
225.308	19.66
225.527	46.7
225.746	28.46
225.965	29.35
226.184	21.14
226.404	29.83
226.623	-17.76
226.842	-14.17
227.061	19.86
227.28	24.75
227.499	1.59
227.718	23.64
227.936	11.93
228.155	11.71
228.374	-23.56
228.593	0.87
228.812	-0.62
229.031	1.5
229.25	-52.15
229.469	-35.03
229.688	-30.61
229.907	2.78
230.125	10.65
230.344	32.02
230.563	58.02
230.782	63.07
231.001	-8.58
231.22	-19.32
231.438	-10.42
231.657	-15.58
231.876	-42.46
232.095	7.3
232.313	10.62
232.532	-25.19
232.751	-61.62
232.969	-45.83
233.188	-96.58
233.407	-24.71
233.625	-15.36
233.844	-54.36
234.063	-69.78
234.281	-42.16
234.5	-63.72
234.719	-32.88
234.937	15.41
235.156	33.04
235.374	31.74
235.593	30.18
235.811	14.03
236.03	-4.72
236.249	-56.78
236.467	-29.84
236.686	-4.34
236.904	-0.68
237.123	-15.04
237.341	-10.96
237.559	-3.05
237.778	-15.18
237.996	-20.32
238.215	7.1
238.433	23.58
238.652	-2.89
238.87	-22.79
239.088	-9.58
239.307	-2.39
239.525	-7.36
239.743	-29.49
239.962	-3.58
240.18	-41.11
240.398	-95.41
240.617	-109.85
240.835	-90.42
241.053	-45.71
241.271	19.35
241.49	30.06
241.708	35.49
241.926	63.22
242.144	11.51
242.363	-43.83
242.581	-63.46
242.799	-28.09
243.017	-7.39
243.235	-12.01
243.453	15.06
243.672	19.55
243.89	9.94
244.108	6.68
244.326	36.82
244.544	46.54
244.762	37.87
244.98	54.78
245.198	42.8
245.416	-8.28
245.634	-30.4
245.852	-24.92
246.07	-25.27
246.288	-34.54
246.506	-49.06
246.724	-34.7
246.942	-57.45
247.16	-30.89
247.378	-16.64
247.596	8.58
247.814	10.4
248.032	-8.92
248.25	-2.67
248.468	1.23
248.685	6.93
248.903	28.71
249.121	37.2
249.339	-1.71
249.557	-14.52
249.775	-9.77
249.992	-88.36
250.21	-66.94
250.428	-35.54
250.646	-74.55
250.863	-105.54
251.081	-62.02
251.299	-76.79
251.517	-64.34
251.734	-35.92
251.952	-31.54
252.17	-29.49
252.387	-17.92
252.605	-38.3
252.823	-34.93
253.04	-17.05
253.258	5.16
253.475	-7.08
253.693	24.95
253.911	42.68
254.128	47.12
254.346	47.54
254.563	22.8
254.781	-2.05
254.998	-25.9
255.216	-37.95
255.433	-39.57
255.651	22.97
255.868	55.11
256.086	79.36
256.303	70.21
256.521	49.51
256.738	18.39
256.956	-13.75
257.173	-59.92
257.39	-85.15
257.608	-101.85
257.825	-62.74
258.043	-23.96
258.26	10.56
258.477	50.44
258.695	35.53
258.912	-11.72
259.129	-5.35
259.346	-53.38
259.564	-91.01
259.781	-88.51
259.998	-18.96
260.216	0.04
260.433	53.76
260.65	61.26
260.867	64.28
261.084	36.15
261.302	7.43
261.519	-11.61
261.736	-54.9
261.953	-78.44
262.17	-34.84
262.387	-69.35
262.604	-120.99
262.822	-104.81
263.039	-72.7
263.256	-121.77
263.473	-64.54
263.69	-30.71
263.907	8.83
264.124	20.65
264.341	20.15
264.558	15.25
264.775	29.18
264.992	2.47
265.209	5.27
265.426	26.89
265.643	26.08
265.86	31.65
266.077	49.47
266.294	15.12
266.51	-33.32
266.727	-68.13
266.944	-60.01
267.161	-78.12
267.378	-56.72
267.595	-2.77
267.812	-8.6
268.028	-32.24
268.245	6.77
268.462	-18.87
268.679	-48.5
268.896	5.21
269.112	15.98
269.329	7.14
269.546	4.21
269.763	2.83
269.979	-1.85
270.196	-12.59
270.413	-40.15
270.629	-55.28
270.846	-52.05
271.063	-62.92
271.279	-64.65
271.496	-51.5
271.712	8.2
271.929	16.97
272.146	12.29
272.362	5.23
272.579	28.49
272.795	8.17
273.012	14.98
273.228	18.15
273.445	5.69
273.661	-38.07
273.878	-80.14
274.094	-73.09
274.311	-111.39
274.527	-20.79
274.744	1.74
274.96	5.21
275.177	5.48
275.393	32.05
275.609	8.42
275.826	23.21
276.042	34.98
276.259	21.62
276.475	26.24
276.691	28.54
276.908	-0.29
277.124	9.77
277.34	19.88
277.557	-4.35
277.773	-13.09
277.989	-20.73
278.205	-34.7
278.422	-19.84
278.638	-1.28
278.854	23.84
279.07	42.17
279.286	32.74
279.503	3.94
279.719	-16.11
279.935	-40.79
280.151	-56
280.367	-26.76
280.583	-45.71
280.799	-41.55
281.016	-84.39
281.232	-44.14
281.448	-52.58
281.664	-12.52
281.88	-42.57
282.096	-16.75
282.312	-1.32
282.528	13.85
282.744	11.91
282.96	34.36
283.176	33.72
283.392	12.47
283.608	0.46
283.824	-10.22
284.04	-12.24
284.256	-17.31
284.471	-2.3
284.687	-18.98
284.903	8.75
285.119	33.15
285.335	18.14
285.551	25.29
285.767	27.48
285.982	0.84
286.198	-47.44
286.414	8.52
286.63	-5.8
286.846	28.63
287.061	5.31
287.277	45.63
287.493	9.41
287.709	33.99
287.924	11.05
288.14	43.59
288.356	31.26
288.571	63.82
288.787	28.92
289.003	23.93
289.218	8.46
289.434	-34.1
289.65	-48.64
289.865	-35.22
290.081	-10.5
290.296	7.12
290.512	26.83
290.727	-10.11
290.943	-27.28
291.159	-48.7
291.374	-56.79
291.59	-82.62
291.805	-53.59
292.021	-38.16
292.236	-30.06
292.451	-11.64
292.667	-2.39
292.882	5.76
293.098	-1.47
293.313	-28.99
293.529	-71.35
293.744	-88.29
293.959	-89.08
294.175	-68.17
294.39	-14.31
294.605	7.5
294.821	39.92
295.036	46.08
295.251	42.27
295.467	7.28
295.682	-11.85
295.897	-76.2
296.112	-102.46
296.328	-98.58
296.543	-109.57
296.758	-65.82
296.973	-15.02
297.188	25.21
297.404	12.37
297.619	-16.06
297.834	-44.4
298.049	-60.34
298.264	-81.84
298.479	-17.58
298.694	13.58
298.909	38.97
299.125	38.57
299.34	51.85
299.555	21.06
299.77	29.84
299.985	-27.44
300.2	-79.27
300.415	-108.27
300.63	-74.12
300.845	-85.76
301.06	-81.54
301.275	-45.96
301.49	-10.9
301.704	-28.51
301.919	-40.82
302.134	-61.74
302.349	-53.55
302.564	-141.92
302.779	-179.65
302.994	-161.68
303.209	-73.09
303.423	-29.63
303.638	43.96
303.853	9.09
304.068	3.92
304.283	3
304.497	-19.78
304.712	-35.08
304.927	-12.5
305.142	-16.63
305.356	-5.09
305.571	-5.96
305.786	-23.91
306	-41.27
306.215	-37.02
306.43	-77.3
306.644	-92.65
306.859	-37.41
307.074	-20.96
307.288	-50
307.503	-58.94
307.717	-51.04
307.932	-50.53
308.147	-54.47
308.361	-11.89
308.576	-14.17
308.79	-39.16
309.005	-37.17
309.219	-22.58
309.434	-41.79
309.648	-40.99
309.863	-19.8
310.077	-23.4
310.292	-32.78
310.506	-31.08
310.72	-7.46
310.935	-4.95
311.149	-9.44
311.364	18.78
311.578	25.42
311.792	9.09
312.007	22.89
312.221	8.12
312.435	4.32
312.649	-9.08
312.864	-26.34
313.078	-24.81
313.292	40.74
313.507	-14.11
313.721	0.47
313.935	35.69
314.149	18.82
314.363	0.34
314.578	9.59
314.792	14.89
315.006	0.89
315.22	21.68
315.434	28.02
315.648	37.15
315.862	32.79
316.077	34.43
316.291	21.68
316.505	26.7
316.719	-21.07
316.933	-59.01
317.147	-55.98
317.361	-120.22
317.575	-140.82
317.789	-160.33
318.003	-224.65
318.217	-162.38
318.431	-33.24
318.645	18.26
318.859	19.97
319.073	52.98
319.287	23.71
319.5	-16.76
319.714	-64.67
319.928	-82.26
320.142	-105.68
320.356	-32.78
320.57	16.16
320.784	12.8
320.997	7.89
321.211	-14.25
321.425	-75.97
321.639	-112.92
321.853	-50.73
322.066	-34.78
322.28	-35.73
322.494	-12.09
322.707	7.1
322.921	-6.08
323.135	-3.59
323.349	16.98
323.562	-26.86
323.776	-47.5
323.989	-50.5
324.203	-72.09
324.417	-82.78
324.63	-75.38
324.844	-74.02
325.057	-75.12
325.271	-50.39
325.485	-28.21
325.698	1.99
325.912	25.68
326.125	1.46
326.339	16.68
326.552	14.53
326.766	0.23
326.979	7.97
327.193	51.57
327.406	21.49
327.619	11.38
327.833	21.37
328.046	-11.71
328.26	-53.34
328.473	-26.94
328.686	-53.45
328.9	-45.92
329.113	-12.37
329.326	-28.77
329.54	-7.06
329.753	-6.29
329.966	-37.09
330.179	-46.74
330.393	-20.84
330.606	-30.61
330.819	-6.17
331.032	17.46
331.246	26.42
331.459	54.97
331.672	50.94
331.885	39.96
332.098	17.06
332.311	2.31
332.525	-65.23
332.738	-32.46
332.951	5.92
333.164	28.29
333.377	28.77
333.59	48.93
333.803	32.93
334.016	18.96
334.229	2.85
334.442	15.38
334.655	37.03
334.868	41.54
335.081	33.51
335.294	31.63
335.507	9.41
335.72	-1.04
335.933	-8.85
336.146	-13.09
336.359	-12.98
336.572	-22.75
336.785	-58.16
336.997	-42.09
337.21	-18.72
337.423	-25.42
337.636	-18.61
337.849	16.9
338.062	0.98
338.274	3.18
338.487	1.53
338.7	-2.18
338.913	-66.68
339.125	-83.64
339.338	-141.25
339.551	-106.27
339.763	-54.85
339.976	-10.63
340.189	-0.97
340.402	12.37
340.614	3.66
340.827	-6.37
341.039	-15.04
341.252	1.72
341.465	19.16
341.677	-0.83
341.89	-50.31
342.102	-40.45
342.315	-67.3
342.527	-132.38
342.74	-107.39
342.952	-63.12
343.165	-60.82
343.377	-31.15
343.59	-19.67
343.802	-3.68
344.015	7.6
344.227	15.04
344.44	6.78
344.652	10.27
344.864	-0.89
345.077	21.97
345.289	27.82
345.502	35.01
345.714	32.01
345.926	40.06
346.139	22.74
346.351	18.29
346.563	26.7
346.775	21.31
346.988	3.07
347.2	-4.4
347.412	-36.93
347.624	-67.5
347.837	-77.5
348.049	-45.6
348.261	-4.27
348.473	8.6
348.685	14.49
348.897	11.38
349.11	-10.08
349.322	-34.09
349.534	-22
349.746	-35.88
349.958	-25.09
350.17	-7.04
350.382	-8.45
350.594	-26.68
350.806	-17.2
351.018	-22.72
351.23	-45.56
351.442	-88.38
351.654	-84.71
351.866	-64.91
352.078	-44.04
352.29	-6.43
352.502	20.58
352.714	36.78
352.926	26.16
353.138	25
353.35	2.7
353.561	-2.75
353.773	-31.52
353.985	-10.37
354.197	-16.58
354.409	-14.25
354.621	-23.91
354.832	-11.81
355.044	-37.25
355.256	-42.76
355.468	-19.62
355.679	-17.05
355.891	-11.7
356.103	-16.83
356.314	-10.72
356.526	-19.91
356.738	-15.14
356.949	-26.97
357.161	0.56
357.373	-5.93
357.584	-23.46
357.796	-20.57
358.008	-18.58
358.219	-12.42
358.431	-3.21
358.642	7.55
358.854	9.04
359.065	2.72
359.277	-31.85
359.488	-52.77
359.7	-79.98
359.911	-94
360.123	-66.42
360.334	-69.29
360.546	-80.18
360.757	-73.32
360.969	-55.1
361.18	-45.86
361.391	-11.54
361.603	-3.38
361.814	19.12
362.025	7.58
362.237	-0.65
362.448	1.23
362.659	10.37
362.871	6.75
363.082	16.56
363.293	14.44
363.504	-5.34
363.716	-31.67
363.927	-31.73
364.138	-61.35
364.349	-74.46
364.56	-52.86
364.772	-39.3
364.983	-19.7
365.194	-11.82
365.405	1.59
365.616	13.5
365.827	17.22
366.038	-14.85
366.25	-24.54
366.461	-65.52
366.672	-39.07
366.883	-16.15
367.094	-8.27
367.305	-11.23
367.516	-1.14
367.727	-32.55
367.938	-50.15
368.149	-43.15
368.36	-21
368.571	-11.15
368.781	-13.32
368.992	-33.94
369.203	-46.35
369.414	-70.77
369.625	-72.41
369.836	-74.27
370.047	-96.85
370.258	-86.94
370.468	-82.46
370.679	-102.39
370.89	-94.58
371.101	-56.89
371.312	-60.68
371.522	-52.57
371.733	-42.19
371.944	-36.54
372.155	-24.66
372.365	-33.24
372.576	-37.71
372.787	-47.5
372.997	-71.42
373.208	-77.11
373.419	-32.95
373.629	-53.03
373.84	-37.81
374.05	-29.99
374.261	-21.44
374.472	-52.69
374.682	-6.84
374.893	-2.01
375.103	35.74
375.314	28.28
375.524	32.42
375.735	32.74
375.945	45.03
376.156	24.67
376.366	27.29
376.577	23.2
376.787	4.43
376.997	-5.01
377.208	-10.72
377.418	-21.12
377.629	-13.7
377.839	-9.3
378.049	-12.42
378.26	-3.49
378.47	13.49
378.68	9.35
378.89	4.24
379.101	4.97
379.311	-24.08
379.521	-59.89
379.732	-49.84
379.942	-43.18
380.152	-62.23
380.362	-18.69
380.572	-21.1
380.783	-12.66
380.993	8.1
381.203	23.85
381.413	30.32
381.623	42.22
381.833	29.65
382.043	13.07
382.253	4.92
382.463	-6.08
382.674	-20.67
382.884	-38.1
383.094	-38.69
383.304	-32.07
383.514	-25.7
383.724	-10.53
383.934	-10.97
384.144	-17.97
384.353	-23.29
384.563	-23.3
384.773	-18.93
384.983	-20.91
385.193	-3.59
385.403	-2.45
385.613	-2.72
385.823	-16.57
386.033	-1.65
386.242	-8.65
386.452	-5.11
386.662	-19.34
386.872	-0.33
387.082	-12.86
387.291	-25.4
387.501	-29.14
387.711	-10.59
387.921	-25.15
388.13	-21.44
388.34	-2.42
388.55	-6.17
388.759	-12.5
388.969	-3.74
389.179	-3.06
389.388	-8.79
389.598	-1.71
389.807	-4.52
390.017	-12.11
390.227	-9.43
390.436	-10.89
390.646	-12.25
390.855	-7.64
391.065	-3.56
391.274	-4.27
391.484	-2.29
391.693	1.49
391.903	3.5
392.112	8.1
392.322	8.19
392.531	11.02
392.74	10.84
392.95	5.95
393.159	3.52
393.369	4.61
393.578	4.17
393.787	2.92
393.997	5.56
394.206	4
394.415	5.03
394.625	3.82
394.834	1.73
395.043	3.72
395.252	6.77
395.462	8.28
395.671	9.05
395.88	10.65
396.089	10.47
396.298	8.76
396.508	7.48
396.717	7.42
396.926	7.84
397.135	7.48
397.344	7.23
397.553	7.18
397.762	8.26
397.971	7.74
398.181	7.75
398.39	7.46
398.599	7.97
398.808	7.61
399.017	9.55
399.226	10.66
399.435	11.9
399.644	12.07
399.853	11.77
400.062	10.88
400.27	10.44
400.479	9.71
400.688	9.18
400.897	9.49
401.106	9.26
401.315	8.72
401.524	8.99
401.733	9.54
401.941	9.85
402.15	10.01
402.359	10.4
402.568	10.73
402.777	10.79
402.985	10.66
403.194	10.67
403.403	10.73
403.612	10.28
403.82	9.96
404.029	9.89
404.238	9.75
404.446	9.75
404.655	9.62
404.864	9.59
405.072	9.34
405.281	9.76
405.489	9.43
405.698	9.56
405.906	9.57
406.115	9.71
406.324	9.38
406.532	9.67
406.741	9.91
406.949	9.92
407.158	9.94
407.366	10.06
407.574	9.98
407.783	9.85
407.991	9.75
408.2	9.72
408.408	9.59
408.617	9.52
408.825	9.19
409.033	9.29
409.242	9.42
409.45	9.54
409.658	9.39
409.867	9.64
410.075	9.43
410.283	9.11
410.491	8.91
410.7	8.84
410.908	8.85
411.116	9.21
411.324	9.38
411.533	9.4
411.741	9.71
411.949	9.68
412.157	9.38
412.365	9.47
412.573	9.5
412.781	9.55
412.99	9.44
413.198	9.54
413.406	9.35
413.614	9.31
413.822	9.1
414.03	9.05
414.238	8.87
414.446	8.94
414.654	8.77
414.862	8.84
415.07	8.98
415.278	9.29
415.486	9.13
415.694	9.3
415.902	9.07
416.109	8.85
416.317	8.61
416.525	8.58
416.733	8.5
416.941	8.7
417.149	8.81
417.357	8.88
417.564	9.08
417.772	9.36
417.98	9.15
418.188	9.06
418.395	9.12
418.603	9.15
418.811	8.61
419.019	8.64
419.226	8.94
419.434	8.88
419.642	8.65
419.849	8.96
420.057	9.04
420.265	8.9
420.472	8.72
420.68	8.84
420.887	8.7
421.095	8.63
421.302	8.49
421.51	8.67
421.717	8.54
421.925	8.68
422.132	8.6
422.34	8.34
422.547	8.37
422.755	8.39
422.962	8.12
423.17	8.14
423.377	8.43
423.585	8.35
423.792	8.25
423.999	8.57
424.207	8.63
424.414	8.59
424.621	8.58
424.829	8.68
425.036	8.48
425.243	8.6
425.451	8.49
425.658	8.47
425.865	8.52
426.072	8.58
426.28	8.79
426.487	8.74
426.694	8.82
426.901	8.58
427.108	8.52
427.315	8.18
427.523	8.59
427.73	8.55
427.937	8.61
428.144	8.45
428.351	8.5
428.558	8.48
428.765	8.25
428.972	8.24
429.179	8.69
429.386	8.87
429.593	8.55
429.8	8.66
430.007	8.82
430.214	8.69
430.421	8.58
430.628	8.49
430.835	8.38
431.042	8.6
431.249	8.56
431.456	8.52
431.662	8.75
431.869	9.17
432.076	9.23
432.283	9.39
432.49	9.43
432.697	9.48
432.903	8.94
433.11	8.69
433.317	8.66
433.524	8.83
433.73	8.68
433.937	9.21
434.144	9.11
434.35	9.08
434.557	8.93
434.764	8.85
434.97	8.65
435.177	8.92
435.384	8.78
435.59	8.82
435.797	9.24
436.003	9.24
436.21	9.12
436.416	9.37
436.623	9.34
436.829	9.15
437.036	9.25
437.242	9.28
437.449	9.06
437.655	9.11
437.862	9.18
438.068	9.13
438.275	9.2
438.481	9.44
438.687	9.35
438.894	9.24
439.1	9.29
439.307	9.38
439.513	9.27
439.719	9.36
439.926	9.58
440.132	9.53
440.338	9.42
440.544	9.58
440.751	9.42
440.957	9.39
441.163	9.36
441.369	9.42
441.575	9.2
441.782	9.3
441.988	9.18
442.194	9.18
442.4	9.16
442.606	9.35
442.812	9.42
443.018	9.41
443.224	9.44
443.431	9.56
443.637	9.37
443.843	9.23
444.049	9.26
444.255	9.32
444.461	9.32
444.667	9.34
444.873	9.59
445.079	9.67
445.284	9.69
445.49	9.5
445.696	9.34
445.902	9.13
446.108	9.01
446.314	8.92
446.52	8.92
446.726	9.15
446.931	9.19
447.137	9.27
447.343	9.33
447.549	9.37
447.755	9.25
447.96	9.31
448.166	9.16
448.372	9.06
448.578	9.07
448.783	9.03
448.989	9.13
449.195	9.32
449.4	9.36
449.606	9.39
449.812	9.45
450.017	9.38
450.223	9.28
450.428	9.18
450.634	9.3
450.84	9.35
451.045	9.36
451.251	9.32
451.456	9.65
451.662	9.67
451.867	9.75
452.073	9.65
452.278	9.74
452.483	9.75
452.689	9.57
452.894	9.53
453.1	9.53
453.305	9.46
453.51	9.44
453.716	9.37
453.921	9.48
454.127	9.43
454.332	9.43
454.537	9.22
454.742	9.29
454.948	9.21
455.153	9.33
455.358	9.38
455.563	9.6
455.769	9.7
455.974	9.59
456.179	9.53
456.384	9.6
456.589	9.59
456.795	9.48
457	9.57
457.205	9.75
457.41	9.68
457.615	9.58
457.82	9.61
458.025	9.61
458.23	9.43
458.435	9.51
458.64	9.43
458.845	9.62
459.05	9.58
459.255	9.65
459.46	9.52
459.665	9.56
459.87	9.54
460.075	9.53
460.28	9.59
460.485	9.74
460.69	9.89
460.895	9.69
461.099	9.75
461.304	9.8
461.509	9.83
461.714	9.72
461.919	9.89
462.123	9.73
462.328	9.79
462.533	9.58
462.738	9.71
462.942	9.67
463.147	9.8
463.352	9.82
463.556	9.97
463.761	9.9
463.966	9.84
464.17	9.84
464.375	9.67
464.58	9.68
464.784	9.68
464.989	9.61
465.193	9.65
465.398	9.77
465.602	9.88
465.807	9.89
466.011	10.08
466.216	10.22
466.42	10.26
466.625	10.2
466.829	10.23
467.034	10.2
467.238	10.3
467.443	10.22
467.647	10.18
467.851	10.29
468.056	10.36
468.26	10.15
468.464	10.2
468.669	10.3
468.873	10.31
469.077	10.26
469.282	10.49
469.486	10.6
469.69	10.59
469.894	10.49
470.099	10.61
470.303	10.55
470.507	10.4
470.711	10.35
470.915	10.31
471.119	10.12
471.324	10.07
471.528	10.1
471.732	10.19
471.936	10.29
472.14	10.45
472.344	10.45
472.548	10.55
472.752	10.76
472.956	11.01
473.16	10.98
473.364	10.97
473.568	10.94
473.772	10.8
473.976	10.62
474.18	10.61
474.384	10.59
474.588	10.48
474.792	10.35
474.995	10.38
475.199	10.45
475.403	10.58
475.607	10.73
475.811	10.73
476.015	10.79
476.218	10.86
476.422	10.8
476.626	10.77
476.83	10.88
477.033	10.78
477.237	10.6
477.441	10.67
477.644	10.77
477.848	10.78
478.052	10.73
478.255	10.8
478.459	10.69
478.663	10.72
478.866	10.74
479.07	10.79
479.273	11.02
479.477	11.09
479.681	11.06
479.884	11.01
480.088	11.01
480.291	10.88
480.495	10.92
480.698	10.9
480.901	10.98
481.105	11.07
481.308	10.99
481.512	10.94
481.715	10.9
481.919	10.92
482.122	10.86
482.325	10.94
482.529	11
482.732	11
482.935	10.88
483.138	10.83
483.342	10.94
483.545	11.03
483.748	11.12
483.952	11.22
484.155	11.37
484.358	11.35
484.561	11.2
484.764	11.18
484.967	11.19
485.171	11.23
485.374	11.15
485.577	11.2
485.78	11.2
485.983	11.16
486.186	11.01
486.389	10.95
486.592	10.94
486.795	10.98
486.998	10.95
487.201	11.07
487.404	11.19
487.607	11.35
487.81	11.33
488.013	11.45
488.216	11.39
488.419	11.32
488.622	11.16
488.825	11.07
489.028	10.97
489.231	10.94
489.433	10.86
489.636	10.8
489.839	10.76
490.042	10.66
490.245	10.6
490.447	10.69
490.65	10.69
490.853	10.66
491.056	10.7
491.258	10.72
491.461	10.69
491.664	10.76
491.866	10.76
492.069	10.87
492.272	10.82
492.474	10.82
492.677	10.8
492.879	10.84
493.082	10.83
493.285	11
493.487	10.93
493.69	10.86
493.892	10.84
494.095	10.75
494.297	10.61
494.5	10.73
494.702	10.73
494.905	10.79
495.107	10.87
495.309	10.89
495.512	10.91
495.714	10.89
495.917	10.85
496.119	10.78
496.321	10.9
496.524	10.88
496.726	10.95
496.928	10.95
497.13	10.95
497.333	10.83
497.535	10.79
497.737	10.8
497.939	10.81
498.142	10.84
498.344	10.8
498.546	10.73
498.748	10.65
498.95	10.78
499.152	10.74
499.355	10.73
499.557	10.89
499.759	10.99
499.961	10.81
500.163	10.81
500.365	10.89
500.567	10.92
500.769	10.8
500.971	10.89
501.173	10.84
501.375	10.85
501.577	10.73
501.779	10.73
501.981	10.72
502.183	10.65
502.385	10.56
502.587	10.49
502.788	10.53
502.99	10.55
503.192	10.65
503.394	10.71
503.596	10.75
503.798	10.76
503.999	10.75
504.201	10.75
504.403	10.74
504.605	10.8
504.806	10.76
505.008	10.73
505.21	10.8
505.411	10.81
505.613	10.75
505.815	10.85
506.016	10.92
506.218	10.97
506.42	10.94
506.621	11
506.823	11
507.024	10.92
507.226	10.87
507.427	10.91
507.629	10.9
507.83	10.89
508.032	10.88
508.233	10.98
508.435	11.03
508.636	11.09
508.838	11.05
509.039	11.11
509.24	11.01
509.442	10.97
509.643	10.88
509.845	10.92
510.046	10.94
510.247	10.99
510.448	11.03
510.65	11.07
510.851	11.15
511.052	11.14
511.254	11.11
511.455	11.19
511.656	11.32
511.857	11.39
512.058	11.42
512.26	11.45
512.461	11.38
512.662	11.4
512.863	11.23
513.064	11.24
513.265	11.26
513.466	11.29
513.667	11.15
513.868	11.26
514.069	11.34
514.27	11.34
514.471	11.27
514.672	11.29
514.873	11.25
515.074	11.16
515.275	11.05
515.476	11.06
515.677	11.04
515.878	11.12
516.079	11.13
516.28	11.18
516.481	11.25
516.682	11.31
516.882	11.17
517.083	11.14
517.284	11.13
517.485	11.06
517.686	11.01
517.886	11
518.087	11.07
518.288	11.11
518.488	11.07
518.689	11.1
518.89	11.11
519.091	11.07
519.291	11.06
519.492	11.13
519.692	11.16
519.893	11.21
520.094	11.22
520.294	11.17
520.495	11.12
520.695	11.13
520.896	11.11
521.096	11.14
521.297	11.23
521.497	11.29
521.698	11.21
521.898	11.2
522.099	11.18
522.299	11.19
522.499	11.2
522.7	11.22
522.9	11.19
523.101	11.24
523.301	11.23
523.501	11.21
523.702	11.19
523.902	11.31
524.102	11.33
524.302	11.27
524.503	11.3
524.703	11.33
524.903	11.29
525.103	11.21
525.304	11.3
525.504	11.32
525.704	11.34
525.904	11.3
526.104	11.27
526.304	11.26
526.504	11.22
526.705	11.26
526.905	11.38
527.105	11.38
527.305	11.34
527.505	11.28
527.705	11.25
527.905	11.19
528.105	11.24
528.305	11.19
528.505	11.31
528.705	11.33
528.905	11.22
529.105	11.18
529.304	11.23
529.504	11.3
529.704	11.23
529.904	11.28
530.104	11.3
530.304	11.37
530.503	11.25
530.703	11.17
530.903	11.17
531.103	11.21
531.303	11.15
531.502	11.18
531.702	11.33
531.902	11.35
532.101	11.29
532.301	11.22
532.501	11.19
532.7	11.14
532.9	11.17
533.1	11.21
533.299	11.3
533.499	11.38
533.698	11.37
533.898	11.31
534.097	11.33
534.297	11.36
534.496	11.3
534.696	11.3
534.895	11.41
535.095	11.52
535.294	11.47
535.494	11.39
535.693	11.48
535.892	11.47
536.092	11.3
536.291	11.3
536.491	11.45
536.69	11.4
536.889	11.3
537.088	11.28
537.288	11.36
537.487	11.35
537.686	11.36
537.886	11.47
538.085	11.56
538.284	11.65
538.483	11.59
538.682	11.66
538.882	11.64
539.081	11.71
539.28	11.54
539.479	11.54
539.678	11.49
539.877	11.57
540.076	11.56
540.275	11.56
540.474	11.62
540.673	11.62
540.872	11.5
541.071	11.49
541.27	11.57
541.469	11.59
541.668	11.61
541.867	11.66
542.066	11.71
542.265	11.78
542.464	11.74
542.663	11.81
542.862	11.99
543.06	12.02
543.259	12.05
543.458	12.14
543.657	12.14
543.856	12.09
544.054	12.08
544.253	12.03
544.452	12.04
544.651	12.09
544.849	12.01
545.048	12.06
545.247	12.08
545.445	12.07
545.644	12.03
545.843	12.08
546.041	12.08
546.24	12.2
546.438	12.31
546.637	12.35
546.836	12.44
547.034	12.46
547.233	12.35
547.431	12.29
547.63	12.33
547.828	12.32
548.027	12.36
548.225	12.41
548.423	12.46
548.622	12.51
548.82	12.5
549.019	12.45
549.217	12.6
549.415	12.61
549.614	12.62
549.812	12.56
550.01	12.57
550.209	12.52
550.407	12.65
550.605	12.68
550.803	12.84
551.002	12.92
551.2	12.91
551.398	12.88
551.596	12.94
551.794	12.92
551.993	12.99
552.191	13.01
552.389	13.08
552.587	13.12
552.785	13.14
552.983	13.12
553.181	13.24
553.379	13.28
553.577	13.3
553.775	13.4
553.973	13.48
554.171	13.48
554.369	13.39
554.567	13.39
554.765	13.45
554.963	13.51
555.161	13.51
555.359	13.64
555.557	13.78
555.755	13.78
555.952	13.88
556.15	13.97
556.348	14.05
556.546	14.12
556.744	14.2
556.941	14.17
557.139	14.22
557.337	14.18
557.535	14.17
557.732	14.22
557.93	14.34
558.128	14.4
558.325	14.55
558.523	14.6
558.721	14.63
558.918	14.62
559.116	14.65
559.313	14.62
559.511	14.74
559.708	14.8
559.906	14.87
560.104	14.93
560.301	15.05
560.498	15.04
560.696	15.05
560.893	15.15
561.091	15.17
561.288	15.18
561.486	15.25
561.683	15.33
561.88	15.42
562.078	15.54
562.275	15.51
562.473	15.5
562.67	15.54
562.867	15.62
563.064	15.77
563.262	15.89
563.459	16
563.656	16.21
563.853	16.19
564.051	16.14
564.248	16.33
564.445	16.46
564.642	16.42
564.839	16.5
565.036	16.66
565.234	16.74
565.431	16.77
565.628	16.86
565.825	17.02
566.022	17.09
566.219	17.09
566.416	17.17
566.613	17.26
566.81	17.31
567.007	17.24
567.204	17.27
567.401	17.29
567.598	17.29
567.795	17.25
567.991	17.29
568.188	17.39
568.385	17.46
568.582	17.52
568.779	17.59
568.976	17.77
569.172	17.95
569.369	18.06
569.566	18.14
569.763	18.3
569.96	18.32
570.156	18.31
570.353	18.26
570.55	18.27
570.746	18.26
570.943	18.33
571.14	18.29
571.336	18.39
571.533	18.6
571.729	18.59
571.926	18.66
572.123	18.81
572.319	18.94
572.516	18.83
572.712	18.91
572.909	18.88
573.105	18.9
573.302	18.86
573.498	19.08
573.695	19.08
573.891	19.23
574.087	19.34
574.284	19.41
574.48	19.33
574.677	19.44
574.873	19.46
575.069	19.47
575.266	19.53
575.462	19.56
575.658	19.67
575.854	19.82
576.051	19.87
576.247	19.84
576.443	19.84
576.639	19.7
576.835	19.56
577.032	19.5
577.228	19.71
577.424	19.79
577.62	19.78
577.816	19.87
578.012	19.9
578.208	19.83
578.404	19.9
578.6	20.09
578.796	20.07
578.993	20.18
579.189	20.13
579.384	20.04
579.58	19.88
579.776	19.93
579.972	19.83
580.168	19.77
580.364	19.87
580.56	19.91
580.756	19.9
580.952	19.89
581.148	20.01
581.343	20.02
581.539	20.11
581.735	20.18
581.931	20.26
582.127	20.25
582.322	20.2
582.518	20.21
582.714	20.11
582.909	20.05
583.105	20
583.301	19.95
583.496	20
583.692	19.97
583.888	20.01
584.083	20.06
584.279	20.09
584.474	19.95
584.67	20.05
584.866	20.02
585.061	19.81
585.257	19.86
585.452	19.87
585.648	19.7
585.843	19.71
586.039	19.86
586.234	19.85
586.429	19.88
586.625	20.02
586.82	19.95
587.015	19.84
587.211	19.69
587.406	19.67
587.601	19.51
587.797	19.54
587.992	19.54
588.187	19.71
588.383	19.65
588.578	19.69
588.773	19.73
588.968	19.76
589.163	19.72
589.359	19.68
589.554	19.69
589.749	19.6
589.944	19.67
590.139	19.63
590.334	19.69
590.529	19.77
590.724	19.83
590.919	19.86
591.114	19.83
591.309	19.93
591.504	19.9
591.699	19.87
591.894	19.96
592.089	19.97
592.284	19.93
592.479	19.96
592.674	19.98
592.869	19.94
593.064	20.07
593.259	20.19
593.454	20.33
593.648	20.38
593.843	20.29
594.038	20.28
594.233	20.19
594.428	20.11
594.622	20.07
594.817	20.26
595.012	20.28
595.206	20.37
595.401	20.43
595.596	20.51
595.79	20.59
595.985	20.74
596.18	20.77
596.374	20.83
596.569	20.93
596.763	20.88
596.958	20.88
597.153	20.92
597.347	20.93
597.542	21.1
597.736	21.12
597.931	21.09
598.125	21.13
598.319	21.24
598.514	21.13
598.708	21.18
598.903	21.16
599.097	21.21
599.291	21.23
599.486	21.28
599.68	21.3
599.874	21.43
600.069	21.41
600.263	21.39
600.457	21.45
600.651	21.56
600.846	21.58
601.04	21.65
601.234	21.65
601.428	21.75
601.622	21.75
601.817	21.75
602.011	21.89
602.205	21.98
602.399	21.9
602.593	21.84
602.787	21.9
602.981	21.8
603.175	21.82
603.369	21.71
603.563	21.8
603.757	21.84
603.951	21.8
604.145	21.76
604.339	21.9
604.533	21.77
604.727	21.7
604.921	21.76
605.115	21.72
605.309	21.78
605.502	21.82
605.696	21.8
605.89	21.63
606.084	21.54
606.278	21.41
606.471	21.34
606.665	21.27
606.859	21.28
607.053	21.3
607.246	21.22
607.44	21.22
607.634	21.15
607.827	21.15
608.021	21.08
608.214	21.12
608.408	21.03
608.602	21.03
608.795	20.94
608.989	20.86
609.182	20.72
609.376	20.71
609.569	20.52
609.763	20.53
609.956	20.57
610.15	20.56
610.343	20.45
610.537	20.49
610.73	20.46
610.923	20.39
611.117	20.43
611.31	20.41
611.504	20.42
611.697	20.28
611.89	20.2
612.083	20.04
612.277	20.13
612.47	20.01
612.663	19.94
612.856	19.9
613.05	19.74
613.243	19.6
613.436	19.54
613.629	19.55
613.822	19.45
614.015	19.42
614.209	19.24
614.402	19.15
614.595	19.09
614.788	19.06
614.981	18.95
615.174	18.9
615.367	18.86
615.56	18.78
615.753	18.79
615.946	18.79
616.139	18.84
616.332	18.93
616.525	18.89
616.718	18.88
616.911	18.88
617.103	18.84
617.296	18.77
617.489	18.69
617.682	18.58
617.875	18.56
618.067	18.48
618.26	18.34
618.453	18.42
618.646	18.39
618.838	18.38
619.031	18.39
619.224	18.46
619.417	18.33
619.609	18.39
619.802	18.42
619.994	18.38
620.187	18.29
620.38	18.27
620.572	18.21
620.765	18.17
620.957	18.07
621.15	18.03
621.342	18.03
621.535	18
621.727	17.98
621.92	17.93
622.112	17.91
622.305	17.92
622.497	17.85
622.69	17.82
622.882	17.89
623.074	17.92
623.267	17.9
623.459	17.89
623.651	17.82
623.844	17.8
624.036	17.86
624.228	17.78
624.42	17.81
624.613	17.92
624.805	17.89
624.997	17.81
625.189	17.74
625.381	17.7
625.574	17.6
625.766	17.48
625.958	17.52
626.15	17.6
626.342	17.59
626.534	17.62
626.726	17.69
626.918	17.61
627.11	17.56
627.302	17.56
627.494	17.43
627.686	17.41
627.878	17.36
628.07	17.35
628.262	17.26
628.454	17.36
628.646	17.32
628.838	17.42
629.029	17.39
629.221	17.43
629.413	17.26
629.605	17.18
629.797	17.09
629.989	17.12
630.18	17.14
630.372	17.15
630.564	17.13
630.755	17.13
630.947	17.16
631.139	17
631.33	16.98
631.522	17.09
631.714	17.07
631.905	16.95
632.097	16.93
632.289	16.95
632.48	16.9
632.672	16.83
632.863	16.78
633.055	16.8
633.246	16.84
633.438	16.73
633.629	16.78
633.821	16.8
634.012	16.81
634.203	16.67
634.395	16.74
634.586	16.74
634.777	16.66
634.969	16.66
635.16	16.73
635.351	16.61
635.543	16.64
635.734	16.66
635.925	16.54
636.117	16.54
636.308	16.58
636.499	16.4
636.69	16.35
636.881	16.34
637.073	16.3
637.264	16.35
637.455	16.47
637.646	16.61
637.837	16.68
638.028	16.61
638.219	16.62
638.41	16.47
638.601	16.37
638.792	16.4
638.983	16.39
639.174	16.25
639.365	16.35
639.556	16.31
639.747	16.15
639.938	16.23
640.129	16.25
640.32	16.15
640.511	16.23
640.701	16.37
640.892	16.3
641.083	16.35
641.274	16.37
641.465	16.32
641.655	16.24
641.846	16.25
642.037	16.22
642.228	16.12
642.418	16.22
642.609	16.24
642.8	16.24
642.99	16.09
643.181	16.22
643.372	16.16
643.562	16.11
643.753	16.05
643.943	16.05
644.134	15.91
644.324	15.77
644.515	15.77
644.705	15.83
644.896	15.91
645.086	15.93
645.277	15.96
645.467	15.93
645.658	15.9
645.848	15.9
646.038	15.94
646.229	15.91
646.419	15.86
646.61	15.76
646.8	15.62
646.99	15.59
647.18	15.57
647.371	15.58
647.561	15.54
647.751	15.69
647.941	15.61
648.132	15.58
648.322	15.57
648.512	15.61
648.702	15.5
648.892	15.47
649.082	15.51
649.272	15.36
649.462	15.33
649.653	15.29
649.843	15.31
650.033	15.25
650.223	15.33
650.413	15.21
650.603	15.22
650.793	15.16
650.983	15.16
651.172	15.02
651.362	15.04
651.552	14.93
651.742	14.92
651.932	14.9
652.122	14.96
652.312	15.03
652.502	15.04
652.691	14.92
652.881	14.85
653.071	14.8
653.261	14.64
653.45	14.44
653.64	14.49
653.83	14.29
654.019	14.07
654.209	13.98
654.399	14.01
654.588	13.86
654.778	13.81
654.968	13.76
655.157	13.71
655.347	13.64
655.536	13.58
655.726	13.53
655.915	13.5
656.105	13.38
656.294	13.33
656.484	13.13
656.673	13.11
656.863	13.09
657.052	12.92
657.241	12.67
657.431	12.64
657.62	12.51
657.809	12.26
657.999	12.21
658.188	12.16
658.377	12
658.567	11.97
658.756	11.95
658.945	11.76
659.134	11.56
659.324	11.55
659.513	11.31
659.702	11.14
659.891	11.11
660.08	11.04
660.269	10.96
660.458	10.81
660.648	10.76
660.837	10.66
661.026	10.63
661.215	10.43
661.404	10.42
661.593	10.4
661.782	10.25
661.971	10.28
662.16	10.21
662.349	10.12
662.538	9.98
662.726	9.96
662.915	9.81
663.104	9.76
663.293	9.71
663.482	9.74
663.671	9.7
663.86	9.6
664.048	9.51
664.237	9.5
664.426	9.26
664.615	9.23
664.803	9.21
664.992	9.16
665.181	9.02
665.369	9.01
665.558	8.91
665.747	8.82
665.935	8.89
666.124	8.97
666.312	8.95
666.501	8.95
666.69	8.89
666.878	8.74
667.067	8.54
667.255	8.62
667.444	8.8
667.632	8.86
667.82	8.98
668.009	8.94
668.197	8.77
668.386	8.69
668.574	8.81
668.762	8.78
668.951	8.8
669.139	8.81
669.327	8.65
669.516	8.58
669.704	8.44
669.892	8.55
670.08	8.61
670.269	8.46
670.457	8.24
670.645	8.1
670.833	8.16
671.021	8.12
671.21	8.22
671.398	8.55
671.586	8.61
671.774	8.43
671.962	8.44
672.15	8.49
672.338	8.24
672.526	8.33
672.714	8.28
672.902	8.29
673.09	8.52
673.278	8.74
673.466	8.8
673.654	9.07
673.842	9.09
674.03	8.98
674.218	8.82
674.405	8.75
674.593	8.63
674.781	8.68
674.969	8.63
675.157	8.75
675.344	8.91
675.532	8.99
675.72	9.09
675.908	9.17
676.095	9.1
676.283	9.09
676.471	9.29
676.658	9.21
676.846	9.22
677.033	9.32
677.221	9.35
677.409	9.04
677.596	9.17
677.784	9.07
677.971	9.06
678.159	9.13
678.346	9.36
678.534	9.31
678.721	9.62
678.909	9.58
679.096	9.56
679.283	9.7
679.471	9.84
679.658	9.86
679.846	10.1
680.033	10.37
680.22	10.31
680.408	10.27
680.595	10.22
680.782	10.07
680.969	10.06
681.157	10.14
681.344	10.16
681.531	10.13
681.718	10.2
681.905	10.2
682.093	10.31
682.28	10.45
682.467	10.78
682.654	11.02
682.841	11.11
683.028	11.27
683.215	11.46
683.402	11.26
683.589	11.38
683.776	11.51
683.963	11.46
684.15	11.57
684.337	11.8
684.524	11.84
684.711	11.98
684.898	12.02
685.085	12.17
685.271	12.48
685.458	12.73
685.645	12.81
685.832	13.1
686.019	13.3
686.205	13.46
686.392	13.67
686.579	13.81
686.766	14.06
686.952	14.2
687.139	14.65
687.326	14.76
687.512	15.04
687.699	15.32
687.886	15.54
688.072	15.46
688.259	15.89
688.445	16.29
688.632	16.41
688.818	16.91
689.005	17.21
689.191	17.4
689.378	17.96
689.564	18.55
689.751	18.83
689.937	19.05
690.124	19.49
690.31	19.53
690.496	19.89
690.683	20.36
690.869	21.11
691.055	21.55
691.242	22.3
691.428	22.83
691.614	23.24
691.8	23.69
691.987	24.31
692.173	24.72
692.359	25.17
692.545	25.77
692.731	26.36
692.918	26.79
693.104	27.21
693.29	27.88
693.476	28.44
693.662	28.96
693.848	29.35
694.034	30.05
694.22	30.11
694.406	30.71
694.592	31.25
694.778	32.06
694.964	32.3
695.15	33.24
695.336	33.69
695.522	34.5
695.708	35.24
695.894	36.15
696.08	36.95
696.265	37.6
696.451	38.05
696.637	38.75
696.823	39.28
697.009	39.74
697.194	40.24
697.38	40.47
697.566	40.8
697.751	41.32
697.937	42.04
698.123	42.8
698.308	43.73
698.494	44.14
698.68	44.63
698.865	44.93
699.051	45.49
699.236	45.78
699.422	46.37
699.607	46.95
699.793	47.76
699.978	48.06
700.164	48.46
700.349	49.07
700.535	49.4
700.72	49.74
700.906	50.49
701.091	51.18
701.276	51.67
701.462	52.54
701.647	53.35
701.832	53.91
702.018	54.45
702.203	54.76
702.388	54.97
702.573	54.98
702.759	55.2
702.944	55.61
703.129	55.78
703.314	56.22
703.499	56.38
703.684	56.6
703.87	57.37
704.055	58.31
704.24	58.78
704.425	59.5
704.61	59.85
704.795	59.65
704.98	59.68
705.165	59.58
705.35	59.67
705.535	60.21
705.72	60.99
705.905	61.65
706.09	62.48
706.275	62.78
706.459	62.46
706.644	62.24
706.829	62.2
707.014	62.27
707.199	62.95
707.384	63.87
707.568	64.09
707.753	64.7
707.938	64.91
708.123	64.93
708.307	64.73
708.492	65.29
708.677	65.68
708.861	65.74
709.046	65.54
709.231	66.51
709.415	66.7
709.6	66.27
709.784	66.4
709.969	66.82
710.153	66.3
710.338	66.35
710.522	66.61
710.707	67.18
710.891	67.23
711.076	67.55
711.26	67.35
711.445	67.65
711.629	67.46
711.813	67.73
711.998	67.93
712.182	68.07
712.366	68.42
712.551	69.51
712.735	69.76
712.919	69.76
713.103	70.38
713.288	70.25
713.472	69.09
713.656	69.38
713.84	69.42
714.024	69.33
714.208	69.21
714.393	70.12
714.577	70.17
714.761	70.43
714.945	70.78
715.129	71
715.313	71.08
715.497	70.98
715.681	72.06
715.865	71.65
716.049	71.98
716.233	71.89
716.417	72.04
716.601	71.19
716.785	71.48
716.968	71.56
717.152	71.66
717.336	71.63
717.52	71.55
717.704	71.78
717.888	71.96
718.071	71.96
718.255	72.13
718.439	72.4
718.622	72.77
718.806	72.66
718.99	72.65
719.174	72.75
719.357	73.08
719.541	72.71
719.724	72.57
719.908	73.21
720.092	73.7
720.275	73.66
720.459	73.87
720.642	73.44
720.826	72.83
721.009	72.41
721.193	71.82
721.376	71.62
721.559	72.81
721.743	73.09
721.926	73.58
722.11	74.15
722.293	74.3
722.476	73.36
722.66	73.64
722.843	73.62
723.026	73.11
723.21	73.01
723.393	74.22
723.576	73.62
723.759	72.86
723.942	73.13
724.126	73.38
724.309	73.15
724.492	73.33
724.675	73.67
724.858	74.3
725.041	74.96
725.224	74.46
725.407	74.87
725.59	75.47
725.774	75.43
725.957	74.43
726.14	74.73
726.322	75.1
726.505	74.58
726.688	75.09
726.871	75.66
727.054	75.69
727.237	75.36
727.42	76.12
727.603	75.71
727.786	75.45
727.968	75.78
728.151	75.86
728.334	75.26
728.517	75.2
728.699	75.97
728.882	75.47
729.065	75.81
729.248	76.66
729.43	77.06
729.613	77.28
729.796	78.54
729.978	78.23
730.161	77.57
730.343	77.27
730.526	77.56
730.708	76.16
730.891	76.54
731.073	76.5
731.256	76.11
731.438	75.18
731.621	75.77
731.803	75.48
731.986	75.69
732.168	75.33
732.35	75.99
732.533	76.15
732.715	76.68
732.898	77.44
733.08	78.34
733.262	78.47
733.444	78.38
733.627	77.8
733.809	78.29
733.991	79.35
734.173	78.78
734.355	78.93
734.538	79.42
734.72	78.09
734.902	77.69
735.084	78.09
735.266	78.52
735.448	79.31
735.63	79.46
735.812	78.9
735.994	79.6
736.176	79.49
736.358	78.84
736.54	80.19
736.722	79.79
736.904	78.87
737.086	78.9
737.268	79.92
737.45	79.04
737.632	79.53
737.814	79.39
737.995	79.26
738.177	78.91
738.359	77.96
738.541	78.49
738.723	78.62
738.904	78.55
739.086	78.15
739.268	78.75
739.449	78.58
739.631	79.11
739.813	79.57
739.994	79.33
740.176	80.2
740.358	80.18
740.539	81.2
740.721	81.33
740.902	82
741.084	81.5
741.265	80.84
741.447	80.37
741.628	81.03
741.81	80.41
741.991	81.59
742.172	83.2
742.354	83.4
742.535	83.01
742.717	83.85
742.898	83.46
743.079	84.35
743.261	83.87
743.442	82.52
743.623	82.3
743.804	81.61
743.986	80.39
744.167	79.63
744.348	79.95
744.529	80.16
744.71	79.91
744.891	79.8
745.073	79.7
745.254	79.79
745.435	79.33
745.616	79.25
745.797	78.84
745.978	79.37
746.159	79.78
746.34	78.69
746.521	80.53
746.702	79.36
746.883	79.79
747.064	80.25
747.245	81.71
747.426	79.54
747.606	80.15
747.787	80.16
747.968	79.51
748.149	79.82
748.33	80.54
748.51	80.71
748.691	79.77
748.872	79.83
749.053	78.71
749.233	77.84
749.414	77.33
749.595	76.77
749.775	76.14
749.956	76.14
750.137	76.77
750.317	78.34
750.498	80.38
750.678	80.78
750.859	81.4
751.04	81.16
751.22	80.57
751.4	79.13
751.581	77.73
751.761	78.17
751.942	79.69
752.122	80.21
752.303	79.85
752.483	81.21
752.663	80.52
752.844	79.24
753.024	78.84
753.204	80.02
753.385	79.29
753.565	79
753.745	79.81
753.925	79.08
754.106	77.71
754.286	77.89
754.466	78
754.646	78.07
754.826	77.34
755.006	77.61
755.187	79.16
755.367	79.21
755.547	78.65
755.727	80.12
755.907	80.74
756.087	81.26
756.267	79.8
756.447	79.75
756.627	78.71
756.807	78.88
756.987	76.48
757.167	78.62
757.346	78.37
757.526	77.75
757.706	77.95
757.886	79.08
758.066	78.87
758.246	80.58
758.425	81.4
758.605	79.55
758.785	79.94
758.965	79.37
759.144	76.96
759.324	77.44
759.504	79.19
759.683	78.83
759.863	77.29
760.043	77.65
760.222	77.2
760.402	76.38
760.581	75.58
760.761	78.2
760.94	76.58
761.12	79.37
761.299	80.05
761.479	80.68
761.658	79.08
761.838	80.41
762.017	77.48
762.197	77.49
762.376	77.77
762.555	79.03
762.735	79.35
762.914	78.36
763.093	78.47
763.273	77.08
763.452	76.78
763.631	76.42
763.81	77.3
763.99	77.25
764.169	78.13
764.348	76.12
764.527	75.82
764.706	77.54
764.885	78.51
765.064	77.54
765.243	78.07
765.423	78.98
765.602	77.83
765.781	73.96
765.96	72.93
766.139	71.83
766.318	73.83
766.497	72.95
766.676	75.73
766.854	78.07
767.033	79.95
767.212	77.53
767.391	78.15
767.57	78.46
767.749	78.27
767.928	78.22
768.106	76.89
768.285	75.2
768.464	74.39
768.643	72.72
768.821	73.25
769	75.19
769.179	75.57
769.357	75.44
769.536	75.97
769.715	75.18
769.893	76.8
770.072	76.7
770.25	77.63
770.429	79.42
770.607	78.57
770.786	76.41
770.964	78.35
771.143	75.38
771.321	75.21
771.5	75.7
771.678	74.77
771.857	72.65
772.035	75.61
772.213	73.38
772.392	71.18
772.57	74.14
772.748	75.52
772.927	73.72
773.105	74.94
773.283	77.63
773.461	76.39
773.64	75.23
773.818	75.51
773.996	76.61
774.174	76.33
774.352	72.58
774.531	70.16
774.709	72.65
774.887	70.74
775.065	68.16
775.243	71.25
775.421	74.61
775.599	73.27
775.777	69.82
775.955	68.88
776.133	65.68
776.311	64.31
776.489	62.51
776.667	66.25
776.844	69.77
777.022	69.18
777.2	70.46
777.378	71.28
777.556	72.34
777.734	73.79
777.911	80.2
778.089	77.33
778.267	77.34
778.445	73.64
778.622	69.02
778.8	65.25
778.978	68.85
779.155	66.94
779.333	70.28
779.511	70.79
779.688	72.36
779.866	68.41
780.043	67.01
780.221	66.02
780.398	66.06
780.576	66.57
780.753	69.1
780.931	70.36
781.108	70.12
781.286	73.86
781.463	71.04
781.64	68.58
781.818	71.76
781.995	72.57
782.172	70.76
782.35	71.57
782.527	75.37
782.704	72.1
782.882	73.62
783.059	71.86
783.236	72.53
783.413	72.47
783.59	73.68
783.768	68.19
783.945	70.57
784.122	71.21
784.299	70.68
784.476	69.85
784.653	70.83
784.83	68.21
785.007	62.46
785.184	63.01
785.361	61.39
785.538	65.97
785.715	69.03
785.892	73.57
786.069	75.14
786.246	78.05
786.423	76.31
786.6	74.51
786.776	76.45
786.953	72.05
787.13	72.62
787.307	72.86
787.484	73.59
787.66	71.22
787.837	73.65
788.014	70.55
788.191	64.48
788.367	59.66
788.544	62.34
788.721	60.35
788.897	61.28
789.074	65.51
789.25	64.42
789.427	63.76
789.603	63.23
789.78	64.23
789.956	62.41
790.133	65.69
790.309	62.19
790.486	66
790.662	64.74
790.839	63.96
791.015	67.15
791.192	66.91
791.368	65.36
791.544	63.59
791.721	66.54
791.897	63.19
792.073	61.76
792.249	54.09
792.426	57.04
792.602	57.78
792.778	57.62
792.954	56.04
793.13	61.48
793.307	58.12
793.483	49.43
793.659	49.84
793.835	55.13
794.011	54.08
794.187	51.72
794.363	51.01
794.539	51.63
794.715	45.03
794.891	43.1
795.067	44.21
795.243	50.76
795.419	52.88
795.595	57.28
795.771	61.25
795.947	64.4
796.122	64.17
796.298	65.32
796.474	66.58
796.65	64.76
796.826	64.45
797.001	62.41
797.177	54.64
797.353	57.15
797.529	61.87
797.704	62.32
797.88	61.55
798.056	61.23
798.231	56.03
798.407	54.88
798.582	53.49
798.758	65.69
798.934	77.12
799.109	72.95
799.285	69.98
799.46	70.11
799.636	61.52
799.811	54.29
799.986	59.47
800.162	61.98
800.337	64.07
800.513	58.9
800.688	60.01
800.863	70.35
801.039	63.54
801.214	53.23
801.389	59.08
801.565	54.88
801.74	38.03
801.915	48.11
802.09	51.56
802.265	55.18
802.441	54.69
802.616	57.43
802.791	52.39
802.966	59.5
803.141	57.29
803.316	55.45
803.491	61.52
803.666	69.89
803.841	60.5
804.016	57.74
804.191	61.96
804.366	52.27
804.541	43.47
804.716	51.76
804.891	44.32
805.066	47.5
805.241	49.66
805.416	45.34
805.591	36.92
805.765	44.42
805.94	46.38
806.115	51.26
806.29	45.46
806.464	47.76
806.639	42.84
806.814	35.26
806.989	22.43
807.163	41.73
807.338	45.38
807.512	48.88
807.687	37.99
807.862	56.73
808.036	53.55
808.211	52.6
808.385	56.7
808.56	75.11
808.734	72.62
808.909	68.94
809.083	63.53
809.258	72.48
809.432	64.83
809.606	53.59
809.781	55
809.955	67.02
810.13	57.77
810.304	52.48
810.478	46.25
810.652	53.92
810.827	50.26
811.001	46.32
811.175	43.77
811.349	52.5
811.524	39.24
811.698	26.08
811.872	28.33
812.046	35.76
812.22	46.66
812.394	49.41
812.568	56.44
812.742	58.91
812.916	51.95
813.09	30.1
813.264	28.54
813.438	37.46
813.612	38.42
813.786	39.71
813.96	55.45
814.134	57.46
814.308	64.31
814.482	70.22
814.656	66.19
814.83	66.03
815.003	66.22
815.177	51.47
815.351	46.19
815.525	52.74
815.698	46.96
815.872	43.57
816.046	29.19
816.219	33.12
816.393	48.04
816.567	51.64
816.74	56.56
816.914	75.17
817.088	76
817.261	56.87
817.435	44.37
817.608	44.92
817.782	25.71
817.955	23.07
818.129	16.28
818.302	31.31
818.475	39.32
818.649	45.48
818.822	37.35
818.996	70.21
819.169	64.57
819.342	37.65
819.516	59.08
819.689	73.47
819.862	55.34
820.035	44.41
820.209	56.4
820.382	45.49
820.555	47.98
820.728	31.42
820.901	36.08
821.075	34
821.248	37.61
821.421	24.13
821.594	37.04
821.767	68.11
821.94	74.05
822.113	47.43
822.286	41.56
822.459	44.49
822.632	22.66
822.805	11.33
822.978	26.26
823.151	27.99
823.324	26.96
823.496	6.85
823.669	-2.8
823.842	-1.75
824.015	-13.89
824.188	-29.67
824.361	-35.69
824.533	-17.92
824.706	3.14
824.879	13.06
825.051	18.66
825.224	32.58
825.397	29.27
825.569	-6.56
825.742	15.05
825.915	27.41
826.087	20.83
826.26	8.02
826.432	13.52
826.605	14.8
826.777	10.4
826.95	14.08
827.122	17.81
827.295	23.01
827.467	18.97
827.64	-11.76
827.812	-7.3
827.984	0.03
828.157	-2.99
828.329	-34.78
828.501	-6.62
828.674	13.57
828.846	-4.12
829.018	17.85
829.19	1.95
829.363	29.96
829.535	24.83
829.707	22.61
829.879	-9.38
830.051	-3.14
830.223	-27.74
830.395	-46.43
830.568	-37.59
830.74	-27.8
830.912	10.02
831.084	-11.76
831.256	-0.31
831.428	-12.24
831.6	-32.78
831.772	-80.19
831.943	-65.8
832.115	-47.85
832.287	-10.42
832.459	15.62
832.631	32.39
832.803	52.74
832.975	72.89
833.146	44.6
833.318	31.32
833.49	42.64
833.662	9.28
833.833	-24.48
834.005	-8
834.177	1.66
834.348	-12.38
834.52	-18.46
834.692	-14.26
834.863	-59.53
835.035	-39.01
835.206	-95.1
835.378	-59.18
835.549	-65.05
835.721	-14.49
835.892	-35.57
836.064	-28.7
836.235	-21.51
836.407	12.8
836.578	-32.69
836.749	-26.27
836.921	-39.39
837.092	-72.72
837.264	-72.44
837.435	-85.3
837.606	-31.13
837.777	4.88
837.949	17.53
838.12	20.83
838.291	35.93
838.462	21.42
838.633	-6.22
838.805	-16.11
838.976	-14.33
839.147	-69.28
839.318	-70.02
839.489	-95.6
839.66	-59.45
839.831	-32.85
840.002	-3.6
840.173	-10.64
840.344	38.89
840.515	53.75
840.686	-46.61
840.857	-79.83
841.028	-105.77
841.199	-110.84
841.369	-123.72
841.54	-113.15
841.711	-58.78
841.882	-16.32
842.053	-22.68
842.223	-29.7
842.394	-11.42
842.565	-23.24
842.736	-12.54
842.906	-17.67
843.077	-9.98
843.248	-14.85
843.418	-29.98
843.589	-116.5
843.759	-88.59
843.93	-38.72
844.101	-8.03
844.271	9.64
844.442	30.32
844.612	42.51
844.783	7.29
844.953	-45.85
845.123	-43.84
845.294	-44.64
845.464	-253.28
845.635	-91.88
845.805	9.95
845.975	-2.67
846.146	-38.31
846.316	-38.13
846.486	-8.83
846.656	27.83
846.827	12.47
846.997	7.79
847.167	35.08
847.337	-14.29
847.507	-104.22
847.677	-68.82
847.848	-7.21
848.018	1.57
848.188	21.61
848.358	21.19
848.528	-8.23
848.698	-31.51
848.868	-102.55
849.038	-209.14
849.208	-64.41
849.378	-16.5
849.548	-22.08
849.718	-1.02
849.887	15.92
850.057	-6.79
850.227	-44.41
850.397	-96.59
850.567	-254.52
850.737	-552.83
850.906	-1761.88
851.076	-1183.2
851.246	-516.49
851.415	-81.27
851.585	-87.35
851.755	-131.3
851.924	-60.87
852.094	-120.36
852.264	-277.32
852.433	-1436.06
852.603	-288.74
852.772	-250.68
852.942	-138.87
853.111	-119.64
853.281	-62.12
853.45	-29.43
853.62	-112.68
853.789	-123.64
853.959	-96.66
854.128	-116.22
854.297	-127.41
854.467	-134.74
854.636	-90.18
854.805	-18.62
854.975	-32.57
855.144	-70.55
855.313	-45.8
855.482	-284.31
855.652	-334.68
855.821	-259.74
855.99	-52.42
856.159	7.35
856.328	23.34
856.497	35.4
856.667	53.19
856.836	73.77
857.005	28.19
857.174	-19.9
857.343	-30.67
857.512	-43.58
857.681	-92.27
857.85	-137.19
858.019	-71.11
858.188	-75.59
858.356	-89.15
858.525	-166.92
858.694	-145.74
858.863	-271.09
859.032	-172.75
859.201	-243.34
859.369	-116.2
859.538	-72.02
859.707	-70.08
859.876	-111.1
860.044	-86.73
860.213	-1.94
860.382	-8.43
860.55	7.2
860.719	51.45
860.888	64.03
861.056	12.79
861.225	-11.23
861.393	11.79
861.562	8.01
861.73	-124.71
861.899	-332.72
862.067	-2522.41
862.236	-159.12
862.404	-407.93
862.572	-211.1
862.741	-57.56
862.909	-44.4
863.078	-135.53
863.246	-94.15
863.414	-60.38
863.582	-50.2
863.751	-55.51
863.919	-65.51
864.087	16.23
864.255	0.54
864.424	-311.75
864.592	-70.12
864.76	-90.28
864.928	-378.8
865.096	-306.53
865.264	-213.34
865.432	-2228.41
865.6	-172.25
865.768	-186.73
865.936	-128.28
866.104	-144.88
866.272	-173.28
866.44	-459.25
866.608	694.29
866.776	386.51
866.944	3570.93
867.112	-706.57
867.28	-305.65
867.448	-106.34
867.615	-30.89
867.783	-12.79
867.951	-30.71
868.119	14.88
868.286	-48.61
868.454	-237.5
868.622	-247.61
868.789	-298.68
868.957	-6232.14
869.125	-3535.53
869.292	-229.12
869.46	-279.22
869.627	-8.6
869.795	-39.42
869.963	-17.37
870.13	9.21
870.298	31.71
870.465	-105.89
870.632	-107.6
870.8	-75.03
870.967	-179.83
871.135	-285.75
871.302	-216.27
871.469	-240.15
871.637	-329.72
871.804	-154.13
871.971	-184.29
872.139	-520.23
872.306	-56.17
872.473	-72.58
872.64	-226.39
872.807	3.08
872.975	62.73
873.142	-154.73
873.309	1320.27
873.476	34.24
873.643	62.94
873.81	-13.67
873.977	34.33
874.144	12.44
874.311	-165.76
874.478	-206.36
874.645	-261.51
874.812	-174.68
874.979	-46.98
875.146	-62.86
875.313	-79.63
875.48	38.16
875.647	0.04
875.813	-54.43
875.98	-34.65
876.147	-51.88
876.314	-144.78
876.481	1115.29
876.647	-1405.06
876.814	501.81
876.981	24.42
877.147	-27.28
877.314	-11.28
877.481	3.78
877.647	10.66
877.814	-60.56
877.98	-113.78
878.147	-26.33
878.314	6.27
878.48	-53.93
878.647	-29.36
878.813	44.12
878.979	24.85
879.146	-19.73
879.312	-12.65
879.479	-74.17
879.645	-225.85
879.811	-501.42
879.978	-1112.6
880.144	-375.7
880.31	-178.24
880.477	-402.89
880.643	-470.95
880.809	-226.32
880.975	-177.7
881.142	-1202.27
881.308	-173.34
881.474	-52.18
881.64	-38.93
881.806	-151.62
881.972	-54.07
882.138	-74.17
882.304	-115.71
882.47	-275.99
882.636	-833.2
882.802	-270.22
882.968	-54.43
883.134	-33.32
883.3	-26.57
883.466	29.5
883.632	60.76
883.798	19.14
883.964	-11.5
884.129	-2.57
884.295	3.2
884.461	-64.3
884.627	-104.97
884.793	-105.39
884.958	-43.09
885.124	-135.16
885.29	-239.04
885.455	-347.82
885.621	-106.43
885.787	-221.98
885.952	-124.68
886.118	-106.32
886.283	-90.47
886.449	-207.37
886.614	-199.73
886.78	-431.35
886.945	1705.74
887.111	-799.13
887.276	-601.42
887.442	-1011.36
887.607	-379.01
887.773	-288.38
887.938	-282.64
888.103	-415.94
888.269	-354.07
888.434	-593.24
888.599	-204.62
888.764	-80.18
888.93	-3.77
889.095	-7.24
889.26	-46.71
889.425	-34.76
889.59	-49.73
889.756	-93.13
889.921	-59.38
890.086	-24.86
890.251	-9.45
890.416	-174.94
890.581	-1354.03
890.746	150.89
890.911	358.92
891.076	193.33
891.241	-268.28
891.406	16.79
891.571	-71.68
891.736	-270.87
891.901	-437.61
892.065	764.29
892.23	164.97
892.395	273.48
892.56	378.76
892.725	-447.27
892.889	-928.05
893.054	-207.1
893.219	-73.06
893.384	-45.52
893.548	-127.12
893.713	-149.16
893.878	-95.56
