Data from Ofra_2a_PS_2GT7_Reflection_2.txt Node
Date: Tue Jul 20 09:44:33 EDT 2021
User: Adam
Spectrometer: FLMT01687
Trigger mode: 0
Integration Time (sec): 9.450000E-1
Scans to average: 3
Electric dark correction enabled: true
Nonlinearity correction enabled: false
Boxcar width: 3
XAxis mode: Wavelengths
Number of Pixels in Spectrum: 3648
>>>>>Begin Spectral Data<<<<<
179.494	756.21
179.716	469.28
179.937	543.41
180.158	2220.7
180.38	-1094.48
180.601	-132.43
180.823	-74.59
181.044	30.18
181.265	-84.33
181.486	43.63
181.708	303.26
181.929	51.98
182.15	-502.84
182.372	-33.84
182.593	43.92
182.814	372.31
183.035	199.9
183.257	101.68
183.478	70.61
183.699	89.26
183.92	64.48
184.141	62.24
184.363	41.05
184.584	37.2
184.805	45.71
185.026	38.86
185.247	13.26
185.468	17.56
185.689	27.32
185.91	28.11
186.132	27.6
186.353	13.94
186.574	23.71
186.795	20.16
187.016	22.93
187.237	18.64
187.458	7.69
187.679	-6.24
187.9	-10.54
188.121	-22.66
188.342	14.82
188.563	18.97
188.784	10.94
189.005	31.44
189.226	44.44
189.447	52.46
189.667	65.05
189.888	53.58
190.109	53.99
190.33	47.07
190.551	41.17
190.772	32.6
190.993	36.13
191.214	37.13
191.434	34.55
191.655	33.07
191.876	41.15
192.097	33
192.318	47.44
192.538	43.11
192.759	45.61
192.98	37.35
193.201	45.14
193.421	53.79
193.642	53.41
193.863	36.64
194.083	26.69
194.304	7.17
194.525	41.95
194.745	19.04
194.966	10.76
195.187	31.37
195.407	26.65
195.628	26.94
195.848	31.23
196.069	13.64
196.29	11.65
196.51	17.14
196.731	21.18
196.951	28.81
197.172	45.77
197.392	40.45
197.613	32.36
197.833	40.32
198.054	36.3
198.274	7.27
198.495	14
198.715	2.91
198.936	3.35
199.156	19.42
199.377	5.93
199.597	2.58
199.817	31.23
200.038	38.48
200.258	38.75
200.479	38.67
200.699	32.67
200.919	30.25
201.14	34.97
201.36	40.54
201.58	25.58
201.801	24.58
202.021	32.92
202.241	44.26
202.461	49.57
202.682	51.78
202.902	38.05
203.122	33.79
203.342	54.37
203.563	47.51
203.783	41.04
204.003	43.73
204.223	47.5
204.443	57.67
204.663	61.64
204.884	52.62
205.104	54.38
205.324	69.49
205.544	65.27
205.764	58.37
205.984	55.14
206.204	53.06
206.424	51.26
206.644	48.9
206.864	38.09
207.084	55.6
207.304	48.99
207.525	43.14
207.745	52.36
207.964	53.4
208.184	40.56
208.404	37.34
208.624	17.74
208.844	19.29
209.064	32.52
209.284	26.5
209.504	30.02
209.724	10.69
209.944	27.6
210.164	28.23
210.384	38.73
210.604	3.85
210.823	2
211.043	-3.27
211.263	33.13
211.483	29.18
211.703	31.67
211.922	21.57
212.142	37.82
212.362	40.66
212.582	41.93
212.801	39.11
213.021	38.34
213.241	40.09
213.461	46.94
213.68	52.77
213.9	55.95
214.12	53.6
214.339	54.15
214.559	55.67
214.779	54.5
214.998	52.29
215.218	46.37
215.438	51.75
215.657	37.39
215.877	28.12
216.096	33.82
216.316	26.95
216.535	26.75
216.755	12.2
216.974	-3.99
217.194	4.42
217.413	21.33
217.633	5.85
217.852	2.73
218.072	-1.96
218.291	23.44
218.511	23.89
218.73	15.98
218.95	4.62
219.169	-3.89
219.389	5.44
219.608	10.98
219.827	-6.25
220.047	-2.96
220.266	3.46
220.485	9.58
220.705	12.62
220.924	0.91
221.143	-2.83
221.363	-9.71
221.582	-9.41
221.801	-5.68
222.021	-14.11
222.24	-25.15
222.459	-23.22
222.678	-38.71
222.897	-22.03
223.117	-22.95
223.336	-21.44
223.555	-13.14
223.774	5.54
223.993	23.53
224.213	28.93
224.432	41.82
224.651	46.1
224.87	44.91
225.089	42.66
225.308	44.93
225.527	48.73
225.746	42.5
225.965	20.2
226.184	31.28
226.404	33.62
226.623	47.83
226.842	33.71
227.061	34.58
227.28	56.11
227.499	58.85
227.718	51.72
227.936	45.7
228.155	30.11
228.374	33.1
228.593	25.39
228.812	9.65
229.031	0.39
229.25	6.46
229.469	22.61
229.688	32.14
229.907	30
230.125	29.87
230.344	36.35
230.563	50.82
230.782	36.88
231.001	34.16
231.22	31.87
231.438	37.33
231.657	44.61
231.876	42.02
232.095	34.25
232.313	46.83
232.532	35.64
232.751	36.85
232.969	41.43
233.188	50.75
233.407	52.53
233.625	53.3
233.844	46.51
234.063	58.86
234.281	50.83
234.5	39.79
234.719	20.6
234.937	28.44
235.156	14.09
235.374	0.22
235.593	-12.92
235.811	-23.59
236.03	-34.41
236.249	-5.77
236.467	-1.65
236.686	12.27
236.904	23.38
237.123	13.5
237.341	18.93
237.559	24.9
237.778	36.67
237.996	34.14
238.215	33.36
238.433	41.03
238.652	51.34
238.87	57.47
239.088	44.25
239.307	32.77
239.525	26.27
239.743	19.85
239.962	12.8
240.18	28.33
240.398	21.38
240.617	41.36
240.835	38.86
241.053	47.68
241.271	60.21
241.49	53.39
241.708	33.59
241.926	35.89
242.144	26.54
242.363	28.75
242.581	24.65
242.799	9.66
243.017	21.66
243.235	24.82
243.453	26.43
243.672	29.4
243.89	27.67
244.108	26.35
244.326	28.82
244.544	33.23
244.762	28.77
244.98	24.46
245.198	9.48
245.416	13.24
245.634	28.52
245.852	32.2
246.07	22.47
246.288	30.05
246.506	32.19
246.724	58.94
246.942	54.05
247.16	36.67
247.378	26.41
247.596	29.26
247.814	19.9
248.032	19.76
248.25	7.13
248.468	15.25
248.685	14.23
248.903	17.23
249.121	29.78
249.339	38.06
249.557	39.43
249.775	21.99
249.992	13.25
250.21	9.33
250.428	10.1
250.646	5.02
250.863	1.31
251.081	3.69
251.299	38.66
251.517	51.42
251.734	61.55
251.952	67.99
252.17	71.53
252.387	65.93
252.605	53.74
252.823	21.24
253.04	21.06
253.258	25.23
253.475	19.75
253.693	25.37
253.911	26.89
254.128	23.56
254.346	37.59
254.563	29.05
254.781	24.22
254.998	25.84
255.216	20.6
255.433	11.38
255.651	17.74
255.868	6.91
256.086	9.37
256.303	8.47
256.521	-8.76
256.738	-4.49
256.956	3.81
257.173	5.91
257.39	12.36
257.608	19.17
257.825	26.33
258.043	28.4
258.26	25.52
258.477	29
258.695	30.99
258.912	37.35
259.129	25.88
259.346	19.04
259.564	27.22
259.781	36.97
259.998	38.63
260.216	51.48
260.433	44.9
260.65	51.17
260.867	38.69
261.084	38.92
261.302	28.55
261.519	13.46
261.736	-4.01
261.953	1.81
262.17	7.55
262.387	27.6
262.604	1.96
262.822	5.53
263.039	14.43
263.256	15.86
263.473	8.2
263.69	5.85
263.907	0.96
264.124	10.1
264.341	1.29
264.558	1.06
264.775	6.45
264.992	3.59
265.209	9.59
265.426	11.04
265.643	18.69
265.86	25.29
266.077	30.06
266.294	29.79
266.51	35.94
266.727	25.49
266.944	20.11
267.161	16.63
267.378	16.7
267.595	-0.2
267.812	-15.11
268.028	-7.05
268.245	-3.23
268.462	5.57
268.679	11.01
268.896	9.23
269.112	21.14
269.329	27.06
269.546	18.43
269.763	26.91
269.979	25.01
270.196	26.04
270.413	26.75
270.629	26.89
270.846	31.06
271.063	31.85
271.279	31.49
271.496	20.17
271.712	11.12
271.929	17.37
272.146	15.98
272.362	7.88
272.579	10.53
272.795	10.9
273.012	25.5
273.228	30.9
273.445	30.12
273.661	26.3
273.878	32.18
274.094	37.14
274.311	36.37
274.527	34.11
274.744	35.23
274.96	27.08
275.177	32.57
275.393	25.45
275.609	28.26
275.826	20.23
276.042	28.68
276.259	23.29
276.475	27.38
276.691	34.21
276.908	31.4
277.124	29.76
277.34	34.29
277.557	24.62
277.773	27.13
277.989	17.87
278.205	15.24
278.422	20.56
278.638	28.42
278.854	26.63
279.07	25.77
279.286	30.64
279.503	45.63
279.719	48.37
279.935	42.95
280.151	44.95
280.367	48.12
280.583	50.22
280.799	52.1
281.016	47.1
281.232	37.46
281.448	39.09
281.664	28.42
281.88	27.48
282.096	29.02
282.312	20.66
282.528	18.17
282.744	11.99
282.96	18.5
283.176	20.56
283.392	30.38
283.608	36.7
283.824	29.16
284.04	28.85
284.256	30.3
284.471	23.89
284.687	19.11
284.903	13.9
285.119	-13.1
285.335	0.34
285.551	8.85
285.767	19.1
285.982	12.93
286.198	10.25
286.414	13.24
286.63	32.4
286.846	15.18
287.061	10.81
287.277	9.7
287.493	25.28
287.709	30.75
287.924	35.32
288.14	34.46
288.356	49.99
288.571	49.8
288.787	45.94
289.003	43.16
289.218	36.6
289.434	34.44
289.65	37.54
289.865	43.8
290.081	42.48
290.296	41.45
290.512	39.56
290.727	44.61
290.943	33.48
291.159	17.57
291.374	9.46
291.59	11.98
291.805	5.32
292.021	-8.14
292.236	-8.1
292.451	-2.53
292.667	9.34
292.882	15.01
293.098	2.85
293.313	6.17
293.529	19.09
293.744	27.28
293.959	29.05
294.175	34.8
294.39	34
294.605	44.68
294.821	41.26
295.036	31.57
295.251	22.09
295.467	12.61
295.682	7.11
295.897	4.72
296.112	5.18
296.328	6.45
296.543	1.36
296.758	3.17
296.973	20.75
297.188	26.62
297.404	24.64
297.619	20.88
297.834	26.44
298.049	29.53
298.264	31.97
298.479	12.48
298.694	15.51
298.909	9.61
299.125	13.97
299.34	12.18
299.555	11.22
299.77	6.48
299.985	8.83
300.2	7.46
300.415	14.69
300.63	5.18
300.845	5.2
301.06	7.37
301.275	14.91
301.49	16.08
301.704	10.15
301.919	1.88
302.134	3.1
302.349	-5.15
302.564	-3.88
302.779	-11.2
302.994	-2.06
303.209	-9.74
303.423	8.79
303.638	11.31
303.853	22.29
304.068	22.64
304.283	24.33
304.497	23.5
304.712	28.82
304.927	17.95
305.142	21.32
305.356	18.96
305.571	24.35
305.786	26.44
306	30.73
306.215	29.6
306.43	44.25
306.644	46.86
306.859	46.95
307.074	36.38
307.288	33.62
307.503	32.48
307.717	28.99
307.932	23.82
308.147	15.89
308.361	17.94
308.576	21.95
308.79	22.25
309.005	23.74
309.219	37.84
309.434	37.43
309.648	32.82
309.863	36.35
310.077	42.04
310.292	50.94
310.506	48.98
310.72	42.51
310.935	40.75
311.149	43.16
311.364	47.48
311.578	40.3
311.792	28.59
312.007	17.98
312.221	22.08
312.435	26.83
312.649	40.94
312.864	25.38
313.078	23.61
313.292	24.82
313.507	37.4
313.721	34.13
313.935	38.19
314.149	28.84
314.363	30.29
314.578	54.35
314.792	58.79
315.006	55.31
315.22	54.68
315.434	49.81
315.648	50.32
315.862	45.63
316.077	35.62
316.291	29.5
316.505	21.31
316.719	11.47
316.933	15.54
317.147	18.78
317.361	16.56
317.575	9.7
317.789	20.53
318.003	33.16
318.217	33.99
318.431	34.25
318.645	42.34
318.859	35.22
319.073	28.91
319.287	32.9
319.5	27.62
319.714	30.37
319.928	30.71
320.142	25.08
320.356	47.14
320.57	43.98
320.784	27.84
320.997	32.61
321.211	34.79
321.425	27.18
321.639	23.84
321.853	10.01
322.066	16.97
322.28	22.28
322.494	14.42
322.707	13.13
322.921	16.35
323.135	23.1
323.349	23.77
323.562	24.3
323.776	25.04
323.989	29.18
324.203	28.7
324.417	19.75
324.63	10.13
324.844	0.77
325.057	5.63
325.271	2.78
325.485	7.87
325.698	5.69
325.912	15.14
326.125	24.91
326.339	32.89
326.552	31.21
326.766	40.77
326.979	37.79
327.193	39.69
327.406	37.54
327.619	15.91
327.833	6.71
328.046	5.66
328.26	1.92
328.473	7.39
328.686	7.04
328.9	6.52
329.113	25.35
329.326	35.45
329.54	35.3
329.753	29.06
329.966	29.62
330.179	37.36
330.393	44
330.606	41.86
330.819	40.43
331.032	48.69
331.246	49.82
331.459	52.16
331.672	45.68
331.885	41.97
332.098	41.65
332.311	31.68
332.525	23.97
332.738	19.11
332.951	13.31
333.164	5.6
333.377	-5.47
333.59	-6.34
333.803	6.25
334.016	4.77
334.229	7.18
334.442	16.22
334.655	24.71
334.868	32.65
335.081	43.23
335.294	48.38
335.507	45.7
335.72	35.97
335.933	33.36
336.146	33.01
336.359	26.64
336.572	19.66
336.785	14.57
336.997	2.92
337.21	18.9
337.423	19.45
337.636	16.75
337.849	15.09
338.062	16.34
338.274	13.84
338.487	18.52
338.7	14.43
338.913	7.7
339.125	4.44
339.338	10.55
339.551	9.18
339.763	8.65
339.976	12.54
340.189	14.11
340.402	15.3
340.614	21.49
340.827	12.54
341.039	17.51
341.252	23.75
341.465	16.84
341.677	7.6
341.89	7.88
342.102	9.87
342.315	21.74
342.527	8.61
342.74	6.23
342.952	8.05
343.165	16.6
343.377	19.57
343.59	12.92
343.802	13.05
344.015	19.38
344.227	9.32
344.44	1.99
344.652	-1.75
344.864	0.43
345.077	-0.06
345.289	-8.39
345.502	-8.91
345.714	-6.46
345.926	2.9
346.139	11.43
346.351	-3.36
346.563	-2.17
346.775	0.9
346.988	9.56
347.2	12.61
347.412	10.56
347.624	13.48
347.837	17.46
348.049	21.44
348.261	19.23
348.473	14.11
348.685	20.58
348.897	28.23
349.11	25.52
349.322	22.11
349.534	13.31
349.746	19.82
349.958	12.05
350.17	6.7
350.382	-3.66
350.594	-1.74
350.806	6.83
351.018	13.21
351.23	17.52
351.442	25.44
351.654	37.73
351.866	41.66
352.078	38.04
352.29	41.01
352.502	37.9
352.714	32.5
352.926	27.25
353.138	14.31
353.35	12.61
353.561	9.2
353.773	5.39
353.985	15.99
354.197	13.98
354.409	21.85
354.621	21.39
354.832	20.99
355.044	28.19
355.256	32.09
355.468	21.39
355.679	32.39
355.891	22.54
356.103	28.95
356.314	24.06
356.526	19.85
356.738	18.46
356.949	19.13
357.161	13.22
357.373	20.44
357.584	18.79
357.796	22.03
358.008	30.18
358.219	32.85
358.431	39.75
358.642	33.74
358.854	29.53
359.065	29.48
359.277	27.81
359.488	27.29
359.7	26.73
359.911	18.08
360.123	29.5
360.334	28.03
360.546	18.29
360.757	24.68
360.969	25.24
361.18	26.33
361.391	29.67
361.603	24.02
361.814	28.65
362.025	38.27
362.237	34.96
362.448	29.85
362.659	22.9
362.871	24.91
363.082	27.8
363.293	27.11
363.504	23.37
363.716	27.01
363.927	31.98
364.138	36.92
364.349	36.3
364.56	31.7
364.772	29.08
364.983	18.56
365.194	16.14
365.405	8.76
365.616	-6.94
365.827	-10.51
366.038	0.24
366.25	3.59
366.461	14.26
366.672	11.64
366.883	13.88
367.094	21.75
367.305	16.08
367.516	8.93
367.727	7.2
367.938	7.97
368.149	9.66
368.36	6.56
368.571	8.77
368.781	13.46
368.992	11.75
369.203	8.78
369.414	9.79
369.625	9.39
369.836	11.99
370.047	9.26
370.258	6
370.468	-0.89
370.679	-1.72
370.89	1.4
371.101	-3.35
371.312	-3.96
371.522	-0.54
371.733	-4.45
371.944	12.51
372.155	4.51
372.365	1.04
372.576	6.68
372.787	10.11
372.997	7.07
373.208	17.58
373.419	9.16
373.629	29.12
373.84	24.19
374.05	25.47
374.261	19.35
374.472	16.08
374.682	6
374.893	6.26
375.103	0.14
375.314	5.66
375.524	5.8
375.735	4.79
375.945	9.33
376.156	15.2
376.366	21.91
376.577	22.84
376.787	19.32
376.997	16.18
377.208	17.92
377.418	15.67
377.629	15.9
377.839	15.98
378.049	16.12
378.26	20.22
378.47	24.19
378.68	23.47
378.89	17.55
379.101	11.87
379.311	6.21
379.521	7.57
379.732	-2.62
379.942	-4
380.152	0.75
380.362	14.02
380.572	21.17
380.783	21.75
380.993	18.9
381.203	25.21
381.413	27.23
381.623	28.5
381.833	22.91
382.043	16.1
382.253	13.96
382.463	15.84
382.674	16.12
382.884	9.57
383.094	6.81
383.304	5.86
383.514	15.54
383.724	16.29
383.934	13.81
384.144	20.48
384.353	23.73
384.563	20.09
384.773	21.8
384.983	17.41
385.193	17.8
385.403	19.72
385.613	15.18
385.823	11.67
386.033	13.79
386.242	10.22
386.452	5.83
386.662	5.31
386.872	2.94
387.082	-2.09
387.291	-2.19
387.501	1.21
387.711	3.25
387.921	6.86
388.13	5.42
388.34	5.43
388.55	8.75
388.759	10.1
388.969	5.27
389.179	6.88
389.388	7.32
389.598	4.93
389.807	4.64
390.017	3.7
390.227	4.63
390.436	5.89
390.646	4.32
390.855	2.79
391.065	3.95
391.274	3.72
391.484	5.54
391.693	4.88
391.903	4.75
392.112	4.78
392.322	7.05
392.531	7.56
392.74	7.8
392.95	6.63
393.159	6.3
393.369	5.98
393.578	5.93
393.787	4.53
393.997	4.7
394.206	4.15
394.415	4.24
394.625	3.14
394.834	2.66
395.043	2.14
395.252	2.32
395.462	2.26
395.671	2.56
395.88	3.15
396.089	3.91
396.298	4.19
396.508	4.33
396.717	3.83
396.926	3.83
397.135	3.84
397.344	3.01
397.553	2.74
397.762	2.41
397.971	2.55
398.181	2.52
398.39	2.67
398.599	2.87
398.808	3.26
399.017	3.62
399.226	4.02
399.435	3.84
399.644	3.96
399.853	3.79
400.062	3.59
400.27	3.43
400.479	3.36
400.688	3.24
400.897	3.46
401.106	3.49
401.315	3.52
401.524	3.7
401.733	3.87
401.941	3.74
402.15	3.65
402.359	3.49
402.568	3.54
402.777	3.41
402.985	3.12
403.194	3.06
403.403	3
403.612	3.09
403.82	3.15
404.029	3.08
404.238	3.11
404.446	3.18
404.655	3.07
404.864	3.06
405.072	3.01
405.281	2.83
405.489	2.87
405.698	2.9
405.906	2.95
406.115	2.99
406.324	2.99
406.532	3.07
406.741	3.18
406.949	3.07
407.158	3.03
407.366	3
407.574	2.96
407.783	2.97
407.991	2.87
408.2	2.74
408.408	2.83
408.617	2.82
408.825	2.8
409.033	2.81
409.242	2.78
409.45	2.75
409.658	2.83
409.867	2.81
410.075	2.74
410.283	2.63
410.491	2.58
410.7	2.59
410.908	2.7
411.116	2.67
411.324	2.73
411.533	2.7
411.741	2.74
411.949	2.78
412.157	2.85
412.365	2.84
412.573	2.86
412.781	2.77
412.99	2.88
413.198	2.9
413.406	2.85
413.614	2.84
413.822	2.74
414.03	2.63
414.238	2.73
414.446	2.66
414.654	2.65
414.862	2.66
415.07	2.63
415.278	2.57
415.486	2.72
415.694	2.54
415.902	2.58
416.109	2.69
416.317	2.66
416.525	2.69
416.733	2.75
416.941	2.67
417.149	2.86
417.357	2.88
417.564	2.74
417.772	2.8
417.98	2.69
418.188	2.61
418.395	2.64
418.603	2.44
418.811	2.3
419.019	2.41
419.226	2.45
419.434	2.4
419.642	2.42
419.849	2.41
420.057	2.44
420.265	2.46
420.472	2.34
420.68	2.24
420.887	2.35
421.095	2.36
421.302	2.42
421.51	2.46
421.717	2.55
421.925	2.52
422.132	2.5
422.34	2.41
422.547	2.38
422.755	2.3
422.962	2.23
423.17	2.17
423.377	2.27
423.585	2.3
423.792	2.28
423.999	2.29
424.207	2.2
424.414	2.3
424.621	2.33
424.829	2.3
425.036	2.22
425.243	2.3
425.451	2.4
425.658	2.48
425.865	2.4
426.072	2.49
426.28	2.43
426.487	2.47
426.694	2.43
426.901	2.31
427.108	2.27
427.315	2.24
427.523	2.14
427.73	2.25
427.937	2.32
428.144	2.37
428.351	2.42
428.558	2.4
428.765	2.44
428.972	2.47
429.179	2.39
429.386	2.39
429.593	2.33
429.8	2.34
430.007	2.4
430.214	2.41
430.421	2.38
430.628	2.26
430.835	2.18
431.042	2.24
431.249	2.28
431.456	2.37
431.662	2.39
431.869	2.51
432.076	2.61
432.283	2.61
432.49	2.62
432.697	2.57
432.903	2.49
433.11	2.48
433.317	2.43
433.524	2.39
433.73	2.47
433.937	2.45
434.144	2.52
434.35	2.55
434.557	2.51
434.764	2.45
434.97	2.57
435.177	2.5
435.384	2.57
435.59	2.52
435.797	2.52
436.003	2.54
436.21	2.49
436.416	2.38
436.623	2.44
436.829	2.4
437.036	2.46
437.242	2.43
437.449	2.48
437.655	2.51
437.862	2.6
438.068	2.63
438.275	2.64
438.481	2.65
438.687	2.74
438.894	2.78
439.1	2.78
439.307	2.75
439.513	2.7
439.719	2.7
439.926	2.7
440.132	2.65
440.338	2.68
440.544	2.69
440.751	2.65
440.957	2.63
441.163	2.66
441.369	2.61
441.575	2.6
441.782	2.56
441.988	2.6
442.194	2.73
442.4	2.83
442.606	2.83
442.812	2.83
443.018	2.84
443.224	2.83
443.431	2.86
443.637	2.78
443.843	2.77
444.049	2.77
444.255	2.78
444.461	2.78
444.667	2.8
444.873	2.78
445.079	2.83
445.284	2.78
445.49	2.75
445.696	2.78
445.902	2.86
446.108	2.85
446.314	2.92
446.52	2.95
446.726	2.98
446.931	2.99
447.137	2.99
447.343	2.96
447.549	2.95
447.755	2.86
447.96	2.81
448.166	2.79
448.372	2.75
448.578	2.74
448.783	2.75
448.989	2.77
449.195	2.8
449.4	2.81
449.606	2.84
449.812	2.96
450.017	2.99
450.223	2.96
450.428	2.93
450.634	2.97
450.84	2.98
451.045	2.98
451.251	2.99
451.456	2.96
451.662	2.98
451.867	3
452.073	2.96
452.278	2.97
452.483	2.94
452.689	2.91
452.894	2.97
453.1	2.93
453.305	2.96
453.51	2.98
453.716	3
453.921	3.04
454.127	3.02
454.332	2.99
454.537	3.06
454.742	3.08
454.948	3.07
455.153	3.03
455.358	3.09
455.563	3.13
455.769	3.14
455.974	3.08
456.179	3.02
456.384	3.08
456.589	3.14
456.795	3.07
457	3.05
457.205	3.04
457.41	3.07
457.615	3.11
457.82	3.14
458.025	3.11
458.23	3.1
458.435	3.07
458.64	3.16
458.845	3.15
459.05	3.16
459.255	3.1
459.46	3.12
459.665	3.2
459.87	3.22
460.075	3.16
460.28	3.17
460.485	3.22
460.69	3.19
460.895	3.21
461.099	3.14
461.304	3.15
461.509	3.11
461.714	3.15
461.919	3.12
462.123	3.2
462.328	3.17
462.533	3.2
462.738	3.22
462.942	3.28
463.147	3.29
463.352	3.35
463.556	3.38
463.761	3.42
463.966	3.43
464.17	3.46
464.375	3.44
464.58	3.44
464.784	3.41
464.989	3.37
465.193	3.41
465.398	3.43
465.602	3.42
465.807	3.46
466.011	3.47
466.216	3.53
466.42	3.59
466.625	3.52
466.829	3.59
467.034	3.64
467.238	3.65
467.443	3.67
467.647	3.62
467.851	3.57
468.056	3.59
468.26	3.51
468.464	3.48
468.669	3.5
468.873	3.49
469.077	3.53
469.282	3.58
469.486	3.61
469.69	3.63
469.894	3.7
470.099	3.71
470.303	3.69
470.507	3.71
470.711	3.66
470.915	3.7
471.119	3.71
471.324	3.66
471.528	3.63
471.732	3.67
471.936	3.71
472.14	3.75
472.344	3.73
472.548	3.79
472.752	3.85
472.956	3.94
473.16	3.95
473.364	3.87
473.568	3.89
473.772	3.94
473.976	3.88
474.18	3.82
474.384	3.77
474.588	3.73
474.792	3.79
474.995	3.76
475.199	3.77
475.403	3.79
475.607	3.86
475.811	3.91
476.015	3.95
476.218	3.96
476.422	3.99
476.626	3.94
476.83	3.95
477.033	3.95
477.237	3.93
477.441	3.94
477.644	3.96
477.848	3.94
478.052	3.97
478.255	3.94
478.459	3.95
478.663	3.95
478.866	3.93
479.07	3.93
479.273	3.93
479.477	3.95
479.681	3.99
479.884	3.93
480.088	3.93
480.291	3.96
480.495	3.97
480.698	4.01
480.901	4.02
481.105	4.06
481.308	4.1
481.512	4.14
481.715	4.15
481.919	4.17
482.122	4.15
482.325	4.15
482.529	4.16
482.732	4.19
482.935	4.21
483.138	4.22
483.342	4.24
483.545	4.25
483.748	4.28
483.952	4.29
484.155	4.31
484.358	4.27
484.561	4.25
484.764	4.2
484.967	4.25
485.171	4.24
485.374	4.25
485.577	4.27
485.78	4.28
485.983	4.3
486.186	4.3
486.389	4.25
486.592	4.24
486.795	4.25
486.998	4.26
487.201	4.27
487.404	4.31
487.607	4.31
487.81	4.37
488.013	4.36
488.216	4.35
488.419	4.3
488.622	4.28
488.825	4.25
489.028	4.26
489.231	4.24
489.433	4.24
489.636	4.2
489.839	4.24
490.042	4.24
490.245	4.25
490.447	4.26
490.65	4.27
490.853	4.27
491.056	4.27
491.258	4.3
491.461	4.26
491.664	4.23
491.866	4.22
492.069	4.22
492.272	4.17
492.474	4.17
492.677	4.08
492.879	4.09
493.082	4.12
493.285	4.11
493.487	4.1
493.69	4.15
493.892	4.19
494.095	4.22
494.297	4.27
494.5	4.3
494.702	4.32
494.905	4.33
495.107	4.3
495.309	4.27
495.512	4.3
495.714	4.33
495.917	4.29
496.119	4.35
496.321	4.39
496.524	4.41
496.726	4.4
496.928	4.39
497.13	4.39
497.333	4.39
497.535	4.34
497.737	4.29
497.939	4.3
498.142	4.29
498.344	4.27
498.546	4.28
498.748	4.23
498.95	4.25
499.152	4.22
499.355	4.24
499.557	4.32
499.759	4.35
499.961	4.36
500.163	4.45
500.365	4.45
500.567	4.46
500.769	4.46
500.971	4.42
501.173	4.42
501.375	4.37
501.577	4.37
501.779	4.41
501.981	4.43
502.183	4.4
502.385	4.41
502.587	4.41
502.788	4.42
502.99	4.41
503.192	4.41
503.394	4.45
503.596	4.47
503.798	4.52
503.999	4.5
504.201	4.55
504.403	4.57
504.605	4.55
504.806	4.53
505.008	4.53
505.21	4.51
505.411	4.55
505.613	4.53
505.815	4.5
506.016	4.55
506.218	4.56
506.42	4.58
506.621	4.6
506.823	4.56
507.024	4.55
507.226	4.56
507.427	4.49
507.629	4.53
507.83	4.52
508.032	4.53
508.233	4.57
508.435	4.6
508.636	4.61
508.838	4.66
509.039	4.62
509.24	4.61
509.442	4.56
509.643	4.57
509.845	4.57
510.046	4.57
510.247	4.62
510.448	4.67
510.65	4.71
510.851	4.78
511.052	4.8
511.254	4.78
511.455	4.81
511.656	4.75
511.857	4.73
512.058	4.75
512.26	4.69
512.461	4.7
512.662	4.7
512.863	4.69
513.064	4.67
513.265	4.68
513.466	4.69
513.667	4.73
513.868	4.73
514.069	4.77
514.27	4.78
514.471	4.85
514.672	4.88
514.873	4.88
515.074	4.89
515.275	4.89
515.476	4.91
515.677	4.94
515.878	4.95
516.079	4.94
516.28	4.93
516.481	4.93
516.682	4.93
516.882	4.9
517.083	4.88
517.284	4.85
517.485	4.85
517.686	4.84
517.886	4.86
518.087	4.89
518.288	4.9
518.488	4.92
518.689	4.93
518.89	4.97
519.091	5
519.291	4.99
519.492	4.97
519.692	5.01
519.893	5
520.094	5.02
520.294	4.98
520.495	5.01
520.695	5.02
520.896	5.02
521.096	4.99
521.297	5
521.497	5.01
521.698	5.04
521.898	5.04
522.099	5.05
522.299	5.06
522.499	5.08
522.7	5.08
522.9	5.09
523.101	5.09
523.301	5.06
523.501	5.09
523.702	5.11
523.902	5.11
524.102	5.11
524.302	5.12
524.503	5.13
524.703	5.13
524.903	5.15
525.103	5.17
525.304	5.17
525.504	5.17
525.704	5.17
525.904	5.17
526.104	5.2
526.304	5.17
526.504	5.16
526.705	5.2
526.905	5.23
527.105	5.22
527.305	5.19
527.505	5.19
527.705	5.19
527.905	5.19
528.105	5.17
528.305	5.18
528.505	5.21
528.705	5.23
528.905	5.26
529.105	5.3
529.304	5.33
529.504	5.34
529.704	5.33
529.904	5.34
530.104	5.34
530.304	5.34
530.503	5.32
530.703	5.35
530.903	5.36
531.103	5.37
531.303	5.37
531.502	5.38
531.702	5.36
531.902	5.38
532.101	5.36
532.301	5.35
532.501	5.35
532.7	5.33
532.9	5.34
533.1	5.37
533.299	5.41
533.499	5.42
533.698	5.45
533.898	5.48
534.097	5.52
534.297	5.56
534.496	5.55
534.696	5.53
534.895	5.55
535.095	5.55
535.294	5.53
535.494	5.55
535.693	5.57
535.892	5.57
536.092	5.58
536.291	5.57
536.491	5.6
536.69	5.63
536.889	5.62
537.088	5.59
537.288	5.63
537.487	5.66
537.686	5.69
537.886	5.69
538.085	5.75
538.284	5.79
538.483	5.82
538.682	5.82
538.882	5.83
539.081	5.86
539.28	5.84
539.479	5.83
539.678	5.84
539.877	5.86
540.076	5.91
540.275	5.94
540.474	5.92
540.673	5.95
540.872	5.96
541.071	5.99
541.27	6
541.469	5.99
541.668	6.02
541.867	6.07
542.066	6.09
542.265	6.12
542.464	6.13
542.663	6.18
542.862	6.22
543.06	6.23
543.259	6.24
543.458	6.26
543.657	6.3
543.856	6.32
544.054	6.3
544.253	6.31
544.452	6.3
544.651	6.31
544.849	6.36
545.048	6.37
545.247	6.41
545.445	6.42
545.644	6.48
545.843	6.52
546.041	6.58
546.24	6.61
546.438	6.65
546.637	6.68
546.836	6.74
547.034	6.75
547.233	6.81
547.431	6.81
547.63	6.85
547.828	6.9
548.027	6.89
548.225	6.95
548.423	7.01
548.622	7.04
548.82	7.09
549.019	7.1
549.217	7.13
549.415	7.2
549.614	7.19
549.812	7.23
550.01	7.28
550.209	7.31
550.407	7.39
550.605	7.43
550.803	7.45
551.002	7.51
551.2	7.58
551.398	7.6
551.596	7.65
551.794	7.68
551.993	7.69
552.191	7.79
552.389	7.87
552.587	7.88
552.785	7.96
552.983	8.04
553.181	8.08
553.379	8.15
553.577	8.19
553.775	8.23
553.973	8.29
554.171	8.34
554.369	8.37
554.567	8.42
554.765	8.5
554.963	8.51
555.161	8.58
555.359	8.61
555.557	8.7
555.755	8.75
555.952	8.83
556.15	8.89
556.348	9.03
556.546	9.1
556.744	9.17
556.941	9.23
557.139	9.32
557.337	9.38
557.535	9.45
557.732	9.5
557.93	9.58
558.128	9.66
558.325	9.75
558.523	9.79
558.721	9.86
558.918	9.95
559.116	10
559.313	10.09
559.511	10.16
559.708	10.2
559.906	10.32
560.104	10.45
560.301	10.5
560.498	10.53
560.696	10.58
560.893	10.67
561.091	10.79
561.288	10.84
561.486	10.88
561.683	10.94
561.88	11.01
562.078	11.07
562.275	11.14
562.473	11.17
562.67	11.26
562.867	11.34
563.064	11.47
563.262	11.64
563.459	11.74
563.656	11.84
563.853	11.96
564.051	12
564.248	12.04
564.445	12.09
564.642	12.12
564.839	12.18
565.036	12.28
565.234	12.36
565.431	12.44
565.628	12.53
565.825	12.65
566.022	12.72
566.219	12.79
566.416	12.86
566.613	12.9
566.81	12.99
567.007	13.04
567.204	13.06
567.401	13.14
567.598	13.2
567.795	13.21
567.991	13.3
568.188	13.34
568.385	13.45
568.582	13.51
568.779	13.59
568.976	13.66
569.172	13.78
569.369	13.8
569.566	13.9
569.763	13.97
569.96	14.06
570.156	14.06
570.353	14.11
570.55	14.17
570.746	14.24
570.943	14.27
571.14	14.29
571.336	14.31
571.533	14.37
571.729	14.42
571.926	14.45
572.123	14.46
572.319	14.52
572.516	14.54
572.712	14.62
572.909	14.68
573.105	14.73
573.302	14.75
573.498	14.8
573.695	14.82
573.891	14.89
574.087	14.87
574.284	14.86
574.48	14.82
574.677	14.83
574.873	14.91
575.069	14.96
575.266	14.95
575.462	15
575.658	15.08
575.854	15.16
576.051	15.21
576.247	15.17
576.443	15.2
576.639	15.21
576.835	15.22
577.032	15.22
577.228	15.23
577.424	15.25
577.62	15.26
577.816	15.26
578.012	15.27
578.208	15.27
578.404	15.29
578.6	15.3
578.796	15.31
578.993	15.33
579.189	15.31
579.384	15.29
579.58	15.29
579.776	15.26
579.972	15.23
580.168	15.21
580.364	15.2
580.56	15.21
580.756	15.24
580.952	15.23
581.148	15.25
581.343	15.25
581.539	15.24
581.735	15.22
581.931	15.22
582.127	15.17
582.322	15.21
582.518	15.18
582.714	15.19
582.909	15.15
583.105	15.15
583.301	15.06
583.496	15.04
583.692	14.99
583.888	14.99
584.083	14.98
584.279	15.03
584.474	14.99
584.67	15.06
584.866	15.13
585.061	15.16
585.257	15.14
585.452	15.14
585.648	15.12
585.843	15.17
586.039	15.19
586.234	15.16
586.429	15.11
586.625	15.11
586.82	15.08
587.015	15.06
587.211	15.07
587.406	15.03
587.601	15.06
587.797	15.06
587.992	15.09
588.187	15.12
588.383	15.15
588.578	15.06
588.773	15.07
588.968	15.11
589.163	15.17
589.359	15.18
589.554	15.2
589.749	15.19
589.944	15.27
590.139	15.33
590.334	15.28
590.529	15.3
590.724	15.35
590.919	15.41
591.114	15.45
591.309	15.49
591.504	15.53
591.699	15.59
591.894	15.62
592.089	15.65
592.284	15.67
592.479	15.69
592.674	15.73
592.869	15.72
593.064	15.77
593.259	15.77
593.454	15.78
593.648	15.83
593.843	15.93
594.038	15.95
594.233	16.05
594.428	16.11
594.622	16.2
594.817	16.26
595.012	16.26
595.206	16.3
595.401	16.34
595.596	16.41
595.79	16.43
595.985	16.46
596.18	16.52
596.374	16.58
596.569	16.62
596.763	16.75
596.958	16.73
597.153	16.79
597.347	16.82
597.542	16.87
597.736	16.97
597.931	17.05
598.125	17.11
598.319	17.2
598.514	17.25
598.708	17.34
598.903	17.45
599.097	17.49
599.291	17.52
599.486	17.57
599.68	17.62
599.874	17.7
600.069	17.69
600.263	17.69
600.457	17.72
600.651	17.74
600.846	17.74
601.04	17.74
601.234	17.76
601.428	17.82
601.622	17.88
601.817	17.94
602.011	17.98
602.205	18.02
602.399	18.11
602.593	18.11
602.787	18.16
602.981	18.18
603.175	18.11
603.369	18.1
603.563	18.09
603.757	18.06
603.951	18.06
604.145	17.95
604.339	17.89
604.533	17.94
604.727	17.92
604.921	17.89
605.115	17.85
605.309	17.87
605.502	17.92
605.696	17.9
605.89	17.91
606.084	17.88
606.278	17.82
606.471	17.73
606.665	17.66
606.859	17.62
607.053	17.61
607.246	17.52
607.44	17.51
607.634	17.51
607.827	17.48
608.021	17.47
608.214	17.41
608.408	17.3
608.602	17.26
608.795	17.17
608.989	17.11
609.182	17.13
609.376	17.04
609.569	16.95
609.763	17.03
609.956	16.91
610.15	16.88
610.343	16.83
610.537	16.77
610.73	16.78
610.923	16.78
611.117	16.63
611.31	16.6
611.504	16.54
611.697	16.54
611.89	16.44
612.083	16.36
612.277	16.25
612.47	16.19
612.663	16.15
612.856	16.09
613.05	15.98
613.243	15.95
613.436	15.83
613.629	15.83
613.822	15.75
614.015	15.69
614.209	15.64
614.402	15.58
614.595	15.48
614.788	15.44
614.981	15.33
615.174	15.29
615.367	15.29
615.56	15.19
615.753	15.12
615.946	15.08
616.139	15.06
616.332	14.99
616.525	14.93
616.718	14.85
616.911	14.83
617.103	14.76
617.296	14.69
617.489	14.65
617.682	14.66
617.875	14.64
618.067	14.55
618.26	14.53
618.453	14.49
618.646	14.46
618.838	14.42
619.031	14.37
619.224	14.38
619.417	14.37
619.609	14.31
619.802	14.31
619.994	14.33
620.187	14.31
620.38	14.28
620.572	14.23
620.765	14.21
620.957	14.17
621.15	14.16
621.342	14.15
621.535	14.14
621.727	14.12
621.92	14.09
622.112	14.13
622.305	14.1
622.497	14.07
622.69	13.98
622.882	13.94
623.074	13.92
623.267	13.86
623.459	13.79
623.651	13.81
623.844	13.83
624.036	13.85
624.228	13.85
624.42	13.81
624.613	13.82
624.805	13.81
624.997	13.8
625.189	13.76
625.381	13.73
625.574	13.7
625.766	13.73
625.958	13.73
626.15	13.73
626.342	13.65
626.534	13.62
626.726	13.61
626.918	13.61
627.11	13.51
627.302	13.48
627.494	13.45
627.686	13.46
627.878	13.42
628.07	13.38
628.262	13.35
628.454	13.37
628.646	13.32
628.838	13.26
629.029	13.19
629.221	13.17
629.413	13.13
629.605	13.08
629.797	13.05
629.989	13
630.18	12.97
630.372	12.99
630.564	13
630.755	12.99
630.947	12.93
631.139	12.87
631.33	12.86
631.522	12.83
631.714	12.78
631.905	12.69
632.097	12.67
632.289	12.62
632.48	12.62
632.672	12.58
632.863	12.55
633.055	12.53
633.246	12.55
633.438	12.49
633.629	12.53
633.821	12.57
634.012	12.57
634.203	12.61
634.395	12.61
634.586	12.59
634.777	12.61
634.969	12.57
635.16	12.51
635.351	12.53
635.543	12.47
635.734	12.44
635.925	12.5
636.117	12.49
636.308	12.48
636.499	12.47
636.69	12.49
636.881	12.52
637.073	12.47
637.264	12.38
637.455	12.39
637.646	12.42
637.837	12.4
638.028	12.39
638.219	12.33
638.41	12.35
638.601	12.34
638.792	12.32
638.983	12.26
639.174	12.29
639.365	12.26
639.556	12.27
639.747	12.28
639.938	12.31
640.129	12.25
640.32	12.22
640.511	12.21
640.701	12.13
640.892	12.13
641.083	12.08
641.274	12.03
641.465	12.01
641.655	12.03
641.846	11.96
642.037	11.99
642.228	11.95
642.418	11.93
642.609	11.9
642.8	11.91
642.99	11.92
643.181	11.95
643.372	11.92
643.562	11.9
643.753	11.87
643.943	11.88
644.134	11.87
644.324	11.83
644.515	11.78
644.705	11.77
644.896	11.75
645.086	11.72
645.277	11.77
645.467	11.71
645.658	11.67
645.848	11.62
646.038	11.58
646.229	11.6
646.419	11.63
646.61	11.55
646.8	11.57
646.99	11.56
647.18	11.57
647.371	11.55
647.561	11.49
647.751	11.46
647.941	11.4
648.132	11.4
648.322	11.44
648.512	11.42
648.702	11.38
648.892	11.38
649.082	11.35
649.272	11.34
649.462	11.29
649.653	11.22
649.843	11.18
650.033	11.2
650.223	11.18
650.413	11.22
650.603	11.24
650.793	11.22
650.983	11.22
651.172	11.19
651.362	11.18
651.552	11.1
651.742	11.04
651.932	11.01
652.122	11
652.312	10.88
652.502	10.87
652.691	10.82
652.881	10.82
653.071	10.75
653.261	10.67
653.45	10.6
653.64	10.6
653.83	10.53
654.019	10.42
654.209	10.3
654.399	10.25
654.588	10.2
654.778	10.11
654.968	10.01
655.157	9.91
655.347	9.82
655.536	9.67
655.726	9.59
655.915	9.43
656.105	9.31
656.294	9.24
656.484	9.15
656.673	9.07
656.863	9.03
657.052	8.86
657.241	8.77
657.431	8.66
657.62	8.5
657.809	8.38
657.999	8.26
658.188	8.19
658.377	8.18
658.567	8.07
658.756	7.95
658.945	7.88
659.134	7.81
659.324	7.74
659.513	7.57
659.702	7.38
659.891	7.28
660.08	7.22
660.269	7.15
660.458	7.01
660.648	6.9
660.837	6.89
661.026	6.85
661.215	6.77
661.404	6.65
661.593	6.54
661.782	6.48
661.971	6.41
662.16	6.3
662.349	6.18
662.538	6.19
662.726	6.09
662.915	6.07
663.104	5.95
663.293	5.86
663.482	5.76
663.671	5.71
663.86	5.61
664.048	5.6
664.237	5.49
664.426	5.52
664.615	5.48
664.803	5.44
664.992	5.47
665.181	5.43
665.369	5.41
665.558	5.42
665.747	5.42
665.935	5.38
666.124	5.43
666.312	5.36
666.501	5.32
666.69	5.26
666.878	5.2
667.067	5.19
667.255	5.25
667.444	5.21
667.632	5.2
667.82	5.2
668.009	5.29
668.197	5.33
668.386	5.27
668.574	5.24
668.762	5.23
668.951	5.24
669.139	5.29
669.327	5.26
669.516	5.3
669.704	5.39
669.892	5.39
670.08	5.39
670.269	5.43
670.457	5.42
670.645	5.48
670.833	5.47
671.021	5.45
671.21	5.55
671.398	5.58
671.586	5.59
671.774	5.57
671.962	5.57
672.15	5.61
672.338	5.68
672.526	5.68
672.714	5.76
672.902	5.77
673.09	5.9
673.278	5.91
673.466	6.04
673.654	6.05
673.842	6.15
674.03	6.2
674.218	6.3
674.405	6.4
674.593	6.44
674.781	6.43
674.969	6.48
675.157	6.5
675.344	6.53
675.532	6.57
675.72	6.59
675.908	6.66
676.095	6.81
676.283	6.85
676.471	6.88
676.658	6.96
676.846	7.05
677.033	7.14
677.221	7.2
677.409	7.19
677.596	7.35
677.784	7.46
677.971	7.5
678.159	7.59
678.346	7.64
678.534	7.75
678.721	7.79
678.909	7.75
679.096	7.78
679.283	7.89
679.471	7.95
679.658	7.99
679.846	8
680.033	8.14
680.22	8.23
680.408	8.26
680.595	8.26
680.782	8.34
680.969	8.4
681.157	8.46
681.344	8.49
681.531	8.54
681.718	8.65
681.905	8.84
682.093	8.9
682.28	9.07
682.467	9.19
682.654	9.27
682.841	9.42
683.028	9.6
683.215	9.66
683.402	9.71
683.589	9.73
683.776	9.84
683.963	9.86
684.15	9.92
684.337	10.01
684.524	10.15
684.711	10.29
684.898	10.45
685.085	10.63
685.271	10.89
685.458	11.11
685.645	11.28
685.832	11.51
686.019	11.78
686.205	12.03
686.392	12.23
686.579	12.45
686.766	12.72
686.952	13.03
687.139	13.16
687.326	13.41
687.512	13.67
687.699	13.88
687.886	14.12
688.072	14.43
688.259	14.67
688.445	15.05
688.632	15.4
688.818	15.67
689.005	16.2
689.191	16.63
689.378	16.92
689.564	17.26
689.751	17.7
689.937	18.02
690.124	18.48
690.31	18.79
690.496	19.23
690.683	19.8
690.869	20.26
691.055	20.72
691.242	21.25
691.428	21.8
691.614	22.36
691.8	22.8
691.987	23.33
692.173	23.93
692.359	24.49
692.545	24.97
692.731	25.56
692.918	26.06
693.104	26.61
693.29	27.11
693.476	27.62
693.662	28.18
693.848	28.73
694.034	29.18
694.22	29.84
694.406	30.43
694.592	30.98
694.778	31.61
694.964	32.16
695.15	32.77
695.336	33.6
695.522	34.16
695.708	34.87
695.894	35.56
696.08	36.15
696.265	36.76
696.451	37.61
696.637	38.05
696.823	38.5
697.009	39.17
697.194	39.79
697.38	40.22
697.566	40.78
697.751	41.08
697.937	41.63
698.123	42.43
698.308	42.68
698.494	43.13
698.68	43.82
698.865	44.43
699.051	45.08
699.236	45.76
699.422	46.29
699.607	46.99
699.793	47.41
699.978	47.89
700.164	48.38
700.349	48.84
700.535	49.1
700.72	49.53
700.906	50.05
701.091	50.66
701.276	51.21
701.462	51.6
701.647	52.08
701.832	52.6
702.018	53.01
702.203	53.44
702.388	53.87
702.573	54.41
702.759	55.04
702.944	55.65
703.129	56.26
703.314	56.63
703.499	57.08
703.684	57.61
703.87	57.88
704.055	58.15
704.24	58.47
704.425	58.79
704.61	59.2
704.795	59.61
704.98	59.93
705.165	60.3
705.35	60.69
705.535	61.1
705.72	61.36
705.905	61.6
706.09	62
706.275	62.34
706.459	62.93
706.644	63.31
706.829	63.43
707.014	63.7
707.199	64.13
707.384	64.27
707.568	64.54
707.753	64.66
707.938	65
708.123	65.2
708.307	65.76
708.492	65.98
708.677	66.41
708.861	66.65
709.046	66.66
709.231	66.88
709.415	67.23
709.6	67.27
709.784	67.68
709.969	67.78
710.153	68.18
710.338	68.73
710.522	68.95
710.707	69.02
710.891	69.33
711.076	69.41
711.26	69.78
711.445	69.9
711.629	70.03
711.813	70.04
711.998	70.33
712.182	70.66
712.366	70.98
712.551	71.02
712.735	70.84
712.919	70.93
713.103	71.06
713.288	71.4
713.472	71.26
713.656	71.09
713.84	71.39
714.024	72.04
714.208	72.1
714.393	72.44
714.577	72.58
714.761	72.75
714.945	73.05
715.129	72.92
715.313	72.96
715.497	73.36
715.681	73.67
715.865	73.68
716.049	74.15
716.233	74.57
716.417	75
716.601	74.93
716.785	74.77
716.968	74.53
717.152	74.83
717.336	74.78
717.52	74.89
717.704	75
717.888	75.31
718.071	75.67
718.255	75.77
718.439	75.58
718.622	75.49
718.806	75.2
718.99	75.33
719.174	75.25
719.357	75.43
719.541	75.78
719.724	75.96
719.908	76.19
720.092	76.58
720.275	76.48
720.459	76.69
720.642	76.62
720.826	76.71
721.009	76.91
721.193	76.91
721.376	76.92
721.559	77.04
721.743	77.01
721.926	77.05
722.11	77.18
722.293	76.87
722.476	76.95
722.66	76.98
722.843	77.12
723.026	77.64
723.21	77.73
723.393	77.9
723.576	78.4
723.759	78.69
723.942	78.96
724.126	79.01
724.309	78.78
724.492	78.91
724.675	78.9
724.858	79.3
725.041	79.52
725.224	79.61
725.407	79.41
725.59	79.54
725.774	79.68
725.957	79.79
726.14	79.55
726.322	79.31
726.505	79.61
726.688	79.95
726.871	80.15
727.054	80.47
727.237	80.41
727.42	80.68
727.603	81.16
727.786	81.26
727.968	81.78
728.151	82.04
728.334	82.04
728.517	82.48
728.699	82.6
728.882	82.8
729.065	82.87
729.248	82.76
729.43	82.59
729.613	82.94
729.796	82.9
729.978	83.29
730.161	83.55
730.343	83.84
730.526	84.11
730.708	84.6
730.891	84.41
731.073	84.42
731.256	84.52
731.438	84.51
731.621	84.7
731.803	84.77
731.986	84.4
732.168	84.57
732.35	84.86
732.533	84.66
732.715	84.7
732.898	84.5
733.08	84.93
733.262	85.45
733.444	85.42
733.627	85.57
733.809	85.97
733.991	86.04
734.173	85.96
734.355	85.84
734.538	85.64
734.72	86.04
734.902	85.96
735.084	86.14
735.266	86.41
735.448	86.41
735.63	86.56
735.812	87.06
735.994	87
736.176	87.44
736.358	87.75
736.54	87.38
736.722	87.74
736.904	87.7
737.086	87.34
737.268	87.59
737.45	87.72
737.632	87.2
737.814	87.29
737.995	87.43
738.177	87.68
738.359	88.2
738.541	87.77
738.723	87.7
738.904	87.37
739.086	87.77
739.268	87.93
739.449	88.01
739.631	88.02
739.813	88.05
739.994	88.46
740.176	88.98
740.358	89.24
740.539	89.12
740.721	89.02
740.902	88.58
741.084	89.48
741.265	89.07
741.447	88.82
741.628	88.52
741.81	88.73
741.991	88.7
742.172	88.9
742.354	88.88
742.535	88.87
742.717	89.2
742.898	89.53
743.079	89.5
743.261	89.81
743.442	90.05
743.623	89.69
743.804	89.83
743.986	89.74
744.167	89.73
744.348	89.63
744.529	89.53
744.71	89.2
744.891	89.42
745.073	89.48
745.254	90.31
745.435	89.92
745.616	90.1
745.797	89.71
745.978	90.11
746.159	89.66
746.34	90.02
746.521	89.43
746.702	89.45
746.883	89.58
747.064	89.82
747.245	90.88
747.426	91.24
747.606	90.77
747.787	90.93
747.968	91.67
748.149	91.43
748.33	91.73
748.51	90.94
748.691	91.01
748.872	91.09
749.053	90.58
749.233	90.04
749.414	90.42
749.595	90.23
749.775	90.24
749.956	89.56
750.137	89.39
750.317	89.49
750.498	89.73
750.678	89.58
750.859	89.29
751.04	89.52
751.22	89.55
751.4	89.98
751.581	90.13
751.761	90.03
751.942	89.97
752.122	89.87
752.303	89.47
752.483	91.12
752.663	91.41
752.844	91.14
753.024	91.19
753.204	90.79
753.385	90.7
753.565	90.18
753.745	88.73
753.925	87.89
754.106	88.5
754.286	88.39
754.466	88.6
754.646	88.99
754.826	89.21
755.006	89.75
755.187	90.31
755.367	89.63
755.547	89.91
755.727	89.8
755.907	90.08
756.087	90.53
756.267	89.7
756.447	89.21
756.627	89.59
756.807	89.54
756.987	90.33
757.167	89.77
757.346	89.71
757.526	90.88
757.706	91.09
757.886	91.29
758.066	90.53
758.246	89.92
758.425	90.78
758.605	91.19
758.785	91.31
758.965	90.36
759.144	90.78
759.324	91.78
759.504	92.08
759.683	91.72
759.863	91.63
760.043	90.91
760.222	91.39
760.402	91.19
760.581	90.43
760.761	89.66
760.94	88.83
761.12	87.79
761.299	87.43
761.479	88.44
761.658	87.82
761.838	88.58
762.017	88.71
762.197	89.57
762.376	90.2
762.555	90.59
762.735	89.02
762.914	89.94
763.093	88.93
763.273	89.64
763.452	89.32
763.631	87.94
763.81	88.64
763.99	89.59
764.169	88.62
764.348	89.77
764.527	88.59
764.706	88.74
764.885	90.71
765.064	89.7
765.243	88.82
765.423	89.67
765.602	88
765.781	88.26
765.96	88.48
766.139	87.1
766.318	87.23
766.497	87.68
766.676	87.73
766.854	88.28
767.033	87.93
767.212	87.4
767.391	88.29
767.57	88.54
767.749	89.04
767.928	88.02
768.106	88.24
768.285	88.64
768.464	88.97
768.643	88.69
768.821	88.35
769	88.31
769.179	88.06
769.357	87.53
769.536	87.1
769.715	87.62
769.893	87.6
770.072	87.26
770.25	86.96
770.429	88.13
770.607	88.67
770.786	89.86
770.964	88.08
771.143	87.71
771.321	87.3
771.5	86.37
771.678	86.36
771.857	85.92
772.035	85.11
772.213	85.58
772.392	86.11
772.57	86.56
772.748	87.08
772.927	86.48
773.105	87.12
773.283	86.05
773.461	86.41
773.64	85.75
773.818	86.61
773.996	86.42
774.174	86.46
774.352	86.42
774.531	86.69
774.709	85.69
774.887	85.67
775.065	85.03
775.243	85.66
775.421	84.7
775.599	83.06
775.777	83.65
775.955	84.67
776.133	84.39
776.311	84.23
776.489	83.68
776.667	83.61
776.844	84.23
777.022	84.63
777.2	83.94
777.378	84.49
777.556	85.43
777.734	85.99
777.911	87.63
778.089	87.28
778.267	86.35
778.445	86.36
778.622	85.38
778.8	84.75
778.978	84.5
779.155	81.98
779.333	81.35
779.511	81.56
779.688	80.72
779.866	81.17
780.043	81.91
780.221	81.32
780.398	84.15
780.576	85.22
780.753	84.98
780.931	86.78
781.108	87.79
781.286	86.34
781.463	87.2
781.64	85.93
781.818	85.28
781.995	86.69
782.172	85.83
782.35	83.62
782.527	84.1
782.704	83.16
782.882	83.35
783.059	82.55
783.236	81.85
783.413	81.89
783.59	82.34
783.768	82.16
783.945	81.52
784.122	80.76
784.299	82.01
784.476	82.23
784.653	80.95
784.83	80.31
785.007	80.24
785.184	81.65
785.361	81.34
785.538	82.82
785.715	82.47
785.892	83.09
786.069	83.65
786.246	83.23
786.423	84.03
786.6	85.19
786.776	83.94
786.953	81.78
787.13	82.55
787.307	83.2
787.484	84.04
787.66	82.19
787.837	82.93
788.014	82.05
788.191	83.22
788.367	81.45
788.544	81.98
788.721	81.53
788.897	83.07
789.074	80.79
789.25	81.33
789.427	82.17
789.603	84.46
789.78	85.58
789.956	84.46
790.133	84.71
790.309	85.08
790.486	87.06
790.662	86.88
790.839	86.22
791.015	84.4
791.192	84.41
791.368	84.45
791.544	85.78
791.721	83
791.897	83.76
792.073	82.85
792.249	85.29
792.426	86.06
792.602	84.74
792.778	83.18
792.954	82.53
793.13	81.77
793.307	80.08
793.483	77.84
793.659	79.3
793.835	77.61
794.011	77.78
794.187	78.35
794.363	78.8
794.539	79.98
794.715	78.29
794.891	74.6
795.067	77.14
795.243	77.71
795.419	78.48
795.595	76.56
795.771	77.53
795.947	77.35
796.122	76.9
796.298	76.04
796.474	75.55
796.65	73.6
796.826	74.64
797.001	75.06
797.177	76.7
797.353	79.33
797.529	78.14
797.704	77.48
797.88	80.25
798.056	82.11
798.231	81.94
798.407	81.73
798.582	79.41
798.758	82.78
798.934	82.88
799.109	81.66
799.285	81.43
799.46	80.71
799.636	79.69
799.811	81.93
799.986	79.88
800.162	79.08
800.337	78.4
800.513	76.56
800.688	81.46
800.863	83.49
801.039	80.99
801.214	77.84
801.389	77.82
801.565	82.77
801.74	80.11
801.915	76.27
802.09	74.72
802.265	77.14
802.441	80.77
802.616	83.01
802.791	79.32
802.966	81.82
803.141	76.32
803.316	78.82
803.491	74.26
803.666	70.75
803.841	69.77
804.016	67.12
804.191	69
804.366	73.66
804.541	67.67
804.716	70.04
804.891	74.35
805.066	73.61
805.241	73.42
805.416	70.89
805.591	72.56
805.765	77.76
805.94	82.12
806.115	76.81
806.29	78.68
806.464	80.87
806.639	82.84
806.814	82.63
806.989	83.01
807.163	79.56
807.338	83.1
807.512	76.78
807.687	76.67
807.862	76.59
808.036	73.57
808.211	71.01
808.385	68.99
808.56	73.71
808.734	81.43
808.909	80.83
809.083	78.54
809.258	83.53
809.432	82.29
809.606	87
809.781	81.54
809.955	81.95
810.13	89.56
810.304	89.12
810.478	87.67
810.652	92.7
810.827	86.05
811.001	85.88
811.175	78.08
811.349	72.41
811.524	72.72
811.698	69.62
811.872	69.07
812.046	71.44
812.22	71.8
812.394	78.15
812.568	81.31
812.742	79.93
812.916	83.25
813.09	76.76
813.264	78.26
813.438	81.67
813.612	79.16
813.786	77.15
813.96	81.45
814.134	78.02
814.308	80.2
814.482	80.82
814.656	78.87
814.83	82.34
815.003	80.23
815.177	81.16
815.351	84.78
815.525	83.98
815.698	81.06
815.872	77.29
816.046	77.77
816.219	80.63
816.393	73.58
816.567	67.62
816.74	69.09
816.914	73.96
817.088	77.07
817.261	72.56
817.435	69.76
817.608	71.95
817.782	81.43
817.955	84.12
818.129	82.27
818.302	85.15
818.475	87.18
818.649	86.83
818.822	92.71
818.996	88.72
819.169	84.15
819.342	83.84
819.516	81.23
819.689	82.08
819.862	77.91
820.035	74
820.209	73.97
820.382	74.9
820.555	75.4
820.728	71.74
820.901	66.05
821.075	71.84
821.248	70.8
821.421	67.45
821.594	71.98
821.767	67.98
821.94	66.28
822.113	72.07
822.286	72.91
822.459	83.37
822.632	83.46
822.805	73.18
822.978	70.93
823.151	74.72
823.324	63.69
823.496	58.35
823.669	54.4
823.842	51.48
824.015	51.67
824.188	53.51
824.361	48.48
824.533	63.18
824.706	79.56
824.879	77.96
825.051	85.8
825.224	89.09
825.397	84.94
825.569	96.75
825.742	87.48
825.915	71.36
826.087	65.44
826.26	64.93
826.432	73.73
826.605	76.85
826.777	69.07
826.95	68.66
827.122	74.6
827.295	82.01
827.467	75.89
827.64	64.05
827.812	66.61
827.984	67.99
828.157	71.86
828.329	80.44
828.501	77.93
828.674	84.94
828.846	87.82
829.018	78.4
829.19	70.38
829.363	71.42
829.535	61.45
829.707	54.81
829.879	47.52
830.051	39.06
830.223	38.01
830.395	39.47
830.568	40.72
830.74	41.38
830.912	43.11
831.084	42.98
831.256	46.22
831.428	48.7
831.6	52.51
831.772	51.36
831.943	58.64
832.115	62.32
832.287	59.73
832.459	62.88
832.631	66.93
832.803	71.27
832.975	72.71
833.146	66.12
833.318	65.78
833.49	69.31
833.662	72.21
833.833	81
834.005	81.71
834.177	76.63
834.348	72.49
834.52	78.65
834.692	84.44
834.863	77.28
835.035	66.94
835.206	60.63
835.378	60.64
835.549	66.89
835.721	60.69
835.892	54.25
836.064	59.63
836.235	64.08
836.407	60.82
836.578	63.65
836.749	64.36
836.921	57.39
837.092	63.98
837.264	53.04
837.435	46.47
837.606	45.6
837.777	37.66
837.949	37.89
838.12	37.54
838.291	43.25
838.462	49.13
838.633	51.51
838.805	58.18
838.976	62.9
839.147	53.82
839.318	50.41
839.489	45.27
839.66	51.8
839.831	41.74
840.002	39.31
840.173	35.44
840.344	42.39
840.515	50.58
840.686	58.48
840.857	47.18
841.028	67.76
841.199	64.56
841.369	60.94
841.54	70.62
841.711	76.65
841.882	69.51
842.053	76.69
842.223	60.41
842.394	70.65
842.565	88.5
842.736	87
842.906	89.37
843.077	81.35
843.248	79.25
843.418	75.85
843.589	75.28
843.759	66.29
843.93	66.78
844.101	59.51
844.271	71.42
844.442	76.34
844.612	71.67
844.783	52.18
844.953	43.11
845.123	40.17
845.294	46.51
845.464	31.96
845.635	24.75
845.805	45.06
845.975	52.74
846.146	56.92
846.316	68.7
846.486	76.44
846.656	85.66
846.827	86.32
846.997	88.62
847.167	91.69
847.337	102.66
847.507	99.89
847.677	102.2
847.848	106.14
848.018	114.49
848.188	105.76
848.358	107.53
848.528	96.98
848.698	63
848.868	49.22
849.038	48.49
849.208	33.69
849.378	29.51
849.548	37.85
849.718	29.54
849.887	48.94
850.057	69.42
850.227	65.32
850.397	68.97
850.567	96.44
850.737	78.01
850.906	79.73
851.076	81.19
851.246	62.04
851.415	61.42
851.585	62.14
851.755	56.93
851.924	79.16
852.094	70.76
852.264	61.52
852.433	69.59
852.603	72.7
852.772	74.82
852.942	56.58
853.111	48.21
853.281	54.03
853.45	56.11
853.62	54.86
853.789	50.51
853.959	41.92
854.128	37.95
854.297	35.35
854.467	42.01
854.636	46.97
854.805	50.45
854.975	61.9
855.144	79.42
855.313	93.48
855.482	88.7
855.652	78.05
855.821	79.12
855.99	85.65
856.159	75.35
856.328	64.61
856.497	64.2
856.667	72.23
856.836	70.96
857.005	65
857.174	57.72
857.343	63.83
857.512	50.71
857.681	50.57
857.85	33.56
858.019	44.76
858.188	45.86
858.356	31.15
858.525	32.84
858.694	53.25
858.863	45.17
859.032	41.29
859.201	27.89
859.369	39.56
859.538	27.83
859.707	23.93
859.876	17.62
860.044	22.07
860.213	40.11
860.382	47.84
860.55	74.86
860.719	89.05
860.888	72.85
861.056	84.75
861.225	88.93
861.393	83.42
861.562	76.17
861.73	50.94
861.899	48.24
862.067	65.75
862.236	57.85
862.404	53.37
862.572	48.65
862.741	51.67
862.909	55.75
863.078	61.08
863.246	69.02
863.414	77.16
863.582	81.48
863.751	71.4
863.919	67.2
864.087	60.64
864.255	61.65
864.424	59.76
864.592	61.39
864.76	60.82
864.928	66.88
865.096	62.95
865.264	69.4
865.432	63
865.6	57.27
865.768	42.26
865.936	31.59
866.104	41.11
866.272	38.48
866.44	-20.21
866.608	-40.29
866.776	21.58
866.944	19.24
867.112	17.91
867.28	-22.27
867.448	15.42
867.615	53.58
867.783	47.01
867.951	24.89
868.119	58.23
868.286	54.99
868.454	70.07
868.622	60.77
868.789	72.14
868.957	86.57
869.125	71.57
869.292	76.19
869.46	81.22
869.627	77.26
869.795	78.65
869.963	66.58
870.13	120.85
870.298	125.75
870.465	93.26
870.632	106.18
870.8	80.71
870.967	69.21
871.135	71.55
871.302	35.59
871.469	32.92
871.637	47.83
871.804	46.65
871.971	51.76
872.139	61.41
872.306	51.83
872.473	46.57
872.64	55.78
872.807	62.27
872.975	80.45
873.142	91.9
873.309	130.03
873.476	238.72
873.643	231.16
873.81	244.24
873.977	170.08
874.144	172.56
874.311	117.04
874.478	1.36
874.645	-6.62
874.812	17.8
874.979	-11.69
875.146	-43.12
875.313	-51.33
875.48	13.4
875.647	23.28
875.813	9.67
875.98	-7.42
876.147	33.57
876.314	45.25
876.481	32.25
876.647	26.57
876.814	45.67
876.981	44.97
877.147	40.94
877.314	23.7
877.481	25.11
877.647	22.83
877.814	14.62
877.98	-1.03
878.147	16.6
878.314	27.92
878.48	33.34
878.647	32.08
878.813	40.62
878.979	84.12
879.146	52.67
879.312	56.41
879.479	55.27
879.645	42.28
879.811	57.96
879.978	71.62
880.144	48.25
880.31	50.7
880.477	11.82
880.643	-2.07
880.809	89.56
880.975	39.68
881.142	42.56
881.308	45.76
881.474	104.69
881.64	109.08
881.806	71.02
881.972	98.75
882.138	104.9
882.304	63.06
882.47	76.37
882.636	45.92
882.802	-13.86
882.968	-99.44
883.134	-251
883.3	-104.42
883.466	16.19
883.632	-11.86
883.798	-7.88
883.964	12.54
884.129	33.79
884.295	37.44
884.461	40.44
884.627	-5.31
884.793	33.17
884.958	20.08
885.124	42.93
885.29	41.61
885.455	23.14
885.621	33.24
885.787	27.38
885.952	33.93
886.118	52.51
886.283	49.47
886.449	42.68
886.614	87.71
886.78	75.46
886.945	70.63
887.111	47.83
887.276	40.82
887.442	47.83
887.607	70.02
887.773	31.32
887.938	38.75
888.103	52.02
888.269	62.53
888.434	65.25
888.599	67.57
888.764	47.84
888.93	64.96
889.095	46.11
889.26	71.84
889.425	91.88
889.59	79.62
889.756	78.27
889.921	65.84
890.086	77.58
890.251	58.7
890.416	8.17
890.581	-14.15
890.746	-20.48
890.911	-58.81
891.076	-58.6
891.241	-94.24
891.406	14.13
891.571	31.66
891.736	25.65
891.901	55.21
892.065	63.56
892.23	70.35
892.395	50.17
892.56	24.67
892.725	44.87
892.889	7.04
893.054	-38.07
893.219	-49.74
893.384	-92.85
893.548	-220.83
893.713	291.83
893.878	283.7
