Data from Ofra_PS_T2_2A_8HS21_Reflection_2.txt Node
Date: Wed Jul 21 17:19:28 EDT 2021
User: Adam
Spectrometer: FLMT01687
Trigger mode: 0
Integration Time (sec): 1.100000E0
Scans to average: 2
Electric dark correction enabled: true
Nonlinearity correction enabled: false
Boxcar width: 2
XAxis mode: Wavelengths
Number of Pixels in Spectrum: 3648
>>>>>Begin Spectral Data<<<<<
179.494	591
179.716	655.76
179.937	647.33
180.158	632.44
180.38	849.84
180.601	147.93
180.823	51.6
181.044	-148.93
181.265	102.02
181.486	114.41
181.708	173.38
181.929	736.22
182.15	-317.96
182.372	138.6
182.593	18.55
182.814	11.75
183.035	71.35
183.257	54.75
183.478	3.67
183.699	69.94
183.92	49.96
184.141	16.2
184.363	-41.27
184.584	22.15
184.805	41.81
185.026	70.13
185.247	68.19
185.468	73.89
185.689	94.67
185.91	82.14
186.132	60.04
186.353	44.42
186.574	90.49
186.795	58.13
187.016	22.02
187.237	35.26
187.458	32.87
187.679	13.05
187.9	31.58
188.121	18
188.342	53.41
188.563	90.04
188.784	137.3
189.005	114.17
189.226	170.47
189.447	92.85
189.667	-92.11
189.888	-377.22
190.109	-1426.95
190.33	-836.61
190.551	-1128.98
190.772	-195.58
190.993	-129.06
191.214	-83.35
191.434	-65.97
191.655	-1.56
191.876	-74.2
192.097	-129.68
192.318	-186.42
192.538	-250.07
192.759	-188.88
192.98	-58.92
193.201	-17.08
193.421	10.61
193.642	31.72
193.863	40.49
194.083	21.02
194.304	12.19
194.525	17.24
194.745	28.52
194.966	8.04
195.187	-15.97
195.407	-19.32
195.628	-73.67
195.848	-102.83
196.069	-107.92
196.29	-41.12
196.51	-69.16
196.731	-61.1
196.951	-57.83
197.172	-61.71
197.392	-97.29
197.613	-76.42
197.833	-111.95
198.054	-110.87
198.274	-76.68
198.495	-95.26
198.715	-54.79
198.936	-54.11
199.156	-42.77
199.377	-115.39
199.597	-106.99
199.817	-136.45
200.038	-92.47
200.258	-160.63
200.479	-80.53
200.699	-105.08
200.919	-43.78
201.14	-32.3
201.36	-43.93
201.58	12.11
201.801	48.32
202.021	14.76
202.241	5.56
202.461	12.1
202.682	-90.98
202.902	-166.86
203.122	-60.64
203.342	-65.61
203.563	-14.53
203.783	19.06
204.003	3.86
204.223	-5.84
204.443	67.59
204.663	41.01
204.884	32.93
205.104	44.48
205.324	56.76
205.544	28.12
205.764	46.54
205.984	53.99
206.204	59.04
206.424	43.12
206.644	6.62
206.864	22.12
207.084	-10.79
207.304	34.43
207.525	-63.05
207.745	-33.35
207.964	-25.68
208.184	-70.24
208.404	-103.96
208.624	-97.63
208.844	-54.91
209.064	-261.46
209.284	-236.46
209.504	-76.69
209.724	16.82
209.944	1.62
210.164	28.82
210.384	25.88
210.604	13.96
210.823	-29.59
211.043	-64.42
211.263	-58.97
211.483	-64.68
211.703	-134.28
211.922	-96.31
212.142	-12.86
212.362	19.22
212.582	28.82
212.801	39.15
213.021	-1.98
213.241	-11.81
213.461	-65.54
213.68	-84.48
213.9	-46.29
214.12	-7.78
214.339	-84.84
214.559	-70.77
214.779	-24.96
214.998	-41.34
215.218	-112.35
215.438	-62.52
215.657	-71.33
215.877	-69.41
216.096	-19.01
216.316	7.73
216.535	-14.59
216.755	3.81
216.974	-88.06
217.194	-109.91
217.413	-114.92
217.633	-75.41
217.852	-183.25
218.072	-57.57
218.291	-43.95
218.511	-7.92
218.73	-35.75
218.95	-17.22
219.169	-13.13
219.389	-39.79
219.608	-37.06
219.827	-27.6
220.047	-14.48
220.266	-12.48
220.485	-22.94
220.705	-6.84
220.924	-29.08
221.143	6.37
221.363	-13.91
221.582	10.85
221.801	5.17
222.021	15.62
222.24	-57.51
222.459	-20.78
222.678	-46.64
222.897	-85.09
223.117	-88.54
223.336	-73.69
223.555	-68.27
223.774	-32.16
223.993	-6.85
224.213	54.88
224.432	53.31
224.651	77.93
224.87	56.28
225.089	47.41
225.308	32.02
225.527	45.16
225.746	43.71
225.965	31.92
226.184	23.73
226.404	23.83
226.623	-8.47
226.842	-9.34
227.061	16.66
227.28	23.58
227.499	22.33
227.718	41.43
227.936	34.46
228.155	36.39
228.374	16.11
228.593	15.87
228.812	28.07
229.031	31.91
229.25	-2.54
229.469	4.52
229.688	41.11
229.907	41.76
230.125	48.14
230.344	38.29
230.563	55.41
230.782	47.42
231.001	-41.35
231.22	-41.35
231.438	9.28
231.657	2.4
231.876	-4.63
232.095	41.03
232.313	49.7
232.532	13.39
232.751	-15.26
232.969	-36.12
233.188	-117.32
233.407	-35.32
233.625	-11.6
233.844	-13.27
234.063	-10.07
234.281	9.47
234.5	-15.18
234.719	-18.77
234.937	1.86
235.156	11.42
235.374	15.11
235.593	10.82
235.811	-0.06
236.03	-17.12
236.249	-50.46
236.467	-23.28
236.686	-9.12
236.904	14.82
237.123	-4.13
237.341	8.02
237.559	-1.24
237.778	-10.96
237.996	-38.56
238.215	6.25
238.433	-2.48
238.652	-1.93
238.87	-4.73
239.088	5.21
239.307	8.15
239.525	16.58
239.743	-21.11
239.962	-22.05
240.18	-44.38
240.398	-86.82
240.617	-84.67
240.835	-59.31
241.053	-37.25
241.271	13.49
241.49	21.92
241.708	3.96
241.926	14.54
242.144	18.62
242.363	-59.15
242.581	-72.93
242.799	-25.77
243.017	4.56
243.235	-21.17
243.453	10.8
243.672	12.97
243.89	-1.11
244.108	-34.28
244.326	-22.47
244.544	-25.11
244.762	-36.8
244.98	-40.47
245.198	-9.39
245.416	-4.1
245.634	5.79
245.852	12.9
246.07	7.08
246.288	-9.57
246.506	-53.88
246.724	-38.97
246.942	-28.67
247.16	31.31
247.378	51.54
247.596	87.93
247.814	85.91
248.032	53.9
248.25	24.51
248.468	11.3
248.685	10.18
248.903	32.88
249.121	39.72
249.339	26.14
249.557	36.03
249.775	32.79
249.992	-36.15
250.21	-30.01
250.428	-29.31
250.646	-58
250.863	-73.47
251.081	-27.59
251.299	-21.23
251.517	0.77
251.734	-3.26
251.952	-16.91
252.17	-28.89
252.387	-18.83
252.605	-38.22
252.823	-25.67
253.04	-4.83
253.258	18.68
253.475	17.07
253.693	60.31
253.911	49.54
254.128	56.42
254.346	51.59
254.563	23.82
254.781	-14.44
254.998	-51.2
255.216	-59.8
255.433	-52.23
255.651	-1.47
255.868	23.73
256.086	81.57
256.303	50.79
256.521	41.98
256.738	4.84
256.956	-15.72
257.173	-56.67
257.39	-65.4
257.608	-75.58
257.825	11.32
258.043	47.22
258.26	64.74
258.477	99.45
258.695	91.43
258.912	18.16
259.129	25.24
259.346	-23.08
259.564	-69.63
259.781	-72.76
259.998	0.61
260.216	32.54
260.433	74.85
260.65	83.75
260.867	82.99
261.084	61.35
261.302	35.54
261.519	12.11
261.736	-16.24
261.953	-33.96
262.17	-1.14
262.387	-40.1
262.604	-58.25
262.822	-53.06
263.039	-18.38
263.256	-49.19
263.473	-8.18
263.69	5.73
263.907	35.63
264.124	34.79
264.341	26.48
264.558	16.71
264.775	17.64
264.992	7.68
265.209	5.7
265.426	27.87
265.643	20.42
265.86	44.03
266.077	25.86
266.294	16.22
266.51	-24.83
266.727	-28.1
266.944	-23.41
267.161	-39.33
267.378	-36.66
267.595	5.36
267.812	-6.79
268.028	-22.41
268.245	19.33
268.462	-0.05
268.679	-13.31
268.896	34.17
269.112	20.9
269.329	17.9
269.546	23.04
269.763	12.74
269.979	-7.02
270.196	-2.26
270.413	-29.79
270.629	-52.83
270.846	-58.49
271.063	-47.01
271.279	-48.97
271.496	-28.49
271.712	12
271.929	56.85
272.146	57.7
272.362	51.2
272.579	66.08
272.795	74.27
273.012	48.68
273.228	43.19
273.445	22.31
273.661	-1.24
273.878	-51.77
274.094	-26.54
274.311	-49.47
274.527	29.06
274.744	31.15
274.96	36.36
275.177	28.69
275.393	45.93
275.609	29.95
275.826	50.62
276.042	47.93
276.259	26.83
276.475	31.77
276.691	33.1
276.908	10.44
277.124	23.11
277.34	30.55
277.557	15.77
277.773	5.02
277.989	-8.31
278.205	-14.03
278.422	8.62
278.638	20.76
278.854	45.7
279.07	70.76
279.286	75.24
279.503	43.8
279.719	32.7
279.935	7.93
280.151	9.97
280.367	18.16
280.583	1.37
280.799	-2.46
281.016	-27.27
281.232	-16.98
281.448	-19.73
281.664	14.57
281.88	-5.42
282.096	20.21
282.312	52.58
282.528	68.22
282.744	75.77
282.96	52.58
283.176	47.05
283.392	28.16
283.608	16.11
283.824	3.29
284.04	11.64
284.256	-2.47
284.471	-11.66
284.687	-24.07
284.903	17.39
285.119	49.63
285.335	20.88
285.551	36.44
285.767	24.09
285.982	-12.2
286.198	-72.87
286.414	3.79
286.63	10.61
286.846	38.44
287.061	21.85
287.277	51.69
287.493	25.37
287.709	33.47
287.924	23.18
288.14	63.5
288.356	70.37
288.571	85.8
288.787	60.26
289.003	54.04
289.218	25.86
289.434	-6.55
289.65	-17.23
289.865	-4.33
290.081	15.97
290.296	29.58
290.512	29.99
290.727	-0.05
290.943	-9.55
291.159	-22.8
291.374	-14.56
291.59	-31.38
291.805	-15.2
292.021	1.38
292.236	-0.39
292.451	4.16
292.667	19.52
292.882	32.3
293.098	31.3
293.313	33.38
293.529	5.07
293.744	-13.68
293.959	-14.4
294.175	-11.89
294.39	14.55
294.605	25.72
294.821	47.31
295.036	48.31
295.251	51.6
295.467	45.4
295.682	45.62
295.897	2.64
296.112	-12.84
296.328	-27.31
296.543	-82.74
296.758	-67.32
296.973	-6.3
297.188	27.93
297.404	12.63
297.619	18.79
297.834	0.14
298.049	-14.47
298.264	-35.6
298.479	8.09
298.694	21.97
298.909	38.92
299.125	33.27
299.34	35.55
299.555	2.06
299.77	5.56
299.985	-33.93
300.2	-74.21
300.415	-83.83
300.63	-31.64
300.845	-47.61
301.06	-40.93
301.275	2.11
301.49	9.04
301.704	-7.5
301.919	-11.54
302.134	-8.51
302.349	-15.12
302.564	-78.84
302.779	-69.04
302.994	-9.99
303.209	2.12
303.423	-3.88
303.638	79.23
303.853	35.04
304.068	16.63
304.283	15.17
304.497	26.03
304.712	12
304.927	18.02
305.142	6.43
305.356	12.04
305.571	4.17
305.786	-11.68
306	-25.26
306.215	-11.82
306.43	-19.51
306.644	-14.88
306.859	50.59
307.074	63.2
307.288	34.99
307.503	33.89
307.717	9.26
307.932	-9.98
308.147	-22.47
308.361	19.82
308.576	4.42
308.79	-33.83
309.005	-29.62
309.219	1.44
309.434	-16.06
309.648	-11.27
309.863	13.65
310.077	16.87
310.292	-0.59
310.506	-10.07
310.72	6.86
310.935	27.58
311.149	14.24
311.364	27.51
311.578	36.03
311.792	19.52
312.007	15.21
312.221	17.34
312.435	30.17
312.649	15.19
312.864	67.97
313.078	87.14
313.292	142.92
313.507	97.45
313.721	139.11
313.935	51.85
314.149	34.27
314.363	12.98
314.578	15.96
314.792	11.78
315.006	-0.47
315.22	16
315.434	22.13
315.648	31.17
315.862	36.94
316.077	49.69
316.291	36.3
316.505	34.59
316.719	19.42
316.933	-3.67
317.147	-6.32
317.361	-41.72
317.575	-68.27
317.789	-86.14
318.003	-127.36
318.217	-112.79
318.431	-31.58
318.645	28.85
318.859	26.71
319.073	60.92
319.287	41.9
319.5	11.74
319.714	-33.76
319.928	-60.01
320.142	-87.39
320.356	1
320.57	42.57
320.784	35.36
320.997	51.33
321.211	42.22
321.425	-49.84
321.639	-75.72
321.853	-2.35
322.066	0.31
322.28	-8.57
322.494	10.99
322.707	26.3
322.921	1.88
323.135	7.35
323.349	21.19
323.562	0.57
323.776	-14.54
323.989	-22.33
324.203	-29.57
324.417	-44.71
324.63	-56.67
324.844	-47.28
325.057	-33.55
325.271	-22.54
325.485	0.68
325.698	21.99
325.912	31.6
326.125	20.51
326.339	30.54
326.552	15.64
326.766	22.04
326.979	34.21
327.193	50.6
327.406	32.5
327.619	31.71
327.833	45.12
328.046	20.19
328.26	-22.16
328.473	-4.83
328.686	-28.74
328.9	-44.57
329.113	-16.66
329.326	-2.3
329.54	10.94
329.753	22.59
329.966	20.82
330.179	11.36
330.393	13.41
330.606	13.63
330.819	28.94
331.032	40.54
331.246	47.21
331.459	70.98
331.672	59.12
331.885	43.99
332.098	22.77
332.311	-3.09
332.525	-50.67
332.738	-29.05
332.951	9.76
333.164	39.28
333.377	46.81
333.59	54.6
333.803	63.07
334.016	45.14
334.229	27.93
334.442	32.01
334.655	58.11
334.868	43.3
335.081	39.33
335.294	23.56
335.507	15.2
335.72	-8.82
335.933	-13.7
336.146	-19.64
336.359	-13.66
336.572	-35.44
336.785	-61.18
336.997	-53.64
337.21	-24.74
337.423	-16.26
337.636	1.01
337.849	24.01
338.062	7.88
338.274	2.58
338.487	-1.36
338.7	13.04
338.913	-15.95
339.125	-25.5
339.338	-59.84
339.551	-37.68
339.763	-28.21
339.976	9.12
340.189	29.11
340.402	40.02
340.614	24.67
340.827	13.39
341.039	-3.06
341.252	8.76
341.465	16.58
341.677	11.69
341.89	-17.67
342.102	-10.12
342.315	-34.46
342.527	-63.79
342.74	-54.78
342.952	-16.84
343.165	-1.06
343.377	24.47
343.59	16.26
343.802	41.96
344.015	44.79
344.227	42.98
344.44	25.41
344.652	38.84
344.864	12.53
345.077	21.36
345.289	24.83
345.502	33.39
345.714	23.85
345.926	29.2
346.139	30.03
346.351	42.17
346.563	49.14
346.775	58.84
346.988	56.28
347.2	36.47
347.412	-10.31
347.624	-41.59
347.837	-57.53
348.049	-39.76
348.261	-0.46
348.473	11.32
348.685	14.41
348.897	11.66
349.11	-5.01
349.322	-9.51
349.534	9.12
349.746	10.02
349.958	8.84
350.17	4.51
350.382	14.84
350.594	12.96
350.806	17.72
351.018	20.48
351.23	27.79
351.442	-22.17
351.654	-32.09
351.866	-37.47
352.078	-31.27
352.29	-9.46
352.502	21.08
352.714	35.19
352.926	27.46
353.138	31.66
353.35	19.56
353.561	4.46
353.773	-22.43
353.985	-3.93
354.197	-13.65
354.409	-19.62
354.621	-16.18
354.832	-7.79
355.044	-22.37
355.256	-30.67
355.468	-19.67
355.679	-14.32
355.891	-8.14
356.103	-11.86
356.314	5.41
356.526	-2.04
356.738	-6.37
356.949	-9.05
357.161	12.4
357.373	5.28
357.584	12.17
357.796	22.49
358.008	17.11
358.219	22
358.431	13.85
358.642	18.72
358.854	11.94
359.065	3.13
359.277	-28.34
359.488	-32.22
359.7	-60.77
359.911	-85.03
360.123	-52.01
360.334	-53.83
360.546	-64.67
360.757	-43.31
360.969	-5.94
361.18	-9.83
361.391	10.94
361.603	16.12
361.814	18.31
362.025	11.8
362.237	10.87
362.448	18.09
362.659	38.63
362.871	36.75
363.082	25.76
363.293	24.13
363.504	8.81
363.716	-18.2
363.927	-19.91
364.138	-29.83
364.349	-30.76
364.56	-29.26
364.772	-31.3
364.983	-5.73
365.194	1.57
365.405	18.5
365.616	39.47
365.827	43.45
366.038	17.5
366.25	16.72
366.461	-7.61
366.672	7.64
366.883	30.37
367.094	26.27
367.305	9.77
367.516	3.1
367.727	-26.59
367.938	-37.78
368.149	-29.51
368.36	-0.03
368.571	13.22
368.781	1.28
368.992	-24.78
369.203	-40.03
369.414	-78.55
369.625	-76.08
369.836	-64.88
370.047	-79.91
370.258	-56.53
370.468	-46.49
370.679	-74.93
370.89	-70.64
371.101	-25.42
371.312	-32.58
371.522	-21.98
371.733	-6.2
371.944	6.8
372.155	-2.03
372.365	-13.23
372.576	-4.9
372.787	-3.81
372.997	-15.66
373.208	-16.28
373.419	29.13
373.629	-5.34
373.84	-5.49
374.05	-19.88
374.261	-3.93
374.472	-28.14
374.682	5.08
374.893	6.63
375.103	47.38
375.314	28.35
375.524	23.22
375.735	34.32
375.945	43.21
376.156	3.3
376.366	18.76
376.577	20.76
376.787	4.97
376.997	2.74
377.208	20.42
377.418	5.76
377.629	10.85
377.839	21.63
378.049	23.62
378.26	34.39
378.47	40.75
378.68	26.31
378.89	13.9
379.101	2.02
379.311	-32.25
379.521	-65.4
379.732	-58.75
379.942	-59.28
380.152	-73.39
380.362	-26.35
380.572	-13.59
380.783	-1.45
380.993	19.89
381.203	40.08
381.413	44.79
381.623	45.24
381.833	40.11
382.043	30.88
382.253	16.56
382.463	12.72
382.674	5.7
382.884	-11.23
383.094	-5.36
383.304	-0.37
383.514	3
383.724	17.72
383.934	19
384.144	3.31
384.353	-0.93
384.563	-11.55
384.773	-11.32
384.983	-16.54
385.193	2.92
385.403	8.2
385.613	11.06
385.823	6.19
386.033	14.33
386.242	6.32
386.452	4.89
386.662	-1.69
386.872	13.16
387.082	9.21
387.291	5.78
387.501	4.49
387.711	12.34
387.921	-0.16
388.13	4.77
388.34	15
388.55	9.53
388.759	11.16
388.969	16.59
389.179	14.69
389.388	10.56
389.598	20.6
389.807	10.35
390.017	5.07
390.227	5.39
390.436	5.71
390.646	7.18
390.855	16.51
391.065	18.73
391.274	15.82
391.484	14.11
391.693	14.63
391.903	14.05
392.112	18.02
392.322	22.87
392.531	25.75
392.74	26.2
392.95	20.94
393.159	20.15
393.369	20.05
393.578	19.56
393.787	17.3
393.997	20
394.206	17.78
394.415	17.63
394.625	17.39
394.834	16.56
395.043	18.13
395.252	21.24
395.462	23.72
395.671	26.07
395.88	26.29
396.089	26.87
396.298	25.52
396.508	24.02
396.717	23.96
396.926	24.97
397.135	24.58
397.344	24.24
397.553	24.98
397.762	25.25
397.971	25.03
398.181	24.49
398.39	24.02
398.599	23.42
398.808	22.85
399.017	23.4
399.226	24.84
399.435	26.46
399.644	27.04
399.853	26.76
400.062	26.64
400.27	26.23
400.479	25.42
400.688	24.19
400.897	24.68
401.106	24.61
401.315	24.09
401.524	24.16
401.733	25.17
401.941	25.31
402.15	25.65
402.359	25.45
402.568	25.65
402.777	25.52
402.985	25.13
403.194	24.72
403.403	25.17
403.612	24.62
403.82	24.49
404.029	24.75
404.238	24.8
404.446	24.86
404.655	24.79
404.864	24.64
405.072	24.3
405.281	24.44
405.489	23.9
405.698	23.93
405.906	23.8
406.115	23.76
406.324	23.55
406.532	23.74
406.741	23.96
406.949	23.98
407.158	23.83
407.366	23.75
407.574	23.6
407.783	23.54
407.991	23.2
408.2	23.5
408.408	23.48
408.617	23.29
408.825	22.91
409.033	23.04
409.242	22.91
409.45	22.9
409.658	22.79
409.867	23.03
410.075	22.91
410.283	22.61
410.491	22.36
410.7	22.3
410.908	22.06
411.116	22.29
411.324	22.24
411.533	22.2
411.741	22.39
411.949	22.46
412.157	22.28
412.365	22.35
412.573	22.37
412.781	22.33
412.99	22.21
413.198	22.09
413.406	21.95
413.614	21.82
413.822	21.5
414.03	21.37
414.238	21.26
414.446	21.42
414.654	21.19
414.862	21.41
415.07	21.39
415.278	21.57
415.486	21.27
415.694	21.38
415.902	21.22
416.109	21.11
416.317	20.95
416.525	20.78
416.733	20.73
416.941	20.81
417.149	20.75
417.357	20.81
417.564	21.05
417.772	21.36
417.98	21.25
418.188	21.28
418.395	21.32
418.603	21.36
418.811	20.76
419.019	20.71
419.226	20.77
419.434	20.67
419.642	20.33
419.849	20.46
420.057	20.39
420.265	20.43
420.472	20.03
420.68	20.08
420.887	20.13
421.095	20.14
421.302	19.78
421.51	19.93
421.717	19.99
421.925	19.89
422.132	19.72
422.34	19.55
422.547	19.72
422.755	19.55
422.962	19.59
423.17	19.62
423.377	20.07
423.585	19.86
423.792	19.82
423.999	19.82
424.207	19.78
424.414	19.67
424.621	19.81
424.829	19.93
425.036	19.92
425.243	20.11
425.451	19.91
425.658	19.63
425.865	19.77
426.072	19.82
426.28	19.98
426.487	19.96
426.694	20.17
426.901	20.02
427.108	19.92
427.315	19.64
427.523	20.03
427.73	20.1
427.937	20.12
428.144	20.07
428.351	20.12
428.558	20.24
428.765	20.23
428.972	20.12
429.179	20.44
429.386	20.7
429.593	20.36
429.8	20.25
430.007	20.66
430.214	20.71
430.421	20.45
430.628	20.45
430.835	20.48
431.042	20.47
431.249	20.42
431.456	20.56
431.662	20.73
431.869	20.99
432.076	20.96
432.283	21.05
432.49	21.06
432.697	21.17
432.903	20.91
433.11	20.82
433.317	20.93
433.524	21.27
433.73	21.29
433.937	21.61
434.144	21.77
434.35	21.8
434.557	21.66
434.764	21.72
434.97	21.72
435.177	21.88
435.384	21.86
435.59	21.92
435.797	22.23
436.003	22.29
436.21	22.2
436.416	22.45
436.623	22.41
436.829	22.38
437.036	22.46
437.242	22.79
437.449	22.72
437.655	22.99
437.862	23.06
438.068	23.15
438.275	23.16
438.481	23.36
438.687	23.25
438.894	23.3
439.1	23.37
439.307	23.5
439.513	23.36
439.719	23.53
439.926	23.63
440.132	23.58
440.338	23.44
440.544	23.72
440.751	23.61
440.957	23.74
441.163	23.77
441.369	23.88
441.575	23.77
441.782	23.85
441.988	23.73
442.194	23.88
442.4	23.96
442.606	24.19
442.812	24.44
443.018	24.45
443.224	24.62
443.431	24.67
443.637	24.58
443.843	24.48
444.049	24.6
444.255	24.52
444.461	24.56
444.667	24.44
444.873	24.56
445.079	24.61
445.284	24.71
445.49	24.53
445.696	24.61
445.902	24.64
446.108	24.57
446.314	24.49
446.52	24.76
446.726	25.07
446.931	25.14
447.137	25.29
447.343	25.36
447.549	25.37
447.755	25.17
447.96	25.22
448.166	25.14
448.372	25.28
448.578	25.15
448.783	25.21
448.989	25.2
449.195	25.35
449.4	25.36
449.606	25.43
449.812	25.43
450.017	25.36
450.223	25.38
450.428	25.12
450.634	25.36
450.84	25.42
451.045	25.54
451.251	25.46
451.456	25.89
451.662	25.92
451.867	26.03
452.073	26.08
452.278	26.4
452.483	26.45
452.689	26.45
452.894	26.42
453.1	26.41
453.305	26.26
453.51	26.06
453.716	25.95
453.921	25.93
454.127	25.92
454.332	25.75
454.537	25.8
454.742	25.79
454.948	25.88
455.153	25.89
455.358	26.08
455.563	26.28
455.769	26.38
455.974	26.35
456.179	26.27
456.384	26.25
456.589	26.14
456.795	26.07
457	26.12
457.205	26.45
457.41	26.47
457.615	26.35
457.82	26.38
458.025	26.33
458.23	26.16
458.435	26.23
458.64	26.15
458.845	26.32
459.05	26.34
459.255	26.4
459.46	26.42
459.665	26.68
459.87	26.68
460.075	26.74
460.28	26.75
460.485	26.71
460.69	26.79
460.895	26.62
461.099	26.45
461.304	26.45
461.509	26.52
461.714	26.35
461.919	26.58
462.123	26.73
462.328	26.96
462.533	26.88
462.738	27.03
462.942	26.93
463.147	27.08
463.352	27.03
463.556	27.1
463.761	27.1
463.966	27.17
464.17	27.05
464.375	26.84
464.58	26.76
464.784	26.86
464.989	26.85
465.193	26.98
465.398	27.23
465.602	27.45
465.807	27.41
466.011	27.5
466.216	27.62
466.42	27.7
466.625	27.81
466.829	27.87
467.034	28
467.238	28.14
467.443	28.07
467.647	27.98
467.851	28.01
468.056	28.03
468.26	27.94
468.464	27.98
468.669	28.13
468.873	28.42
469.077	28.38
469.282	28.54
469.486	28.63
469.69	28.68
469.894	28.5
470.099	28.69
470.303	28.63
470.507	28.61
470.711	28.52
470.915	28.43
471.119	28.29
471.324	28.24
471.528	28.27
471.732	28.36
471.936	28.5
472.14	28.57
472.344	28.78
472.548	28.97
472.752	29.15
472.956	29.46
473.16	29.55
473.364	29.48
473.568	29.36
473.772	29.37
473.976	29.27
474.18	29.38
474.384	29.4
474.588	29.45
474.792	29.43
474.995	29.43
475.199	29.48
475.403	29.67
475.607	29.86
475.811	29.76
476.015	29.81
476.218	29.87
476.422	29.83
476.626	29.89
476.83	30.16
477.033	30.16
477.237	30.11
477.441	30.18
477.644	30.16
477.848	30.22
478.052	30.27
478.255	30.31
478.459	30.33
478.663	30.48
478.866	30.43
479.07	30.64
479.273	30.81
479.477	30.98
479.681	30.95
479.884	31.03
480.088	30.87
480.291	30.83
480.495	30.83
480.698	31
480.901	31.08
481.105	31.37
481.308	31.41
481.512	31.41
481.715	31.49
481.919	31.5
482.122	31.46
482.325	31.55
482.529	31.6
482.732	31.59
482.935	31.55
483.138	31.48
483.342	31.68
483.545	31.84
483.748	31.79
483.952	31.84
484.155	31.94
484.358	31.89
484.561	31.73
484.764	31.72
484.967	31.9
485.171	31.98
485.374	31.89
485.577	32.04
485.78	32.19
485.983	32.12
486.186	32
486.389	32.02
486.592	32.01
486.795	32.04
486.998	32.08
487.201	32.13
487.404	32.17
487.607	32.22
487.81	32.15
488.013	32.12
488.216	32.09
488.419	32.11
488.622	32.12
488.825	32.14
489.028	32.07
489.231	32.12
489.433	31.97
489.636	31.85
489.839	31.85
490.042	31.92
490.245	31.89
490.447	32.07
490.65	32.13
490.853	32.15
491.056	32.2
491.258	32.28
491.461	32.28
491.664	32.39
491.866	32.39
492.069	32.46
492.272	32.44
492.474	32.57
492.677	32.55
492.879	32.61
493.082	32.63
493.285	32.83
493.487	32.73
493.69	32.63
493.892	32.59
494.095	32.6
494.297	32.47
494.5	32.51
494.702	32.57
494.905	32.54
495.107	32.45
495.309	32.52
495.512	32.57
495.714	32.69
495.917	32.78
496.119	32.86
496.321	32.75
496.524	32.84
496.726	32.88
496.928	32.92
497.13	32.98
497.333	33.08
497.535	32.98
497.737	32.89
497.939	32.94
498.142	32.96
498.344	32.92
498.546	32.97
498.748	33.01
498.95	33.08
499.152	32.99
499.355	33.09
499.557	33.21
499.759	33.41
499.961	33.37
500.163	33.51
500.365	33.61
500.567	33.64
500.769	33.45
500.971	33.49
501.173	33.4
501.375	33.43
501.577	33.35
501.779	33.42
501.981	33.37
502.183	33.46
502.385	33.33
502.587	33.35
502.788	33.48
502.99	33.54
503.192	33.66
503.394	33.76
503.596	33.75
503.798	33.71
503.999	33.73
504.201	33.73
504.403	33.71
504.605	33.82
504.806	33.74
505.008	33.71
505.21	33.75
505.411	33.78
505.613	33.69
505.815	33.9
506.016	34.11
506.218	34.25
506.42	34.18
506.621	34.29
506.823	34.2
507.024	34.12
507.226	34
507.427	34.11
507.629	34.09
507.83	34.24
508.032	34.16
508.233	34.2
508.435	34.34
508.636	34.51
508.838	34.44
509.039	34.54
509.24	34.6
509.442	34.47
509.643	34.4
509.845	34.49
510.046	34.71
510.247	34.69
510.448	34.78
510.65	34.87
510.851	34.8
511.052	34.7
511.254	34.7
511.455	34.82
511.656	34.82
511.857	35.03
512.058	35.08
512.26	35.1
512.461	35.13
512.662	35.15
512.863	35.01
513.064	34.93
513.265	35.01
513.466	35.13
513.667	35.14
513.868	35.17
514.069	35.35
514.27	35.46
514.471	35.31
514.672	35.31
514.873	35.31
515.074	35.38
515.275	35.26
515.476	35.37
515.677	35.47
515.878	35.64
516.079	35.58
516.28	35.56
516.481	35.62
516.682	35.6
516.882	35.46
517.083	35.48
517.284	35.51
517.485	35.5
517.686	35.5
517.886	35.56
518.087	35.53
518.288	35.61
518.488	35.56
518.689	35.51
518.89	35.47
519.091	35.56
519.291	35.56
519.492	35.76
519.692	35.92
519.893	36.04
520.094	35.98
520.294	36.01
520.495	35.84
520.695	35.77
520.896	35.79
521.096	35.8
521.297	35.85
521.497	35.91
521.698	35.99
521.898	36.02
522.099	36.09
522.299	36.16
522.499	36.14
522.7	36.16
522.9	36.14
523.101	36.2
523.301	36.05
523.501	36.07
523.702	36.13
523.902	36.23
524.102	36.2
524.302	36.36
524.503	36.47
524.703	36.39
524.903	36.36
525.103	36.35
525.304	36.43
525.504	36.35
525.704	36.44
525.904	36.43
526.104	36.51
526.304	36.47
526.504	36.47
526.705	36.47
526.905	36.53
527.105	36.53
527.305	36.54
527.505	36.57
527.705	36.55
527.905	36.63
528.105	36.56
528.305	36.49
528.505	36.58
528.705	36.66
528.905	36.56
529.105	36.59
529.304	36.61
529.504	36.74
529.704	36.68
529.904	36.66
530.104	36.7
530.304	36.77
530.503	36.63
530.703	36.53
530.903	36.55
531.103	36.6
531.303	36.56
531.502	36.64
531.702	36.83
531.902	36.83
532.101	36.79
532.301	36.82
532.501	36.81
532.7	36.81
532.9	36.87
533.1	36.92
533.299	37.01
533.499	36.97
533.698	36.97
533.898	37.01
534.097	37
534.297	37.03
534.496	37.12
534.696	37.09
534.895	37.23
535.095	37.3
535.294	37.28
535.494	37.26
535.693	37.29
535.892	37.33
536.092	37.26
536.291	37.19
536.491	37.23
536.69	37.37
536.889	37.24
537.088	37.29
537.288	37.36
537.487	37.44
537.686	37.38
537.886	37.38
538.085	37.37
538.284	37.42
538.483	37.39
538.682	37.41
538.882	37.57
539.081	37.65
539.28	37.6
539.479	37.6
539.678	37.62
539.877	37.58
540.076	37.64
540.275	37.7
540.474	37.84
540.673	37.9
540.872	37.84
541.071	37.91
541.27	37.93
541.469	37.93
541.668	37.99
541.867	38.03
542.066	38.08
542.265	38.15
542.464	38.17
542.663	38.26
542.862	38.48
543.06	38.57
543.259	38.61
543.458	38.68
543.657	38.65
543.856	38.67
544.054	38.59
544.253	38.66
544.452	38.67
544.651	38.68
544.849	38.56
545.048	38.61
545.247	38.65
545.445	38.74
545.644	38.81
545.843	38.88
546.041	38.97
546.24	39.12
546.438	39.12
546.637	39.14
546.836	39.29
547.034	39.28
547.233	39.23
547.431	39.24
547.63	39.34
547.828	39.34
548.027	39.41
548.225	39.46
548.423	39.49
548.622	39.61
548.82	39.68
549.019	39.81
549.217	39.91
549.415	40.01
549.614	40.13
549.812	40.31
550.01	40.26
550.209	40.32
550.407	40.38
550.605	40.34
550.803	40.42
551.002	40.62
551.2	40.61
551.398	40.74
551.596	40.99
551.794	40.98
551.993	41.02
552.191	41.19
552.389	41.26
552.587	41.21
552.785	41.32
552.983	41.48
553.181	41.62
553.379	41.75
553.577	41.89
553.775	41.95
553.973	42
554.171	42.05
554.369	42.07
554.567	42.14
554.765	42.18
554.963	42.32
555.161	42.31
555.359	42.44
555.557	42.6
555.755	42.65
555.952	42.77
556.15	42.9
556.348	43.02
556.546	43.15
556.744	43.29
556.941	43.31
557.139	43.41
557.337	43.33
557.535	43.35
557.732	43.45
557.93	43.59
558.128	43.7
558.325	43.89
558.523	43.9
558.721	44.11
558.918	44.06
559.116	44.14
559.313	44.27
559.511	44.59
559.708	44.58
559.906	44.7
560.104	44.78
560.301	44.95
560.498	44.93
560.696	44.99
560.893	45.23
561.091	45.46
561.288	45.58
561.486	45.71
561.683	45.95
561.88	46.01
562.078	46.07
562.275	46.12
562.473	46.24
562.67	46.44
562.867	46.53
563.064	46.65
563.262	46.79
563.459	46.88
563.656	46.93
563.853	47.06
564.051	47.11
564.248	47.31
564.445	47.39
564.642	47.52
564.839	47.79
565.036	48.05
565.234	48.22
565.431	48.33
565.628	48.44
565.825	48.48
566.022	48.73
566.219	48.66
566.416	48.85
566.613	48.99
566.81	49.05
567.007	48.94
567.204	49.17
567.401	49.25
567.598	49.33
567.795	49.48
567.991	49.63
568.188	49.73
568.385	49.86
568.582	49.93
568.779	50.05
568.976	50.1
569.172	50.15
569.369	50.14
569.566	50.22
569.763	50.36
569.96	50.42
570.156	50.37
570.353	50.46
570.55	50.7
570.746	50.76
570.943	50.83
571.14	50.95
571.336	51.07
571.533	51.06
571.729	51.02
571.926	51.2
572.123	51.32
572.319	51.31
572.516	51.16
572.712	51.18
572.909	51.09
573.105	51.12
573.302	51.22
573.498	51.5
573.695	51.55
573.891	51.74
574.087	51.77
574.284	51.9
574.48	51.79
574.677	51.94
574.873	51.94
575.069	52.1
575.266	52.1
575.462	51.97
575.658	51.97
575.854	52.09
576.051	51.99
576.247	51.97
576.443	52.22
576.639	52.24
576.835	52.05
577.032	52.04
577.228	52.15
577.424	52.21
577.62	52.12
577.816	52.24
578.012	52.22
578.208	52.21
578.404	52.12
578.6	52.2
578.796	52.26
578.993	52.44
579.189	52.41
579.384	52.29
579.58	52.19
579.776	52.07
579.972	51.87
580.168	51.76
580.364	51.95
580.56	51.9
580.756	51.91
580.952	52.03
581.148	52.16
581.343	52.16
581.539	52.24
581.735	52.18
581.931	52.2
582.127	52.22
582.322	52.17
582.518	52.24
582.714	52.39
582.909	52.48
583.105	52.4
583.301	52.34
583.496	52.45
583.692	52.39
583.888	52.08
584.083	52.18
584.279	52.34
584.474	52.19
584.67	52.19
584.866	52.32
585.061	52.03
585.257	51.98
585.452	51.91
585.648	51.89
585.843	52.01
586.039	52.11
586.234	52.1
586.429	52.14
586.625	52.25
586.82	52.04
587.015	52.15
587.211	52.05
587.406	52.14
587.601	52.05
587.797	52.21
587.992	52.31
588.187	52.5
588.383	52.43
588.578	52.49
588.773	52.5
588.968	52.34
589.163	52.33
589.359	52.37
589.554	52.31
589.749	52.24
589.944	52.32
590.139	52.42
590.334	52.55
590.529	52.54
590.724	52.71
590.919	52.87
591.114	52.78
591.309	52.87
591.504	52.97
591.699	53.01
591.894	53.03
592.089	53.08
592.284	53.01
592.479	53.29
592.674	53.31
592.869	53.44
593.064	53.38
593.259	53.52
593.454	53.44
593.648	53.56
593.843	53.48
594.038	53.63
594.233	53.69
594.428	53.77
594.622	53.76
594.817	54.02
595.012	54.05
595.206	54.04
595.401	54
595.596	54
595.79	53.97
595.985	54.18
596.18	54.23
596.374	54.43
596.569	54.64
596.763	54.58
596.958	54.56
597.153	54.8
597.347	54.65
597.542	54.74
597.736	54.87
597.931	55.02
598.125	55.07
598.319	55.34
598.514	55.36
598.708	55.43
598.903	55.43
599.097	55.4
599.291	55.51
599.486	55.5
599.68	55.5
599.874	55.66
600.069	55.73
600.263	55.65
600.457	55.73
600.651	55.78
600.846	55.79
601.04	55.95
601.234	56.07
601.428	56.07
601.622	56.13
601.817	56.18
602.011	56.1
602.205	56.07
602.399	56.05
602.593	56.01
602.787	55.94
602.981	55.97
603.175	56.12
603.369	56.29
603.563	56.37
603.757	56.56
603.951	56.59
604.145	56.47
604.339	56.54
604.533	56.58
604.727	56.48
604.921	56.39
605.115	56.43
605.309	56.43
605.502	56.43
605.696	56.41
605.89	56.4
606.084	56.43
606.278	56.28
606.471	56.15
606.665	56.01
606.859	55.87
607.053	55.82
607.246	55.73
607.44	55.72
607.634	55.77
607.827	55.77
608.021	55.48
608.214	55.51
608.408	55.35
608.602	55.35
608.795	55.41
608.989	55.45
609.182	55.45
609.376	55.61
609.569	55.5
609.763	55.33
609.956	55.3
610.15	55.19
610.343	55.09
610.537	55.07
610.73	55.18
610.923	55.13
611.117	55.08
611.31	54.97
611.504	54.78
611.697	54.72
611.89	54.73
612.083	54.66
612.277	54.63
612.47	54.63
612.663	54.58
612.856	54.55
613.05	54.44
613.243	54.35
613.436	54.14
613.629	53.96
613.822	53.72
614.015	53.68
614.209	53.55
614.402	53.65
614.595	53.73
614.788	53.79
614.981	53.65
615.174	53.47
615.367	53.32
615.56	53.23
615.753	53.16
615.946	53.12
616.139	53.29
616.332	53.5
616.525	53.33
616.718	53.28
616.911	53.29
617.103	53.22
617.296	52.96
617.489	52.91
617.682	52.95
617.875	52.87
618.067	52.74
618.26	52.7
618.453	52.67
618.646	52.65
618.838	52.74
619.031	52.93
619.224	53.01
619.417	52.96
619.609	52.82
619.802	52.69
619.994	52.56
620.187	52.43
620.38	52.49
620.572	52.47
620.765	52.57
620.957	52.46
621.15	52.41
621.342	52.26
621.535	52.31
621.727	52.08
621.92	51.98
622.112	51.9
622.305	52.06
622.497	51.98
622.69	52.07
622.882	52.06
623.074	52.09
623.267	51.99
623.459	51.91
623.651	51.82
623.844	51.98
624.036	52.01
624.228	52.01
624.42	52
624.613	52.11
624.805	52.03
624.997	52
625.189	51.88
625.381	51.87
625.574	51.75
625.766	51.59
625.958	51.53
626.15	51.61
626.342	51.68
626.534	51.6
626.726	51.61
626.918	51.72
627.11	51.5
627.302	51.34
627.494	51.39
627.686	51.47
627.878	51.27
628.07	51.3
628.262	51.14
628.454	51.11
628.646	51.13
628.838	51.1
629.029	50.9
629.221	51.07
629.413	50.95
629.605	50.61
629.797	50.53
629.989	50.66
630.18	50.53
630.372	50.45
630.564	50.44
630.755	50.6
630.947	50.7
631.139	50.65
631.33	50.52
631.522	50.75
631.714	50.62
631.905	50.4
632.097	50.49
632.289	50.55
632.48	50.37
632.672	50.28
632.863	50.23
633.055	50.03
633.246	50.09
633.438	49.94
633.629	49.85
633.821	49.91
634.012	49.9
634.203	49.77
634.395	49.92
634.586	49.97
634.777	49.82
634.969	49.87
635.16	49.97
635.351	49.75
635.543	49.66
635.734	49.73
635.925	49.61
636.117	49.48
636.308	49.7
636.499	49.73
636.69	49.59
636.881	49.64
637.073	49.63
637.264	49.5
637.455	49.44
637.646	49.6
637.837	49.57
638.028	49.62
638.219	49.51
638.41	49.54
638.601	49.38
638.792	49.43
638.983	49.39
639.174	49.36
639.365	49.26
639.556	49.16
639.747	49.14
639.938	49.21
640.129	49.16
640.32	49.14
640.511	49.31
640.701	49.32
640.892	49.11
641.083	49.07
641.274	49.17
641.465	49.11
641.655	48.94
641.846	49.01
642.037	49.04
642.228	48.76
642.418	48.73
642.609	48.82
642.8	48.68
642.99	48.59
643.181	48.76
643.372	48.7
643.562	48.46
643.753	48.51
643.943	48.54
644.134	48.36
644.324	48.29
644.515	48.41
644.705	48.43
644.896	48.39
645.086	48.33
645.277	48.19
645.467	48.1
645.658	47.94
645.848	47.91
646.038	47.87
646.229	47.87
646.419	47.78
646.61	47.8
646.8	47.8
646.99	47.81
647.18	47.83
647.371	47.81
647.561	47.88
647.751	47.86
647.941	47.86
648.132	47.81
648.322	47.76
648.512	47.67
648.702	47.59
648.892	47.64
649.082	47.73
649.272	47.74
649.462	47.55
649.653	47.59
649.843	47.49
650.033	47.42
650.223	47.41
650.413	47.5
650.603	47.41
650.793	47.4
650.983	47.23
651.172	47.09
651.362	47.06
651.552	46.91
651.742	46.79
651.932	46.84
652.122	46.89
652.312	46.87
652.502	46.87
652.691	46.91
652.881	46.85
653.071	46.77
653.261	46.67
653.45	46.54
653.64	46.43
653.83	46.28
654.019	46.18
654.209	46.2
654.399	46.15
654.588	46.08
654.778	45.96
654.968	45.84
655.157	45.56
655.347	45.42
655.536	45.13
655.726	45.02
655.915	44.79
656.105	44.67
656.294	44.6
656.484	44.47
656.673	44.24
656.863	44.16
657.052	43.9
657.241	43.64
657.431	43.33
657.62	43.16
657.809	42.87
657.999	42.61
658.188	42.4
658.377	42.27
658.567	42.16
658.756	42.01
658.945	42.01
659.134	41.81
659.324	41.68
659.513	41.39
659.702	41.08
659.891	40.86
660.08	40.74
660.269	40.65
660.458	40.5
660.648	40.26
660.837	39.97
661.026	39.64
661.215	39.41
661.404	39.21
661.593	39.19
661.782	38.94
661.971	38.78
662.16	38.6
662.349	38.34
662.538	38.13
662.726	38.01
662.915	37.74
663.104	37.44
663.293	37.28
663.482	37.19
663.671	37.08
663.86	36.83
664.048	36.57
664.237	36.4
664.426	36.03
664.615	35.71
664.803	35.71
664.992	35.58
665.181	35.47
665.369	35.35
665.558	35.25
665.747	35.08
665.935	35
666.124	34.89
666.312	34.71
666.501	34.65
666.69	34.46
666.878	34.38
667.067	34.36
667.255	34.46
667.444	34.57
667.632	34.61
667.82	34.64
668.009	34.48
668.197	34.39
668.386	34.11
668.574	33.99
668.762	33.9
668.951	33.7
669.139	33.56
669.327	33.42
669.516	33.58
669.704	33.38
669.892	33.58
670.08	33.62
670.269	33.62
670.457	33.37
670.645	33.4
670.833	33.32
671.021	33.22
671.21	33.21
671.398	33.41
671.586	33.39
671.774	33.24
671.962	33.26
672.15	33.42
672.338	33.24
672.526	33.26
672.714	33.28
672.902	33.36
673.09	33.47
673.278	33.73
673.466	33.88
673.654	34.03
673.842	34.14
674.03	34.02
674.218	33.83
674.405	33.79
674.593	33.82
674.781	33.88
674.969	33.95
675.157	34.11
675.344	34.22
675.532	34.45
675.72	34.51
675.908	34.56
676.095	34.48
676.283	34.73
676.471	34.84
676.658	34.97
676.846	35.24
677.033	35.52
677.221	35.64
677.409	35.54
677.596	35.69
677.784	35.63
677.971	35.73
678.159	35.79
678.346	35.84
678.534	35.93
678.721	36.25
678.909	36.55
679.096	36.63
679.283	36.99
679.471	37.1
679.658	37.28
679.846	37.38
680.033	37.72
680.22	37.88
680.408	38.24
680.595	38.28
680.782	38.44
680.969	38.59
681.157	38.84
681.344	38.81
681.531	39.14
681.718	39.43
681.905	39.66
682.093	39.94
682.28	40.38
682.467	40.51
682.654	40.71
682.841	40.83
683.028	41.18
683.215	41.63
683.402	41.88
683.589	42.14
683.776	42.52
683.963	42.62
684.15	42.62
684.337	43.14
684.524	43.39
684.711	43.68
684.898	43.85
685.085	44.23
685.271	44.46
685.458	45.05
685.645	45.36
685.832	46.07
686.019	46.69
686.205	47.12
686.392	47.44
686.579	47.89
686.766	48.31
686.952	48.6
687.139	49.26
687.326	49.59
687.512	50.07
687.699	50.37
687.886	50.7
688.072	50.96
688.259	51.52
688.445	52.1
688.632	52.66
688.818	53.49
689.005	53.87
689.191	54.35
689.378	54.97
689.564	55.33
689.751	55.72
689.937	56.34
690.124	57.04
690.31	57.39
690.496	58.2
690.683	58.71
690.869	59.07
691.055	59.33
691.242	59.96
691.428	60.42
691.614	60.8
691.8	61.73
691.987	62.52
692.173	63.34
692.359	63.79
692.545	64.63
692.731	64.96
692.918	65.54
693.104	65.67
693.29	66.31
693.476	66.73
693.662	67.32
693.848	67.61
694.034	67.98
694.22	68.18
694.406	68.58
694.592	68.97
694.778	69.56
694.964	70.31
695.15	70.8
695.336	71.24
695.522	71.97
695.708	72.2
695.894	72.67
696.08	73.23
696.265	73.88
696.451	74.12
696.637	74.6
696.823	74.81
697.009	75.03
697.194	75.06
697.38	75.33
697.566	75.76
697.751	76.12
697.937	76.74
698.123	77.12
698.308	77.49
698.494	77.82
698.68	78.02
698.865	78.34
699.051	79
699.236	79.32
699.422	79.72
699.607	79.77
699.793	79.92
699.978	79.88
700.164	80.16
700.349	80.58
700.535	80.97
700.72	81.22
700.906	81.56
701.091	81.44
701.276	81.29
701.462	82.14
701.647	82.6
701.832	82.61
702.018	83.25
702.203	83.6
702.388	83.45
702.573	83.5
702.759	84.26
702.944	84.21
703.129	84.26
703.314	84.19
703.499	84.09
703.684	83.84
703.87	84.72
704.055	85.58
704.24	85.97
704.425	86.57
704.61	86.96
704.795	86.58
704.98	86.22
705.165	86.17
705.35	85.96
705.535	86.16
705.72	86.38
705.905	86.8
706.09	87.37
706.275	87.83
706.459	87.66
706.644	87.36
706.829	87.2
707.014	87.24
707.199	87.39
707.384	87.69
707.568	87.94
707.753	88.31
707.938	88.39
708.123	88.31
708.307	88.22
708.492	88.53
708.677	88.37
708.861	88.16
709.046	87.97
709.231	88.35
709.415	88.39
709.6	88.31
709.784	87.91
709.969	87.89
710.153	87.44
710.338	87.25
710.522	87.45
710.707	88.15
710.891	88.35
711.076	88.56
711.26	88.64
711.445	88.68
711.629	88.52
711.813	89.06
711.998	89.48
712.182	89.26
712.366	89.91
712.551	90.71
712.735	90.39
712.919	90
713.103	90.6
713.288	89.93
713.472	89.37
713.656	90.08
713.84	90.5
714.024	90.61
714.208	90.7
714.393	91.1
714.577	90.43
714.761	90.42
714.945	90.34
715.129	90.5
715.313	90.21
715.497	90.17
715.681	90.47
715.865	90.24
716.049	90.25
716.233	90.11
716.417	90.53
716.601	90.25
716.785	90.2
716.968	90.13
717.152	90.4
717.336	90.52
717.52	90.35
717.704	90.56
717.888	90.66
718.071	90.64
718.255	90.41
718.439	90.52
718.622	90.9
718.806	91.34
718.99	91.06
719.174	90.66
719.357	90.79
719.541	90.52
719.724	90.21
719.908	91.05
720.092	91.62
720.275	91.66
720.459	91.83
720.642	91.43
720.826	90.84
721.009	90.74
721.193	90.01
721.376	89.99
721.559	90.37
721.743	91.14
721.926	91.6
722.11	92.38
722.293	91.81
722.476	91.67
722.66	91.08
722.843	90.36
723.026	90
723.21	90.51
723.393	91.72
723.576	91.65
723.759	91.29
723.942	91.69
724.126	91.98
724.309	91.13
724.492	91.05
724.675	91.57
724.858	91.82
725.041	91.98
725.224	92.14
725.407	92.51
725.59	93.38
725.774	92.94
725.957	92.05
726.14	91.52
726.322	91.84
726.505	90.96
726.688	91.67
726.871	92.08
727.054	92.69
727.237	92.54
727.42	93.06
727.603	93.04
727.786	93.24
727.968	92.71
728.151	92.51
728.334	92.61
728.517	92.48
728.699	93
728.882	93.02
729.065	93.21
729.248	93.21
729.43	93.81
729.613	94.15
729.796	95.22
729.978	94.35
730.161	94.05
730.343	92.77
730.526	92.72
730.708	91.67
730.891	92.27
731.073	91.62
731.256	91.86
731.438	91.58
731.621	93.05
731.803	93.51
731.986	93.76
732.168	93.76
732.35	93.54
732.533	92.46
732.715	92.13
732.898	92.82
733.08	92.54
733.262	92.92
733.444	92.45
733.627	92.19
733.809	92.51
733.991	93.68
734.173	92.86
734.355	93.21
734.538	93.89
734.72	93.4
734.902	92.94
735.084	93.78
735.266	94.06
735.448	94.31
735.63	94.41
735.812	95.19
735.994	95.54
736.176	95.55
736.358	95.09
736.54	95.46
736.722	94.35
736.904	94.63
737.086	94.64
737.268	95.46
737.45	95.19
737.632	95.57
737.814	94.12
737.995	93.84
738.177	93.58
738.359	92.86
738.541	92.58
738.723	93.26
738.904	94.52
739.086	93.94
739.268	94.24
739.449	95.76
739.631	95.19
739.813	94.57
739.994	95.24
740.176	96.12
740.358	94.49
740.539	95.32
740.721	95.49
740.902	95.49
741.084	94.5
741.265	94.54
741.447	94.28
741.628	94.31
741.81	93.57
741.991	94.3
742.172	94.92
742.354	95.39
742.535	95.17
742.717	96.19
742.898	96.78
743.079	97.82
743.261	97.01
743.442	96.3
743.623	96.63
743.804	96.2
743.986	96.05
744.167	94.79
744.348	94.5
744.529	93.6
744.71	92.56
744.891	91.17
745.073	91.51
745.254	91.61
745.435	90.79
745.616	90.95
745.797	91.21
745.978	91.6
746.159	92.29
746.34	91.96
746.521	93.25
746.702	92.72
746.883	92.71
747.064	91.64
747.245	93.15
747.426	92.25
747.606	92.75
747.787	92.85
747.968	93.72
748.149	93.65
748.33	94.5
748.51	94.18
748.691	93.85
748.872	94.39
749.053	93.68
749.233	91.47
749.414	91.15
749.595	91.13
749.775	89.69
749.956	88.99
750.137	90.04
750.317	91.75
750.498	92.84
750.678	93.3
750.859	94.24
751.04	94.35
751.22	91.63
751.4	90.1
751.581	89.51
751.761	89.69
751.942	89.89
752.122	90.27
752.303	90.9
752.483	91.9
752.663	91.38
752.844	90.7
753.024	92.66
753.204	93.63
753.385	91.9
753.565	91.94
753.745	91.86
753.925	90.12
754.106	88.52
754.286	89.33
754.466	89.57
754.646	90.71
754.826	90.49
755.006	90.18
755.187	92.39
755.367	92.39
755.547	92.13
755.727	93.91
755.907	94.54
756.087	93.45
756.267	91.36
756.447	91.62
756.627	89.91
756.807	91.29
756.987	89.96
757.167	91.23
757.346	91.04
757.526	90.31
757.706	90.16
757.886	91.13
758.066	91.88
758.246	92.79
758.425	92.42
758.605	90.67
758.785	90.27
758.965	90.44
759.144	87.45
759.324	89.73
759.504	90.95
759.683	91.14
759.863	88.51
760.043	89.52
760.222	88.07
760.402	88.12
760.581	88.84
760.761	92.38
760.94	91.04
761.12	93
761.299	92.83
761.479	91.58
761.658	88.36
761.838	89.28
762.017	88.94
762.197	89.32
762.376	90.77
762.555	93.24
762.735	93.55
762.914	90.83
763.093	90.17
763.273	88.3
763.452	87.16
763.631	86.88
763.81	87.38
763.99	86.05
764.169	85.85
764.348	84.46
764.527	83.01
764.706	84.96
764.885	87.76
765.064	86.93
765.243	86.89
765.423	89.32
765.602	88.96
765.781	85.48
765.96	86.14
766.139	86.23
766.318	86.44
766.497	85.41
766.676	87.46
766.854	89.54
767.033	90.65
767.212	88.56
767.391	88.37
767.57	88.47
767.749	87.7
767.928	89.06
768.106	89.81
768.285	88.23
768.464	88.32
768.643	88.63
768.821	86.95
769	88.42
769.179	88.19
769.357	85.93
769.536	84.96
769.715	84.15
769.893	84.4
770.072	85.27
770.25	86.98
770.429	87.99
770.607	90.12
770.786	88.91
770.964	90.55
771.143	89.61
771.321	89.3
771.5	87.85
771.678	87.12
771.857	84.69
772.035	85.66
772.213	83.79
772.392	82.16
772.57	82.67
772.748	83.81
772.927	82.8
773.105	81.84
773.283	83.16
773.461	83.51
773.64	85.54
773.818	84.61
773.996	86.96
774.174	86.11
774.352	82.98
774.531	77.04
774.709	80.18
774.887	79.03
775.065	78.63
775.243	79.5
775.421	82.06
775.599	82.1
775.777	81
775.955	80.68
776.133	78.54
776.311	80.05
776.489	76.06
776.667	77.4
776.844	79.41
777.022	81.96
777.2	80.9
777.378	83.29
777.556	84.02
777.734	85.29
777.911	87.93
778.089	88.59
778.267	88.75
778.445	85.85
778.622	83.57
778.8	80.25
778.978	81.73
779.155	79.75
779.333	82.2
779.511	80.49
779.688	82.72
779.866	77.52
780.043	76.42
780.221	75.79
780.398	74.54
780.576	76.14
780.753	80.36
780.931	79.21
781.108	77.18
781.286	80.42
781.463	77.09
781.64	74.57
781.818	77.38
781.995	78.95
782.172	77.16
782.35	79.2
782.527	84.93
782.704	84.34
782.882	83.14
783.059	82.64
783.236	81.02
783.413	79.31
783.59	79.53
783.768	78.51
783.945	82.45
784.122	84.02
784.299	83.45
784.476	81.26
784.653	82.26
784.83	78.18
785.007	73.39
785.184	72.45
785.361	72.81
785.538	75.92
785.715	78.31
785.892	79.93
786.069	78.24
786.246	81.39
786.423	80.24
786.6	77.44
786.776	81.11
786.953	80.95
787.13	85.1
787.307	83.49
787.484	85.16
787.66	81.63
787.837	81.53
788.014	73.64
788.191	73.85
788.367	71.1
788.544	72.83
788.721	72.42
788.897	76.21
789.074	76.61
789.25	75.26
789.427	75.58
789.603	76.72
789.78	76.52
789.956	73.84
790.133	74.01
790.309	74.83
790.486	76.66
790.662	73.59
790.839	75.12
791.015	78.86
791.192	76.42
791.368	75.53
791.544	74.81
791.721	73.82
791.897	72.04
792.073	67.27
792.249	63.25
792.426	68.17
792.602	70.43
792.778	70.46
792.954	74.05
793.13	76.42
793.307	68.65
793.483	62.43
793.659	61.72
793.835	67.84
794.011	64.77
794.187	66
794.363	66.34
794.539	71.21
794.715	64.73
794.891	66.11
795.067	64.11
795.243	74
795.419	70.7
795.595	65.85
795.771	67.13
795.947	73.03
796.122	63.41
796.298	65.56
796.474	69.68
796.65	65.22
796.826	62.2
797.001	67.17
797.177	61.73
797.353	63.46
797.529	72.44
797.704	70
797.88	67.44
798.056	67.71
798.231	68.5
798.407	67.29
798.582	71.96
798.758	78.5
798.934	84.07
799.109	80.44
799.285	69.74
799.46	70.79
799.636	62.85
799.811	60.22
799.986	65.79
800.162	74.59
800.337	75.01
800.513	69.88
800.688	70.22
800.863	75.9
801.039	63.8
801.214	55.07
801.389	65.34
801.565	62.86
801.74	44.17
801.915	58.19
802.09	65.05
802.265	69.48
802.441	69.38
802.616	76.53
802.791	81.84
802.966	82.12
803.141	77.39
803.316	72.78
803.491	77.77
803.666	73.74
803.841	73.34
804.016	69.57
804.191	75.11
804.366	67.66
804.541	62.15
804.716	60.46
804.891	56.2
805.066	59.18
805.241	61.3
805.416	63.68
805.591	61.91
805.765	68.03
805.94	66.94
806.115	65.29
806.29	55.91
806.464	54.32
806.639	46.1
806.814	39.73
806.989	38.82
807.163	52.08
807.338	52.2
807.512	50.81
807.687	43.65
807.862	55.74
808.036	56.83
808.211	61.33
808.385	76.96
808.56	93.83
808.734	95.61
808.909	92.39
809.083	80.3
809.258	80.26
809.432	70.32
809.606	55.11
809.781	51.44
809.955	63.59
810.13	61.42
810.304	64.42
810.478	63.62
810.652	77.11
810.827	75.27
811.001	64.89
811.175	59.55
811.349	60.2
811.524	44.51
811.698	33.3
811.872	38.8
812.046	41.35
812.22	52.53
812.394	57.17
812.568	66.04
812.742	69.98
812.916	73.78
813.09	54.65
813.264	50.6
813.438	54.51
813.612	52.07
813.786	51.79
813.96	67.54
814.134	78.29
814.308	92.05
814.482	93.46
814.656	82.94
814.83	82.96
815.003	79.88
815.177	58.58
815.351	49.37
815.525	47.04
815.698	38.75
815.872	33.9
816.046	34.44
816.219	39.92
816.393	53.69
816.567	62.14
816.74	58.48
816.914	67.27
817.088	67.49
817.261	57.19
817.435	51.44
817.608	65.7
817.782	47.72
817.955	52.63
818.129	50.51
818.302	61.59
818.475	64.34
818.649	68.53
818.822	64.69
818.996	84.93
819.169	75.61
819.342	56.66
819.516	68.56
819.689	68.91
819.862	51.73
820.035	42.59
820.209	40.2
820.382	33.44
820.555	34.59
820.728	20.67
820.901	17.31
821.075	17.12
821.248	18.55
821.421	-12.85
821.594	-4.54
821.767	37.79
821.94	68.2
822.113	49.4
822.286	63.71
822.459	76.79
822.632	46.22
822.805	9.29
822.978	10.21
823.151	-2.4
823.324	-5.47
823.496	-19.46
823.669	-9.27
823.842	4.83
824.015	-4.21
824.188	-14.54
824.361	-7.67
824.533	-10.83
824.706	-5.28
824.879	10.12
825.051	24.78
825.224	31.61
825.397	26.15
825.569	6.74
825.742	10.96
825.915	31.9
826.087	40.05
826.26	41.64
826.432	54.11
826.605	60.19
826.777	24.18
826.95	20.82
827.122	15.53
827.295	27.78
827.467	29.99
827.64	28.01
827.812	29.62
827.984	30.25
828.157	13.24
828.329	-11.02
828.501	-9.93
828.674	6.72
828.846	-10.22
829.018	-4.9
829.19	-20.3
829.363	14.23
829.535	8.9
829.707	22.19
829.879	11.76
830.051	20.12
830.223	9.46
830.395	-7.62
830.568	-5.01
830.74	-16.63
830.912	11.98
831.084	-4.23
831.256	2.98
831.428	-16.66
831.6	-19.53
831.772	-54.68
831.943	-59.26
832.115	-37.18
832.287	-6.77
832.459	4.94
832.631	18.79
832.803	36.06
832.975	42.92
833.146	27.18
833.318	27.68
833.49	48.54
833.662	35.56
833.833	-3.73
834.005	3.89
834.177	9.89
834.348	-11.49
834.52	-33.93
834.692	-15.64
834.863	-71.94
835.035	-71.96
835.206	-126.29
835.378	-69.58
835.549	-72.88
835.721	-9.67
835.892	0.39
836.064	18.77
836.235	16.39
836.407	58.16
836.578	-6.06
836.749	-8.62
836.921	-61.21
837.092	-83.98
837.264	-91.6
837.435	-81.21
837.606	-25.33
837.777	14.02
837.949	28.46
838.12	38.05
838.291	57.48
838.462	46.86
838.633	26.19
838.805	26.03
838.976	43.28
839.147	-14.93
839.318	-32.67
839.489	-76.2
839.66	-58.55
839.831	-46.46
840.002	-35.16
840.173	-88.53
840.344	-37.43
840.515	-73.21
840.686	-228.58
840.857	-194.74
841.028	-105.46
841.199	-71.11
841.369	-82.92
841.54	-35.76
841.711	10.43
841.882	14.39
842.053	-2.48
842.223	-9.5
842.394	-30.75
842.565	-33.66
842.736	-14.65
842.906	-13.77
843.077	0.98
843.248	45.14
843.418	31.07
843.589	26.66
843.759	108.26
843.93	103.19
844.101	20.86
844.271	15.62
844.442	4.74
844.612	19.97
844.783	-11.82
844.953	-39.48
845.123	-21.66
845.294	21.78
845.464	-182.01
845.635	-55.78
845.805	28.42
845.975	9.3
846.146	-37.24
846.316	-34.89
846.486	-28.12
846.656	-12.16
846.827	-23.05
846.997	-26.03
847.167	-24.51
847.337	-23.03
847.507	-73.96
847.677	-58.06
847.848	5.29
848.018	17.16
848.188	26.63
848.358	17.08
848.528	3.55
848.698	-35.07
848.868	-128.79
849.038	-244.7
849.208	-82.2
849.378	-22.43
849.548	7.57
849.718	12.01
849.887	47.81
850.057	23.37
850.227	-17.37
850.397	-58.29
850.567	-179.91
850.737	-467.28
850.906	-1684.69
851.076	-1151.37
851.246	-702.49
851.415	-85.7
851.585	-36.1
851.755	-63.64
851.924	-18.95
852.094	-14.35
852.264	-130.92
852.433	-1252.64
852.603	-166.52
852.772	-107.76
852.942	-57.41
853.111	-46.77
853.281	-0.79
853.45	19.57
853.62	-82.26
853.789	-102.75
853.959	-104.91
854.128	-127.81
854.297	-156.07
854.467	-135.68
854.636	-79.4
854.805	-26.15
854.975	-70.7
855.144	-153.08
855.313	-201.92
855.482	-821.72
855.652	-368.93
855.821	-218.24
855.99	-4.93
856.159	21.61
856.328	33.23
856.497	-7.6
856.667	-5.22
856.836	-20.2
857.005	-62.74
857.174	-82.65
857.343	-62.48
857.512	-34.03
857.681	-92
857.85	-140.59
858.019	-71.25
858.188	-74
858.356	-101.92
858.525	-171.67
858.694	-149.54
858.863	-305.17
859.032	-206.7
859.201	-264.01
859.369	-130.29
859.538	-90.16
859.707	-101.19
859.876	-164.72
860.044	-156.54
860.213	-34
860.382	-44.55
860.55	-7.22
860.719	25.65
860.888	30.65
861.056	-20.68
861.225	-31.14
861.393	3.51
861.562	-8.05
861.73	-64.6
861.899	-140.18
862.067	-726.72
862.236	-73.4
862.404	-264.77
862.572	-109.35
862.741	-7.29
862.909	-8.4
863.078	-118.28
863.246	-51.35
863.414	-80.41
863.582	-86.38
863.751	-127.61
863.919	-97.09
864.087	-69.48
864.255	-77.3
864.424	-519.02
864.592	-132.45
864.76	-214.36
864.928	-802.2
865.096	-389.09
865.264	-303.44
865.432	-2947.16
865.6	-385.88
865.768	-247.61
865.936	-234.48
866.104	-235.36
866.272	-263.67
866.44	-453.84
866.608	706.39
866.776	311.65
866.944	3022.67
867.112	-583.79
867.28	-276.13
867.448	-79.9
867.615	-20.5
867.783	-0.93
867.951	-35.14
868.119	-1.54
868.286	-56.22
868.454	-168.01
868.622	-184.19
868.789	-126.6
868.957	-1055.36
869.125	-1588.82
869.292	-142.44
869.46	-184.92
869.627	-35.22
869.795	-63.87
869.963	-24.12
870.13	8.34
870.298	20.86
870.465	-61.18
870.632	-68.27
870.8	-37.12
870.967	-122.06
871.135	-175.31
871.302	-120.96
871.469	-133.57
871.637	-197.78
871.804	-51.36
871.971	-114.58
872.139	-423.14
872.306	-33.68
872.473	-52.72
872.64	-296.46
872.807	-53.81
872.975	38.3
873.142	-178.09
873.309	1696.62
873.476	30.08
873.643	90.56
873.81	27.94
873.977	88.18
874.144	71.9
874.311	-62.29
874.478	-132.33
874.645	-158.43
874.812	-112.01
874.979	-32.05
875.146	-28.99
875.313	-45.06
875.48	56.11
875.647	13.1
875.813	-35.25
875.98	-15.08
876.147	-48.5
876.314	-109.2
876.481	1071.69
876.647	-1399.72
876.814	637.69
876.981	19.33
877.147	-80.16
877.314	-13.24
877.481	19.19
877.647	29.67
877.814	-55.59
877.98	-106.89
878.147	-48.71
878.314	5.78
878.48	-38.42
878.647	28.1
878.813	97.19
878.979	68.72
879.146	11.61
879.312	17.77
879.479	-56.94
879.645	-216.54
879.811	-456.39
879.978	-957.82
880.144	-333.08
880.31	-145.2
880.477	-362.23
880.643	-355.19
880.809	-173.31
880.975	-121.77
881.142	-1094.32
881.308	-141.94
881.474	-48.99
881.64	-94.51
881.806	-190.2
881.972	-109.6
882.138	-148.08
882.304	-231.92
882.47	-271.55
882.636	-789.96
882.802	-136.86
882.968	1.28
883.134	-14.94
883.3	-53.01
883.466	-11.75
883.632	23.11
883.798	-23.99
883.964	-52.38
884.129	-13.64
884.295	14.2
884.461	-57.31
884.627	-80.23
884.793	-98.49
884.958	-58.74
885.124	-155.88
885.29	-274.33
885.455	-352.79
885.621	-83.59
885.787	-143.64
885.952	-49.32
886.118	-56.41
886.283	-77.06
886.449	-162.84
886.614	-176.38
886.78	-412.21
886.945	1422.54
887.111	-631.65
887.276	-523.72
887.442	-968.86
887.607	-498.47
887.773	-443.55
887.938	-426.31
888.103	-505.5
888.269	-391.49
888.434	-660.41
888.599	-168.66
888.764	-41.75
888.93	2.59
889.095	-12.35
889.26	-53.44
889.425	-6.04
889.59	19.02
889.756	-22.1
889.921	16.66
890.086	94.22
890.251	45.21
890.416	-61.27
890.581	-891.53
890.746	145.98
890.911	384.55
891.076	189.05
891.241	-553.54
891.406	-34.65
891.571	-94.02
891.736	-323.74
891.901	-765.27
892.065	785.44
892.23	148.62
892.395	257.88
892.56	408.6
892.725	-377.93
892.889	-1289.63
893.054	-281.31
893.219	-118.33
893.384	-61.57
893.548	-142.63
893.713	-156.64
893.878	-101.29
