Data from Ofra_1a_PS_6CX18_Reflection_3.txt Node
Date: Tue Jul 20 10:59:09 EDT 2021
User: Adam
Spectrometer: FLMT01687
Trigger mode: 0
Integration Time (sec): 1.004000E0
Scans to average: 2
Electric dark correction enabled: true
Nonlinearity correction enabled: false
Boxcar width: 2
XAxis mode: Wavelengths
Number of Pixels in Spectrum: 3648
>>>>>Begin Spectral Data<<<<<
179.494	-469.54
179.716	-561.83
179.937	1410.37
180.158	-2426.11
180.38	269.4
180.601	77.29
180.823	4.75
181.044	-176.3
181.265	-379.71
181.486	278.21
181.708	108.58
181.929	-390.91
182.15	-147.95
182.372	528.57
182.593	432.59
182.814	-257.56
183.035	-78.41
183.257	-27.71
183.478	-48.91
183.699	-98.04
183.92	-177.49
184.141	-161.58
184.363	-114.13
184.584	-138.92
184.805	-47.81
185.026	0.74
185.247	-22.76
185.468	-60.64
185.689	-37.2
185.91	-90.26
186.132	-68.27
186.353	-41.72
186.574	-47.55
186.795	-42.81
187.016	-20.7
187.237	-34.01
187.458	-33.72
187.679	-35.57
187.9	-19.5
188.121	-31.77
188.342	12.41
188.563	16.79
188.784	45.63
189.005	36.56
189.226	33.77
189.447	17.02
189.667	9.23
189.888	-19.88
190.109	-37.5
190.33	-34.44
190.551	-46.63
190.772	-50.1
190.993	-67.91
191.214	-97.98
191.434	-117.51
191.655	-151.14
191.876	-82.2
192.097	-13.6
192.318	33.06
192.538	-8.97
192.759	-10.09
192.98	-8.97
193.201	-29.95
193.421	-59.35
193.642	-39.51
193.863	-39.1
194.083	-57.06
194.304	-30.38
194.525	-16.56
194.745	-21.9
194.966	-35.28
195.187	-33.12
195.407	-73.71
195.628	-41.21
195.848	-41.68
196.069	-31.88
196.29	-25.71
196.51	-15.39
196.731	-26.88
196.951	-39.78
197.172	-41.72
197.392	-53.7
197.613	-19.49
197.833	-50.29
198.054	-47.81
198.274	-41.7
198.495	-43
198.715	-76.66
198.936	-51.05
199.156	-51.3
199.377	-56.84
199.597	-36.26
199.817	-49.29
200.038	-65.82
200.258	-18.69
200.479	-27.3
200.699	-30.61
200.919	-9.42
201.14	-8.05
201.36	-33.27
201.58	-57.57
201.801	-103.87
202.021	-114.53
202.241	-104.58
202.461	-81.03
202.682	-62.27
202.902	-36.14
203.122	-47.3
203.342	-62.6
203.563	-56.75
203.783	-70.26
204.003	-70.25
204.223	-50.86
204.443	-38.85
204.663	-73
204.884	-43.65
205.104	-48.49
205.324	-45.05
205.544	-111.24
205.764	-76.3
205.984	-91.35
206.204	-72.73
206.424	-97.85
206.644	-74.54
206.864	-81.11
207.084	-18.8
207.304	-52.65
207.525	-28.39
207.745	-7.02
207.964	-19.27
208.184	-50.5
208.404	-38.16
208.624	-32.74
208.844	-49.46
209.064	-40.17
209.284	-29.24
209.504	-29.43
209.724	-38.77
209.944	-47.65
210.164	-34.3
210.384	-82.01
210.604	-143.08
210.823	-129.96
211.043	-106.36
211.263	-243.83
211.483	-139.53
211.703	-100.6
211.922	-137.1
212.142	-100.43
212.362	-56.71
212.582	-37.31
212.801	-26.09
213.021	-30.29
213.241	-33.52
213.461	-19.25
213.68	-34.74
213.9	-25.45
214.12	-20.95
214.339	-26.05
214.559	-25.24
214.779	-12.97
214.998	-18.85
215.218	-7.34
215.438	-7.85
215.657	-25.3
215.877	-47.81
216.096	-31.33
216.316	-43.7
216.535	-54.89
216.755	-53.03
216.974	-62.85
217.194	-79.18
217.413	-62.12
217.633	-65.73
217.852	-44.39
218.072	-20.15
218.291	-24.49
218.511	-44.11
218.73	-65.68
218.95	-108.38
219.169	-135.91
219.389	-101.33
219.608	-89.88
219.827	-56.98
220.047	-41.02
220.266	-63.13
220.485	-100.41
220.705	-98.9
220.924	-120.21
221.143	-63.07
221.363	-39.03
221.582	-29.77
221.801	-20.21
222.021	-8.95
222.24	-12.09
222.459	-1.96
222.678	19.2
222.897	12
223.117	7.16
223.336	-4.82
223.555	-0.8
223.774	-42.32
223.993	-30.6
224.213	-14.6
224.432	-22.03
224.651	-15.75
224.87	-12.44
225.089	-4.29
225.308	1.73
225.527	-8.57
225.746	-11.06
225.965	-19.1
226.184	-41.01
226.404	-60.2
226.623	-34.25
226.842	-30.34
227.061	-26.3
227.28	-3.46
227.499	1.04
227.718	0.08
227.936	-15.11
228.155	-25.02
228.374	-37.34
228.593	-28.17
228.812	-32.21
229.031	-15.13
229.25	-16.6
229.469	-25.81
229.688	-47.28
229.907	-25.28
230.125	-21.94
230.344	-12.57
230.563	-0.19
230.782	8.77
231.001	1.02
231.22	3.22
231.438	5.98
231.657	-1.57
231.876	-1.93
232.095	-4.13
232.313	-28.99
232.532	-32.38
232.751	-55.46
232.969	-52.7
233.188	-64.41
233.407	-36.92
233.625	-29.49
233.844	-16.2
234.063	-6.62
234.281	5.29
234.5	-2.37
234.719	-9.99
234.937	-40.66
235.156	-63.64
235.374	-73.26
235.593	-64.33
235.811	-53.7
236.03	-17.03
236.249	-9.57
236.467	-9.3
236.686	-28
236.904	-19.53
237.123	-28.43
237.341	-47.9
237.559	-84.93
237.778	-43.4
237.996	-96.89
238.215	-163.64
238.433	-184.56
238.652	-53.53
238.87	-81.81
239.088	-81.19
239.307	-35.63
239.525	-38.24
239.743	-64.74
239.962	-83.86
240.18	-38.6
240.398	-56.24
240.617	-54.42
240.835	-62.75
241.053	-30.12
241.271	-38.97
241.49	-9.45
241.708	-11.48
241.926	-15
242.144	-20.34
242.363	-39.28
242.581	-127.25
242.799	-131.89
243.017	-69.76
243.235	-55.68
243.453	-69.74
243.672	-27.26
243.89	-30.85
244.108	-20.74
244.326	-0.86
244.544	8.66
244.762	-7.39
244.98	-3.66
245.198	-12.8
245.416	-27.65
245.634	-27.26
245.852	-40.49
246.07	-18.28
246.288	-18.98
246.506	-20.18
246.724	-32.29
246.942	-22.27
247.16	-30.49
247.378	-73.55
247.596	-71.69
247.814	-93.36
248.032	-87.62
248.25	-35.9
248.468	2.83
248.685	7.09
248.903	4.39
249.121	11.8
249.339	3.56
249.557	4.1
249.775	8.83
249.992	14.61
250.21	-5.9
250.428	-3.48
250.646	-8.14
250.863	-30.84
251.081	-27.26
251.299	-8.24
251.517	-22.06
251.734	-18.39
251.952	-16.29
252.17	-16.56
252.387	-35.46
252.605	-23.93
252.823	-42.55
253.04	-9.41
253.258	-16.77
253.475	-2.3
253.693	-5.81
253.911	-4.68
254.128	-22.93
254.346	-13.77
254.563	1.23
254.781	-17.26
254.998	-15.61
255.216	-48.8
255.433	-80.51
255.651	-107.6
255.868	-82.54
256.086	-70.8
256.303	-42.09
256.521	-27.46
256.738	-30.07
256.956	-31.78
257.173	-51.1
257.39	-41.85
257.608	-65.68
257.825	-61.75
258.043	-55.45
258.26	-44.63
258.477	-41
258.695	-17.53
258.912	-33.57
259.129	-44.76
259.346	-58.66
259.564	-77.02
259.781	-86.02
259.998	-38.77
260.216	-9.65
260.433	-7.64
260.65	-10.53
260.867	-9.95
261.084	-8.27
261.302	-28.63
261.519	-11.75
261.736	-9.12
261.953	-12.74
262.17	-3.41
262.387	-5.79
262.604	-2.25
262.822	7.42
263.039	18.19
263.256	12.84
263.473	18.73
263.69	9.85
263.907	5.09
264.124	-8.93
264.341	-6.7
264.558	-10.98
264.775	-2.22
264.992	6.43
265.209	-12.51
265.426	-30.41
265.643	-31.36
265.86	-70.9
266.077	-100.11
266.294	-70.81
266.51	-34.49
266.727	-44.43
266.944	-25.97
267.161	-20
267.378	-16.16
267.595	-43.69
267.812	-62.87
268.028	-98.61
268.245	-93.41
268.462	-71.39
268.679	-35.13
268.896	-7.83
269.112	0.62
269.329	-26.4
269.546	-8.74
269.763	-28.3
269.979	-38.93
270.196	-19.49
270.413	-10.66
270.629	-46.88
270.846	-53.03
271.063	-44.66
271.279	-44.85
271.496	-41.8
271.712	-14.05
271.929	-7.72
272.146	-5.85
272.362	-21.85
272.579	-24.17
272.795	-37.6
273.012	-57
273.228	-44.3
273.445	-31.62
273.661	-45.48
273.878	-66.89
274.094	-52.43
274.311	-66.8
274.527	-99.34
274.744	-65.75
274.96	-37.61
275.177	-27.02
275.393	-5.67
275.609	-1.49
275.826	-2.58
276.042	1.97
276.259	-5.89
276.475	-31.17
276.691	-33.29
276.908	-43.79
277.124	-52.38
277.34	-53.23
277.557	-35.85
277.773	-31.47
277.989	-18.11
278.205	-13.33
278.422	-9.88
278.638	0.45
278.854	16.07
279.07	7.41
279.286	4.52
279.503	12.96
279.719	5.76
279.935	-8.02
280.151	-16.21
280.367	-20.28
280.583	-38.89
280.799	-42.63
281.016	-96.45
281.232	-86.34
281.448	-60.4
281.664	-41.19
281.88	-39.26
282.096	-13.71
282.312	-9.36
282.528	-21.64
282.744	-40
282.96	-50.84
283.176	-58.19
283.392	-76.57
283.608	-61.91
283.824	-83.28
284.04	-138.66
284.256	-99.15
284.471	-65.26
284.687	-67.75
284.903	-44.26
285.119	-28.44
285.335	-15.2
285.551	-31.47
285.767	-37.69
285.982	-41.81
286.198	-56.72
286.414	-37.18
286.63	-23.5
286.846	-25.9
287.061	-35.85
287.277	-5.88
287.493	-50.22
287.709	-41.55
287.924	-13.57
288.14	-2.72
288.356	6.1
288.571	12.11
288.787	-7.67
289.003	-17.86
289.218	-39.83
289.434	-53.37
289.65	-22.3
289.865	-12.4
290.081	-8.7
290.296	-0.3
290.512	-3.27
290.727	-29.97
290.943	-20.71
291.159	-22.72
291.374	-42.47
291.59	-33.39
291.805	-37.89
292.021	-45.35
292.236	-61.18
292.451	-37.67
292.667	-40.38
292.882	-17.86
293.098	-7.06
293.313	-1.34
293.529	-6.86
293.744	-25.36
293.959	-34.73
294.175	-51.53
294.39	-64.36
294.605	-34.32
294.821	-24.8
295.036	-27.99
295.251	-19.15
295.467	-30.07
295.682	-46.81
295.897	-75.06
296.112	-69.31
296.328	-50.75
296.543	-56.29
296.758	-58.82
296.973	-38.44
297.188	-44.14
297.404	-95.25
297.619	-117.14
297.834	-132.77
298.049	-102.69
298.264	-68.88
298.479	-45.1
298.694	5.32
298.909	0.99
299.125	-6.06
299.34	-12.32
299.555	-13.83
299.77	-12.49
299.985	-2.56
300.2	-0.4
300.415	-2.97
300.63	-4.52
300.845	-16.3
301.06	-8.99
301.275	1.26
301.49	7.27
301.704	5.67
301.919	-9.42
302.134	-12.4
302.349	-25.87
302.564	-38.97
302.779	-51.52
302.994	-2.8
303.209	-9.35
303.423	-12.46
303.638	1.45
303.853	-1.91
304.068	-52.58
304.283	-39.08
304.497	-38
304.712	-25.81
304.927	-22
305.142	-12.47
305.356	-5.75
305.571	-12.68
305.786	-26.73
306	-28.56
306.215	-25.66
306.43	-54.17
306.644	-50.16
306.859	-55.7
307.074	-35.18
307.288	-27.6
307.503	8.93
307.717	9.39
307.932	11.69
308.147	0.88
308.361	2.19
308.576	-29.69
308.79	-27.13
309.005	-49.27
309.219	-20.47
309.434	-7.11
309.648	-12.61
309.863	-4.29
310.077	-4.27
310.292	-13.14
310.506	-47.39
310.72	-36.96
310.935	-16.21
311.149	-5.19
311.364	-28.17
311.578	-19.38
311.792	-17.72
312.007	-64.58
312.221	-91.88
312.435	-39.96
312.649	-37.33
312.864	-25.45
313.078	-22.36
313.292	-17.37
313.507	-31.96
313.721	-18.98
313.935	-40.7
314.149	-39.55
314.363	-27.71
314.578	-20.51
314.792	-64.75
315.006	-60.37
315.22	-42.6
315.434	-51.2
315.648	-49.35
315.862	-32.78
316.077	-29.29
316.291	-23.66
316.505	-41.88
316.719	-30.46
316.933	-30.24
317.147	-23.76
317.361	-30.12
317.575	-14.21
317.789	-18.32
318.003	-12.7
318.217	-16.62
318.431	-27.17
318.645	-28.07
318.859	-21.6
319.073	-21.26
319.287	-15.41
319.5	-12.61
319.714	-25.61
319.928	-37
320.142	-45.22
320.356	-54.63
320.57	-67.79
320.784	-39.4
320.997	-55.56
321.211	-19.44
321.425	-20.89
321.639	-3.67
321.853	3.84
322.066	-5.05
322.28	-38.93
322.494	-21.51
322.707	-33.02
322.921	-59.84
323.135	-44.36
323.349	-36.42
323.562	-47.55
323.776	-45.57
323.989	-27.7
324.203	-32.29
324.417	-27.28
324.63	-43.36
324.844	-50.38
325.057	-98.83
325.271	-92.45
325.485	-100.29
325.698	-47.08
325.912	-33.03
326.125	-22.52
326.339	-12.36
326.552	-17.47
326.766	-40.58
326.979	-24.75
327.193	-23.93
327.406	-50.73
327.619	-40.1
327.833	-41.88
328.046	-52.23
328.26	-44.92
328.473	-21.82
328.686	-32.9
328.9	-19.72
329.113	-29.02
329.326	-31.62
329.54	-30.49
329.753	-11.52
329.966	-12.71
330.179	-15.91
330.393	-22.68
330.606	-32.51
330.819	-51.25
331.032	-54.49
331.246	-28.29
331.459	-13.99
331.672	-17.91
331.885	-14.5
332.098	-13.53
332.311	-22.21
332.525	-21.29
332.738	-15.95
332.951	-16.45
333.164	-9.3
333.377	-5.7
333.59	-8.99
333.803	-16.51
334.016	-9.69
334.229	-21.87
334.442	-31.61
334.655	-22.95
334.868	-22.28
335.081	-30.79
335.294	-53.19
335.507	-54.39
335.72	-54.08
335.933	-52
336.146	-57.46
336.359	-25.66
336.572	-24.17
336.785	-36.65
336.997	-59.85
337.21	-49.86
337.423	-91.54
337.636	-74.75
337.849	-56.39
338.062	-18.75
338.274	-15.75
338.487	-23.02
338.7	-40.58
338.913	-35.81
339.125	-83.05
339.338	-74.33
339.551	-54.32
339.763	-38.23
339.976	-49.73
340.189	-32.05
340.402	-10.83
340.614	-5.67
340.827	-7.02
341.039	-9.84
341.252	-10.05
341.465	-34.68
341.677	-39.83
341.89	-40.79
342.102	-24.91
342.315	-28.68
342.527	-12.25
342.74	-19.8
342.952	-31.66
343.165	-42.59
343.377	-40.35
343.59	-48.61
343.802	-37.35
344.015	-19.1
344.227	-16.9
344.44	-24.79
344.652	-25.49
344.864	-18.61
345.077	-20.95
345.289	-14.65
345.502	-12.88
345.714	-20.36
345.926	-29.59
346.139	-48.45
346.351	-50.16
346.563	-39.44
346.775	-29.12
346.988	-19.03
347.2	-21.84
347.412	-11.92
347.624	-10.22
347.837	-5.91
348.049	-14.21
348.261	-11.74
348.473	-24.8
348.685	-17.77
348.897	-31.95
349.11	-31.43
349.322	-25.24
349.534	-23.89
349.746	-30.29
349.958	-42.26
350.17	-52.82
350.382	-48.77
350.594	-30.8
350.806	-19.88
351.018	1.85
351.23	11.62
351.442	9.82
351.654	12.11
351.866	5.79
352.078	3.33
352.29	0.08
352.502	2.42
352.714	-18.1
352.926	-20.1
353.138	-11.07
353.35	-21.95
353.561	-13.88
353.773	-13.8
353.985	-1
354.197	-5
354.409	-2.55
354.621	-25.82
354.832	-31.77
355.044	-70.16
355.256	-82.63
355.468	-95.13
355.679	-49.85
355.891	-39.06
356.103	-19.72
356.314	-15.92
356.526	-29.5
356.738	-43.61
356.949	-40.15
357.161	-23.32
357.373	-24.12
357.584	-17.99
357.796	-16.09
358.008	-21.25
358.219	-26.74
358.431	-31.27
358.642	-12.96
358.854	-8.2
359.065	-6.15
359.277	-5.95
359.488	-10
359.7	-19.85
359.911	-26.1
360.123	-17.47
360.334	-42.47
360.546	-41.79
360.757	-37.14
360.969	-35.24
361.18	-45.31
361.391	-22.61
361.603	-11.04
361.814	-5.78
362.025	0.8
362.237	4.57
362.448	6.41
362.659	-2.46
362.871	-30.57
363.082	-44.67
363.293	-53.5
363.504	-71.41
363.716	-78.11
363.927	-26.47
364.138	-44.16
364.349	-72.29
364.56	-97.16
364.772	-71.19
364.983	-63.25
365.194	-40.93
365.405	-19.34
365.616	2.81
365.827	-14.17
366.038	-10.64
366.25	-1.13
366.461	0.07
366.672	-6.54
366.883	-4.1
367.094	-19.5
367.305	-42.52
367.516	-37.73
367.727	-51.96
367.938	-51.38
368.149	-70.64
368.36	-61.1
368.571	-94.69
368.781	-96.78
368.992	-83.65
369.203	-48.39
369.414	-59.15
369.625	-50.73
369.836	-9.76
370.047	-5.97
370.258	-23.54
370.468	-18.01
370.679	-13.01
370.89	-44.86
371.101	-33.2
371.312	-37.98
371.522	-40.57
371.733	-41.98
371.944	-48.68
372.155	-62.4
372.365	-49.74
372.576	-46
372.787	-28.83
372.997	-24.54
373.208	-18.4
373.419	-27.99
373.629	-29.49
373.84	-49.16
374.05	-52.13
374.261	-56.83
374.472	-45.87
374.682	-47.03
374.893	-44.54
375.103	-30.86
375.314	-30.88
375.524	-33.51
375.735	-26.38
375.945	-15.79
376.156	-28.21
376.366	-42.07
376.577	-26.81
376.787	-25.79
376.997	-21.56
377.208	-12.37
377.418	-2.09
377.629	-6.7
377.839	-3.03
378.049	-9.09
378.26	-14.42
378.47	-20.17
378.68	-17.84
378.89	-27.34
379.101	-32.77
379.311	-29.57
379.521	-32.4
379.732	-28.44
379.942	-29.83
380.152	-30.61
380.362	-30.53
380.572	-19.94
380.783	-19.4
380.993	-12.15
381.203	-15.89
381.413	-16.48
381.623	-15.13
381.833	-20.65
382.043	-26.45
382.253	-14.44
382.463	-6.96
382.674	-7.1
382.884	-0.53
383.094	-6.13
383.304	-8.22
383.514	-4
383.724	-12.26
383.934	-24.43
384.144	-11.89
384.353	-11.25
384.563	-11.53
384.773	1.46
384.983	3.82
385.193	-2.26
385.403	-6.08
385.613	-17.97
385.823	-26.36
386.033	-21.21
386.242	-18.7
386.452	-23.42
386.662	-21.89
386.872	-19.63
387.082	-27.16
387.291	-34.09
387.501	-23.84
387.711	-19.25
387.921	-18.59
388.13	-9.21
388.34	-2.29
388.55	-5.43
388.759	-9.42
388.969	-9.66
389.179	-12.45
389.388	-13.49
389.598	-17.02
389.807	-17.04
390.017	-13.33
390.227	-14.3
390.436	-11.79
390.646	-10.14
390.855	-6.21
391.065	-7.15
391.274	-5.58
391.484	-8.59
391.693	-10.15
391.903	-9.14
392.112	-9
392.322	-8.93
392.531	-6.68
392.74	-4.43
392.95	-5.04
393.159	-5.45
393.369	-4.48
393.578	-3.54
393.787	-1.53
393.997	-0.15
394.206	-0.02
394.415	0.51
394.625	-0.36
394.834	-2.66
395.043	-3.89
395.252	-1.68
395.462	-1.62
395.671	-1.08
395.88	2.08
396.089	2.86
396.298	2.15
396.508	2.78
396.717	3.46
396.926	2.09
397.135	2.78
397.344	2.42
397.553	1.99
397.762	2.42
397.971	2.44
398.181	2.13
398.39	2.13
398.599	2.58
398.808	1.58
399.017	2.53
399.226	2.16
399.435	2.61
399.644	3.34
399.853	4.1
400.062	3.4
400.27	3.43
400.479	3.15
400.688	2.43
400.897	2.11
401.106	2.32
401.315	2.36
401.524	2.62
401.733	2.54
401.941	2.78
402.15	2.7
402.359	2.99
402.568	3.11
402.777	3.32
402.985	3.06
403.194	3.36
403.403	3.43
403.612	3.2
403.82	2.84
404.029	3.12
404.238	3.06
404.446	2.92
404.655	2.94
404.864	3.32
405.072	3.37
405.281	3.27
405.489	3.4
405.698	3.57
405.906	3.46
406.115	3.35
406.324	3.41
406.532	3.31
406.741	3.19
406.949	3.24
407.158	3.37
407.366	3.38
407.574	3.53
407.783	3.67
407.991	3.62
408.2	3.75
408.408	3.71
408.617	3.57
408.825	3.41
409.033	3.39
409.242	3.29
409.45	3.36
409.658	3.38
409.867	3.35
410.075	3.38
410.283	3.27
410.491	3.06
410.7	2.99
410.908	3.1
411.116	3.18
411.324	3.09
411.533	3.13
411.741	3.17
411.949	3.15
412.157	3.02
412.365	3.07
412.573	3.13
412.781	3.15
412.99	3.13
413.198	3.22
413.406	3.36
413.614	3.36
413.822	3.36
414.03	3.48
414.238	3.49
414.446	3.42
414.654	3.38
414.862	3.21
415.07	3.03
415.278	3.1
415.486	2.87
415.694	2.96
415.902	3.02
416.109	3.12
416.317	2.98
416.525	3.06
416.733	2.93
416.941	2.99
417.149	2.9
417.357	2.96
417.564	3.01
417.772	3.06
417.98	2.95
418.188	2.84
418.395	2.53
418.603	2.47
418.811	2.48
419.019	2.57
419.226	2.65
419.434	2.82
419.642	2.68
419.849	2.63
420.057	2.56
420.265	2.59
420.472	2.58
420.68	2.85
420.887	2.87
421.095	2.97
421.302	3.05
421.51	3.11
421.717	3
421.925	3.04
422.132	2.99
422.34	2.81
422.547	2.71
422.755	2.79
422.962	2.77
423.17	2.59
423.377	2.55
423.585	2.57
423.792	2.41
423.999	2.4
424.207	2.46
424.414	2.49
424.621	2.64
424.829	2.83
425.036	2.84
425.243	3
425.451	3.16
425.658	3.03
425.865	2.95
426.072	2.98
426.28	2.94
426.487	2.79
426.694	2.83
426.901	2.93
427.108	2.85
427.315	2.74
427.523	2.77
427.73	2.75
427.937	2.55
428.144	2.51
428.351	2.53
428.558	2.54
428.765	2.55
428.972	2.61
429.179	2.61
429.386	2.78
429.593	2.72
429.8	2.7
430.007	2.78
430.214	2.8
430.421	2.8
430.628	2.88
430.835	2.76
431.042	2.7
431.249	2.76
431.456	2.72
431.662	2.91
431.869	3.2
432.076	3.3
432.283	3.51
432.49	3.49
432.697	3.4
432.903	3.27
433.11	3.41
433.317	3.32
433.524	3.36
433.73	3.39
433.937	3.54
434.144	3.3
434.35	3.2
434.557	3.23
434.764	3.22
434.97	3.02
435.177	3.19
435.384	3.3
435.59	3.35
435.797	3.48
436.003	3.71
436.21	3.59
436.416	3.59
436.623	3.6
436.829	3.46
437.036	3.32
437.242	3.47
437.449	3.47
437.655	3.51
437.862	3.5
438.068	3.56
438.275	3.61
438.481	3.71
438.687	3.69
438.894	3.88
439.1	3.83
439.307	3.85
439.513	3.76
439.719	3.77
439.926	3.79
440.132	3.93
440.338	3.8
440.544	3.84
440.751	3.82
440.957	3.78
441.163	3.66
441.369	3.8
441.575	3.72
441.782	3.79
441.988	3.77
442.194	3.89
442.4	3.8
442.606	3.95
442.812	3.99
443.018	3.96
443.224	4.07
443.431	4.14
443.637	4.13
443.843	4.11
444.049	4.18
444.255	4.05
444.461	3.94
444.667	3.96
444.873	3.98
445.079	4.03
445.284	3.99
445.49	4.07
445.696	4
445.902	3.97
446.108	3.98
446.314	4.03
446.52	4.07
446.726	4.18
446.931	4.12
447.137	4.09
447.343	4.22
447.549	4.22
447.755	4.14
447.96	4.21
448.166	4.16
448.372	4.12
448.578	4.04
448.783	4.04
448.989	4.11
449.195	4.13
449.4	4.07
449.606	4.15
449.812	4.09
450.017	4.07
450.223	4.07
450.428	4.15
450.634	4.08
450.84	4.14
451.045	4.17
451.251	4.21
451.456	4.16
451.662	4.25
451.867	4.32
452.073	4.34
452.278	4.3
452.483	4.39
452.689	4.46
452.894	4.52
453.1	4.5
453.305	4.61
453.51	4.59
453.716	4.5
453.921	4.42
454.127	4.41
454.332	4.38
454.537	4.3
454.742	4.32
454.948	4.4
455.153	4.46
455.358	4.46
455.563	4.65
455.769	4.7
455.974	4.68
456.179	4.65
456.384	4.58
456.589	4.45
456.795	4.45
457	4.52
457.205	4.45
457.41	4.45
457.615	4.41
457.82	4.57
458.025	4.56
458.23	4.59
458.435	4.68
458.64	4.78
458.845	4.71
459.05	4.72
459.255	4.79
459.46	4.84
459.665	4.79
459.87	4.75
460.075	4.78
460.28	4.8
460.485	4.86
460.69	4.81
460.895	4.84
461.099	4.68
461.304	4.61
461.509	4.56
461.714	4.69
461.919	4.7
462.123	4.86
462.328	4.76
462.533	4.72
462.738	4.66
462.942	4.6
463.147	4.51
463.352	4.68
463.556	4.77
463.761	4.78
463.966	4.77
464.17	4.92
464.375	5
464.58	4.96
464.784	5.03
464.989	5.06
465.193	5.05
465.398	5
465.602	5.17
465.807	5.2
466.011	5.23
466.216	5.22
466.42	5.2
466.625	5.11
466.829	5.1
467.034	5.25
467.238	5.3
467.443	5.4
467.647	5.42
467.851	5.47
468.056	5.44
468.26	5.44
468.464	5.4
468.669	5.49
468.873	5.48
469.077	5.38
469.282	5.37
469.486	5.29
469.69	5.24
469.894	5.17
470.099	5.22
470.303	5.23
470.507	5.33
470.711	5.34
470.915	5.49
471.119	5.55
471.324	5.62
471.528	5.61
471.732	5.64
471.936	5.56
472.14	5.53
472.344	5.56
472.548	5.58
472.752	5.59
472.956	5.66
473.16	5.68
473.364	5.66
473.568	5.62
473.772	5.59
473.976	5.62
474.18	5.69
474.384	5.63
474.588	5.66
474.792	5.66
474.995	5.61
475.199	5.59
475.403	5.68
475.607	5.7
475.811	5.71
476.015	5.7
476.218	5.58
476.422	5.59
476.626	5.69
476.83	5.76
477.033	5.82
477.237	5.89
477.441	5.88
477.644	5.79
477.848	5.73
478.052	5.71
478.255	5.77
478.459	5.72
478.663	5.77
478.866	5.81
479.07	5.75
479.273	5.76
479.477	5.77
479.681	5.84
479.884	5.78
480.088	5.82
480.291	5.84
480.495	5.9
480.698	5.78
480.901	5.81
481.105	5.89
481.308	5.88
481.512	5.83
481.715	5.98
481.919	6.13
482.122	6.09
482.325	6.12
482.529	6.21
482.732	6.1
482.935	5.98
483.138	5.97
483.342	5.91
483.545	5.94
483.748	6.03
483.952	6.07
484.155	6.07
484.358	6.11
484.561	6.02
484.764	5.94
484.967	5.92
485.171	5.98
485.374	5.9
485.577	6.01
485.78	5.99
485.983	5.96
486.186	5.97
486.389	6.07
486.592	5.98
486.795	6.02
486.998	6.05
487.201	6.02
487.404	6.08
487.607	6.17
487.81	6.15
488.013	6.23
488.216	6.23
488.419	6.09
488.622	6.04
488.825	6.06
489.028	6.01
489.231	6.01
489.433	6.06
489.636	6.03
489.839	6.07
490.042	6.03
490.245	6.04
490.447	5.99
490.65	5.98
490.853	6
491.056	6
491.258	6.01
491.461	6.05
491.664	6.05
491.866	5.93
492.069	5.97
492.272	5.9
492.474	5.86
492.677	5.94
492.879	5.96
493.082	5.97
493.285	6.13
493.487	6.17
493.69	6.05
493.892	6.04
494.095	6.03
494.297	5.96
494.5	5.96
494.702	5.97
494.905	6.06
495.107	6.02
495.309	6
495.512	5.96
495.714	6
495.917	5.96
496.119	5.99
496.321	5.95
496.524	5.97
496.726	5.97
496.928	5.92
497.13	5.87
497.333	5.84
497.535	5.89
497.737	5.9
497.939	5.94
498.142	5.93
498.344	5.94
498.546	5.9
498.748	5.92
498.95	5.97
499.152	6.01
499.355	5.99
499.557	6.04
499.759	6.08
499.961	6.02
500.163	6.01
500.365	6.08
500.567	5.97
500.769	5.92
500.971	5.91
501.173	5.83
501.375	5.84
501.577	5.86
501.779	5.8
501.981	5.81
502.183	5.85
502.385	5.85
502.587	5.91
502.788	5.89
502.99	5.9
503.192	6.03
503.394	6.04
503.596	5.95
503.798	5.97
503.999	5.96
504.201	5.81
504.403	5.79
504.605	5.89
504.806	5.88
505.008	5.89
505.21	5.96
505.411	5.97
505.613	5.98
505.815	6.01
506.016	6.07
506.218	6.09
506.42	6.1
506.621	6.1
506.823	6.14
507.024	6.1
507.226	6.07
507.427	6.08
507.629	6.04
507.83	6.04
508.032	6.02
508.233	6.01
508.435	6.04
508.636	6.08
508.838	6.09
509.039	6.13
509.24	6.13
509.442	6.08
509.643	6.05
509.845	6
510.046	6.04
510.247	6.07
510.448	6.16
510.65	6.17
510.851	6.18
511.052	6.12
511.254	6.21
511.455	6.15
511.656	6.09
511.857	6.1
512.058	6.15
512.26	6.01
512.461	6
512.662	6.1
512.863	6.04
513.064	6.04
513.265	5.99
513.466	6.02
513.667	6.01
513.868	6.03
514.069	5.93
514.27	6.02
514.471	5.93
514.672	5.91
514.873	5.92
515.074	5.98
515.275	5.91
515.476	6.03
515.677	6.05
515.878	6.06
516.079	6.05
516.28	6.07
516.481	6.06
516.682	6.06
516.882	6.02
517.083	6.04
517.284	6.09
517.485	6.09
517.686	6.09
517.886	6.08
518.087	6.06
518.288	6.03
518.488	6
518.689	6
518.89	6.05
519.091	6.14
519.291	6.17
519.492	6.21
519.692	6.15
519.893	6.17
520.094	6.08
520.294	6.08
520.495	6.02
520.695	6.12
520.896	6.09
521.096	6.14
521.297	6.13
521.497	6.14
521.698	6.13
521.898	6.12
522.099	6.16
522.299	6.14
522.499	6.16
522.7	6.13
522.9	6.14
523.101	6.13
523.301	6.14
523.501	6.15
523.702	6.15
523.902	6.19
524.102	6.22
524.302	6.25
524.503	6.22
524.703	6.21
524.903	6.18
525.103	6.16
525.304	6.15
525.504	6.25
525.704	6.28
525.904	6.25
526.104	6.24
526.304	6.27
526.504	6.22
526.705	6.2
526.905	6.22
527.105	6.26
527.305	6.2
527.505	6.11
527.705	6.07
527.905	6.14
528.105	6.1
528.305	6.16
528.505	6.22
528.705	6.31
528.905	6.25
529.105	6.24
529.304	6.21
529.504	6.27
529.704	6.22
529.904	6.23
530.104	6.26
530.304	6.28
530.503	6.26
530.703	6.24
530.903	6.28
531.103	6.27
531.303	6.26
531.502	6.29
531.702	6.32
531.902	6.36
532.101	6.36
532.301	6.39
532.501	6.42
532.7	6.44
532.9	6.4
533.1	6.39
533.299	6.37
533.499	6.32
533.698	6.28
533.898	6.28
534.097	6.29
534.297	6.31
534.496	6.27
534.696	6.33
534.895	6.36
535.095	6.38
535.294	6.41
535.494	6.46
535.693	6.5
535.892	6.5
536.092	6.5
536.291	6.45
536.491	6.46
536.69	6.38
536.889	6.33
537.088	6.35
537.288	6.33
537.487	6.31
537.686	6.33
537.886	6.37
538.085	6.32
538.284	6.37
538.483	6.38
538.682	6.42
538.882	6.44
539.081	6.49
539.28	6.46
539.479	6.47
539.678	6.44
539.877	6.46
540.076	6.47
540.275	6.51
540.474	6.52
540.673	6.59
540.872	6.59
541.071	6.58
541.27	6.62
541.469	6.63
541.668	6.58
541.867	6.64
542.066	6.67
542.265	6.69
542.464	6.75
542.663	6.81
542.862	6.88
543.06	6.93
543.259	6.98
543.458	6.97
543.657	6.97
543.856	6.92
544.054	6.91
544.253	6.87
544.452	6.88
544.651	6.9
544.849	6.92
545.048	6.93
545.247	6.94
545.445	6.99
545.644	6.98
545.843	6.98
546.041	6.95
546.24	6.99
546.438	7.02
546.637	7.06
546.836	7.04
547.034	7.15
547.233	7.15
547.431	7.18
547.63	7.18
547.828	7.24
548.027	7.19
548.225	7.22
548.423	7.22
548.622	7.28
548.82	7.29
549.019	7.31
549.217	7.39
549.415	7.39
549.614	7.47
549.812	7.47
550.01	7.52
550.209	7.56
550.407	7.63
550.605	7.52
550.803	7.58
551.002	7.66
551.2	7.65
551.398	7.71
551.596	7.86
551.794	7.92
551.993	7.88
552.191	7.92
552.389	7.92
552.587	7.97
552.785	7.98
552.983	8.15
553.181	8.2
553.379	8.21
553.577	8.22
553.775	8.34
553.973	8.35
554.171	8.39
554.369	8.47
554.567	8.56
554.765	8.51
554.963	8.5
555.161	8.51
555.359	8.53
555.557	8.53
555.755	8.63
555.952	8.73
556.15	8.85
556.348	8.93
556.546	9.01
556.744	8.96
556.941	8.94
557.139	8.97
557.337	9.05
557.535	9.07
557.732	9.17
557.93	9.34
558.128	9.41
558.325	9.45
558.523	9.55
558.721	9.67
558.918	9.66
559.116	9.8
559.313	9.9
559.511	9.93
559.708	10.03
559.906	10.13
560.104	10.05
560.301	10.05
560.498	10.12
560.696	10.12
560.893	10.18
561.091	10.32
561.288	10.39
561.486	10.48
561.683	10.54
561.88	10.66
562.078	10.71
562.275	10.77
562.473	10.82
562.67	10.87
562.867	10.91
563.064	10.96
563.262	11.05
563.459	11.16
563.656	11.25
563.853	11.23
564.051	11.35
564.248	11.38
564.445	11.47
564.642	11.58
564.839	11.69
565.036	11.76
565.234	11.87
565.431	11.87
565.628	11.91
565.825	12.03
566.022	12.07
566.219	12.19
566.416	12.27
566.613	12.37
566.81	12.45
567.007	12.47
567.204	12.5
567.401	12.49
567.598	12.54
567.795	12.6
567.991	12.67
568.188	12.71
568.385	12.83
568.582	12.9
568.779	12.93
568.976	13.03
569.172	13.1
569.369	13.15
569.566	13.2
569.763	13.21
569.96	13.26
570.156	13.29
570.353	13.34
570.55	13.35
570.746	13.45
570.943	13.51
571.14	13.56
571.336	13.57
571.533	13.64
571.729	13.66
571.926	13.72
572.123	13.78
572.319	13.82
572.516	13.89
572.712	13.98
572.909	13.9
573.105	13.91
573.302	13.97
573.498	13.97
573.695	13.94
573.891	13.98
574.087	13.94
574.284	14
574.48	13.98
574.677	14.01
574.873	14.1
575.069	14.19
575.266	14.21
575.462	14.24
575.658	14.32
575.854	14.4
576.051	14.41
576.247	14.37
576.443	14.38
576.639	14.3
576.835	14.2
577.032	14.17
577.228	14.28
577.424	14.35
577.62	14.41
577.816	14.45
578.012	14.53
578.208	14.53
578.404	14.43
578.6	14.4
578.796	14.39
578.993	14.33
579.189	14.33
579.384	14.42
579.58	14.47
579.776	14.48
579.972	14.45
580.168	14.41
580.364	14.38
580.56	14.23
580.756	14.13
580.952	14.15
581.148	14.14
581.343	14.08
581.539	14.26
581.735	14.34
581.931	14.39
582.127	14.44
582.322	14.43
582.518	14.33
582.714	14.3
582.909	14.26
583.105	14.15
583.301	14.19
583.496	14.22
583.692	14.19
583.888	14.15
584.083	14.13
584.279	14.03
584.474	14.02
584.67	14.07
584.866	14.1
585.061	14.17
585.257	14.27
585.452	14.36
585.648	14.32
585.843	14.34
586.039	14.37
586.234	14.31
586.429	14.23
586.625	14.27
586.82	14.25
587.015	14.25
587.211	14.25
587.406	14.25
587.601	14.29
587.797	14.26
587.992	14.17
588.187	14.18
588.383	14.25
588.578	14.26
588.773	14.42
588.968	14.52
589.163	14.62
589.359	14.54
589.554	14.47
589.749	14.39
589.944	14.43
590.139	14.42
590.334	14.52
590.529	14.65
590.724	14.71
590.919	14.66
591.114	14.63
591.309	14.64
591.504	14.66
591.699	14.65
591.894	14.67
592.089	14.73
592.284	14.72
592.479	14.72
592.674	14.79
592.869	14.85
593.064	14.87
593.259	14.95
593.454	14.97
593.648	14.91
593.843	14.95
594.038	15.15
594.233	15.19
594.428	15.29
594.622	15.4
594.817	15.48
595.012	15.45
595.206	15.44
595.401	15.5
595.596	15.62
595.79	15.64
595.985	15.58
596.18	15.72
596.374	15.77
596.569	15.78
596.763	15.84
596.958	16.02
597.153	15.98
597.347	16.02
597.542	16.09
597.736	16.15
597.931	16.16
598.125	16.32
598.319	16.39
598.514	16.44
598.708	16.52
598.903	16.49
599.097	16.49
599.291	16.49
599.486	16.5
599.68	16.5
599.874	16.63
600.069	16.69
600.263	16.75
600.457	16.77
600.651	16.87
600.846	16.87
601.04	16.89
601.234	16.87
601.428	17.01
601.622	17.02
601.817	17.05
602.011	17.03
602.205	17.04
602.399	16.89
602.593	16.92
602.787	16.91
602.981	16.88
603.175	16.99
603.369	17
603.563	17.01
603.757	17.03
603.951	17.04
604.145	16.95
604.339	17.04
604.533	16.99
604.727	17
604.921	17.11
605.115	17.11
605.309	17.03
605.502	17.12
605.696	17.04
605.89	17
606.084	17.04
606.278	17.09
606.471	16.94
606.665	16.89
606.859	16.8
607.053	16.69
607.246	16.59
607.44	16.6
607.634	16.67
607.827	16.58
608.021	16.54
608.214	16.53
608.408	16.45
608.602	16.29
608.795	16.29
608.989	16.29
609.182	16.21
609.376	16.25
609.569	16.33
609.763	16.2
609.956	16.14
610.15	16.07
610.343	15.94
610.537	15.81
610.73	15.83
610.923	15.79
611.117	15.75
611.31	15.7
611.504	15.67
611.697	15.58
611.89	15.49
612.083	15.41
612.277	15.43
612.47	15.28
612.663	15.2
612.856	15.11
613.05	15.08
613.243	14.95
613.436	14.94
613.629	14.92
613.822	14.9
614.015	14.74
614.209	14.66
614.402	14.7
614.595	14.68
614.788	14.61
614.981	14.61
615.174	14.52
615.367	14.36
615.56	14.24
615.753	14.26
615.946	14.2
616.139	14.21
616.332	14.21
616.525	14.17
616.718	14.14
616.911	14.14
617.103	14.11
617.296	14.05
617.489	13.95
617.682	13.92
617.875	13.91
618.067	13.84
618.26	13.82
618.453	13.88
618.646	13.87
618.838	13.84
619.031	13.88
619.224	13.87
619.417	13.86
619.609	13.83
619.802	13.75
619.994	13.74
620.187	13.64
620.38	13.57
620.572	13.48
620.765	13.52
620.957	13.41
621.15	13.41
621.342	13.38
621.535	13.4
621.727	13.36
621.92	13.36
622.112	13.4
622.305	13.38
622.497	13.29
622.69	13.24
622.882	13.28
623.074	13.25
623.267	13.26
623.459	13.28
623.651	13.21
623.844	13.21
624.036	13.18
624.228	13.16
624.42	13.09
624.613	13.14
624.805	13.06
624.997	12.96
625.189	12.97
625.381	13.03
625.574	12.96
625.766	12.9
625.958	12.96
626.15	12.9
626.342	12.9
626.534	12.86
626.726	12.91
626.918	12.89
627.11	12.84
627.302	12.78
627.494	12.77
627.686	12.72
627.878	12.66
628.07	12.71
628.262	12.75
628.454	12.77
628.646	12.78
628.838	12.84
629.029	12.73
629.221	12.61
629.413	12.56
629.605	12.54
629.797	12.43
629.989	12.41
630.18	12.47
630.372	12.49
630.564	12.45
630.755	12.45
630.947	12.47
631.139	12.31
631.33	12.17
631.522	12.18
631.714	12.12
631.905	12.11
632.097	12.09
632.289	12.17
632.48	12.15
632.672	12.15
632.863	12.08
633.055	12.11
633.246	12.08
633.438	12.07
633.629	12.04
633.821	12.04
634.012	12.07
634.203	12.02
634.395	11.92
634.586	11.95
634.777	11.92
634.969	11.91
635.16	11.93
635.351	11.92
635.543	11.88
635.734	11.82
635.925	11.77
636.117	11.79
636.308	11.86
636.499	11.82
636.69	11.88
636.881	11.84
637.073	11.87
637.264	11.84
637.455	11.83
637.646	11.84
637.837	11.87
638.028	11.81
638.219	11.9
638.41	11.98
638.601	11.94
638.792	11.96
638.983	11.94
639.174	11.82
639.365	11.77
639.556	11.75
639.747	11.68
639.938	11.68
640.129	11.67
640.32	11.63
640.511	11.7
640.701	11.75
640.892	11.71
641.083	11.68
641.274	11.61
641.465	11.59
641.655	11.57
641.846	11.61
642.037	11.55
642.228	11.55
642.418	11.46
642.609	11.4
642.8	11.38
642.99	11.37
643.181	11.4
643.372	11.45
643.562	11.44
643.753	11.39
643.943	11.37
644.134	11.3
644.324	11.29
644.515	11.23
644.705	11.3
644.896	11.38
645.086	11.43
645.277	11.39
645.467	11.43
645.658	11.32
645.848	11.27
646.038	11.27
646.229	11.33
646.419	11.23
646.61	11.33
646.8	11.34
646.99	11.27
647.18	11.16
647.371	11.21
647.561	11.05
647.751	11.06
647.941	11.06
648.132	11.03
648.322	10.99
648.512	11.14
648.702	11.11
648.892	11.14
649.082	11.19
649.272	11.17
649.462	11.04
649.653	10.96
649.843	10.9
650.033	10.88
650.223	10.89
650.413	10.88
650.603	10.95
650.793	10.96
650.983	10.9
651.172	10.85
651.362	10.79
651.552	10.71
651.742	10.66
651.932	10.61
652.122	10.68
652.312	10.65
652.502	10.6
652.691	10.55
652.881	10.57
653.071	10.4
653.261	10.33
653.45	10.3
653.64	10.31
653.83	10.28
654.019	10.18
654.209	10.21
654.399	10.1
654.588	9.97
654.778	9.82
654.968	9.84
655.157	9.74
655.347	9.62
655.536	9.56
655.726	9.41
655.915	9.27
656.105	9.16
656.294	9.04
656.484	8.87
656.673	8.85
656.863	8.78
657.052	8.67
657.241	8.73
657.431	8.72
657.62	8.6
657.809	8.5
657.999	8.48
658.188	8.34
658.377	8.3
658.567	8.31
658.756	8.23
658.945	8.07
659.134	7.95
659.324	7.83
659.513	7.67
659.702	7.56
659.891	7.6
660.08	7.51
660.269	7.38
660.458	7.34
660.648	7.29
660.837	7.16
661.026	7.05
661.215	7.04
661.404	6.98
661.593	7.04
661.782	6.89
661.971	6.85
662.16	6.75
662.349	6.63
662.538	6.47
662.726	6.48
662.915	6.53
663.104	6.49
663.293	6.5
663.482	6.44
663.671	6.46
663.86	6.37
664.048	6.39
664.237	6.42
664.426	6.47
664.615	6.44
664.803	6.4
664.992	6.34
665.181	6.3
665.369	6.14
665.558	6.08
665.747	6.12
665.935	6.1
666.124	6.05
666.312	6.08
666.501	6.1
666.69	6.14
666.878	6.2
667.067	6.17
667.255	6.18
667.444	6.19
667.632	6.14
667.82	6.11
668.009	6.18
668.197	6.23
668.386	6.2
668.574	6.27
668.762	6.21
668.951	6.23
669.139	6.15
669.327	6.2
669.516	6.1
669.704	6.18
669.892	6.22
670.08	6.27
670.269	6.33
670.457	6.44
670.645	6.48
670.833	6.46
671.021	6.56
671.21	6.52
671.398	6.6
671.586	6.56
671.774	6.68
671.962	6.65
672.15	6.74
672.338	6.72
672.526	6.82
672.714	6.78
672.902	6.89
673.09	6.96
673.278	7.13
673.466	7.17
673.654	7.26
673.842	7.32
674.03	7.39
674.218	7.31
674.405	7.42
674.593	7.54
674.781	7.56
674.969	7.66
675.157	7.74
675.344	7.8
675.532	7.73
675.72	7.75
675.908	7.7
676.095	7.8
676.283	7.88
676.471	7.95
676.658	8.1
676.846	8.18
677.033	8.16
677.221	8.17
677.409	8.21
677.596	8.18
677.784	8.23
677.971	8.18
678.159	8.22
678.346	8.32
678.534	8.44
678.721	8.5
678.909	8.67
679.096	8.61
679.283	8.67
679.471	8.63
679.658	8.57
679.846	8.66
680.033	8.88
680.22	8.94
680.408	8.99
680.595	9.25
680.782	9.16
680.969	9.31
681.157	9.31
681.344	9.44
681.531	9.51
681.718	9.67
681.905	9.59
682.093	9.71
682.28	9.88
682.467	9.86
682.654	9.93
682.841	10.08
683.028	10.16
683.215	10.36
683.402	10.38
683.589	10.48
683.776	10.47
683.963	10.7
684.15	10.65
684.337	10.89
684.524	11.12
684.711	11.4
684.898	11.31
685.085	11.4
685.271	11.5
685.458	11.46
685.645	11.55
685.832	11.81
686.019	11.95
686.205	12.09
686.392	12.54
686.579	12.73
686.766	12.88
686.952	13.14
687.139	13.42
687.326	13.49
687.512	13.62
687.699	13.95
687.886	14.15
688.072	14.34
688.259	14.66
688.445	15.2
688.632	15.52
688.818	15.82
689.005	16.12
689.191	16.53
689.378	16.67
689.564	17.05
689.751	17.42
689.937	17.99
690.124	18.26
690.31	18.62
690.496	18.99
690.683	19.58
690.869	19.8
691.055	20.24
691.242	20.78
691.428	21.3
691.614	21.61
691.8	22.29
691.987	22.91
692.173	23.38
692.359	23.94
692.545	24.81
692.731	25.29
692.918	25.74
693.104	26.42
693.29	26.98
693.476	27.44
693.662	28.22
693.848	29
694.034	29.55
694.22	30.05
694.406	30.59
694.592	31.22
694.778	31.77
694.964	32.44
695.15	33.17
695.336	33.82
695.522	34.2
695.708	34.85
695.894	35.56
696.08	36.06
696.265	36.82
696.451	37.43
696.637	38.01
696.823	38.83
697.009	39.74
697.194	40.39
697.38	41.11
697.566	41.64
697.751	41.85
697.937	42.41
698.123	43.03
698.308	43.43
698.494	44.24
698.68	44.95
698.865	45.44
699.051	45.81
699.236	46.38
699.422	46.89
699.607	47.54
699.793	48.07
699.978	48.67
700.164	49.34
700.349	50
700.535	50.32
700.72	50.84
700.906	51.28
701.091	51.86
701.276	51.94
701.462	52.47
701.647	53.16
701.832	53.73
702.018	54.46
702.203	55.25
702.388	55.75
702.573	56.02
702.759	56.35
702.944	56.44
703.129	56.54
703.314	56.68
703.499	57.15
703.684	57.67
703.87	58.15
704.055	58.87
704.24	59.54
704.425	59.84
704.61	60.18
704.795	60.58
704.98	60.69
705.165	61.04
705.35	61.54
705.535	61.86
705.72	62.09
705.905	62.58
706.09	62.88
706.275	63.25
706.459	63.61
706.644	64.03
706.829	64.59
707.014	65.14
707.199	65.34
707.384	65.12
707.568	65.11
707.753	65.39
707.938	65.63
708.123	65.84
708.307	66.6
708.492	67.47
708.677	67.26
708.861	67.53
709.046	67.65
709.231	67.61
709.415	67.69
709.6	68.05
709.784	68.31
709.969	68.83
710.153	68.87
710.338	69.51
710.522	70.07
710.707	69.85
710.891	69.79
711.076	70.36
711.26	70.08
711.445	69.8
711.629	70.13
711.813	70.47
711.998	70.94
712.182	70.9
712.366	71.52
712.551	71.99
712.735	72.04
712.919	72.14
713.103	72.65
713.288	72.84
713.472	73.1
713.656	73.08
713.84	73.12
714.024	72.78
714.208	72.56
714.393	72.54
714.577	73.01
714.761	73.12
714.945	73.64
715.129	73.71
715.313	73.41
715.497	73.61
715.681	73.54
715.865	73.48
716.049	73.97
716.233	74.15
716.417	74.18
716.601	74.72
716.785	75.11
716.968	75.05
717.152	75.61
717.336	75.79
717.52	75.83
717.704	75.79
717.888	76.13
718.071	75.75
718.255	75.94
718.439	75.85
718.622	75.85
718.806	75.72
718.99	76.04
719.174	76.13
719.357	76.16
719.541	76.43
719.724	76.59
719.908	76.73
720.092	76.26
720.275	76.55
720.459	76.8
720.642	77.11
720.826	77.18
721.009	77.39
721.193	76.85
721.376	76.83
721.559	76.84
721.743	77.24
721.926	77.81
722.11	78.83
722.293	79.12
722.476	78.77
722.66	79.13
722.843	79.02
723.026	79.03
723.21	79.08
723.393	79.63
723.576	79.21
723.759	79.08
723.942	79.08
724.126	78.77
724.309	78.43
724.492	78.37
724.675	78.98
724.858	79.15
725.041	79.65
725.224	80.58
725.407	80.85
725.59	80.82
725.774	80.81
725.957	80.83
726.14	80.43
726.322	80.78
726.505	80.3
726.688	80.85
726.871	80.73
727.054	80.87
727.237	80.42
727.42	81.28
727.603	80.77
727.786	80.72
727.968	80.89
728.151	81.05
728.334	81.16
728.517	81.3
728.699	81.34
728.882	81.06
729.065	80.86
729.248	80.64
729.43	80.83
729.613	80.86
729.796	81.28
729.978	81.61
730.161	81.63
730.343	81.69
730.526	82.24
730.708	81.95
730.891	82.52
731.073	83.01
731.256	83.16
731.438	84.02
731.621	84.66
731.803	84.03
731.986	83.91
732.168	83.98
732.35	83.54
732.533	83.37
732.715	83.74
732.898	83.94
733.08	84.07
733.262	84.13
733.444	84.62
733.627	85.16
733.809	85.78
733.991	86.19
734.173	86.11
734.355	85.99
734.538	86.4
734.72	86
734.902	86.01
735.084	86.29
735.266	86.79
735.448	87.02
735.63	87.49
735.812	87.52
735.994	87.47
736.176	86.98
736.358	86.77
736.54	86.45
736.722	85.79
736.904	85.8
737.086	85.69
737.268	85.98
737.45	85.93
737.632	87.25
737.814	87.79
737.995	87.63
738.177	87.15
738.359	88.11
738.541	87.33
738.723	87.01
738.904	87.19
739.086	87.54
739.268	86.72
739.449	86.52
739.631	85.88
739.813	85.33
739.994	84.9
740.176	85.3
740.358	85.61
740.539	86.78
740.721	88.06
740.902	88.76
741.084	89.39
741.265	89.45
741.447	89.55
741.628	89.87
741.81	90.43
741.991	90.07
742.172	90.02
742.354	89.05
742.535	89.07
742.717	87.57
742.898	87.13
743.079	88
743.261	88.25
743.442	87.24
743.623	88.31
743.804	88.1
743.986	87.47
744.167	87.24
744.348	87.8
744.529	87.64
744.71	87.4
744.891	86.75
745.073	87.34
745.254	87.34
745.435	87.6
745.616	87.48
745.797	87.88
745.978	87.78
746.159	86.7
746.34	87.26
746.521	87.88
746.702	88.25
746.883	87.75
747.064	90.08
747.245	88.75
747.426	88.23
747.606	87.88
747.787	88.43
747.968	86.37
748.149	85.99
748.33	85.56
748.51	84.25
748.691	84.87
748.872	86.66
749.053	86.56
749.233	87.63
749.414	89.04
749.595	88.94
749.775	86.91
749.956	87.06
750.137	85.75
750.317	85.19
750.498	84.85
750.678	86.15
750.859	86.34
751.04	87.4
751.22	86.59
751.4	86.25
751.581	86.3
751.761	86.56
751.942	87.97
752.122	88.39
752.303	88.46
752.483	87.58
752.663	87.38
752.844	86.22
753.024	87.42
753.204	87.37
753.385	87.15
753.565	86.54
753.745	85.74
753.925	84.06
754.106	84.21
754.286	84.33
754.466	85.05
754.646	85.29
754.826	87.39
755.006	86.74
755.187	88.1
755.367	87.09
755.547	86.85
755.727	85.35
755.907	85.08
756.087	83.13
756.267	82.5
756.447	82.67
756.627	83.58
756.807	85.35
756.987	85.55
757.167	86.61
757.346	86.49
757.526	86.56
757.706	84.15
757.886	84.9
758.066	87.1
758.246	85.85
758.425	85
758.605	84.95
758.785	84.93
758.965	83.87
759.144	83.58
759.324	85.24
759.504	86.92
759.683	85.31
759.863	84.63
760.043	85.09
760.222	83.96
760.402	81.27
760.581	83.4
760.761	83.26
760.94	84.25
761.12	83.05
761.299	85.32
761.479	85.61
761.658	86.15
761.838	86.56
762.017	86.97
762.197	85.73
762.376	84.14
762.555	84.34
762.735	84.97
762.914	84.72
763.093	85.95
763.273	86.55
763.452	85.13
763.631	83.58
763.81	85.01
763.99	83.76
764.169	83.76
764.348	84.84
764.527	85.29
764.706	83.92
764.885	84.74
765.064	85.36
765.243	84.08
765.423	83.17
765.602	83.21
765.781	80.25
765.96	80.14
766.139	79.88
766.318	81.43
766.497	79.54
766.676	81.37
766.854	81.29
767.033	82.75
767.212	82.81
767.391	85.55
767.57	87.82
767.749	86.15
767.928	85.64
768.106	83.73
768.285	82.9
768.464	81.61
768.643	80.61
768.821	78.39
769	79.73
769.179	78.86
769.357	79.4
769.536	79.67
769.715	80.57
769.893	81.35
770.072	81.35
770.25	80.07
770.429	80.65
770.607	81.84
770.786	80.51
770.964	82.33
771.143	83.13
771.321	82.23
771.5	80.68
771.678	79.43
771.857	76.47
772.035	77.07
772.213	78.54
772.392	78.72
772.57	79.34
772.748	79.42
772.927	78.55
773.105	78.43
773.283	80.36
773.461	81.54
773.64	82.52
773.818	82.36
773.996	83.54
774.174	81.63
774.352	80.08
774.531	80.85
774.709	82
774.887	78.4
775.065	78.65
775.243	77.68
775.421	77.69
775.599	77.96
775.777	79.27
775.955	77.03
776.133	78.64
776.311	77.69
776.489	77.05
776.667	77.79
776.844	79.61
777.022	77.6
777.2	77.25
777.378	75.06
777.556	75.66
777.734	77.29
777.911	79.24
778.089	83.19
778.267	83.42
778.445	84.9
778.622	84.9
778.8	81.92
778.978	80.53
779.155	82.11
779.333	81.51
779.511	79.65
779.688	82.87
779.866	82.93
780.043	82.81
780.221	81.1
780.398	81.09
780.576	78.83
780.753	76.08
780.931	76.4
781.108	76.96
781.286	77.1
781.463	77.69
781.64	78.22
781.818	76.87
781.995	78.63
782.172	77.78
782.35	76.79
782.527	77.83
782.704	77.35
782.882	72.4
783.059	70.92
783.236	71.74
783.413	67.92
783.59	66.97
783.768	67.58
783.945	67.17
784.122	67.93
784.299	72.52
784.476	71.93
784.653	73.95
784.83	74.23
785.007	73.9
785.184	72.21
785.361	74.37
785.538	71.34
785.715	77.36
785.892	76.32
786.069	76.16
786.246	73.54
786.423	75.46
786.6	72.49
786.776	73.09
786.953	72.2
787.13	73.91
787.307	76.35
787.484	74.51
787.66	72.49
787.837	71.95
788.014	71.08
788.191	69.26
788.367	69.39
788.544	72.58
788.721	71.89
788.897	74.81
789.074	74.85
789.25	73.82
789.427	72.11
789.603	72.84
789.78	68.86
789.956	66.48
790.133	65.17
790.309	65.9
790.486	65.64
790.662	66.4
790.839	69.5
791.015	74.11
791.192	74.34
791.368	76.46
791.544	78.16
791.721	75.48
791.897	70.59
792.073	68.39
792.249	67.37
792.426	64.29
792.602	67.87
792.778	69.27
792.954	72.31
793.13	68.88
793.307	71.88
793.483	65.49
793.659	67.65
793.835	67.09
794.011	72.33
794.187	70.45
794.363	73.78
794.539	71.49
794.715	68.75
794.891	65.31
795.067	67.9
795.243	64.72
795.419	66.66
795.595	71.05
795.771	69.51
795.947	68.32
796.122	66.13
796.298	61.87
796.474	63.93
796.65	66.06
796.826	64.96
797.001	64.79
797.177	60.35
797.353	54.84
797.529	57.53
797.704	55.51
797.88	60.58
798.056	67.19
798.231	65.71
798.407	62.7
798.582	64.94
798.758	65.6
798.934	69.76
799.109	69.85
799.285	70.84
799.46	67.1
799.636	63.66
799.811	61.12
799.986	59.56
800.162	52.2
800.337	57.59
800.513	59.78
800.688	54.37
800.863	61.5
801.039	70.72
801.214	69.23
801.389	66.73
801.565	70.35
801.74	66.8
801.915	65.26
802.09	60.74
802.265	63.58
802.441	64.6
802.616	61.95
802.791	64.27
802.966	63.01
803.141	62.9
803.316	65.01
803.491	69.08
803.666	67.43
803.841	68.44
804.016	65.85
804.191	60.8
804.366	58.3
804.541	55.33
804.716	59.15
804.891	59.98
805.066	56.82
805.241	55.02
805.416	55.78
805.591	54.31
805.765	62.34
805.94	68.15
806.115	69.06
806.29	66.7
806.464	64.95
806.639	56.09
806.814	55.01
806.989	58.61
807.163	65.24
807.338	62.36
807.512	63.33
807.687	65.68
807.862	61.32
808.036	58.33
808.211	65.31
808.385	64.78
808.56	67.47
808.734	62.86
808.909	65.2
809.083	63.33
809.258	65.52
809.432	60.95
809.606	65.98
809.781	69.63
809.955	67.18
810.13	63.23
810.304	64.31
810.478	66.42
810.652	60.86
810.827	63.63
811.001	63.06
811.175	65.64
811.349	65.6
811.524	69.78
811.698	66.19
811.872	72.12
812.046	66.61
812.22	61.03
812.394	59.7
812.568	58.07
812.742	52.84
812.916	58.87
813.09	55.27
813.264	50.17
813.438	51.34
813.612	45.76
813.786	41.12
813.96	51.16
814.134	55.83
814.308	58.83
814.482	69.95
814.656	66.14
814.83	59.5
815.003	56.89
815.177	52.14
815.351	45.48
815.525	51.13
815.698	50.52
815.872	41.81
816.046	35.87
816.219	38.53
816.393	29.06
816.567	31
816.74	35.89
816.914	43.13
817.088	45.08
817.261	46.82
817.435	51.74
817.608	39.72
817.782	33.51
817.955	29.68
818.129	37.39
818.302	38.85
818.475	57.2
818.649	56.08
818.822	51.79
818.996	60.31
819.169	57.74
819.342	53.63
819.516	62.27
819.689	65.42
819.862	66.05
820.035	63.34
820.209	55.36
820.382	45.41
820.555	46.62
820.728	41.86
820.901	32.33
821.075	41.64
821.248	50.55
821.421	51.07
821.594	44.01
821.767	56.11
821.94	51.23
822.113	45.73
822.286	44.23
822.459	42.41
822.632	44.48
822.805	50
822.978	55.22
823.151	54.24
823.324	44.87
823.496	30.57
823.669	16.52
823.842	19.42
824.015	14.4
824.188	10.94
824.361	19.1
824.533	27.71
824.706	16.56
824.879	24.51
825.051	39.17
825.224	38.74
825.397	31.36
825.569	36.36
825.742	39.78
825.915	33.23
826.087	29.27
826.26	37.38
826.432	26.12
826.605	17.41
826.777	15.77
826.95	33.36
827.122	15.4
827.295	18.01
827.467	22.76
827.64	5.7
827.812	-18.81
827.984	5.38
828.157	22.66
828.329	18.74
828.501	33.6
828.674	43.14
828.846	35.59
829.018	32.83
829.19	37.45
829.363	39.24
829.535	51.83
829.707	57.91
829.879	51.28
830.051	56.85
830.223	57.07
830.395	35.33
830.568	30.79
830.74	31.24
830.912	29.1
831.084	25.44
831.256	18.45
831.428	20.73
831.6	7.02
831.772	1.29
831.943	-2.86
832.115	11.91
832.287	23.54
832.459	20.02
832.631	25.38
832.803	32.03
832.975	28.65
833.146	19.4
833.318	32.57
833.49	29.59
833.662	29.24
833.833	21.64
834.005	29.59
834.177	27.82
834.348	34.3
834.52	28.16
834.692	27.04
834.863	23.25
835.035	32.51
835.206	24.1
835.378	39.24
835.549	45.8
835.721	39.68
835.892	34.34
836.064	31.38
836.235	13.35
836.407	20.29
836.578	8.55
836.749	-2.46
836.921	0.92
837.092	-7.41
837.264	-15.71
837.435	-20.61
837.606	6.52
837.777	16.39
837.949	41.01
838.12	39.53
838.291	51.26
838.462	53.66
838.633	39.19
838.805	5.06
838.976	-6.42
839.147	-12.09
839.318	-23.55
839.489	-31.11
839.66	10.34
839.831	15.59
840.002	17.76
840.173	9.14
840.344	19.87
840.515	8.56
840.686	12.88
840.857	11.32
841.028	10.3
841.199	-4.66
841.369	-5.17
841.54	-34.27
841.711	-12.04
841.882	16.59
842.053	33.31
842.223	32.93
842.394	31.14
842.565	14.95
842.736	6.2
842.906	-3.71
843.077	-4.45
843.248	16.07
843.418	11.17
843.589	13.41
843.759	24.73
843.93	31
844.101	0.99
844.271	22.38
844.442	23.97
844.612	7.14
844.783	-1.16
844.953	7.27
845.123	-0.61
845.294	-9.31
845.464	-12.11
845.635	-30.68
845.805	-34.43
845.975	-30.89
846.146	-50.12
846.316	-38.53
846.486	-7
846.656	-1.24
846.827	16.05
846.997	44.25
847.167	48.15
847.337	22.86
847.507	20.39
847.677	2.96
847.848	5.78
848.018	12.49
848.188	37.31
848.358	36.76
848.528	58.15
848.698	40.52
848.868	36.68
849.038	21.41
849.208	20.79
849.378	6.82
849.548	-14.79
849.718	-27.55
849.887	-35.92
850.057	-41.81
850.227	-36.49
850.397	9.01
850.567	-1.93
850.737	27.4
850.906	13.42
851.076	9.75
851.246	-9.35
851.415	-61.47
851.585	-92.55
851.755	-26.82
851.924	-42.21
852.094	-42.68
852.264	-28.03
852.433	-63.76
852.603	-96.68
852.772	-72.94
852.942	-12.24
853.111	-14.6
853.281	15.21
853.45	12.38
853.62	0.14
853.789	-37.08
853.959	-0.29
854.128	-2.04
854.297	-1.86
854.467	11.19
854.636	26.46
854.805	3.43
854.975	-1.88
855.144	5.35
855.313	3.38
855.482	-0.97
855.652	4.31
855.821	-6.67
855.99	-17.81
856.159	-27.16
856.328	-20.8
856.497	4.3
856.667	4.33
856.836	22.8
857.005	-6.16
857.174	-16.87
857.343	-65.82
857.512	-57.49
857.681	-129.28
857.85	-86.48
858.019	-146.4
858.188	-135.22
858.356	-77.49
858.525	-28.98
858.694	-24.17
858.863	-4.38
859.032	2.3
859.201	-43.03
859.369	-40.21
859.538	-15.59
859.707	-47.45
859.876	-31.43
860.044	5
860.213	14.74
860.382	10.36
860.55	6.27
860.719	14.94
860.888	-16.07
861.056	-71.65
861.225	-99.1
861.393	-70.05
861.562	-68.64
861.73	-38.67
861.899	-11.36
862.067	-25.77
862.236	-41.73
862.404	-58.64
862.572	-58.01
862.741	-62.25
862.909	-24.23
863.078	-2.43
863.246	-12.3
863.414	1.3
863.582	7.34
863.751	-0.12
863.919	1.73
864.087	16.19
864.255	-18.52
864.424	-60.69
864.592	-9.81
864.76	-27.97
864.928	-29.28
865.096	-32.03
865.264	-25.7
865.432	-55.34
865.6	-69.47
865.768	-110.38
865.936	-59.41
866.104	-57.83
866.272	-132.38
866.44	-66.37
866.608	-42.03
866.776	-64.71
866.944	-32.78
867.112	-10.05
867.28	-5.1
867.448	15.36
867.615	8.35
867.783	-17.6
867.951	-24.8
868.119	-48.64
868.286	-77.79
868.454	-44.39
868.622	-30.08
868.789	-21.44
868.957	-2.78
869.125	-3.39
869.292	-42.16
869.46	-25.78
869.627	-61.4
869.795	-140.28
869.963	-109.24
870.13	-78.9
870.298	-67.64
870.465	-50.31
870.632	-46.61
870.8	-36.73
870.967	-42.93
871.135	-100.52
871.302	-91.62
871.469	-44.99
871.637	-82.96
871.804	-63.06
871.971	-42.55
872.139	-32.13
872.306	-93.02
872.473	-145.08
872.64	-290.76
872.807	-321.43
872.975	-675.9
873.142	-187.51
873.309	-114.3
873.476	-48.78
873.643	-37.33
873.81	-31.08
873.977	-94.72
874.144	-49.5
874.311	-63.74
874.478	-85.98
874.645	-82.38
874.812	-22.54
874.979	-70.68
875.146	-149.87
875.313	-72.23
875.48	-29.92
875.647	-25.57
875.813	-51.24
875.98	-17.59
876.147	-84.31
876.314	-87.55
876.481	-75.39
876.647	-31.81
876.814	-17.5
876.981	-9.8
877.147	-22.87
877.314	-35.2
877.481	-9.39
877.647	0.81
877.814	-14.28
877.98	11.7
878.147	30.16
878.314	24.08
878.48	20.8
878.647	56.46
878.813	52.55
878.979	55.59
879.146	55.4
879.312	72.79
879.479	21.51
879.645	49.73
879.811	9.16
879.978	22.65
880.144	-3.3
880.31	6.83
880.477	-8.41
880.643	-14.6
880.809	-115.18
880.975	-92.76
881.142	-199.38
881.308	670.93
881.474	838.76
881.64	-143.89
881.806	-235.98
881.972	-110.13
882.138	-17.38
882.304	-25.8
882.47	-64
882.636	-63.47
882.802	-50.72
882.968	-93.8
883.134	-39.64
883.3	-30.11
883.466	14.37
883.632	-2.79
883.798	-15.68
883.964	20.6
884.129	-353.28
884.295	-107.24
884.461	-151.5
884.627	-74.63
884.793	-174.77
884.958	-86.94
885.124	-96.64
885.29	-143.17
885.455	-251.19
885.621	-134.88
885.787	-75.87
885.952	-106
886.118	-34.16
886.283	-25.93
886.449	-45.37
886.614	-64.46
886.78	-61.21
886.945	-140.71
887.111	-122.9
887.276	-130
887.442	-274.8
887.607	-239.45
887.773	-151.75
887.938	-134.93
888.103	-106.24
888.269	-40.19
888.434	-12.13
888.599	-1.45
888.764	16.48
888.93	32.61
889.095	2.23
889.26	-19.8
889.425	-41.3
889.59	-114.22
889.756	-110.94
889.921	-81.29
890.086	-148.5
890.251	-111.31
890.416	-79.42
890.581	-137.08
890.746	-73.19
890.911	-33.99
891.076	-35.32
891.241	-24.73
891.406	-32.01
891.571	-41.49
891.736	-119.91
891.901	-18.33
892.065	-27.03
892.23	3.17
892.395	-83.42
892.56	-63.28
892.725	-93.82
892.889	-136.67
893.054	-95.47
893.219	-71.16
893.384	-114.98
893.548	-200.82
893.713	-276.87
893.878	-415.24
