Data from Ofra_1a_PS_2GT70_Reflection_3.txt Node
Date: Tue Jul 20 10:52:25 EDT 2021
User: Adam
Spectrometer: FLMT01687
Trigger mode: 0
Integration Time (sec): 1.004000E0
Scans to average: 2
Electric dark correction enabled: true
Nonlinearity correction enabled: false
Boxcar width: 2
XAxis mode: Wavelengths
Number of Pixels in Spectrum: 3648
>>>>>Begin Spectral Data<<<<<
179.494	-406.6
179.716	-494.66
179.937	1074.58
180.158	-1282.17
180.38	161.36
180.601	35.98
180.823	-27.17
181.044	-129.21
181.265	-364.44
181.486	248.2
181.708	76.96
181.929	2045.45
182.15	-119.75
182.372	566.01
182.593	533.98
182.814	-148.22
183.035	1.26
183.257	35.26
183.478	1.27
183.699	5.37
183.92	-20.46
184.141	-21.46
184.363	-7.68
184.584	4.2
184.805	20.55
185.026	41.83
185.247	26.4
185.468	8.71
185.689	0.8
185.91	-26.99
186.132	-30.91
186.353	-24.59
186.574	-20.27
186.795	-11.99
187.016	10.58
187.237	23.23
187.458	45.72
187.679	57.03
187.9	41.84
188.121	46.67
188.342	51.63
188.563	49.01
188.784	48.12
189.005	47.55
189.226	34.23
189.447	25.59
189.667	20.39
189.888	3.11
190.109	-7.99
190.33	29.7
190.551	18.03
190.772	24.41
190.993	27.93
191.214	2.58
191.434	-41.69
191.655	-77.51
191.876	-42.61
192.097	-20.99
192.318	47.27
192.538	16.64
192.759	24.24
192.98	27.52
193.201	34.41
193.421	11.21
193.642	35.51
193.863	47.99
194.083	21.21
194.304	3.31
194.525	1.58
194.745	1.22
194.966	4.4
195.187	24.34
195.407	28.71
195.628	34.21
195.848	11.25
196.069	-7.52
196.29	-24.56
196.51	-34.88
196.731	-44.28
196.951	-40.14
197.172	-33.18
197.392	-25.19
197.613	6.22
197.833	-6.85
198.054	-19.84
198.274	5.28
198.495	21.84
198.715	15.42
198.936	32.74
199.156	49.84
199.377	35.75
199.597	30.46
199.817	37.24
200.038	50.63
200.258	52.56
200.479	52.75
200.699	51.78
200.919	10.64
201.14	-10.48
201.36	-32.18
201.58	-58.69
201.801	-76.39
202.021	-76.5
202.241	-52.62
202.461	-26.51
202.682	3.69
202.902	2.78
203.122	24.84
203.342	31.95
203.563	12.6
203.783	0.06
204.003	-1.34
204.223	15.93
204.443	18.96
204.663	29.91
204.884	70.83
205.104	63.79
205.324	63.85
205.544	21.54
205.764	36.96
205.984	21.14
206.204	17.14
206.424	-18.97
206.644	-26.61
206.864	-74.89
207.084	-52.62
207.304	-36.39
207.525	-29.93
207.745	-0.36
207.964	8.21
208.184	10.46
208.404	-2.77
208.624	20.12
208.844	9.39
209.064	14.19
209.284	0.24
209.504	-6.98
209.724	-0.79
209.944	-17.64
210.164	-2.61
210.384	14.69
210.604	-12.79
210.823	-77.01
211.043	-29.84
211.263	-71.2
211.483	-49.72
211.703	-27.04
211.922	0.42
212.142	-6.63
212.362	-19.54
212.582	-7.94
212.801	19.77
213.021	-11.79
213.241	-10.12
213.461	7.07
213.68	1.19
213.9	-12.14
214.12	-6.36
214.339	0.63
214.559	7.68
214.779	22.58
214.998	27.81
215.218	36.93
215.438	39.85
215.657	26.34
215.877	2.52
216.096	8.28
216.316	12.94
216.535	-6.04
216.755	0.22
216.974	-5.57
217.194	-21.31
217.413	-32.91
217.633	-35.81
217.852	-26.02
218.072	-9.78
218.291	-13.6
218.511	-20.72
218.73	-28.79
218.95	-48.2
219.169	-55.73
219.389	-20.18
219.608	-21.92
219.827	5.49
220.047	10.23
220.266	-4.19
220.485	-10.66
220.705	8.78
220.924	1.71
221.143	13.74
221.363	28.71
221.582	13.3
221.801	33.88
222.021	29.29
222.24	28.27
222.459	52.75
222.678	56.18
222.897	43.71
223.117	42.9
223.336	41.34
223.555	19.54
223.774	47.46
223.993	42.51
224.213	43.24
224.432	28.59
224.651	20.87
224.87	17.2
225.089	25.32
225.308	35.24
225.527	30.96
225.746	24.57
225.965	6.8
226.184	-11.76
226.404	-21.62
226.623	-7.23
226.842	8.73
227.061	15.36
227.28	27.41
227.499	41.49
227.718	48.58
227.936	49.54
228.155	42.83
228.374	44.11
228.593	38.92
228.812	39.5
229.031	48.21
229.25	40.23
229.469	32.03
229.688	15.55
229.907	11.55
230.125	-1.29
230.344	10.44
230.563	17.4
230.782	19.77
231.001	28.74
231.22	34.84
231.438	49.13
231.657	46.29
231.876	49.64
232.095	50.28
232.313	19.75
232.532	4.44
232.751	0.62
232.969	0.63
233.188	-13.52
233.407	26.17
233.625	18.78
233.844	22.22
234.063	13.82
234.281	22.82
234.5	17.88
234.719	28.1
234.937	11.64
235.156	12.42
235.374	5.47
235.593	-0.37
235.811	11.94
236.03	24.36
236.249	23.49
236.467	26.78
236.686	13.76
236.904	2.4
237.123	-7.49
237.341	-10.03
237.559	-18.59
237.778	16.65
237.996	7.07
238.215	13.41
238.433	-2.71
238.652	21.98
238.87	4.07
239.088	27.1
239.307	31.56
239.525	37.71
239.743	27.63
239.962	23.96
240.18	15.99
240.398	20.79
240.617	2.4
240.835	20.47
241.053	22.89
241.271	22.68
241.49	14.1
241.708	15.31
241.926	1.91
242.144	7.29
242.363	12.67
242.581	22.07
242.799	29.71
243.017	16.64
243.235	5.86
243.453	0.56
243.672	-5.07
243.89	4.39
244.108	20.34
244.326	28.86
244.544	33.94
244.762	26.74
244.98	28.16
245.198	26.49
245.416	26.84
245.634	31.64
245.852	26.93
246.07	34.44
246.288	21.75
246.506	24.32
246.724	9.67
246.942	24.31
247.16	22.77
247.378	17.33
247.596	24.78
247.814	7.56
248.032	8.53
248.25	27.42
248.468	39.91
248.685	39.3
248.903	42.89
249.121	42.4
249.339	26.04
249.557	30.87
249.775	29.81
249.992	26.98
250.21	17.39
250.428	31.88
250.646	30.1
250.863	3.87
251.081	8.37
251.299	12.3
251.517	-12.19
251.734	-13.39
251.952	16.11
252.17	17.06
252.387	12.37
252.605	30.58
252.823	34.95
253.04	33.3
253.258	35.66
253.475	44.91
253.693	46.87
253.911	37.27
254.128	35.93
254.346	53.6
254.563	56.29
254.781	55.31
254.998	61.94
255.216	30.27
255.433	-9.33
255.651	-28.25
255.868	-44.31
256.086	-29.82
256.303	0.21
256.521	22.22
256.738	17.86
256.956	38.06
257.173	23.32
257.39	24.44
257.608	-0.43
257.825	1.5
258.043	16.51
258.26	21.02
258.477	22.18
258.695	29.44
258.912	36.22
259.129	6.31
259.346	-18.86
259.564	-39.24
259.781	-46.47
259.998	-22.36
260.216	5.89
260.433	1.52
260.65	-1.68
260.867	-4.64
261.084	-11.97
261.302	-40.07
261.519	-20.34
261.736	-14.32
261.953	-6.84
262.17	1.54
262.387	10.9
262.604	20.94
262.822	33.23
263.039	37.84
263.256	32.68
263.473	35.39
263.69	28.41
263.907	24.92
264.124	24.45
264.341	37.25
264.558	20.2
264.775	24.41
264.992	22.01
265.209	9.99
265.426	-22.24
265.643	-8.37
265.86	-16.81
266.077	-21.98
266.294	-17.34
266.51	29.39
266.727	35.06
266.944	33.41
267.161	41.48
267.378	52.91
267.595	30.45
267.812	15.48
268.028	9.63
268.245	-5.92
268.462	-21.75
268.679	0.84
268.896	25.97
269.112	20.56
269.329	13.21
269.546	53.03
269.763	17.35
269.979	0.04
270.196	3.73
270.413	7.98
270.629	-11.38
270.846	8.75
271.063	0.79
271.279	19.82
271.496	24.59
271.712	20.26
271.929	21.86
272.146	37.02
272.362	21.61
272.579	24.63
272.795	23.26
273.012	26.2
273.228	34.73
273.445	21.08
273.661	3.85
273.878	7.97
274.094	8.03
274.311	-10.19
274.527	-24.87
274.744	-1.56
274.96	-7.27
275.177	-19.92
275.393	5.64
275.609	17.32
275.826	11.55
276.042	12.52
276.259	12.13
276.475	4.05
276.691	7.23
276.908	8.18
277.124	21.67
277.34	27.36
277.557	-14.99
277.773	-18.07
277.989	-27.41
278.205	-28.36
278.422	-39.22
278.638	-34.15
278.854	-34.61
279.07	-12.61
279.286	-23.06
279.503	-4.88
279.719	12.22
279.935	2.55
280.151	-18.9
280.367	-10.71
280.583	-15.33
280.799	-5.11
281.016	-19.02
281.232	6.81
281.448	7.41
281.664	-0.12
281.88	10.93
282.096	28.64
282.312	26.33
282.528	28.77
282.744	33.37
282.96	4.29
283.176	0.58
283.392	-21.75
283.608	-16.38
283.824	-11.7
284.04	-32.34
284.256	-27.55
284.471	-8.57
284.687	-11.97
284.903	5.54
285.119	30.45
285.335	36.52
285.551	40.18
285.767	41.94
285.982	44.34
286.198	11.34
286.414	48.59
286.63	30.44
286.846	15.67
287.061	6.12
287.277	33.72
287.493	0.31
287.709	24.68
287.924	44.65
288.14	63.11
288.356	56.2
288.571	65.9
288.787	54.41
289.003	59.45
289.218	28.04
289.434	13.03
289.65	14.12
289.865	3.37
290.081	8.95
290.296	22.06
290.512	14.55
290.727	3.89
290.943	9.65
291.159	-4.63
291.374	-31.54
291.59	-11.37
291.805	-16.9
292.021	-11.96
292.236	-7.17
292.451	16.18
292.667	17.82
292.882	36.26
293.098	45.51
293.313	31.15
293.529	31.96
293.744	24.32
293.959	8.21
294.175	5.91
294.39	8.54
294.605	15.62
294.821	18.19
295.036	14.56
295.251	31.81
295.467	22.37
295.682	16.45
295.897	14.65
296.112	17.35
296.328	3.27
296.543	-5.53
296.758	-24.26
296.973	-26.37
297.188	-26.5
297.404	-57.18
297.619	-43.32
297.834	-54.69
298.049	-31.2
298.264	-30.09
298.479	-19.4
298.694	10.65
298.909	34.37
299.125	20.09
299.34	18.87
299.555	18.16
299.77	23.15
299.985	7.16
300.2	22.85
300.415	30.11
300.63	28.06
300.845	18.23
301.06	33.71
301.275	28.7
301.49	20.61
301.704	20.92
301.919	17.47
302.134	9.02
302.349	9.87
302.564	10.33
302.779	0.82
302.994	24.67
303.209	19.28
303.423	10.91
303.638	6.92
303.853	12.85
304.068	-17.89
304.283	-5.76
304.497	-12.65
304.712	3.19
304.927	-0.24
305.142	12.72
305.356	10.45
305.571	20.55
305.786	9.28
306	21.46
306.215	13.72
306.43	9.15
306.644	0.41
306.859	6.26
307.074	24.15
307.288	26.1
307.503	31.51
307.717	30.06
307.932	31.26
308.147	21.27
308.361	16.44
308.576	1.78
308.79	0.85
309.005	-17.22
309.219	-17.8
309.434	-15.16
309.648	0.38
309.863	2.35
310.077	2.6
310.292	22.62
310.506	5.62
310.72	-5.28
310.935	12.07
311.149	28.36
311.364	11.36
311.578	34.91
311.792	39.38
312.007	39.67
312.221	10.06
312.435	18.35
312.649	6.2
312.864	12.45
313.078	10.97
313.292	11.91
313.507	23.61
313.721	17.36
313.935	32.51
314.149	32
314.363	47.03
314.578	29.34
314.792	11.58
315.006	-13.41
315.22	-10.05
315.434	-9.9
315.648	-22.61
315.862	2.25
316.077	3.49
316.291	4.8
316.505	2.46
316.719	22.83
316.933	14.01
317.147	13.75
317.361	21.15
317.575	12.44
317.789	7.18
318.003	11.11
318.217	16.26
318.431	9.4
318.645	11.57
318.859	29.55
319.073	38.02
319.287	37.76
319.5	31.61
319.714	26.76
319.928	20.03
320.142	16.85
320.356	22.82
320.57	10.63
320.784	16.04
320.997	-8.6
321.211	6.33
321.425	-17.61
321.639	7.25
321.853	18.65
322.066	15.73
322.28	11.17
322.494	12.8
322.707	3.22
322.921	-3.35
323.135	16.65
323.349	17.79
323.562	26.29
323.776	37.2
323.989	49.29
324.203	27.97
324.417	14.48
324.63	7.39
324.844	-18.17
325.057	-51.59
325.271	-35.01
325.485	-27.29
325.698	-9.16
325.912	14.57
326.125	8.99
326.339	16.97
326.552	16.58
326.766	4.7
326.979	14.22
327.193	27.73
327.406	16.87
327.619	27.55
327.833	32.76
328.046	31.14
328.26	24.5
328.473	34.86
328.686	26.48
328.9	28.51
329.113	4.86
329.326	4.59
329.54	-2.63
329.753	2.07
329.966	-3.83
330.179	11.55
330.393	11.41
330.606	12.81
330.819	4.51
331.032	14.56
331.246	11.71
331.459	36.61
331.672	25.96
331.885	29.59
332.098	12.76
332.311	3.4
332.525	-16.85
332.738	-4.3
332.951	-9.43
333.164	0.03
333.377	11.6
333.59	13.42
333.803	13.6
334.016	29.85
334.229	21.53
334.442	8.49
334.655	8.47
334.868	1.93
335.081	-9.31
335.294	-14.69
335.507	-1.82
335.72	1.1
335.933	9.88
336.146	8.24
336.359	17.24
336.572	16.54
336.785	12.54
336.997	21.45
337.21	21.88
337.423	13.27
337.636	0.72
337.849	-1.48
338.062	-5.77
338.274	7.88
338.487	1.85
338.7	-6.12
338.913	4.93
339.125	-4.92
339.338	-11.61
339.551	-3.89
339.763	-0.28
339.976	0.04
340.189	9.35
340.402	27.1
340.614	32.03
340.827	49.36
341.039	57.18
341.252	57.68
341.465	38.36
341.677	44.42
341.89	25.82
342.102	22.69
342.315	15.63
342.527	20.61
342.74	6.29
342.952	5.28
343.165	1.51
343.377	10.79
343.59	14.99
343.802	13.43
344.015	20.54
344.227	27.22
344.44	13.69
344.652	0.61
344.864	9.78
345.077	25.8
345.289	23.88
345.502	40.45
345.714	41.39
345.926	36
346.139	16.24
346.351	14.17
346.563	5.08
346.775	14.98
346.988	23.46
347.2	16.74
347.412	8.53
347.624	5.25
347.837	3.03
348.049	8.71
348.261	5.47
348.473	3.64
348.685	1.19
348.897	-2.13
349.11	1.95
349.322	16.53
349.534	21.43
349.746	26.55
349.958	27.71
350.17	8.87
350.382	2.86
350.594	5.47
350.806	18.8
351.018	16.61
351.23	30.35
351.442	34.95
351.654	39.14
351.866	32.56
352.078	36.57
352.29	26.83
352.502	23.83
352.714	18.64
352.926	9.16
353.138	6.97
353.35	-5.54
353.561	-5.65
353.773	-12.19
353.985	5.15
354.197	5.2
354.409	14.09
354.621	8.86
354.832	10.51
355.044	-9.93
355.256	-11.88
355.468	-18.88
355.679	7.41
355.891	10.64
356.103	13.65
356.314	2.24
356.526	7.03
356.738	-16.05
356.949	-12.6
357.161	5.26
357.373	22.11
357.584	27.11
357.796	30.1
358.008	29.05
358.219	22.49
358.431	11.17
358.642	16.56
358.854	26.57
359.065	20.49
359.277	16.28
359.488	22.72
359.7	9.74
359.911	4.49
360.123	19.36
360.334	24.92
360.546	14.17
360.757	16.36
360.969	21.63
361.18	15.78
361.391	8.97
361.603	22.6
361.814	30.91
362.025	27.91
362.237	19.98
362.448	29.49
362.659	19.52
362.871	-0.25
363.082	-10.58
363.293	-6.99
363.504	-39.12
363.716	-26.51
363.927	5.82
364.138	-3.89
364.349	-13.01
364.56	-10.03
364.772	-10.29
364.983	-6.96
365.194	7.48
365.405	17.1
365.616	32.74
365.827	19.91
366.038	9.06
366.25	9.31
366.461	18.8
366.672	21.06
366.883	32.77
367.094	41.72
367.305	24.61
367.516	17.74
367.727	-5.52
367.938	-3.36
368.149	-7.8
368.36	2.64
368.571	-1.43
368.781	2.78
368.992	-4.4
369.203	-15.31
369.414	-21.12
369.625	-19.45
369.836	4.25
370.047	10.17
370.258	34.15
370.468	36.49
370.679	30.11
370.89	12.44
371.101	21.57
371.312	3.7
371.522	12.78
371.733	5.33
371.944	-9.95
372.155	-23.06
372.365	-14.56
372.576	-24.92
372.787	-1.53
372.997	9.92
373.208	12.21
373.419	12.05
373.629	13.24
373.84	2.27
374.05	-1.63
374.261	-22.21
374.472	-15.18
374.682	-0.42
374.893	2.41
375.103	16.58
375.314	21.75
375.524	8.89
375.735	2.02
375.945	-2.35
376.156	-10.2
376.366	-7.76
376.577	-4.4
376.787	-4.19
376.997	2.38
377.208	0.02
377.418	-1.54
377.629	-2.12
377.839	2.38
378.049	10.2
378.26	14.19
378.47	21.51
378.68	25.05
378.89	22.35
379.101	13.48
379.311	6.53
379.521	3.55
379.732	1.7
379.942	-2.76
380.152	-11.22
380.362	-9.03
380.572	12.1
380.783	19.19
380.993	24.42
381.203	29.36
381.413	35.91
381.623	26.5
381.833	27.51
382.043	22.23
382.253	20.41
382.463	25.26
382.674	25.09
382.884	18.78
383.094	16.43
383.304	15.85
383.514	8.35
383.724	-0.69
383.934	-6.41
384.144	-0.35
384.353	3.66
384.563	5.5
384.773	15.64
384.983	16.73
385.193	8.15
385.403	1.64
385.613	6.9
385.823	0.46
386.033	4.71
386.242	8.8
386.452	6.9
386.662	0.59
386.872	5.75
387.082	3.33
387.291	2.65
387.501	6.04
387.711	9.95
387.921	6.88
388.13	7.31
388.34	11.8
388.55	8.02
388.759	1.48
388.969	-1.73
389.179	-1.01
389.388	-4.19
389.598	-5.01
389.807	-3.17
390.017	-1.57
390.227	-2.84
390.436	-1.97
390.646	0.77
390.855	-2.98
391.065	-2.63
391.274	-2.74
391.484	-3.85
391.693	-5.98
391.903	0.42
392.112	0.17
392.322	-0.49
392.531	0.53
392.74	1.63
392.95	0.38
393.159	0.28
393.369	1.39
393.578	0.04
393.787	0.97
393.997	0.85
394.206	-0.43
394.415	0.76
394.625	1.61
394.834	-0.53
395.043	-0.7
395.252	1.94
395.462	1.42
395.671	1.72
395.88	3.88
396.089	3.42
396.298	2.66
396.508	2.54
396.717	2.02
396.926	1.45
397.135	1.6
397.344	1.41
397.553	1.37
397.762	1.95
397.971	1.65
398.181	2.19
398.39	2.03
398.599	2.13
398.808	2.02
399.017	2.86
399.226	2.76
399.435	2.82
399.644	3.2
399.853	2.8
400.062	2.75
400.27	2.48
400.479	2.5
400.688	2.16
400.897	2.3
401.106	2.19
401.315	2.3
401.524	2.48
401.733	2.44
401.941	2.52
402.15	2.16
402.359	2.04
402.568	2.21
402.777	2.32
402.985	2.12
403.194	2.31
403.403	2.73
403.612	2.32
403.82	2.15
404.029	2.35
404.238	2.43
404.446	2.32
404.655	2.48
404.864	2.59
405.072	2.57
405.281	2.58
405.489	2.37
405.698	2.27
405.906	2.21
406.115	2.18
406.324	2.11
406.532	2.19
406.741	2.38
406.949	2.39
407.158	2.47
407.366	2.33
407.574	2.28
407.783	2.09
407.991	2.07
408.2	2.07
408.408	2.19
408.617	2.25
408.825	2.21
409.033	2.12
409.242	2.15
409.45	2.03
409.658	1.91
409.867	1.91
410.075	2
410.283	1.94
410.491	1.96
410.7	1.92
410.908	1.97
411.116	2
411.324	1.91
411.533	1.91
411.741	2.02
411.949	1.99
412.157	1.93
412.365	1.96
412.573	2.05
412.781	1.95
412.99	2.02
413.198	2.11
413.406	2.17
413.614	2.19
413.822	2.34
414.03	2.38
414.238	2.38
414.446	2.38
414.654	2.18
414.862	2.18
415.07	2.02
415.278	2.04
415.486	1.82
415.694	1.93
415.902	1.81
416.109	1.87
416.317	1.77
416.525	1.93
416.733	1.86
416.941	1.88
417.149	1.71
417.357	1.73
417.564	1.6
417.772	1.77
417.98	1.73
418.188	1.78
418.395	1.59
418.603	1.52
418.811	1.33
419.019	1.4
419.226	1.59
419.434	1.8
419.642	1.71
419.849	1.7
420.057	1.77
420.265	1.7
420.472	1.59
420.68	1.88
420.887	1.89
421.095	1.76
421.302	1.76
421.51	1.65
421.717	1.51
421.925	1.6
422.132	1.63
422.34	1.5
422.547	1.54
422.755	1.64
422.962	1.64
423.17	1.49
423.377	1.6
423.585	1.69
423.792	1.62
423.999	1.67
424.207	1.72
424.414	1.65
424.621	1.72
424.829	2
425.036	2.1
425.243	2.21
425.451	2.28
425.658	2.17
425.865	1.96
426.072	1.84
426.28	1.76
426.487	1.74
426.694	1.76
426.901	1.78
427.108	1.73
427.315	1.72
427.523	1.67
427.73	1.67
427.937	1.48
428.144	1.41
428.351	1.4
428.558	1.43
428.765	1.44
428.972	1.66
429.179	1.59
429.386	1.74
429.593	1.74
429.8	1.74
430.007	1.68
430.214	1.82
430.421	1.78
430.628	1.72
430.835	1.74
431.042	1.68
431.249	1.73
431.456	1.66
431.662	1.89
431.869	2.02
432.076	2.01
432.283	2.1
432.49	2.13
432.697	1.97
432.903	1.81
433.11	2.02
433.317	1.95
433.524	2.02
433.73	2.09
433.937	2.3
434.144	2.07
434.35	1.97
434.557	1.95
434.764	2.03
434.97	1.93
435.177	2.09
435.384	2.24
435.59	2.24
435.797	2.21
436.003	2.21
436.21	2.11
436.416	2.07
436.623	2.17
436.829	2.14
437.036	2.02
437.242	2.09
437.449	2.06
437.655	2.05
437.862	2.06
438.068	2.21
438.275	2.3
438.481	2.42
438.687	2.39
438.894	2.44
439.1	2.33
439.307	2.3
439.513	2.24
439.719	2.23
439.926	2.18
440.132	2.32
440.338	2.3
440.544	2.28
440.751	2.25
440.957	2.39
441.163	2.32
441.369	2.35
441.575	2.24
441.782	2.26
441.988	2.25
442.194	2.22
442.4	2.16
442.606	2.42
442.812	2.43
443.018	2.42
443.224	2.56
443.431	2.57
443.637	2.46
443.843	2.56
444.049	2.51
444.255	2.6
444.461	2.66
444.667	2.66
444.873	2.6
445.079	2.62
445.284	2.55
445.49	2.52
445.696	2.49
445.902	2.51
446.108	2.5
446.314	2.4
446.52	2.47
446.726	2.6
446.931	2.6
447.137	2.6
447.343	2.69
447.549	2.76
447.755	2.71
447.96	2.71
448.166	2.76
448.372	2.74
448.578	2.62
448.783	2.61
448.989	2.71
449.195	2.78
449.4	2.88
449.606	2.9
449.812	2.87
450.017	2.94
450.223	2.88
450.428	2.78
450.634	2.79
450.84	2.88
451.045	2.75
451.251	2.82
451.456	2.87
451.662	2.93
451.867	2.95
452.073	2.98
452.278	2.9
452.483	2.95
452.689	2.9
452.894	2.97
453.1	2.91
453.305	2.99
453.51	3.04
453.716	3.06
453.921	2.97
454.127	3.04
454.332	3.05
454.537	2.99
454.742	2.99
454.948	2.99
455.153	2.99
455.358	2.97
455.563	3.05
455.769	3.11
455.974	3.11
456.179	3.1
456.384	3.04
456.589	2.9
456.795	2.84
457	2.84
457.205	2.77
457.41	2.8
457.615	2.9
457.82	2.97
458.025	2.95
458.23	3.11
458.435	3.18
458.64	3.21
458.845	3.22
459.05	3.33
459.255	3.23
459.46	3.15
459.665	3.1
459.87	3.07
460.075	3.14
460.28	3.24
460.485	3.36
460.69	3.41
460.895	3.47
461.099	3.28
461.304	3.22
461.509	3.19
461.714	3.21
461.919	3.15
462.123	3.26
462.328	3.25
462.533	3.15
462.738	3.12
462.942	3.1
463.147	3.07
463.352	3.12
463.556	3.17
463.761	3.22
463.966	3.22
464.17	3.27
464.375	3.28
464.58	3.3
464.784	3.3
464.989	3.41
465.193	3.41
465.398	3.47
465.602	3.62
465.807	3.61
466.011	3.57
466.216	3.52
466.42	3.64
466.625	3.62
466.829	3.67
467.034	3.85
467.238	4.03
467.443	3.95
467.647	3.93
467.851	3.89
468.056	3.82
468.26	3.79
468.464	3.84
468.669	3.89
468.873	3.85
469.077	3.81
469.282	3.76
469.486	3.68
469.69	3.67
469.894	3.78
470.099	3.82
470.303	3.92
470.507	3.96
470.711	3.94
470.915	4.03
471.119	4.06
471.324	4.04
471.528	4.1
471.732	4.17
471.936	4.14
472.14	4.13
472.344	4.17
472.548	4.16
472.752	4.14
472.956	4.11
473.16	4.07
473.364	4.05
473.568	4
473.772	3.97
473.976	4.02
474.18	4.11
474.384	4.04
474.588	4.11
474.792	4.16
474.995	4.19
475.199	4.18
475.403	4.28
475.607	4.28
475.811	4.33
476.015	4.22
476.218	4.22
476.422	4.2
476.626	4.25
476.83	4.3
477.033	4.4
477.237	4.46
477.441	4.46
477.644	4.42
477.848	4.4
478.052	4.34
478.255	4.37
478.459	4.46
478.663	4.53
478.866	4.55
479.07	4.59
479.273	4.58
479.477	4.49
479.681	4.45
479.884	4.47
480.088	4.52
480.291	4.56
480.495	4.64
480.698	4.71
480.901	4.73
481.105	4.75
481.308	4.72
481.512	4.71
481.715	4.79
481.919	4.79
482.122	4.82
482.325	4.9
482.529	4.89
482.732	4.76
482.935	4.76
483.138	4.68
483.342	4.65
483.545	4.76
483.748	4.87
483.952	4.94
484.155	5.02
484.358	5.05
484.561	4.94
484.764	4.89
484.967	4.82
485.171	4.86
485.374	4.77
485.577	4.82
485.78	4.87
485.983	4.85
486.186	4.78
486.389	4.89
486.592	4.85
486.795	4.9
486.998	4.88
487.201	4.92
487.404	5
487.607	5.09
487.81	4.99
488.013	5.05
488.216	5.01
488.419	4.83
488.622	4.76
488.825	4.86
489.028	4.85
489.231	4.91
489.433	4.98
489.636	4.99
489.839	4.98
490.042	5
490.245	4.96
490.447	5
490.65	5.02
490.853	5.03
491.056	5.05
491.258	5.09
491.461	5.02
491.664	5.01
491.866	4.94
492.069	5.01
492.272	4.94
492.474	4.98
492.677	4.93
492.879	4.93
493.082	4.91
493.285	5
493.487	5
493.69	5.06
493.892	5.04
494.095	5
494.297	5.01
494.5	5.03
494.702	5.11
494.905	5.17
495.107	5.18
495.309	5.18
495.512	5.2
495.714	5.12
495.917	5.16
496.119	5.13
496.321	5.13
496.524	5.04
496.726	5.04
496.928	5.02
497.13	5.05
497.333	5
497.535	5.08
497.737	5.06
497.939	5.01
498.142	4.99
498.344	5.04
498.546	5.1
498.748	5.2
498.95	5.28
499.152	5.36
499.355	5.32
499.557	5.28
499.759	5.31
499.961	5.32
500.163	5.28
500.365	5.38
500.567	5.42
500.769	5.34
500.971	5.32
501.173	5.35
501.375	5.37
501.577	5.39
501.779	5.43
501.981	5.49
502.183	5.47
502.385	5.48
502.587	5.48
502.788	5.5
502.99	5.49
503.192	5.5
503.394	5.45
503.596	5.36
503.798	5.33
503.999	5.27
504.201	5.26
504.403	5.35
504.605	5.48
504.806	5.54
505.008	5.58
505.21	5.65
505.411	5.62
505.613	5.6
505.815	5.6
506.016	5.64
506.218	5.64
506.42	5.64
506.621	5.64
506.823	5.61
507.024	5.59
507.226	5.59
507.427	5.62
507.629	5.61
507.83	5.59
508.032	5.63
508.233	5.65
508.435	5.63
508.636	5.7
508.838	5.79
509.039	5.85
509.24	5.88
509.442	5.86
509.643	5.82
509.845	5.84
510.046	5.86
510.247	5.89
510.448	5.97
510.65	6.01
510.851	6.03
511.052	6.02
511.254	6.03
511.455	5.93
511.656	5.9
511.857	5.85
512.058	5.88
512.26	5.81
512.461	5.86
512.662	5.91
512.863	5.91
513.064	5.86
513.265	5.89
513.466	5.9
513.667	5.9
513.868	5.87
514.069	5.84
514.27	5.85
514.471	5.8
514.672	5.86
514.873	5.92
515.074	5.98
515.275	6
515.476	6.09
515.677	6.09
515.878	6.08
516.079	6.09
516.28	6.16
516.481	6.17
516.682	6.13
516.882	6.19
517.083	6.19
517.284	6.16
517.485	6.18
517.686	6.2
517.886	6.11
518.087	6.15
518.288	6.11
518.488	6.05
518.689	6.05
518.89	6.07
519.091	6.08
519.291	6.12
519.492	6.18
519.692	6.24
519.893	6.24
520.094	6.22
520.294	6.24
520.495	6.2
520.695	6.16
520.896	6.18
521.096	6.23
521.297	6.24
521.497	6.2
521.698	6.24
521.898	6.27
522.099	6.23
522.299	6.24
522.499	6.3
522.7	6.3
522.9	6.31
523.101	6.3
523.301	6.28
523.501	6.3
523.702	6.29
523.902	6.3
524.102	6.37
524.302	6.46
524.503	6.47
524.703	6.44
524.903	6.45
525.103	6.42
525.304	6.33
525.504	6.41
525.704	6.46
525.904	6.44
526.104	6.42
526.304	6.46
526.504	6.42
526.705	6.39
526.905	6.43
527.105	6.41
527.305	6.41
527.505	6.37
527.705	6.4
527.905	6.43
528.105	6.45
528.305	6.48
528.505	6.52
528.705	6.53
528.905	6.5
529.105	6.57
529.304	6.6
529.504	6.64
529.704	6.65
529.904	6.69
530.104	6.72
530.304	6.71
530.503	6.72
530.703	6.69
530.903	6.72
531.103	6.73
531.303	6.75
531.502	6.8
531.702	6.81
531.902	6.81
532.101	6.78
532.301	6.79
532.501	6.84
532.7	6.9
532.9	6.9
533.1	6.93
533.299	6.96
533.499	6.86
533.698	6.83
533.898	6.93
534.097	6.9
534.297	6.87
534.496	6.89
534.696	6.94
534.895	6.92
535.095	6.96
535.294	6.99
535.494	7
535.693	7.04
535.892	6.98
536.092	6.97
536.291	7
536.491	7.03
536.69	7.05
536.889	7.06
537.088	7.1
537.288	7.1
537.487	7.12
537.686	7.1
537.886	7.2
538.085	7.19
538.284	7.26
538.483	7.24
538.682	7.3
538.882	7.2
539.081	7.29
539.28	7.24
539.479	7.29
539.678	7.3
539.877	7.43
540.076	7.4
540.275	7.44
540.474	7.44
540.673	7.48
540.872	7.45
541.071	7.48
541.27	7.55
541.469	7.53
541.668	7.53
541.867	7.63
542.066	7.64
542.265	7.67
542.464	7.72
542.663	7.77
542.862	7.79
543.06	7.89
543.259	7.96
543.458	8.05
543.657	8.08
543.856	8.11
544.054	8.07
544.253	8.05
544.452	8.11
544.651	8.13
544.849	8.13
545.048	8.17
545.247	8.21
545.445	8.21
545.644	8.25
545.843	8.25
546.041	8.29
546.24	8.32
546.438	8.32
546.637	8.33
546.836	8.42
547.034	8.44
547.233	8.51
547.431	8.56
547.63	8.63
547.828	8.64
548.027	8.7
548.225	8.68
548.423	8.72
548.622	8.72
548.82	8.79
549.019	8.85
549.217	8.94
549.415	9
549.614	9.13
549.812	9.19
550.01	9.21
550.209	9.25
550.407	9.34
550.605	9.3
550.803	9.36
551.002	9.47
551.2	9.48
551.398	9.58
551.596	9.74
551.794	9.76
551.993	9.81
552.191	9.92
552.389	9.95
552.587	9.99
552.785	10.06
552.983	10.14
553.181	10.2
553.379	10.24
553.577	10.28
553.775	10.46
553.973	10.59
554.171	10.68
554.369	10.76
554.567	10.88
554.765	10.79
554.963	10.82
555.161	10.82
555.359	10.93
555.557	10.98
555.755	11.16
555.952	11.26
556.15	11.39
556.348	11.37
556.546	11.45
556.744	11.46
556.941	11.46
557.139	11.55
557.337	11.69
557.535	11.76
557.732	11.84
557.93	12.02
558.128	12.07
558.325	12.17
558.523	12.32
558.721	12.45
558.918	12.52
559.116	12.65
559.313	12.76
559.511	12.81
559.708	12.94
559.906	13.02
560.104	13.09
560.301	13.2
560.498	13.28
560.696	13.3
560.893	13.42
561.091	13.59
561.288	13.67
561.486	13.72
561.683	13.88
561.88	14.01
562.078	14.06
562.275	14.15
562.473	14.28
562.67	14.37
562.867	14.43
563.064	14.58
563.262	14.62
563.459	14.74
563.656	14.88
563.853	14.96
564.051	15.06
564.248	15.17
564.445	15.21
564.642	15.26
564.839	15.31
565.036	15.44
565.234	15.63
565.431	15.73
565.628	15.83
565.825	15.97
566.022	16.07
566.219	16.09
566.416	16.22
566.613	16.33
566.81	16.43
567.007	16.46
567.204	16.52
567.401	16.61
567.598	16.67
567.795	16.7
567.991	16.78
568.188	16.88
568.385	16.95
568.582	17.06
568.779	17.23
568.976	17.32
569.172	17.49
569.369	17.61
569.566	17.7
569.763	17.7
569.96	17.8
570.156	17.87
570.353	17.93
570.55	17.9
570.746	18.02
570.943	18.06
571.14	18.05
571.336	18
571.533	18.13
571.729	18.22
571.926	18.21
572.123	18.32
572.319	18.37
572.516	18.42
572.712	18.35
572.909	18.32
573.105	18.38
573.302	18.45
573.498	18.47
573.695	18.56
573.891	18.68
574.087	18.6
574.284	18.62
574.48	18.68
574.677	18.74
574.873	18.83
575.069	18.93
575.266	18.99
575.462	19.03
575.658	19.04
575.854	19.08
576.051	19.12
576.247	19.03
576.443	19.01
576.639	18.99
576.835	18.87
577.032	18.83
577.228	18.95
577.424	18.98
577.62	18.99
577.816	19
578.012	19.03
578.208	19.05
578.404	19.08
578.6	19.15
578.796	19.24
578.993	19.24
579.189	19.27
579.384	19.27
579.58	19.21
579.776	19.19
579.972	19.19
580.168	19.11
580.364	19.12
580.56	19.13
580.756	19.17
580.952	19.18
581.148	19.23
581.343	19.21
581.539	19.22
581.735	19.19
581.931	19.15
582.127	19.1
582.322	19.12
582.518	19.14
582.714	19.16
582.909	19.23
583.105	19.28
583.301	19.24
583.496	19.22
583.692	19.14
583.888	19.07
584.083	19.07
584.279	19.07
584.474	19.05
584.67	19.1
584.866	19.15
585.061	19.12
585.257	19.1
585.452	19.1
585.648	19.08
585.843	19.03
586.039	19.07
586.234	19.12
586.429	19.14
586.625	19.17
586.82	19.23
587.015	19.23
587.211	19.27
587.406	19.3
587.601	19.34
587.797	19.23
587.992	19.22
588.187	19.1
588.383	19.11
588.578	19.19
588.773	19.3
588.968	19.37
589.163	19.51
589.359	19.53
589.554	19.4
589.749	19.45
589.944	19.52
590.139	19.56
590.334	19.69
590.529	19.78
590.724	19.84
590.919	19.86
591.114	19.97
591.309	20.01
591.504	20.04
591.699	20
591.894	20.03
592.089	19.96
592.284	19.97
592.479	20.11
592.674	20.27
592.869	20.28
593.064	20.42
593.259	20.47
593.454	20.49
593.648	20.47
593.843	20.58
594.038	20.62
594.233	20.7
594.428	20.78
594.622	20.88
594.817	20.96
595.012	20.99
595.206	21.03
595.401	21.1
595.596	21.09
595.79	21.1
595.985	21.15
596.18	21.3
596.374	21.41
596.569	21.6
596.763	21.67
596.958	21.77
597.153	21.83
597.347	21.91
597.542	22.02
597.736	22.12
597.931	22.12
598.125	22.11
598.319	22.14
598.514	22.11
598.708	22.24
598.903	22.36
599.097	22.47
599.291	22.49
599.486	22.61
599.68	22.63
599.874	22.75
600.069	22.83
600.263	22.9
600.457	22.93
600.651	22.94
600.846	22.95
601.04	22.97
601.234	23
601.428	23.02
601.622	23.1
601.817	23.2
602.011	23.22
602.205	23.26
602.399	23.25
602.593	23.28
602.787	23.23
602.981	23.21
603.175	23.27
603.369	23.23
603.563	23.34
603.757	23.38
603.951	23.42
604.145	23.35
604.339	23.59
604.533	23.51
604.727	23.51
604.921	23.52
605.115	23.49
605.309	23.35
605.502	23.36
605.696	23.32
605.89	23.28
606.084	23.28
606.278	23.28
606.471	23.18
606.665	23.19
606.859	23.17
607.053	23.14
607.246	23.07
607.44	23.01
607.634	22.98
607.827	22.93
608.021	22.87
608.214	22.84
608.408	22.79
608.602	22.64
608.795	22.55
608.989	22.46
609.182	22.43
609.376	22.45
609.569	22.48
609.763	22.5
609.956	22.56
610.15	22.39
610.343	22.24
610.537	22.17
610.73	21.98
610.923	21.85
611.117	21.87
611.31	21.81
611.504	21.64
611.697	21.66
611.89	21.6
612.083	21.46
612.277	21.49
612.47	21.48
612.663	21.4
612.856	21.27
613.05	21.21
613.243	21.01
613.436	21
613.629	20.85
613.822	20.82
614.015	20.79
614.209	20.75
614.402	20.62
614.595	20.63
614.788	20.54
614.981	20.51
615.174	20.4
615.367	20.28
615.56	20.16
615.753	20.17
615.946	20.04
616.139	20.07
616.332	20.12
616.525	20.12
616.718	20.03
616.911	19.97
617.103	19.94
617.296	19.82
617.489	19.7
617.682	19.66
617.875	19.65
618.067	19.49
618.26	19.48
618.453	19.5
618.646	19.47
618.838	19.39
619.031	19.37
619.224	19.31
619.417	19.3
619.609	19.29
619.802	19.29
619.994	19.34
620.187	19.27
620.38	19.21
620.572	19.09
620.765	19.06
620.957	19.01
621.15	18.98
621.342	18.96
621.535	18.99
621.727	18.95
621.92	18.92
622.112	18.91
622.305	18.89
622.497	18.83
622.69	18.82
622.882	18.89
623.074	18.92
623.267	18.88
623.459	18.85
623.651	18.88
623.844	18.79
624.036	18.83
624.228	18.86
624.42	18.81
624.613	18.66
624.805	18.64
624.997	18.55
625.189	18.59
625.381	18.61
625.574	18.62
625.766	18.58
625.958	18.51
626.15	18.41
626.342	18.4
626.534	18.47
626.726	18.44
626.918	18.42
627.11	18.31
627.302	18.3
627.494	18.26
627.686	18.2
627.878	18.18
628.07	18.17
628.262	18.14
628.454	18.1
628.646	18.01
628.838	18
629.029	17.97
629.221	17.92
629.413	17.9
629.605	17.94
629.797	17.88
629.989	17.87
630.18	17.87
630.372	17.84
630.564	17.79
630.755	17.79
630.947	17.8
631.139	17.74
631.33	17.63
631.522	17.59
631.714	17.51
631.905	17.51
632.097	17.42
632.289	17.45
632.48	17.45
632.672	17.51
632.863	17.39
633.055	17.52
633.246	17.6
633.438	17.63
633.629	17.58
633.821	17.58
634.012	17.51
634.203	17.39
634.395	17.29
634.586	17.28
634.777	17.33
634.969	17.35
635.16	17.29
635.351	17.25
635.543	17.19
635.734	17.12
635.925	17.09
636.117	17.18
636.308	17.24
636.499	17.3
636.69	17.33
636.881	17.31
637.073	17.3
637.264	17.28
637.455	17.29
637.646	17.24
637.837	17.21
638.028	17.08
638.219	17.14
638.41	17.14
638.601	17.25
638.792	17.26
638.983	17.39
639.174	17.33
639.365	17.27
639.556	17.14
639.747	17.13
639.938	17.19
640.129	17.15
640.32	17.11
640.511	17.06
640.701	17.03
640.892	16.88
641.083	16.86
641.274	16.81
641.465	16.91
641.655	16.91
641.846	16.86
642.037	16.8
642.228	16.8
642.418	16.72
642.609	16.65
642.8	16.66
642.99	16.72
643.181	16.78
643.372	16.78
643.562	16.81
643.753	16.82
643.943	16.65
644.134	16.52
644.324	16.52
644.515	16.47
644.705	16.44
644.896	16.53
645.086	16.6
645.277	16.54
645.467	16.5
645.658	16.49
645.848	16.51
646.038	16.46
646.229	16.46
646.419	16.36
646.61	16.43
646.8	16.37
646.99	16.34
647.18	16.26
647.371	16.35
647.561	16.2
647.751	16.18
647.941	16.17
648.132	16.13
648.322	16.11
648.512	16.14
648.702	16.18
648.892	16.27
649.082	16.35
649.272	16.29
649.462	16.22
649.653	16.12
649.843	15.91
650.033	15.83
650.223	15.78
650.413	15.79
650.603	15.87
650.793	16.05
650.983	16.06
651.172	16.1
651.362	16.01
651.552	15.84
651.742	15.63
651.932	15.51
652.122	15.42
652.312	15.36
652.502	15.25
652.691	15.24
652.881	15.18
653.071	15.15
653.261	15.07
653.45	15.07
653.64	14.94
653.83	14.82
654.019	14.7
654.209	14.6
654.399	14.38
654.588	14.31
654.778	14.26
654.968	14.23
655.157	14.21
655.347	14.11
655.536	14.01
655.726	13.82
655.915	13.63
656.105	13.48
656.294	13.34
656.484	13.12
656.673	13.02
656.863	12.91
657.052	12.69
657.241	12.63
657.431	12.56
657.62	12.45
657.809	12.21
657.999	12.1
658.188	11.91
658.377	11.74
658.567	11.6
658.756	11.49
658.945	11.28
659.134	11.1
659.324	10.83
659.513	10.61
659.702	10.44
659.891	10.41
660.08	10.24
660.269	10.23
660.458	10.08
660.648	9.96
660.837	9.66
661.026	9.52
661.215	9.37
661.404	9.22
661.593	9.11
661.782	9.08
661.971	8.92
662.16	8.8
662.349	8.59
662.538	8.42
662.726	8.22
662.915	8.25
663.104	8.14
663.293	8.13
663.482	7.98
663.671	7.93
663.86	7.83
664.048	7.83
664.237	7.73
664.426	7.79
664.615	7.76
664.803	7.57
664.992	7.34
665.181	7.37
665.369	7.13
665.558	7.04
665.747	7.02
665.935	7.04
666.124	6.95
666.312	6.96
666.501	6.9
666.69	6.87
666.878	6.86
667.067	6.83
667.255	6.79
667.444	6.78
667.632	6.8
667.82	6.68
668.009	6.65
668.197	6.64
668.386	6.56
668.574	6.5
668.762	6.45
668.951	6.39
669.139	6.32
669.327	6.36
669.516	6.37
669.704	6.43
669.892	6.43
670.08	6.44
670.269	6.47
670.457	6.49
670.645	6.44
670.833	6.58
671.021	6.72
671.21	6.68
671.398	6.7
671.586	6.76
671.774	6.77
671.962	6.76
672.15	6.83
672.338	6.92
672.526	7.02
672.714	7.02
672.902	6.96
673.09	7.01
673.278	7.1
673.466	7.11
673.654	7.15
673.842	7.31
674.03	7.33
674.218	7.27
674.405	7.31
674.593	7.33
674.781	7.37
674.969	7.53
675.157	7.64
675.344	7.7
675.532	7.75
675.72	7.78
675.908	7.71
676.095	7.79
676.283	7.92
676.471	7.99
676.658	8.07
676.846	8.13
677.033	7.98
677.221	8.03
677.409	8.06
677.596	8.03
677.784	8.11
677.971	8.18
678.159	8.16
678.346	8.19
678.534	8.3
678.721	8.48
678.909	8.71
679.096	8.85
679.283	8.94
679.471	9.06
679.658	9.07
679.846	9.15
680.033	9.33
680.22	9.53
680.408	9.58
680.595	9.74
680.782	9.79
680.969	9.87
681.157	9.99
681.344	10.06
681.531	10.06
681.718	10.24
681.905	10.22
682.093	10.36
682.28	10.68
682.467	10.94
682.654	11.01
682.841	11.27
683.028	11.33
683.215	11.39
683.402	11.56
683.589	11.98
683.776	12.12
683.963	12.4
684.15	12.62
684.337	12.86
684.524	12.92
684.711	13.23
684.898	13.31
685.085	13.53
685.271	13.72
685.458	13.88
685.645	14
685.832	14.33
686.019	14.67
686.205	15.03
686.392	15.48
686.579	15.82
686.766	16.14
686.952	16.45
687.139	16.7
687.326	16.99
687.512	17.37
687.699	17.9
687.886	18.23
688.072	18.68
688.259	19.08
688.445	19.71
688.632	19.89
688.818	20.38
689.005	20.74
689.191	21.31
689.378	21.85
689.564	22.41
689.751	22.93
689.937	23.75
690.124	24.4
690.31	24.59
690.496	25.3
690.683	25.82
690.869	26.14
691.055	26.67
691.242	27.3
691.428	28.03
691.614	28.83
691.8	29.62
691.987	30.05
692.173	30.95
692.359	31.57
692.545	32.16
692.731	32.86
692.918	33.63
693.104	34.29
693.29	34.69
693.476	35.5
693.662	36
693.848	36.39
694.034	37.07
694.22	37.88
694.406	38.35
694.592	39.11
694.778	39.94
694.964	40.37
695.15	40.93
695.336	41.59
695.522	42.03
695.708	42.78
695.894	43.48
696.08	44.14
696.265	44.71
696.451	45.45
696.637	45.91
696.823	46.54
697.009	47.08
697.194	47.91
697.38	48.42
697.566	48.98
697.751	49.43
697.937	50.33
698.123	50.74
698.308	51.21
698.494	52.17
698.68	52.89
698.865	53.11
699.051	53.69
699.236	54.2
699.422	54.55
699.607	55.05
699.793	55.93
699.978	56.15
700.164	56.66
700.349	57.11
700.535	57.43
700.72	57.62
700.906	58.23
701.091	58.94
701.276	59.05
701.462	59.42
701.647	59.92
701.832	60.33
702.018	60.96
702.203	61.64
702.388	62.02
702.573	62.38
702.759	62.88
702.944	62.72
703.129	63.08
703.314	63.44
703.499	63.6
703.684	63.91
703.87	64.25
704.055	64.54
704.24	64.94
704.425	65.39
704.61	65.47
704.795	66
704.98	66.14
705.165	66.34
705.35	66.57
705.535	67.05
705.72	67.06
705.905	67.6
706.09	68.1
706.275	68.29
706.459	68.61
706.644	69.04
706.829	69.25
707.014	69.36
707.199	69.59
707.384	69.33
707.568	69.29
707.753	69.45
707.938	69.55
708.123	69.79
708.307	70.3
708.492	70.76
708.677	70.91
708.861	70.92
709.046	70.68
709.231	70.66
709.415	70.73
709.6	70.55
709.784	70.83
709.969	71.45
710.153	71.35
710.338	71.61
710.522	72.18
710.707	72.22
710.891	71.98
711.076	72.36
711.26	72.47
711.445	72.23
711.629	72.33
711.813	72.76
711.998	72.91
712.182	72.52
712.366	73.08
712.551	73.39
712.735	73.52
712.919	73.96
713.103	74.34
713.288	74.09
713.472	74.21
713.656	73.99
713.84	73.59
714.024	73.78
714.208	73.83
714.393	74.24
714.577	74.47
714.761	74.89
714.945	75.1
715.129	75.2
715.313	75.04
715.497	74.96
715.681	74.98
715.865	74.8
716.049	74.98
716.233	74.96
716.417	75.08
716.601	74.75
716.785	74.89
716.968	75.02
717.152	75.13
717.336	75.29
717.52	76.03
717.704	76.69
717.888	76.73
718.071	76.85
718.255	77.32
718.439	77.22
718.622	77.02
718.806	76.9
718.99	76.67
719.174	76.7
719.357	76.44
719.541	76.27
719.724	76.58
719.908	76.77
720.092	76.39
720.275	76.85
720.459	77.09
720.642	77.28
720.826	77.26
721.009	77.25
721.193	76.97
721.376	77.18
721.559	77.36
721.743	77.34
721.926	77.92
722.11	78.32
722.293	78.27
722.476	77.62
722.66	78.23
722.843	78.09
723.026	78.02
723.21	77.54
723.393	78.43
723.576	77.96
723.759	78.23
723.942	78.6
724.126	78.57
724.309	78.04
724.492	78.14
724.675	78.09
724.858	77.76
725.041	78.71
725.224	78.88
725.407	78.67
725.59	78.33
725.774	78.33
725.957	77.9
726.14	78.08
726.322	78.45
726.505	78.6
726.688	79.26
726.871	79.49
727.054	79.36
727.237	79.93
727.42	79.65
727.603	79.51
727.786	79.39
727.968	79.35
728.151	79.42
728.334	80.06
728.517	79.75
728.699	79.87
728.882	80.02
729.065	79.32
729.248	79.5
729.43	79.21
729.613	79.55
729.796	80.2
729.978	80.45
730.161	79.87
730.343	80.64
730.526	80.46
730.708	80.31
730.891	80.72
731.073	81.1
731.256	80.8
731.438	81.27
731.621	81.32
731.803	81.31
731.986	81.51
732.168	81.79
732.35	81.6
732.533	81.4
732.715	81.12
732.898	80.71
733.08	80.69
733.262	80.2
733.444	80.89
733.627	81.48
733.809	82.58
733.991	82.85
734.173	83.19
734.355	82.72
734.538	82.65
734.72	82.25
734.902	82.01
735.084	82.15
735.266	82.64
735.448	82.78
735.63	83.41
735.812	83.99
735.994	83.87
736.176	83.73
736.358	84.25
736.54	84.42
736.722	83.42
736.904	83.51
737.086	82.96
737.268	83.19
737.45	83.29
737.632	84.16
737.814	84.84
737.995	84.93
738.177	84.37
738.359	83.98
738.541	83.4
738.723	82.99
738.904	83.14
739.086	83.35
739.268	83.31
739.449	83.6
739.631	83.48
739.813	84.14
739.994	83.8
740.176	84.58
740.358	85.16
740.539	85.42
740.721	85.41
740.902	85.2
741.084	83.93
741.265	84.33
741.447	85.26
741.628	84.67
741.81	84.86
741.991	85.36
742.172	85.32
742.354	84.3
742.535	84.67
742.717	84.38
742.898	84.23
743.079	83.93
743.261	84.81
743.442	83.64
743.623	84.19
743.804	83.97
743.986	84.02
744.167	83.26
744.348	84
744.529	84.21
744.71	84.06
744.891	83.8
745.073	83.45
745.254	83.19
745.435	82.3
745.616	83.31
745.797	82.62
745.978	83.59
746.159	83.95
746.34	84.94
746.521	84.76
746.702	85.46
746.883	83.77
747.064	84.92
747.245	84.87
747.426	84.27
747.606	83.98
747.787	85.34
747.968	82.93
748.149	82.28
748.33	82.22
748.51	81.98
748.691	82.23
748.872	84.2
749.053	84.31
749.233	84.36
749.414	85.16
749.595	84.94
749.775	83.83
749.956	83.94
750.137	83.33
750.317	81.42
750.498	81.02
750.678	81.21
750.859	81.63
751.04	82.68
751.22	82.74
751.4	82.72
751.581	83.18
751.761	83.26
751.942	84.6
752.122	86.19
752.303	85.59
752.483	85.8
752.663	85.11
752.844	83.3
753.024	84.62
753.204	85.86
753.385	85.48
753.565	85.17
753.745	84.9
753.925	82.48
754.106	81.8
754.286	80.44
754.466	81.09
754.646	80.61
754.826	83.19
755.006	83.82
755.187	85.36
755.367	84.63
755.547	84.79
755.727	83.3
755.907	81.89
756.087	81.95
756.267	81.53
756.447	83.76
756.627	83.77
756.807	85.45
756.987	83.66
757.167	83.85
757.346	82.19
757.526	81.69
757.706	80.99
757.886	81.92
758.066	82.99
758.246	82.37
758.425	81.22
758.605	80.41
758.785	81.18
758.965	80.78
759.144	80.48
759.324	83.05
759.504	83.71
759.683	81.66
759.863	81.98
760.043	82.66
760.222	80.73
760.402	79.28
760.581	81.61
760.761	81.46
760.94	82.29
761.12	82.49
761.299	84.57
761.479	84.85
761.658	84.37
761.838	83.74
762.017	84.84
762.197	82.66
762.376	81.13
762.555	80.36
762.735	79.5
762.914	77.57
763.093	78.81
763.273	79.47
763.452	79.54
763.631	80.29
763.81	81.47
763.99	81.19
764.169	80.18
764.348	79.85
764.527	79.46
764.706	79.24
764.885	79.24
765.064	80.74
765.243	80.65
765.423	81.76
765.602	82.08
765.781	81.67
765.96	80.88
766.139	81.17
766.318	80.7
766.497	81.68
766.676	81.04
766.854	81.12
767.033	81.19
767.212	81.9
767.391	79.86
767.57	81.77
767.749	81.99
767.928	83.08
768.106	81.23
768.285	79.99
768.464	79.33
768.643	77.78
768.821	77.64
769	78.51
769.179	80.94
769.357	80.9
769.536	82.47
769.715	81.06
769.893	81.37
770.072	80.19
770.25	79.68
770.429	78.3
770.607	78.38
770.786	77.54
770.964	79.31
771.143	80.01
771.321	78.75
771.5	80.09
771.678	79.11
771.857	76.53
772.035	76.94
772.213	78.52
772.392	77.22
772.57	77.45
772.748	76.92
772.927	76.43
773.105	78.4
773.283	80.11
773.461	81.5
773.64	84.01
773.818	83.3
773.996	82.81
774.174	81.48
774.352	80.02
774.531	78.19
774.709	78.27
774.887	75.28
775.065	75.73
775.243	76.64
775.421	76.22
775.599	78.11
775.777	78.54
775.955	77.83
776.133	77.16
776.311	77.11
776.489	75.44
776.667	74.6
776.844	75.82
777.022	76.63
777.2	77.44
777.378	74.4
777.556	76.96
777.734	76.61
777.911	75.32
778.089	76.78
778.267	79.25
778.445	79.06
778.622	77.38
778.8	76.88
778.978	76.56
779.155	77.83
779.333	77.1
779.511	78.5
779.688	83.65
779.866	83.41
780.043	80.65
780.221	81.04
780.398	79.71
780.576	75.84
780.753	76.07
780.931	77.51
781.108	78.52
781.286	77.39
781.463	76.27
781.64	75.62
781.818	77.74
781.995	74.95
782.172	75.11
782.35	75.8
782.527	73.29
782.704	69.62
782.882	68.42
783.059	69.23
783.236	70.52
783.413	72.65
783.59	74.23
783.768	75.39
783.945	75.49
784.122	74.74
784.299	73.08
784.476	70.26
784.653	72.01
784.83	70.23
785.007	67.16
785.184	67.65
785.361	71.1
785.538	68.77
785.715	69.3
785.892	71.82
786.069	72.94
786.246	74.13
786.423	74.61
786.6	79.59
786.776	81.94
786.953	79.86
787.13	78.03
787.307	79.34
787.484	72.59
787.66	69.5
787.837	70.23
788.014	71.31
788.191	69.61
788.367	69.84
788.544	69.79
788.721	71.57
788.897	70.34
789.074	73.34
789.25	73.61
789.427	75.07
789.603	73.82
789.78	70.65
789.956	68.92
790.133	68.64
790.309	65.92
790.486	64.75
790.662	70.77
790.839	72.01
791.015	77.47
791.192	77.12
791.368	76.44
791.544	76.55
791.721	75.89
791.897	73.45
792.073	72.65
792.249	73.1
792.426	69.19
792.602	66.39
792.778	64.33
792.954	68.78
793.13	71.07
793.307	71.99
793.483	71.11
793.659	73.01
793.835	73.29
794.011	70.85
794.187	70.39
794.363	73.05
794.539	76.62
794.715	77.28
794.891	80.12
795.067	78.31
795.243	78.37
795.419	74.25
795.595	75.7
795.771	71.25
795.947	73.13
796.122	67.89
796.298	65.79
796.474	65.17
796.65	69.67
796.826	68.83
797.001	71.27
797.177	65.13
797.353	60.87
797.529	57.69
797.704	56.37
797.88	59
798.056	65.16
798.231	66.23
798.407	66.45
798.582	68.36
798.758	70.84
798.934	79.14
799.109	79.14
799.285	84.65
799.46	80.93
799.636	73.08
799.811	66.01
799.986	65.17
800.162	55.21
800.337	61.31
800.513	68.06
800.688	65.56
800.863	73.7
801.039	81.08
801.214	76.23
801.389	71.66
801.565	71.97
801.74	66.78
801.915	61.76
802.09	58.86
802.265	58.92
802.441	59.63
802.616	57.15
802.791	62.26
802.966	68.27
803.141	69.57
803.316	66.55
803.491	67.57
803.666	68
803.841	63.24
804.016	61.97
804.191	68.42
804.366	63.53
804.541	58.77
804.716	58.86
804.891	62.66
805.066	61.49
805.241	65.03
805.416	73.7
805.591	78.05
805.765	82.16
805.94	83.95
806.115	84.05
806.29	78.94
806.464	74.36
806.639	66.5
806.814	63.76
806.989	63.43
807.163	63.47
807.338	57.99
807.512	58.54
807.687	57.49
807.862	59.39
808.036	63.08
808.211	69.16
808.385	69.45
808.56	67.67
808.734	59.26
808.909	56.48
809.083	57.26
809.258	60.39
809.432	63.91
809.606	70.87
809.781	63.21
809.955	64.25
810.13	58.7
810.304	55.01
810.478	58.38
810.652	61.44
810.827	62.13
811.001	65.61
811.175	68.79
811.349	71.34
811.524	77.1
811.698	74.53
811.872	78.58
812.046	71.94
812.22	63.49
812.394	52.55
812.568	46.95
812.742	43.14
812.916	49.73
813.09	50.65
813.264	55.12
813.438	59.8
813.612	56.93
813.786	55.44
813.96	60.35
814.134	60.08
814.308	61.67
814.482	73.17
814.656	66.2
814.83	69.76
815.003	73.77
815.177	73.51
815.351	72.6
815.525	87.69
815.698	80.45
815.872	67.52
816.046	60.12
816.219	61.54
816.393	50.42
816.567	57.54
816.74	68.53
816.914	73.3
817.088	64.95
817.261	64.22
817.435	61.16
817.608	48.71
817.782	37.65
817.955	49.12
818.129	52.21
818.302	50.96
818.475	66.25
818.649	67.47
818.822	57.44
818.996	73.26
819.169	77.34
819.342	70.32
819.516	78.28
819.689	81.21
819.862	69.93
820.035	70.78
820.209	72.61
820.382	67.78
820.555	58.69
820.728	53.95
820.901	41.81
821.075	40.76
821.248	56.8
821.421	52.03
821.594	60.07
821.767	60.48
821.94	58.43
822.113	55.72
822.286	68.15
822.459	72.33
822.632	73.51
822.805	67.92
822.978	63.97
823.151	46.56
823.324	30.18
823.496	22.64
823.669	29.17
823.842	36.65
824.015	49.23
824.188	63.33
824.361	61.98
824.533	51.47
824.706	58.12
824.879	60.57
825.051	67.99
825.224	74.31
825.397	82.51
825.569	67.02
825.742	75.26
825.915	66.2
826.087	67.56
826.26	68.81
826.432	74.1
826.605	64.03
826.777	61.15
826.95	60.7
827.122	40.64
827.295	57.08
827.467	59.4
827.64	68.3
827.812	68.08
827.984	76.95
828.157	33.38
828.329	53.08
828.501	45.49
828.674	49.89
828.846	54.36
829.018	77.51
829.19	46.25
829.363	52.25
829.535	58.13
829.707	67.47
829.879	52.13
830.051	66.59
830.223	65.06
830.395	53.05
830.568	46.58
830.74	37.27
830.912	49.76
831.084	45.9
831.256	43.09
831.428	34.4
831.6	47.91
831.772	34.85
831.943	32.85
832.115	48.04
832.287	67.75
832.459	61.34
832.631	67.51
832.803	64.43
832.975	52.09
833.146	45.3
833.318	36.78
833.49	38.34
833.662	48.94
833.833	55.59
834.005	54.53
834.177	67.29
834.348	58.47
834.52	51.65
834.692	42.31
834.863	39.76
835.035	33.6
835.206	37.01
835.378	40.24
835.549	59.03
835.721	59.29
835.892	57.2
836.064	59.42
836.235	58.03
836.407	45.89
836.578	49.41
836.749	40.04
836.921	38.6
837.092	28.71
837.264	35.36
837.435	26.53
837.606	42.72
837.777	37.43
837.949	50.08
838.12	51.48
838.291	47.81
838.462	46.8
838.633	54.17
838.805	36.29
838.976	33.59
839.147	51.3
839.318	50.4
839.489	39.72
839.66	66.43
839.831	66.15
840.002	66.83
840.173	64.83
840.344	65.32
840.515	43.73
840.686	39.61
840.857	32.97
841.028	33.68
841.199	32.68
841.369	38.95
841.54	35.05
841.711	51.43
841.882	50.2
842.053	40.14
842.223	50.16
842.394	54.85
842.565	38.55
842.736	40.39
842.906	45.49
843.077	44.53
843.248	60.77
843.418	62.69
843.589	74.16
843.759	89.88
843.93	97.09
844.101	79
844.271	108.17
844.442	97.34
844.612	80.96
844.783	82.52
844.953	69.96
845.123	55.25
845.294	55.44
845.464	50.99
845.635	29.74
845.805	56.13
845.975	78.28
846.146	67.38
846.316	66.83
846.486	89.58
846.656	67.63
846.827	43.02
846.997	55.48
847.167	61.38
847.337	43.77
847.507	50.66
847.677	57.13
847.848	49.88
848.018	45.16
848.188	51.92
848.358	36.28
848.528	46.89
848.698	42.87
848.868	48.2
849.038	41.02
849.208	59.81
849.378	56.65
849.548	54.07
849.718	40.07
849.887	29.97
850.057	8.43
850.227	47.1
850.397	54.32
850.567	42.71
850.737	66.98
850.906	61.96
851.076	28.21
851.246	53.69
851.415	66.48
851.585	80.25
851.755	94.37
851.924	73.18
852.094	64.78
852.264	61.49
852.433	36.13
852.603	28.6
852.772	78.25
852.942	82.99
853.111	87.24
853.281	77.56
853.45	57.73
853.62	46.7
853.789	14.9
853.959	32
854.128	47.66
854.297	47.77
854.467	52.19
854.636	55.48
854.805	43.71
854.975	37.49
855.144	37.77
855.313	41.6
855.482	35.57
855.652	21.03
855.821	9.6
855.99	41.83
856.159	32.42
856.328	56.4
856.497	63.47
856.667	69.75
856.836	48.64
857.005	36.17
857.174	26
857.343	12.53
857.512	27.88
857.681	29.25
857.85	22.01
858.019	-12.7
858.188	-36.28
858.356	-24.32
858.525	2.72
858.694	17.44
858.863	33.99
859.032	56.39
859.201	84.18
859.369	86.83
859.538	61.07
859.707	59.23
859.876	51.25
860.044	36.43
860.213	40.6
860.382	34.38
860.55	36.67
860.719	42.53
860.888	28.27
861.056	10.25
861.225	-1.27
861.393	-2.86
861.562	-6.49
861.73	19.9
861.899	16.21
862.067	11.94
862.236	15.34
862.404	25.36
862.572	38.91
862.741	42.27
862.909	28.55
863.078	24.99
863.246	-5.59
863.414	-2.5
863.582	18.97
863.751	47.89
863.919	38.22
864.087	63.86
864.255	76.64
864.424	36.02
864.592	38.89
864.76	70.14
864.928	82.5
865.096	76.65
865.264	80.58
865.432	91.03
865.6	90.51
865.768	56.84
865.936	72.92
866.104	66.47
866.272	26.03
866.44	21.87
866.608	28.21
866.776	20.22
866.944	69.48
867.112	73.77
867.28	64.1
867.448	68.93
867.615	44.22
867.783	2.7
867.951	-2.51
868.119	-6.3
868.286	-45.13
868.454	-5.18
868.622	6.51
868.789	7.56
868.957	5.87
869.125	24.01
869.292	20.14
869.46	43.26
869.627	75.15
869.795	66.61
869.963	50.81
870.13	40.24
870.298	88.14
870.465	77.84
870.632	92.63
870.8	94.5
870.967	122.37
871.135	74.39
871.302	40.97
871.469	43.74
871.637	65.25
871.804	55.67
871.971	52.39
872.139	54.73
872.306	24.6
872.473	15.65
872.64	-31.82
872.807	-67.42
872.975	-75.65
873.142	21.83
873.309	15.69
873.476	44.79
873.643	94.1
873.81	78.18
873.977	57.56
874.144	44.94
874.311	11.32
874.478	-41.92
874.645	-94.64
874.812	34.41
874.979	58.1
875.146	41.24
875.313	34.78
875.48	78.74
875.647	43.94
875.813	22.61
875.98	27.89
876.147	-12.13
876.314	-41.05
876.481	-71.69
876.647	-27.73
876.814	6.04
876.981	13.84
877.147	12.85
877.314	33.61
877.481	34.94
877.647	54.3
877.814	73.86
877.98	79.67
878.147	84.49
878.314	96.01
878.48	78.38
878.647	88.32
878.813	107.99
878.979	110.49
879.146	106.1
879.312	114.83
879.479	84.86
879.645	72.29
879.811	64.9
879.978	61.03
880.144	58.3
880.31	50.78
880.477	49.47
880.643	29.03
880.809	4.03
880.975	16.92
881.142	37.68
881.308	238.63
881.474	258.89
881.64	64.44
881.806	89.15
881.972	54.51
882.138	61.67
882.304	98.58
882.47	59.46
882.636	7.5
882.802	13.61
882.968	0.13
883.134	-13.43
883.3	-10.76
883.466	62.1
883.632	91.25
883.798	138.86
883.964	215.86
884.129	892.14
884.295	121
884.461	77.47
884.627	58.66
884.793	40.59
884.958	64.09
885.124	41.05
885.29	19.23
885.455	12.06
885.621	3.67
885.787	-52.2
885.952	-30.51
886.118	1.9
886.283	-31.2
886.449	-12.84
886.614	14.42
886.78	1.29
886.945	7.66
887.111	-2.22
887.276	-27.59
887.442	-76.38
887.607	-31.87
887.773	-28.47
887.938	-4.4
888.103	19.05
888.269	41.6
888.434	47.27
888.599	36.56
888.764	56.33
888.93	40.93
889.095	39.62
889.26	11.17
889.425	28.18
889.59	33.9
889.756	39.09
889.921	-11.73
890.086	73.85
890.251	144.16
890.416	38.35
890.581	70.35
890.746	119.6
890.911	66.17
891.076	34.74
891.241	62.36
891.406	55.1
891.571	75.12
891.736	106.7
891.901	83.8
892.065	36.28
892.23	16.84
892.395	-1.7
892.56	-12.84
892.725	-21.56
892.889	3.26
893.054	96.94
893.219	78.5
893.384	121.82
893.548	79.86
893.713	111.56
893.878	59.11
