Data from Ofra_1a_PS_2CX10_Reflection_2.txt Node
Date: Tue Jul 20 10:46:36 EDT 2021
User: Adam
Spectrometer: FLMT01687
Trigger mode: 0
Integration Time (sec): 1.004000E0
Scans to average: 2
Electric dark correction enabled: true
Nonlinearity correction enabled: false
Boxcar width: 2
XAxis mode: Wavelengths
Number of Pixels in Spectrum: 3648
>>>>>Begin Spectral Data<<<<<
179.494	-123.35
179.716	-242.75
179.937	735.45
180.158	-1033.76
180.38	182.94
180.601	19.44
180.823	-52.47
181.044	-110.43
181.265	-202.63
181.486	195.79
181.708	-0.25
181.929	5372.73
182.15	-79.97
182.372	639.9
182.593	341.78
182.814	-202.21
183.035	-85.57
183.257	-9.85
183.478	-18.93
183.699	-47.71
183.92	-94.92
184.141	-73.56
184.363	-81.85
184.584	-110.51
184.805	-51.54
185.026	-19.59
185.247	-21.65
185.468	-32.76
185.689	-10.87
185.91	-38.22
186.132	-0.92
186.353	4.82
186.574	1.63
186.795	13.75
187.016	27.35
187.237	6.99
187.458	-5.11
187.679	-13.68
187.9	-4.04
188.121	-36.81
188.342	-18.59
188.563	3.55
188.784	20.24
189.005	5.15
189.226	23.37
189.447	19.8
189.667	0.71
189.888	-3.11
190.109	-14.87
190.33	-4.53
190.551	-20.56
190.772	-6.54
190.993	-23.91
191.214	-40.65
191.434	-84.79
191.655	-128.12
191.876	-99.64
192.097	-72.43
192.318	-15.07
192.538	-58.63
192.759	-26.1
192.98	-7.12
193.201	-12.99
193.421	-16.44
193.642	-2.48
193.863	1.44
194.083	-23.13
194.304	-9.8
194.525	-20.57
194.745	-21.17
194.966	-18.19
195.187	-7.31
195.407	-22.01
195.628	-10.6
195.848	-3.45
196.069	-17.66
196.29	-26.16
196.51	-26.03
196.731	-39.95
196.951	-49.09
197.172	-29.61
197.392	-36.91
197.613	-11.66
197.833	-22.22
198.054	-32.43
198.274	-30.99
198.495	-20.09
198.715	-18.2
198.936	2.1
199.156	-2.7
199.377	-14.24
199.597	-11.18
199.817	-4.36
200.038	-42.35
200.258	2.35
200.479	11.21
200.699	12.13
200.919	-14.67
201.14	-11.66
201.36	-21.32
201.58	-36.4
201.801	-52.42
202.021	-59.04
202.241	-35.85
202.461	-32.15
202.682	-6.54
202.902	11.48
203.122	23.66
203.342	36.98
203.563	24.64
203.783	10.03
204.003	-15.44
204.223	-7.3
204.443	9.75
204.663	-9.23
204.884	-0.42
205.104	11.68
205.324	-13.67
205.544	-93.94
205.764	-15.04
205.984	-27.05
206.204	-32.04
206.424	-35.92
206.644	-21.98
206.864	-84.57
207.084	-26.72
207.304	-37.32
207.525	-28.84
207.745	-3.32
207.964	21.37
208.184	19.93
208.404	26.59
208.624	32.98
208.844	-5.03
209.064	-21.15
209.284	-52.12
209.504	-74.69
209.724	-66.64
209.944	-59.78
210.164	-70.12
210.384	-61.49
210.604	-113.73
210.823	-126.41
211.043	-86.24
211.263	-174.42
211.483	-120.48
211.703	-71.4
211.922	-115.05
212.142	-76.1
212.362	0.67
212.582	14.14
212.801	-7.54
213.021	28.5
213.241	-7.11
213.461	-19.91
213.68	-24.04
213.9	-10.36
214.12	-36.85
214.339	-25.43
214.559	-35.92
214.779	-45.1
214.998	-43.3
215.218	-8.79
215.438	0.32
215.657	-11.04
215.877	-3.75
216.096	8.19
216.316	-5.3
216.535	-21.26
216.755	-6.69
216.974	-10.23
217.194	-18.82
217.413	-6.78
217.633	-15.7
217.852	-10.47
218.072	-13.69
218.291	-26.79
218.511	-34.85
218.73	-32.31
218.95	-66.63
219.169	-58.57
219.389	-38.05
219.608	-40.89
219.827	-30.8
220.047	-0.05
220.266	-12.56
220.485	-10.81
220.705	8.33
220.924	28
221.143	19.01
221.363	28.17
221.582	28.48
221.801	24.14
222.021	4.86
222.24	1.94
222.459	8.28
222.678	11.58
222.897	7.94
223.117	23.82
223.336	8.55
223.555	2.52
223.774	-18.11
223.993	-13.74
224.213	-1.78
224.432	17.86
224.651	2.01
224.87	15.27
225.089	12.77
225.308	-2.03
225.527	-17.58
225.746	-26.29
225.965	-37.88
226.184	-43.08
226.404	-25
226.623	-20.59
226.842	-15.33
227.061	-5.5
227.28	-6.84
227.499	-1
227.718	9.23
227.936	7.98
228.155	8.95
228.374	12.76
228.593	11.72
228.812	4.78
229.031	23.47
229.25	2.55
229.469	8.22
229.688	-6.31
229.907	0.69
230.125	-11.73
230.344	11.36
230.563	7.7
230.782	16.31
231.001	6.9
231.22	33.47
231.438	11.46
231.657	16.1
231.876	8.67
232.095	22.72
232.313	-5.2
232.532	-1.56
232.751	-13.12
232.969	-9.21
233.188	-39.38
233.407	-28.51
233.625	-24.38
233.844	-7.1
234.063	-17.69
234.281	-11.5
234.5	-14.34
234.719	-18.33
234.937	-55.94
235.156	-54.27
235.374	-33.7
235.593	-17.5
235.811	-8.92
236.03	11.14
236.249	14.31
236.467	6.13
236.686	-4.34
236.904	4.39
237.123	-13.18
237.341	-13.49
237.559	-15.21
237.778	7.64
237.996	-25.43
238.215	-63.17
238.433	-136.39
238.652	-43.35
238.87	-65.77
239.088	-58.62
239.307	-27.12
239.525	-3.76
239.743	-30.97
239.962	-45.78
240.18	-25.62
240.398	-18.64
240.617	-24.18
240.835	-17.6
241.053	-13.63
241.271	-1.9
241.49	7.59
241.708	0.96
241.926	6.11
242.144	23.31
242.363	-25.82
242.581	-51.03
242.799	-85.06
243.017	-67.75
243.235	-42.37
243.453	-49.31
243.672	-45.48
243.89	-27.07
244.108	-15.36
244.326	-13.89
244.544	6.4
244.762	-6.23
244.98	-3.63
245.198	4.95
245.416	-0.98
245.634	-7.59
245.852	-14.45
246.07	-2.23
246.288	-18.13
246.506	-20.15
246.724	-26.15
246.942	-5.55
247.16	-4.32
247.378	-24.54
247.596	-18.25
247.814	-27.84
248.032	-36.56
248.25	-16.17
248.468	10.92
248.685	10.06
248.903	5.63
249.121	4.51
249.339	-2.54
249.557	-25.54
249.775	-19.94
249.992	0.41
250.21	2.48
250.428	10.38
250.646	30.17
250.863	21.7
251.081	11.75
251.299	21.62
251.517	6.26
251.734	-1.96
251.952	-8.93
252.17	-16.01
252.387	-34.44
252.605	-29.05
252.823	-58.91
253.04	-32.18
253.258	-12.43
253.475	-3.47
253.693	-19.68
253.911	-6.6
254.128	-15.58
254.346	-9.3
254.563	-3.94
254.781	-0.05
254.998	-12.15
255.216	-51.62
255.433	-73.94
255.651	-56.94
255.868	-56.75
256.086	-42.32
256.303	-18.64
256.521	-3.57
256.738	-15.68
256.956	-4.55
257.173	-14.7
257.39	-0.04
257.608	-6.91
257.825	-12.32
258.043	-5.85
258.26	-3.05
258.477	-10.2
258.695	-16.37
258.912	-16.62
259.129	-26.14
259.346	-27.17
259.564	-23.43
259.781	-22.77
259.998	-12.14
260.216	-2.53
260.433	-10.73
260.65	-14.57
260.867	-5.59
261.084	-6.6
261.302	-7.02
261.519	16.31
261.736	30.33
261.953	19.88
262.17	26.83
262.387	9.95
262.604	7.56
262.822	6.18
263.039	12.99
263.256	-1.72
263.473	2.41
263.69	0.94
263.907	-3.42
264.124	-17.04
264.341	-1.01
264.558	-2.52
264.775	-12.23
264.992	-6.55
265.209	-3.87
265.426	-15.77
265.643	-14.7
265.86	-8.89
266.077	-41.54
266.294	-19.59
266.51	6.29
266.727	8.9
266.944	25.29
267.161	33
267.378	28.15
267.595	5.53
267.812	-4.25
268.028	-29.01
268.245	-41.43
268.462	-38.55
268.679	-16.28
268.896	2.6
269.112	-4.01
269.329	-21.3
269.546	-12.21
269.763	-12.43
269.979	-28.61
270.196	-9.35
270.413	10.4
270.629	-3.63
270.846	2.92
271.063	8.16
271.279	-0.98
271.496	-26.43
271.712	-12.18
271.929	-15.19
272.146	-15.75
272.362	-18.32
272.579	-12.66
272.795	-21.32
273.012	-23.35
273.228	-11.61
273.445	-7.89
273.661	7.55
273.878	0.38
274.094	-5.37
274.311	-0.64
274.527	-16.52
274.744	-19.87
274.96	-5.02
275.177	-0.71
275.393	-1.58
275.609	11.13
275.826	9.08
276.042	-2.94
276.259	-0.32
276.475	-8.9
276.691	-26.58
276.908	-35.46
277.124	-29.25
277.34	-49.62
277.557	-48.82
277.773	-35.84
277.989	-18.07
278.205	-11.22
278.422	-4.2
278.638	-12.19
278.854	-19.82
279.07	-2.48
279.286	-4.63
279.503	14
279.719	29.88
279.935	37.25
280.151	22.57
280.367	16.09
280.583	-8.44
280.799	-15.49
281.016	-48.64
281.232	-50.86
281.448	-48.71
281.664	-27.9
281.88	-26.84
282.096	-8.02
282.312	-3.01
282.528	4.26
282.744	-8.25
282.96	-11.63
283.176	-44.78
283.392	-72.08
283.608	-66.21
283.824	-79.52
284.04	-148.9
284.256	-64.78
284.471	-42.43
284.687	-48.9
284.903	-23.48
285.119	2.63
285.335	7.21
285.551	17
285.767	16.9
285.982	13.46
286.198	-24.01
286.414	-52.2
286.63	-104.73
286.846	-93.28
287.061	-63.17
287.277	-33.22
287.493	-17.34
287.709	6.72
287.924	24.84
288.14	17.8
288.356	36.66
288.571	31.53
288.787	5.91
289.003	8.76
289.218	-8.97
289.434	-25.24
289.65	-1
289.865	7.36
290.081	-1.54
290.296	10.74
290.512	6.52
290.727	-14.39
290.943	-7.27
291.159	-8.47
291.374	-41.83
291.59	-29.91
291.805	-33.1
292.021	-32.97
292.236	-42.63
292.451	-16.51
292.667	-32.61
292.882	-10.12
293.098	-7.22
293.313	5.67
293.529	3.01
293.744	-4.12
293.959	-10.21
294.175	-12.65
294.39	-37.88
294.605	-16.7
294.821	-11.16
295.036	-16.09
295.251	-7.38
295.467	2.39
295.682	-12.17
295.897	-12.54
296.112	-12.82
296.328	-1.86
296.543	-4.47
296.758	2.35
296.973	-4.36
297.188	-5.08
297.404	-60.46
297.619	-91.7
297.834	-100.38
298.049	-70.38
298.264	-59.58
298.479	-54.79
298.694	-7.06
298.909	2.37
299.125	0.4
299.34	-0.49
299.555	16.4
299.77	29.44
299.985	23.5
300.2	31.38
300.415	23.84
300.63	18.23
300.845	-10.26
301.06	-9.41
301.275	-17.87
301.49	-4.35
301.704	-7.68
301.919	3.92
302.134	11.22
302.349	-3.42
302.564	-13.22
302.779	-31.45
302.994	-31.76
303.209	-32
303.423	-28.9
303.638	-26
303.853	-23.01
304.068	-18.01
304.283	-9.8
304.497	-13.53
304.712	-10.04
304.927	4.13
305.142	11.85
305.356	-2.81
305.571	5.13
305.786	9.81
306	8.12
306.215	-5.91
306.43	-8.97
306.644	-22.33
306.859	-44.92
307.074	-26.9
307.288	-16.92
307.503	5.23
307.717	11.55
307.932	26.72
308.147	10.72
308.361	-3.12
308.576	-29.66
308.79	-33.42
309.005	-62.69
309.219	-26.27
309.434	-4.61
309.648	1.63
309.863	14.13
310.077	18.38
310.292	15.74
310.506	-1.44
310.72	-4.39
310.935	5.72
311.149	13.24
311.364	4.52
311.578	9.02
311.792	7.86
312.007	-2.96
312.221	-41.34
312.435	-13.53
312.649	-12.69
312.864	-12.45
313.078	-3.34
313.292	5.83
313.507	-4.2
313.721	9.42
313.935	22.03
314.149	3.2
314.363	5.78
314.578	-1.31
314.792	-49.79
315.006	-40.71
315.22	-21.4
315.434	-11.21
315.648	-12.81
315.862	3.18
316.077	8.17
316.291	2.6
316.505	-23.03
316.719	-24.94
316.933	-18.48
317.147	-33.54
317.361	-30.99
317.575	-19.59
317.789	-15.28
318.003	-18.91
318.217	-3.93
318.431	-28.48
318.645	-23.43
318.859	-5.31
319.073	-0.44
319.287	-8.96
319.5	3.91
319.714	-0.97
319.928	-16.13
320.142	-20.3
320.356	-18.03
320.57	-43.4
320.784	-30.54
320.997	-56.37
321.211	-23.6
321.425	-45.01
321.639	-7.42
321.853	-10.55
322.066	1.68
322.28	-12.83
322.494	5.97
322.707	4.26
322.921	3.2
323.135	20.15
323.349	19
323.562	9.55
323.776	2.95
323.989	21.71
324.203	-2.56
324.417	-8.37
324.63	-8.54
324.844	-19.21
325.057	-51.9
325.271	-15.88
325.485	-5.96
325.698	10.86
325.912	27.77
326.125	17.41
326.339	10.53
326.552	-2.65
326.766	-32.11
326.979	-35.22
327.193	-7.33
327.406	-16.68
327.619	-7.78
327.833	-1.69
328.046	4.9
328.26	-10.86
328.473	-2.48
328.686	-0.78
328.9	-2.84
329.113	-4.56
329.326	-5.65
329.54	-10.83
329.753	5.65
329.966	13.72
330.179	-2.51
330.393	13.11
330.606	20.04
330.819	6.08
331.032	4.24
331.246	8.82
331.459	7.51
331.672	-0.55
331.885	-0.56
332.098	0.89
332.311	0.46
332.525	-4.39
332.738	-4.59
332.951	-15.9
333.164	-10.41
333.377	-14.49
333.59	-21.88
333.803	-24.28
334.016	-12.61
334.229	-11.88
334.442	0.77
334.655	6.29
334.868	1.59
335.081	-1.98
335.294	-17.44
335.507	-13.62
335.72	-14.45
335.933	-16.81
336.146	-2.9
336.359	17.31
336.572	18.16
336.785	12.45
336.997	12.27
337.21	-5.95
337.423	-34.51
337.636	-27.38
337.849	-8.28
338.062	1.95
338.274	15.32
338.487	-0.79
338.7	-28.24
338.913	-28.37
339.125	-27.39
339.338	-26.57
339.551	-11.68
339.763	0.43
339.976	10.43
340.189	-10.7
340.402	-3.81
340.614	-9.83
340.827	2.5
341.039	-4.38
341.252	1.25
341.465	-12.87
341.677	-5.98
341.89	-16.62
342.102	-17.22
342.315	-6.31
342.527	-0.83
342.74	-9.91
342.952	-7.8
343.165	-10.81
343.377	-14
343.59	-12.26
343.802	-15.41
344.015	-6.5
344.227	-8.92
344.44	-19.91
344.652	-23.03
344.864	-7.38
345.077	3.77
345.289	16.87
345.502	22.43
345.714	22.52
345.926	20.52
346.139	0.9
346.351	-12.29
346.563	-15.34
346.775	-15.59
346.988	-10.08
347.2	-17.12
347.412	-2.44
347.624	-1.96
347.837	10.18
348.049	-0.83
348.261	-11.85
348.473	-25.37
348.685	-29.71
348.897	-67.79
349.11	-42.87
349.322	-23.16
349.534	-19.97
349.746	-20.66
349.958	-12.73
350.17	-41.81
350.382	-43.73
350.594	-46.05
350.806	-22.11
351.018	-15.79
351.23	6.71
351.442	16.02
351.654	22.85
351.866	12.67
352.078	23
352.29	10.88
352.502	7.27
352.714	7.54
352.926	11.68
353.138	4.94
353.35	0.24
353.561	-5.97
353.773	-16.83
353.985	-9.92
354.197	-9.93
354.409	-8.21
354.621	-25.36
354.832	-18.4
355.044	-48.4
355.256	-52.7
355.468	-82.14
355.679	-33.36
355.891	-26.29
356.103	-14.01
356.314	-15.25
356.526	-14.47
356.738	-21.73
356.949	-21.88
357.161	-3.84
357.373	-4.42
357.584	2.75
357.796	0.32
358.008	2.13
358.219	-7.16
358.431	-8.71
358.642	0.77
358.854	12.45
359.065	-3.15
359.277	5.65
359.488	-3.91
359.7	-1.03
359.911	-20.51
360.123	3.94
360.334	-2.98
360.546	-4.79
360.757	-9.9
360.969	-4.79
361.18	-21.02
361.391	-19.95
361.603	-12.54
361.814	-17.2
362.025	0.33
362.237	5.95
362.448	17.18
362.659	17.29
362.871	12.57
363.082	5.04
363.293	-17.37
363.504	-46.85
363.716	-42.51
363.927	-13.09
364.138	-43.94
364.349	-35.41
364.56	-48.3
364.772	-34.98
364.983	-29.19
365.194	-14.93
365.405	-8.25
365.616	10.58
365.827	-9.6
366.038	-5.79
366.25	2.39
366.461	1.35
366.672	0.45
366.883	-2.56
367.094	-18.58
367.305	-37.2
367.516	-38.46
367.727	-63.21
367.938	-49.59
368.149	-59.76
368.36	-58.64
368.571	-79.48
368.781	-71.57
368.992	-68.75
369.203	-48.66
369.414	-46.58
369.625	-37.81
369.836	-7.18
370.047	0.39
370.258	12.96
370.468	16.81
370.679	20.85
370.89	-1.2
371.101	-3.25
371.312	-25.22
371.522	-36.91
371.733	-38.05
371.944	-38.82
372.155	-26.78
372.365	-14.96
372.576	-0.65
372.787	13.78
372.997	21.49
373.208	14.29
373.419	11.97
373.629	-6.09
373.84	-23.55
374.05	-23.3
374.261	-43.74
374.472	-30.02
374.682	-12.61
374.893	-6.82
375.103	-1.1
375.314	6.67
375.524	-6.28
375.735	-2.76
375.945	-2.86
376.156	-11.18
376.366	-20.13
376.577	-14.3
376.787	-12.57
376.997	-0.03
377.208	0.66
377.418	6.64
377.629	5.7
377.839	9.88
378.049	4.22
378.26	-1.37
378.47	-12.75
378.68	-7.59
378.89	-10.41
379.101	-17.46
379.311	-16.44
379.521	-13.03
379.732	-7.49
379.942	-10.95
380.152	-16.18
380.362	-1.73
380.572	12.15
380.783	14.57
380.993	13.37
381.203	23.5
381.413	17.6
381.623	12.16
381.833	5.31
382.043	-1.36
382.253	-1.65
382.463	9.71
382.674	11.65
382.884	18
383.094	19.39
383.304	16.83
383.514	9.48
383.724	4.11
383.934	-10.16
384.144	-6.43
384.353	-11.85
384.563	-11.36
384.773	-5.82
384.983	-5.49
385.193	-7.75
385.403	-2.89
385.613	-2.07
385.823	-3.26
386.033	1.83
386.242	-2.6
386.452	-9.5
386.662	-13.48
386.872	-9.75
387.082	-9.35
387.291	-8.11
387.501	-3
387.711	-2.23
387.921	-2.04
388.13	-0.88
388.34	1.12
388.55	-2.26
388.759	-5.94
388.969	-6.91
389.179	-7.6
389.388	-8.16
389.598	-8.14
389.807	-6.23
390.017	-7.66
390.227	-5.71
390.436	-3.72
390.646	-0.16
390.855	-0.98
391.065	-0.5
391.274	-0.86
391.484	0.28
391.693	-2.8
391.903	-0.85
392.112	-1.18
392.322	-3.15
392.531	-4.21
392.74	-3.32
392.95	-3.35
393.159	-5.2
393.369	-3.83
393.578	-3.15
393.787	-2.68
393.997	-2.98
394.206	-1.04
394.415	0.21
394.625	0.57
394.834	0.12
395.043	1.26
395.252	3.34
395.462	2.59
395.671	1.74
395.88	3.89
396.089	3.49
396.298	1.72
396.508	1.8
396.717	2.39
396.926	1.52
397.135	1.4
397.344	1.46
397.553	1.41
397.762	2.81
397.971	2.66
398.181	3.1
398.39	3.46
398.599	3.84
398.808	2.99
399.017	3.35
399.226	3.02
399.435	2.75
399.644	3.05
399.853	3.05
400.062	2.85
400.27	2.72
400.479	3
400.688	2.93
400.897	2.58
401.106	2.57
401.315	2.64
401.524	2.72
401.733	1.92
401.941	2.48
402.15	2.79
402.359	2.9
402.568	3.03
402.777	3.86
402.985	3.51
403.194	3.39
403.403	3.5
403.612	3.29
403.82	2.81
404.029	2.89
404.238	2.8
404.446	2.86
404.655	2.82
404.864	3.03
405.072	2.85
405.281	2.86
405.489	2.69
405.698	2.82
405.906	2.93
406.115	2.93
406.324	2.91
406.532	3.03
406.741	3.03
406.949	2.92
407.158	3.11
407.366	3.1
407.574	3.12
407.783	3.03
407.991	3.11
408.2	3.09
408.408	3.15
408.617	3.1
408.825	2.99
409.033	2.94
409.242	2.93
409.45	2.89
409.658	2.86
409.867	3.02
410.075	3.06
410.283	2.96
410.491	2.91
410.7	2.78
410.908	2.76
411.116	2.76
411.324	2.72
411.533	2.75
411.741	2.84
411.949	2.77
412.157	2.59
412.365	2.68
412.573	2.67
412.781	2.57
412.99	2.55
413.198	2.68
413.406	2.66
413.614	2.74
413.822	2.91
414.03	2.89
414.238	2.95
414.446	2.94
414.654	2.87
414.862	2.76
415.07	2.75
415.278	2.73
415.486	2.59
415.694	2.55
415.902	2.56
416.109	2.52
416.317	2.42
416.525	2.46
416.733	2.39
416.941	2.37
417.149	2.38
417.357	2.45
417.564	2.52
417.772	2.67
417.98	2.54
418.188	2.44
418.395	2.16
418.603	2.08
418.811	1.94
419.019	1.97
419.226	2.03
419.434	2.26
419.642	2.23
419.849	2.16
420.057	2.33
420.265	2.35
420.472	2.27
420.68	2.22
420.887	2.36
421.095	2.37
421.302	2.55
421.51	2.43
421.717	2.63
421.925	2.64
422.132	2.56
422.34	2.29
422.547	2.29
422.755	2.3
422.962	2.23
423.17	2.1
423.377	2.16
423.585	2.37
423.792	2.23
423.999	2.34
424.207	2.23
424.414	2.23
424.621	2.12
424.829	2.2
425.036	2.33
425.243	2.55
425.451	2.61
425.658	2.63
425.865	2.56
426.072	2.37
426.28	2.35
426.487	2.34
426.694	2.32
426.901	2.42
427.108	2.35
427.315	2.22
427.523	2.15
427.73	2.15
427.937	2.09
428.144	2.12
428.351	2.17
428.558	2.26
428.765	2.3
428.972	2.2
429.179	2.17
429.386	2.19
429.593	1.98
429.8	2
430.007	2.17
430.214	2.1
430.421	2.29
430.628	2.36
430.835	2.33
431.042	2.18
431.249	2.3
431.456	2.24
431.662	2.36
431.869	2.5
432.076	2.61
432.283	2.72
432.49	2.59
432.697	2.59
432.903	2.45
433.11	2.49
433.317	2.46
433.524	2.7
433.73	2.68
433.937	2.71
434.144	2.54
434.35	2.43
434.557	2.26
434.764	2.37
434.97	2.36
435.177	2.6
435.384	2.64
435.59	2.72
435.797	2.68
436.003	2.73
436.21	2.59
436.416	2.58
436.623	2.54
436.829	2.48
437.036	2.51
437.242	2.62
437.449	2.59
437.655	2.75
437.862	2.76
438.068	2.71
438.275	2.75
438.481	2.92
438.687	2.72
438.894	2.9
439.1	2.92
439.307	2.95
439.513	2.97
439.719	3.1
439.926	2.95
440.132	3
440.338	2.97
440.544	2.89
440.751	2.83
440.957	2.98
441.163	2.98
441.369	2.94
441.575	2.9
441.782	2.99
441.988	2.98
442.194	3.01
442.4	2.95
442.606	3.15
442.812	3.16
443.018	3.13
443.224	3.22
443.431	3.35
443.637	3.24
443.843	3.31
444.049	3.31
444.255	3.27
444.461	3.16
444.667	3.19
444.873	3.11
445.079	3.04
445.284	3.01
445.49	3.05
445.696	3.02
445.902	3.05
446.108	3.19
446.314	3.19
446.52	3.22
446.726	3.31
446.931	3.28
447.137	3.22
447.343	3.26
447.549	3.33
447.755	3.32
447.96	3.39
448.166	3.42
448.372	3.35
448.578	3.26
448.783	3.26
448.989	3.31
449.195	3.26
449.4	3.32
449.606	3.39
449.812	3.33
450.017	3.23
450.223	3.26
450.428	3.26
450.634	3.26
450.84	3.25
451.045	3.33
451.251	3.41
451.456	3.42
451.662	3.39
451.867	3.44
452.073	3.47
452.278	3.32
452.483	3.32
452.689	3.42
452.894	3.52
453.1	3.47
453.305	3.5
453.51	3.6
453.716	3.59
453.921	3.6
454.127	3.59
454.332	3.68
454.537	3.58
454.742	3.53
454.948	3.43
455.153	3.49
455.358	3.44
455.563	3.57
455.769	3.55
455.974	3.55
456.179	3.49
456.384	3.52
456.589	3.42
456.795	3.5
457	3.53
457.205	3.55
457.41	3.55
457.615	3.59
457.82	3.66
458.025	3.67
458.23	3.67
458.435	3.67
458.64	3.68
458.845	3.57
459.05	3.58
459.255	3.61
459.46	3.57
459.665	3.56
459.87	3.53
460.075	3.62
460.28	3.68
460.485	3.79
460.69	3.82
460.895	3.92
461.099	3.79
461.304	3.69
461.509	3.64
461.714	3.73
461.919	3.59
462.123	3.69
462.328	3.7
462.533	3.62
462.738	3.48
462.942	3.56
463.147	3.51
463.352	3.56
463.556	3.72
463.761	3.62
463.966	3.63
464.17	3.71
464.375	3.72
464.58	3.66
464.784	3.85
464.989	3.88
465.193	3.9
465.398	3.88
465.602	4.05
465.807	4.05
466.011	4.08
466.216	3.97
466.42	4
466.625	3.93
466.829	3.92
467.034	3.94
467.238	4.08
467.443	4.14
467.647	4.16
467.851	4.18
468.056	4.16
468.26	4.12
468.464	4.09
468.669	4.08
468.873	4.07
469.077	4.13
469.282	4.18
469.486	4.15
469.69	4.18
469.894	4.25
470.099	4.23
470.303	4.28
470.507	4.44
470.711	4.42
470.915	4.46
471.119	4.51
471.324	4.51
471.528	4.45
471.732	4.42
471.936	4.43
472.14	4.43
472.344	4.5
472.548	4.52
472.752	4.61
472.956	4.64
473.16	4.62
473.364	4.63
473.568	4.51
473.772	4.56
473.976	4.63
474.18	4.69
474.384	4.6
474.588	4.75
474.792	4.77
474.995	4.7
475.199	4.68
475.403	4.72
475.607	4.75
475.811	4.74
476.015	4.71
476.218	4.66
476.422	4.81
476.626	4.87
476.83	4.92
477.033	5
477.237	5.12
477.441	4.97
477.644	4.92
477.848	4.93
478.052	4.92
478.255	4.94
478.459	4.97
478.663	5.06
478.866	5.08
479.07	5.09
479.273	5.06
479.477	5.12
479.681	5.13
479.884	5.16
480.088	5.22
480.291	5.17
480.495	5.22
480.698	5.22
480.901	5.14
481.105	5.11
481.308	5.2
481.512	5.16
481.715	5.24
481.919	5.3
482.122	5.35
482.325	5.4
482.529	5.4
482.732	5.3
482.935	5.32
483.138	5.29
483.342	5.3
483.545	5.43
483.748	5.53
483.952	5.51
484.155	5.61
484.358	5.58
484.561	5.49
484.764	5.39
484.967	5.41
485.171	5.41
485.374	5.36
485.577	5.47
485.78	5.46
485.983	5.43
486.186	5.36
486.389	5.43
486.592	5.37
486.795	5.47
486.998	5.49
487.201	5.55
487.404	5.67
487.607	5.74
487.81	5.64
488.013	5.74
488.216	5.68
488.419	5.61
488.622	5.58
488.825	5.65
489.028	5.56
489.231	5.53
489.433	5.56
489.636	5.54
489.839	5.54
490.042	5.54
490.245	5.59
490.447	5.51
490.65	5.49
490.853	5.53
491.056	5.58
491.258	5.65
491.461	5.61
491.664	5.63
491.866	5.55
492.069	5.57
492.272	5.5
492.474	5.62
492.677	5.66
492.879	5.67
493.082	5.72
493.285	5.86
493.487	5.85
493.69	5.83
493.892	5.91
494.095	5.85
494.297	5.84
494.5	5.83
494.702	5.85
494.905	5.84
495.107	5.85
495.309	5.82
495.512	5.85
495.714	5.85
495.917	5.89
496.119	5.95
496.321	5.94
496.524	5.91
496.726	5.92
496.928	5.94
497.13	5.98
497.333	6.01
497.535	6.09
497.737	6.15
497.939	6.15
498.142	6.12
498.344	6.11
498.546	6.1
498.748	6.11
498.95	6.09
499.152	6.1
499.355	6.11
499.557	6.13
499.759	6.2
499.961	6.27
500.163	6.27
500.365	6.38
500.567	6.37
500.769	6.37
500.971	6.45
501.173	6.43
501.375	6.37
501.577	6.38
501.779	6.31
501.981	6.27
502.183	6.32
502.385	6.4
502.587	6.42
502.788	6.54
502.99	6.55
503.192	6.63
503.394	6.66
503.596	6.69
503.798	6.65
503.999	6.67
504.201	6.65
504.403	6.68
504.605	6.69
504.806	6.77
505.008	6.84
505.21	6.84
505.411	6.76
505.613	6.83
505.815	6.83
506.016	6.87
506.218	6.91
506.42	6.98
506.621	7.03
506.823	7
507.024	7
507.226	7.08
507.427	7.19
507.629	7.19
507.83	7.27
508.032	7.25
508.233	7.27
508.435	7.26
508.636	7.3
508.838	7.36
509.039	7.37
509.24	7.34
509.442	7.34
509.643	7.31
509.845	7.32
510.046	7.5
510.247	7.57
510.448	7.61
510.65	7.68
510.851	7.68
511.052	7.59
511.254	7.64
511.455	7.61
511.656	7.6
511.857	7.58
512.058	7.63
512.26	7.56
512.461	7.6
512.662	7.59
512.863	7.57
513.064	7.57
513.265	7.52
513.466	7.59
513.667	7.64
513.868	7.7
514.069	7.67
514.27	7.77
514.471	7.72
514.672	7.78
514.873	7.73
515.074	7.82
515.275	7.79
515.476	7.78
515.677	7.76
515.878	7.86
516.079	7.85
516.28	7.93
516.481	7.99
516.682	7.97
516.882	7.98
517.083	7.99
517.284	8.02
517.485	8
517.686	8.08
517.886	8.07
518.087	8.05
518.288	8.07
518.488	8.09
518.689	8.03
518.89	8.07
519.091	8.16
519.291	8.11
519.492	8.17
519.692	8.22
519.893	8.28
520.094	8.23
520.294	8.36
520.495	8.37
520.695	8.41
520.896	8.42
521.096	8.47
521.297	8.41
521.497	8.35
521.698	8.31
521.898	8.3
522.099	8.31
522.299	8.35
522.499	8.37
522.7	8.41
522.9	8.39
523.101	8.36
523.301	8.38
523.501	8.42
523.702	8.44
523.902	8.44
524.102	8.59
524.302	8.66
524.503	8.66
524.703	8.67
524.903	8.74
525.103	8.6
525.304	8.48
525.504	8.6
525.704	8.6
525.904	8.54
526.104	8.62
526.304	8.72
526.504	8.65
526.705	8.69
526.905	8.75
527.105	8.78
527.305	8.76
527.505	8.73
527.705	8.68
527.905	8.72
528.105	8.67
528.305	8.71
528.505	8.77
528.705	8.92
528.905	8.95
529.105	8.99
529.304	8.98
529.504	9.06
529.704	8.98
529.904	8.98
530.104	8.96
530.304	8.96
530.503	8.94
530.703	8.95
530.903	8.97
531.103	9.05
531.303	9.1
531.502	9.15
531.702	9.22
531.902	9.32
532.101	9.32
532.301	9.34
532.501	9.38
532.7	9.41
532.9	9.41
533.1	9.43
533.299	9.47
533.499	9.43
533.698	9.43
533.898	9.43
534.097	9.43
534.297	9.41
534.496	9.4
534.696	9.41
534.895	9.38
535.095	9.43
535.294	9.5
535.494	9.52
535.693	9.55
535.892	9.63
536.092	9.63
536.291	9.62
536.491	9.66
536.69	9.67
536.889	9.59
537.088	9.66
537.288	9.64
537.487	9.71
537.686	9.75
537.886	9.86
538.085	9.84
538.284	9.91
538.483	9.9
538.682	9.89
538.882	9.95
539.081	9.98
539.28	9.99
539.479	10.07
539.678	10.11
539.877	10.13
540.076	10.19
540.275	10.25
540.474	10.23
540.673	10.28
540.872	10.28
541.071	10.31
541.27	10.32
541.469	10.35
541.668	10.33
541.867	10.37
542.066	10.39
542.265	10.55
542.464	10.61
542.663	10.7
542.862	10.79
543.06	10.88
543.259	10.9
543.458	10.93
543.657	10.95
543.856	10.97
544.054	10.98
544.253	11
544.452	11.07
544.651	11.16
544.849	11.19
545.048	11.2
545.247	11.27
545.445	11.28
545.644	11.32
545.843	11.35
546.041	11.37
546.24	11.36
546.438	11.43
546.637	11.44
546.836	11.53
547.034	11.61
547.233	11.67
547.431	11.68
547.63	11.73
547.828	11.78
548.027	11.83
548.225	11.86
548.423	11.94
548.622	11.99
548.82	12.07
549.019	12.11
549.217	12.13
549.415	12.2
549.614	12.35
549.812	12.37
550.01	12.41
550.209	12.55
550.407	12.63
550.605	12.58
550.803	12.66
551.002	12.81
551.2	12.83
551.398	12.97
551.596	13.03
551.794	13.1
551.993	13.13
552.191	13.28
552.389	13.26
552.587	13.35
552.785	13.44
552.983	13.57
553.181	13.6
553.379	13.72
553.577	13.8
553.775	13.92
553.973	13.99
554.171	14.07
554.369	14.12
554.567	14.24
554.765	14.22
554.963	14.25
555.161	14.3
555.359	14.39
555.557	14.45
555.755	14.58
555.952	14.69
556.15	14.83
556.348	14.91
556.546	15.02
556.744	15.08
556.941	15.12
557.139	15.2
557.337	15.28
557.535	15.32
557.732	15.43
557.93	15.62
558.128	15.73
558.325	15.86
558.523	15.98
558.721	16.13
558.918	16.22
559.116	16.34
559.313	16.43
559.511	16.53
559.708	16.63
559.906	16.77
560.104	16.86
560.301	16.97
560.498	17.12
560.696	17.13
560.893	17.17
561.091	17.22
561.288	17.39
561.486	17.43
561.683	17.56
561.88	17.68
562.078	17.8
562.275	17.85
562.473	17.97
562.67	18.1
562.867	18.13
563.064	18.21
563.262	18.28
563.459	18.41
563.656	18.53
563.853	18.65
564.051	18.84
564.248	18.92
564.445	18.97
564.642	19.04
564.839	19.21
565.036	19.34
565.234	19.45
565.431	19.59
565.628	19.66
565.825	19.67
566.022	19.72
566.219	19.81
566.416	19.86
566.613	20.04
566.81	20.17
567.007	20.22
567.204	20.28
567.401	20.41
567.598	20.39
567.795	20.5
567.991	20.64
568.188	20.76
568.385	20.8
568.582	20.91
568.779	20.94
568.976	21.02
569.172	21.12
569.369	21.21
569.566	21.23
569.763	21.25
569.96	21.32
570.156	21.39
570.353	21.45
570.55	21.55
570.746	21.68
570.943	21.72
571.14	21.71
571.336	21.74
571.533	21.81
571.729	21.85
571.926	21.85
572.123	21.97
572.319	22.1
572.516	22.21
572.712	22.27
572.909	22.29
573.105	22.43
573.302	22.41
573.498	22.36
573.695	22.4
573.891	22.52
574.087	22.33
574.284	22.39
574.48	22.52
574.677	22.6
574.873	22.6
575.069	22.78
575.266	22.85
575.462	22.81
575.658	22.82
575.854	22.78
576.051	22.77
576.247	22.62
576.443	22.6
576.639	22.52
576.835	22.55
577.032	22.58
577.228	22.71
577.424	22.73
577.62	22.79
577.816	22.77
578.012	22.73
578.208	22.79
578.404	22.85
578.6	22.94
578.796	22.97
578.993	23.05
579.189	23.02
579.384	23
579.58	22.94
579.776	23
579.972	22.98
580.168	22.99
580.364	23.05
580.56	22.99
580.756	22.96
580.952	22.91
581.148	22.97
581.343	22.95
581.539	23.04
581.735	22.97
581.931	22.96
582.127	22.81
582.322	22.8
582.518	22.76
582.714	22.71
582.909	22.72
583.105	22.75
583.301	22.74
583.496	22.68
583.692	22.66
583.888	22.65
584.083	22.68
584.279	22.64
584.474	22.61
584.67	22.68
584.866	22.68
585.061	22.63
585.257	22.59
585.452	22.64
585.648	22.56
585.843	22.64
586.039	22.65
586.234	22.72
586.429	22.71
586.625	22.81
586.82	22.75
587.015	22.77
587.211	22.71
587.406	22.69
587.601	22.79
587.797	22.78
587.992	22.73
588.187	22.7
588.383	22.82
588.578	22.76
588.773	22.8
588.968	22.99
589.163	23.15
589.359	23.11
589.554	23.01
589.749	23.09
589.944	23.04
590.139	23.11
590.334	23.2
590.529	23.36
590.724	23.37
590.919	23.4
591.114	23.36
591.309	23.25
591.504	23.31
591.699	23.35
591.894	23.29
592.089	23.3
592.284	23.44
592.479	23.39
592.674	23.46
592.869	23.51
593.064	23.58
593.259	23.67
593.454	23.75
593.648	23.76
593.843	23.85
594.038	23.9
594.233	23.9
594.428	23.99
594.622	24.03
594.817	24.11
595.012	24.14
595.206	24.23
595.401	24.34
595.596	24.42
595.79	24.45
595.985	24.49
596.18	24.62
596.374	24.69
596.569	24.76
596.763	24.89
596.958	25.09
597.153	25.16
597.347	25.13
597.542	25.23
597.736	25.41
597.931	25.42
598.125	25.48
598.319	25.6
598.514	25.57
598.708	25.63
598.903	25.69
599.097	25.79
599.291	25.86
599.486	26.04
599.68	26.04
599.874	26.12
600.069	26.16
600.263	26.31
600.457	26.42
600.651	26.44
600.846	26.54
601.04	26.59
601.234	26.56
601.428	26.59
601.622	26.63
601.817	26.57
602.011	26.54
602.205	26.63
602.399	26.5
602.593	26.64
602.787	26.66
602.981	26.74
603.175	26.75
603.369	26.78
603.563	26.75
603.757	26.78
603.951	26.79
604.145	26.77
604.339	26.88
604.533	26.78
604.727	26.73
604.921	26.68
605.115	26.59
605.309	26.4
605.502	26.5
605.696	26.6
605.89	26.58
606.084	26.59
606.278	26.7
606.471	26.66
606.665	26.6
606.859	26.62
607.053	26.6
607.246	26.42
607.44	26.25
607.634	26.18
607.827	26.06
608.021	25.89
608.214	25.92
608.408	25.91
608.602	25.75
608.795	25.7
608.989	25.73
609.182	25.68
609.376	25.63
609.569	25.61
609.763	25.53
609.956	25.49
610.15	25.5
610.343	25.45
610.537	25.45
610.73	25.26
610.923	25.2
611.117	25.1
611.31	25.05
611.504	24.95
611.697	25.07
611.89	24.98
612.083	24.78
612.277	24.73
612.47	24.61
612.663	24.55
612.856	24.46
613.05	24.47
613.243	24.38
613.436	24.3
613.629	24.17
613.822	24.14
614.015	24.04
614.209	23.95
614.402	23.91
614.595	23.86
614.788	23.79
614.981	23.77
615.174	23.61
615.367	23.53
615.56	23.38
615.753	23.41
615.946	23.33
616.139	23.44
616.332	23.44
616.525	23.45
616.718	23.27
616.911	23.22
617.103	23.12
617.296	23
617.489	22.84
617.682	22.88
617.875	22.84
618.067	22.73
618.26	22.7
618.453	22.77
618.646	22.65
618.838	22.55
619.031	22.6
619.224	22.55
619.417	22.54
619.609	22.56
619.802	22.57
619.994	22.4
620.187	22.43
620.38	22.38
620.572	22.3
620.765	22.31
620.957	22.33
621.15	22.32
621.342	22.32
621.535	22.3
621.727	22.2
621.92	22.21
622.112	22.17
622.305	22.06
622.497	22.03
622.69	22.03
622.882	22.03
623.074	22.07
623.267	22.04
623.459	21.96
623.651	21.97
623.844	21.97
624.036	21.94
624.228	22.01
624.42	22.02
624.613	21.98
624.805	21.98
624.997	21.84
625.189	21.8
625.381	21.78
625.574	21.75
625.766	21.68
625.958	21.68
626.15	21.55
626.342	21.52
626.534	21.54
626.726	21.5
626.918	21.56
627.11	21.48
627.302	21.53
627.494	21.44
627.686	21.35
627.878	21.25
628.07	21.25
628.262	21.23
628.454	21.23
628.646	21.22
628.838	21.18
629.029	21.15
629.221	21.04
629.413	20.94
629.605	20.94
629.797	20.85
629.989	20.86
630.18	20.84
630.372	20.84
630.564	20.78
630.755	20.87
630.947	20.82
631.139	20.73
631.33	20.75
631.522	20.77
631.714	20.7
631.905	20.73
632.097	20.74
632.289	20.7
632.48	20.63
632.672	20.6
632.863	20.5
633.055	20.47
633.246	20.46
633.438	20.47
633.629	20.55
633.821	20.61
634.012	20.62
634.203	20.58
634.395	20.57
634.586	20.43
634.777	20.37
634.969	20.38
635.16	20.36
635.351	20.24
635.543	20.2
635.734	20.16
635.925	20.17
636.117	20.2
636.308	20.26
636.499	20.32
636.69	20.37
636.881	20.27
637.073	20.22
637.264	20.22
637.455	20.16
637.646	20.11
637.837	20.15
638.028	20.07
638.219	20.13
638.41	20.16
638.601	20.23
638.792	20.31
638.983	20.36
639.174	20.23
639.365	20.25
639.556	20.08
639.747	19.98
639.938	20.01
640.129	20.01
640.32	20
640.511	20.02
640.701	20.07
640.892	19.95
641.083	19.93
641.274	19.78
641.465	19.78
641.655	19.66
641.846	19.64
642.037	19.62
642.228	19.61
642.418	19.48
642.609	19.53
642.8	19.52
642.99	19.49
643.181	19.52
643.372	19.5
643.562	19.41
643.753	19.41
643.943	19.3
644.134	19.2
644.324	19.29
644.515	19.3
644.705	19.3
644.896	19.42
645.086	19.45
645.277	19.47
645.467	19.48
645.658	19.32
645.848	19.22
646.038	19.2
646.229	19.2
646.419	19.17
646.61	19.2
646.8	19.15
646.99	19.18
647.18	19
647.371	19
647.561	18.91
647.751	18.95
647.941	18.84
648.132	18.89
648.322	18.75
648.512	18.83
648.702	18.84
648.892	18.91
649.082	18.9
649.272	18.9
649.462	19
649.653	18.87
649.843	18.73
650.033	18.67
650.223	18.72
650.413	18.61
650.603	18.57
650.793	18.57
650.983	18.51
651.172	18.4
651.362	18.3
651.552	18.29
651.742	18.27
651.932	18.3
652.122	18.3
652.312	18.33
652.502	18.18
652.691	18.12
652.881	17.97
653.071	17.85
653.261	17.68
653.45	17.65
653.64	17.56
653.83	17.48
654.019	17.33
654.209	17.2
654.399	17.2
654.588	17
654.778	16.81
654.968	16.72
655.157	16.52
655.347	16.27
655.536	16.22
655.726	16.08
655.915	15.94
656.105	15.91
656.294	15.78
656.484	15.53
656.673	15.51
656.863	15.45
657.052	15.3
657.241	15.15
657.431	15.1
657.62	14.88
657.809	14.59
657.999	14.48
658.188	14.38
658.377	14.12
658.567	13.98
658.756	13.86
658.945	13.65
659.134	13.39
659.324	13.23
659.513	13.05
659.702	12.82
659.891	12.57
660.08	12.48
660.269	12.33
660.458	12.16
660.648	12.01
660.837	11.96
661.026	11.65
661.215	11.47
661.404	11.29
661.593	11.22
661.782	11.01
661.971	10.96
662.16	10.84
662.349	10.71
662.538	10.47
662.726	10.25
662.915	10.2
663.104	10.11
663.293	10.01
663.482	9.93
663.671	9.93
663.86	9.82
664.048	9.63
664.237	9.45
664.426	9.32
664.615	9.11
664.803	8.93
664.992	8.9
665.181	8.85
665.369	8.76
665.558	8.76
665.747	8.76
665.935	8.67
666.124	8.65
666.312	8.69
666.501	8.62
666.69	8.57
666.878	8.52
667.067	8.32
667.255	8.15
667.444	8.19
667.632	8.14
667.82	8.1
668.009	8.12
668.197	8.07
668.386	7.87
668.574	7.77
668.762	7.66
668.951	7.67
669.139	7.63
669.327	7.68
669.516	7.68
669.704	7.71
669.892	7.6
670.08	7.64
670.269	7.65
670.457	7.65
670.645	7.64
670.833	7.73
671.021	7.91
671.21	7.89
671.398	7.86
671.586	7.86
671.774	7.9
671.962	7.67
672.15	7.67
672.338	7.69
672.526	7.72
672.714	7.71
672.902	7.76
673.09	7.93
673.278	7.94
673.466	7.92
673.654	7.95
673.842	8.11
674.03	7.99
674.218	8.05
674.405	8.18
674.593	8.27
674.781	8.3
674.969	8.45
675.157	8.49
675.344	8.57
675.532	8.64
675.72	8.71
675.908	8.71
676.095	8.84
676.283	8.96
676.471	8.97
676.658	9
676.846	9.08
677.033	9.05
677.221	8.94
677.409	9.01
677.596	9.17
677.784	9.33
677.971	9.43
678.159	9.47
678.346	9.54
678.534	9.5
678.721	9.51
678.909	9.65
679.096	9.83
679.283	9.96
679.471	10.09
679.658	10.22
679.846	10.32
680.033	10.52
680.22	10.71
680.408	10.78
680.595	10.89
680.782	11.03
680.969	11.11
681.157	11.17
681.344	11.27
681.531	11.42
681.718	11.63
681.905	11.72
682.093	11.84
682.28	12.19
682.467	12.36
682.654	12.43
682.841	12.71
683.028	12.81
683.215	12.98
683.402	13.11
683.589	13.26
683.776	13.43
683.963	13.82
684.15	14.02
684.337	14.37
684.524	14.79
684.711	15.09
684.898	15.14
685.085	15.43
685.271	15.72
685.458	15.86
685.645	16.01
685.832	16.61
686.019	16.81
686.205	17.05
686.392	17.38
686.579	17.88
686.766	18.12
686.952	18.48
687.139	18.77
687.326	19.34
687.512	19.75
687.699	20.11
687.886	20.54
688.072	20.99
688.259	21.33
688.445	21.61
688.632	22.02
688.818	22.55
689.005	23.11
689.191	23.74
689.378	24.19
689.564	24.75
689.751	25.45
689.937	26.12
690.124	26.7
690.31	27.39
690.496	28.09
690.683	28.63
690.869	29.12
691.055	29.5
691.242	30.19
691.428	30.79
691.614	31.49
691.8	32.35
691.987	33.11
692.173	33.81
692.359	34.47
692.545	35.07
692.731	35.63
692.918	36.22
693.104	36.93
693.29	37.64
693.476	38.29
693.662	38.93
693.848	39.53
694.034	40.23
694.22	40.86
694.406	41.41
694.592	42.28
694.778	43.07
694.964	43.82
695.15	44.39
695.336	45.14
695.522	45.51
695.708	46.15
695.894	46.74
696.08	47.51
696.265	48.13
696.451	48.69
696.637	49.56
696.823	50.25
697.009	50.72
697.194	51.58
697.38	52.29
697.566	52.58
697.751	52.95
697.937	53.69
698.123	53.97
698.308	54.56
698.494	55.38
698.68	56.13
698.865	56.79
699.051	57.51
699.236	58.19
699.422	58.64
699.607	59.37
699.793	60
699.978	60.49
700.164	60.9
700.349	61.39
700.535	61.4
700.72	61.6
700.906	61.78
701.091	62.29
701.276	62.68
701.462	63.27
701.647	63.75
701.832	64.49
702.018	65.03
702.203	65.51
702.388	66.03
702.573	66.56
702.759	67.07
702.944	67.13
703.129	67.45
703.314	67.44
703.499	67.55
703.684	67.84
703.87	68.36
704.055	68.85
704.24	69.37
704.425	69.95
704.61	70.32
704.795	70.68
704.98	70.67
705.165	70.98
705.35	71.12
705.535	71.35
705.72	71.41
705.905	72.27
706.09	72.92
706.275	72.93
706.459	73.2
706.644	73.47
706.829	73.36
707.014	73.66
707.199	74.39
707.384	74.54
707.568	74.75
707.753	75.05
707.938	74.71
708.123	75.02
708.307	75.32
708.492	75.64
708.677	75.71
708.861	76.13
709.046	75.8
709.231	75.81
709.415	76.05
709.6	76.32
709.784	76.33
709.969	76.77
710.153	76.89
710.338	76.97
710.522	77.1
710.707	77.17
710.891	77.29
711.076	77.31
711.26	77.59
711.445	77.72
711.629	78.05
711.813	78.41
711.998	78.6
712.182	78.3
712.366	78.62
712.551	78.86
712.735	78.56
712.919	78.86
713.103	79.47
713.288	79.35
713.472	79.81
713.656	79.81
713.84	80.03
714.024	80.21
714.208	80.17
714.393	79.94
714.577	80.34
714.761	80.6
714.945	80.56
715.129	81.16
715.313	81.4
715.497	81.19
715.681	80.93
715.865	80.82
716.049	80.63
716.233	80.45
716.417	80.41
716.601	80.66
716.785	81.16
716.968	81.48
717.152	81.41
717.336	82.19
717.52	82.5
717.704	82.8
717.888	83.11
718.071	83.36
718.255	83.5
718.439	83.35
718.622	82.83
718.806	82.11
718.99	82.01
719.174	81.77
719.357	81.87
719.541	82.45
719.724	83.01
719.908	83.35
720.092	83.16
720.275	83.36
720.459	83.4
720.642	83.24
720.826	83.29
721.009	83.46
721.193	83.04
721.376	82.98
721.559	83.14
721.743	83.57
721.926	83.89
722.11	84.41
722.293	84.37
722.476	84.61
722.66	84.86
722.843	84.83
723.026	85.1
723.21	85.06
723.393	85.44
723.576	85.41
723.759	85.55
723.942	85.6
724.126	85.95
724.309	85.34
724.492	84.87
724.675	85.12
724.858	84.94
725.041	85.17
725.224	86.14
725.407	85.81
725.59	85.59
725.774	85.73
725.957	85.75
726.14	85.23
726.322	85.58
726.505	85.96
726.688	86.03
726.871	85.74
727.054	86.04
727.237	86.39
727.42	86.34
727.603	86.24
727.786	86.37
727.968	86.12
728.151	86.1
728.334	86.56
728.517	86.55
728.699	86.94
728.882	87.13
729.065	87.41
729.248	86.95
729.43	87.15
729.613	87.03
729.796	87.17
729.978	86.68
730.161	86.41
730.343	86.43
730.526	86.24
730.708	86.1
730.891	86.66
731.073	86.83
731.256	87.25
731.438	88.27
731.621	88.7
731.803	88.37
731.986	88.43
732.168	88.75
732.35	88.61
732.533	87.96
732.715	88.26
732.898	89.28
733.08	88.74
733.262	88.63
733.444	89.42
733.627	89.72
733.809	89.04
733.991	89.41
734.173	88.47
734.355	88.16
734.538	88.27
734.72	88.89
734.902	89.11
735.084	89.69
735.266	90.32
735.448	90.56
735.63	90.02
735.812	89.52
735.994	88.98
736.176	89.09
736.358	90.02
736.54	91.2
736.722	91.15
736.904	91.77
737.086	91.2
737.268	90.36
737.45	89.75
737.632	90.47
737.814	90.94
737.995	90.88
738.177	90.58
738.359	90.64
738.541	90.51
738.723	89.97
738.904	90.22
739.086	90.26
739.268	90.45
739.449	90.42
739.631	90.83
739.813	89.86
739.994	90.33
740.176	90.49
740.358	90.76
740.539	90.72
740.721	92.36
740.902	91.48
741.084	91.86
741.265	91.59
741.447	92.17
741.628	92.21
741.81	93.63
741.991	92.96
742.172	93.02
742.354	92.41
742.535	92.15
742.717	90.89
742.898	91.07
743.079	91.2
743.261	91.4
743.442	90.01
743.623	90.13
743.804	89.97
743.986	89.23
744.167	88.88
744.348	89.32
744.529	89.58
744.71	88.89
744.891	88.98
745.073	89.27
745.254	89.92
745.435	89.18
745.616	89.42
745.797	89.5
745.978	89.57
746.159	88.48
746.34	89.41
746.521	90
746.702	90.64
746.883	90.28
747.064	91.2
747.245	91.5
747.426	90.85
747.606	90.83
747.787	91.38
747.968	91.44
748.149	90.19
748.33	89.01
748.51	87.47
748.691	87.52
748.872	88.7
749.053	89.04
749.233	89.91
749.414	91
749.595	90.47
749.775	87.98
749.956	87.66
750.137	88.4
750.317	87.68
750.498	87.36
750.678	88.62
750.859	89.9
751.04	89.24
751.22	89.41
751.4	89.9
751.581	90.2
751.761	89.32
751.942	90.2
752.122	91.72
752.303	91.51
752.483	90.75
752.663	91.16
752.844	90.12
753.024	89.7
753.204	89.48
753.385	89.77
753.565	90.23
753.745	89.75
753.925	88.35
754.106	88.05
754.286	87.56
754.466	86.95
754.646	87.9
754.826	89.39
755.006	88.47
755.187	89.85
755.367	89.89
755.547	89.31
755.727	88.13
755.907	89.26
756.087	88.28
756.267	86.4
756.447	87.22
756.627	87.48
756.807	88.09
756.987	87.83
757.167	89.52
757.346	88.75
757.526	89.41
757.706	87.63
757.886	87.71
758.066	86.97
758.246	86.85
758.425	86.78
758.605	87.85
758.785	88.31
758.965	89.47
759.144	88.32
759.324	89.13
759.504	89.37
759.683	88.96
759.863	88.34
760.043	88.68
760.222	87.41
760.402	87.13
760.581	88.2
760.761	88.05
760.94	88.16
761.12	87.46
761.299	87.92
761.479	87.74
761.658	87.17
761.838	88.65
762.017	89.08
762.197	87.93
762.376	86.85
762.555	88.26
762.735	87.35
762.914	87.16
763.093	87.16
763.273	87.32
763.452	86
763.631	85.84
763.81	86.62
763.99	86.99
764.169	85.56
764.348	84.52
764.527	84.63
764.706	84.39
764.885	84.84
765.064	86.55
765.243	87.47
765.423	87.54
765.602	87.04
765.781	84.92
765.96	84.69
766.139	84.8
766.318	85.15
766.497	84.73
766.676	84.59
766.854	84.6
767.033	84.54
767.212	86.33
767.391	87.24
767.57	89.4
767.749	88.83
767.928	89.85
768.106	86.93
768.285	84.94
768.464	85.36
768.643	85.24
768.821	83.53
769	84.49
769.179	85.52
769.357	85.1
769.536	83.15
769.715	83.02
769.893	83.15
770.072	82.59
770.25	81.33
770.429	83.28
770.607	83.92
770.786	82.46
770.964	84.45
771.143	84.92
771.321	82.66
771.5	84.64
771.678	85.42
771.857	83.13
772.035	84.71
772.213	86.14
772.392	83.64
772.57	83.54
772.748	84.62
772.927	83.45
773.105	83.86
773.283	83.34
773.461	83.6
773.64	82.47
773.818	82.85
773.996	82.61
774.174	84.22
774.352	83.5
774.531	83.96
774.709	83.79
774.887	82.83
775.065	80.55
775.243	80.42
775.421	78.76
775.599	77.63
775.777	77.51
775.955	78.39
776.133	79.58
776.311	79.28
776.489	80.32
776.667	80.28
776.844	80.98
777.022	79.16
777.2	79.71
777.378	78.17
777.556	80.79
777.734	81.87
777.911	83.22
778.089	84.99
778.267	86.14
778.445	87.64
778.622	87.51
778.8	84.48
778.978	82.96
779.155	81.97
779.333	80.41
779.511	78.19
779.688	80.29
779.866	80.82
780.043	83.48
780.221	83.75
780.398	84.13
780.576	82.97
780.753	82.61
780.931	80.67
781.108	82.05
781.286	82.29
781.463	80.81
781.64	80.01
781.818	82.17
781.995	79.95
782.172	79.82
782.35	82.88
782.527	83.72
782.704	80.34
782.882	76.85
783.059	76.38
783.236	74.3
783.413	74.7
783.59	76.07
783.768	79.75
783.945	80.57
784.122	81.26
784.299	80.28
784.476	78.11
784.653	74.84
784.83	74.23
785.007	73.73
785.184	74.92
785.361	79.02
785.538	77.9
785.715	77.31
785.892	79.48
786.069	78.33
786.246	75.9
786.423	78.09
786.6	79.28
786.776	78.91
786.953	79.35
787.13	78.79
787.307	80.5
787.484	77.03
787.66	75.56
787.837	73.73
788.014	77.12
788.191	72.99
788.367	75.97
788.544	75.37
788.721	80.2
788.897	77.73
789.074	81.23
789.25	82.91
789.427	85.72
789.603	79.76
789.78	77
789.956	76.07
790.133	74.09
790.309	71.52
790.486	73.98
790.662	74.22
790.839	72.41
791.015	75.13
791.192	73.88
791.368	73.62
791.544	73.48
791.721	76.9
791.897	72.03
792.073	72.53
792.249	69.59
792.426	70.61
792.602	66.87
792.778	67.93
792.954	70.16
793.13	73.18
793.307	74.06
793.483	73.06
793.659	72.56
793.835	72.64
794.011	75.24
794.187	72.86
794.363	75.14
794.539	78.26
794.715	74.64
794.891	69.3
795.067	70.26
795.243	69.82
795.419	68.43
795.595	75.68
795.771	77.31
795.947	75.73
796.122	72.72
796.298	70.65
796.474	74.05
796.65	76.76
796.826	74.76
797.001	78.49
797.177	77.24
797.353	68.8
797.529	68.66
797.704	68.25
797.88	64.91
798.056	67.34
798.231	65.94
798.407	69.18
798.582	69.55
798.758	71.93
798.934	70.46
799.109	71.08
799.285	63.27
799.46	66.72
799.636	65.54
799.811	68.41
799.986	64.29
800.162	63.66
800.337	61.38
800.513	65.67
800.688	59.77
800.863	67.97
801.039	72.57
801.214	74.09
801.389	69.54
801.565	72.38
801.74	66.97
801.915	66.3
802.09	63.23
802.265	63.43
802.441	63.59
802.616	67.22
802.791	61.97
802.966	66.78
803.141	65.31
803.316	66.74
803.491	63.68
803.666	69.16
803.841	65.56
804.016	58.32
804.191	55.04
804.366	54.76
804.541	53.96
804.716	49.1
804.891	61.92
805.066	64.65
805.241	64.33
805.416	69.28
805.591	74.28
805.765	78.14
805.94	77.4
806.115	78.69
806.29	73.06
806.464	79.38
806.639	73.02
806.814	69.61
806.989	69.04
807.163	72.51
807.338	63.38
807.512	66.74
807.687	68.31
807.862	68.01
808.036	68.9
808.211	68.89
808.385	61.35
808.56	62.52
808.734	62.73
808.909	55.51
809.083	59.54
809.258	62.83
809.432	61.99
809.606	66.86
809.781	69.91
809.955	70.18
810.13	67.2
810.304	66.26
810.478	60.29
810.652	58.41
810.827	59.2
811.001	60.95
811.175	62.07
811.349	66.45
811.524	70.56
811.698	66.47
811.872	72.41
812.046	66.77
812.22	62.18
812.394	57.88
812.568	60.26
812.742	53.43
812.916	63.11
813.09	61.44
813.264	61.2
813.438	60.57
813.612	63.03
813.786	57.85
813.96	63.81
814.134	64.08
814.308	63.69
814.482	59.08
814.656	51.48
814.83	46.15
815.003	50.98
815.177	53.47
815.351	60.84
815.525	74.95
815.698	72.44
815.872	60.17
816.046	53.83
816.219	48.33
816.393	44.11
816.567	42.7
816.74	42.62
816.914	45.76
817.088	49.26
817.261	50.77
817.435	54.59
817.608	62.93
817.782	58.72
817.955	57.85
818.129	56.12
818.302	60.19
818.475	60.31
818.649	62.71
818.822	57.87
818.996	62.57
819.169	61.64
819.342	62.67
819.516	64.99
819.689	67.51
819.862	62.79
820.035	57.68
820.209	55.57
820.382	54.09
820.555	54.06
820.728	46.17
820.901	41.99
821.075	49.75
821.248	56.87
821.421	52.97
821.594	52.82
821.767	66.59
821.94	51.35
822.113	50.95
822.286	61.04
822.459	57.62
822.632	58.31
822.805	60.35
822.978	50.67
823.151	35.65
823.324	30.02
823.496	9.3
823.669	13.57
823.842	19.19
824.015	21.72
824.188	29.01
824.361	43.03
824.533	43.65
824.706	41
824.879	44.88
825.051	60.51
825.224	64.47
825.397	56.8
825.569	51.23
825.742	53.59
825.915	42.34
826.087	32.57
826.26	34.86
826.432	41.39
826.605	36.5
826.777	48.66
826.95	56.07
827.122	42.16
827.295	53.51
827.467	43.2
827.64	23.5
827.812	1.08
827.984	31.36
828.157	30.14
828.329	45.29
828.501	23.02
828.674	40.5
828.846	36.22
829.018	25.98
829.19	27.64
829.363	42.39
829.535	47.1
829.707	50.34
829.879	46.06
830.051	43.03
830.223	50.86
830.395	24.43
830.568	27.43
830.74	38.41
830.912	41.78
831.084	40.99
831.256	42.04
831.428	40.55
831.6	19.49
831.772	12.24
831.943	-2.66
832.115	6.95
832.287	5.49
832.459	23.62
832.631	25.68
832.803	42.36
832.975	56.61
833.146	50.14
833.318	51.96
833.49	53.48
833.662	59.51
833.833	39.18
834.005	48.09
834.177	44.2
834.348	45.92
834.52	41.06
834.692	47.35
834.863	47.38
835.035	56.29
835.206	48.95
835.378	45.75
835.549	38.46
835.721	39.37
835.892	42.25
836.064	44.15
836.235	45.51
836.407	41.07
836.578	29.27
836.749	17.22
836.921	21.03
837.092	12.37
837.264	20.69
837.435	13.39
837.606	23.64
837.777	20.79
837.949	35.71
838.12	31.52
838.291	42.86
838.462	43.64
838.633	52.55
838.805	35.88
838.976	33.51
839.147	41.41
839.318	38.66
839.489	13.18
839.66	42.63
839.831	54.79
840.002	49.89
840.173	62.36
840.344	70.27
840.515	55.1
840.686	45.89
840.857	43.48
841.028	32.39
841.199	32.92
841.369	17.04
841.54	7.09
841.711	34.26
841.882	32.77
842.053	29.11
842.223	51.64
842.394	47.13
842.565	13.25
842.736	4.94
842.906	5.23
843.077	10.22
843.248	21.24
843.418	35.24
843.589	46.16
843.759	59.91
843.93	36.29
844.101	28.79
844.271	44.1
844.442	38.75
844.612	35.49
844.783	32.8
844.953	27.92
845.123	14.7
845.294	4.08
845.464	-33.13
845.635	-25.29
845.805	-53.31
845.975	-33.94
846.146	-17.4
846.316	-7.09
846.486	6.82
846.656	22.93
846.827	20.07
846.997	35.41
847.167	28.85
847.337	28.74
847.507	25.63
847.677	26.7
847.848	22.12
848.018	21.61
848.188	19.63
848.358	9.26
848.528	6.87
848.698	-9.54
848.868	14.66
849.038	7.97
849.208	-2.13
849.378	-1.23
849.548	-10.04
849.718	-29.11
849.887	-20.47
850.057	4.45
850.227	21.68
850.397	25.15
850.567	1.73
850.737	9.98
850.906	13.49
851.076	-13.25
851.246	-8.96
851.415	5.76
851.585	-11.07
851.755	9.02
851.924	14.89
852.094	15.08
852.264	2.59
852.433	-10.99
852.603	-19.32
852.772	29.1
852.942	52.5
853.111	40.87
853.281	45.62
853.45	3.95
853.62	-22.54
853.789	-59.17
853.959	-26.6
854.128	-24.29
854.297	10.01
854.467	18.17
854.636	27.67
854.805	11.06
854.975	1.94
855.144	-8
855.313	-20.84
855.482	-19.38
855.652	-24.2
855.821	-25.96
855.99	-3.43
856.159	-0.33
856.328	4.92
856.497	33.73
856.667	32.44
856.836	25.25
857.005	16.35
857.174	8.89
857.343	-28.96
857.512	-12.84
857.681	-40.4
857.85	-33.67
858.019	-75.7
858.188	-58.42
858.356	-22.09
858.525	-2.5
858.694	0.2
858.863	12.22
859.032	22.76
859.201	9.03
859.369	22.33
859.538	20.52
859.707	11.76
859.876	19.55
860.044	30.23
860.213	31.43
860.382	33.2
860.55	29.33
860.719	30.03
860.888	7.05
861.056	11.78
861.225	5.68
861.393	26.05
861.562	14.44
861.73	9.57
861.899	-25.71
862.067	-51.99
862.236	-52.46
862.404	-44.47
862.572	-37.08
862.741	-17.67
862.909	2.46
863.078	-2.05
863.246	-10.55
863.414	-3.78
863.582	3.1
863.751	0.22
863.919	12.83
864.087	-11.64
864.255	-45.4
864.424	-48.13
864.592	-20.93
864.76	-60.47
864.928	-38.94
865.096	-37.15
865.264	-47.15
865.432	-54.58
865.6	-23.2
865.768	-16.39
865.936	-15.32
866.104	-19.6
866.272	-91.03
866.44	-75.55
866.608	-54.25
866.776	-41.05
866.944	3.69
867.112	9.12
867.28	18.03
867.448	31.06
867.615	29.26
867.783	5.69
867.951	23.71
868.119	5.54
868.286	-10.07
868.454	-11.53
868.622	-35.92
868.789	-54.53
868.957	-34.73
869.125	-39.61
869.292	-66.62
869.46	-4.51
869.627	2.27
869.795	15.64
869.963	40.77
870.13	47.38
870.298	27.46
870.465	21.77
870.632	4
870.8	-9.23
870.967	-8.03
871.135	-45.61
871.302	-29.46
871.469	-18.14
871.637	-60.72
871.804	-41.33
871.971	-14.89
872.139	-49.4
872.306	-65.69
872.473	-62.27
872.64	-157.12
872.807	-150.83
872.975	-222.48
873.142	-74.84
873.309	-37.67
873.476	5.2
873.643	11.49
873.81	21.8
873.977	-20.02
874.144	2.58
874.311	-1.91
874.478	-55.85
874.645	-118.48
874.812	-13.15
874.979	-47.11
875.146	-107.46
875.313	-36.14
875.48	11.67
875.647	-1.74
875.813	-51.6
875.98	-34.53
876.147	-155.16
876.314	-106.68
876.481	-83.78
876.647	-20.35
876.814	-4.96
876.981	19.83
877.147	4.28
877.314	8.54
877.481	36.33
877.647	26.56
877.814	10.26
877.98	34.45
878.147	39.09
878.314	50.92
878.48	67.9
878.647	81.72
878.813	83.71
878.979	53.85
879.146	27.9
879.312	16.77
879.479	-10.74
879.645	-6.87
879.811	-23.18
879.978	-19.03
880.144	-30.91
880.31	-30.5
880.477	-15.16
880.643	-13.72
880.809	-93.98
880.975	-90.17
881.142	-192.57
881.308	588.29
881.474	876.87
881.64	-188.96
881.806	-232.16
881.972	-87.82
882.138	-37.86
882.304	-13.1
882.47	-8.14
882.636	-19.35
882.802	-19.78
882.968	-65.53
883.134	-46.69
883.3	-83.21
883.466	-58.6
883.632	-117.19
883.798	-170.37
883.964	-224.28
884.129	-1217.03
884.295	-201.81
884.461	-152.2
884.627	-50.71
884.793	-70.82
884.958	-0.07
885.124	-24.04
885.29	-61.83
885.455	-98.02
885.621	-53.06
885.787	-38.42
885.952	-42.89
886.118	13.6
886.283	23.78
886.449	11.14
886.614	0.61
886.78	2.96
886.945	-35.01
887.111	-64.17
887.276	-96.61
887.442	-197.52
887.607	-130.42
887.773	-74.79
887.938	-55.24
888.103	-32.41
888.269	-8.27
888.434	-9.78
888.599	-19.1
888.764	11.72
888.93	13.36
889.095	6.47
889.26	-14.71
889.425	-20.66
889.59	-105.84
889.756	-78.04
889.921	-65.44
890.086	-167.64
890.251	-126.74
890.416	-65.99
890.581	-128.66
890.746	-57.3
890.911	-11.54
891.076	-23.45
891.241	-27.23
891.406	-26.92
891.571	-83.24
891.736	-167.51
891.901	-30.34
892.065	-26.63
892.23	11.61
892.395	-0.11
892.56	-1.27
892.725	14.3
892.889	57.54
893.054	3
893.219	-58.36
893.384	-97.03
893.548	-167.39
893.713	-241.87
893.878	-393.68
